7497.03301,0.71575
7495.10426,0.71702
7493.17552,0.71944
7491.24677,0.72051
7489.31803,0.71987
7487.38928,0.71665
7485.46054,0.71144
7483.53179,0.70850
7481.60305,0.70935
7479.67430,0.70976
7477.74556,0.70882
7475.81681,0.71112
7473.88807,0.71553
7471.95932,0.71597
7470.03057,0.71216
7468.10183,0.70812
7466.17308,0.70702
7464.24434,0.70867
7462.31559,0.71028
7460.38685,0.71021
7458.45810,0.70815
7456.52936,0.70568
7454.60061,0.70463
7452.67187,0.70420
7450.74312,0.70337
7448.81438,0.70431
7446.88563,0.70856
7444.95689,0.71270
7443.02814,0.71179
7441.09940,0.70550
7439.17065,0.70176
7437.24190,0.70632
7435.31316,0.71241
7433.38441,0.71197
7431.45567,0.70637
7429.52692,0.70335
7427.59818,0.70538
7425.66943,0.70775
7423.74069,0.70814
7421.81194,0.70518
7419.88320,0.69877
7417.95445,0.69261
7416.02571,0.68807
7414.09696,0.68545
7412.16822,0.68671
7410.23947,0.69102
7408.31073,0.69513
7406.38198,0.69661
7404.45323,0.69395
7402.52449,0.68908
7400.59574,0.68644
7398.66700,0.68530
7396.73825,0.68170
7394.80951,0.67686
7392.88076,0.67415
7390.95202,0.67390
7389.02327,0.67559
7387.09453,0.67799
7385.16578,0.67976
7383.23704,0.67994
7381.30829,0.67639
7379.37955,0.66999
7377.45080,0.66418
7375.52205,0.66109
7373.59331,0.66115
7371.66456,0.66168
7369.73582,0.66250
7367.80707,0.66497
7365.87833,0.66527
7363.94958,0.66196
7362.02084,0.65861
7360.09209,0.65777
7358.16335,0.66019
7356.23460,0.66485
7354.30586,0.66924
7352.37711,0.67078
7350.44837,0.67052
7348.51962,0.67144
7346.59088,0.67224
7344.66213,0.66994
7342.73338,0.66619
7340.80464,0.66595
7338.87589,0.66739
7336.94715,0.66294
7335.01840,0.65557
7333.08966,0.65311
7331.16091,0.65301
7329.23217,0.65285
7327.30342,0.65802
7325.37468,0.66542
7323.44593,0.66368
7321.51719,0.65435
7319.58844,0.65077
7317.65970,0.65652
7315.73095,0.66176
7313.80221,0.66006
7311.87346,0.65475
7309.94471,0.65100
7308.01597,0.64939
7306.08722,0.64824
7304.15848,0.64966
7302.22973,0.65530
7300.30099,0.66116
7298.37224,0.66165
7296.44350,0.65524
7294.51475,0.64560
7292.58601,0.63756
7290.65726,0.63228
7288.72852,0.63014
7286.79977,0.63307
7284.87103,0.63787
7282.94228,0.63712
7281.01353,0.62993
7279.08479,0.62401
7277.15604,0.62380
7275.22730,0.62532
7273.29855,0.62508
7271.36981,0.62261
7269.44106,0.61986
7267.51232,0.62141
7265.58357,0.62697
7263.65483,0.63054
7261.72608,0.62806
7259.79734,0.62296
7257.86859,0.62113
7255.93985,0.62193
7254.01110,0.62099
7252.08236,0.61802
7250.15361,0.61713
7248.22486,0.61912
7246.29612,0.62089
7244.36737,0.62265
7242.43863,0.62508
7240.50988,0.62384
7238.58114,0.61655
7236.65239,0.60927
7234.72365,0.60787
7232.79490,0.61143
7230.86616,0.61712
7228.93741,0.62208
7227.00867,0.62274
7225.07992,0.61903
7223.15118,0.61708
7221.22243,0.62049
7219.29369,0.62315
7217.36494,0.61953
7215.43619,0.61397
7213.50745,0.61200
7211.57870,0.61282
7209.64996,0.61279
7207.72121,0.61089
7205.79247,0.60938
7203.86372,0.60870
7201.93498,0.60703
7200.00623,0.60539
7198.07749,0.60604
7196.14874,0.60873
7194.22000,0.61063
7192.29125,0.60981
7190.36251,0.60895
7188.43376,0.60969
7186.50501,0.60791
7184.57627,0.60186
7182.64752,0.59720
7180.71878,0.59857
7178.79003,0.60333
7176.86129,0.60730
7174.93254,0.60898
7173.00380,0.60827
7171.07505,0.60656
7169.14631,0.60594
7167.21756,0.60701
7165.28882,0.60767
7163.36007,0.60726
7161.43133,0.60889
7159.50258,0.61224
7157.57384,0.61341
7155.64509,0.61276
7153.71634,0.61275
7151.78760,0.61295
7149.85885,0.61273
7147.93011,0.61361
7146.00136,0.61520
7144.07262,0.61562
7142.14387,0.61680
7140.21513,0.62021
7138.28638,0.62177
7136.35764,0.61904
7134.42889,0.61548
7132.50015,0.61403
7130.57140,0.61587
7128.64266,0.61960
7126.71391,0.62088
7124.78516,0.62054
7122.85642,0.62235
7120.92767,0.62378
7118.99893,0.62178
7117.07018,0.62036
7115.14144,0.62247
7113.21269,0.62390
7111.28395,0.62307
7109.35520,0.62275
7107.42646,0.62246
7105.49771,0.62157
7103.56897,0.62264
7101.64022,0.62436
7099.71148,0.62235
7097.78273,0.61887
7095.85399,0.61739
7093.92524,0.61649
7091.99649,0.61779
7090.06775,0.62236
7088.13900,0.62563
7086.21026,0.62531
7084.28151,0.62341
7082.35277,0.62202
7080.42402,0.62257
7078.49528,0.62353
7076.56653,0.62165
7074.63779,0.61987
7072.70904,0.62249
7070.78030,0.62604
7068.85155,0.62635
7066.92281,0.62422
7064.99406,0.62168
7063.06532,0.61946
7061.13657,0.61773
7059.20782,0.61821
7057.27908,0.62116
7055.35033,0.62280
7053.42159,0.62105
7051.49284,0.61839
7049.56410,0.61751
7047.63535,0.61925
7045.70661,0.62275
7043.77786,0.62540
7041.84912,0.62615
7039.92037,0.62737
7037.99163,0.62943
7036.06288,0.62878
7034.13414,0.62467
7032.20539,0.62142
7030.27664,0.62243
7028.34790,0.62451
7026.41915,0.62281
7024.49041,0.61881
7022.56166,0.61535
7020.63292,0.61326
7018.70417,0.61482
7016.77543,0.61866
7014.84668,0.61990
7012.91794,0.61850
7010.98919,0.61727
7009.06045,0.61746
7007.13170,0.61954
7005.20296,0.62249
7003.27421,0.62436
7001.34547,0.62416
6999.41672,0.62178
6997.48797,0.61922
6995.55923,0.61871
6993.63048,0.61843
6991.70174,0.61641
6989.77299,0.61445
6987.84425,0.61351
6985.91550,0.61301
6983.98676,0.61359
6982.05801,0.61473
6980.12927,0.61506
6978.20052,0.61508
6976.27178,0.61530
6974.34303,0.61585
6972.41429,0.61744
6970.48554,0.61932
6968.55680,0.61981
6966.62805,0.61906
6964.69930,0.61843
6962.77056,0.61892
6960.84181,0.62147
6958.91307,0.62566
6956.98432,0.62789
6955.05558,0.62625
6953.12683,0.62473
6951.19809,0.62573
6949.26934,0.62577
6947.34060,0.62472
6945.41185,0.62526
6943.48311,0.62560
6941.55436,0.62456
6939.62562,0.62403
6937.69687,0.62414
6935.76812,0.62382
6933.83938,0.62341
6931.91063,0.62385
6929.98189,0.62558
6928.05314,0.62908
6926.12440,0.63302
6924.19565,0.63434
6922.26691,0.63259
6920.33816,0.62991
6918.40942,0.62789
6916.48067,0.62867
6914.55193,0.63180
6912.62318,0.63171
6910.69444,0.62727
6908.76569,0.62379
6906.83695,0.62363
6904.90820,0.62591
6902.97945,0.62912
6901.05071,0.63033
6899.12196,0.62872
6897.19322,0.62751
6895.26447,0.62828
6893.33573,0.62955
6891.40698,0.63121
6889.47824,0.63370
6887.54949,0.63510
6885.62075,0.63381
6883.69200,0.63231
6881.76326,0.63211
6879.83451,0.63203
6877.90577,0.63281
6875.97702,0.63361
6874.04828,0.63319
6872.11953,0.63375
6870.19078,0.63487
6868.26204,0.63485
6866.33329,0.63432
6864.40455,0.63243
6862.47580,0.62963
6860.54706,0.62868
6858.61831,0.62896
6856.68957,0.62911
6854.76082,0.63030
6852.83208,0.63260
6850.90333,0.63365
6848.97459,0.63296
6847.04584,0.63348
6845.11710,0.63574
6843.18835,0.63788
6841.25960,0.63919
6839.33086,0.63933
6837.40211,0.63859
6835.47337,0.63754
6833.54462,0.63738
6831.61588,0.63824
6829.68713,0.63848
6827.75839,0.63925
6825.82964,0.64106
6823.90090,0.64218
6821.97215,0.64153
6820.04341,0.63811
6818.11466,0.63416
6816.18592,0.63274
6814.25717,0.63272
6812.32843,0.63417
6810.39968,0.63692
6808.47093,0.63674
6806.54219,0.63459
6804.61344,0.63508
6802.68470,0.63570
6800.75595,0.63262
6798.82721,0.62837
6796.89846,0.62670
6794.96972,0.62735
6793.04097,0.62843
6791.11223,0.62941
6789.18348,0.62954
6787.25474,0.62780
6785.32599,0.62499
6783.39725,0.62255
6781.46850,0.62057
6779.53975,0.61944
6777.61101,0.61974
6775.68226,0.62005
6773.75352,0.61836
6771.82477,0.61521
6769.89603,0.61353
6767.96728,0.61410
6766.03854,0.61493
6764.10979,0.61505
6762.18105,0.61439
6760.25230,0.61297
6758.32356,0.61152
6756.39481,0.61102
6754.46607,0.61191
6752.53732,0.61334
6750.60858,0.61382
6748.67983,0.61245
6746.75108,0.60916
6744.82234,0.60572
6742.89359,0.60454
6740.96485,0.60508
6739.03610,0.60574
6737.10736,0.60636
6735.17861,0.60611
6733.24987,0.60490
6731.32112,0.60371
6729.39238,0.60236
6727.46363,0.60145
6725.53489,0.60262
6723.60614,0.60570
6721.67740,0.60803
6719.74865,0.60718
6717.81991,0.60454
6715.89116,0.60385
6713.96241,0.60491
6712.03367,0.60441
6710.10492,0.60296
6708.17618,0.60261
6706.24743,0.60213
6704.31869,0.60039
6702.38994,0.59887
6700.46120,0.59880
6698.53245,0.59893
6696.60371,0.59868
6694.67496,0.59825
6692.74622,0.59629
6690.81747,0.59302
6688.88873,0.59058
6686.95998,0.58966
6685.03123,0.58977
6683.10249,0.59052
6681.17374,0.59161
6679.24500,0.59322
6677.31625,0.59497
6675.38751,0.59537
6673.45876,0.59563
6671.53002,0.59705
6669.60127,0.59702
6667.67253,0.59475
6665.74378,0.59251
6663.81504,0.59236
6661.88629,0.59453
6659.95755,0.59695
6658.02880,0.59772
6656.10006,0.59650
6654.17131,0.59528
6652.24256,0.59566
6650.31382,0.59614
6648.38507,0.59633
6646.45633,0.59613
6644.52758,0.59461
6642.59884,0.59381
6640.67009,0.59501
6638.74135,0.59563
6636.81260,0.59449
6634.88386,0.59334
6632.95511,0.59277
6631.02637,0.59211
6629.09762,0.59115
6627.16888,0.59059
6625.24013,0.59110
6623.31139,0.59194
6621.38264,0.59352
6619.45389,0.59647
6617.52515,0.59802
6615.59640,0.59707
6613.66766,0.59628
6611.73891,0.59649
6609.81017,0.59693
6607.88142,0.59719
6605.95268,0.59685
6604.02393,0.59770
6602.09519,0.60006
6600.16644,0.60014
6598.23770,0.59738
6596.30895,0.59468
6594.38021,0.59438
6592.45146,0.59724
6590.52271,0.60070
6588.59397,0.60247
6586.66522,0.60301
6584.73648,0.60297
6582.80773,0.60264
6580.87899,0.60278
6578.95024,0.60454
6577.02150,0.60723
6575.09275,0.60843
6573.16401,0.60781
6571.23526,0.60717
6569.30652,0.60806
6567.37777,0.61046
6565.44903,0.61143
6563.52028,0.61000
6561.59154,0.60967
6559.66279,0.61076
6557.73404,0.61128
6555.80530,0.61198
6553.87655,0.61291
6551.94781,0.61306
6550.01906,0.61288
6548.09032,0.61337
6546.16157,0.61433
6544.23283,0.61510
6542.30408,0.61638
6540.37534,0.61840
6538.44659,0.61977
6536.51785,0.61954
6534.58910,0.61954
6532.66036,0.62168
6530.73161,0.62325
6528.80287,0.62257
6526.87412,0.62245
6524.94537,0.62203
6523.01663,0.62008
6521.08788,0.62045
6519.15914,0.62430
6517.23039,0.62904
6515.30165,0.63263
6513.37290,0.63370
6511.44416,0.63296
6509.51541,0.63213
6507.58667,0.63164
6505.65792,0.63088
6503.72918,0.62994
6501.80043,0.62991
6499.87169,0.63132
6497.94294,0.63346
6496.01419,0.63506
6494.08545,0.63533
6492.15670,0.63507
6490.22796,0.63571
6488.29921,0.63615
6486.37047,0.63437
6484.44172,0.63267
6482.51298,0.63368
6480.58423,0.63540
6478.65549,0.63613
6476.72674,0.63705
6474.79800,0.63852
6472.86925,0.63997
6470.94051,0.64112
6469.01176,0.64134
6467.08302,0.64093
6465.15427,0.64075
6463.22552,0.64002
6461.29678,0.63871
6459.36803,0.63942
6457.43929,0.64199
6455.51054,0.64250
6453.58180,0.64073
6451.65305,0.64018
6449.72431,0.64262
6447.79556,0.64683
6445.86682,0.64955
6443.93807,0.64940
6442.00933,0.64793
6440.08058,0.64656
6438.15184,0.64595
6436.22309,0.64585
6434.29434,0.64553
6432.36560,0.64547
6430.43685,0.64617
6428.50811,0.64700
6426.57936,0.64798
6424.65062,0.64878
6422.72187,0.64887
6420.79313,0.64895
6418.86438,0.64916
6416.93564,0.64951
6415.00689,0.64943
6413.07815,0.64736
6411.14940,0.64420
6409.22066,0.64229
6407.29191,0.64259
6405.36317,0.64406
6403.43442,0.64485
6401.50567,0.64585
6399.57693,0.64904
6397.64818,0.65284
6395.71944,0.65437
6393.79069,0.65318
6391.86195,0.65078
6389.93320,0.64908
6388.00446,0.64867
6386.07571,0.64873
6384.14697,0.64915
6382.21822,0.64938
6380.28948,0.64898
6378.36073,0.64913
6376.43199,0.65017
6374.50324,0.65102
6372.57450,0.65142
6370.64575,0.65122
6368.71700,0.64959
6366.78826,0.64745
6364.85951,0.64761
6362.93077,0.65016
6361.00202,0.65220
6359.07328,0.65311
6357.14453,0.65408
6355.21579,0.65436
6353.28704,0.65315
6351.35830,0.65127
6349.42955,0.64968
6347.50081,0.64867
6345.57206,0.64809
6343.64332,0.64800
6341.71457,0.64907
6339.78582,0.65194
6337.85708,0.65475
6335.92833,0.65452
6333.99959,0.65215
6332.07084,0.65082
6330.14210,0.65118
6328.21335,0.65155
6326.28461,0.65093
6324.35586,0.65013
6322.42712,0.64991
6320.49837,0.64990
6318.56963,0.65009
6316.64088,0.65124
6314.71214,0.65295
6312.78339,0.65391
6310.85465,0.65380
6308.92590,0.65286
6306.99715,0.65170
6305.06841,0.65101
6303.13966,0.65110
6301.21092,0.65249
6299.28217,0.65448
6297.35343,0.65555
6295.42468,0.65647
6293.49594,0.65714
6291.56719,0.65543
6289.63845,0.65239
6287.70970,0.65042
6285.78096,0.64953
6283.85221,0.64887
6281.92347,0.64789
6279.99472,0.64693
6278.06598,0.64718
6276.13723,0.64900
6274.20848,0.65100
6272.27974,0.65199
6270.35099,0.65240
6268.42225,0.65223
6266.49350,0.65114
6264.56476,0.65090
6262.63601,0.65189
6260.70727,0.65181
6258.77852,0.65133
6256.84978,0.65205
6254.92103,0.65237
6252.99229,0.65189
6251.06354,0.65250
6249.13480,0.65408
6247.20605,0.65442
6245.27730,0.65278
6243.34856,0.65121
6241.41981,0.65153
6239.49107,0.65278
6237.56232,0.65371
6235.63358,0.65487
6233.70483,0.65631
6231.77609,0.65659
6229.84734,0.65538
6227.91860,0.65363
6225.98985,0.65138
6224.06111,0.64914
6222.13236,0.64894
6220.20362,0.65003
6218.27487,0.65010
6216.34613,0.65019
6214.41738,0.65160
6212.48863,0.65279
6210.55989,0.65228
6208.63114,0.65083
6206.70240,0.65039
6204.77365,0.65104
6202.84491,0.65088
6200.91616,0.64908
6198.98742,0.64706
6197.05867,0.64717
6195.12993,0.64928
6193.20118,0.65024
6191.27244,0.64860
6189.34369,0.64637
6187.41495,0.64540
6185.48620,0.64544
6183.55746,0.64580
6181.62871,0.64633
6179.69996,0.64587
6177.77122,0.64350
6175.84247,0.64055
6173.91373,0.63867
6171.98498,0.63860
6170.05624,0.63987
6168.12749,0.64048
6166.19875,0.63927
6164.27000,0.63714
6162.34126,0.63518
6160.41251,0.63402
6158.48377,0.63430
6156.55502,0.63529
6154.62628,0.63474
6152.69753,0.63289
6150.76878,0.63229
6148.84004,0.63224
6146.91129,0.63099
6144.98255,0.62954
6143.05380,0.62844
6141.12506,0.62749
6139.19631,0.62680
6137.26757,0.62563
6135.33882,0.62439
6133.41008,0.62440
6131.48133,0.62454
6129.55259,0.62296
6127.62384,0.61990
6125.69510,0.61740
6123.76635,0.61602
6121.83761,0.61444
6119.90886,0.61242
6117.98011,0.60971
6116.05137,0.60644
6114.12262,0.60416
6112.19388,0.60320
6110.26513,0.60264
6108.33639,0.60224
6106.40764,0.60199
6104.47890,0.60137
6102.55015,0.60097
6100.62141,0.60123
6098.69266,0.60004
6096.76392,0.59725
6094.83517,0.59537
6092.90643,0.59398
6090.97768,0.59185
6089.04893,0.59054
6087.12019,0.59003
6085.19144,0.58845
6083.26270,0.58662
6081.33395,0.58566
6079.40521,0.58498
6077.47646,0.58365
6075.54772,0.58114
6073.61897,0.57881
6071.69023,0.57797
6069.76148,0.57813
6067.83274,0.57877
6065.90399,0.57949
6063.97525,0.57931
6062.04650,0.57806
6060.11776,0.57724
6058.18901,0.57719
6056.26026,0.57630
6054.33152,0.57533
6052.40277,0.57614
6050.47403,0.57733
6048.54528,0.57782
6046.61654,0.57841
6044.68779,0.57866
6042.75905,0.57754
6040.83030,0.57560
6038.90156,0.57392
6036.97281,0.57233
6035.04407,0.57071
6033.11532,0.56996
6031.18658,0.56980
6029.25783,0.56841
6027.32909,0.56594
6025.40034,0.56402
6023.47159,0.56172
6021.54285,0.55839
6019.61410,0.55584
6017.68536,0.55453
6015.75661,0.55344
6013.82787,0.55166
6011.89912,0.54921
6009.97038,0.54670
6008.04163,0.54386
6006.11289,0.54045
6004.18414,0.53688
6002.25540,0.53414
6000.32665,0.53229
5998.39791,0.52957
5996.46916,0.52624
5994.54041,0.52411
5992.61167,0.52250
5990.68292,0.52027
5988.75418,0.51769
5986.82543,0.51434
5984.89669,0.50944
5982.96794,0.50392
5981.03920,0.49912
5979.11045,0.49505
5977.18171,0.49111
5975.25296,0.48625
5973.32422,0.48016
5971.39547,0.47474
5969.46673,0.47110
5967.53798,0.46716
5965.60924,0.46124
5963.68049,0.45501
5961.75174,0.44945
5959.82300,0.44316
5957.89425,0.43701
5955.96551,0.43276
5954.03676,0.42881
5952.10802,0.42405
5950.17927,0.42016
5948.25053,0.41777
5946.32178,0.41595
5944.39304,0.41435
5942.46429,0.41323
5940.53555,0.41212
5938.60680,0.41078
5936.67806,0.41062
5934.74931,0.41186
5932.82057,0.41291
5930.89182,0.41347
5928.96307,0.41500
5927.03433,0.41781
5925.10558,0.41955
5923.17684,0.41878
5921.24809,0.41701
5919.31935,0.41528
5917.39060,0.41308
5915.46186,0.41084
5913.53311,0.40930
5911.60437,0.40733
5909.67562,0.40380
5907.74688,0.39971
5905.81813,0.39672
5903.88939,0.39567
5901.96064,0.39601
5900.03189,0.39663
5898.10315,0.39716
5896.17440,0.39822
5894.24566,0.40078
5892.31691,0.40404
5890.38817,0.40653
5888.45942,0.40863
5886.53068,0.41100
5884.60193,0.41366
5882.67319,0.41677
5880.74444,0.42003
5878.81570,0.42268
5876.88695,0.42474
5874.95821,0.42626
5873.02946,0.42672
5871.10072,0.42683
5869.17197,0.42786
5867.24322,0.42931
5865.31448,0.42960
5863.38573,0.42825
5861.45699,0.42649
5859.52824,0.42579
5857.59950,0.42569
5855.67075,0.42474
5853.74201,0.42324
5851.81326,0.42220
5849.88452,0.42114
5847.95577,0.41968
5846.02703,0.41841
5844.09828,0.41728
5842.16954,0.41569
5840.24079,0.41378
5838.31205,0.41237
5836.38330,0.41223
5834.45455,0.41283
5832.52581,0.41187
5830.59706,0.40876
5828.66832,0.40593
5826.73957,0.40480
5824.81083,0.40454
5822.88208,0.40383
5820.95334,0.40232
5819.02459,0.40111
5817.09585,0.40061
5815.16710,0.39948
5813.23836,0.39697
5811.30961,0.39413
5809.38087,0.39208
5807.45212,0.39083
5805.52337,0.38982
5803.59463,0.38829
5801.66588,0.38625
5799.73714,0.38497
5797.80839,0.38467
5795.87965,0.38354
5793.95090,0.38138
5792.02216,0.37985
5790.09341,0.37898
5788.16467,0.37816
5786.23592,0.37769
5784.30718,0.37737
5782.37843,0.37649
5780.44969,0.37504
5778.52094,0.37462
5776.59220,0.37559
5774.66345,0.37618
5772.73470,0.37632
5770.80596,0.37676
5768.87721,0.37690
5766.94847,0.37675
5765.01972,0.37715
5763.09098,0.37851
5761.16223,0.38075
5759.23349,0.38321
5757.30474,0.38496
5755.37600,0.38596
5753.44725,0.38693
5751.51851,0.38808
5749.58976,0.38931
5747.66102,0.39095
5745.73227,0.39330
5743.80352,0.39595
5741.87478,0.39820
5739.94603,0.40000
5738.01729,0.40226
5736.08854,0.40533
5734.15980,0.40827
5732.23105,0.41057
5730.30231,0.41255
5728.37356,0.41435
5726.44482,0.41646
5724.51607,0.41919
5722.58733,0.42137
5720.65858,0.42215
5718.72984,0.42295
5716.80109,0.42477
5714.87235,0.42635
5712.94360,0.42703
5711.01485,0.42778
5709.08611,0.42894
5707.15736,0.43041
5705.22862,0.43191
5703.29987,0.43303
5701.37113,0.43418
5699.44238,0.43544
5697.51364,0.43603
5695.58489,0.43576
5693.65615,0.43570
5691.72740,0.43690
5689.79866,0.43845
5687.86991,0.43867
5685.94117,0.43757
5684.01242,0.43636
5682.08368,0.43519
5680.15493,0.43385
5678.22618,0.43304
5676.29744,0.43354
5674.36869,0.43483
5672.43995,0.43542
5670.51120,0.43484
5668.58246,0.43434
5666.65371,0.43481
5664.72497,0.43520
5662.79622,0.43466
5660.86748,0.43432
5658.93873,0.43514
5657.00999,0.43657
5655.08124,0.43821
5653.15250,0.43998
5651.22375,0.44146
5649.29500,0.44240
5647.36626,0.44291
5645.43751,0.44327
5643.50877,0.44430
5641.58002,0.44649
5639.65128,0.44914
5637.72253,0.45123
5635.79379,0.45231
5633.86504,0.45302
5631.93630,0.45428
5630.00755,0.45623
5628.07881,0.45844
5626.15006,0.46021
5624.22132,0.46129
5622.29257,0.46228
5620.36383,0.46422
5618.43508,0.46654
5616.50633,0.46741
5614.57759,0.46714
5612.64884,0.46729
5610.72010,0.46787
5608.79135,0.46834
5606.86261,0.46856
5604.93386,0.46899
5603.00512,0.47005
5601.07637,0.47069
5599.14763,0.47061
5597.21888,0.47086
5595.29014,0.47102
5593.36139,0.47055
5591.43265,0.47022
5589.50390,0.47007
5587.57516,0.46959
5585.64641,0.46960
5583.71766,0.47102
5581.78892,0.47250
5579.86017,0.47284
5577.93143,0.47266
5576.00268,0.47236
5574.07394,0.47190
5572.14519,0.47162
5570.21645,0.47153
5568.28770,0.47153
5566.35896,0.47115
5564.43021,0.47021
5562.50147,0.46990
5560.57272,0.47030
5558.64398,0.47049
5556.71523,0.47060
5554.78648,0.47074
5552.85774,0.47100
5550.92899,0.47130
5549.00025,0.47108
5547.07150,0.47060
5545.14276,0.47062
5543.21401,0.47112
5541.28527,0.47140
5539.35652,0.47117
5537.42778,0.47079
5535.49903,0.47078
5533.57029,0.47110
5531.64154,0.47154
5529.71280,0.47234
5527.78405,0.47309
5525.85531,0.47344
5523.92656,0.47399
5521.99781,0.47486
5520.06907,0.47571
5518.14032,0.47658
5516.21158,0.47711
5514.28283,0.47676
5512.35409,0.47638
5510.42534,0.47666
5508.49660,0.47693
5506.56785,0.47735
5504.63911,0.47899
5502.71036,0.48140
5500.78162,0.48273
5498.85287,0.48251
5496.92413,0.48204
5494.99538,0.48255
5493.06664,0.48427
5491.13789,0.48544
5489.20914,0.48461
5487.28040,0.48347
5485.35165,0.48382
5483.42291,0.48498
5481.49416,0.48573
5479.56542,0.48569
5477.63667,0.48529
5475.70793,0.48540
5473.77918,0.48601
5471.85044,0.48685
5469.92169,0.48770
5467.99295,0.48766
5466.06420,0.48733
5464.13546,0.48775
5462.20671,0.48799
5460.27796,0.48794
5458.34922,0.48822
5456.42047,0.48861
5454.49173,0.48917
5452.56298,0.48985
5450.63424,0.49012
5448.70549,0.48988
5446.77675,0.48963
5444.84800,0.48986
5442.91926,0.49025
5440.99051,0.49082
5439.06177,0.49223
5437.13302,0.49351
5435.20428,0.49374
5433.27553,0.49423
5431.34679,0.49572
5429.41804,0.49703
5427.48929,0.49782
5425.56055,0.49911
5423.63180,0.50114
5421.70306,0.50339
5419.77431,0.50546
5417.84557,0.50738
5415.91682,0.50929
5413.98808,0.51091
5412.05933,0.51185
5410.13059,0.51234
5408.20184,0.51318
5406.27310,0.51494
5404.34435,0.51702
5402.41561,0.51852
5400.48686,0.51946
5398.55811,0.52016
5396.62937,0.52069
5394.70062,0.52130
5392.77188,0.52211
5390.84313,0.52302
5388.91439,0.52422
5386.98564,0.52577
5385.05690,0.52719
5383.12815,0.52840
5381.19941,0.52973
5379.27066,0.53101
5377.34192,0.53187
5375.41317,0.53245
5373.48443,0.53301
5371.55568,0.53337
5369.62694,0.53365
5367.69819,0.53403
5365.76944,0.53423
5363.84070,0.53414
5361.91195,0.53386
5359.98321,0.53378
5358.05446,0.53429
5356.12572,0.53522
5354.19697,0.53628
5352.26823,0.53696
5350.33948,0.53695
5348.41074,0.53684
5346.48199,0.53684
5344.55325,0.53656
5342.62450,0.53631
5340.69576,0.53683
5338.76701,0.53797
5336.83827,0.53876
5334.90952,0.53893
5332.98077,0.53884
5331.05203,0.53918
5329.12328,0.54009
5327.19454,0.54049
5325.26579,0.54041
5323.33705,0.54043
5321.40830,0.54017
5319.47956,0.54028
5317.55081,0.54150
5315.62207,0.54267
5313.69332,0.54299
5311.76458,0.54317
5309.83583,0.54333
5307.90709,0.54286
5305.97834,0.54196
5304.04959,0.54138
5302.12085,0.54128
5300.19210,0.54140
5298.26336,0.54124
5296.33461,0.54051
5294.40587,0.53945
5292.47712,0.53821
5290.54838,0.53684
5288.61963,0.53582
5286.69089,0.53510
5284.76214,0.53449
5282.83340,0.53386
5280.90465,0.53289
5278.97591,0.53163
5277.04716,0.53034
5275.11842,0.52938
5273.18967,0.52880
5271.26092,0.52815
5269.33218,0.52702
5267.40343,0.52567
5265.47469,0.52487
5263.54594,0.52444
5261.61720,0.52316
5259.68845,0.52130
5257.75971,0.52063
5255.83096,0.52090
5253.90222,0.52030
5251.97347,0.51917
5250.04473,0.51865
5248.11598,0.51835
5246.18724,0.51774
5244.25849,0.51676
5242.32975,0.51570
5240.40100,0.51498
5238.47225,0.51464
5236.54351,0.51436
5234.61476,0.51380
5232.68602,0.51305
5230.75727,0.51228
5228.82853,0.51132
5226.89978,0.51014
5224.97104,0.50928
5223.04229,0.50896
5221.11355,0.50873
5219.18480,0.50867
5217.25606,0.50916
5215.32731,0.50939
5213.39857,0.50847
5211.46982,0.50722
5209.54107,0.50687
5207.61233,0.50711
5205.68358,0.50719
5203.75484,0.50685
5201.82609,0.50619
5199.89735,0.50587
5197.96860,0.50594
5196.03986,0.50594
5194.11111,0.50636
5192.18237,0.50751
5190.25362,0.50875
5188.32488,0.50946
5186.39613,0.50939
5184.46739,0.50877
5182.53864,0.50848
5180.60990,0.50878
5178.68115,0.50922
5176.75240,0.51009
5174.82366,0.51144
5172.89491,0.51216
5170.96617,0.51201
5169.03742,0.51145
5167.10868,0.51057
5165.17993,0.50978
5163.25119,0.50968
5161.32244,0.51023
5159.39370,0.51061
5157.46495,0.51046
5155.53621,0.51053
5153.60746,0.51094
5151.67872,0.51124
5149.74997,0.51147
5147.82123,0.51151
5145.89248,0.51121
5143.96373,0.51099
5142.03499,0.51089
5140.10624,0.51057
5138.17750,0.51029
5136.24875,0.51042
5134.32001,0.51080
5132.39126,0.51132
5130.46252,0.51162
5128.53377,0.51126
5126.60503,0.51079
5124.67628,0.51108
5122.74754,0.51176
5120.81879,0.51195
5118.89005,0.51182
5116.96130,0.51175
5115.03255,0.51164
5113.10381,0.51152
5111.17506,0.51158
5109.24632,0.51195
5107.31757,0.51256
5105.38883,0.51291
5103.46008,0.51251
5101.53134,0.51169
5099.60259,0.51107
5097.67385,0.51093
5095.74510,0.51100
5093.81636,0.51071
5091.88761,0.51013
5089.95887,0.50949
5088.03012,0.50864
5086.10138,0.50759
5084.17263,0.50633
5082.24388,0.50523
5080.31514,0.50471
5078.38639,0.50424
5076.45765,0.50354
5074.52890,0.50307
5072.60016,0.50260
5070.67141,0.50198
5068.74267,0.50148
5066.81392,0.50070
5064.88518,0.49944
5062.95643,0.49847
5061.02769,0.49842
5059.09894,0.49873
5057.17020,0.49839
5055.24145,0.49737
5053.31270,0.49642
5051.38396,0.49603
5049.45521,0.49594
5047.52647,0.49526
5045.59772,0.49365
5043.66898,0.49201
5041.74023,0.49104
5039.81149,0.49031
5037.88274,0.48939
5035.95400,0.48842
5034.02525,0.48769
5032.09651,0.48710
5030.16776,0.48624
5028.23902,0.48519
5026.31027,0.48411
5024.38153,0.48299
5022.45278,0.48206
5020.52403,0.48122
5018.59529,0.48019
5016.66654,0.47907
5014.73780,0.47787
5012.80905,0.47622
5010.88031,0.47428
5008.95156,0.47256
5007.02282,0.47092
5005.09407,0.46901
5003.16533,0.46737
5001.23658,0.46639
4999.30784,0.46507
4997.37909,0.46258
4995.45035,0.45971
4993.52160,0.45721
4991.59286,0.45473
4989.66411,0.45199
4987.73536,0.44913
4985.80662,0.44626
4983.87787,0.44355
4981.94913,0.44098
4980.02038,0.43863
4978.09164,0.43655
4976.16289,0.43394
4974.23415,0.43043
4972.30540,0.42727
4970.37666,0.42530
4968.44791,0.42348
4966.51917,0.42080
4964.59042,0.41781
4962.66168,0.41557
4960.73293,0.41386
4958.80418,0.41195
4956.87544,0.41002
4954.94669,0.40818
4953.01795,0.40597
4951.08920,0.40360
4949.16046,0.40168
4947.23171,0.40026
4945.30297,0.39890
4943.37422,0.39694
4941.44548,0.39446
4939.51673,0.39228
4937.58799,0.39026
4935.65924,0.38822
4933.73050,0.38680
4931.80175,0.38589
4929.87301,0.38465
4927.94426,0.38272
4926.01551,0.38064
4924.08677,0.37900
4922.15802,0.37756
4920.22928,0.37610
4918.30053,0.37483
4916.37179,0.37360
4914.44304,0.37203
4912.51430,0.36976
4910.58555,0.36715
4908.65681,0.36534
4906.72806,0.36477
4904.79932,0.36466
4902.87057,0.36426
4900.94183,0.36367
4899.01308,0.36287
4897.08434,0.36167
4895.15559,0.36068
4893.22684,0.36045
4891.29810,0.36047
4889.36935,0.36007
4887.44061,0.35945
4885.51186,0.35919
4883.58312,0.35929
4881.65437,0.35938
4879.72563,0.35928
4877.79688,0.35907
4875.86814,0.35871
4873.93939,0.35829
4872.01065,0.35796
4870.08190,0.35758
4868.15316,0.35722
4866.22441,0.35731
4864.29566,0.35777
4862.36692,0.35812
4860.43817,0.35806
4858.50943,0.35804
4856.58068,0.35871
4854.65194,0.35983
4852.72319,0.36078
4850.79445,0.36126
4848.86570,0.36143
4846.93696,0.36174
4845.00821,0.36223
4843.07947,0.36273
4841.15072,0.36352
4839.22198,0.36471
4837.29323,0.36587
4835.36449,0.36680
4833.43574,0.36763
4831.50699,0.36850
4829.57825,0.36961
4827.64950,0.37100
4825.72076,0.37265
4823.79201,0.37456
4821.86327,0.37638
4819.93452,0.37791
4818.00578,0.37933
4816.07703,0.38077
4814.14829,0.38218
4812.21954,0.38374
4810.29080,0.38560
4808.36205,0.38746
4806.43331,0.38912
4804.50456,0.39067
4802.57582,0.39211
4800.64707,0.39354
4798.71832,0.39491
4796.78958,0.39609
4794.86083,0.39735
4792.93209,0.39868
4791.00334,0.39991
4789.07460,0.40130
4787.14585,0.40279
4785.21711,0.40437
4783.28836,0.40603
4781.35962,0.40718
4779.43087,0.40780
4777.50213,0.40859
4775.57338,0.40952
4773.64464,0.41019
4771.71589,0.41073
4769.78714,0.41137
4767.85840,0.41195
4765.92965,0.41265
4764.00091,0.41362
4762.07216,0.41433
4760.14342,0.41488
4758.21467,0.41582
4756.28593,0.41670
4754.35718,0.41683
4752.42844,0.41651
4750.49969,0.41655
4748.57095,0.41688
4746.64220,0.41674
4744.71346,0.41636
4742.78471,0.41626
4740.85597,0.41622
4738.92722,0.41582
4736.99847,0.41484
4735.06973,0.41353
4733.14098,0.41245
4731.21224,0.41158
4729.28349,0.41060
4727.35475,0.40956
4725.42600,0.40838
4723.49726,0.40659
4721.56851,0.40417
4719.63977,0.40201
4717.71102,0.40048
4715.78228,0.39893
4713.85353,0.39726
4711.92479,0.39588
4709.99604,0.39493
4708.06729,0.39402
4706.13855,0.39295
4704.20980,0.39210
4702.28106,0.39147
4700.35231,0.39065
4698.42357,0.38958
4696.49482,0.38845
4694.56608,0.38760
4692.63733,0.38684
4690.70859,0.38572
4688.77984,0.38434
4686.85110,0.38295
4684.92235,0.38162
4682.99361,0.38028
4681.06486,0.37888
4679.13612,0.37748
4677.20737,0.37605
4675.27862,0.37458
4673.34988,0.37321
4671.42113,0.37186
4669.49239,0.37053
4667.56364,0.36934
4665.63490,0.36830
4663.70615,0.36754
4661.77741,0.36712
4659.84866,0.36668
4657.91992,0.36586
4655.99117,0.36482
4654.06243,0.36382
4652.13368,0.36276
4650.20494,0.36144
4648.27619,0.35988
4646.34745,0.35822
4644.41870,0.35653
4642.48995,0.35488
4640.56121,0.35323
4638.63246,0.35142
4636.70372,0.34976
4634.77497,0.34855
4632.84623,0.34760
4630.91748,0.34696
4628.98874,0.34675
4627.05999,0.34670
4625.13125,0.34658
4623.20250,0.34669
4621.27376,0.34712
4619.34501,0.34758
4617.41627,0.34810
4615.48752,0.34910
4613.55877,0.35039
4611.63003,0.35135
4609.70128,0.35199
4607.77254,0.35258
4605.84379,0.35333
4603.91505,0.35433
4601.98630,0.35532
4600.05756,0.35616
4598.12881,0.35696
4596.20007,0.35778
4594.27132,0.35831
4592.34258,0.35825
4590.41383,0.35800
4588.48509,0.35795
4586.55634,0.35808
4584.62760,0.35819
4582.69885,0.35816
4580.77010,0.35790
4578.84136,0.35743
4576.91261,0.35702
4574.98387,0.35669
4573.05512,0.35634
4571.12638,0.35633
4569.19763,0.35667
4567.26889,0.35693
4565.34014,0.35719
4563.41140,0.35759
4561.48265,0.35781
4559.55391,0.35783
4557.62516,0.35795
4555.69642,0.35828
4553.76767,0.35860
4551.83893,0.35856
4549.91018,0.35842
4547.98143,0.35884
4546.05269,0.35951
4544.12394,0.35983
4542.19520,0.36005
4540.26645,0.36020
4538.33771,0.35992
4536.40896,0.35931
4534.48022,0.35872
4532.55147,0.35830
4530.62273,0.35797
4528.69398,0.35749
4526.76524,0.35690
4524.83649,0.35656
4522.90775,0.35640
4520.97900,0.35626
4519.05025,0.35635
4517.12151,0.35625
4515.19276,0.35542
4513.26402,0.35434
4511.33527,0.35378
4509.40653,0.35373
4507.47778,0.35373
4505.54904,0.35356
4503.62029,0.35327
4501.69155,0.35290
4499.76280,0.35264
4497.83406,0.35234
4495.90531,0.35157
4493.97657,0.35038
4492.04782,0.34932
4490.11908,0.34856
4488.19033,0.34772
4486.26158,0.34639
4484.33284,0.34466
4482.40409,0.34288
4480.47535,0.34105
4478.54660,0.33894
4476.61786,0.33663
4474.68911,0.33439
4472.76037,0.33179
4470.83162,0.32846
4468.90288,0.32504
4466.97413,0.32183
4465.04539,0.31841
4463.11664,0.31448
4461.18790,0.31012
4459.25915,0.30543
4457.33041,0.30057
4455.40166,0.29550
4453.47291,0.28983
4451.54417,0.28363
4449.61542,0.27752
4447.68668,0.27162
4445.75793,0.26564
4443.82919,0.25963
4441.90044,0.25352
4439.97170,0.24696
4438.04295,0.24013
4436.11421,0.23347
4434.18546,0.22707
4432.25672,0.22085
4430.32797,0.21495
4428.39923,0.20972
4426.47048,0.20487
4424.54173,0.19997
4422.61299,0.19537
4420.68424,0.19140
4418.75550,0.18811
4416.82675,0.18538
4414.89801,0.18318
4412.96926,0.18187
4411.04052,0.18151
4409.11177,0.18178
4407.18303,0.18265
4405.25428,0.18398
4403.32554,0.18532
4401.39679,0.18660
4399.46805,0.18791
4397.53930,0.18927
4395.61056,0.19032
4393.68181,0.19061
4391.75306,0.19001
4389.82432,0.18873
4387.89557,0.18717
4385.96683,0.18553
4384.03808,0.18389
4382.10934,0.18218
4380.18059,0.18009
4378.25185,0.17770
4376.32310,0.17538
4374.39436,0.17332
4372.46561,0.17123
4370.53687,0.16881
4368.60812,0.16615
4366.67938,0.16323
4364.75063,0.16004
4362.82189,0.15700
4360.89314,0.15420
4358.96439,0.15145
4357.03565,0.14883
4355.10690,0.14645
4353.17816,0.14406
4351.24941,0.14156
4349.32067,0.13941
4347.39192,0.13773
4345.46318,0.13608
4343.53443,0.13448
4341.60569,0.13321
4339.67694,0.13220
4337.74820,0.13160
4335.81945,0.13144
4333.89071,0.13116
4331.96196,0.13091
4330.03321,0.13136
4328.10447,0.13233
4326.17572,0.13330
4324.24698,0.13442
4322.31823,0.13570
4320.38949,0.13696
4318.46074,0.13847
4316.53200,0.14051
4314.60325,0.14285
4312.67451,0.14534
4310.74576,0.14819
4308.81702,0.15125
4306.88827,0.15405
4304.95953,0.15643
4303.03078,0.15878
4301.10204,0.16144
4299.17329,0.16403
4297.24454,0.16604
4295.31580,0.16738
4293.38705,0.16817
4291.45831,0.16888
4289.52956,0.16976
4287.60082,0.17043
4285.67207,0.17070
4283.74333,0.17077
4281.81458,0.17078
4279.88584,0.17085
4277.95709,0.17097
4276.02835,0.17088
4274.09960,0.17065
4272.17086,0.17060
4270.24211,0.17071
4268.31336,0.17103
4266.38462,0.17175
4264.45587,0.17289
4262.52713,0.17413
4260.59838,0.17513
4258.66964,0.17602
4256.74089,0.17692
4254.81215,0.17770
4252.88340,0.17833
4250.95466,0.17894
4249.02591,0.17977
4247.09717,0.18081
4245.16842,0.18171
4243.23968,0.18214
4241.31093,0.18215
4239.38219,0.18220
4237.45344,0.18265
4235.52469,0.18343
4233.59595,0.18415
4231.66720,0.18468
4229.73846,0.18524
4227.80971,0.18592
4225.88097,0.18658
4223.95222,0.18730
4222.02348,0.18828
4220.09473,0.18943
4218.16599,0.19058
4216.23724,0.19174
4214.30850,0.19298
4212.37975,0.19424
4210.45101,0.19539
4208.52226,0.19657
4206.59352,0.19791
4204.66477,0.19924
4202.73602,0.20039
4200.80728,0.20138
4198.87853,0.20219
4196.94979,0.20272
4195.02104,0.20303
4193.09230,0.20337
4191.16355,0.20375
4189.23481,0.20399
4187.30606,0.20404
4185.37732,0.20375
4183.44857,0.20326
4181.51983,0.20287
4179.59108,0.20250
4177.66234,0.20197
4175.73359,0.20137
4173.80484,0.20078
4171.87610,0.20017
4169.94735,0.19935
4168.01861,0.19820
4166.08986,0.19713
4164.16112,0.19634
4162.23237,0.19555
4160.30363,0.19484
4158.37488,0.19452
4156.44614,0.19427
4154.51739,0.19372
4152.58865,0.19336
4150.65990,0.19341
4148.73116,0.19329
4146.80241,0.19300
4144.87367,0.19295
4142.94492,0.19307
4141.01617,0.19312
4139.08743,0.19299
4137.15868,0.19262
4135.22994,0.19233
4133.30119,0.19247
4131.37245,0.19253
4129.44370,0.19196
4127.51496,0.19122
4125.58621,0.19089
4123.65747,0.19045
4121.72872,0.18936
4119.79998,0.18819
4117.87123,0.18742
4115.94249,0.18687
4114.01374,0.18638
4112.08500,0.18572
4110.15625,0.18482
4108.22750,0.18398
4106.29876,0.18311
4104.37001,0.18194
4102.44127,0.18062
4100.51252,0.17946
4098.58378,0.17837
4096.65503,0.17702
4094.72629,0.17552
4092.79754,0.17419
4090.86880,0.17312
4088.94005,0.17214
4087.01131,0.17092
4085.08256,0.16951
4083.15382,0.16802
4081.22507,0.16635
4079.29632,0.16464
4077.36758,0.16305
4075.43883,0.16142
4073.51009,0.15958
4071.58134,0.15788
4069.65260,0.15660
4067.72385,0.15542
4065.79511,0.15415
4063.86636,0.15290
4061.93762,0.15183
4060.00887,0.15092
4058.08013,0.15004
4056.15138,0.14920
4054.22264,0.14853
4052.29389,0.14802
4050.36515,0.14776
4048.43640,0.14778
4046.50765,0.14786
4044.57891,0.14774
4042.65016,0.14727
4040.72142,0.14663
4038.79267,0.14625
4036.86393,0.14622
4034.93518,0.14642
4033.00644,0.14669
4031.07769,0.14682
4029.14895,0.14665
4027.22020,0.14648
4025.29146,0.14670
4023.36271,0.14722
4021.43397,0.14779
4019.50522,0.14827
4017.57648,0.14859
4015.64773,0.14875
4013.71898,0.14904
4011.79024,0.14953
4009.86149,0.14989
4007.93275,0.15019
4006.00400,0.15060
4004.07526,0.15087
4002.14651,0.15106
4000.21777,0.15155
3998.28902,0.15231
3996.36028,0.15302
3994.43153,0.15363
3992.50279,0.15438
3990.57404,0.15528
3988.64530,0.15625
3986.71655,0.15741
3984.78780,0.15859
3982.85906,0.15942
3980.93031,0.16019
3979.00157,0.16129
3977.07282,0.16256
3975.14408,0.16381
3973.21533,0.16517
3971.28659,0.16661
3969.35784,0.16795
3967.42910,0.16922
3965.50035,0.17043
3963.57161,0.17167
3961.64286,0.17316
3959.71412,0.17475
3957.78537,0.17610
3955.85663,0.17728
3953.92788,0.17857
3951.99913,0.18010
3950.07039,0.18186
3948.14164,0.18364
3946.21290,0.18533
3944.28415,0.18711
3942.35541,0.18921
3940.42666,0.19156
3938.49792,0.19365
3936.56917,0.19528
3934.64043,0.19682
3932.71168,0.19870
3930.78294,0.20089
3928.85419,0.20304
3926.92545,0.20491
3924.99670,0.20652
3923.06795,0.20817
3921.13921,0.21007
3919.21046,0.21198
3917.28172,0.21347
3915.35297,0.21470
3913.42423,0.21589
3911.49548,0.21697
3909.56674,0.21807
3907.63799,0.21931
3905.70925,0.22064
3903.78050,0.22171
3901.85176,0.22215
3899.92301,0.22249
3897.99427,0.22330
3896.06552,0.22434
3894.13678,0.22517
3892.20803,0.22568
3890.27928,0.22617
3888.35054,0.22702
3886.42179,0.22777
3884.49305,0.22808
3882.56430,0.22848
3880.63556,0.22902
3878.70681,0.22936
3876.77807,0.22971
3874.84932,0.23023
3872.92058,0.23066
3870.99183,0.23070
3869.06309,0.23048
3867.13434,0.23055
3865.20560,0.23100
3863.27685,0.23137
3861.34811,0.23138
3859.41936,0.23133
3857.49061,0.23161
3855.56187,0.23227
3853.63312,0.23269
3851.70438,0.23268
3849.77563,0.23298
3847.84689,0.23371
3845.91814,0.23467
3843.98940,0.23577
3842.06065,0.23676
3840.13191,0.23743
3838.20316,0.23784
3836.27442,0.23826
3834.34567,0.23883
3832.41693,0.23952
3830.48818,0.24039
3828.55943,0.24130
3826.63069,0.24201
3824.70194,0.24268
3822.77320,0.24345
3820.84445,0.24403
3818.91571,0.24442
3816.98696,0.24465
3815.05822,0.24469
3813.12947,0.24504
3811.20073,0.24574
3809.27198,0.24637
3807.34324,0.24672
3805.41449,0.24692
3803.48575,0.24704
3801.55700,0.24706
3799.62826,0.24738
3797.69951,0.24820
3795.77076,0.24888
3793.84202,0.24909
3791.91327,0.24933
3789.98453,0.25023
3788.05578,0.25162
3786.12704,0.25277
3784.19829,0.25355
3782.26955,0.25448
3780.34080,0.25575
3778.41206,0.25704
3776.48331,0.25831
3774.55457,0.25966
3772.62582,0.26100
3770.69708,0.26265
3768.76833,0.26472
3766.83959,0.26674
3764.91084,0.26853
3762.98209,0.27016
3761.05335,0.27181
3759.12460,0.27359
3757.19586,0.27528
3755.26711,0.27680
3753.33837,0.27820
3751.40962,0.27963
3749.48088,0.28137
3747.55213,0.28309
3745.62339,0.28439
3743.69464,0.28542
3741.76590,0.28663
3739.83715,0.28805
3737.90841,0.28935
3735.97966,0.29024
3734.05091,0.29094
3732.12217,0.29162
3730.19342,0.29239
3728.26468,0.29321
3726.33593,0.29392
3724.40719,0.29452
3722.47844,0.29507
3720.54970,0.29563
3718.62095,0.29627
3716.69221,0.29679
3714.76346,0.29698
3712.83472,0.29702
3710.90597,0.29709
3708.97723,0.29725
3707.04848,0.29724
3705.11974,0.29674
3703.19099,0.29586
3701.26224,0.29485
3699.33350,0.29388
3697.40475,0.29299
3695.47601,0.29189
3693.54726,0.29043
3691.61852,0.28886
3689.68977,0.28725
3687.76103,0.28509
3685.83228,0.28267
3683.90354,0.28062
3681.97479,0.27886
3680.04605,0.27695
3678.11730,0.27431
3676.18856,0.27077
3674.25981,0.26742
3672.33107,0.26518
3670.40232,0.26288
3668.47357,0.25998
3666.54483,0.25733
3664.61608,0.25493
3662.68734,0.25266
3660.75859,0.25071
3658.82985,0.24881
3656.90110,0.24615
3654.97236,0.24274
3653.04361,0.23974
3651.11487,0.23693
3649.18612,0.23342
3647.25738,0.22970
3645.32863,0.22679
3643.39989,0.22461
3641.47114,0.22251
3639.54239,0.22012
3637.61365,0.21770
3635.68490,0.21521
3633.75616,0.21259
3631.82741,0.21032
3629.89867,0.20816
3627.96992,0.20539
3626.04118,0.20253
3624.11243,0.19997
3622.18369,0.19759
3620.25494,0.19519
3618.32620,0.19252
3616.39745,0.18992
3614.46871,0.18755
3612.53996,0.18525
3610.61122,0.18304
3608.68247,0.18060
3606.75372,0.17779
3604.82498,0.17524
3602.89623,0.17311
3600.96749,0.17086
3599.03874,0.16826
3597.11000,0.16578
3595.18125,0.16360
3593.25251,0.16135
3591.32376,0.15933
3589.39502,0.15775
3587.46627,0.15592
3585.53753,0.15385
3583.60878,0.15233
3581.68004,0.15125
3579.75129,0.15005
3577.82254,0.14861
3575.89380,0.14707
3573.96505,0.14570
3572.03631,0.14459
3570.10756,0.14331
3568.17882,0.14170
3566.25007,0.14015
3564.32133,0.13884
3562.39258,0.13761
3560.46384,0.13635
3558.53509,0.13486
3556.60635,0.13319
3554.67760,0.13195
3552.74886,0.13104
3550.82011,0.12965
3548.89137,0.12780
3546.96262,0.12604
3545.03387,0.12421
3543.10513,0.12238
3541.17638,0.12103
3539.24764,0.11986
3537.31889,0.11838
3535.39015,0.11666
3533.46140,0.11502
3531.53266,0.11364
3529.60391,0.11248
3527.67517,0.11139
3525.74642,0.11030
3523.81768,0.10906
3521.88893,0.10773
3519.96019,0.10669
3518.03144,0.10594
3516.10270,0.10498
3514.17395,0.10379
3512.24520,0.10282
3510.31646,0.10210
3508.38771,0.10135
3506.45897,0.10072
3504.53022,0.10041
3502.60148,0.10003
3500.67273,0.09932
3498.74399,0.09841
3496.81524,0.09747
3494.88650,0.09676
3492.95775,0.09633
3491.02901,0.09595
3489.10026,0.09540
3487.17152,0.09464
3485.24277,0.09376
3483.31402,0.09282
3481.38528,0.09179
3479.45653,0.09054
3477.52779,0.08936
3475.59904,0.08840
3473.67030,0.08706
3471.74155,0.08523
3469.81281,0.08351
3467.88406,0.08199
3465.95532,0.08031
3464.02657,0.07824
3462.09783,0.07590
3460.16908,0.07379
3458.24034,0.07238
3456.31159,0.07156
3454.38285,0.07098
3452.45410,0.07047
3450.52535,0.06988
3448.59661,0.06915
3446.66786,0.06841
3444.73912,0.06774
3442.81037,0.06701
3440.88163,0.06604
3438.95288,0.06488
3437.02414,0.06384
3435.09539,0.06312
3433.16665,0.06243
3431.23790,0.06139
3429.30916,0.06011
3427.38041,0.05871
3425.45167,0.05716
3423.52292,0.05574
3421.59418,0.05453
3419.66543,0.05298
3417.73668,0.05124
3415.80794,0.04990
3413.87919,0.04877
3411.95045,0.04760
3410.02170,0.04654
3408.09296,0.04556
3406.16421,0.04465
3404.23547,0.04382
3402.30672,0.04280
3400.37798,0.04164
3398.44923,0.04069
3396.52049,0.03984
3394.59174,0.03890
3392.66300,0.03799
3390.73425,0.03710
3388.80550,0.03618
3386.87676,0.03536
3384.94801,0.03469
3383.01927,0.03403
3381.09052,0.03354
3379.16178,0.03327
3377.23303,0.03283
3375.30429,0.03206
3373.37554,0.03123
3371.44680,0.03077
3369.51805,0.03082
3367.58931,0.03116
3365.66056,0.03133
3363.73182,0.03125
3361.80307,0.03108
3359.87433,0.03060
3357.94558,0.02989
3356.01683,0.02964
3354.08809,0.02986
3352.15934,0.02990
3350.23060,0.02962
3348.30185,0.02944
3346.37311,0.02949
3344.44436,0.02960
3342.51562,0.02951
3340.58687,0.02917
3338.65813,0.02883
3336.72938,0.02863
3334.80064,0.02861
3332.87189,0.02877
3330.94315,0.02893
3329.01440,0.02909
3327.08566,0.02923
3325.15691,0.02900
3323.22816,0.02835
3321.29942,0.02778
3319.37067,0.02771
3317.44193,0.02816
3315.51318,0.02852
3313.58444,0.02846
3311.65569,0.02844
3309.72695,0.02865
3307.79820,0.02874
3305.86946,0.02859
3303.94071,0.02844
3302.01197,0.02833
3300.08322,0.02812
3298.15448,0.02792
3296.22573,0.02791
3294.29698,0.02804
3292.36824,0.02837
3290.43949,0.02877
3288.51075,0.02895
3286.58200,0.02897
3284.65326,0.02891
3282.72451,0.02884
3280.79577,0.02883
3278.86702,0.02874
3276.93828,0.02870
3275.00953,0.02894
3273.08079,0.02925
3271.15204,0.02946
3269.22330,0.02946
3267.29455,0.02941
3265.36581,0.02965
3263.43706,0.03000
3261.50831,0.03008
3259.57957,0.02993
3257.65082,0.03008
3255.72208,0.03071
3253.79333,0.03127
3251.86459,0.03139
3249.93584,0.03125
3248.00710,0.03126
3246.07835,0.03156
3244.14961,0.03203
3242.22086,0.03257
3240.29212,0.03307
3238.36337,0.03350
3236.43463,0.03383
3234.50588,0.03405
3232.57713,0.03435
3230.64839,0.03482
3228.71964,0.03532
3226.79090,0.03580
3224.86215,0.03611
3222.93341,0.03611
3221.00466,0.03595
3219.07592,0.03583
3217.14717,0.03591
3215.21843,0.03632
3213.28968,0.03686
3211.36094,0.03717
3209.43219,0.03735
3207.50345,0.03787
3205.57470,0.03852
3203.64596,0.03862
3201.71721,0.03835
3199.78846,0.03823
3197.85972,0.03814
3195.93097,0.03801
3194.00223,0.03809
3192.07348,0.03835
3190.14474,0.03864
3188.21599,0.03905
3186.28725,0.03975
3184.35850,0.04037
3182.42976,0.04057
3180.50101,0.04075
3178.57227,0.04134
3176.64352,0.04215
3174.71478,0.04286
3172.78603,0.04345
3170.85729,0.04400
3168.92854,0.04450
3166.99979,0.04501
3165.07105,0.04550
3163.14230,0.04591
3161.21356,0.04622
3159.28481,0.04638
3157.35607,0.04641
3155.42732,0.04651
3153.49858,0.04667
3151.56983,0.04669
3149.64109,0.04661
3147.71234,0.04661
3145.78360,0.04662
3143.85485,0.04644
3141.92611,0.04620
3139.99736,0.04607
3138.06861,0.04601
3136.13987,0.04594
3134.21112,0.04544
3132.28238,0.04474
3130.35363,0.04454
3128.42489,0.04468
3126.49614,0.04477
3124.56740,0.04482
3122.63865,0.04481
3120.70991,0.04486
3118.78116,0.04509
3116.85242,0.04538
3114.92367,0.04557
3112.99493,0.04584
3111.06618,0.04636
3109.13744,0.04697
3107.20869,0.04727
3105.27994,0.04732
3103.35120,0.04735
3101.42245,0.04739
3099.49371,0.04745
3097.56496,0.04756
3095.63622,0.04763
3093.70747,0.04758
3091.77873,0.04732
3089.84998,0.04691
3087.92124,0.04661
3085.99249,0.04656
3084.06375,0.04645
3082.13500,0.04601
3080.20626,0.04541
3078.27751,0.04496
3076.34877,0.04469
3074.42002,0.04441
3072.49127,0.04407
3070.56253,0.04381
3068.63378,0.04364
3066.70504,0.04336
3064.77629,0.04303
3062.84755,0.04284
3060.91880,0.04271
3058.99006,0.04269
3057.06131,0.04283
3055.13257,0.04288
3053.20382,0.04274
3051.27508,0.04268
3049.34633,0.04274
3047.41759,0.04266
3045.48884,0.04262
3043.56009,0.04284
3041.63135,0.04292
3039.70260,0.04256
3037.77386,0.04188
3035.84511,0.04114
3033.91637,0.04070
3031.98762,0.04053
3030.05888,0.04037
3028.13013,0.04030
3026.20139,0.04041
3024.27264,0.04054
3022.34390,0.04069
3020.41515,0.04091
3018.48641,0.04108
3016.55766,0.04100
3014.62892,0.04051
3012.70017,0.03972
3010.77142,0.03902
3008.84268,0.03842
3006.91393,0.03757
3004.98519,0.03634
3003.05644,0.03508
3001.12770,0.03395
2999.19895,0.03275
2997.27021,0.03157
2995.34146,0.03075
2993.41272,0.03022
2991.48397,0.02961
2989.55523,0.02885
2987.62648,0.02824
2985.69774,0.02796
2983.76899,0.02774
2981.84025,0.02731
2979.91150,0.02674
2977.98275,0.02632
2976.05401,0.02614
2974.12526,0.02603
2972.19652,0.02595
2970.26777,0.02596
2968.33903,0.02604
2966.41028,0.02627
2964.48154,0.02667
2962.55279,0.02710
2960.62405,0.02737
2958.69530,0.02753
2956.76656,0.02765
2954.83781,0.02771
2952.90907,0.02753
2950.98032,0.02717
2949.05157,0.02696
2947.12283,0.02676
2945.19408,0.02619
2943.26534,0.02555
2941.33659,0.02542
2939.40785,0.02578
2937.47910,0.02615
2935.55036,0.02620
2933.62161,0.02597
2931.69287,0.02577
2929.76412,0.02571
2927.83538,0.02565
2925.90663,0.02560
2923.97789,0.02575
2922.04914,0.02598
2920.12040,0.02600
2918.19165,0.02589
2916.26290,0.02584
2914.33416,0.02581
2912.40541,0.02593
2910.47667,0.02631
2908.54792,0.02671
2906.61918,0.02687
2904.69043,0.02689
2902.76169,0.02676
2900.83294,0.02655
2898.90420,0.02663
2896.97545,0.02688
2895.04671,0.02685
2893.11796,0.02671
2891.18922,0.02677
2889.26047,0.02696
2887.33172,0.02709
2885.40298,0.02716
2883.47423,0.02715
2881.54549,0.02711
2879.61674,0.02715
2877.68800,0.02697
2875.75925,0.02661
2873.83051,0.02660
2871.90176,0.02692
2869.97302,0.02716
2868.04427,0.02709
2866.11553,0.02700
2864.18678,0.02727
2862.25804,0.02761
2860.32929,0.02769
2858.40055,0.02781
2856.47180,0.02815
2854.54305,0.02857
2852.61431,0.02891
2850.68556,0.02916
2848.75682,0.02935
2846.82807,0.02965
2844.89933,0.03011
2842.97058,0.03059
2841.04184,0.03113
2839.11309,0.03185
2837.18435,0.03272
2835.25560,0.03356
2833.32686,0.03419
2831.39811,0.03482
2829.46937,0.03546
2827.54062,0.03582
2825.61188,0.03620
2823.68313,0.03689
2821.75438,0.03773
2819.82564,0.03851
2817.89689,0.03901
2815.96815,0.03920
2814.03940,0.03947
2812.11066,0.04002
2810.18191,0.04054
2808.25317,0.04081
2806.32442,0.04091
2804.39568,0.04100
2802.46693,0.04129
2800.53819,0.04167
2798.60944,0.04191
2796.68070,0.04209
2794.75195,0.04233
2792.82320,0.04263
2790.89446,0.04299
2788.96571,0.04343
2787.03697,0.04391
2785.10822,0.04441
2783.17948,0.04483
2781.25073,0.04508
2779.32199,0.04523
2777.39324,0.04553
2775.46450,0.04609
2773.53575,0.04670
2771.60701,0.04723
2769.67826,0.04775
2767.74952,0.04823
2765.82077,0.04862
2763.89203,0.04905
2761.96328,0.04965
2760.03453,0.05026
2758.10579,0.05060
2756.17704,0.05080
2754.24830,0.05124
2752.31955,0.05182
2750.39081,0.05232
2748.46206,0.05294
2746.53332,0.05368
2744.60457,0.05422
2742.67583,0.05455
2740.74708,0.05487
2738.81834,0.05521
2736.88959,0.05568
2734.96085,0.05636
2733.03210,0.05709
2731.10336,0.05768
2729.17461,0.05823
2727.24586,0.05905
2725.31712,0.06012
2723.38837,0.06125
2721.45963,0.06243
2719.53088,0.06374
2717.60214,0.06505
2715.67339,0.06625
2713.74465,0.06731
2711.81590,0.06827
2709.88716,0.06921
2707.95841,0.07020
2706.02967,0.07128
2704.10092,0.07255
2702.17218,0.07392
2700.24343,0.07510
2698.31468,0.07611
2696.38594,0.07738
2694.45719,0.07892
2692.52845,0.08029
2690.59970,0.08132
2688.67096,0.08228
2686.74221,0.08337
2684.81347,0.08433
2682.88472,0.08508
2680.95598,0.08583
2679.02723,0.08648
2677.09849,0.08687
2675.16974,0.08726
2673.24100,0.08781
2671.31225,0.08833
2669.38351,0.08891
2667.45476,0.08967
2665.52601,0.09049
2663.59727,0.09129
2661.66852,0.09214
2659.73978,0.09314
2657.81103,0.09416
2655.88229,0.09492
2653.95354,0.09537
2652.02480,0.09567
2650.09605,0.09599
2648.16731,0.09643
2646.23856,0.09687
2644.30982,0.09723
2642.38107,0.09763
2640.45233,0.09815
2638.52358,0.09880
2636.59484,0.09956
2634.66609,0.10044
2632.73734,0.10143
2630.80860,0.10250
2628.87985,0.10367
2626.95111,0.10504
2625.02236,0.10648
2623.09362,0.10784
2621.16487,0.10896
2619.23613,0.10980
2617.30738,0.11039
2615.37864,0.11070
2613.44989,0.11074
2611.52115,0.11065
2609.59240,0.11053
2607.66366,0.11041
2605.73491,0.11018
2603.80616,0.10974
2601.87742,0.10909
2599.94867,0.10835
2598.01993,0.10784
2596.09118,0.10778
2594.16244,0.10787
2592.23369,0.10795
2590.30495,0.10828
2588.37620,0.10886
2586.44746,0.10945
2584.51871,0.11014
2582.58997,0.11108
2580.66122,0.11221
2578.73248,0.11360
2576.80373,0.11522
2574.87499,0.11692
2572.94624,0.11887
2571.01749,0.12114
2569.08875,0.12345
2567.16000,0.12561
2565.23126,0.12762
2563.30251,0.12948
2561.37377,0.13119
2559.44502,0.13267
2557.51628,0.13397
2555.58753,0.13518
2553.65879,0.13616
2551.73004,0.13698
2549.80130,0.13786
2547.87255,0.13869
2545.94381,0.13936
2544.01506,0.14009
2542.08631,0.14100
2540.15757,0.14171
2538.22882,0.14197
2536.30008,0.14200
2534.37133,0.14202
2532.44259,0.14200
2530.51384,0.14198
2528.58510,0.14197
2526.65635,0.14189
2524.72761,0.14177
2522.79886,0.14164
2520.87012,0.14161
2518.94137,0.14185
2517.01263,0.14213
2515.08388,0.14228
2513.15514,0.14244
2511.22639,0.14261
2509.29764,0.14287
2507.36890,0.14336
2505.44015,0.14395
2503.51141,0.14450
2501.58266,0.14515
2499.65392,0.14603
2497.72517,0.14692
2495.79643,0.14767
2493.86768,0.14853
2491.93894,0.14958
2490.01019,0.15052
2488.08145,0.15123
2486.15270,0.15189
2484.22396,0.15272
2482.29521,0.15368
2480.36647,0.15445
2478.43772,0.15505
2476.50897,0.15587
2474.58023,0.15694
2472.65148,0.15789
2470.72274,0.15859
2468.79399,0.15924
2466.86525,0.16002
2464.93650,0.16078
2463.00776,0.16134
2461.07901,0.16187
2459.15027,0.16254
2457.22152,0.16322
2455.29278,0.16399
2453.36403,0.16500
2451.43529,0.16598
2449.50654,0.16669
2447.57779,0.16744
2445.64905,0.16855
2443.72030,0.16968
2441.79156,0.17060
2439.86281,0.17150
2437.93407,0.17257
2436.00532,0.17370
2434.07658,0.17460
2432.14783,0.17528
2430.21909,0.17594
2428.29034,0.17664
2426.36160,0.17731
2424.43285,0.17786
2422.50411,0.17832
2420.57536,0.17875
2418.64662,0.17908
2416.71787,0.17929
2414.78912,0.17939
2412.86038,0.17917
2410.93163,0.17866
2409.00289,0.17806
2407.07414,0.17749
2405.14540,0.17712
2403.21665,0.17699
2401.28791,0.17689
2399.35916,0.17656
2397.43042,0.17607
2395.50167,0.17562
2393.57293,0.17511
2391.64418,0.17449
2389.71544,0.17395
2387.78669,0.17363
2385.85795,0.17351
2383.92920,0.17332
2382.00045,0.17289
2380.07171,0.17237
2378.14296,0.17199
2376.21422,0.17165
2374.28547,0.17125
2372.35673,0.17100
2370.42798,0.17092
2368.49924,0.17068
2366.57049,0.17028
2364.64175,0.17009
2362.71300,0.17023
2360.78426,0.17042
2358.85551,0.17042
2356.92677,0.17020
2354.99802,0.16989
2353.06927,0.16958
2351.14053,0.16938
2349.21178,0.16927
2347.28304,0.16904
2345.35429,0.16867
2343.42555,0.16836
2341.49680,0.16823
2339.56806,0.16817
2337.63931,0.16804
2335.71057,0.16786
2333.78182,0.16777
2331.85308,0.16765
2329.92433,0.16725
2327.99559,0.16659
2326.06684,0.16591
2324.13810,0.16507
2322.20935,0.16377
2320.28060,0.16212
2318.35186,0.16032
2316.42311,0.15833
2314.49437,0.15613
2312.56562,0.15387
2310.63688,0.15171
2308.70813,0.14961
2306.77939,0.14734
2304.85064,0.14480
2302.92190,0.14214
2300.99315,0.13954
2299.06441,0.13698
2297.13566,0.13441
2295.20692,0.13187
2293.27817,0.12939
2291.34943,0.12691
2289.42068,0.12437
2287.49193,0.12177
2285.56319,0.11909
2283.63444,0.11636
2281.70570,0.11380
2279.77695,0.11168
2277.84821,0.10997
2275.91946,0.10851
2273.99072,0.10737
2272.06197,0.10683
2270.13323,0.10685
2268.20448,0.10737
2266.27574,0.10858
2264.34699,0.11043
2262.41825,0.11254
2260.48950,0.11460
2258.56075,0.11638
2256.63201,0.11790
2254.70326,0.11942
2252.77452,0.12084
2250.84577,0.12174
2248.91703,0.12192
2246.98828,0.12143
2245.05954,0.12046
2243.13079,0.11927
2241.20205,0.11808
2239.27330,0.11731
2237.34456,0.11756
2235.41581,0.11908
2233.48707,0.12171
2231.55832,0.12499
2229.62958,0.12819
2227.70083,0.13066
2225.77208,0.13241
2223.84334,0.13374
2221.91459,0.13474
2219.98585,0.13556
2218.05710,0.13631
2216.12836,0.13693
2214.19961,0.13750
2212.27087,0.13815
2210.34212,0.13880
2208.41338,0.13941
2206.48463,0.13992
2204.55589,0.14026
2202.62714,0.14058
2200.69840,0.14107
2198.76965,0.14159
2196.84090,0.14189
2194.91216,0.14201
2192.98341,0.14220
2191.05467,0.14257
2189.12592,0.14294
2187.19718,0.14314
2185.26843,0.14317
2183.33969,0.14327
2181.41094,0.14355
2179.48220,0.14377
2177.55345,0.14375
2175.62471,0.14360
2173.69596,0.14352
2171.76722,0.14355
2169.83847,0.14353
2167.90973,0.14331
2165.98098,0.14299
2164.05223,0.14275
2162.12349,0.14275
2160.19474,0.14293
2158.26600,0.14312
2156.33725,0.14328
2154.40851,0.14357
2152.47976,0.14392
2150.55102,0.14414
2148.62227,0.14438
2146.69353,0.14474
2144.76478,0.14504
2142.83604,0.14515
2140.90729,0.14519
2138.97855,0.14535
2137.04980,0.14561
2135.12106,0.14586
2133.19231,0.14614
2131.26356,0.14650
2129.33482,0.14680
2127.40607,0.14708
2125.47733,0.14751
2123.54858,0.14798
2121.61984,0.14837
2119.69109,0.14875
2117.76235,0.14910
2115.83360,0.14927
2113.90486,0.14930
2111.97611,0.14931
2110.04737,0.14926
2108.11862,0.14908
2106.18988,0.14892
2104.26113,0.14890
2102.33238,0.14877
2100.40364,0.14830
2098.47489,0.14777
2096.54615,0.14751
2094.61740,0.14729
2092.68866,0.14673
2090.75991,0.14589
2088.83117,0.14514
2086.90242,0.14466
2084.97368,0.14434
2083.04493,0.14414
2081.11619,0.14402
2079.18744,0.14377
2077.25870,0.14332
2075.32995,0.14282
2073.40121,0.14232
2071.47246,0.14186
2069.54371,0.14153
2067.61497,0.14138
2065.68622,0.14131
2063.75748,0.14129
2061.82873,0.14126
2059.89999,0.14114
2057.97124,0.14090
2056.04250,0.14056
2054.11375,0.14008
2052.18501,0.13943
2050.25626,0.13859
2048.32752,0.13767
2046.39877,0.13688
2044.47003,0.13615
2042.54128,0.13525
2040.61254,0.13417
2038.68379,0.13303
2036.75504,0.13189
2034.82630,0.13085
2032.89755,0.12997
2030.96881,0.12914
2029.04006,0.12829
2027.11132,0.12752
2025.18257,0.12691
2023.25383,0.12637
2021.32508,0.12575
2019.39634,0.12517
2017.46759,0.12480
2015.53885,0.12456
2013.61010,0.12440
2011.68136,0.12439
2009.75261,0.12443
2007.82386,0.12443
2005.89512,0.12453
2003.96637,0.12463
2002.03763,0.12461
2000.10888,0.12461
1998.18014,0.12470
1996.25139,0.12478
1994.32265,0.12483
1992.39390,0.12488
1990.46516,0.12485
1988.53641,0.12479
1986.60767,0.12477
1984.67892,0.12464
1982.75018,0.12430
1980.82143,0.12394
1978.89269,0.12385
1976.96394,0.12390
1975.03519,0.12383
1973.10645,0.12361
1971.17770,0.12328
1969.24896,0.12294
1967.32021,0.12264
1965.39147,0.12232
1963.46272,0.12201
1961.53398,0.12188
1959.60523,0.12174
1957.67649,0.12147
1955.74774,0.12128
1953.81900,0.12127
1951.89025,0.12131
1949.96151,0.12130
1948.03276,0.12136
1946.10402,0.12155
1944.17527,0.12164
1942.24652,0.12153
1940.31778,0.12146
1938.38903,0.12151
1936.46029,0.12164
1934.53154,0.12165
1932.60280,0.12139
1930.67405,0.12102
1928.74531,0.12067
1926.81656,0.12035
1924.88782,0.12000
1922.95907,0.11964
1921.03033,0.11932
1919.10158,0.11893
1917.17284,0.11841
1915.24409,0.11797
1913.31534,0.11771
1911.38660,0.11749
1909.45785,0.11718
1907.52911,0.11699
1905.60036,0.11709
1903.67162,0.11733
1901.74287,0.11757
1899.81413,0.11774
1897.88538,0.11788
1895.95664,0.11817
1894.02789,0.11880
1892.09915,0.11978
1890.17040,0.12070
1888.24166,0.12135
1886.31291,0.12200
1884.38417,0.12278
1882.45542,0.12339
1880.52667,0.12375
1878.59793,0.12416
1876.66918,0.12485
1874.74044,0.12573
1872.81169,0.12660
1870.88295,0.12731
1868.95420,0.12785
1867.02546,0.12832
1865.09671,0.12875
1863.16797,0.12910
1861.23922,0.12925
1859.31048,0.12917
1857.38173,0.12888
1855.45299,0.12845
1853.52424,0.12784
1851.59549,0.12707
1849.66675,0.12631
1847.73800,0.12560
1845.80926,0.12473
1843.88051,0.12364
1841.95177,0.12248
1840.02302,0.12132
1838.09428,0.12014
1836.16553,0.11890
1834.23679,0.11767
1832.30804,0.11647
1830.37930,0.11505
1828.45055,0.11344
1826.52181,0.11192
1824.59306,0.11042
1822.66432,0.10886
1820.73557,0.10726
1818.80682,0.10561
1816.87808,0.10398
1814.94933,0.10253
1813.02059,0.10108
1811.09184,0.09917
1809.16310,0.09691
1807.23435,0.09463
1805.30561,0.09239
1803.37686,0.09014
1801.44812,0.08785
1799.51937,0.08583
1797.59063,0.08433
1795.66188,0.08315
1793.73314,0.08199
1791.80439,0.08082
1789.87565,0.07987
1787.94690,0.07923
1786.01815,0.07859
1784.08941,0.07761
1782.16066,0.07642
1780.23192,0.07519
1778.30317,0.07400
1776.37443,0.07289
1774.44568,0.07172
1772.51694,0.07013
1770.58819,0.06822
1768.65945,0.06627
1766.73070,0.06410
1764.80196,0.06178
1762.87321,0.05901
1760.94447,0.05559
1759.01572,0.05214
1757.08697,0.04849
1755.15823,0.04456
1753.22948,0.04098
1751.30074,0.03749
1749.37199,0.03404
1747.44325,0.03130
1745.51450,0.02926
1743.58576,0.02760
1741.65701,0.02624
1739.72827,0.02519
1737.79952,0.02464
1735.87078,0.02447
1733.94203,0.02444
1732.01329,0.02452
1730.08454,0.02462
1728.15580,0.02472
1726.22705,0.02495
1724.29830,0.02528
1722.36956,0.02555
1720.44081,0.02577
1718.51207,0.02589
1716.58332,0.02592
1714.65458,0.02598
1712.72583,0.02607
1710.79709,0.02617
1708.86834,0.02622
1706.93960,0.02621
1705.01085,0.02631
1703.08211,0.02662
1701.15336,0.02697
1699.22462,0.02710
1697.29587,0.02687
1695.36713,0.02646
1693.43838,0.02627
1691.50963,0.02641
1689.58089,0.02670
1687.65214,0.02701
1685.72340,0.02712
1683.79465,0.02701
1681.86591,0.02697
1679.93716,0.02702
1678.00842,0.02709
1676.07967,0.02712
1674.15093,0.02707
1672.22218,0.02700
1670.29344,0.02704
1668.36469,0.02709
1666.43595,0.02698
1664.50720,0.02680
1662.57845,0.02672
1660.64971,0.02674
1658.72096,0.02687
1656.79222,0.02719
1654.86347,0.02746
1652.93473,0.02729
1651.00598,0.02706
1649.07724,0.02710
1647.14849,0.02722
1645.21975,0.02727
1643.29100,0.02730
1641.36226,0.02739
1639.43351,0.02775
1637.50477,0.02831
1635.57602,0.02858
1633.64728,0.02852
1631.71853,0.02851
1629.78978,0.02855
1627.86104,0.02856
1625.93229,0.02840
1624.00355,0.02792
1622.07480,0.02718
1620.14606,0.02647
1618.21731,0.02598
1616.28857,0.02567
1614.35982,0.02537
1612.43108,0.02504
1610.50233,0.02487
1608.57359,0.02492
1606.64484,0.02501
1604.71610,0.02502
1602.78735,0.02493
1600.85861,0.02484
1598.92986,0.02499
1597.00111,0.02535
1595.07237,0.02567
1593.14362,0.02593
1591.21488,0.02626
1589.28613,0.02666
1587.35739,0.02709
1585.42864,0.02753
1583.49990,0.02795
1581.57115,0.02825
1579.64241,0.02843
1577.71366,0.02848
1575.78492,0.02836
1573.85617,0.02823
1571.92743,0.02810
1569.99868,0.02769
1568.06993,0.02691
1566.14119,0.02613
1564.21244,0.02561
1562.28370,0.02534
1560.35495,0.02490
1558.42621,0.02413
1556.49746,0.02383
1554.56872,0.02383
1552.63997,0.02372
1550.71123,0.02361
1548.78248,0.02352
1546.85374,0.02355
1544.92499,0.02385
1542.99625,0.02439
1541.06750,0.02487
1539.13876,0.02506
1537.21001,0.02518
1535.28126,0.02538
1533.35252,0.02570
1531.42377,0.02606
1529.49503,0.02636
1527.56628,0.02674
1525.63754,0.02719
1523.70879,0.02736
1521.78005,0.02720
1519.85130,0.02711
1517.92256,0.02722
1515.99381,0.02728
1514.06507,0.02727
1512.13632,0.02741
1510.20758,0.02778
1508.27883,0.02824
1506.35008,0.02853
1504.42134,0.02872
1502.49259,0.02893
1500.56385,0.02916
1498.63510,0.02943
1496.70636,0.02963
1494.77761,0.02968
1492.84887,0.02973
1490.92012,0.02986
1488.99138,0.02985
1487.06263,0.02956
1485.13389,0.02929
1483.20514,0.02919
1481.27640,0.02912
1479.34765,0.02889
1477.41891,0.02859
1475.49016,0.02831
1473.56141,0.02799
1471.63267,0.02766
1469.70392,0.02756
1467.77518,0.02764
1465.84643,0.02763
1463.91769,0.02734
1461.98894,0.02695
1460.06020,0.02674
1458.13145,0.02675
1456.20271,0.02691
1454.27396,0.02706
1452.34522,0.02715
1450.41647,0.02745
1448.48773,0.02795
1446.55898,0.02823
1444.63024,0.02825
1442.70149,0.02828
1440.77274,0.02852
1438.84400,0.02907
1436.91525,0.02975
1434.98651,0.03012
1433.05776,0.03021
1431.12902,0.03034
1429.20027,0.03042
1427.27153,0.03032
1425.34278,0.03015
1423.41404,0.02990
1421.48529,0.02938
1419.55655,0.02854
1417.62780,0.02759
1415.69906,0.02696
1413.77031,0.02676
1411.84156,0.02685
1409.91282,0.02720
1407.98407,0.02776
1406.05533,0.02829
1404.12658,0.02864
1402.19784,0.02883
1400.26909,0.02883
1398.34035,0.02867
1396.41160,0.02857
1394.48286,0.02853
1392.55411,0.02834
1390.62537,0.02793
1388.69662,0.02746
1386.76788,0.02702
1384.83913,0.02659
1382.91039,0.02627
1380.98164,0.02608
1379.05289,0.02587
1377.12415,0.02563
1375.19540,0.02559
1373.26666,0.02587
1371.33791,0.02636
1369.40917,0.02697
1367.48042,0.02770
1365.55168,0.02844
1363.62293,0.02906
1361.69419,0.02939
1359.76544,0.02939
1357.83670,0.02924
1355.90795,0.02903
1353.97921,0.02867
1352.05046,0.02823
1350.12172,0.02790
1348.19297,0.02760
1346.26422,0.02723
1344.33548,0.02692
1342.40673,0.02681
1340.47799,0.02691
1338.54924,0.02704
1336.62050,0.02707
1334.69175,0.02716
1332.76301,0.02738
1330.83426,0.02746
1328.90552,0.02721
1326.97677,0.02678
1325.04803,0.02643
1323.11928,0.02621
1321.19054,0.02613
1319.26179,0.02601
1317.33304,0.02569
1315.40430,0.02538
1313.47555,0.02528
1311.54681,0.02529
1309.61806,0.02528
1307.68932,0.02528
1305.76057,0.02534
1303.83183,0.02537
1301.90308,0.02548
1299.97434,0.02576
1298.04559,0.02597
1296.11685,0.02601
1294.18810,0.02604
1292.25936,0.02615
1290.33061,0.02630
1288.40187,0.02636
1286.47312,0.02625
1284.54437,0.02612
1282.61563,0.02611
1280.68688,0.02619
1278.75814,0.02620
1276.82939,0.02607
1274.90065,0.02592
1272.97190,0.02579
1271.04316,0.02558
1269.11441,0.02534
1267.18567,0.02519
1265.25692,0.02510
1263.32818,0.02505
1261.39943,0.02499
1259.47069,0.02487
1257.54194,0.02467
1255.61320,0.02444
1253.68445,0.02416
1251.75570,0.02389
1249.82696,0.02378
1247.89821,0.02383
1245.96947,0.02390
1244.04072,0.02389
1242.11198,0.02381
1240.18323,0.02368
1238.25449,0.02355
1236.32574,0.02354
1234.39700,0.02380
1232.46825,0.02430
1230.53951,0.02484
1228.61076,0.02529
1226.68202,0.02559
1224.75327,0.02570
1222.82452,0.02569
1220.89578,0.02575
1218.96703,0.02610
1217.03829,0.02652
1215.10954,0.02662
1213.18080,0.02647
1211.25205,0.02645
1209.32331,0.02661
1207.39456,0.02675
1205.46582,0.02672
1203.53707,0.02652
1201.60833,0.02632
1199.67958,0.02639
1197.75084,0.02670
1195.82209,0.02685
1193.89335,0.02663
1191.96460,0.02632
1190.03585,0.02613
1188.10711,0.02599
1186.17836,0.02582
1184.24962,0.02572
1182.32087,0.02565
1180.39213,0.02546
1178.46338,0.02510
1176.53464,0.02475
1174.60589,0.02445
1172.67715,0.02412
1170.74840,0.02387
1168.81966,0.02366
1166.89091,0.02332
1164.96217,0.02304
1163.03342,0.02306
1161.10467,0.02322
1159.17593,0.02330
1157.24718,0.02328
1155.31844,0.02323
1153.38969,0.02323
1151.46095,0.02311
1149.53220,0.02294
1147.60346,0.02309
1145.67471,0.02335
1143.74597,0.02328
1141.81722,0.02303
1139.88848,0.02289
1137.95973,0.02294
1136.03099,0.02308
1134.10224,0.02311
1132.17350,0.02307
1130.24475,0.02309
1128.31600,0.02319
1126.38726,0.02347
1124.45851,0.02388
1122.52977,0.02412
1120.60102,0.02419
1118.67228,0.02449
1116.74353,0.02515
1114.81479,0.02585
1112.88604,0.02633
1110.95730,0.02674
1109.02855,0.02733
1107.09981,0.02796
1105.17106,0.02839
1103.24232,0.02870
1101.31357,0.02891
1099.38483,0.02900
1097.45608,0.02908
1095.52733,0.02929
1093.59859,0.02970
1091.66984,0.03005
1089.74110,0.03010
1087.81235,0.03004
1085.88361,0.03026
1083.95486,0.03075
1082.02612,0.03110
1080.09737,0.03118
1078.16863,0.03118
1076.23988,0.03127
1074.31114,0.03148
1072.38239,0.03171
1070.45365,0.03190
1068.52490,0.03211
1066.59615,0.03216
1064.66741,0.03199
1062.73866,0.03206
1060.80992,0.03242
1058.88117,0.03251
1056.95243,0.03226
1055.02368,0.03219
1053.09494,0.03246
1051.16619,0.03277
1049.23745,0.03295
1047.30870,0.03311
1045.37996,0.03334
1043.45121,0.03351
1041.52247,0.03361
1039.59372,0.03352
1037.66498,0.03315
1035.73623,0.03287
1033.80748,0.03304
1031.87874,0.03345
1029.94999,0.03373
1028.02125,0.03385
1026.09250,0.03376
1024.16376,0.03329
1022.23501,0.03265
1020.30627,0.03208
1018.37752,0.03201
1016.44878,0.03261
1014.52003,0.03325
1012.59129,0.03364
1010.66254,0.03398
1008.73380,0.03424
1006.80505,0.03449
1004.87631,0.03478
1002.94756,0.03497
1001.01881,0.03500
999.09007,0.03506
997.16132,0.03546
995.23258,0.03643
993.30383,0.03785
991.37509,0.03926
989.44634,0.04025
987.51760,0.04061
985.58885,0.04073
983.66011,0.04116
981.73136,0.04170
979.80262,0.04188
977.87387,0.04163
975.94513,0.04111
974.01638,0.04061
972.08763,0.04034
970.15889,0.04016
968.23014,0.04005
966.30140,0.04023
964.37265,0.04053
962.44391,0.04064
960.51516,0.04065
958.58642,0.04081
956.65767,0.04102
954.72893,0.04099
952.80018,0.04071
950.87144,0.04015
948.94269,0.03924
947.01395,0.03821
945.08520,0.03732
943.15646,0.03646
941.22771,0.03577
939.29896,0.03553
937.37022,0.03544
935.44147,0.03516
933.51273,0.03477
931.58398,0.03440
929.65524,0.03431
927.72649,0.03457
925.79775,0.03497
923.86900,0.03530
921.94026,0.03559
920.01151,0.03602
918.08277,0.03628
916.15402,0.03618
914.22528,0.03629
912.29653,0.03690
910.36779,0.03760
908.43904,0.03808
906.51029,0.03865
904.58155,0.03948
902.65280,0.04023
900.72406,0.04097
898.79531,0.04194
896.86657,0.04269
894.93782,0.04289
893.00908,0.04290
891.08033,0.04292
889.15159,0.04288
887.22284,0.04272
885.29410,0.04230
883.36535,0.04157
881.43661,0.04082
879.50786,0.04018
877.57911,0.03960
875.65037,0.03910
873.72162,0.03864
871.79288,0.03803
869.86413,0.03750
867.93539,0.03732
866.00664,0.03721
864.07790,0.03708
862.14915,0.03721
860.22041,0.03756
858.29166,0.03783
856.36292,0.03771
854.43417,0.03751
852.50543,0.03774
850.57668,0.03816
848.64794,0.03831
846.71919,0.03813
844.79044,0.03786
842.86170,0.03770
840.93295,0.03761
839.00421,0.03754
837.07546,0.03736
835.14672,0.03706
833.21797,0.03667
831.28923,0.03615
829.36048,0.03572
827.43174,0.03556
825.50299,0.03538
823.57425,0.03483
821.64550,0.03401
819.71676,0.03345
817.78801,0.03345
815.85926,0.03377
813.93052,0.03433
812.00177,0.03512
810.07303,0.03600
808.14428,0.03703
806.21554,0.03821
804.28679,0.03919
802.35805,0.03984
800.42930,0.04030
798.50056,0.04048
796.57181,0.04047
794.64307,0.04072
792.71432,0.04117
790.78558,0.04139
788.85683,0.04134
786.92809,0.04111
784.99934,0.04076
783.07059,0.04031
781.14185,0.03978
779.21310,0.03927
777.28436,0.03874
775.35561,0.03806
773.42687,0.03722
771.49812,0.03650
769.56938,0.03586
767.64063,0.03524
765.71189,0.03502
763.78314,0.03512
761.85440,0.03522
759.92565,0.03554
757.99691,0.03612
756.06816,0.03672
754.13942,0.03728
752.21067,0.03785
750.28192,0.03860
748.35318,0.03958
746.42443,0.04047
744.49569,0.04111
742.56694,0.04162
740.63820,0.04205
738.70945,0.04234
736.78071,0.04226
734.85196,0.04207
732.92322,0.04219
730.99447,0.04249
729.06573,0.04283
727.13698,0.04289
725.20824,0.04230
723.27949,0.04148
721.35074,0.04080
719.42200,0.03970
717.49325,0.03829
715.56451,0.03745
713.63576,0.03728
711.70702,0.03735
709.77827,0.03711
707.84953,0.03648
705.92078,0.03616
703.99204,0.03615
702.06329,0.03601
700.13455,0.03616
698.20580,0.03673
696.27706,0.03721
694.34831,0.03731
692.41957,0.03724
690.49082,0.03727
688.56207,0.03727
686.63333,0.03705
684.70458,0.03649
682.77584,0.03600
680.84709,0.03601
678.91835,0.03614
676.98960,0.03611
675.06086,0.03604
673.13211,0.03602
671.20337,0.03601
669.27462,0.03560
667.34588,0.03480
665.41713,0.03454
663.48839,0.03530
661.55964,0.03619
659.63090,0.03628
657.70215,0.03611
655.77340,0.03617
653.84466,0.03603
651.91591,0.03593
649.98717,0.03607
648.05842,0.03636
646.12968,0.03698
644.20093,0.03744
642.27219,0.03731
640.34344,0.03725
638.41470,0.03771
636.48595,0.03812
634.55721,0.03825
632.62846,0.03884
630.69972,0.03955
628.77097,0.03916
626.84222,0.03788
624.91348,0.03728
622.98473,0.03769
621.05599,0.03799
619.12724,0.03751
617.19850,0.03690
615.26975,0.03742
613.34101,0.03853
611.41226,0.03865
609.48352,0.03830
607.55477,0.03820
605.62603,0.03798
603.69728,0.03803
601.76854,0.03893
599.83979,0.03917
