7497.03301,0.10816
7495.10426,0.10791
7493.17552,0.10891
7491.24677,0.11298
7489.31803,0.11675
7487.38928,0.11615
7485.46054,0.11380
7483.53179,0.11258
7481.60305,0.11055
7479.67430,0.10859
7477.74556,0.10818
7475.81681,0.10723
7473.88807,0.10559
7471.95932,0.10358
7470.03057,0.10320
7468.10183,0.10688
7466.17308,0.11198
7464.24434,0.11608
7462.31559,0.11785
7460.38685,0.11662
7458.45810,0.11467
7456.52936,0.11404
7454.60061,0.11470
7452.67187,0.11619
7450.74312,0.11638
7448.81438,0.11427
7446.88563,0.11204
7444.95689,0.11050
7443.02814,0.10887
7441.09940,0.10783
7439.17065,0.10833
7437.24190,0.11076
7435.31316,0.11314
7433.38441,0.11306
7431.45567,0.11163
7429.52692,0.11113
7427.59818,0.11164
7425.66943,0.11230
7423.74069,0.11216
7421.81194,0.11180
7419.88320,0.11318
7417.95445,0.11442
7416.02571,0.11130
7414.09696,0.10709
7412.16822,0.10715
7410.23947,0.10859
7408.31073,0.10849
7406.38198,0.10881
7404.45323,0.10976
7402.52449,0.11129
7400.59574,0.11299
7398.66700,0.11437
7396.73825,0.11601
7394.80951,0.11669
7392.88076,0.11593
7390.95202,0.11506
7389.02327,0.11340
7387.09453,0.11137
7385.16578,0.11144
7383.23704,0.11240
7381.30829,0.11045
7379.37955,0.10694
7377.45080,0.10587
7375.52205,0.10757
7373.59331,0.10792
7371.66456,0.10398
7369.73582,0.10014
7367.80707,0.10170
7365.87833,0.10706
7363.94958,0.11065
7362.02084,0.10957
7360.09209,0.10604
7358.16335,0.10373
7356.23460,0.10493
7354.30586,0.10857
7352.37711,0.11110
7350.44837,0.10943
7348.51962,0.10517
7346.59088,0.10495
7344.66213,0.10944
7342.73338,0.11214
7340.80464,0.11159
7338.87589,0.10950
7336.94715,0.10607
7335.01840,0.10426
7333.08966,0.10641
7331.16091,0.11026
7329.23217,0.11247
7327.30342,0.11061
7325.37468,0.10739
7323.44593,0.10650
7321.51719,0.10632
7319.58844,0.10538
7317.65970,0.10477
7315.73095,0.10662
7313.80221,0.11100
7311.87346,0.11226
7309.94471,0.10927
7308.01597,0.10720
7306.08722,0.10565
7304.15848,0.10137
7302.22973,0.09689
7300.30099,0.09717
7298.37224,0.10286
7296.44350,0.10954
7294.51475,0.11061
7292.58601,0.10548
7290.65726,0.10282
7288.72852,0.10667
7286.79977,0.11206
7284.87103,0.11464
7282.94228,0.11307
7281.01353,0.10931
7279.08479,0.10644
7277.15604,0.10369
7275.22730,0.10189
7273.29855,0.10348
7271.36981,0.10591
7269.44106,0.10681
7267.51232,0.10698
7265.58357,0.10647
7263.65483,0.10613
7261.72608,0.10765
7259.79734,0.10989
7257.86859,0.11077
7255.93985,0.11077
7254.01110,0.11002
7252.08236,0.10791
7250.15361,0.10635
7248.22486,0.10752
7246.29612,0.10919
7244.36737,0.10713
7242.43863,0.10219
7240.50988,0.09996
7238.58114,0.10234
7236.65239,0.10625
7234.72365,0.10890
7232.79490,0.10886
7230.86616,0.10720
7228.93741,0.10739
7227.00867,0.10895
7225.07992,0.10868
7223.15118,0.10554
7221.22243,0.10161
7219.29369,0.10039
7217.36494,0.10191
7215.43619,0.10565
7213.50745,0.11102
7211.57870,0.11210
7209.64996,0.10717
7207.72121,0.10235
7205.79247,0.10231
7203.86372,0.10489
7201.93498,0.10625
7200.00623,0.10758
7198.07749,0.10953
7196.14874,0.10863
7194.22000,0.10592
7192.29125,0.10558
7190.36251,0.10775
7188.43376,0.10896
7186.50501,0.10774
7184.57627,0.10684
7182.64752,0.10791
7180.71878,0.11022
7178.79003,0.11350
7176.86129,0.11516
7174.93254,0.11264
7173.00380,0.10886
7171.07505,0.10628
7169.14631,0.10485
7167.21756,0.10485
7165.28882,0.10401
7163.36007,0.10225
7161.43133,0.10262
7159.50258,0.10385
7157.57384,0.10286
7155.64509,0.10084
7153.71634,0.10090
7151.78760,0.10320
7149.85885,0.10597
7147.93011,0.10895
7146.00136,0.11030
7144.07262,0.10868
7142.14387,0.10609
7140.21513,0.10522
7138.28638,0.10616
7136.35764,0.10654
7134.42889,0.10666
7132.50015,0.10701
7130.57140,0.10519
7128.64266,0.10332
7126.71391,0.10549
7124.78516,0.10936
7122.85642,0.10951
7120.92767,0.10580
7118.99893,0.10325
7117.07018,0.10478
7115.14144,0.10666
7113.21269,0.10489
7111.28395,0.10303
7109.35520,0.10492
7107.42646,0.10687
7105.49771,0.10545
7103.56897,0.10385
7101.64022,0.10513
7099.71148,0.10679
7097.78273,0.10678
7095.85399,0.10614
7093.92524,0.10529
7091.99649,0.10531
7090.06775,0.10685
7088.13900,0.10729
7086.21026,0.10518
7084.28151,0.10195
7082.35277,0.09969
7080.42402,0.09966
7078.49528,0.10108
7076.56653,0.10231
7074.63779,0.10252
7072.70904,0.10192
7070.78030,0.10135
7068.85155,0.10091
7066.92281,0.10060
7064.99406,0.10113
7063.06532,0.10369
7061.13657,0.10684
7059.20782,0.10688
7057.27908,0.10590
7055.35033,0.10717
7053.42159,0.10731
7051.49284,0.10545
7049.56410,0.10417
7047.63535,0.10268
7045.70661,0.10134
7043.77786,0.10241
7041.84912,0.10469
7039.92037,0.10462
7037.99163,0.10220
7036.06288,0.10024
7034.13414,0.09973
7032.20539,0.10040
7030.27664,0.10134
7028.34790,0.10280
7026.41915,0.10496
7024.49041,0.10487
7022.56166,0.10295
7020.63292,0.10423
7018.70417,0.10808
7016.77543,0.10896
7014.84668,0.10692
7012.91794,0.10592
7010.98919,0.10491
7009.06045,0.10132
7007.13170,0.09830
7005.20296,0.10034
7003.27421,0.10383
7001.34547,0.10274
6999.41672,0.10085
6997.48797,0.10299
6995.55923,0.10516
6993.63048,0.10393
6991.70174,0.10216
6989.77299,0.10220
6987.84425,0.10301
6985.91550,0.10354
6983.98676,0.10323
6982.05801,0.10195
6980.12927,0.10121
6978.20052,0.10329
6976.27178,0.10693
6974.34303,0.10724
6972.41429,0.10283
6970.48554,0.09863
6968.55680,0.09946
6966.62805,0.10379
6964.69930,0.10610
6962.77056,0.10453
6960.84181,0.10225
6958.91307,0.10210
6956.98432,0.10374
6955.05558,0.10497
6953.12683,0.10269
6951.19809,0.09847
6949.26934,0.09899
6947.34060,0.10487
6945.41185,0.10937
6943.48311,0.10856
6941.55436,0.10413
6939.62562,0.10097
6937.69687,0.10190
6935.76812,0.10434
6933.83938,0.10434
6931.91063,0.10225
6929.98189,0.10248
6928.05314,0.10577
6926.12440,0.10690
6924.19565,0.10432
6922.26691,0.10211
6920.33816,0.10263
6918.40942,0.10392
6916.48067,0.10346
6914.55193,0.10133
6912.62318,0.09926
6910.69444,0.09826
6908.76569,0.09700
6906.83695,0.09501
6904.90820,0.09588
6902.97945,0.10055
6901.05071,0.10536
6899.12196,0.10766
6897.19322,0.10724
6895.26447,0.10554
6893.33573,0.10558
6891.40698,0.10755
6889.47824,0.10698
6887.54949,0.10268
6885.62075,0.09973
6883.69200,0.10080
6881.76326,0.10329
6879.83451,0.10468
6877.90577,0.10497
6875.97702,0.10503
6874.04828,0.10523
6872.11953,0.10502
6870.19078,0.10328
6868.26204,0.10112
6866.33329,0.10246
6864.40455,0.10675
6862.47580,0.10931
6860.54706,0.10925
6858.61831,0.10789
6856.68957,0.10597
6854.76082,0.10548
6852.83208,0.10732
6850.90333,0.10846
6848.97459,0.10539
6847.04584,0.10095
6845.11710,0.10035
6843.18835,0.10341
6841.25960,0.10750
6839.33086,0.11089
6837.40211,0.11119
6835.47337,0.10853
6833.54462,0.10652
6831.61588,0.10560
6829.68713,0.10405
6827.75839,0.10300
6825.82964,0.10261
6823.90090,0.10159
6821.97215,0.10082
6820.04341,0.10133
6818.11466,0.10237
6816.18592,0.10304
6814.25717,0.10308
6812.32843,0.10206
6810.39968,0.10077
6808.47093,0.10171
6806.54219,0.10441
6804.61344,0.10524
6802.68470,0.10269
6800.75595,0.10025
6798.82721,0.10172
6796.89846,0.10542
6794.96972,0.10721
6793.04097,0.10607
6791.11223,0.10409
6789.18348,0.10338
6787.25474,0.10375
6785.32599,0.10362
6783.39725,0.10186
6781.46850,0.10022
6779.53975,0.10095
6777.61101,0.10191
6775.68226,0.10181
6773.75352,0.10196
6771.82477,0.10064
6769.89603,0.09842
6767.96728,0.09833
6766.03854,0.09903
6764.10979,0.09975
6762.18105,0.10130
6760.25230,0.10139
6758.32356,0.09995
6756.39481,0.09997
6754.46607,0.10100
6752.53732,0.10098
6750.60858,0.10017
6748.67983,0.09875
6746.75108,0.09696
6744.82234,0.09744
6742.89359,0.10101
6740.96485,0.10445
6739.03610,0.10420
6737.10736,0.10130
6735.17861,0.10107
6733.24987,0.10377
6731.32112,0.10507
6729.39238,0.10550
6727.46363,0.10667
6725.53489,0.10608
6723.60614,0.10277
6721.67740,0.09979
6719.74865,0.09957
6717.81991,0.10125
6715.89116,0.10283
6713.96241,0.10316
6712.03367,0.10293
6710.10492,0.10300
6708.17618,0.10281
6706.24743,0.10289
6704.31869,0.10420
6702.38994,0.10525
6700.46120,0.10370
6698.53245,0.10022
6696.60371,0.09936
6694.67496,0.10214
6692.74622,0.10336
6690.81747,0.10133
6688.88873,0.09959
6686.95998,0.10009
6685.03123,0.10221
6683.10249,0.10489
6681.17374,0.10638
6679.24500,0.10486
6677.31625,0.10189
6675.38751,0.10031
6673.45876,0.10060
6671.53002,0.10170
6669.60127,0.10218
6667.67253,0.10150
6665.74378,0.10143
6663.81504,0.10360
6661.88629,0.10572
6659.95755,0.10523
6658.02880,0.10330
6656.10006,0.10214
6654.17131,0.10256
6652.24256,0.10356
6650.31382,0.10373
6648.38507,0.10242
6646.45633,0.10029
6644.52758,0.09943
6642.59884,0.10028
6640.67009,0.10006
6638.74135,0.09821
6636.81260,0.09829
6634.88386,0.10046
6632.95511,0.10162
6631.02637,0.10140
6629.09762,0.10097
6627.16888,0.10224
6625.24013,0.10481
6623.31139,0.10494
6621.38264,0.10269
6619.45389,0.10157
6617.52515,0.10156
6615.59640,0.10087
6613.66766,0.10019
6611.73891,0.09958
6609.81017,0.09888
6607.88142,0.09943
6605.95268,0.09973
6604.02393,0.09867
6602.09519,0.09892
6600.16644,0.10110
6598.23770,0.10274
6596.30895,0.10234
6594.38021,0.10073
6592.45146,0.09962
6590.52271,0.09893
6588.59397,0.09833
6586.66522,0.09928
6584.73648,0.10179
6582.80773,0.10394
6580.87899,0.10443
6578.95024,0.10392
6577.02150,0.10431
6575.09275,0.10508
6573.16401,0.10511
6571.23526,0.10402
6569.30652,0.10060
6567.37777,0.09725
6565.44903,0.09712
6563.52028,0.09847
6561.59154,0.09988
6559.66279,0.10058
6557.73404,0.09995
6555.80530,0.10078
6553.87655,0.10334
6551.94781,0.10361
6550.01906,0.10064
6548.09032,0.09762
6546.16157,0.09747
6544.23283,0.09952
6542.30408,0.10073
6540.37534,0.10035
6538.44659,0.10090
6536.51785,0.10268
6534.58910,0.10281
6532.66036,0.10113
6530.73161,0.10084
6528.80287,0.10240
6526.87412,0.10284
6524.94537,0.10210
6523.01663,0.10223
6521.08788,0.10326
6519.15914,0.10411
6517.23039,0.10347
6515.30165,0.10226
6513.37290,0.10228
6511.44416,0.10262
6509.51541,0.10218
6507.58667,0.10156
6505.65792,0.10132
6503.72918,0.10087
6501.80043,0.09971
6499.87169,0.09813
6497.94294,0.09652
6496.01419,0.09541
6494.08545,0.09550
6492.15670,0.09736
6490.22796,0.10021
6488.29921,0.10206
6486.37047,0.10253
6484.44172,0.10308
6482.51298,0.10394
6480.58423,0.10345
6478.65549,0.10082
6476.72674,0.09781
6474.79800,0.09714
6472.86925,0.09789
6470.94051,0.09741
6469.01176,0.09695
6467.08302,0.09819
6465.15427,0.09959
6463.22552,0.09903
6461.29678,0.09686
6459.36803,0.09585
6457.43929,0.09710
6455.51054,0.09886
6453.58180,0.09998
6451.65305,0.10056
6449.72431,0.10096
6447.79556,0.10113
6445.86682,0.10021
6443.93807,0.09896
6442.00933,0.09873
6440.08058,0.09886
6438.15184,0.09862
6436.22309,0.09869
6434.29434,0.10065
6432.36560,0.10286
6430.43685,0.10209
6428.50811,0.10005
6426.57936,0.09887
6424.65062,0.09835
6422.72187,0.09868
6420.79313,0.09854
6418.86438,0.09699
6416.93564,0.09578
6415.00689,0.09624
6413.07815,0.09725
6411.14940,0.09787
6409.22066,0.09857
6407.29191,0.09932
6405.36317,0.09927
6403.43442,0.09784
6401.50567,0.09617
6399.57693,0.09608
6397.64818,0.09703
6395.71944,0.09734
6393.79069,0.09757
6391.86195,0.09823
6389.93320,0.09860
6388.00446,0.09908
6386.07571,0.09948
6384.14697,0.09881
6382.21822,0.09815
6380.28948,0.09843
6378.36073,0.09833
6376.43199,0.09769
6374.50324,0.09742
6372.57450,0.09677
6370.64575,0.09585
6368.71700,0.09627
6366.78826,0.09807
6364.85951,0.09960
6362.93077,0.09999
6361.00202,0.09950
6359.07328,0.09797
6357.14453,0.09690
6355.21579,0.09832
6353.28704,0.10029
6351.35830,0.10009
6349.42955,0.09870
6347.50081,0.09835
6345.57206,0.09894
6343.64332,0.09907
6341.71457,0.09809
6339.78582,0.09684
6337.85708,0.09691
6335.92833,0.09810
6333.99959,0.09886
6332.07084,0.09852
6330.14210,0.09729
6328.21335,0.09610
6326.28461,0.09646
6324.35586,0.09837
6322.42712,0.09956
6320.49837,0.09948
6318.56963,0.09939
6316.64088,0.09899
6314.71214,0.09794
6312.78339,0.09734
6310.85465,0.09835
6308.92590,0.09969
6306.99715,0.09879
6305.06841,0.09621
6303.13966,0.09421
6301.21092,0.09364
6299.28217,0.09465
6297.35343,0.09690
6295.42468,0.09868
6293.49594,0.09825
6291.56719,0.09680
6289.63845,0.09689
6287.70970,0.09830
6285.78096,0.09925
6283.85221,0.09948
6281.92347,0.09961
6279.99472,0.09943
6278.06598,0.09855
6276.13723,0.09757
6274.20848,0.09759
6272.27974,0.09860
6270.35099,0.09943
6268.42225,0.09937
6266.49350,0.09796
6264.56476,0.09613
6262.63601,0.09605
6260.70727,0.09696
6258.77852,0.09722
6256.84978,0.09706
6254.92103,0.09647
6252.99229,0.09609
6251.06354,0.09670
6249.13480,0.09736
6247.20605,0.09736
6245.27730,0.09701
6243.34856,0.09667
6241.41981,0.09659
6239.49107,0.09623
6237.56232,0.09583
6235.63358,0.09630
6233.70483,0.09694
6231.77609,0.09681
6229.84734,0.09647
6227.91860,0.09654
6225.98985,0.09670
6224.06111,0.09634
6222.13236,0.09602
6220.20362,0.09613
6218.27487,0.09597
6216.34613,0.09590
6214.41738,0.09656
6212.48863,0.09738
6210.55989,0.09784
6208.63114,0.09720
6206.70240,0.09553
6204.77365,0.09487
6202.84491,0.09621
6200.91616,0.09725
6198.98742,0.09625
6197.05867,0.09514
6195.12993,0.09561
6193.20118,0.09672
6191.27244,0.09753
6189.34369,0.09803
6187.41495,0.09804
6185.48620,0.09725
6183.55746,0.09607
6181.62871,0.09482
6179.69996,0.09432
6177.77122,0.09526
6175.84247,0.09578
6173.91373,0.09486
6171.98498,0.09409
6170.05624,0.09371
6168.12749,0.09371
6166.19875,0.09504
6164.27000,0.09652
6162.34126,0.09715
6160.41251,0.09826
6158.48377,0.09908
6156.55502,0.09791
6154.62628,0.09612
6152.69753,0.09589
6150.76878,0.09715
6148.84004,0.09741
6146.91129,0.09554
6144.98255,0.09397
6143.05380,0.09433
6141.12506,0.09528
6139.19631,0.09572
6137.26757,0.09602
6135.33882,0.09598
6133.41008,0.09515
6131.48133,0.09458
6129.55259,0.09488
6127.62384,0.09476
6125.69510,0.09372
6123.76635,0.09298
6121.83761,0.09331
6119.90886,0.09469
6117.98011,0.09659
6116.05137,0.09751
6114.12262,0.09662
6112.19388,0.09534
6110.26513,0.09550
6108.33639,0.09674
6106.40764,0.09705
6104.47890,0.09523
6102.55015,0.09353
6100.62141,0.09489
6098.69266,0.09703
6096.76392,0.09641
6094.83517,0.09442
6092.90643,0.09360
6090.97768,0.09385
6089.04893,0.09440
6087.12019,0.09542
6085.19144,0.09658
6083.26270,0.09669
6081.33395,0.09576
6079.40521,0.09499
6077.47646,0.09479
6075.54772,0.09448
6073.61897,0.09374
6071.69023,0.09351
6069.76148,0.09399
6067.83274,0.09384
6065.90399,0.09289
6063.97525,0.09220
6062.04650,0.09238
6060.11776,0.09294
6058.18901,0.09309
6056.26026,0.09354
6054.33152,0.09443
6052.40277,0.09458
6050.47403,0.09436
6048.54528,0.09431
6046.61654,0.09423
6044.68779,0.09483
6042.75905,0.09659
6040.83030,0.09770
6038.90156,0.09636
6036.97281,0.09409
6035.04407,0.09333
6033.11532,0.09362
6031.18658,0.09337
6029.25783,0.09316
6027.32909,0.09385
6025.40034,0.09453
6023.47159,0.09442
6021.54285,0.09401
6019.61410,0.09455
6017.68536,0.09559
6015.75661,0.09536
6013.82787,0.09387
6011.89912,0.09222
6009.97038,0.09152
6008.04163,0.09231
6006.11289,0.09358
6004.18414,0.09417
6002.25540,0.09382
6000.32665,0.09280
5998.39791,0.09217
5996.46916,0.09230
5994.54041,0.09221
5992.61167,0.09235
5990.68292,0.09372
5988.75418,0.09521
5986.82543,0.09525
5984.89669,0.09349
5982.96794,0.09126
5981.03920,0.09026
5979.11045,0.09084
5977.18171,0.09208
5975.25296,0.09261
5973.32422,0.09265
5971.39547,0.09314
5969.46673,0.09350
5967.53798,0.09343
5965.60924,0.09330
5963.68049,0.09263
5961.75174,0.09133
5959.82300,0.09103
5957.89425,0.09219
5955.96551,0.09248
5954.03676,0.09159
5952.10802,0.09153
5950.17927,0.09139
5948.25053,0.08993
5946.32178,0.08889
5944.39304,0.08927
5942.46429,0.08984
5940.53555,0.09000
5938.60680,0.09010
5936.67806,0.09006
5934.74931,0.08966
5932.82057,0.08934
5930.89182,0.08946
5928.96307,0.08988
5927.03433,0.09025
5925.10558,0.09021
5923.17684,0.08963
5921.24809,0.08877
5919.31935,0.08816
5917.39060,0.08786
5915.46186,0.08773
5913.53311,0.08816
5911.60437,0.08884
5909.67562,0.08863
5907.74688,0.08762
5905.81813,0.08643
5903.88939,0.08537
5901.96064,0.08541
5900.03189,0.08644
5898.10315,0.08678
5896.17440,0.08593
5894.24566,0.08493
5892.31691,0.08416
5890.38817,0.08336
5888.45942,0.08256
5886.53068,0.08229
5884.60193,0.08258
5882.67319,0.08247
5880.74444,0.08158
5878.81570,0.08071
5876.88695,0.08027
5874.95821,0.07976
5873.02946,0.07940
5871.10072,0.07985
5869.17197,0.08036
5867.24322,0.08012
5865.31448,0.07914
5863.38573,0.07770
5861.45699,0.07680
5859.52824,0.07728
5857.59950,0.07774
5855.67075,0.07636
5853.74201,0.07442
5851.81326,0.07413
5849.88452,0.07507
5847.95577,0.07582
5846.02703,0.07580
5844.09828,0.07567
5842.16954,0.07543
5840.24079,0.07393
5838.31205,0.07199
5836.38330,0.07134
5834.45455,0.07176
5832.52581,0.07281
5830.59706,0.07414
5828.66832,0.07480
5826.73957,0.07484
5824.81083,0.07507
5822.88208,0.07550
5820.95334,0.07581
5819.02459,0.07581
5817.09585,0.07569
5815.16710,0.07593
5813.23836,0.07639
5811.30961,0.07641
5809.38087,0.07616
5807.45212,0.07672
5805.52337,0.07784
5803.59463,0.07819
5801.66588,0.07815
5799.73714,0.07896
5797.80839,0.07982
5795.87965,0.07932
5793.95090,0.07837
5792.02216,0.07868
5790.09341,0.07950
5788.16467,0.07952
5786.23592,0.07983
5784.30718,0.08098
5782.37843,0.08105
5780.44969,0.07972
5778.52094,0.07862
5776.59220,0.07830
5774.66345,0.07849
5772.73470,0.07859
5770.80596,0.07857
5768.87721,0.07935
5766.94847,0.08022
5765.01972,0.08019
5763.09098,0.08021
5761.16223,0.08029
5759.23349,0.08003
5757.30474,0.08022
5755.37600,0.08044
5753.44725,0.07968
5751.51851,0.07855
5749.58976,0.07796
5747.66102,0.07824
5745.73227,0.07921
5743.80352,0.08014
5741.87478,0.08078
5739.94603,0.08118
5738.01729,0.08116
5736.08854,0.08110
5734.15980,0.08072
5732.23105,0.07982
5730.30231,0.07976
5728.37356,0.08023
5726.44482,0.07964
5724.51607,0.07831
5722.58733,0.07715
5720.65858,0.07691
5718.72984,0.07772
5716.80109,0.07858
5714.87235,0.07966
5712.94360,0.08106
5711.01485,0.08116
5709.08611,0.08000
5707.15736,0.07915
5705.22862,0.07869
5703.29987,0.07812
5701.37113,0.07809
5699.44238,0.07926
5697.51364,0.08055
5695.58489,0.08068
5693.65615,0.08053
5691.72740,0.08131
5689.79866,0.08221
5687.86991,0.08239
5685.94117,0.08235
5684.01242,0.08192
5682.08368,0.08083
5680.15493,0.08037
5678.22618,0.08109
5676.29744,0.08183
5674.36869,0.08191
5672.43995,0.08158
5670.51120,0.08097
5668.58246,0.07996
5666.65371,0.07912
5664.72497,0.07946
5662.79622,0.08092
5660.86748,0.08211
5658.93873,0.08211
5657.00999,0.08145
5655.08124,0.08117
5653.15250,0.08156
5651.22375,0.08209
5649.29500,0.08245
5647.36626,0.08250
5645.43751,0.08223
5643.50877,0.08212
5641.58002,0.08215
5639.65128,0.08171
5637.72253,0.08126
5635.79379,0.08177
5633.86504,0.08290
5631.93630,0.08373
5630.00755,0.08386
5628.07881,0.08311
5626.15006,0.08194
5624.22132,0.08122
5622.29257,0.08079
5620.36383,0.08063
5618.43508,0.08120
5616.50633,0.08181
5614.57759,0.08183
5612.64884,0.08171
5610.72010,0.08183
5608.79135,0.08203
5606.86261,0.08199
5604.93386,0.08206
5603.00512,0.08255
5601.07637,0.08284
5599.14763,0.08253
5597.21888,0.08170
5595.29014,0.08066
5593.36139,0.08059
5591.43265,0.08184
5589.50390,0.08334
5587.57516,0.08407
5585.64641,0.08360
5583.71766,0.08262
5581.78892,0.08245
5579.86017,0.08292
5577.93143,0.08303
5576.00268,0.08285
5574.07394,0.08280
5572.14519,0.08308
5570.21645,0.08411
5568.28770,0.08541
5566.35896,0.08530
5564.43021,0.08396
5562.50147,0.08304
5560.57272,0.08256
5558.64398,0.08256
5556.71523,0.08350
5554.78648,0.08423
5552.85774,0.08395
5550.92899,0.08371
5549.00025,0.08426
5547.07150,0.08483
5545.14276,0.08444
5543.21401,0.08362
5541.28527,0.08318
5539.35652,0.08278
5537.42778,0.08249
5535.49903,0.08301
5533.57029,0.08376
5531.64154,0.08392
5529.71280,0.08378
5527.78405,0.08341
5525.85531,0.08265
5523.92656,0.08252
5521.99781,0.08328
5520.06907,0.08372
5518.14032,0.08398
5516.21158,0.08472
5514.28283,0.08517
5512.35409,0.08483
5510.42534,0.08442
5508.49660,0.08418
5506.56785,0.08354
5504.63911,0.08288
5502.71036,0.08314
5500.78162,0.08407
5498.85287,0.08479
5496.92413,0.08471
5494.99538,0.08392
5493.06664,0.08330
5491.13789,0.08342
5489.20914,0.08389
5487.28040,0.08410
5485.35165,0.08410
5483.42291,0.08451
5481.49416,0.08522
5479.56542,0.08523
5477.63667,0.08445
5475.70793,0.08375
5473.77918,0.08348
5471.85044,0.08330
5469.92169,0.08328
5467.99295,0.08350
5466.06420,0.08339
5464.13546,0.08280
5462.20671,0.08266
5460.27796,0.08308
5458.34922,0.08304
5456.42047,0.08278
5454.49173,0.08305
5452.56298,0.08312
5450.63424,0.08275
5448.70549,0.08264
5446.77675,0.08289
5444.84800,0.08301
5442.91926,0.08290
5440.99051,0.08289
5439.06177,0.08292
5437.13302,0.08300
5435.20428,0.08386
5433.27553,0.08524
5431.34679,0.08584
5429.41804,0.08542
5427.48929,0.08462
5425.56055,0.08388
5423.63180,0.08364
5421.70306,0.08393
5419.77431,0.08440
5417.84557,0.08467
5415.91682,0.08438
5413.98808,0.08363
5412.05933,0.08292
5410.13059,0.08263
5408.20184,0.08298
5406.27310,0.08342
5404.34435,0.08312
5402.41561,0.08268
5400.48686,0.08275
5398.55811,0.08268
5396.62937,0.08258
5394.70062,0.08310
5392.77188,0.08356
5390.84313,0.08315
5388.91439,0.08240
5386.98564,0.08209
5385.05690,0.08182
5383.12815,0.08146
5381.19941,0.08162
5379.27066,0.08206
5377.34192,0.08260
5375.41317,0.08331
5373.48443,0.08351
5371.55568,0.08312
5369.62694,0.08274
5367.69819,0.08217
5365.76944,0.08145
5363.84070,0.08156
5361.91195,0.08257
5359.98321,0.08345
5358.05446,0.08386
5356.12572,0.08401
5354.19697,0.08407
5352.26823,0.08415
5350.33948,0.08414
5348.41074,0.08391
5346.48199,0.08329
5344.55325,0.08271
5342.62450,0.08319
5340.69576,0.08409
5338.76701,0.08431
5336.83827,0.08449
5334.90952,0.08471
5332.98077,0.08429
5331.05203,0.08411
5329.12328,0.08461
5327.19454,0.08475
5325.26579,0.08406
5323.33705,0.08322
5321.40830,0.08323
5319.47956,0.08400
5317.55081,0.08459
5315.62207,0.08475
5313.69332,0.08471
5311.76458,0.08450
5309.83583,0.08430
5307.90709,0.08417
5305.97834,0.08400
5304.04959,0.08421
5302.12085,0.08491
5300.19210,0.08510
5298.26336,0.08447
5296.33461,0.08385
5294.40587,0.08341
5292.47712,0.08314
5290.54838,0.08336
5288.61963,0.08377
5286.69089,0.08393
5284.76214,0.08379
5282.83340,0.08355
5280.90465,0.08361
5278.97591,0.08402
5277.04716,0.08427
5275.11842,0.08443
5273.18967,0.08484
5271.26092,0.08490
5269.33218,0.08414
5267.40343,0.08323
5265.47469,0.08268
5263.54594,0.08224
5261.61720,0.08203
5259.68845,0.08230
5257.75971,0.08308
5255.83096,0.08383
5253.90222,0.08348
5251.97347,0.08253
5250.04473,0.08225
5248.11598,0.08244
5246.18724,0.08267
5244.25849,0.08291
5242.32975,0.08315
5240.40100,0.08335
5238.47225,0.08334
5236.54351,0.08322
5234.61476,0.08326
5232.68602,0.08349
5230.75727,0.08358
5228.82853,0.08360
5226.89978,0.08375
5224.97104,0.08367
5223.04229,0.08299
5221.11355,0.08241
5219.18480,0.08236
5217.25606,0.08205
5215.32731,0.08163
5213.39857,0.08198
5211.46982,0.08267
5209.54107,0.08308
5207.61233,0.08311
5205.68358,0.08302
5203.75484,0.08316
5201.82609,0.08321
5199.89735,0.08284
5197.96860,0.08227
5196.03986,0.08207
5194.11111,0.08234
5192.18237,0.08254
5190.25362,0.08252
5188.32488,0.08260
5186.39613,0.08278
5184.46739,0.08268
5182.53864,0.08229
5180.60990,0.08230
5178.68115,0.08279
5176.75240,0.08316
5174.82366,0.08347
5172.89491,0.08401
5170.96617,0.08447
5169.03742,0.08458
5167.10868,0.08404
5165.17993,0.08285
5163.25119,0.08173
5161.32244,0.08141
5159.39370,0.08187
5157.46495,0.08235
5155.53621,0.08256
5153.60746,0.08284
5151.67872,0.08311
5149.74997,0.08325
5147.82123,0.08322
5145.89248,0.08301
5143.96373,0.08329
5142.03499,0.08385
5140.10624,0.08337
5138.17750,0.08226
5136.24875,0.08208
5134.32001,0.08250
5132.39126,0.08237
5130.46252,0.08175
5128.53377,0.08131
5126.60503,0.08136
5124.67628,0.08192
5122.74754,0.08280
5120.81879,0.08340
5118.89005,0.08333
5116.96130,0.08286
5115.03255,0.08248
5113.10381,0.08249
5111.17506,0.08281
5109.24632,0.08298
5107.31757,0.08252
5105.38883,0.08162
5103.46008,0.08120
5101.53134,0.08144
5099.60259,0.08158
5097.67385,0.08146
5095.74510,0.08151
5093.81636,0.08179
5091.88761,0.08213
5089.95887,0.08213
5088.03012,0.08154
5086.10138,0.08112
5084.17263,0.08180
5082.24388,0.08296
5080.31514,0.08320
5078.38639,0.08218
5076.45765,0.08102
5074.52890,0.08120
5072.60016,0.08237
5070.67141,0.08303
5068.74267,0.08323
5066.81392,0.08365
5064.88518,0.08385
5062.95643,0.08362
5061.02769,0.08337
5059.09894,0.08352
5057.17020,0.08379
5055.24145,0.08361
5053.31270,0.08316
5051.38396,0.08297
5049.45521,0.08302
5047.52647,0.08299
5045.59772,0.08310
5043.66898,0.08344
5041.74023,0.08341
5039.81149,0.08291
5037.88274,0.08217
5035.95400,0.08142
5034.02525,0.08139
5032.09651,0.08202
5030.16776,0.08239
5028.23902,0.08209
5026.31027,0.08143
5024.38153,0.08093
5022.45278,0.08114
5020.52403,0.08213
5018.59529,0.08313
5016.66654,0.08339
5014.73780,0.08283
5012.80905,0.08192
5010.88031,0.08139
5008.95156,0.08157
5007.02282,0.08213
5005.09407,0.08266
5003.16533,0.08318
5001.23658,0.08361
4999.30784,0.08364
4997.37909,0.08319
4995.45035,0.08238
4993.52160,0.08180
4991.59286,0.08172
4989.66411,0.08163
4987.73536,0.08151
4985.80662,0.08173
4983.87787,0.08196
4981.94913,0.08194
4980.02038,0.08198
4978.09164,0.08227
4976.16289,0.08274
4974.23415,0.08320
4972.30540,0.08341
4970.37666,0.08313
4968.44791,0.08243
4966.51917,0.08194
4964.59042,0.08206
4962.66168,0.08222
4960.73293,0.08194
4958.80418,0.08165
4956.87544,0.08177
4954.94669,0.08195
4953.01795,0.08191
4951.08920,0.08181
4949.16046,0.08165
4947.23171,0.08125
4945.30297,0.08108
4943.37422,0.08158
4941.44548,0.08213
4939.51673,0.08209
4937.58799,0.08174
4935.65924,0.08173
4933.73050,0.08198
4931.80175,0.08189
4929.87301,0.08168
4927.94426,0.08169
4926.01551,0.08161
4924.08677,0.08163
4922.15802,0.08187
4920.22928,0.08168
4918.30053,0.08126
4916.37179,0.08143
4914.44304,0.08187
4912.51430,0.08191
4910.58555,0.08180
4908.65681,0.08178
4906.72806,0.08162
4904.79932,0.08149
4902.87057,0.08157
4900.94183,0.08142
4899.01308,0.08094
4897.08434,0.08074
4895.15559,0.08096
4893.22684,0.08117
4891.29810,0.08137
4889.36935,0.08183
4887.44061,0.08200
4885.51186,0.08142
4883.58312,0.08090
4881.65437,0.08094
4879.72563,0.08091
4877.79688,0.08076
4875.86814,0.08110
4873.93939,0.08177
4872.01065,0.08185
4870.08190,0.08128
4868.15316,0.08091
4866.22441,0.08105
4864.29566,0.08126
4862.36692,0.08119
4860.43817,0.08094
4858.50943,0.08086
4856.58068,0.08085
4854.65194,0.08078
4852.72319,0.08089
4850.79445,0.08102
4848.86570,0.08089
4846.93696,0.08072
4845.00821,0.08058
4843.07947,0.08020
4841.15072,0.07966
4839.22198,0.07952
4837.29323,0.07978
4835.36449,0.07999
4833.43574,0.08016
4831.50699,0.08028
4829.57825,0.08021
4827.64950,0.08023
4825.72076,0.08045
4823.79201,0.08048
4821.86327,0.08025
4819.93452,0.08003
4818.00578,0.08003
4816.07703,0.08020
4814.14829,0.08019
4812.21954,0.07997
4810.29080,0.07977
4808.36205,0.07975
4806.43331,0.07988
4804.50456,0.07999
4802.57582,0.08021
4800.64707,0.08067
4798.71832,0.08102
4796.78958,0.08098
4794.86083,0.08059
4792.93209,0.08013
4791.00334,0.07999
4789.07460,0.08013
4787.14585,0.08017
4785.21711,0.08000
4783.28836,0.07959
4781.35962,0.07914
4779.43087,0.07912
4777.50213,0.07948
4775.57338,0.07982
4773.64464,0.07985
4771.71589,0.07962
4769.78714,0.07941
4767.85840,0.07928
4765.92965,0.07916
4764.00091,0.07931
4762.07216,0.07965
4760.14342,0.07969
4758.21467,0.07948
4756.28593,0.07940
4754.35718,0.07967
4752.42844,0.08044
4750.49969,0.08118
4748.57095,0.08112
4746.64220,0.08057
4744.71346,0.08033
4742.78471,0.08042
4740.85597,0.08051
4738.92722,0.08065
4736.99847,0.08066
4735.06973,0.08023
4733.14098,0.07984
4731.21224,0.07977
4729.28349,0.07962
4727.35475,0.07955
4725.42600,0.07980
4723.49726,0.08005
4721.56851,0.08006
4719.63977,0.07991
4717.71102,0.07969
4715.78228,0.07956
4713.85353,0.07944
4711.92479,0.07915
4709.99604,0.07896
4708.06729,0.07919
4706.13855,0.07940
4704.20980,0.07911
4702.28106,0.07879
4700.35231,0.07903
4698.42357,0.07935
4696.49482,0.07916
4694.56608,0.07871
4692.63733,0.07851
4690.70859,0.07888
4688.77984,0.07949
4686.85110,0.07960
4684.92235,0.07925
4682.99361,0.07889
4681.06486,0.07858
4679.13612,0.07859
4677.20737,0.07887
4675.27862,0.07883
4673.34988,0.07860
4671.42113,0.07850
4669.49239,0.07827
4667.56364,0.07795
4665.63490,0.07783
4663.70615,0.07799
4661.77741,0.07844
4659.84866,0.07866
4657.91992,0.07840
4655.99117,0.07826
4654.06243,0.07871
4652.13368,0.07946
4650.20494,0.07977
4648.27619,0.07932
4646.34745,0.07879
4644.41870,0.07865
4642.48995,0.07873
4640.56121,0.07893
4638.63246,0.07913
4636.70372,0.07909
4634.77497,0.07885
4632.84623,0.07863
4630.91748,0.07854
4628.98874,0.07863
4627.05999,0.07891
4625.13125,0.07910
4623.20250,0.07883
4621.27376,0.07834
4619.34501,0.07831
4617.41627,0.07863
4615.48752,0.07865
4613.55877,0.07848
4611.63003,0.07852
4609.70128,0.07855
4607.77254,0.07846
4605.84379,0.07838
4603.91505,0.07822
4601.98630,0.07819
4600.05756,0.07846
4598.12881,0.07868
4596.20007,0.07880
4594.27132,0.07895
4592.34258,0.07878
4590.41383,0.07819
4588.48509,0.07772
4586.55634,0.07779
4584.62760,0.07818
4582.69885,0.07839
4580.77010,0.07819
4578.84136,0.07781
4576.91261,0.07779
4574.98387,0.07825
4573.05512,0.07860
4571.12638,0.07841
4569.19763,0.07794
4567.26889,0.07765
4565.34014,0.07777
4563.41140,0.07799
4561.48265,0.07792
4559.55391,0.07774
4557.62516,0.07752
4555.69642,0.07725
4553.76767,0.07727
4551.83893,0.07755
4549.91018,0.07762
4547.98143,0.07742
4546.05269,0.07727
4544.12394,0.07729
4542.19520,0.07739
4540.26645,0.07761
4538.33771,0.07805
4536.40896,0.07845
4534.48022,0.07839
4532.55147,0.07803
4530.62273,0.07779
4528.69398,0.07773
4526.76524,0.07764
4524.83649,0.07750
4522.90775,0.07724
4520.97900,0.07685
4519.05025,0.07676
4517.12151,0.07697
4515.19276,0.07698
4513.26402,0.07701
4511.33527,0.07735
4509.40653,0.07744
4507.47778,0.07718
4505.54904,0.07699
4503.62029,0.07674
4501.69155,0.07626
4499.76280,0.07585
4497.83406,0.07584
4495.90531,0.07597
4493.97657,0.07589
4492.04782,0.07576
4490.11908,0.07568
4488.19033,0.07550
4486.26158,0.07528
4484.33284,0.07528
4482.40409,0.07553
4480.47535,0.07569
4478.54660,0.07529
4476.61786,0.07461
4474.68911,0.07428
4472.76037,0.07434
4470.83162,0.07436
4468.90288,0.07420
4466.97413,0.07409
4465.04539,0.07405
4463.11664,0.07396
4461.18790,0.07380
4459.25915,0.07336
4457.33041,0.07282
4455.40166,0.07257
4453.47291,0.07252
4451.54417,0.07227
4449.61542,0.07177
4447.68668,0.07161
4445.75793,0.07195
4443.82919,0.07229
4441.90044,0.07228
4439.97170,0.07190
4438.04295,0.07118
4436.11421,0.07048
4434.18546,0.07017
4432.25672,0.06995
4430.32797,0.06976
4428.39923,0.06999
4426.47048,0.07023
4424.54173,0.06986
4422.61299,0.06909
4420.68424,0.06857
4418.75550,0.06866
4416.82675,0.06901
4414.89801,0.06918
4412.96926,0.06902
4411.04052,0.06867
4409.11177,0.06835
4407.18303,0.06804
4405.25428,0.06771
4403.32554,0.06760
4401.39679,0.06749
4399.46805,0.06710
4397.53930,0.06688
4395.61056,0.06695
4393.68181,0.06692
4391.75306,0.06664
4389.82432,0.06620
4387.89557,0.06555
4385.96683,0.06482
4384.03808,0.06456
4382.10934,0.06475
4380.18059,0.06455
4378.25185,0.06391
4376.32310,0.06348
4374.39436,0.06330
4372.46561,0.06306
4370.53687,0.06269
4368.60812,0.06230
4366.67938,0.06199
4364.75063,0.06177
4362.82189,0.06175
4360.89314,0.06186
4358.96439,0.06184
4357.03565,0.06173
4355.10690,0.06149
4353.17816,0.06121
4351.24941,0.06128
4349.32067,0.06140
4347.39192,0.06121
4345.46318,0.06105
4343.53443,0.06101
4341.60569,0.06090
4339.67694,0.06056
4337.74820,0.06004
4335.81945,0.05961
4333.89071,0.05959
4331.96196,0.06006
4330.03321,0.06031
4328.10447,0.06009
4326.17572,0.05999
4324.24698,0.06026
4322.31823,0.06047
4320.38949,0.06027
4318.46074,0.06011
4316.53200,0.06045
4314.60325,0.06110
4312.67451,0.06158
4310.74576,0.06164
4308.81702,0.06147
4306.88827,0.06145
4304.95953,0.06161
4303.03078,0.06164
4301.10204,0.06155
4299.17329,0.06148
4297.24454,0.06139
4295.31580,0.06141
4293.38705,0.06162
4291.45831,0.06187
4289.52956,0.06205
4287.60082,0.06193
4285.67207,0.06152
4283.74333,0.06137
4281.81458,0.06163
4279.88584,0.06175
4277.95709,0.06159
4276.02835,0.06144
4274.09960,0.06138
4272.17086,0.06151
4270.24211,0.06186
4268.31336,0.06221
4266.38462,0.06247
4264.45587,0.06258
4262.52713,0.06244
4260.59838,0.06214
4258.66964,0.06186
4256.74089,0.06167
4254.81215,0.06142
4252.88340,0.06105
4250.95466,0.06092
4249.02591,0.06127
4247.09717,0.06170
4245.16842,0.06180
4243.23968,0.06167
4241.31093,0.06161
4239.38219,0.06143
4237.45344,0.06097
4235.52469,0.06077
4233.59595,0.06099
4231.66720,0.06112
4229.73846,0.06093
4227.80971,0.06072
4225.88097,0.06074
4223.95222,0.06084
4222.02348,0.06071
4220.09473,0.06036
4218.16599,0.06025
4216.23724,0.06065
4214.30850,0.06118
4212.37975,0.06135
4210.45101,0.06116
4208.52226,0.06105
4206.59352,0.06124
4204.66477,0.06147
4202.73602,0.06148
4200.80728,0.06123
4198.87853,0.06089
4196.94979,0.06082
4195.02104,0.06103
4193.09230,0.06134
4191.16355,0.06158
4189.23481,0.06159
4187.30606,0.06160
4185.37732,0.06163
4183.44857,0.06135
4181.51983,0.06097
4179.59108,0.06084
4177.66234,0.06100
4175.73359,0.06113
4173.80484,0.06100
4171.87610,0.06105
4169.94735,0.06151
4168.01861,0.06189
4166.08986,0.06193
4164.16112,0.06194
4162.23237,0.06202
4160.30363,0.06206
4158.37488,0.06206
4156.44614,0.06203
4154.51739,0.06176
4152.58865,0.06141
4150.65990,0.06152
4148.73116,0.06185
4146.80241,0.06191
4144.87367,0.06214
4142.94492,0.06266
4141.01617,0.06285
4139.08743,0.06266
4137.15868,0.06257
4135.22994,0.06264
4133.30119,0.06273
4131.37245,0.06286
4129.44370,0.06316
4127.51496,0.06352
4125.58621,0.06353
4123.65747,0.06316
4121.72872,0.06279
4119.79998,0.06264
4117.87123,0.06265
4115.94249,0.06278
4114.01374,0.06313
4112.08500,0.06342
4110.15625,0.06333
4108.22750,0.06300
4106.29876,0.06268
4104.37001,0.06246
4102.44127,0.06249
4100.51252,0.06284
4098.58378,0.06311
4096.65503,0.06309
4094.72629,0.06316
4092.79754,0.06332
4090.86880,0.06323
4088.94005,0.06303
4087.01131,0.06297
4085.08256,0.06297
4083.15382,0.06300
4081.22507,0.06299
4079.29632,0.06284
4077.36758,0.06284
4075.43883,0.06315
4073.51009,0.06341
4071.58134,0.06329
4069.65260,0.06288
4067.72385,0.06253
4065.79511,0.06253
4063.86636,0.06280
4061.93762,0.06301
4060.00887,0.06305
4058.08013,0.06302
4056.15138,0.06308
4054.22264,0.06335
4052.29389,0.06382
4050.36515,0.06414
4048.43640,0.06401
4046.50765,0.06368
4044.57891,0.06355
4042.65016,0.06358
4040.72142,0.06357
4038.79267,0.06361
4036.86393,0.06362
4034.93518,0.06347
4033.00644,0.06352
4031.07769,0.06384
4029.14895,0.06397
4027.22020,0.06391
4025.29146,0.06397
4023.36271,0.06411
4021.43397,0.06400
4019.50522,0.06366
4017.57648,0.06333
4015.64773,0.06320
4013.71898,0.06320
4011.79024,0.06320
4009.86149,0.06317
4007.93275,0.06319
4006.00400,0.06329
4004.07526,0.06332
4002.14651,0.06323
4000.21777,0.06340
3998.28902,0.06379
3996.36028,0.06389
3994.43153,0.06368
3992.50279,0.06371
3990.57404,0.06390
3988.64530,0.06384
3986.71655,0.06374
3984.78780,0.06386
3982.85906,0.06406
3980.93031,0.06433
3979.00157,0.06455
3977.07282,0.06439
3975.14408,0.06409
3973.21533,0.06402
3971.28659,0.06415
3969.35784,0.06430
3967.42910,0.06422
3965.50035,0.06401
3963.57161,0.06406
3961.64286,0.06431
3959.71412,0.06453
3957.78537,0.06468
3955.85663,0.06484
3953.92788,0.06517
3951.99913,0.06542
3950.07039,0.06528
3948.14164,0.06502
3946.21290,0.06480
3944.28415,0.06444
3942.35541,0.06419
3940.42666,0.06436
3938.49792,0.06469
3936.56917,0.06489
3934.64043,0.06494
3932.71168,0.06496
3930.78294,0.06496
3928.85419,0.06492
3926.92545,0.06489
3924.99670,0.06490
3923.06795,0.06480
3921.13921,0.06451
3919.21046,0.06426
3917.28172,0.06425
3915.35297,0.06439
3913.42423,0.06449
3911.49548,0.06460
3909.56674,0.06477
3907.63799,0.06472
3905.70925,0.06446
3903.78050,0.06429
3901.85176,0.06419
3899.92301,0.06412
3897.99427,0.06406
3896.06552,0.06387
3894.13678,0.06372
3892.20803,0.06381
3890.27928,0.06407
3888.35054,0.06420
3886.42179,0.06385
3884.49305,0.06338
3882.56430,0.06346
3880.63556,0.06380
3878.70681,0.06386
3876.77807,0.06379
3874.84932,0.06387
3872.92058,0.06401
3870.99183,0.06401
3869.06309,0.06404
3867.13434,0.06416
3865.20560,0.06423
3863.27685,0.06428
3861.34811,0.06427
3859.41936,0.06409
3857.49061,0.06402
3855.56187,0.06430
3853.63312,0.06447
3851.70438,0.06438
3849.77563,0.06448
3847.84689,0.06464
3845.91814,0.06455
3843.98940,0.06425
3842.06065,0.06405
3840.13191,0.06419
3838.20316,0.06436
3836.27442,0.06423
3834.34567,0.06417
3832.41693,0.06432
3830.48818,0.06439
3828.55943,0.06434
3826.63069,0.06432
3824.70194,0.06418
3822.77320,0.06409
3820.84445,0.06438
3818.91571,0.06475
3816.98696,0.06477
3815.05822,0.06458
3813.12947,0.06463
3811.20073,0.06497
3809.27198,0.06514
3807.34324,0.06495
3805.41449,0.06478
3803.48575,0.06483
3801.55700,0.06488
3799.62826,0.06482
3797.69951,0.06480
3795.77076,0.06491
3793.84202,0.06483
3791.91327,0.06433
3789.98453,0.06394
3788.05578,0.06409
3786.12704,0.06460
3784.19829,0.06512
3782.26955,0.06543
3780.34080,0.06541
3778.41206,0.06510
3776.48331,0.06485
3774.55457,0.06487
3772.62582,0.06500
3770.69708,0.06506
3768.76833,0.06507
3766.83959,0.06502
3764.91084,0.06476
3762.98209,0.06442
3761.05335,0.06428
3759.12460,0.06446
3757.19586,0.06473
3755.26711,0.06497
3753.33837,0.06530
3751.40962,0.06559
3749.48088,0.06549
3747.55213,0.06526
3745.62339,0.06519
3743.69464,0.06512
3741.76590,0.06501
3739.83715,0.06500
3737.90841,0.06501
3735.97966,0.06497
3734.05091,0.06487
3732.12217,0.06483
3730.19342,0.06497
3728.26468,0.06529
3726.33593,0.06568
3724.40719,0.06591
3722.47844,0.06574
3720.54970,0.06532
3718.62095,0.06502
3716.69221,0.06478
3714.76346,0.06444
3712.83472,0.06413
3710.90597,0.06414
3708.97723,0.06439
3707.04848,0.06450
3705.11974,0.06441
3703.19099,0.06426
3701.26224,0.06406
3699.33350,0.06393
3697.40475,0.06389
3695.47601,0.06374
3693.54726,0.06343
3691.61852,0.06309
3689.68977,0.06287
3687.76103,0.06273
3685.83228,0.06246
3683.90354,0.06212
3681.97479,0.06201
3680.04605,0.06201
3678.11730,0.06186
3676.18856,0.06173
3674.25981,0.06195
3672.33107,0.06210
3670.40232,0.06182
3668.47357,0.06150
3666.54483,0.06153
3664.61608,0.06161
3662.68734,0.06148
3660.75859,0.06135
3658.82985,0.06147
3656.90110,0.06180
3654.97236,0.06214
3653.04361,0.06228
3651.11487,0.06202
3649.18612,0.06145
3647.25738,0.06117
3645.32863,0.06136
3643.39989,0.06166
3641.47114,0.06184
3639.54239,0.06193
3637.61365,0.06190
3635.68490,0.06180
3633.75616,0.06184
3631.82741,0.06200
3629.89867,0.06191
3627.96992,0.06158
3626.04118,0.06152
3624.11243,0.06165
3622.18369,0.06165
3620.25494,0.06150
3618.32620,0.06128
3616.39745,0.06107
3614.46871,0.06080
3612.53996,0.06052
3610.61122,0.06036
3608.68247,0.06042
3606.75372,0.06068
3604.82498,0.06084
3602.89623,0.06074
3600.96749,0.06058
3599.03874,0.06048
3597.11000,0.06043
3595.18125,0.06039
3593.25251,0.06036
3591.32376,0.06031
3589.39502,0.06025
3587.46627,0.06031
3585.53753,0.06034
3583.60878,0.06013
3581.68004,0.05991
3579.75129,0.05978
3577.82254,0.05980
3575.89380,0.06020
3573.96505,0.06062
3572.03631,0.06061
3570.10756,0.06040
3568.17882,0.06007
3566.25007,0.05976
3564.32133,0.05993
3562.39258,0.06031
3560.46384,0.06036
3558.53509,0.06016
3556.60635,0.06012
3554.67760,0.06025
3552.74886,0.06024
3550.82011,0.06006
3548.89137,0.05995
3546.96262,0.05997
3545.03387,0.05994
3543.10513,0.05987
3541.17638,0.05980
3539.24764,0.05960
3537.31889,0.05940
3535.39015,0.05949
3533.46140,0.05970
3531.53266,0.05985
3529.60391,0.06002
3527.67517,0.06006
3525.74642,0.05976
3523.81768,0.05948
3521.88893,0.05948
3519.96019,0.05937
3518.03144,0.05924
3516.10270,0.05947
3514.17395,0.05972
3512.24520,0.05985
3510.31646,0.05998
3508.38771,0.05978
3506.45897,0.05929
3504.53022,0.05917
3502.60148,0.05963
3500.67273,0.05993
3498.74399,0.05973
3496.81524,0.05962
3494.88650,0.05972
3492.95775,0.05969
3491.02901,0.05973
3489.10026,0.05993
3487.17152,0.06004
3485.24277,0.06000
3483.31402,0.05994
3481.38528,0.05984
3479.45653,0.05968
3477.52779,0.05959
3475.59904,0.05939
3473.67030,0.05914
3471.74155,0.05919
3469.81281,0.05932
3467.88406,0.05922
3465.95532,0.05921
3464.02657,0.05935
3462.09783,0.05923
3460.16908,0.05892
3458.24034,0.05872
3456.31159,0.05863
3454.38285,0.05858
3452.45410,0.05862
3450.52535,0.05864
3448.59661,0.05849
3446.66786,0.05839
3444.73912,0.05850
3442.81037,0.05858
3440.88163,0.05854
3438.95288,0.05873
3437.02414,0.05908
3435.09539,0.05912
3433.16665,0.05900
3431.23790,0.05895
3429.30916,0.05887
3427.38041,0.05872
3425.45167,0.05867
3423.52292,0.05894
3421.59418,0.05920
3419.66543,0.05907
3417.73668,0.05899
3415.80794,0.05912
3413.87919,0.05910
3411.95045,0.05891
3410.02170,0.05874
3408.09296,0.05878
3406.16421,0.05895
3404.23547,0.05874
3402.30672,0.05835
3400.37798,0.05849
3398.44923,0.05900
3396.52049,0.05927
3394.59174,0.05929
3392.66300,0.05924
3390.73425,0.05924
3388.80550,0.05938
3386.87676,0.05950
3384.94801,0.05946
3383.01927,0.05946
3381.09052,0.05950
3379.16178,0.05934
3377.23303,0.05912
3375.30429,0.05903
3373.37554,0.05892
3371.44680,0.05878
3369.51805,0.05877
3367.58931,0.05879
3365.66056,0.05868
3363.73182,0.05836
3361.80307,0.05801
3359.87433,0.05795
3357.94558,0.05829
3356.01683,0.05885
3354.08809,0.05919
3352.15934,0.05912
3350.23060,0.05888
3348.30185,0.05880
3346.37311,0.05894
3344.44436,0.05908
3342.51562,0.05903
3340.58687,0.05876
3338.65813,0.05833
3336.72938,0.05785
3334.80064,0.05763
3332.87189,0.05774
3330.94315,0.05793
3329.01440,0.05816
3327.08566,0.05841
3325.15691,0.05858
3323.22816,0.05867
3321.29942,0.05865
3319.37067,0.05841
3317.44193,0.05812
3315.51318,0.05808
3313.58444,0.05814
3311.65569,0.05817
3309.72695,0.05825
3307.79820,0.05824
3305.86946,0.05813
3303.94071,0.05807
3302.01197,0.05816
3300.08322,0.05827
3298.15448,0.05826
3296.22573,0.05820
3294.29698,0.05819
3292.36824,0.05813
3290.43949,0.05799
3288.51075,0.05800
3286.58200,0.05825
3284.65326,0.05851
3282.72451,0.05864
3280.79577,0.05859
3278.86702,0.05844
3276.93828,0.05844
3275.00953,0.05856
3273.08079,0.05858
3271.15204,0.05840
3269.22330,0.05807
3267.29455,0.05785
3265.36581,0.05787
3263.43706,0.05776
3261.50831,0.05775
3259.57957,0.05820
3257.65082,0.05859
3255.72208,0.05851
3253.79333,0.05830
3251.86459,0.05828
3249.93584,0.05836
3248.00710,0.05853
3246.07835,0.05880
3244.14961,0.05890
3242.22086,0.05873
3240.29212,0.05859
3238.36337,0.05867
3236.43463,0.05893
3234.50588,0.05904
3232.57713,0.05872
3230.64839,0.05821
3228.71964,0.05790
3226.79090,0.05782
3224.86215,0.05774
3222.93341,0.05761
3221.00466,0.05757
3219.07592,0.05757
3217.14717,0.05794
3215.21843,0.05881
3213.28968,0.05937
3211.36094,0.05917
3209.43219,0.05859
3207.50345,0.05809
3205.57470,0.05780
3203.64596,0.05764
3201.71721,0.05753
3199.78846,0.05775
3197.85972,0.05843
3195.93097,0.05901
3194.00223,0.05900
3192.07348,0.05872
3190.14474,0.05865
3188.21599,0.05889
3186.28725,0.05905
3184.35850,0.05882
3182.42976,0.05830
3180.50101,0.05790
3178.57227,0.05783
3176.64352,0.05789
3174.71478,0.05805
3172.78603,0.05833
3170.85729,0.05840
3168.92854,0.05815
3166.99979,0.05791
3165.07105,0.05805
3163.14230,0.05820
3161.21356,0.05798
3159.28481,0.05788
3157.35607,0.05820
3155.42732,0.05861
3153.49858,0.05879
3151.56983,0.05855
3149.64109,0.05833
3147.71234,0.05861
3145.78360,0.05894
3143.85485,0.05879
3141.92611,0.05834
3139.99736,0.05811
3138.06861,0.05817
3136.13987,0.05814
3134.21112,0.05793
3132.28238,0.05790
3130.35363,0.05813
3128.42489,0.05833
3126.49614,0.05835
3124.56740,0.05822
3122.63865,0.05801
3120.70991,0.05802
3118.78116,0.05832
3116.85242,0.05865
3114.92367,0.05880
3112.99493,0.05864
3111.06618,0.05821
3109.13744,0.05774
3107.20869,0.05731
3105.27994,0.05701
3103.35120,0.05706
3101.42245,0.05736
3099.49371,0.05752
3097.56496,0.05737
3095.63622,0.05727
3093.70747,0.05731
3091.77873,0.05740
3089.84998,0.05754
3087.92124,0.05753
3085.99249,0.05731
3084.06375,0.05717
3082.13500,0.05727
3080.20626,0.05752
3078.27751,0.05759
3076.34877,0.05731
3074.42002,0.05690
3072.49127,0.05668
3070.56253,0.05677
3068.63378,0.05700
3066.70504,0.05701
3064.77629,0.05676
3062.84755,0.05669
3060.91880,0.05694
3058.99006,0.05723
3057.06131,0.05736
3055.13257,0.05717
3053.20382,0.05693
3051.27508,0.05688
3049.34633,0.05683
3047.41759,0.05683
3045.48884,0.05691
3043.56009,0.05679
3041.63135,0.05644
3039.70260,0.05620
3037.77386,0.05618
3035.84511,0.05606
3033.91637,0.05586
3031.98762,0.05587
3030.05888,0.05610
3028.13013,0.05629
3026.20139,0.05620
3024.27264,0.05591
3022.34390,0.05577
3020.41515,0.05583
3018.48641,0.05594
3016.55766,0.05597
3014.62892,0.05584
3012.70017,0.05559
3010.77142,0.05544
3008.84268,0.05544
3006.91393,0.05541
3004.98519,0.05528
3003.05644,0.05511
3001.12770,0.05493
2999.19895,0.05481
2997.27021,0.05478
2995.34146,0.05469
2993.41272,0.05453
2991.48397,0.05436
2989.55523,0.05423
2987.62648,0.05416
2985.69774,0.05407
2983.76899,0.05395
2981.84025,0.05381
2979.91150,0.05372
2977.98275,0.05381
2976.05401,0.05401
2974.12526,0.05412
2972.19652,0.05422
2970.26777,0.05439
2968.33903,0.05439
2966.41028,0.05428
2964.48154,0.05440
2962.55279,0.05471
2960.62405,0.05489
2958.69530,0.05488
2956.76656,0.05479
2954.83781,0.05480
2952.90907,0.05504
2950.98032,0.05521
2949.05157,0.05504
2947.12283,0.05475
2945.19408,0.05453
2943.26534,0.05446
2941.33659,0.05464
2939.40785,0.05503
2937.47910,0.05536
2935.55036,0.05549
2933.62161,0.05541
2931.69287,0.05527
2929.76412,0.05534
2927.83538,0.05564
2925.90663,0.05595
2923.97789,0.05609
2922.04914,0.05611
2920.12040,0.05628
2918.19165,0.05663
2916.26290,0.05687
2914.33416,0.05672
2912.40541,0.05653
2910.47667,0.05670
2908.54792,0.05707
2906.61918,0.05734
2904.69043,0.05749
2902.76169,0.05745
2900.83294,0.05724
2898.90420,0.05716
2896.97545,0.05739
2895.04671,0.05752
2893.11796,0.05735
2891.18922,0.05716
2889.26047,0.05697
2887.33172,0.05663
2885.40298,0.05636
2883.47423,0.05649
2881.54549,0.05666
2879.61674,0.05645
2877.68800,0.05611
2875.75925,0.05600
2873.83051,0.05606
2871.90176,0.05615
2869.97302,0.05618
2868.04427,0.05610
2866.11553,0.05611
2864.18678,0.05627
2862.25804,0.05625
2860.32929,0.05603
2858.40055,0.05591
2856.47180,0.05608
2854.54305,0.05651
2852.61431,0.05698
2850.68556,0.05735
2848.75682,0.05760
2846.82807,0.05764
2844.89933,0.05750
2842.97058,0.05726
2841.04184,0.05694
2839.11309,0.05667
2837.18435,0.05667
2835.25560,0.05689
2833.32686,0.05707
2831.39811,0.05711
2829.46937,0.05699
2827.54062,0.05668
2825.61188,0.05639
2823.68313,0.05642
2821.75438,0.05657
2819.82564,0.05655
2817.89689,0.05649
2815.96815,0.05648
2814.03940,0.05654
2812.11066,0.05660
2810.18191,0.05664
2808.25317,0.05679
2806.32442,0.05690
2804.39568,0.05692
2802.46693,0.05707
2800.53819,0.05731
2798.60944,0.05740
2796.68070,0.05737
2794.75195,0.05730
2792.82320,0.05720
2790.89446,0.05714
2788.96571,0.05720
2787.03697,0.05725
2785.10822,0.05719
2783.17948,0.05714
2781.25073,0.05712
2779.32199,0.05703
2777.39324,0.05703
2775.46450,0.05720
2773.53575,0.05735
2771.60701,0.05735
2769.67826,0.05732
2767.74952,0.05730
2765.82077,0.05726
2763.89203,0.05715
2761.96328,0.05700
2760.03453,0.05690
2758.10579,0.05683
2756.17704,0.05673
2754.24830,0.05666
2752.31955,0.05672
2750.39081,0.05692
2748.46206,0.05711
2746.53332,0.05713
2744.60457,0.05700
2742.67583,0.05680
2740.74708,0.05669
2738.81834,0.05677
2736.88959,0.05691
2734.96085,0.05701
2733.03210,0.05701
2731.10336,0.05680
2729.17461,0.05659
2727.24586,0.05671
2725.31712,0.05698
2723.38837,0.05712
2721.45963,0.05709
2719.53088,0.05704
2717.60214,0.05706
2715.67339,0.05709
2713.74465,0.05708
2711.81590,0.05706
2709.88716,0.05706
2707.95841,0.05704
2706.02967,0.05698
2704.10092,0.05692
2702.17218,0.05688
2700.24343,0.05686
2698.31468,0.05694
2696.38594,0.05715
2694.45719,0.05727
2692.52845,0.05724
2690.59970,0.05726
2688.67096,0.05730
2686.74221,0.05721
2684.81347,0.05708
2682.88472,0.05691
2680.95598,0.05681
2679.02723,0.05690
2677.09849,0.05701
2675.16974,0.05701
2673.24100,0.05693
2671.31225,0.05683
2669.38351,0.05678
2667.45476,0.05680
2665.52601,0.05682
2663.59727,0.05685
2661.66852,0.05697
2659.73978,0.05708
2657.81103,0.05698
2655.88229,0.05673
2653.95354,0.05658
2652.02480,0.05653
2650.09605,0.05649
2648.16731,0.05641
2646.23856,0.05635
2644.30982,0.05639
2642.38107,0.05648
2640.45233,0.05647
2638.52358,0.05645
2636.59484,0.05659
2634.66609,0.05667
2632.73734,0.05645
2630.80860,0.05614
2628.87985,0.05609
2626.95111,0.05632
2625.02236,0.05648
2623.09362,0.05641
2621.16487,0.05634
2619.23613,0.05629
2617.30738,0.05622
2615.37864,0.05617
2613.44989,0.05623
2611.52115,0.05637
2609.59240,0.05646
2607.66366,0.05641
2605.73491,0.05635
2603.80616,0.05633
2601.87742,0.05630
2599.94867,0.05629
2598.01993,0.05626
2596.09118,0.05609
2594.16244,0.05594
2592.23369,0.05601
2590.30495,0.05613
2588.37620,0.05615
2586.44746,0.05618
2584.51871,0.05624
2582.58997,0.05629
2580.66122,0.05625
2578.73248,0.05613
2576.80373,0.05610
2574.87499,0.05621
2572.94624,0.05622
2571.01749,0.05620
2569.08875,0.05627
2567.16000,0.05625
2565.23126,0.05611
2563.30251,0.05601
2561.37377,0.05593
2559.44502,0.05594
2557.51628,0.05608
2555.58753,0.05618
2553.65879,0.05613
2551.73004,0.05609
2549.80130,0.05606
2547.87255,0.05601
2545.94381,0.05603
2544.01506,0.05615
2542.08631,0.05628
2540.15757,0.05636
2538.22882,0.05632
2536.30008,0.05619
2534.37133,0.05614
2532.44259,0.05620
2530.51384,0.05619
2528.58510,0.05606
2526.65635,0.05597
2524.72761,0.05601
2522.79886,0.05598
2520.87012,0.05581
2518.94137,0.05572
2517.01263,0.05578
2515.08388,0.05576
2513.15514,0.05565
2511.22639,0.05565
2509.29764,0.05584
2507.36890,0.05611
2505.44015,0.05625
2503.51141,0.05619
2501.58266,0.05613
2499.65392,0.05624
2497.72517,0.05645
2495.79643,0.05662
2493.86768,0.05666
2491.93894,0.05656
2490.01019,0.05640
2488.08145,0.05636
2486.15270,0.05644
2484.22396,0.05642
2482.29521,0.05635
2480.36647,0.05642
2478.43772,0.05648
2476.50897,0.05649
2474.58023,0.05658
2472.65148,0.05674
2470.72274,0.05677
2468.79399,0.05658
2466.86525,0.05639
2464.93650,0.05637
2463.00776,0.05642
2461.07901,0.05651
2459.15027,0.05663
2457.22152,0.05669
2455.29278,0.05671
2453.36403,0.05668
2451.43529,0.05651
2449.50654,0.05635
2447.57779,0.05637
2445.64905,0.05646
2443.72030,0.05642
2441.79156,0.05640
2439.86281,0.05660
2437.93407,0.05678
2436.00532,0.05666
2434.07658,0.05634
2432.14783,0.05607
2430.21909,0.05607
2428.29034,0.05631
2426.36160,0.05653
2424.43285,0.05654
2422.50411,0.05648
2420.57536,0.05651
2418.64662,0.05650
2416.71787,0.05643
2414.78912,0.05642
2412.86038,0.05642
2410.93163,0.05635
2409.00289,0.05624
2407.07414,0.05623
2405.14540,0.05632
2403.21665,0.05642
2401.28791,0.05653
2399.35916,0.05659
2397.43042,0.05657
2395.50167,0.05650
2393.57293,0.05639
2391.64418,0.05626
2389.71544,0.05630
2387.78669,0.05638
2385.85795,0.05630
2383.92920,0.05620
2382.00045,0.05615
2380.07171,0.05610
2378.14296,0.05612
2376.21422,0.05627
2374.28547,0.05650
2372.35673,0.05661
2370.42798,0.05652
2368.49924,0.05641
2366.57049,0.05638
2364.64175,0.05628
2362.71300,0.05616
2360.78426,0.05609
2358.85551,0.05596
2356.92677,0.05588
2354.99802,0.05615
2353.06927,0.05659
2351.14053,0.05681
2349.21178,0.05679
2347.28304,0.05664
2345.35429,0.05638
2343.42555,0.05617
2341.49680,0.05612
2339.56806,0.05616
2337.63931,0.05628
2335.71057,0.05649
2333.78182,0.05662
2331.85308,0.05658
2329.92433,0.05641
2327.99559,0.05614
2326.06684,0.05591
2324.13810,0.05595
2322.20935,0.05615
2320.28060,0.05619
2318.35186,0.05612
2316.42311,0.05620
2314.49437,0.05636
2312.56562,0.05640
2310.63688,0.05632
2308.70813,0.05627
2306.77939,0.05628
2304.85064,0.05621
2302.92190,0.05614
2300.99315,0.05625
2299.06441,0.05637
2297.13566,0.05628
2295.20692,0.05619
2293.27817,0.05631
2291.34943,0.05648
2289.42068,0.05649
2287.49193,0.05638
2285.56319,0.05626
2283.63444,0.05621
2281.70570,0.05623
2279.77695,0.05617
2277.84821,0.05605
2275.91946,0.05607
2273.99072,0.05618
2272.06197,0.05621
2270.13323,0.05628
2268.20448,0.05634
2266.27574,0.05626
2264.34699,0.05612
2262.41825,0.05599
2260.48950,0.05596
2258.56075,0.05610
2256.63201,0.05633
2254.70326,0.05647
2252.77452,0.05646
2250.84577,0.05636
2248.91703,0.05622
2246.98828,0.05612
2245.05954,0.05614
2243.13079,0.05621
2241.20205,0.05624
2239.27330,0.05625
2237.34456,0.05629
2235.41581,0.05636
2233.48707,0.05637
2231.55832,0.05629
2229.62958,0.05627
2227.70083,0.05629
2225.77208,0.05633
2223.84334,0.05643
2221.91459,0.05649
2219.98585,0.05648
2218.05710,0.05649
2216.12836,0.05649
2214.19961,0.05646
2212.27087,0.05648
2210.34212,0.05656
2208.41338,0.05663
2206.48463,0.05659
2204.55589,0.05649
2202.62714,0.05653
2200.69840,0.05671
2198.76965,0.05675
2196.84090,0.05662
2194.91216,0.05645
2192.98341,0.05636
2191.05467,0.05643
2189.12592,0.05655
2187.19718,0.05658
2185.26843,0.05649
2183.33969,0.05641
2181.41094,0.05647
2179.48220,0.05654
2177.55345,0.05650
2175.62471,0.05645
2173.69596,0.05644
2171.76722,0.05651
2169.83847,0.05663
2167.90973,0.05663
2165.98098,0.05655
2164.05223,0.05652
2162.12349,0.05651
2160.19474,0.05655
2158.26600,0.05665
2156.33725,0.05668
2154.40851,0.05664
2152.47976,0.05659
2150.55102,0.05649
2148.62227,0.05636
2146.69353,0.05637
2144.76478,0.05647
2142.83604,0.05652
2140.90729,0.05655
2138.97855,0.05668
2137.04980,0.05691
2135.12106,0.05709
2133.19231,0.05715
2131.26356,0.05712
2129.33482,0.05707
2127.40607,0.05699
2125.47733,0.05685
2123.54858,0.05672
2121.61984,0.05676
2119.69109,0.05698
2117.76235,0.05713
2115.83360,0.05706
2113.90486,0.05686
2111.97611,0.05672
2110.04737,0.05674
2108.11862,0.05698
2106.18988,0.05727
2104.26113,0.05736
2102.33238,0.05724
2100.40364,0.05708
2098.47489,0.05703
2096.54615,0.05701
2094.61740,0.05699
2092.68866,0.05702
2090.75991,0.05709
2088.83117,0.05709
2086.90242,0.05709
2084.97368,0.05715
2083.04493,0.05716
2081.11619,0.05711
2079.18744,0.05709
2077.25870,0.05708
2075.32995,0.05705
2073.40121,0.05705
2071.47246,0.05713
2069.54371,0.05723
2067.61497,0.05718
2065.68622,0.05706
2063.75748,0.05713
2061.82873,0.05729
2059.89999,0.05736
2057.97124,0.05736
2056.04250,0.05730
2054.11375,0.05721
2052.18501,0.05715
2050.25626,0.05715
2048.32752,0.05720
2046.39877,0.05714
2044.47003,0.05689
2042.54128,0.05673
2040.61254,0.05683
2038.68379,0.05704
2036.75504,0.05713
2034.82630,0.05704
2032.89755,0.05686
2030.96881,0.05680
2029.04006,0.05688
2027.11132,0.05697
2025.18257,0.05708
2023.25383,0.05733
2021.32508,0.05757
2019.39634,0.05762
2017.46759,0.05754
2015.53885,0.05754
2013.61010,0.05770
2011.68136,0.05783
2009.75261,0.05772
2007.82386,0.05749
2005.89512,0.05738
2003.96637,0.05731
2002.03763,0.05717
2000.10888,0.05719
1998.18014,0.05745
1996.25139,0.05773
1994.32265,0.05784
1992.39390,0.05777
1990.46516,0.05765
1988.53641,0.05757
1986.60767,0.05755
1984.67892,0.05757
1982.75018,0.05760
1980.82143,0.05764
1978.89269,0.05779
1976.96394,0.05796
1975.03519,0.05804
1973.10645,0.05801
1971.17770,0.05794
1969.24896,0.05793
1967.32021,0.05796
1965.39147,0.05795
1963.46272,0.05789
1961.53398,0.05792
1959.60523,0.05790
1957.67649,0.05779
1955.74774,0.05783
1953.81900,0.05804
1951.89025,0.05815
1949.96151,0.05822
1948.03276,0.05835
1946.10402,0.05843
1944.17527,0.05838
1942.24652,0.05840
1940.31778,0.05849
1938.38903,0.05853
1936.46029,0.05850
1934.53154,0.05845
1932.60280,0.05854
1930.67405,0.05879
1928.74531,0.05894
1926.81656,0.05890
1924.88782,0.05898
1922.95907,0.05917
1921.03033,0.05931
1919.10158,0.05933
1917.17284,0.05923
1915.24409,0.05917
1913.31534,0.05924
1911.38660,0.05938
1909.45785,0.05945
1907.52911,0.05942
1905.60036,0.05937
1903.67162,0.05939
1901.74287,0.05944
1899.81413,0.05948
1897.88538,0.05963
1895.95664,0.05986
1894.02789,0.06004
1892.09915,0.06017
1890.17040,0.06026
1888.24166,0.06029
1886.31291,0.06028
1884.38417,0.06025
1882.45542,0.06019
1880.52667,0.06018
1878.59793,0.06028
1876.66918,0.06050
1874.74044,0.06073
1872.81169,0.06088
1870.88295,0.06098
1868.95420,0.06110
1867.02546,0.06119
1865.09671,0.06127
1863.16797,0.06137
1861.23922,0.06142
1859.31048,0.06144
1857.38173,0.06146
1855.45299,0.06147
1853.52424,0.06152
1851.59549,0.06169
1849.66675,0.06177
1847.73800,0.06161
1845.80926,0.06140
1843.88051,0.06137
1841.95177,0.06150
1840.02302,0.06165
1838.09428,0.06184
1836.16553,0.06206
1834.23679,0.06217
1832.30804,0.06206
1830.37930,0.06189
1828.45055,0.06188
1826.52181,0.06200
1824.59306,0.06215
1822.66432,0.06228
1820.73557,0.06236
1818.80682,0.06229
1816.87808,0.06202
1814.94933,0.06178
1813.02059,0.06179
1811.09184,0.06196
1809.16310,0.06198
1807.23435,0.06177
1805.30561,0.06141
1803.37686,0.06082
1801.44812,0.05985
1799.51937,0.05859
1797.59063,0.05754
1795.66188,0.05694
1793.73314,0.05655
1791.80439,0.05635
1789.87565,0.05656
1787.94690,0.05704
1786.01815,0.05742
1784.08941,0.05767
1782.16066,0.05798
1780.23192,0.05828
1778.30317,0.05846
1776.37443,0.05850
1774.44568,0.05851
1772.51694,0.05855
1770.58819,0.05851
1768.65945,0.05827
1766.73070,0.05787
1764.80196,0.05739
1762.87321,0.05690
1760.94447,0.05647
1759.01572,0.05601
1757.08697,0.05546
1755.15823,0.05500
1753.22948,0.05464
1751.30074,0.05412
1749.37199,0.05344
1747.44325,0.05288
1745.51450,0.05258
1743.58576,0.05249
1741.65701,0.05246
1739.72827,0.05256
1737.79952,0.05294
1735.87078,0.05348
1733.94203,0.05401
1732.01329,0.05449
1730.08454,0.05492
1728.15580,0.05526
1726.22705,0.05558
1724.29830,0.05585
1722.36956,0.05599
1720.44081,0.05620
1718.51207,0.05665
1716.58332,0.05701
1714.65458,0.05703
1712.72583,0.05707
1710.79709,0.05732
1708.86834,0.05764
1706.93960,0.05798
1705.01085,0.05834
1703.08211,0.05863
1701.15336,0.05890
1699.22462,0.05923
1697.29587,0.05957
1695.36713,0.05983
1693.43838,0.06003
1691.50963,0.06020
1689.58089,0.06038
1687.65214,0.06071
1685.72340,0.06123
1683.79465,0.06161
1681.86591,0.06173
1679.93716,0.06194
1678.00842,0.06236
1676.07967,0.06290
1674.15093,0.06345
1672.22218,0.06400
1670.29344,0.06470
1668.36469,0.06546
1666.43595,0.06609
1664.50720,0.06668
1662.57845,0.06736
1660.64971,0.06808
1658.72096,0.06877
1656.79222,0.06940
1654.86347,0.06977
1652.93473,0.07006
1651.00598,0.07060
1649.07724,0.07101
1647.14849,0.07111
1645.21975,0.07110
1643.29100,0.07115
1641.36226,0.07134
1639.43351,0.07163
1637.50477,0.07184
1635.57602,0.07190
1633.64728,0.07206
1631.71853,0.07240
1629.78978,0.07273
1627.86104,0.07292
1625.93229,0.07303
1624.00355,0.07317
1622.07480,0.07328
1620.14606,0.07336
1618.21731,0.07344
1616.28857,0.07341
1614.35982,0.07329
1612.43108,0.07319
1610.50233,0.07296
1608.57359,0.07252
1606.64484,0.07202
1604.71610,0.07164
1602.78735,0.07155
1600.85861,0.07189
1598.92986,0.07268
1597.00111,0.07361
1595.07237,0.07427
1593.14362,0.07455
1591.21488,0.07441
1589.28613,0.07391
1587.35739,0.07329
1585.42864,0.07269
1583.49990,0.07214
1581.57115,0.07159
1579.64241,0.07103
1577.71366,0.07082
1575.78492,0.07137
1573.85617,0.07242
1571.92743,0.07337
1569.99868,0.07409
1568.06993,0.07451
1566.14119,0.07470
1564.21244,0.07484
1562.28370,0.07511
1560.35495,0.07568
1558.42621,0.07680
1556.49746,0.07815
1554.56872,0.07920
1552.63997,0.07982
1550.71123,0.07998
1548.78248,0.07973
1546.85374,0.07919
1544.92499,0.07835
1542.99625,0.07726
1541.06750,0.07644
1539.13876,0.07649
1537.21001,0.07722
1535.28126,0.07812
1533.35252,0.07901
1531.42377,0.07958
1529.49503,0.07979
1527.56628,0.07970
1525.63754,0.07936
1523.70879,0.07882
1521.78005,0.07817
1519.85130,0.07758
1517.92256,0.07703
1515.99381,0.07637
1514.06507,0.07558
1512.13632,0.07455
1510.20758,0.07347
1508.27883,0.07265
1506.35008,0.07200
1504.42134,0.07130
1502.49259,0.07050
1500.56385,0.06962
1498.63510,0.06865
1496.70636,0.06756
1494.77761,0.06643
1492.84887,0.06542
1490.92012,0.06444
1488.99138,0.06349
1487.06263,0.06270
1485.13389,0.06201
1483.20514,0.06144
1481.27640,0.06107
1479.34765,0.06061
1477.41891,0.05994
1475.49016,0.05937
1473.56141,0.05908
1471.63267,0.05890
1469.70392,0.05880
1467.77518,0.05892
1465.84643,0.05920
1463.91769,0.05939
1461.98894,0.05947
1460.06020,0.05958
1458.13145,0.05976
1456.20271,0.05998
1454.27396,0.06027
1452.34522,0.06064
1450.41647,0.06105
1448.48773,0.06136
1446.55898,0.06154
1444.63024,0.06154
1442.70149,0.06150
1440.77274,0.06169
1438.84400,0.06223
1436.91525,0.06320
1434.98651,0.06465
1433.05776,0.06621
1431.12902,0.06748
1429.20027,0.06852
1427.27153,0.06994
1425.34278,0.07207
1423.41404,0.07431
1421.48529,0.07618
1419.55655,0.07798
1417.62780,0.07974
1415.69906,0.08133
1413.77031,0.08294
1411.84156,0.08449
1409.91282,0.08573
1407.98407,0.08648
1406.05533,0.08645
1404.12658,0.08571
1402.19784,0.08484
1400.26909,0.08429
1398.34035,0.08411
1396.41160,0.08431
1394.48286,0.08469
1392.55411,0.08498
1390.62537,0.08508
1388.69662,0.08485
1386.76788,0.08424
1384.83913,0.08354
1382.91039,0.08280
1380.98164,0.08199
1379.05289,0.08128
1377.12415,0.08081
1375.19540,0.08051
1373.26666,0.08014
1371.33791,0.07958
1369.40917,0.07884
1367.48042,0.07787
1365.55168,0.07674
1363.62293,0.07553
1361.69419,0.07422
1359.76544,0.07286
1357.83670,0.07159
1355.90795,0.07053
1353.97921,0.06978
1352.05046,0.06935
1350.12172,0.06893
1348.19297,0.06828
1346.26422,0.06732
1344.33548,0.06607
1342.40673,0.06462
1340.47799,0.06323
1338.54924,0.06218
1336.62050,0.06177
1334.69175,0.06195
1332.76301,0.06231
1330.83426,0.06251
1328.90552,0.06264
1326.97677,0.06288
1325.04803,0.06312
1323.11928,0.06322
1321.19054,0.06316
1319.26179,0.06306
1317.33304,0.06305
1315.40430,0.06314
1313.47555,0.06323
1311.54681,0.06325
1309.61806,0.06317
1307.68932,0.06306
1305.76057,0.06294
1303.83183,0.06278
1301.90308,0.06270
1299.97434,0.06262
1298.04559,0.06241
1296.11685,0.06218
1294.18810,0.06201
1292.25936,0.06186
1290.33061,0.06169
1288.40187,0.06139
1286.47312,0.06083
1284.54437,0.06019
1282.61563,0.05965
1280.68688,0.05909
1278.75814,0.05844
1276.82939,0.05778
1274.90065,0.05723
1272.97190,0.05681
1271.04316,0.05645
1269.11441,0.05618
1267.18567,0.05609
1265.25692,0.05603
1263.32818,0.05604
1261.39943,0.05628
1259.47069,0.05670
1257.54194,0.05724
1255.61320,0.05793
1253.68445,0.05864
1251.75570,0.05926
1249.82696,0.05973
1247.89821,0.06017
1245.96947,0.06064
1244.04072,0.06095
1242.11198,0.06117
1240.18323,0.06149
1238.25449,0.06197
1236.32574,0.06243
1234.39700,0.06273
1232.46825,0.06297
1230.53951,0.06320
1228.61076,0.06331
1226.68202,0.06337
1224.75327,0.06328
1222.82452,0.06289
1220.89578,0.06242
1218.96703,0.06208
1217.03829,0.06185
1215.10954,0.06155
1213.18080,0.06120
1211.25205,0.06100
1209.32331,0.06095
1207.39456,0.06086
1205.46582,0.06063
1203.53707,0.06037
1201.60833,0.06027
1199.67958,0.06034
1197.75084,0.06036
1195.82209,0.06034
1193.89335,0.06044
1191.96460,0.06064
1190.03585,0.06074
1188.10711,0.06071
1186.17836,0.06063
1184.24962,0.06041
1182.32087,0.06010
1180.39213,0.06007
1178.46338,0.06032
1176.53464,0.06048
1174.60589,0.06039
1172.67715,0.06026
1170.74840,0.06039
1168.81966,0.06069
1166.89091,0.06076
1164.96217,0.06046
1163.03342,0.06012
1161.10467,0.06009
1159.17593,0.06029
1157.24718,0.06055
1155.31844,0.06079
1153.38969,0.06091
1151.46095,0.06083
1149.53220,0.06073
1147.60346,0.06079
1145.67471,0.06096
1143.74597,0.06095
1141.81722,0.06070
1139.88848,0.06037
1137.95973,0.06007
1136.03099,0.05980
1134.10224,0.05965
1132.17350,0.05949
1130.24475,0.05912
1128.31600,0.05870
1126.38726,0.05838
1124.45851,0.05803
1122.52977,0.05781
1120.60102,0.05791
1118.67228,0.05804
1116.74353,0.05803
1114.81479,0.05811
1112.88604,0.05818
1110.95730,0.05798
1109.02855,0.05777
1107.09981,0.05779
1105.17106,0.05784
1103.24232,0.05800
1101.31357,0.05838
1099.38483,0.05853
1097.45608,0.05818
1095.52733,0.05780
1093.59859,0.05784
1091.66984,0.05812
1089.74110,0.05832
1087.81235,0.05850
1085.88361,0.05881
1083.95486,0.05908
1082.02612,0.05917
1080.09737,0.05919
1078.16863,0.05917
1076.23988,0.05917
1074.31114,0.05925
1072.38239,0.05927
1070.45365,0.05914
1068.52490,0.05912
1066.59615,0.05919
1064.66741,0.05915
1062.73866,0.05909
1060.80992,0.05894
1058.88117,0.05869
1056.95243,0.05858
1055.02368,0.05871
1053.09494,0.05895
1051.16619,0.05908
1049.23745,0.05905
1047.30870,0.05900
1045.37996,0.05903
1043.45121,0.05916
1041.52247,0.05901
1039.59372,0.05856
1037.66498,0.05837
1035.73623,0.05862
1033.80748,0.05890
1031.87874,0.05882
1029.94999,0.05848
1028.02125,0.05836
1026.09250,0.05837
1024.16376,0.05833
1022.23501,0.05829
1020.30627,0.05812
1018.37752,0.05779
1016.44878,0.05757
1014.52003,0.05762
1012.59129,0.05784
1010.66254,0.05792
1008.73380,0.05767
1006.80505,0.05734
1004.87631,0.05717
1002.94756,0.05703
1001.01881,0.05694
999.09007,0.05698
997.16132,0.05700
995.23258,0.05686
993.30383,0.05660
991.37509,0.05642
989.44634,0.05650
987.51760,0.05654
985.58885,0.05636
983.66011,0.05614
981.73136,0.05597
979.80262,0.05588
977.87387,0.05593
975.94513,0.05604
974.01638,0.05617
972.08763,0.05641
970.15889,0.05670
968.23014,0.05695
966.30140,0.05715
964.37265,0.05721
962.44391,0.05727
960.51516,0.05766
958.58642,0.05824
956.65767,0.05867
954.72893,0.05907
952.80018,0.05933
950.87144,0.05924
948.94269,0.05921
947.01395,0.05956
945.08520,0.05983
943.15646,0.05985
941.22771,0.05985
939.29896,0.05975
937.37022,0.05963
935.44147,0.05972
933.51273,0.05974
931.58398,0.05951
929.65524,0.05924
927.72649,0.05907
925.79775,0.05900
923.86900,0.05878
921.94026,0.05841
920.01151,0.05844
918.08277,0.05893
916.15402,0.05925
914.22528,0.05914
912.29653,0.05905
910.36779,0.05930
908.43904,0.05955
906.51029,0.05926
904.58155,0.05875
902.65280,0.05864
900.72406,0.05867
898.79531,0.05831
896.86657,0.05789
894.93782,0.05778
893.00908,0.05770
891.08033,0.05759
889.15159,0.05762
887.22284,0.05768
885.29410,0.05774
883.36535,0.05802
881.43661,0.05849
879.50786,0.05905
877.57911,0.06002
875.65037,0.06143
873.72162,0.06267
871.79288,0.06327
869.86413,0.06331
867.93539,0.06300
866.00664,0.06240
864.07790,0.06154
862.14915,0.06061
860.22041,0.05997
858.29166,0.05972
856.36292,0.05944
854.43417,0.05890
852.50543,0.05837
850.57668,0.05807
848.64794,0.05836
846.71919,0.05894
844.79044,0.05912
842.86170,0.05923
840.93295,0.05957
839.00421,0.05953
837.07546,0.05905
835.14672,0.05869
833.21797,0.05853
831.28923,0.05834
829.36048,0.05829
827.43174,0.05859
825.50299,0.05903
823.57425,0.05931
821.64550,0.05932
819.71676,0.05916
817.78801,0.05893
815.85926,0.05846
813.93052,0.05784
812.00177,0.05770
810.07303,0.05809
808.14428,0.05848
806.21554,0.05873
804.28679,0.05870
802.35805,0.05827
800.42930,0.05781
798.50056,0.05783
796.57181,0.05829
794.64307,0.05854
792.71432,0.05834
790.78558,0.05810
788.85683,0.05781
786.92809,0.05736
784.99934,0.05699
783.07059,0.05680
781.14185,0.05661
779.21310,0.05637
777.28436,0.05633
775.35561,0.05658
773.42687,0.05692
771.49812,0.05710
769.56938,0.05679
767.64063,0.05614
765.71189,0.05572
763.78314,0.05570
761.85440,0.05572
759.92565,0.05549
757.99691,0.05509
756.06816,0.05474
754.13942,0.05457
752.21067,0.05462
750.28192,0.05485
748.35318,0.05498
746.42443,0.05475
744.49569,0.05425
742.56694,0.05382
740.63820,0.05366
738.70945,0.05355
736.78071,0.05333
734.85196,0.05305
732.92322,0.05294
730.99447,0.05310
729.06573,0.05305
727.13698,0.05253
725.20824,0.05207
723.27949,0.05202
721.35074,0.05208
719.42200,0.05187
717.49325,0.05163
715.56451,0.05190
713.63576,0.05268
711.70702,0.05348
709.77827,0.05367
707.84953,0.05323
705.92078,0.05249
703.99204,0.05185
702.06329,0.05179
700.13455,0.05227
698.20580,0.05278
696.27706,0.05339
694.34831,0.05427
692.41957,0.05513
690.49082,0.05553
688.56207,0.05542
686.63333,0.05525
684.70458,0.05519
682.77584,0.05485
680.84709,0.05429
678.91835,0.05440
676.98960,0.05518
675.06086,0.05543
673.13211,0.05473
671.20337,0.05403
669.27462,0.05412
667.34588,0.05445
665.41713,0.05422
663.48839,0.05354
661.55964,0.05292
659.63090,0.05236
657.70215,0.05147
655.77340,0.05068
653.84466,0.05061
651.91591,0.05066
649.98717,0.05033
648.05842,0.05044
646.12968,0.05189
644.20093,0.05343
642.27219,0.05355
640.34344,0.05348
638.41470,0.05417
636.48595,0.05496
634.55721,0.05571
632.62846,0.05647
630.69972,0.05709
628.77097,0.05759
626.84222,0.05824
624.91348,0.05870
622.98473,0.05827
621.05599,0.05754
619.12724,0.05728
617.19850,0.05763
615.26975,0.05834
613.34101,0.05927
611.41226,0.06059
609.48352,0.06179
607.55477,0.06244
605.62603,0.06345
603.69728,0.06473
601.76854,0.06537
599.83979,0.06544
