7497.03301,0.11005
7495.10426,0.10756
7493.17552,0.10911
7491.24677,0.11368
7489.31803,0.11508
7487.38928,0.11103
7485.46054,0.10513
7483.53179,0.10056
7481.60305,0.10088
7479.67430,0.10642
7477.74556,0.11101
7475.81681,0.11107
7473.88807,0.10984
7471.95932,0.11073
7470.03057,0.11243
7468.10183,0.11306
7466.17308,0.11264
7464.24434,0.11048
7462.31559,0.10665
7460.38685,0.10262
7458.45810,0.10024
7456.52936,0.10280
7454.60061,0.10946
7452.67187,0.11511
7450.74312,0.11731
7448.81438,0.11773
7446.88563,0.11733
7444.95689,0.11515
7443.02814,0.11400
7441.09940,0.11644
7439.17065,0.11736
7437.24190,0.11487
7435.31316,0.11425
7433.38441,0.11676
7431.45567,0.11948
7429.52692,0.11976
7427.59818,0.11513
7425.66943,0.11005
7423.74069,0.11058
7421.81194,0.11318
7419.88320,0.11350
7417.95445,0.11083
7416.02571,0.10595
7414.09696,0.10330
7412.16822,0.10363
7410.23947,0.10329
7408.31073,0.10133
7406.38198,0.09898
7404.45323,0.09891
7402.52449,0.10287
7400.59574,0.10764
7398.66700,0.11033
7396.73825,0.11170
7394.80951,0.11288
7392.88076,0.11261
7390.95202,0.11012
7389.02327,0.10905
7387.09453,0.11024
7385.16578,0.10886
7383.23704,0.10551
7381.30829,0.10453
7379.37955,0.10714
7377.45080,0.11136
7375.52205,0.11320
7373.59331,0.11250
7371.66456,0.11245
7369.73582,0.11356
7367.80707,0.11495
7365.87833,0.11532
7363.94958,0.11231
7362.02084,0.10623
7360.09209,0.10218
7358.16335,0.10328
7356.23460,0.10789
7354.30586,0.11255
7352.37711,0.11369
7350.44837,0.11127
7348.51962,0.10972
7346.59088,0.11181
7344.66213,0.11488
7342.73338,0.11471
7340.80464,0.11188
7338.87589,0.10931
7336.94715,0.10821
7335.01840,0.10931
7333.08966,0.11129
7331.16091,0.11139
7329.23217,0.11044
7327.30342,0.10978
7325.37468,0.10902
7323.44593,0.10906
7321.51719,0.10955
7319.58844,0.10954
7317.65970,0.11049
7315.73095,0.11252
7313.80221,0.11354
7311.87346,0.11281
7309.94471,0.11201
7308.01597,0.11223
7306.08722,0.11263
7304.15848,0.11126
7302.22973,0.10862
7300.30099,0.10851
7298.37224,0.10991
7296.44350,0.10764
7294.51475,0.10423
7292.58601,0.10519
7290.65726,0.10834
7288.72852,0.10914
7286.79977,0.10850
7284.87103,0.10766
7282.94228,0.10533
7281.01353,0.10334
7279.08479,0.10340
7277.15604,0.10311
7275.22730,0.10323
7273.29855,0.10523
7271.36981,0.10728
7269.44106,0.10803
7267.51232,0.10652
7265.58357,0.10510
7263.65483,0.10737
7261.72608,0.11022
7259.79734,0.10999
7257.86859,0.10783
7255.93985,0.10590
7254.01110,0.10634
7252.08236,0.10854
7250.15361,0.10948
7248.22486,0.10977
7246.29612,0.11026
7244.36737,0.10890
7242.43863,0.10490
7240.50988,0.10000
7238.58114,0.09745
7236.65239,0.09976
7234.72365,0.10447
7232.79490,0.10630
7230.86616,0.10445
7228.93741,0.10278
7227.00867,0.10231
7225.07992,0.10105
7223.15118,0.10023
7221.22243,0.10281
7219.29369,0.10735
7217.36494,0.10988
7215.43619,0.10940
7213.50745,0.10827
7211.57870,0.10894
7209.64996,0.11016
7207.72121,0.10989
7205.79247,0.11008
7203.86372,0.11178
7201.93498,0.11273
7200.00623,0.11225
7198.07749,0.11113
7196.14874,0.10930
7194.22000,0.10696
7192.29125,0.10421
7190.36251,0.10229
7188.43376,0.10316
7186.50501,0.10471
7184.57627,0.10421
7182.64752,0.10405
7180.71878,0.10584
7178.79003,0.10740
7176.86129,0.10720
7174.93254,0.10491
7173.00380,0.10361
7171.07505,0.10702
7169.14631,0.11074
7167.21756,0.10925
7165.28882,0.10540
7163.36007,0.10428
7161.43133,0.10655
7159.50258,0.10953
7157.57384,0.11103
7155.64509,0.11084
7153.71634,0.10893
7151.78760,0.10593
7149.85885,0.10478
7147.93011,0.10589
7146.00136,0.10584
7144.07262,0.10483
7142.14387,0.10505
7140.21513,0.10586
7138.28638,0.10658
7136.35764,0.10732
7134.42889,0.10838
7132.50015,0.10994
7130.57140,0.11159
7128.64266,0.11214
7126.71391,0.10948
7124.78516,0.10506
7122.85642,0.10412
7120.92767,0.10802
7118.99893,0.11143
7117.07018,0.10969
7115.14144,0.10598
7113.21269,0.10476
7111.28395,0.10408
7109.35520,0.10210
7107.42646,0.10019
7105.49771,0.09910
7103.56897,0.09909
7101.64022,0.10094
7099.71148,0.10365
7097.78273,0.10426
7095.85399,0.10314
7093.92524,0.10305
7091.99649,0.10381
7090.06775,0.10408
7088.13900,0.10282
7086.21026,0.10081
7084.28151,0.10100
7082.35277,0.10360
7080.42402,0.10629
7078.49528,0.10797
7076.56653,0.10835
7074.63779,0.10720
7072.70904,0.10576
7070.78030,0.10543
7068.85155,0.10435
7066.92281,0.10204
7064.99406,0.10076
7063.06532,0.10028
7061.13657,0.10005
7059.20782,0.10021
7057.27908,0.09943
7055.35033,0.09884
7053.42159,0.09972
7051.49284,0.10080
7049.56410,0.10188
7047.63535,0.10262
7045.70661,0.10242
7043.77786,0.10246
7041.84912,0.10364
7039.92037,0.10570
7037.99163,0.10725
7036.06288,0.10711
7034.13414,0.10590
7032.20539,0.10482
7030.27664,0.10402
7028.34790,0.10298
7026.41915,0.10133
7024.49041,0.09988
7022.56166,0.09994
7020.63292,0.10106
7018.70417,0.10200
7016.77543,0.10335
7014.84668,0.10608
7012.91794,0.10906
7010.98919,0.11016
7009.06045,0.10855
7007.13170,0.10497
7005.20296,0.10233
7003.27421,0.10171
7001.34547,0.10122
6999.41672,0.10191
6997.48797,0.10446
6995.55923,0.10570
6993.63048,0.10608
6991.70174,0.10739
6989.77299,0.10665
6987.84425,0.10339
6985.91550,0.10172
6983.98676,0.10273
6982.05801,0.10363
6980.12927,0.10263
6978.20052,0.10180
6976.27178,0.10360
6974.34303,0.10551
6972.41429,0.10370
6970.48554,0.10114
6968.55680,0.10178
6966.62805,0.10312
6964.69930,0.10375
6962.77056,0.10548
6960.84181,0.10703
6958.91307,0.10689
6956.98432,0.10641
6955.05558,0.10717
6953.12683,0.10789
6951.19809,0.10618
6949.26934,0.10335
6947.34060,0.10287
6945.41185,0.10462
6943.48311,0.10605
6941.55436,0.10679
6939.62562,0.10782
6937.69687,0.10824
6935.76812,0.10687
6933.83938,0.10487
6931.91063,0.10422
6929.98189,0.10407
6928.05314,0.10312
6926.12440,0.10301
6924.19565,0.10512
6922.26691,0.10757
6920.33816,0.10806
6918.40942,0.10626
6916.48067,0.10370
6914.55193,0.10171
6912.62318,0.10023
6910.69444,0.10006
6908.76569,0.10179
6906.83695,0.10297
6904.90820,0.10186
6902.97945,0.10052
6901.05071,0.10191
6899.12196,0.10522
6897.19322,0.10742
6895.26447,0.10708
6893.33573,0.10432
6891.40698,0.10172
6889.47824,0.10141
6887.54949,0.10145
6885.62075,0.10053
6883.69200,0.10128
6881.76326,0.10519
6879.83451,0.10819
6877.90577,0.10679
6875.97702,0.10385
6874.04828,0.10312
6872.11953,0.10440
6870.19078,0.10478
6868.26204,0.10301
6866.33329,0.10221
6864.40455,0.10342
6862.47580,0.10370
6860.54706,0.10363
6858.61831,0.10502
6856.68957,0.10549
6854.76082,0.10385
6852.83208,0.10218
6850.90333,0.10163
6848.97459,0.10097
6847.04584,0.10047
6845.11710,0.10206
6843.18835,0.10435
6841.25960,0.10485
6839.33086,0.10525
6837.40211,0.10709
6835.47337,0.10745
6833.54462,0.10557
6831.61588,0.10449
6829.68713,0.10451
6827.75839,0.10433
6825.82964,0.10366
6823.90090,0.10244
6821.97215,0.10224
6820.04341,0.10397
6818.11466,0.10481
6816.18592,0.10346
6814.25717,0.10217
6812.32843,0.10201
6810.39968,0.10228
6808.47093,0.10212
6806.54219,0.10159
6804.61344,0.10174
6802.68470,0.10344
6800.75595,0.10592
6798.82721,0.10698
6796.89846,0.10628
6794.96972,0.10505
6793.04097,0.10470
6791.11223,0.10578
6789.18348,0.10731
6787.25474,0.10811
6785.32599,0.10702
6783.39725,0.10450
6781.46850,0.10252
6779.53975,0.10269
6777.61101,0.10600
6775.68226,0.10987
6773.75352,0.11122
6771.82477,0.10966
6769.89603,0.10645
6767.96728,0.10457
6766.03854,0.10525
6764.10979,0.10624
6762.18105,0.10610
6760.25230,0.10619
6758.32356,0.10627
6756.39481,0.10348
6754.46607,0.09887
6752.53732,0.09736
6750.60858,0.10026
6748.67983,0.10368
6746.75108,0.10535
6744.82234,0.10614
6742.89359,0.10632
6740.96485,0.10580
6739.03610,0.10537
6737.10736,0.10622
6735.17861,0.10704
6733.24987,0.10563
6731.32112,0.10414
6729.39238,0.10378
6727.46363,0.10253
6725.53489,0.10117
6723.60614,0.10066
6721.67740,0.09956
6719.74865,0.09918
6717.81991,0.10070
6715.89116,0.10130
6713.96241,0.10095
6712.03367,0.10106
6710.10492,0.09995
6708.17618,0.09854
6706.24743,0.09894
6704.31869,0.10095
6702.38994,0.10365
6700.46120,0.10557
6698.53245,0.10642
6696.60371,0.10728
6694.67496,0.10823
6692.74622,0.10782
6690.81747,0.10601
6688.88873,0.10523
6686.95998,0.10445
6685.03123,0.10110
6683.10249,0.09857
6681.17374,0.09956
6679.24500,0.10086
6677.31625,0.10132
6675.38751,0.10261
6673.45876,0.10402
6671.53002,0.10489
6669.60127,0.10527
6667.67253,0.10395
6665.74378,0.10188
6663.81504,0.10076
6661.88629,0.10045
6659.95755,0.10164
6658.02880,0.10373
6656.10006,0.10413
6654.17131,0.10303
6652.24256,0.10186
6650.31382,0.10113
6648.38507,0.10148
6646.45633,0.10255
6644.52758,0.10276
6642.59884,0.10165
6640.67009,0.10107
6638.74135,0.10206
6636.81260,0.10205
6634.88386,0.09984
6632.95511,0.09837
6631.02637,0.09826
6629.09762,0.09750
6627.16888,0.09709
6625.24013,0.09811
6623.31139,0.09901
6621.38264,0.09931
6619.45389,0.09909
6617.52515,0.09788
6615.59640,0.09656
6613.66766,0.09664
6611.73891,0.09858
6609.81017,0.10090
6607.88142,0.10183
6605.95268,0.10102
6604.02393,0.09933
6602.09519,0.09861
6600.16644,0.09961
6598.23770,0.10079
6596.30895,0.10127
6594.38021,0.10170
6592.45146,0.10278
6590.52271,0.10396
6588.59397,0.10384
6586.66522,0.10230
6584.73648,0.10059
6582.80773,0.10002
6580.87899,0.10079
6578.95024,0.10091
6577.02150,0.10047
6575.09275,0.10172
6573.16401,0.10335
6571.23526,0.10273
6569.30652,0.10148
6567.37777,0.10234
6565.44903,0.10439
6563.52028,0.10584
6561.59154,0.10609
6559.66279,0.10452
6557.73404,0.10187
6555.80530,0.09934
6553.87655,0.09776
6551.94781,0.09865
6550.01906,0.10174
6548.09032,0.10368
6546.16157,0.10347
6544.23283,0.10367
6542.30408,0.10371
6540.37534,0.10165
6538.44659,0.09971
6536.51785,0.09966
6534.58910,0.10009
6532.66036,0.09957
6530.73161,0.09860
6528.80287,0.09822
6526.87412,0.09847
6524.94537,0.09906
6523.01663,0.09983
6521.08788,0.10095
6519.15914,0.10200
6517.23039,0.10191
6515.30165,0.10148
6513.37290,0.10233
6511.44416,0.10353
6509.51541,0.10328
6507.58667,0.10212
6505.65792,0.10115
6503.72918,0.10058
6501.80043,0.10053
6499.87169,0.10091
6497.94294,0.10114
6496.01419,0.10039
6494.08545,0.09943
6492.15670,0.09888
6490.22796,0.09715
6488.29921,0.09545
6486.37047,0.09646
6484.44172,0.09860
6482.51298,0.09995
6480.58423,0.10075
6478.65549,0.10064
6476.72674,0.09947
6474.79800,0.09814
6472.86925,0.09737
6470.94051,0.09696
6469.01176,0.09677
6467.08302,0.09760
6465.15427,0.09896
6463.22552,0.09904
6461.29678,0.09816
6459.36803,0.09820
6457.43929,0.09922
6455.51054,0.09941
6453.58180,0.09904
6451.65305,0.09920
6449.72431,0.09899
6447.79556,0.09838
6445.86682,0.09866
6443.93807,0.10042
6442.00933,0.10238
6440.08058,0.10206
6438.15184,0.09999
6436.22309,0.09856
6434.29434,0.09790
6432.36560,0.09809
6430.43685,0.09991
6428.50811,0.10199
6426.57936,0.10229
6424.65062,0.10094
6422.72187,0.09965
6420.79313,0.09954
6418.86438,0.10025
6416.93564,0.10085
6415.00689,0.10004
6413.07815,0.09881
6411.14940,0.09937
6409.22066,0.09960
6407.29191,0.09767
6405.36317,0.09625
6403.43442,0.09613
6401.50567,0.09615
6399.57693,0.09716
6397.64818,0.09858
6395.71944,0.09842
6393.79069,0.09746
6391.86195,0.09723
6389.93320,0.09810
6388.00446,0.09991
6386.07571,0.10084
6384.14697,0.09970
6382.21822,0.09795
6380.28948,0.09698
6378.36073,0.09715
6376.43199,0.09821
6374.50324,0.09869
6372.57450,0.09827
6370.64575,0.09812
6368.71700,0.09805
6366.78826,0.09787
6364.85951,0.09770
6362.93077,0.09698
6361.00202,0.09672
6359.07328,0.09780
6357.14453,0.09882
6355.21579,0.09904
6353.28704,0.09923
6351.35830,0.09932
6349.42955,0.09834
6347.50081,0.09719
6345.57206,0.09785
6343.64332,0.09922
6341.71457,0.09918
6339.78582,0.09792
6337.85708,0.09671
6335.92833,0.09642
6333.99959,0.09685
6332.07084,0.09695
6330.14210,0.09664
6328.21335,0.09674
6326.28461,0.09718
6324.35586,0.09739
6322.42712,0.09777
6320.49837,0.09908
6318.56963,0.10090
6316.64088,0.10138
6314.71214,0.10039
6312.78339,0.09960
6310.85465,0.09934
6308.92590,0.09921
6306.99715,0.09934
6305.06841,0.10002
6303.13966,0.10077
6301.21092,0.10010
6299.28217,0.09831
6297.35343,0.09742
6295.42468,0.09796
6293.49594,0.09898
6291.56719,0.09923
6289.63845,0.09843
6287.70970,0.09771
6285.78096,0.09775
6283.85221,0.09794
6281.92347,0.09822
6279.99472,0.09870
6278.06598,0.09856
6276.13723,0.09779
6274.20848,0.09691
6272.27974,0.09627
6270.35099,0.09651
6268.42225,0.09750
6266.49350,0.09872
6264.56476,0.09934
6262.63601,0.09886
6260.70727,0.09843
6258.77852,0.09770
6256.84978,0.09583
6254.92103,0.09455
6252.99229,0.09434
6251.06354,0.09418
6249.13480,0.09451
6247.20605,0.09534
6245.27730,0.09573
6243.34856,0.09604
6241.41981,0.09727
6239.49107,0.09819
6237.56232,0.09681
6235.63358,0.09441
6233.70483,0.09367
6231.77609,0.09436
6229.84734,0.09467
6227.91860,0.09453
6225.98985,0.09551
6224.06111,0.09757
6222.13236,0.09809
6220.20362,0.09641
6218.27487,0.09550
6216.34613,0.09636
6214.41738,0.09714
6212.48863,0.09705
6210.55989,0.09693
6208.63114,0.09758
6206.70240,0.09844
6204.77365,0.09787
6202.84491,0.09562
6200.91616,0.09360
6198.98742,0.09354
6197.05867,0.09539
6195.12993,0.09740
6193.20118,0.09768
6191.27244,0.09709
6189.34369,0.09743
6187.41495,0.09831
6185.48620,0.09869
6183.55746,0.09843
6181.62871,0.09814
6179.69996,0.09782
6177.77122,0.09650
6175.84247,0.09456
6173.91373,0.09336
6171.98498,0.09356
6170.05624,0.09503
6168.12749,0.09661
6166.19875,0.09715
6164.27000,0.09674
6162.34126,0.09624
6160.41251,0.09626
6158.48377,0.09647
6156.55502,0.09655
6154.62628,0.09680
6152.69753,0.09670
6150.76878,0.09602
6148.84004,0.09579
6146.91129,0.09607
6144.98255,0.09628
6143.05380,0.09641
6141.12506,0.09613
6139.19631,0.09526
6137.26757,0.09475
6135.33882,0.09514
6133.41008,0.09614
6131.48133,0.09739
6129.55259,0.09770
6127.62384,0.09637
6125.69510,0.09510
6123.76635,0.09540
6121.83761,0.09623
6119.90886,0.09601
6117.98011,0.09528
6116.05137,0.09513
6114.12262,0.09534
6112.19388,0.09518
6110.26513,0.09472
6108.33639,0.09516
6106.40764,0.09655
6104.47890,0.09705
6102.55015,0.09664
6100.62141,0.09611
6098.69266,0.09500
6096.76392,0.09428
6094.83517,0.09477
6092.90643,0.09473
6090.97768,0.09353
6089.04893,0.09330
6087.12019,0.09485
6085.19144,0.09606
6083.26270,0.09626
6081.33395,0.09587
6079.40521,0.09482
6077.47646,0.09410
6075.54772,0.09386
6073.61897,0.09375
6071.69023,0.09415
6069.76148,0.09391
6067.83274,0.09253
6065.90399,0.09209
6063.97525,0.09295
6062.04650,0.09382
6060.11776,0.09534
6058.18901,0.09706
6056.26026,0.09760
6054.33152,0.09819
6052.40277,0.09923
6050.47403,0.09867
6048.54528,0.09620
6046.61654,0.09411
6044.68779,0.09353
6042.75905,0.09360
6040.83030,0.09397
6038.90156,0.09424
6036.97281,0.09416
6035.04407,0.09412
6033.11532,0.09403
6031.18658,0.09360
6029.25783,0.09304
6027.32909,0.09373
6025.40034,0.09559
6023.47159,0.09613
6021.54285,0.09531
6019.61410,0.09508
6017.68536,0.09528
6015.75661,0.09497
6013.82787,0.09394
6011.89912,0.09247
6009.97038,0.09156
6008.04163,0.09190
6006.11289,0.09313
6004.18414,0.09402
6002.25540,0.09379
6000.32665,0.09285
5998.39791,0.09182
5996.46916,0.09135
5994.54041,0.09186
5992.61167,0.09283
5990.68292,0.09345
5988.75418,0.09331
5986.82543,0.09283
5984.89669,0.09312
5982.96794,0.09409
5981.03920,0.09387
5979.11045,0.09247
5977.18171,0.09194
5975.25296,0.09293
5973.32422,0.09447
5971.39547,0.09540
5969.46673,0.09468
5967.53798,0.09240
5965.60924,0.09034
5963.68049,0.09028
5961.75174,0.09185
5959.82300,0.09312
5957.89425,0.09360
5955.96551,0.09390
5954.03676,0.09342
5952.10802,0.09226
5950.17927,0.09146
5948.25053,0.09126
5946.32178,0.09171
5944.39304,0.09213
5942.46429,0.09184
5940.53555,0.09148
5938.60680,0.09141
5936.67806,0.09158
5934.74931,0.09190
5932.82057,0.09196
5930.89182,0.09171
5928.96307,0.09117
5927.03433,0.09037
5925.10558,0.08960
5923.17684,0.08872
5921.24809,0.08773
5919.31935,0.08742
5917.39060,0.08843
5915.46186,0.08992
5913.53311,0.08996
5911.60437,0.08865
5909.67562,0.08781
5907.74688,0.08806
5905.81813,0.08870
5903.88939,0.08850
5901.96064,0.08667
5900.03189,0.08438
5898.10315,0.08364
5896.17440,0.08398
5894.24566,0.08388
5892.31691,0.08398
5890.38817,0.08492
5888.45942,0.08547
5886.53068,0.08468
5884.60193,0.08314
5882.67319,0.08214
5880.74444,0.08250
5878.81570,0.08341
5876.88695,0.08319
5874.95821,0.08218
5873.02946,0.08131
5871.10072,0.08013
5869.17197,0.07877
5867.24322,0.07805
5865.31448,0.07800
5863.38573,0.07819
5861.45699,0.07826
5859.52824,0.07823
5857.59950,0.07832
5855.67075,0.07855
5853.74201,0.07816
5851.81326,0.07695
5849.88452,0.07607
5847.95577,0.07556
5846.02703,0.07486
5844.09828,0.07477
5842.16954,0.07542
5840.24079,0.07583
5838.31205,0.07553
5836.38330,0.07461
5834.45455,0.07393
5832.52581,0.07435
5830.59706,0.07500
5828.66832,0.07487
5826.73957,0.07424
5824.81083,0.07353
5822.88208,0.07283
5820.95334,0.07250
5819.02459,0.07295
5817.09585,0.07381
5815.16710,0.07466
5813.23836,0.07530
5811.30961,0.07496
5809.38087,0.07396
5807.45212,0.07375
5805.52337,0.07451
5803.59463,0.07552
5801.66588,0.07607
5799.73714,0.07589
5797.80839,0.07571
5795.87965,0.07619
5793.95090,0.07702
5792.02216,0.07763
5790.09341,0.07811
5788.16467,0.07873
5786.23592,0.07936
5784.30718,0.07953
5782.37843,0.07927
5780.44969,0.07950
5778.52094,0.08008
5776.59220,0.08006
5774.66345,0.08013
5772.73470,0.08067
5770.80596,0.08095
5768.87721,0.08111
5766.94847,0.08128
5765.01972,0.08105
5763.09098,0.08047
5761.16223,0.08027
5759.23349,0.08063
5757.30474,0.08063
5755.37600,0.07998
5753.44725,0.07939
5751.51851,0.07915
5749.58976,0.07894
5747.66102,0.07869
5745.73227,0.07909
5743.80352,0.07965
5741.87478,0.07882
5739.94603,0.07746
5738.01729,0.07771
5736.08854,0.07915
5734.15980,0.07986
5732.23105,0.07919
5730.30231,0.07775
5728.37356,0.07741
5726.44482,0.07889
5724.51607,0.08025
5722.58733,0.08027
5720.65858,0.07985
5718.72984,0.07954
5716.80109,0.07905
5714.87235,0.07851
5712.94360,0.07828
5711.01485,0.07855
5709.08611,0.07940
5707.15736,0.08025
5705.22862,0.08038
5703.29987,0.07958
5701.37113,0.07865
5699.44238,0.07902
5697.51364,0.08041
5695.58489,0.08139
5693.65615,0.08176
5691.72740,0.08201
5689.79866,0.08192
5687.86991,0.08118
5685.94117,0.08024
5684.01242,0.07973
5682.08368,0.08002
5680.15493,0.08047
5678.22618,0.08032
5676.29744,0.08025
5674.36869,0.08092
5672.43995,0.08180
5670.51120,0.08239
5668.58246,0.08277
5666.65371,0.08293
5664.72497,0.08228
5662.79622,0.08069
5660.86748,0.07935
5658.93873,0.07940
5657.00999,0.08009
5655.08124,0.07994
5653.15250,0.07925
5651.22375,0.07920
5649.29500,0.07990
5647.36626,0.08117
5645.43751,0.08267
5643.50877,0.08330
5641.58002,0.08270
5639.65128,0.08204
5637.72253,0.08242
5635.79379,0.08295
5633.86504,0.08218
5631.93630,0.08117
5630.00755,0.08121
5628.07881,0.08174
5626.15006,0.08275
5624.22132,0.08399
5622.29257,0.08410
5620.36383,0.08318
5618.43508,0.08256
5616.50633,0.08241
5614.57759,0.08224
5612.64884,0.08218
5610.72010,0.08240
5608.79135,0.08282
5606.86261,0.08304
5604.93386,0.08235
5603.00512,0.08162
5601.07637,0.08223
5599.14763,0.08292
5597.21888,0.08221
5595.29014,0.08148
5593.36139,0.08207
5591.43265,0.08302
5589.50390,0.08342
5587.57516,0.08341
5585.64641,0.08344
5583.71766,0.08365
5581.78892,0.08375
5579.86017,0.08358
5577.93143,0.08328
5576.00268,0.08280
5574.07394,0.08231
5572.14519,0.08231
5570.21645,0.08287
5568.28770,0.08380
5566.35896,0.08486
5564.43021,0.08559
5562.50147,0.08579
5560.57272,0.08547
5558.64398,0.08507
5556.71523,0.08511
5554.78648,0.08511
5552.85774,0.08487
5550.92899,0.08467
5549.00025,0.08451
5547.07150,0.08465
5545.14276,0.08491
5543.21401,0.08500
5541.28527,0.08514
5539.35652,0.08526
5537.42778,0.08493
5535.49903,0.08417
5533.57029,0.08376
5531.64154,0.08410
5529.71280,0.08439
5527.78405,0.08419
5525.85531,0.08397
5523.92656,0.08373
5521.99781,0.08356
5520.06907,0.08416
5518.14032,0.08511
5516.21158,0.08502
5514.28283,0.08377
5512.35409,0.08278
5510.42534,0.08258
5508.49660,0.08275
5506.56785,0.08318
5504.63911,0.08337
5502.71036,0.08284
5500.78162,0.08206
5498.85287,0.08163
5496.92413,0.08144
5494.99538,0.08150
5493.06664,0.08215
5491.13789,0.08291
5489.20914,0.08301
5487.28040,0.08262
5485.35165,0.08231
5483.42291,0.08227
5481.49416,0.08230
5479.56542,0.08211
5477.63667,0.08185
5475.70793,0.08184
5473.77918,0.08182
5471.85044,0.08183
5469.92169,0.08214
5467.99295,0.08249
5466.06420,0.08280
5464.13546,0.08297
5462.20671,0.08292
5460.27796,0.08313
5458.34922,0.08370
5456.42047,0.08413
5454.49173,0.08384
5452.56298,0.08317
5450.63424,0.08317
5448.70549,0.08339
5446.77675,0.08305
5444.84800,0.08295
5442.91926,0.08341
5440.99051,0.08357
5439.06177,0.08346
5437.13302,0.08358
5435.20428,0.08417
5433.27553,0.08470
5431.34679,0.08423
5429.41804,0.08339
5427.48929,0.08309
5425.56055,0.08265
5423.63180,0.08219
5421.70306,0.08240
5419.77431,0.08287
5417.84557,0.08298
5415.91682,0.08278
5413.98808,0.08240
5412.05933,0.08199
5410.13059,0.08204
5408.20184,0.08243
5406.27310,0.08247
5404.34435,0.08248
5402.41561,0.08319
5400.48686,0.08376
5398.55811,0.08357
5396.62937,0.08416
5394.70062,0.08563
5392.77188,0.08611
5390.84313,0.08528
5388.91439,0.08408
5386.98564,0.08335
5385.05690,0.08347
5383.12815,0.08329
5381.19941,0.08199
5379.27066,0.08115
5377.34192,0.08204
5375.41317,0.08345
5373.48443,0.08397
5371.55568,0.08385
5369.62694,0.08363
5367.69819,0.08377
5365.76944,0.08441
5363.84070,0.08449
5361.91195,0.08377
5359.98321,0.08355
5358.05446,0.08409
5356.12572,0.08444
5354.19697,0.08422
5352.26823,0.08362
5350.33948,0.08313
5348.41074,0.08361
5346.48199,0.08491
5344.55325,0.08532
5342.62450,0.08424
5340.69576,0.08294
5338.76701,0.08230
5336.83827,0.08238
5334.90952,0.08307
5332.98077,0.08409
5331.05203,0.08492
5329.12328,0.08526
5327.19454,0.08498
5325.26579,0.08440
5323.33705,0.08435
5321.40830,0.08486
5319.47956,0.08495
5317.55081,0.08442
5315.62207,0.08402
5313.69332,0.08389
5311.76458,0.08391
5309.83583,0.08434
5307.90709,0.08468
5305.97834,0.08430
5304.04959,0.08394
5302.12085,0.08440
5300.19210,0.08491
5298.26336,0.08475
5296.33461,0.08436
5294.40587,0.08451
5292.47712,0.08530
5290.54838,0.08584
5288.61963,0.08557
5286.69089,0.08501
5284.76214,0.08485
5282.83340,0.08483
5280.90465,0.08432
5278.97591,0.08381
5277.04716,0.08376
5275.11842,0.08356
5273.18967,0.08330
5271.26092,0.08361
5269.33218,0.08372
5267.40343,0.08302
5265.47469,0.08246
5263.54594,0.08257
5261.61720,0.08302
5259.68845,0.08335
5257.75971,0.08350
5255.83096,0.08373
5253.90222,0.08383
5251.97347,0.08362
5250.04473,0.08355
5248.11598,0.08355
5246.18724,0.08313
5244.25849,0.08249
5242.32975,0.08224
5240.40100,0.08277
5238.47225,0.08373
5236.54351,0.08406
5234.61476,0.08360
5232.68602,0.08302
5230.75727,0.08256
5228.82853,0.08251
5226.89978,0.08272
5224.97104,0.08274
5223.04229,0.08301
5221.11355,0.08328
5219.18480,0.08270
5217.25606,0.08209
5215.32731,0.08249
5213.39857,0.08310
5211.46982,0.08320
5209.54107,0.08297
5207.61233,0.08264
5205.68358,0.08276
5203.75484,0.08332
5201.82609,0.08358
5199.89735,0.08359
5197.96860,0.08355
5196.03986,0.08315
5194.11111,0.08273
5192.18237,0.08298
5190.25362,0.08325
5188.32488,0.08306
5186.39613,0.08309
5184.46739,0.08341
5182.53864,0.08369
5180.60990,0.08408
5178.68115,0.08425
5176.75240,0.08366
5174.82366,0.08269
5172.89491,0.08230
5170.96617,0.08254
5169.03742,0.08293
5167.10868,0.08318
5165.17993,0.08285
5163.25119,0.08236
5161.32244,0.08248
5159.39370,0.08305
5157.46495,0.08355
5155.53621,0.08345
5153.60746,0.08291
5151.67872,0.08269
5149.74997,0.08261
5147.82123,0.08232
5145.89248,0.08226
5143.96373,0.08255
5142.03499,0.08264
5140.10624,0.08224
5138.17750,0.08202
5136.24875,0.08230
5134.32001,0.08265
5132.39126,0.08282
5130.46252,0.08294
5128.53377,0.08320
5126.60503,0.08336
5124.67628,0.08292
5122.74754,0.08259
5120.81879,0.08317
5118.89005,0.08386
5116.96130,0.08368
5115.03255,0.08307
5113.10381,0.08302
5111.17506,0.08338
5109.24632,0.08342
5107.31757,0.08340
5105.38883,0.08346
5103.46008,0.08334
5101.53134,0.08331
5099.60259,0.08352
5097.67385,0.08354
5095.74510,0.08304
5093.81636,0.08239
5091.88761,0.08216
5089.95887,0.08218
5088.03012,0.08203
5086.10138,0.08168
5084.17263,0.08143
5082.24388,0.08161
5080.31514,0.08208
5078.38639,0.08254
5076.45765,0.08282
5074.52890,0.08297
5072.60016,0.08329
5070.67141,0.08343
5068.74267,0.08286
5066.81392,0.08230
5064.88518,0.08252
5062.95643,0.08294
5061.02769,0.08298
5059.09894,0.08280
5057.17020,0.08252
5055.24145,0.08205
5053.31270,0.08157
5051.38396,0.08155
5049.45521,0.08215
5047.52647,0.08302
5045.59772,0.08337
5043.66898,0.08266
5041.74023,0.08165
5039.81149,0.08161
5037.88274,0.08239
5035.95400,0.08260
5034.02525,0.08210
5032.09651,0.08208
5030.16776,0.08266
5028.23902,0.08292
5026.31027,0.08250
5024.38153,0.08200
5022.45278,0.08210
5020.52403,0.08246
5018.59529,0.08264
5016.66654,0.08275
5014.73780,0.08293
5012.80905,0.08298
5010.88031,0.08270
5008.95156,0.08217
5007.02282,0.08175
5005.09407,0.08158
5003.16533,0.08146
5001.23658,0.08152
4999.30784,0.08182
4997.37909,0.08175
4995.45035,0.08136
4993.52160,0.08140
4991.59286,0.08180
4989.66411,0.08234
4987.73536,0.08316
4985.80662,0.08360
4983.87787,0.08326
4981.94913,0.08270
4980.02038,0.08230
4978.09164,0.08221
4976.16289,0.08229
4974.23415,0.08216
4972.30540,0.08183
4970.37666,0.08186
4968.44791,0.08257
4966.51917,0.08311
4964.59042,0.08269
4962.66168,0.08194
4960.73293,0.08178
4958.80418,0.08196
4956.87544,0.08185
4954.94669,0.08171
4953.01795,0.08178
4951.08920,0.08187
4949.16046,0.08186
4947.23171,0.08166
4945.30297,0.08146
4943.37422,0.08145
4941.44548,0.08126
4939.51673,0.08078
4937.58799,0.08062
4935.65924,0.08102
4933.73050,0.08152
4931.80175,0.08188
4929.87301,0.08185
4927.94426,0.08143
4926.01551,0.08114
4924.08677,0.08110
4922.15802,0.08109
4920.22928,0.08108
4918.30053,0.08103
4916.37179,0.08114
4914.44304,0.08156
4912.51430,0.08164
4910.58555,0.08125
4908.65681,0.08116
4906.72806,0.08140
4904.79932,0.08164
4902.87057,0.08191
4900.94183,0.08205
4899.01308,0.08208
4897.08434,0.08208
4895.15559,0.08166
4893.22684,0.08098
4891.29810,0.08079
4889.36935,0.08106
4887.44061,0.08123
4885.51186,0.08134
4883.58312,0.08158
4881.65437,0.08166
4879.72563,0.08149
4877.79688,0.08131
4875.86814,0.08117
4873.93939,0.08095
4872.01065,0.08082
4870.08190,0.08070
4868.15316,0.08026
4866.22441,0.07994
4864.29566,0.08022
4862.36692,0.08071
4860.43817,0.08119
4858.50943,0.08158
4856.58068,0.08165
4854.65194,0.08137
4852.72319,0.08089
4850.79445,0.08054
4848.86570,0.08033
4846.93696,0.07989
4845.00821,0.07948
4843.07947,0.07961
4841.15072,0.07993
4839.22198,0.08006
4837.29323,0.08057
4835.36449,0.08126
4833.43574,0.08114
4831.50699,0.08055
4829.57825,0.08037
4827.64950,0.08066
4825.72076,0.08100
4823.79201,0.08100
4821.86327,0.08066
4819.93452,0.08046
4818.00578,0.08070
4816.07703,0.08119
4814.14829,0.08140
4812.21954,0.08093
4810.29080,0.08043
4808.36205,0.08033
4806.43331,0.08028
4804.50456,0.08048
4802.57582,0.08093
4800.64707,0.08093
4798.71832,0.08055
4796.78958,0.08048
4794.86083,0.08065
4792.93209,0.08057
4791.00334,0.08038
4789.07460,0.08048
4787.14585,0.08086
4785.21711,0.08121
4783.28836,0.08113
4781.35962,0.08067
4779.43087,0.08048
4777.50213,0.08064
4775.57338,0.08064
4773.64464,0.08045
4771.71589,0.08016
4769.78714,0.08004
4767.85840,0.08033
4765.92965,0.08071
4764.00091,0.08076
4762.07216,0.08028
4760.14342,0.07978
4758.21467,0.08001
4756.28593,0.08036
4754.35718,0.08007
4752.42844,0.07975
4750.49969,0.07980
4748.57095,0.07958
4746.64220,0.07905
4744.71346,0.07896
4742.78471,0.07950
4740.85597,0.07995
4738.92722,0.07988
4736.99847,0.07967
4735.06973,0.07955
4733.14098,0.07955
4731.21224,0.07989
4729.28349,0.08022
4727.35475,0.08004
4725.42600,0.07959
4723.49726,0.07913
4721.56851,0.07892
4719.63977,0.07906
4717.71102,0.07936
4715.78228,0.07974
4713.85353,0.07991
4711.92479,0.07978
4709.99604,0.07992
4708.06729,0.08023
4706.13855,0.08001
4704.20980,0.07948
4702.28106,0.07923
4700.35231,0.07931
4698.42357,0.07965
4696.49482,0.07998
4694.56608,0.08007
4692.63733,0.08005
4690.70859,0.08012
4688.77984,0.08022
4686.85110,0.08004
4684.92235,0.07960
4682.99361,0.07926
4681.06486,0.07919
4679.13612,0.07928
4677.20737,0.07932
4675.27862,0.07927
4673.34988,0.07923
4671.42113,0.07900
4669.49239,0.07863
4667.56364,0.07860
4665.63490,0.07895
4663.70615,0.07918
4661.77741,0.07915
4659.84866,0.07905
4657.91992,0.07898
4655.99117,0.07893
4654.06243,0.07882
4652.13368,0.07884
4650.20494,0.07917
4648.27619,0.07942
4646.34745,0.07915
4644.41870,0.07849
4642.48995,0.07803
4640.56121,0.07804
4638.63246,0.07825
4636.70372,0.07842
4634.77497,0.07859
4632.84623,0.07881
4630.91748,0.07874
4628.98874,0.07844
4627.05999,0.07855
4625.13125,0.07891
4623.20250,0.07895
4621.27376,0.07882
4619.34501,0.07853
4617.41627,0.07809
4615.48752,0.07810
4613.55877,0.07858
4611.63003,0.07888
4609.70128,0.07889
4607.77254,0.07889
4605.84379,0.07884
4603.91505,0.07861
4601.98630,0.07851
4600.05756,0.07863
4598.12881,0.07861
4596.20007,0.07852
4594.27132,0.07844
4592.34258,0.07834
4590.41383,0.07843
4588.48509,0.07842
4586.55634,0.07810
4584.62760,0.07819
4582.69885,0.07867
4580.77010,0.07884
4578.84136,0.07888
4576.91261,0.07882
4574.98387,0.07831
4573.05512,0.07768
4571.12638,0.07748
4569.19763,0.07782
4567.26889,0.07826
4565.34014,0.07823
4563.41140,0.07785
4561.48265,0.07764
4559.55391,0.07765
4557.62516,0.07755
4555.69642,0.07745
4553.76767,0.07748
4551.83893,0.07761
4549.91018,0.07785
4547.98143,0.07819
4546.05269,0.07849
4544.12394,0.07871
4542.19520,0.07878
4540.26645,0.07855
4538.33771,0.07811
4536.40896,0.07771
4534.48022,0.07739
4532.55147,0.07696
4530.62273,0.07649
4528.69398,0.07636
4526.76524,0.07655
4524.83649,0.07679
4522.90775,0.07704
4520.97900,0.07720
4519.05025,0.07719
4517.12151,0.07715
4515.19276,0.07696
4513.26402,0.07666
4511.33527,0.07661
4509.40653,0.07675
4507.47778,0.07691
4505.54904,0.07703
4503.62029,0.07671
4501.69155,0.07592
4499.76280,0.07527
4497.83406,0.07507
4495.90531,0.07511
4493.97657,0.07523
4492.04782,0.07540
4490.11908,0.07535
4488.19033,0.07504
4486.26158,0.07482
4484.33284,0.07483
4482.40409,0.07471
4480.47535,0.07434
4478.54660,0.07409
4476.61786,0.07417
4474.68911,0.07432
4472.76037,0.07447
4470.83162,0.07459
4468.90288,0.07437
4466.97413,0.07392
4465.04539,0.07375
4463.11664,0.07379
4461.18790,0.07368
4459.25915,0.07335
4457.33041,0.07304
4455.40166,0.07285
4453.47291,0.07280
4451.54417,0.07271
4449.61542,0.07231
4447.68668,0.07193
4445.75793,0.07195
4443.82919,0.07190
4441.90044,0.07156
4439.97170,0.07127
4438.04295,0.07107
4436.11421,0.07083
4434.18546,0.07066
4432.25672,0.07052
4430.32797,0.07012
4428.39923,0.06954
4426.47048,0.06922
4424.54173,0.06927
4422.61299,0.06947
4420.68424,0.06947
4418.75550,0.06920
4416.82675,0.06904
4414.89801,0.06902
4412.96926,0.06878
4411.04052,0.06841
4409.11177,0.06832
4407.18303,0.06841
4405.25428,0.06821
4403.32554,0.06787
4401.39679,0.06781
4399.46805,0.06771
4397.53930,0.06726
4395.61056,0.06679
4393.68181,0.06647
4391.75306,0.06605
4389.82432,0.06560
4387.89557,0.06552
4385.96683,0.06565
4384.03808,0.06535
4382.10934,0.06448
4380.18059,0.06368
4378.25185,0.06335
4376.32310,0.06316
4374.39436,0.06302
4372.46561,0.06300
4370.53687,0.06282
4368.60812,0.06257
4366.67938,0.06249
4364.75063,0.06240
4362.82189,0.06212
4360.89314,0.06171
4358.96439,0.06128
4357.03565,0.06091
4355.10690,0.06081
4353.17816,0.06126
4351.24941,0.06198
4349.32067,0.06228
4347.39192,0.06197
4345.46318,0.06146
4343.53443,0.06110
4341.60569,0.06086
4339.67694,0.06054
4337.74820,0.06036
4335.81945,0.06053
4333.89071,0.06080
4331.96196,0.06081
4330.03321,0.06049
4328.10447,0.06019
4326.17572,0.06013
4324.24698,0.06014
4322.31823,0.06018
4320.38949,0.06030
4318.46074,0.06046
4316.53200,0.06079
4314.60325,0.06115
4312.67451,0.06119
4310.74576,0.06090
4308.81702,0.06080
4306.88827,0.06117
4304.95953,0.06168
4303.03078,0.06202
4301.10204,0.06208
4299.17329,0.06179
4297.24454,0.06134
4295.31580,0.06118
4293.38705,0.06156
4291.45831,0.06200
4289.52956,0.06206
4287.60082,0.06192
4285.67207,0.06185
4283.74333,0.06193
4281.81458,0.06213
4279.88584,0.06231
4277.95709,0.06244
4276.02835,0.06248
4274.09960,0.06217
4272.17086,0.06171
4270.24211,0.06163
4268.31336,0.06182
4266.38462,0.06195
4264.45587,0.06214
4262.52713,0.06243
4260.59838,0.06245
4258.66964,0.06201
4256.74089,0.06154
4254.81215,0.06138
4252.88340,0.06144
4250.95466,0.06170
4249.02591,0.06195
4247.09717,0.06201
4245.16842,0.06201
4243.23968,0.06185
4241.31093,0.06149
4239.38219,0.06116
4237.45344,0.06108
4235.52469,0.06132
4233.59595,0.06164
4231.66720,0.06159
4229.73846,0.06126
4227.80971,0.06120
4225.88097,0.06161
4223.95222,0.06196
4222.02348,0.06190
4220.09473,0.06170
4218.16599,0.06146
4216.23724,0.06107
4214.30850,0.06078
4212.37975,0.06077
4210.45101,0.06088
4208.52226,0.06100
4206.59352,0.06098
4204.66477,0.06065
4202.73602,0.06038
4200.80728,0.06045
4198.87853,0.06068
4196.94979,0.06095
4195.02104,0.06122
4193.09230,0.06155
4191.16355,0.06191
4189.23481,0.06196
4187.30606,0.06166
4185.37732,0.06142
4183.44857,0.06158
4181.51983,0.06194
4179.59108,0.06220
4177.66234,0.06231
4175.73359,0.06209
4173.80484,0.06167
4171.87610,0.06143
4169.94735,0.06149
4168.01861,0.06179
4166.08986,0.06193
4164.16112,0.06171
4162.23237,0.06154
4160.30363,0.06171
4158.37488,0.06193
4156.44614,0.06193
4154.51739,0.06202
4152.58865,0.06232
4150.65990,0.06243
4148.73116,0.06230
4146.80241,0.06228
4144.87367,0.06241
4142.94492,0.06239
4141.01617,0.06226
4139.08743,0.06225
4137.15868,0.06232
4135.22994,0.06244
4133.30119,0.06265
4131.37245,0.06284
4129.44370,0.06305
4127.51496,0.06346
4125.58621,0.06387
4123.65747,0.06378
4121.72872,0.06311
4119.79998,0.06252
4117.87123,0.06250
4115.94249,0.06268
4114.01374,0.06277
4112.08500,0.06295
4110.15625,0.06317
4108.22750,0.06316
4106.29876,0.06283
4104.37001,0.06258
4102.44127,0.06260
4100.51252,0.06269
4098.58378,0.06285
4096.65503,0.06304
4094.72629,0.06307
4092.79754,0.06292
4090.86880,0.06283
4088.94005,0.06289
4087.01131,0.06286
4085.08256,0.06266
4083.15382,0.06254
4081.22507,0.06253
4079.29632,0.06256
4077.36758,0.06261
4075.43883,0.06262
4073.51009,0.06274
4071.58134,0.06296
4069.65260,0.06297
4067.72385,0.06291
4065.79511,0.06306
4063.86636,0.06314
4061.93762,0.06305
4060.00887,0.06305
4058.08013,0.06326
4056.15138,0.06348
4054.22264,0.06346
4052.29389,0.06322
4050.36515,0.06310
4048.43640,0.06331
4046.50765,0.06354
4044.57891,0.06346
4042.65016,0.06327
4040.72142,0.06321
4038.79267,0.06320
4036.86393,0.06318
4034.93518,0.06317
4033.00644,0.06318
4031.07769,0.06333
4029.14895,0.06347
4027.22020,0.06334
4025.29146,0.06325
4023.36271,0.06342
4021.43397,0.06357
4019.50522,0.06343
4017.57648,0.06315
4015.64773,0.06305
4013.71898,0.06316
4011.79024,0.06338
4009.86149,0.06368
4007.93275,0.06377
4006.00400,0.06348
4004.07526,0.06314
4002.14651,0.06301
4000.21777,0.06315
3998.28902,0.06337
3996.36028,0.06341
3994.43153,0.06328
3992.50279,0.06316
3990.57404,0.06328
3988.64530,0.06365
3986.71655,0.06396
3984.78780,0.06408
3982.85906,0.06415
3980.93031,0.06398
3979.00157,0.06371
3977.07282,0.06381
3975.14408,0.06423
3973.21533,0.06461
3971.28659,0.06463
3969.35784,0.06436
3967.42910,0.06430
3965.50035,0.06445
3963.57161,0.06445
3961.64286,0.06435
3959.71412,0.06443
3957.78537,0.06452
3955.85663,0.06422
3953.92788,0.06395
3951.99913,0.06434
3950.07039,0.06493
3948.14164,0.06505
3946.21290,0.06484
3944.28415,0.06460
3942.35541,0.06437
3940.42666,0.06440
3938.49792,0.06474
3936.56917,0.06501
3934.64043,0.06494
3932.71168,0.06476
3930.78294,0.06480
3928.85419,0.06494
3926.92545,0.06483
3924.99670,0.06465
3923.06795,0.06471
3921.13921,0.06473
3919.21046,0.06461
3917.28172,0.06444
3915.35297,0.06424
3913.42423,0.06426
3911.49548,0.06438
3909.56674,0.06439
3907.63799,0.06430
3905.70925,0.06419
3903.78050,0.06413
3901.85176,0.06398
3899.92301,0.06390
3897.99427,0.06420
3896.06552,0.06466
3894.13678,0.06499
3892.20803,0.06505
3890.27928,0.06483
3888.35054,0.06466
3886.42179,0.06465
3884.49305,0.06456
3882.56430,0.06447
3880.63556,0.06453
3878.70681,0.06450
3876.77807,0.06434
3874.84932,0.06429
3872.92058,0.06432
3870.99183,0.06412
3869.06309,0.06387
3867.13434,0.06414
3865.20560,0.06463
3863.27685,0.06474
3861.34811,0.06454
3859.41936,0.06434
3857.49061,0.06436
3855.56187,0.06459
3853.63312,0.06474
3851.70438,0.06474
3849.77563,0.06477
3847.84689,0.06471
3845.91814,0.06433
3843.98940,0.06389
3842.06065,0.06402
3840.13191,0.06449
3838.20316,0.06455
3836.27442,0.06433
3834.34567,0.06431
3832.41693,0.06434
3830.48818,0.06418
3828.55943,0.06418
3826.63069,0.06452
3824.70194,0.06476
3822.77320,0.06467
3820.84445,0.06452
3818.91571,0.06452
3816.98696,0.06443
3815.05822,0.06426
3813.12947,0.06422
3811.20073,0.06420
3809.27198,0.06431
3807.34324,0.06457
3805.41449,0.06472
3803.48575,0.06474
3801.55700,0.06457
3799.62826,0.06425
3797.69951,0.06418
3795.77076,0.06439
3793.84202,0.06459
3791.91327,0.06459
3789.98453,0.06445
3788.05578,0.06432
3786.12704,0.06446
3784.19829,0.06474
3782.26955,0.06478
3780.34080,0.06458
3778.41206,0.06434
3776.48331,0.06411
3774.55457,0.06395
3772.62582,0.06403
3770.69708,0.06422
3768.76833,0.06430
3766.83959,0.06439
3764.91084,0.06468
3762.98209,0.06506
3761.05335,0.06524
3759.12460,0.06515
3757.19586,0.06494
3755.26711,0.06471
3753.33837,0.06461
3751.40962,0.06480
3749.48088,0.06503
3747.55213,0.06506
3745.62339,0.06496
3743.69464,0.06492
3741.76590,0.06507
3739.83715,0.06523
3737.90841,0.06520
3735.97966,0.06513
3734.05091,0.06511
3732.12217,0.06507
3730.19342,0.06523
3728.26468,0.06557
3726.33593,0.06571
3724.40719,0.06558
3722.47844,0.06554
3720.54970,0.06572
3718.62095,0.06575
3716.69221,0.06535
3714.76346,0.06476
3712.83472,0.06442
3710.90597,0.06458
3708.97723,0.06484
3707.04848,0.06479
3705.11974,0.06472
3703.19099,0.06482
3701.26224,0.06484
3699.33350,0.06458
3697.40475,0.06400
3695.47601,0.06348
3693.54726,0.06342
3691.61852,0.06354
3689.68977,0.06334
3687.76103,0.06270
3685.83228,0.06206
3683.90354,0.06167
3681.97479,0.06145
3680.04605,0.06144
3678.11730,0.06158
3676.18856,0.06158
3674.25981,0.06145
3672.33107,0.06126
3670.40232,0.06103
3668.47357,0.06095
3666.54483,0.06117
3664.61608,0.06141
3662.68734,0.06121
3660.75859,0.06082
3658.82985,0.06072
3656.90110,0.06091
3654.97236,0.06118
3653.04361,0.06140
3651.11487,0.06160
3649.18612,0.06176
3647.25738,0.06178
3645.32863,0.06177
3643.39989,0.06192
3641.47114,0.06214
3639.54239,0.06220
3637.61365,0.06212
3635.68490,0.06208
3633.75616,0.06207
3631.82741,0.06204
3629.89867,0.06188
3627.96992,0.06150
3626.04118,0.06128
3624.11243,0.06147
3622.18369,0.06180
3620.25494,0.06183
3618.32620,0.06146
3616.39745,0.06107
3614.46871,0.06089
3612.53996,0.06079
3610.61122,0.06068
3608.68247,0.06059
3606.75372,0.06041
3604.82498,0.06018
3602.89623,0.06016
3600.96749,0.06049
3599.03874,0.06083
3597.11000,0.06081
3595.18125,0.06049
3593.25251,0.06021
3591.32376,0.06002
3589.39502,0.05992
3587.46627,0.06002
3585.53753,0.06021
3583.60878,0.06043
3581.68004,0.06068
3579.75129,0.06089
3577.82254,0.06102
3575.89380,0.06090
3573.96505,0.06044
3572.03631,0.06014
3570.10756,0.06027
3568.17882,0.06057
3566.25007,0.06077
3564.32133,0.06076
3562.39258,0.06070
3560.46384,0.06066
3558.53509,0.06041
3556.60635,0.06003
3554.67760,0.05975
3552.74886,0.05965
3550.82011,0.05975
3548.89137,0.05993
3546.96262,0.05996
3545.03387,0.05995
3543.10513,0.06001
3541.17638,0.06006
3539.24764,0.06005
3537.31889,0.05999
3535.39015,0.05993
3533.46140,0.05984
3531.53266,0.05963
3529.60391,0.05951
3527.67517,0.05969
3525.74642,0.06001
3523.81768,0.06013
3521.88893,0.06010
3519.96019,0.06007
3518.03144,0.05989
3516.10270,0.05956
3514.17395,0.05949
3512.24520,0.05964
3510.31646,0.05970
3508.38771,0.05986
3506.45897,0.06014
3504.53022,0.06020
3502.60148,0.06006
3500.67273,0.05984
3498.74399,0.05954
3496.81524,0.05944
3494.88650,0.05959
3492.95775,0.05965
3491.02901,0.05966
3489.10026,0.05967
3487.17152,0.05944
3485.24277,0.05927
3483.31402,0.05933
3481.38528,0.05918
3479.45653,0.05884
3477.52779,0.05874
3475.59904,0.05890
3473.67030,0.05904
3471.74155,0.05913
3469.81281,0.05920
3467.88406,0.05912
3465.95532,0.05893
3464.02657,0.05899
3462.09783,0.05939
3460.16908,0.05963
3458.24034,0.05943
3456.31159,0.05918
3454.38285,0.05927
3452.45410,0.05940
3450.52535,0.05922
3448.59661,0.05887
3446.66786,0.05867
3444.73912,0.05869
3442.81037,0.05888
3440.88163,0.05913
3438.95288,0.05923
3437.02414,0.05922
3435.09539,0.05923
3433.16665,0.05924
3431.23790,0.05923
3429.30916,0.05912
3427.38041,0.05889
3425.45167,0.05868
3423.52292,0.05861
3421.59418,0.05878
3419.66543,0.05921
3417.73668,0.05945
3415.80794,0.05912
3413.87919,0.05868
3411.95045,0.05857
3410.02170,0.05862
3408.09296,0.05863
3406.16421,0.05862
3404.23547,0.05871
3402.30672,0.05900
3400.37798,0.05917
3398.44923,0.05917
3396.52049,0.05925
3394.59174,0.05919
3392.66300,0.05895
3390.73425,0.05881
3388.80550,0.05886
3386.87676,0.05893
3384.94801,0.05890
3383.01927,0.05866
3381.09052,0.05826
3379.16178,0.05799
3377.23303,0.05808
3375.30429,0.05854
3373.37554,0.05892
3371.44680,0.05895
3369.51805,0.05916
3367.58931,0.05947
3365.66056,0.05908
3363.73182,0.05835
3361.80307,0.05812
3359.87433,0.05836
3357.94558,0.05882
3356.01683,0.05910
3354.08809,0.05903
3352.15934,0.05895
3350.23060,0.05858
3348.30185,0.05796
3346.37311,0.05788
3344.44436,0.05816
3342.51562,0.05803
3340.58687,0.05768
3338.65813,0.05770
3336.72938,0.05777
3334.80064,0.05755
3332.87189,0.05767
3330.94315,0.05829
3329.01440,0.05881
3327.08566,0.05899
3325.15691,0.05896
3323.22816,0.05884
3321.29942,0.05859
3319.37067,0.05822
3317.44193,0.05790
3315.51318,0.05783
3313.58444,0.05797
3311.65569,0.05832
3309.72695,0.05877
3307.79820,0.05897
3305.86946,0.05874
3303.94071,0.05838
3302.01197,0.05842
3300.08322,0.05887
3298.15448,0.05903
3296.22573,0.05863
3294.29698,0.05820
3292.36824,0.05823
3290.43949,0.05855
3288.51075,0.05861
3286.58200,0.05832
3284.65326,0.05813
3282.72451,0.05807
3280.79577,0.05789
3278.86702,0.05796
3276.93828,0.05849
3275.00953,0.05884
3273.08079,0.05857
3271.15204,0.05817
3269.22330,0.05829
3267.29455,0.05856
3265.36581,0.05846
3263.43706,0.05829
3261.50831,0.05840
3259.57957,0.05879
3257.65082,0.05921
3255.72208,0.05941
3253.79333,0.05942
3251.86459,0.05923
3249.93584,0.05870
3248.00710,0.05817
3246.07835,0.05797
3244.14961,0.05795
3242.22086,0.05796
3240.29212,0.05802
3238.36337,0.05807
3236.43463,0.05813
3234.50588,0.05795
3232.57713,0.05736
3230.64839,0.05716
3228.71964,0.05785
3226.79090,0.05843
3224.86215,0.05820
3222.93341,0.05793
3221.00466,0.05831
3219.07592,0.05886
3217.14717,0.05864
3215.21843,0.05785
3213.28968,0.05789
3211.36094,0.05890
3209.43219,0.05958
3207.50345,0.05944
3205.57470,0.05903
3203.64596,0.05881
3201.71721,0.05864
3199.78846,0.05829
3197.85972,0.05791
3195.93097,0.05777
3194.00223,0.05804
3192.07348,0.05843
3190.14474,0.05852
3188.21599,0.05837
3186.28725,0.05840
3184.35850,0.05882
3182.42976,0.05935
3180.50101,0.05956
3178.57227,0.05956
3176.64352,0.05951
3174.71478,0.05920
3172.78603,0.05873
3170.85729,0.05827
3168.92854,0.05786
3166.99979,0.05775
3165.07105,0.05790
3163.14230,0.05804
3161.21356,0.05822
3159.28481,0.05827
3157.35607,0.05787
3155.42732,0.05744
3153.49858,0.05747
3151.56983,0.05790
3149.64109,0.05848
3147.71234,0.05882
3145.78360,0.05872
3143.85485,0.05846
3141.92611,0.05824
3139.99736,0.05807
3138.06861,0.05819
3136.13987,0.05885
3134.21112,0.05944
3132.28238,0.05917
3130.35363,0.05836
3128.42489,0.05783
3126.49614,0.05775
3124.56740,0.05772
3122.63865,0.05769
3120.70991,0.05791
3118.78116,0.05826
3116.85242,0.05844
3114.92367,0.05824
3112.99493,0.05779
3111.06618,0.05755
3109.13744,0.05769
3107.20869,0.05791
3105.27994,0.05795
3103.35120,0.05777
3101.42245,0.05761
3099.49371,0.05780
3097.56496,0.05801
3095.63622,0.05777
3093.70747,0.05734
3091.77873,0.05723
3089.84998,0.05741
3087.92124,0.05749
3085.99249,0.05737
3084.06375,0.05717
3082.13500,0.05700
3080.20626,0.05704
3078.27751,0.05734
3076.34877,0.05759
3074.42002,0.05760
3072.49127,0.05735
3070.56253,0.05700
3068.63378,0.05689
3066.70504,0.05706
3064.77629,0.05724
3062.84755,0.05735
3060.91880,0.05733
3058.99006,0.05706
3057.06131,0.05679
3055.13257,0.05669
3053.20382,0.05661
3051.27508,0.05636
3049.34633,0.05601
3047.41759,0.05592
3045.48884,0.05617
3043.56009,0.05634
3041.63135,0.05623
3039.70260,0.05621
3037.77386,0.05644
3035.84511,0.05660
3033.91637,0.05650
3031.98762,0.05628
3030.05888,0.05612
3028.13013,0.05605
3026.20139,0.05600
3024.27264,0.05598
3022.34390,0.05610
3020.41515,0.05623
3018.48641,0.05612
3016.55766,0.05575
3014.62892,0.05538
3012.70017,0.05523
3010.77142,0.05526
3008.84268,0.05532
3006.91393,0.05536
3004.98519,0.05536
3003.05644,0.05528
3001.12770,0.05517
2999.19895,0.05511
2997.27021,0.05493
2995.34146,0.05467
2993.41272,0.05457
2991.48397,0.05464
2989.55523,0.05469
2987.62648,0.05463
2985.69774,0.05451
2983.76899,0.05442
2981.84025,0.05435
2979.91150,0.05424
2977.98275,0.05423
2976.05401,0.05430
2974.12526,0.05429
2972.19652,0.05427
2970.26777,0.05430
2968.33903,0.05429
2966.41028,0.05431
2964.48154,0.05434
2962.55279,0.05425
2960.62405,0.05425
2958.69530,0.05458
2956.76656,0.05489
2954.83781,0.05484
2952.90907,0.05457
2950.98032,0.05439
2949.05157,0.05445
2947.12283,0.05473
2945.19408,0.05501
2943.26534,0.05512
2941.33659,0.05516
2939.40785,0.05524
2937.47910,0.05542
2935.55036,0.05562
2933.62161,0.05560
2931.69287,0.05549
2929.76412,0.05568
2927.83538,0.05600
2925.90663,0.05610
2923.97789,0.05611
2922.04914,0.05629
2920.12040,0.05650
2918.19165,0.05661
2916.26290,0.05670
2914.33416,0.05679
2912.40541,0.05692
2910.47667,0.05708
2908.54792,0.05709
2906.61918,0.05700
2904.69043,0.05698
2902.76169,0.05703
2900.83294,0.05723
2898.90420,0.05755
2896.97545,0.05769
2895.04671,0.05746
2893.11796,0.05709
2891.18922,0.05695
2889.26047,0.05703
2887.33172,0.05704
2885.40298,0.05696
2883.47423,0.05689
2881.54549,0.05675
2879.61674,0.05647
2877.68800,0.05618
2875.75925,0.05605
2873.83051,0.05618
2871.90176,0.05635
2869.97302,0.05638
2868.04427,0.05638
2866.11553,0.05636
2864.18678,0.05638
2862.25804,0.05644
2860.32929,0.05645
2858.40055,0.05645
2856.47180,0.05654
2854.54305,0.05670
2852.61431,0.05695
2850.68556,0.05729
2848.75682,0.05764
2846.82807,0.05775
2844.89933,0.05750
2842.97058,0.05729
2841.04184,0.05731
2839.11309,0.05721
2837.18435,0.05705
2835.25560,0.05716
2833.32686,0.05733
2831.39811,0.05731
2829.46937,0.05727
2827.54062,0.05723
2825.61188,0.05694
2823.68313,0.05647
2821.75438,0.05621
2819.82564,0.05623
2817.89689,0.05629
2815.96815,0.05635
2814.03940,0.05650
2812.11066,0.05660
2810.18191,0.05653
2808.25317,0.05648
2806.32442,0.05668
2804.39568,0.05701
2802.46693,0.05720
2800.53819,0.05712
2798.60944,0.05696
2796.68070,0.05692
2794.75195,0.05696
2792.82320,0.05700
2790.89446,0.05699
2788.96571,0.05688
2787.03697,0.05672
2785.10822,0.05670
2783.17948,0.05690
2781.25073,0.05723
2779.32199,0.05752
2777.39324,0.05756
2775.46450,0.05735
2773.53575,0.05726
2771.60701,0.05745
2769.67826,0.05759
2767.74952,0.05755
2765.82077,0.05748
2763.89203,0.05740
2761.96328,0.05729
2760.03453,0.05714
2758.10579,0.05687
2756.17704,0.05668
2754.24830,0.05681
2752.31955,0.05698
2750.39081,0.05690
2748.46206,0.05679
2746.53332,0.05694
2744.60457,0.05717
2742.67583,0.05722
2740.74708,0.05714
2738.81834,0.05701
2736.88959,0.05695
2734.96085,0.05703
2733.03210,0.05715
2731.10336,0.05716
2729.17461,0.05702
2727.24586,0.05672
2725.31712,0.05644
2723.38837,0.05641
2721.45963,0.05663
2719.53088,0.05683
2717.60214,0.05687
2715.67339,0.05682
2713.74465,0.05680
2711.81590,0.05687
2709.88716,0.05705
2707.95841,0.05727
2706.02967,0.05731
2704.10092,0.05716
2702.17218,0.05694
2700.24343,0.05676
2698.31468,0.05665
2696.38594,0.05666
2694.45719,0.05680
2692.52845,0.05689
2690.59970,0.05687
2688.67096,0.05681
2686.74221,0.05670
2684.81347,0.05656
2682.88472,0.05647
2680.95598,0.05651
2679.02723,0.05671
2677.09849,0.05690
2675.16974,0.05691
2673.24100,0.05683
2671.31225,0.05681
2669.38351,0.05677
2667.45476,0.05668
2665.52601,0.05679
2663.59727,0.05706
2661.66852,0.05705
2659.73978,0.05678
2657.81103,0.05664
2655.88229,0.05677
2653.95354,0.05699
2652.02480,0.05711
2650.09605,0.05712
2648.16731,0.05698
2646.23856,0.05683
2644.30982,0.05687
2642.38107,0.05691
2640.45233,0.05686
2638.52358,0.05683
2636.59484,0.05679
2634.66609,0.05675
2632.73734,0.05677
2630.80860,0.05678
2628.87985,0.05665
2626.95111,0.05657
2625.02236,0.05663
2623.09362,0.05658
2621.16487,0.05640
2619.23613,0.05631
2617.30738,0.05617
2615.37864,0.05594
2613.44989,0.05597
2611.52115,0.05628
2609.59240,0.05652
2607.66366,0.05652
2605.73491,0.05639
2603.80616,0.05633
2601.87742,0.05637
2599.94867,0.05647
2598.01993,0.05660
2596.09118,0.05670
2594.16244,0.05673
2592.23369,0.05667
2590.30495,0.05651
2588.37620,0.05634
2586.44746,0.05625
2584.51871,0.05618
2582.58997,0.05606
2580.66122,0.05599
2578.73248,0.05595
2576.80373,0.05593
2574.87499,0.05608
2572.94624,0.05624
2571.01749,0.05618
2569.08875,0.05615
2567.16000,0.05634
2565.23126,0.05643
2563.30251,0.05633
2561.37377,0.05624
2559.44502,0.05623
2557.51628,0.05615
2555.58753,0.05597
2553.65879,0.05585
2551.73004,0.05585
2549.80130,0.05594
2547.87255,0.05604
2545.94381,0.05606
2544.01506,0.05603
2542.08631,0.05609
2540.15757,0.05615
2538.22882,0.05611
2536.30008,0.05602
2534.37133,0.05584
2532.44259,0.05565
2530.51384,0.05568
2528.58510,0.05585
2526.65635,0.05597
2524.72761,0.05608
2522.79886,0.05625
2520.87012,0.05629
2518.94137,0.05619
2517.01263,0.05610
2515.08388,0.05609
2513.15514,0.05608
2511.22639,0.05605
2509.29764,0.05615
2507.36890,0.05634
2505.44015,0.05636
2503.51141,0.05629
2501.58266,0.05629
2499.65392,0.05636
2497.72517,0.05653
2495.79643,0.05675
2493.86768,0.05679
2491.93894,0.05667
2490.01019,0.05663
2488.08145,0.05653
2486.15270,0.05631
2484.22396,0.05627
2482.29521,0.05651
2480.36647,0.05666
2478.43772,0.05657
2476.50897,0.05650
2474.58023,0.05655
2472.65148,0.05649
2470.72274,0.05638
2468.79399,0.05638
2466.86525,0.05642
2464.93650,0.05639
2463.00776,0.05636
2461.07901,0.05640
2459.15027,0.05644
2457.22152,0.05641
2455.29278,0.05629
2453.36403,0.05630
2451.43529,0.05657
2449.50654,0.05682
2447.57779,0.05679
2445.64905,0.05673
2443.72030,0.05677
2441.79156,0.05670
2439.86281,0.05650
2437.93407,0.05632
2436.00532,0.05617
2434.07658,0.05610
2432.14783,0.05614
2430.21909,0.05623
2428.29034,0.05632
2426.36160,0.05640
2424.43285,0.05647
2422.50411,0.05654
2420.57536,0.05660
2418.64662,0.05656
2416.71787,0.05639
2414.78912,0.05621
2412.86038,0.05606
2410.93163,0.05602
2409.00289,0.05612
2407.07414,0.05622
2405.14540,0.05622
2403.21665,0.05620
2401.28791,0.05618
2399.35916,0.05613
2397.43042,0.05610
2395.50167,0.05617
2393.57293,0.05632
2391.64418,0.05637
2389.71544,0.05621
2387.78669,0.05603
2385.85795,0.05608
2383.92920,0.05628
2382.00045,0.05638
2380.07171,0.05637
2378.14296,0.05643
2376.21422,0.05655
2374.28547,0.05657
2372.35673,0.05647
2370.42798,0.05635
2368.49924,0.05624
2366.57049,0.05620
2364.64175,0.05617
2362.71300,0.05597
2360.78426,0.05580
2358.85551,0.05589
2356.92677,0.05609
2354.99802,0.05620
2353.06927,0.05613
2351.14053,0.05595
2349.21178,0.05586
2347.28304,0.05591
2345.35429,0.05595
2343.42555,0.05598
2341.49680,0.05613
2339.56806,0.05632
2337.63931,0.05635
2335.71057,0.05627
2333.78182,0.05622
2331.85308,0.05627
2329.92433,0.05646
2327.99559,0.05657
2326.06684,0.05639
2324.13810,0.05614
2322.20935,0.05614
2320.28060,0.05626
2318.35186,0.05626
2316.42311,0.05616
2314.49437,0.05613
2312.56562,0.05616
2310.63688,0.05615
2308.70813,0.05600
2306.77939,0.05581
2304.85064,0.05582
2302.92190,0.05595
2300.99315,0.05603
2299.06441,0.05613
2297.13566,0.05626
2295.20692,0.05625
2293.27817,0.05615
2291.34943,0.05608
2289.42068,0.05603
2287.49193,0.05608
2285.56319,0.05623
2283.63444,0.05630
2281.70570,0.05632
2279.77695,0.05644
2277.84821,0.05654
2275.91946,0.05645
2273.99072,0.05624
2272.06197,0.05608
2270.13323,0.05610
2268.20448,0.05625
2266.27574,0.05633
2264.34699,0.05637
2262.41825,0.05647
2260.48950,0.05659
2258.56075,0.05671
2256.63201,0.05670
2254.70326,0.05643
2252.77452,0.05621
2250.84577,0.05625
2248.91703,0.05642
2246.98828,0.05649
2245.05954,0.05640
2243.13079,0.05628
2241.20205,0.05619
2239.27330,0.05616
2237.34456,0.05624
2235.41581,0.05634
2233.48707,0.05630
2231.55832,0.05622
2229.62958,0.05620
2227.70083,0.05620
2225.77208,0.05632
2223.84334,0.05648
2221.91459,0.05654
2219.98585,0.05658
2218.05710,0.05657
2216.12836,0.05643
2214.19961,0.05632
2212.27087,0.05633
2210.34212,0.05644
2208.41338,0.05652
2206.48463,0.05651
2204.55589,0.05655
2202.62714,0.05661
2200.69840,0.05654
2198.76965,0.05640
2196.84090,0.05635
2194.91216,0.05650
2192.98341,0.05668
2191.05467,0.05670
2189.12592,0.05663
2187.19718,0.05654
2185.26843,0.05641
2183.33969,0.05636
2181.41094,0.05645
2179.48220,0.05659
2177.55345,0.05667
2175.62471,0.05667
2173.69596,0.05668
2171.76722,0.05667
2169.83847,0.05667
2167.90973,0.05675
2165.98098,0.05684
2164.05223,0.05688
2162.12349,0.05692
2160.19474,0.05696
2158.26600,0.05701
2156.33725,0.05706
2154.40851,0.05704
2152.47976,0.05691
2150.55102,0.05679
2148.62227,0.05668
2146.69353,0.05655
2144.76478,0.05657
2142.83604,0.05678
2140.90729,0.05686
2138.97855,0.05679
2137.04980,0.05683
2135.12106,0.05688
2133.19231,0.05672
2131.26356,0.05651
2129.33482,0.05654
2127.40607,0.05678
2125.47733,0.05694
2123.54858,0.05692
2121.61984,0.05691
2119.69109,0.05691
2117.76235,0.05689
2115.83360,0.05685
2113.90486,0.05686
2111.97611,0.05698
2110.04737,0.05706
2108.11862,0.05691
2106.18988,0.05673
2104.26113,0.05685
2102.33238,0.05708
2100.40364,0.05714
2098.47489,0.05716
2096.54615,0.05724
2094.61740,0.05721
2092.68866,0.05706
2090.75991,0.05700
2088.83117,0.05714
2086.90242,0.05737
2084.97368,0.05743
2083.04493,0.05731
2081.11619,0.05712
2079.18744,0.05700
2077.25870,0.05705
2075.32995,0.05715
2073.40121,0.05728
2071.47246,0.05748
2069.54371,0.05754
2067.61497,0.05736
2065.68622,0.05713
2063.75748,0.05704
2061.82873,0.05709
2059.89999,0.05721
2057.97124,0.05732
2056.04250,0.05736
2054.11375,0.05727
2052.18501,0.05711
2050.25626,0.05701
2048.32752,0.05702
2046.39877,0.05706
2044.47003,0.05707
2042.54128,0.05714
2040.61254,0.05719
2038.68379,0.05720
2036.75504,0.05733
2034.82630,0.05751
2032.89755,0.05752
2030.96881,0.05750
2029.04006,0.05759
2027.11132,0.05758
2025.18257,0.05742
2023.25383,0.05737
2021.32508,0.05749
2019.39634,0.05759
2017.46759,0.05761
2015.53885,0.05758
2013.61010,0.05755
2011.68136,0.05760
2009.75261,0.05768
2007.82386,0.05760
2005.89512,0.05734
2003.96637,0.05716
2002.03763,0.05720
2000.10888,0.05741
1998.18014,0.05763
1996.25139,0.05770
1994.32265,0.05762
1992.39390,0.05756
1990.46516,0.05761
1988.53641,0.05764
1986.60767,0.05756
1984.67892,0.05758
1982.75018,0.05781
1980.82143,0.05805
1978.89269,0.05812
1976.96394,0.05811
1975.03519,0.05814
1973.10645,0.05817
1971.17770,0.05811
1969.24896,0.05803
1967.32021,0.05809
1965.39147,0.05826
1963.46272,0.05837
1961.53398,0.05845
1959.60523,0.05849
1957.67649,0.05842
1955.74774,0.05825
1953.81900,0.05817
1951.89025,0.05823
1949.96151,0.05829
1948.03276,0.05833
1946.10402,0.05835
1944.17527,0.05833
1942.24652,0.05839
1940.31778,0.05861
1938.38903,0.05877
1936.46029,0.05880
1934.53154,0.05888
1932.60280,0.05904
1930.67405,0.05911
1928.74531,0.05901
1926.81656,0.05877
1924.88782,0.05868
1922.95907,0.05897
1921.03033,0.05925
1919.10158,0.05923
1917.17284,0.05919
1915.24409,0.05932
1913.31534,0.05953
1911.38660,0.05970
1909.45785,0.05977
1907.52911,0.05978
1905.60036,0.05978
1903.67162,0.05974
1901.74287,0.05973
1899.81413,0.05984
1897.88538,0.06001
1895.95664,0.06010
1894.02789,0.06014
1892.09915,0.06027
1890.17040,0.06041
1888.24166,0.06049
1886.31291,0.06061
1884.38417,0.06073
1882.45542,0.06079
1880.52667,0.06085
1878.59793,0.06092
1876.66918,0.06086
1874.74044,0.06070
1872.81169,0.06066
1870.88295,0.06083
1868.95420,0.06102
1867.02546,0.06111
1865.09671,0.06119
1863.16797,0.06134
1861.23922,0.06147
1859.31048,0.06147
1857.38173,0.06144
1855.45299,0.06148
1853.52424,0.06159
1851.59549,0.06172
1849.66675,0.06182
1847.73800,0.06184
1845.80926,0.06175
1843.88051,0.06165
1841.95177,0.06166
1840.02302,0.06172
1838.09428,0.06179
1836.16553,0.06194
1834.23679,0.06208
1832.30804,0.06207
1830.37930,0.06204
1828.45055,0.06210
1826.52181,0.06209
1824.59306,0.06196
1822.66432,0.06189
1820.73557,0.06192
1818.80682,0.06202
1816.87808,0.06210
1814.94933,0.06214
1813.02059,0.06223
1811.09184,0.06228
1809.16310,0.06220
1807.23435,0.06198
1805.30561,0.06148
1803.37686,0.06055
1801.44812,0.05932
1799.51937,0.05818
1797.59063,0.05740
1795.66188,0.05690
1793.73314,0.05650
1791.80439,0.05638
1789.87565,0.05674
1787.94690,0.05727
1786.01815,0.05773
1784.08941,0.05809
1782.16066,0.05833
1780.23192,0.05854
1778.30317,0.05871
1776.37443,0.05879
1774.44568,0.05885
1772.51694,0.05880
1770.58819,0.05854
1768.65945,0.05825
1766.73070,0.05802
1764.80196,0.05771
1762.87321,0.05717
1760.94447,0.05647
1759.01572,0.05587
1757.08697,0.05543
1755.15823,0.05502
1753.22948,0.05448
1751.30074,0.05380
1749.37199,0.05324
1747.44325,0.05299
1745.51450,0.05284
1743.58576,0.05272
1741.65701,0.05276
1739.72827,0.05288
1737.79952,0.05304
1735.87078,0.05335
1733.94203,0.05382
1732.01329,0.05431
1730.08454,0.05485
1728.15580,0.05534
1726.22705,0.05563
1724.29830,0.05581
1722.36956,0.05606
1720.44081,0.05629
1718.51207,0.05628
1716.58332,0.05629
1714.65458,0.05661
1712.72583,0.05703
1710.79709,0.05742
1708.86834,0.05773
1706.93960,0.05792
1705.01085,0.05806
1703.08211,0.05823
1701.15336,0.05847
1699.22462,0.05884
1697.29587,0.05923
1695.36713,0.05953
1693.43838,0.05982
1691.50963,0.06011
1689.58089,0.06034
1687.65214,0.06058
1685.72340,0.06090
1683.79465,0.06115
1681.86591,0.06143
1679.93716,0.06189
1678.00842,0.06245
1676.07967,0.06311
1674.15093,0.06382
1672.22218,0.06443
1670.29344,0.06501
1668.36469,0.06560
1666.43595,0.06627
1664.50720,0.06695
1662.57845,0.06748
1660.64971,0.06794
1658.72096,0.06852
1656.79222,0.06912
1654.86347,0.06954
1652.93473,0.06986
1651.00598,0.07023
1649.07724,0.07063
1647.14849,0.07093
1645.21975,0.07102
1643.29100,0.07109
1641.36226,0.07135
1639.43351,0.07178
1637.50477,0.07213
1635.57602,0.07221
1633.64728,0.07229
1631.71853,0.07256
1629.78978,0.07275
1627.86104,0.07268
1625.93229,0.07251
1624.00355,0.07247
1622.07480,0.07256
1620.14606,0.07274
1618.21731,0.07290
1616.28857,0.07298
1614.35982,0.07302
1612.43108,0.07296
1610.50233,0.07285
1608.57359,0.07268
1606.64484,0.07219
1604.71610,0.07149
1602.78735,0.07108
1600.85861,0.07135
1598.92986,0.07220
1597.00111,0.07328
1595.07237,0.07410
1593.14362,0.07441
1591.21488,0.07436
1589.28613,0.07405
1587.35739,0.07341
1585.42864,0.07268
1583.49990,0.07211
1581.57115,0.07158
1579.64241,0.07116
1577.71366,0.07113
1575.78492,0.07161
1573.85617,0.07243
1571.92743,0.07326
1569.99868,0.07395
1568.06993,0.07439
1566.14119,0.07455
1564.21244,0.07467
1562.28370,0.07507
1560.35495,0.07600
1558.42621,0.07746
1556.49746,0.07873
1554.56872,0.07947
1552.63997,0.07985
1550.71123,0.07994
1548.78248,0.07967
1546.85374,0.07895
1544.92499,0.07794
1542.99625,0.07700
1541.06750,0.07646
1539.13876,0.07663
1537.21001,0.07747
1535.28126,0.07850
1533.35252,0.07932
1531.42377,0.07970
1529.49503,0.07976
1527.56628,0.07963
1525.63754,0.07932
1523.70879,0.07887
1521.78005,0.07822
1519.85130,0.07751
1517.92256,0.07690
1515.99381,0.07610
1514.06507,0.07512
1512.13632,0.07424
1510.20758,0.07346
1508.27883,0.07268
1506.35008,0.07181
1504.42134,0.07102
1502.49259,0.07035
1500.56385,0.06955
1498.63510,0.06854
1496.70636,0.06736
1494.77761,0.06617
1492.84887,0.06521
1490.92012,0.06433
1488.99138,0.06339
1487.06263,0.06252
1485.13389,0.06184
1483.20514,0.06127
1481.27640,0.06075
1479.34765,0.06030
1477.41891,0.05989
1475.49016,0.05948
1473.56141,0.05920
1471.63267,0.05907
1469.70392,0.05896
1467.77518,0.05902
1465.84643,0.05936
1463.91769,0.05967
1461.98894,0.05985
1460.06020,0.06001
1458.13145,0.06013
1456.20271,0.06016
1454.27396,0.06020
1452.34522,0.06038
1450.41647,0.06070
1448.48773,0.06107
1446.55898,0.06140
1444.63024,0.06153
1442.70149,0.06148
1440.77274,0.06154
1438.84400,0.06208
1436.91525,0.06323
1434.98651,0.06466
1433.05776,0.06604
1431.12902,0.06729
1429.20027,0.06847
1427.27153,0.06990
1425.34278,0.07183
1423.41404,0.07396
1421.48529,0.07602
1419.55655,0.07811
1417.62780,0.08003
1415.69906,0.08164
1413.77031,0.08315
1411.84156,0.08456
1409.91282,0.08578
1407.98407,0.08663
1406.05533,0.08665
1404.12658,0.08577
1402.19784,0.08463
1400.26909,0.08394
1398.34035,0.08393
1396.41160,0.08432
1394.48286,0.08483
1392.55411,0.08524
1390.62537,0.08524
1388.69662,0.08485
1386.76788,0.08433
1384.83913,0.08368
1382.91039,0.08286
1380.98164,0.08207
1379.05289,0.08146
1377.12415,0.08099
1375.19540,0.08062
1373.26666,0.08029
1371.33791,0.07993
1369.40917,0.07933
1367.48042,0.07835
1365.55168,0.07713
1363.62293,0.07576
1361.69419,0.07422
1359.76544,0.07285
1357.83670,0.07182
1355.90795,0.07094
1353.97921,0.07007
1352.05046,0.06931
1350.12172,0.06873
1348.19297,0.06814
1346.26422,0.06726
1344.33548,0.06606
1342.40673,0.06476
1340.47799,0.06358
1338.54924,0.06272
1336.62050,0.06224
1334.69175,0.06205
1332.76301,0.06205
1330.83426,0.06211
1328.90552,0.06223
1326.97677,0.06238
1325.04803,0.06253
1323.11928,0.06282
1321.19054,0.06319
1319.26179,0.06335
1317.33304,0.06324
1315.40430,0.06315
1313.47555,0.06318
1311.54681,0.06321
1309.61806,0.06314
1307.68932,0.06291
1305.76057,0.06257
1303.83183,0.06235
1301.90308,0.06235
1299.97434,0.06247
1298.04559,0.06255
1296.11685,0.06246
1294.18810,0.06219
1292.25936,0.06191
1290.33061,0.06165
1288.40187,0.06126
1286.47312,0.06071
1284.54437,0.06017
1282.61563,0.05969
1280.68688,0.05926
1278.75814,0.05878
1276.82939,0.05811
1274.90065,0.05742
1272.97190,0.05704
1271.04316,0.05692
1269.11441,0.05675
1267.18567,0.05657
1265.25692,0.05660
1263.32818,0.05679
1261.39943,0.05701
1259.47069,0.05720
1257.54194,0.05747
1255.61320,0.05788
1253.68445,0.05848
1251.75570,0.05923
1249.82696,0.05988
1247.89821,0.06020
1245.96947,0.06034
1244.04072,0.06061
1242.11198,0.06124
1240.18323,0.06203
1238.25449,0.06256
1236.32574,0.06273
1234.39700,0.06276
1232.46825,0.06280
1230.53951,0.06291
1228.61076,0.06299
1226.68202,0.06293
1224.75327,0.06281
1222.82452,0.06270
1220.89578,0.06244
1218.96703,0.06199
1217.03829,0.06161
1215.10954,0.06150
1213.18080,0.06162
1211.25205,0.06168
1209.32331,0.06132
1207.39456,0.06069
1205.46582,0.06025
1203.53707,0.06015
1201.60833,0.06017
1199.67958,0.06020
1197.75084,0.06034
1195.82209,0.06051
1193.89335,0.06050
1191.96460,0.06030
1190.03585,0.06022
1188.10711,0.06038
1186.17836,0.06057
1184.24962,0.06061
1182.32087,0.06059
1180.39213,0.06061
1178.46338,0.06065
1176.53464,0.06062
1174.60589,0.06047
1172.67715,0.06028
1170.74840,0.06023
1168.81966,0.06038
1166.89091,0.06061
1164.96217,0.06092
1163.03342,0.06121
1161.10467,0.06117
1159.17593,0.06087
1157.24718,0.06081
1155.31844,0.06098
1153.38969,0.06113
1151.46095,0.06115
1149.53220,0.06104
1147.60346,0.06088
1145.67471,0.06082
1143.74597,0.06088
1141.81722,0.06096
1139.88848,0.06085
1137.95973,0.06050
1136.03099,0.06011
1134.10224,0.05967
1132.17350,0.05913
1130.24475,0.05870
1128.31600,0.05856
1126.38726,0.05864
1124.45851,0.05875
1122.52977,0.05863
1120.60102,0.05831
1118.67228,0.05807
1116.74353,0.05799
1114.81479,0.05796
1112.88604,0.05789
1110.95730,0.05779
1109.02855,0.05788
1107.09981,0.05810
1105.17106,0.05821
1103.24232,0.05828
1101.31357,0.05848
1099.38483,0.05866
1097.45608,0.05859
1095.52733,0.05848
1093.59859,0.05874
1091.66984,0.05926
1089.74110,0.05953
1087.81235,0.05955
1085.88361,0.05955
1083.95486,0.05941
1082.02612,0.05916
1080.09737,0.05894
1078.16863,0.05879
1076.23988,0.05879
1074.31114,0.05900
1072.38239,0.05923
1070.45365,0.05931
1068.52490,0.05918
1066.59615,0.05879
1064.66741,0.05850
1062.73866,0.05869
1060.80992,0.05920
1058.88117,0.05956
1056.95243,0.05943
1055.02368,0.05894
1053.09494,0.05867
1051.16619,0.05878
1049.23745,0.05885
1047.30870,0.05883
1045.37996,0.05894
1043.45121,0.05899
1041.52247,0.05879
1039.59372,0.05854
1037.66498,0.05842
1035.73623,0.05841
1033.80748,0.05830
1031.87874,0.05809
1029.94999,0.05808
1028.02125,0.05828
1026.09250,0.05842
1024.16376,0.05844
1022.23501,0.05835
1020.30627,0.05806
1018.37752,0.05770
1016.44878,0.05759
1014.52003,0.05774
1012.59129,0.05783
1010.66254,0.05774
1008.73380,0.05752
1006.80505,0.05723
1004.87631,0.05692
1002.94756,0.05670
1001.01881,0.05672
999.09007,0.05703
997.16132,0.05729
995.23258,0.05721
993.30383,0.05694
991.37509,0.05679
989.44634,0.05677
987.51760,0.05651
985.58885,0.05605
983.66011,0.05602
981.73136,0.05637
979.80262,0.05643
977.87387,0.05608
975.94513,0.05574
974.01638,0.05585
972.08763,0.05636
970.15889,0.05672
968.23014,0.05678
966.30140,0.05691
964.37265,0.05738
962.44391,0.05796
960.51516,0.05831
958.58642,0.05852
956.65767,0.05874
954.72893,0.05890
952.80018,0.05900
950.87144,0.05917
948.94269,0.05949
947.01395,0.05979
945.08520,0.05973
943.15646,0.05947
941.22771,0.05934
939.29896,0.05919
937.37022,0.05892
935.44147,0.05891
933.51273,0.05927
931.58398,0.05951
929.65524,0.05926
927.72649,0.05883
925.79775,0.05873
923.86900,0.05889
921.94026,0.05900
920.01151,0.05899
918.08277,0.05905
916.15402,0.05921
914.22528,0.05906
912.29653,0.05864
910.36779,0.05843
908.43904,0.05841
906.51029,0.05839
904.58155,0.05837
902.65280,0.05822
900.72406,0.05799
898.79531,0.05782
896.86657,0.05772
894.93782,0.05785
893.00908,0.05829
891.08033,0.05850
889.15159,0.05820
887.22284,0.05790
885.29410,0.05810
883.36535,0.05852
881.43661,0.05870
879.50786,0.05898
877.57911,0.05997
875.65037,0.06181
873.72162,0.06374
871.79288,0.06464
869.86413,0.06427
867.93539,0.06317
866.00664,0.06205
864.07790,0.06131
862.14915,0.06073
860.22041,0.06006
858.29166,0.05942
856.36292,0.05911
854.43417,0.05920
852.50543,0.05933
850.57668,0.05926
848.64794,0.05918
846.71919,0.05926
844.79044,0.05929
842.86170,0.05906
840.93295,0.05876
839.00421,0.05851
837.07546,0.05833
835.14672,0.05840
833.21797,0.05856
831.28923,0.05848
829.36048,0.05839
827.43174,0.05853
825.50299,0.05893
823.57425,0.05932
821.64550,0.05922
819.71676,0.05879
817.78801,0.05847
815.85926,0.05823
813.93052,0.05824
812.00177,0.05832
810.07303,0.05800
808.14428,0.05767
806.21554,0.05772
804.28679,0.05790
802.35805,0.05809
800.42930,0.05804
798.50056,0.05776
796.57181,0.05765
794.64307,0.05766
792.71432,0.05758
790.78558,0.05760
788.85683,0.05762
786.92809,0.05735
784.99934,0.05698
783.07059,0.05681
781.14185,0.05695
779.21310,0.05695
777.28436,0.05654
775.35561,0.05610
773.42687,0.05596
771.49812,0.05596
769.56938,0.05587
767.64063,0.05581
765.71189,0.05602
763.78314,0.05624
761.85440,0.05600
759.92565,0.05557
757.99691,0.05564
756.06816,0.05602
754.13942,0.05582
752.21067,0.05513
750.28192,0.05478
748.35318,0.05488
746.42443,0.05498
744.49569,0.05482
742.56694,0.05439
740.63820,0.05387
738.70945,0.05364
736.78071,0.05393
734.85196,0.05446
732.92322,0.05460
730.99447,0.05399
729.06573,0.05310
727.13698,0.05249
725.20824,0.05199
723.27949,0.05152
721.35074,0.05129
719.42200,0.05127
717.49325,0.05138
715.56451,0.05171
713.63576,0.05232
711.70702,0.05267
709.77827,0.05243
707.84953,0.05232
705.92078,0.05266
703.99204,0.05297
702.06329,0.05305
700.13455,0.05293
698.20580,0.05284
696.27706,0.05305
694.34831,0.05335
692.41957,0.05366
690.49082,0.05431
688.56207,0.05518
686.63333,0.05554
684.70458,0.05544
682.77584,0.05542
680.84709,0.05529
678.91835,0.05491
676.98960,0.05488
675.06086,0.05529
673.13211,0.05540
671.20337,0.05505
669.27462,0.05450
667.34588,0.05395
665.41713,0.05368
663.48839,0.05348
661.55964,0.05289
659.63090,0.05185
657.70215,0.05097
655.77340,0.05084
653.84466,0.05087
651.91591,0.05044
649.98717,0.05011
648.05842,0.05030
646.12968,0.05125
644.20093,0.05270
642.27219,0.05354
640.34344,0.05344
638.41470,0.05327
636.48595,0.05350
634.55721,0.05409
632.62846,0.05522
630.69972,0.05629
628.77097,0.05635
626.84222,0.05576
624.91348,0.05509
622.98473,0.05494
621.05599,0.05586
619.12724,0.05723
617.19850,0.05842
615.26975,0.05949
613.34101,0.06036
611.41226,0.06065
609.48352,0.06083
607.55477,0.06187
605.62603,0.06347
603.69728,0.06473
601.76854,0.06498
599.83979,0.06447
