7497.03301,0.10336
7495.10426,0.10520
7493.17552,0.11305
7491.24677,0.11926
7489.31803,0.11833
7487.38928,0.11425
7485.46054,0.11327
7483.53179,0.11195
7481.60305,0.10598
7479.67430,0.10166
7477.74556,0.10302
7475.81681,0.10690
7473.88807,0.11143
7471.95932,0.11535
7470.03057,0.11536
7468.10183,0.11333
7466.17308,0.11387
7464.24434,0.11492
7462.31559,0.11182
7460.38685,0.10542
7458.45810,0.10219
7456.52936,0.10510
7454.60061,0.11008
7452.67187,0.11470
7450.74312,0.11659
7448.81438,0.11432
7446.88563,0.11231
7444.95689,0.11206
7443.02814,0.11237
7441.09940,0.11402
7439.17065,0.11458
7437.24190,0.11247
7435.31316,0.11030
7433.38441,0.10977
7431.45567,0.10841
7429.52692,0.10364
7427.59818,0.09929
7425.66943,0.10091
7423.74069,0.10487
7421.81194,0.10579
7419.88320,0.10699
7417.95445,0.11090
7416.02571,0.11247
7414.09696,0.10877
7412.16822,0.10437
7410.23947,0.10502
7408.31073,0.10853
7406.38198,0.10986
7404.45323,0.11022
7402.52449,0.11146
7400.59574,0.11086
7398.66700,0.10825
7396.73825,0.10718
7394.80951,0.10768
7392.88076,0.10747
7390.95202,0.10665
7389.02327,0.10610
7387.09453,0.10713
7385.16578,0.10805
7383.23704,0.10677
7381.30829,0.10603
7379.37955,0.10881
7377.45080,0.11221
7375.52205,0.11380
7373.59331,0.11508
7371.66456,0.11619
7369.73582,0.11685
7367.80707,0.11672
7365.87833,0.11336
7363.94958,0.10718
7362.02084,0.10352
7360.09209,0.10522
7358.16335,0.10781
7356.23460,0.10738
7354.30586,0.10626
7352.37711,0.10686
7350.44837,0.10714
7348.51962,0.10527
7346.59088,0.10399
7344.66213,0.10575
7342.73338,0.10823
7340.80464,0.10862
7338.87589,0.10755
7336.94715,0.10777
7335.01840,0.11104
7333.08966,0.11544
7331.16091,0.11551
7329.23217,0.11172
7327.30342,0.11053
7325.37468,0.11088
7323.44593,0.10799
7321.51719,0.10564
7319.58844,0.10700
7317.65970,0.10923
7315.73095,0.11023
7313.80221,0.10966
7311.87346,0.10853
7309.94471,0.10707
7308.01597,0.10488
7306.08722,0.10461
7304.15848,0.10500
7302.22973,0.10300
7300.30099,0.10099
7298.37224,0.10102
7296.44350,0.10235
7294.51475,0.10402
7292.58601,0.10612
7290.65726,0.10932
7288.72852,0.11210
7286.79977,0.11256
7284.87103,0.11019
7282.94228,0.10730
7281.01353,0.10659
7279.08479,0.10673
7277.15604,0.10591
7275.22730,0.10543
7273.29855,0.10487
7271.36981,0.10429
7269.44106,0.10561
7267.51232,0.10741
7265.58357,0.10810
7263.65483,0.10879
7261.72608,0.11010
7259.79734,0.11216
7257.86859,0.11399
7255.93985,0.11359
7254.01110,0.11054
7252.08236,0.10671
7250.15361,0.10279
7248.22486,0.09887
7246.29612,0.09754
7244.36737,0.10063
7242.43863,0.10541
7240.50988,0.10797
7238.58114,0.10937
7236.65239,0.11359
7234.72365,0.11744
7232.79490,0.11475
7230.86616,0.10751
7228.93741,0.10193
7227.00867,0.10037
7225.07992,0.10169
7223.15118,0.10406
7221.22243,0.10629
7219.29369,0.10707
7217.36494,0.10685
7215.43619,0.10638
7213.50745,0.10524
7211.57870,0.10510
7209.64996,0.10789
7207.72121,0.11166
7205.79247,0.11303
7203.86372,0.10986
7201.93498,0.10474
7200.00623,0.10463
7198.07749,0.10970
7196.14874,0.11185
7194.22000,0.10995
7192.29125,0.10850
7190.36251,0.10799
7188.43376,0.10820
7186.50501,0.10884
7184.57627,0.10766
7182.64752,0.10423
7180.71878,0.10081
7178.79003,0.10071
7176.86129,0.10317
7174.93254,0.10372
7173.00380,0.10316
7171.07505,0.10441
7169.14631,0.10498
7167.21756,0.10442
7165.28882,0.10505
7163.36007,0.10574
7161.43133,0.10547
7159.50258,0.10644
7157.57384,0.10926
7155.64509,0.11036
7153.71634,0.10796
7151.78760,0.10649
7149.85885,0.10835
7147.93011,0.11017
7146.00136,0.11037
7144.07262,0.10941
7142.14387,0.10664
7140.21513,0.10419
7138.28638,0.10473
7136.35764,0.10723
7134.42889,0.10939
7132.50015,0.10858
7130.57140,0.10473
7128.64266,0.10216
7126.71391,0.10245
7124.78516,0.10277
7122.85642,0.10162
7120.92767,0.10226
7118.99893,0.10710
7117.07018,0.11161
7115.14144,0.11152
7113.21269,0.10885
7111.28395,0.10529
7109.35520,0.10148
7107.42646,0.10072
7105.49771,0.10449
7103.56897,0.10973
7101.64022,0.11273
7099.71148,0.11210
7097.78273,0.10975
7095.85399,0.10772
7093.92524,0.10585
7091.99649,0.10484
7090.06775,0.10557
7088.13900,0.10683
7086.21026,0.10735
7084.28151,0.10673
7082.35277,0.10536
7080.42402,0.10402
7078.49528,0.10408
7076.56653,0.10522
7074.63779,0.10493
7072.70904,0.10297
7070.78030,0.10203
7068.85155,0.10403
7066.92281,0.10807
7064.99406,0.10960
7063.06532,0.10717
7061.13657,0.10496
7059.20782,0.10502
7057.27908,0.10599
7055.35033,0.10708
7053.42159,0.10575
7051.49284,0.10193
7049.56410,0.10011
7047.63535,0.10136
7045.70661,0.10218
7043.77786,0.10091
7041.84912,0.09963
7039.92037,0.09976
7037.99163,0.10195
7036.06288,0.10533
7034.13414,0.10509
7032.20539,0.10178
7030.27664,0.10092
7028.34790,0.10225
7026.41915,0.10304
7024.49041,0.10235
7022.56166,0.10046
7020.63292,0.10011
7018.70417,0.10158
7016.77543,0.10184
7014.84668,0.10187
7012.91794,0.10356
7010.98919,0.10571
7009.06045,0.10901
7007.13170,0.11154
7005.20296,0.10791
7003.27421,0.10183
7001.34547,0.10126
6999.41672,0.10427
6997.48797,0.10632
6995.55923,0.10726
6993.63048,0.10698
6991.70174,0.10640
6989.77299,0.10636
6987.84425,0.10613
6985.91550,0.10558
6983.98676,0.10387
6982.05801,0.10136
6980.12927,0.09958
6978.20052,0.09939
6976.27178,0.10166
6974.34303,0.10437
6972.41429,0.10394
6970.48554,0.10185
6968.55680,0.10214
6966.62805,0.10367
6964.69930,0.10289
6962.77056,0.10139
6960.84181,0.10182
6958.91307,0.10318
6956.98432,0.10436
6955.05558,0.10519
6953.12683,0.10597
6951.19809,0.10653
6949.26934,0.10576
6947.34060,0.10488
6945.41185,0.10587
6943.48311,0.10764
6941.55436,0.10664
6939.62562,0.10241
6937.69687,0.09953
6935.76812,0.10012
6933.83938,0.10271
6931.91063,0.10575
6929.98189,0.10643
6928.05314,0.10494
6926.12440,0.10375
6924.19565,0.10303
6922.26691,0.10329
6920.33816,0.10481
6918.40942,0.10575
6916.48067,0.10521
6914.55193,0.10423
6912.62318,0.10277
6910.69444,0.09977
6908.76569,0.09718
6906.83695,0.09785
6904.90820,0.10144
6902.97945,0.10506
6901.05071,0.10648
6899.12196,0.10592
6897.19322,0.10414
6895.26447,0.10174
6893.33573,0.10058
6891.40698,0.10165
6889.47824,0.10232
6887.54949,0.10021
6885.62075,0.09791
6883.69200,0.09863
6881.76326,0.10068
6879.83451,0.10134
6877.90577,0.10112
6875.97702,0.10179
6874.04828,0.10398
6872.11953,0.10544
6870.19078,0.10463
6868.26204,0.10362
6866.33329,0.10387
6864.40455,0.10538
6862.47580,0.10766
6860.54706,0.10806
6858.61831,0.10506
6856.68957,0.10176
6854.76082,0.10140
6852.83208,0.10336
6850.90333,0.10520
6848.97459,0.10502
6847.04584,0.10357
6845.11710,0.10330
6843.18835,0.10464
6841.25960,0.10565
6839.33086,0.10428
6837.40211,0.10257
6835.47337,0.10386
6833.54462,0.10498
6831.61588,0.10313
6829.68713,0.10215
6827.75839,0.10346
6825.82964,0.10418
6823.90090,0.10439
6821.97215,0.10421
6820.04341,0.10230
6818.11466,0.10092
6816.18592,0.10273
6814.25717,0.10637
6812.32843,0.10916
6810.39968,0.10949
6808.47093,0.10769
6806.54219,0.10564
6804.61344,0.10573
6802.68470,0.10753
6800.75595,0.10733
6798.82721,0.10429
6796.89846,0.10173
6794.96972,0.10100
6793.04097,0.10126
6791.11223,0.10325
6789.18348,0.10648
6787.25474,0.10737
6785.32599,0.10525
6783.39725,0.10369
6781.46850,0.10422
6779.53975,0.10469
6777.61101,0.10383
6775.68226,0.10232
6773.75352,0.10084
6771.82477,0.10008
6769.89603,0.10085
6767.96728,0.10323
6766.03854,0.10579
6764.10979,0.10524
6762.18105,0.10180
6760.25230,0.10084
6758.32356,0.10335
6756.39481,0.10449
6754.46607,0.10339
6752.53732,0.10281
6750.60858,0.10237
6748.67983,0.10088
6746.75108,0.10060
6744.82234,0.10238
6742.89359,0.10306
6740.96485,0.10095
6739.03610,0.09858
6737.10736,0.09973
6735.17861,0.10446
6733.24987,0.10753
6731.32112,0.10515
6729.39238,0.10102
6727.46363,0.09969
6725.53489,0.09977
6723.60614,0.09888
6721.67740,0.09781
6719.74865,0.09902
6717.81991,0.10230
6715.89116,0.10411
6713.96241,0.10366
6712.03367,0.10335
6710.10492,0.10445
6708.17618,0.10570
6706.24743,0.10514
6704.31869,0.10347
6702.38994,0.10289
6700.46120,0.10400
6698.53245,0.10559
6696.60371,0.10637
6694.67496,0.10616
6692.74622,0.10477
6690.81747,0.10281
6688.88873,0.10192
6686.95998,0.10136
6685.03123,0.10034
6683.10249,0.10042
6681.17374,0.10163
6679.24500,0.10249
6677.31625,0.10322
6675.38751,0.10461
6673.45876,0.10595
6671.53002,0.10595
6669.60127,0.10499
6667.67253,0.10412
6665.74378,0.10279
6663.81504,0.10099
6661.88629,0.10128
6659.95755,0.10359
6658.02880,0.10369
6656.10006,0.10028
6654.17131,0.09732
6652.24256,0.09783
6650.31382,0.10063
6648.38507,0.10258
6646.45633,0.10262
6644.52758,0.10192
6642.59884,0.10151
6640.67009,0.10284
6638.74135,0.10578
6636.81260,0.10686
6634.88386,0.10555
6632.95511,0.10447
6631.02637,0.10350
6629.09762,0.10271
6627.16888,0.10301
6625.24013,0.10288
6623.31139,0.10148
6621.38264,0.10016
6619.45389,0.10064
6617.52515,0.10238
6615.59640,0.10231
6613.66766,0.10073
6611.73891,0.10057
6609.81017,0.10075
6607.88142,0.09975
6605.95268,0.09925
6604.02393,0.09948
6602.09519,0.09926
6600.16644,0.09902
6598.23770,0.09941
6596.30895,0.10000
6594.38021,0.10006
6592.45146,0.09973
6590.52271,0.10015
6588.59397,0.10144
6586.66522,0.10160
6584.73648,0.09957
6582.80773,0.09772
6580.87899,0.09872
6578.95024,0.10058
6577.02150,0.10085
6575.09275,0.10126
6573.16401,0.10273
6571.23526,0.10342
6569.30652,0.10345
6567.37777,0.10364
6565.44903,0.10382
6563.52028,0.10366
6561.59154,0.10266
6559.66279,0.10089
6557.73404,0.09905
6555.80530,0.09872
6553.87655,0.10108
6551.94781,0.10390
6550.01906,0.10410
6548.09032,0.10187
6546.16157,0.09922
6544.23283,0.09746
6542.30408,0.09713
6540.37534,0.09820
6538.44659,0.09994
6536.51785,0.10084
6534.58910,0.10044
6532.66036,0.09964
6530.73161,0.09891
6528.80287,0.09821
6526.87412,0.09783
6524.94537,0.09909
6523.01663,0.10184
6521.08788,0.10340
6519.15914,0.10307
6517.23039,0.10217
6515.30165,0.10091
6513.37290,0.09984
6511.44416,0.10020
6509.51541,0.10080
6507.58667,0.10042
6505.65792,0.10129
6503.72918,0.10339
6501.80043,0.10325
6499.87169,0.10117
6497.94294,0.10077
6496.01419,0.10172
6494.08545,0.10067
6492.15670,0.09846
6490.22796,0.09818
6488.29921,0.09952
6486.37047,0.10092
6484.44172,0.10216
6482.51298,0.10207
6480.58423,0.10057
6478.65549,0.10088
6476.72674,0.10282
6474.79800,0.10297
6472.86925,0.10185
6470.94051,0.10113
6469.01176,0.10141
6467.08302,0.10312
6465.15427,0.10420
6463.22552,0.10226
6461.29678,0.09813
6459.36803,0.09566
6457.43929,0.09674
6455.51054,0.09798
6453.58180,0.09758
6451.65305,0.09783
6449.72431,0.09921
6447.79556,0.10057
6445.86682,0.10129
6443.93807,0.10108
6442.00933,0.09994
6440.08058,0.09856
6438.15184,0.09865
6436.22309,0.10050
6434.29434,0.10264
6432.36560,0.10364
6430.43685,0.10277
6428.50811,0.10144
6426.57936,0.10131
6424.65062,0.10165
6422.72187,0.10149
6420.79313,0.10169
6418.86438,0.10238
6416.93564,0.10151
6415.00689,0.09921
6413.07815,0.09794
6411.14940,0.09812
6409.22066,0.09823
6407.29191,0.09784
6405.36317,0.09778
6403.43442,0.09793
6401.50567,0.09772
6399.57693,0.09783
6397.64818,0.09830
6395.71944,0.09820
6393.79069,0.09743
6391.86195,0.09626
6389.93320,0.09533
6388.00446,0.09563
6386.07571,0.09726
6384.14697,0.09909
6382.21822,0.09997
6380.28948,0.09983
6378.36073,0.09935
6376.43199,0.09932
6374.50324,0.09924
6372.57450,0.09822
6370.64575,0.09780
6368.71700,0.09900
6366.78826,0.09935
6364.85951,0.09790
6362.93077,0.09712
6361.00202,0.09810
6359.07328,0.09890
6357.14453,0.09843
6355.21579,0.09749
6353.28704,0.09736
6351.35830,0.09841
6349.42955,0.09865
6347.50081,0.09719
6345.57206,0.09678
6343.64332,0.09861
6341.71457,0.10037
6339.78582,0.10051
6337.85708,0.10044
6335.92833,0.10102
6333.99959,0.10076
6332.07084,0.09998
6330.14210,0.10045
6328.21335,0.10062
6326.28461,0.09930
6324.35586,0.09848
6322.42712,0.09822
6320.49837,0.09724
6318.56963,0.09621
6316.64088,0.09600
6314.71214,0.09789
6312.78339,0.10139
6310.85465,0.10257
6308.92590,0.10009
6306.99715,0.09734
6305.06841,0.09691
6303.13966,0.09816
6301.21092,0.09869
6299.28217,0.09772
6297.35343,0.09718
6295.42468,0.09773
6293.49594,0.09825
6291.56719,0.09915
6289.63845,0.10091
6287.70970,0.10237
6285.78096,0.10239
6283.85221,0.10103
6281.92347,0.09913
6279.99472,0.09742
6278.06598,0.09597
6276.13723,0.09533
6274.20848,0.09641
6272.27974,0.09733
6270.35099,0.09611
6268.42225,0.09554
6266.49350,0.09743
6264.56476,0.09859
6262.63601,0.09757
6260.70727,0.09641
6258.77852,0.09621
6256.84978,0.09714
6254.92103,0.09791
6252.99229,0.09754
6251.06354,0.09747
6249.13480,0.09762
6247.20605,0.09724
6245.27730,0.09774
6243.34856,0.09902
6241.41981,0.09926
6239.49107,0.09867
6237.56232,0.09856
6235.63358,0.09873
6233.70483,0.09806
6231.77609,0.09665
6229.84734,0.09628
6227.91860,0.09711
6225.98985,0.09687
6224.06111,0.09552
6222.13236,0.09517
6220.20362,0.09558
6218.27487,0.09541
6216.34613,0.09540
6214.41738,0.09655
6212.48863,0.09759
6210.55989,0.09773
6208.63114,0.09768
6206.70240,0.09770
6204.77365,0.09763
6202.84491,0.09739
6200.91616,0.09701
6198.98742,0.09716
6197.05867,0.09800
6195.12993,0.09888
6193.20118,0.09925
6191.27244,0.09899
6189.34369,0.09817
6187.41495,0.09696
6185.48620,0.09589
6183.55746,0.09564
6181.62871,0.09646
6179.69996,0.09736
6177.77122,0.09687
6175.84247,0.09583
6173.91373,0.09531
6171.98498,0.09423
6170.05624,0.09296
6168.12749,0.09375
6166.19875,0.09623
6164.27000,0.09791
6162.34126,0.09763
6160.41251,0.09635
6158.48377,0.09629
6156.55502,0.09701
6154.62628,0.09637
6152.69753,0.09590
6150.76878,0.09717
6148.84004,0.09818
6146.91129,0.09723
6144.98255,0.09552
6143.05380,0.09479
6141.12506,0.09464
6139.19631,0.09513
6137.26757,0.09675
6135.33882,0.09782
6133.41008,0.09777
6131.48133,0.09784
6129.55259,0.09786
6127.62384,0.09686
6125.69510,0.09568
6123.76635,0.09567
6121.83761,0.09622
6119.90886,0.09630
6117.98011,0.09573
6116.05137,0.09457
6114.12262,0.09385
6112.19388,0.09431
6110.26513,0.09496
6108.33639,0.09494
6106.40764,0.09443
6104.47890,0.09395
6102.55015,0.09342
6100.62141,0.09219
6098.69266,0.09135
6096.76392,0.09201
6094.83517,0.09319
6092.90643,0.09392
6090.97768,0.09408
6089.04893,0.09438
6087.12019,0.09528
6085.19144,0.09558
6083.26270,0.09471
6081.33395,0.09417
6079.40521,0.09501
6077.47646,0.09595
6075.54772,0.09537
6073.61897,0.09358
6071.69023,0.09243
6069.76148,0.09264
6067.83274,0.09330
6065.90399,0.09373
6063.97525,0.09404
6062.04650,0.09406
6060.11776,0.09374
6058.18901,0.09401
6056.26026,0.09483
6054.33152,0.09505
6052.40277,0.09428
6050.47403,0.09287
6048.54528,0.09229
6046.61654,0.09272
6044.68779,0.09242
6042.75905,0.09194
6040.83030,0.09261
6038.90156,0.09328
6036.97281,0.09362
6035.04407,0.09467
6033.11532,0.09582
6031.18658,0.09614
6029.25783,0.09572
6027.32909,0.09507
6025.40034,0.09425
6023.47159,0.09316
6021.54285,0.09270
6019.61410,0.09311
6017.68536,0.09363
6015.75661,0.09405
6013.82787,0.09410
6011.89912,0.09410
6009.97038,0.09474
6008.04163,0.09541
6006.11289,0.09501
6004.18414,0.09422
6002.25540,0.09403
6000.32665,0.09333
5998.39791,0.09174
5996.46916,0.09096
5994.54041,0.09143
5992.61167,0.09216
5990.68292,0.09301
5988.75418,0.09392
5986.82543,0.09464
5984.89669,0.09545
5982.96794,0.09556
5981.03920,0.09442
5979.11045,0.09337
5977.18171,0.09310
5975.25296,0.09294
5973.32422,0.09286
5971.39547,0.09310
5969.46673,0.09271
5967.53798,0.09168
5965.60924,0.09127
5963.68049,0.09151
5961.75174,0.09167
5959.82300,0.09148
5957.89425,0.09093
5955.96551,0.09076
5954.03676,0.09157
5952.10802,0.09191
5950.17927,0.09062
5948.25053,0.08943
5946.32178,0.08981
5944.39304,0.09044
5942.46429,0.09032
5940.53555,0.09048
5938.60680,0.09081
5936.67806,0.09034
5934.74931,0.09016
5932.82057,0.09116
5930.89182,0.09196
5928.96307,0.09165
5927.03433,0.09127
5925.10558,0.09167
5923.17684,0.09175
5921.24809,0.09036
5919.31935,0.08862
5917.39060,0.08796
5915.46186,0.08766
5913.53311,0.08745
5911.60437,0.08860
5909.67562,0.08995
5907.74688,0.08945
5905.81813,0.08824
5903.88939,0.08758
5901.96064,0.08773
5900.03189,0.08845
5898.10315,0.08787
5896.17440,0.08567
5894.24566,0.08380
5892.31691,0.08297
5890.38817,0.08301
5888.45942,0.08379
5886.53068,0.08475
5884.60193,0.08466
5882.67319,0.08319
5880.74444,0.08186
5878.81570,0.08182
5876.88695,0.08235
5874.95821,0.08235
5873.02946,0.08218
5871.10072,0.08228
5869.17197,0.08196
5867.24322,0.08159
5865.31448,0.08177
5863.38573,0.08145
5861.45699,0.08035
5859.52824,0.07984
5857.59950,0.07969
5855.67075,0.07847
5853.74201,0.07677
5851.81326,0.07598
5849.88452,0.07649
5847.95577,0.07734
5846.02703,0.07694
5844.09828,0.07520
5842.16954,0.07396
5840.24079,0.07440
5838.31205,0.07469
5836.38330,0.07336
5834.45455,0.07234
5832.52581,0.07260
5830.59706,0.07266
5828.66832,0.07224
5826.73957,0.07262
5824.81083,0.07352
5822.88208,0.07349
5820.95334,0.07317
5819.02459,0.07374
5817.09585,0.07450
5815.16710,0.07456
5813.23836,0.07449
5811.30961,0.07516
5809.38087,0.07618
5807.45212,0.07640
5805.52337,0.07608
5803.59463,0.07607
5801.66588,0.07637
5799.73714,0.07666
5797.80839,0.07670
5795.87965,0.07687
5793.95090,0.07790
5792.02216,0.07922
5790.09341,0.07971
5788.16467,0.07974
5786.23592,0.08013
5784.30718,0.08051
5782.37843,0.08055
5780.44969,0.08037
5778.52094,0.07989
5776.59220,0.07946
5774.66345,0.07953
5772.73470,0.07999
5770.80596,0.08038
5768.87721,0.08068
5766.94847,0.08138
5765.01972,0.08170
5763.09098,0.08102
5761.16223,0.08032
5759.23349,0.08009
5757.30474,0.08022
5755.37600,0.08089
5753.44725,0.08172
5751.51851,0.08184
5749.58976,0.08110
5747.66102,0.08047
5745.73227,0.08020
5743.80352,0.07969
5741.87478,0.07899
5739.94603,0.07805
5738.01729,0.07708
5736.08854,0.07690
5734.15980,0.07757
5732.23105,0.07780
5730.30231,0.07715
5728.37356,0.07703
5726.44482,0.07784
5724.51607,0.07855
5722.58733,0.07906
5720.65858,0.07931
5718.72984,0.07933
5716.80109,0.07935
5714.87235,0.07905
5712.94360,0.07873
5711.01485,0.07835
5709.08611,0.07750
5707.15736,0.07720
5705.22862,0.07782
5703.29987,0.07802
5701.37113,0.07796
5699.44238,0.07865
5697.51364,0.07944
5695.58489,0.07963
5693.65615,0.07976
5691.72740,0.08017
5689.79866,0.08031
5687.86991,0.07978
5685.94117,0.07919
5684.01242,0.07881
5682.08368,0.07878
5680.15493,0.07940
5678.22618,0.08018
5676.29744,0.08063
5674.36869,0.08110
5672.43995,0.08178
5670.51120,0.08162
5668.58246,0.08084
5666.65371,0.08081
5664.72497,0.08086
5662.79622,0.08031
5660.86748,0.07992
5658.93873,0.08051
5657.00999,0.08190
5655.08124,0.08208
5653.15250,0.08065
5651.22375,0.08006
5649.29500,0.08108
5647.36626,0.08193
5645.43751,0.08183
5643.50877,0.08180
5641.58002,0.08234
5639.65128,0.08294
5637.72253,0.08290
5635.79379,0.08224
5633.86504,0.08173
5631.93630,0.08176
5630.00755,0.08214
5628.07881,0.08249
5626.15006,0.08226
5624.22132,0.08169
5622.29257,0.08177
5620.36383,0.08242
5618.43508,0.08276
5616.50633,0.08271
5614.57759,0.08252
5612.64884,0.08223
5610.72010,0.08202
5608.79135,0.08224
5606.86261,0.08267
5604.93386,0.08266
5603.00512,0.08225
5601.07637,0.08181
5599.14763,0.08148
5597.21888,0.08165
5595.29014,0.08244
5593.36139,0.08326
5591.43265,0.08345
5589.50390,0.08295
5587.57516,0.08259
5585.64641,0.08264
5583.71766,0.08242
5581.78892,0.08230
5579.86017,0.08275
5577.93143,0.08295
5576.00268,0.08270
5574.07394,0.08248
5572.14519,0.08234
5570.21645,0.08225
5568.28770,0.08216
5566.35896,0.08222
5564.43021,0.08284
5562.50147,0.08364
5560.57272,0.08393
5558.64398,0.08399
5556.71523,0.08441
5554.78648,0.08488
5552.85774,0.08448
5550.92899,0.08315
5549.00025,0.08205
5547.07150,0.08196
5545.14276,0.08231
5543.21401,0.08258
5541.28527,0.08286
5539.35652,0.08331
5537.42778,0.08390
5535.49903,0.08428
5533.57029,0.08452
5531.64154,0.08497
5529.71280,0.08490
5527.78405,0.08386
5525.85531,0.08261
5523.92656,0.08210
5521.99781,0.08243
5520.06907,0.08262
5518.14032,0.08246
5516.21158,0.08254
5514.28283,0.08280
5512.35409,0.08364
5510.42534,0.08498
5508.49660,0.08532
5506.56785,0.08466
5504.63911,0.08439
5502.71036,0.08441
5500.78162,0.08402
5498.85287,0.08349
5496.92413,0.08346
5494.99538,0.08416
5493.06664,0.08448
5491.13789,0.08332
5489.20914,0.08218
5487.28040,0.08275
5485.35165,0.08393
5483.42291,0.08414
5481.49416,0.08337
5479.56542,0.08246
5477.63667,0.08228
5475.70793,0.08246
5473.77918,0.08231
5471.85044,0.08223
5469.92169,0.08242
5467.99295,0.08229
5466.06420,0.08200
5464.13546,0.08212
5462.20671,0.08237
5460.27796,0.08232
5458.34922,0.08226
5456.42047,0.08219
5454.49173,0.08193
5452.56298,0.08169
5450.63424,0.08132
5448.70549,0.08090
5446.77675,0.08127
5444.84800,0.08252
5442.91926,0.08354
5440.99051,0.08331
5439.06177,0.08232
5437.13302,0.08191
5435.20428,0.08246
5433.27553,0.08310
5431.34679,0.08312
5429.41804,0.08298
5427.48929,0.08327
5425.56055,0.08367
5423.63180,0.08379
5421.70306,0.08343
5419.77431,0.08286
5417.84557,0.08275
5415.91682,0.08326
5413.98808,0.08364
5412.05933,0.08326
5410.13059,0.08302
5408.20184,0.08351
5406.27310,0.08356
5404.34435,0.08302
5402.41561,0.08313
5400.48686,0.08360
5398.55811,0.08328
5396.62937,0.08249
5394.70062,0.08244
5392.77188,0.08341
5390.84313,0.08415
5388.91439,0.08379
5386.98564,0.08317
5385.05690,0.08307
5383.12815,0.08339
5381.19941,0.08393
5379.27066,0.08434
5377.34192,0.08431
5375.41317,0.08404
5373.48443,0.08373
5371.55568,0.08361
5369.62694,0.08381
5367.69819,0.08393
5365.76944,0.08360
5363.84070,0.08324
5361.91195,0.08311
5359.98321,0.08264
5358.05446,0.08206
5356.12572,0.08232
5354.19697,0.08306
5352.26823,0.08343
5350.33948,0.08336
5348.41074,0.08324
5346.48199,0.08333
5344.55325,0.08360
5342.62450,0.08391
5340.69576,0.08384
5338.76701,0.08345
5336.83827,0.08354
5334.90952,0.08438
5332.98077,0.08543
5331.05203,0.08566
5329.12328,0.08445
5327.19454,0.08303
5325.26579,0.08279
5323.33705,0.08346
5321.40830,0.08404
5319.47956,0.08415
5317.55081,0.08399
5315.62207,0.08369
5313.69332,0.08320
5311.76458,0.08285
5309.83583,0.08300
5307.90709,0.08339
5305.97834,0.08349
5304.04959,0.08332
5302.12085,0.08332
5300.19210,0.08356
5298.26336,0.08372
5296.33461,0.08382
5294.40587,0.08409
5292.47712,0.08435
5290.54838,0.08432
5288.61963,0.08411
5286.69089,0.08392
5284.76214,0.08386
5282.83340,0.08375
5280.90465,0.08332
5278.97591,0.08304
5277.04716,0.08312
5275.11842,0.08295
5273.18967,0.08274
5271.26092,0.08285
5269.33218,0.08252
5267.40343,0.08164
5265.47469,0.08145
5263.54594,0.08195
5261.61720,0.08192
5259.68845,0.08193
5257.75971,0.08300
5255.83096,0.08385
5253.90222,0.08364
5251.97347,0.08345
5250.04473,0.08333
5248.11598,0.08283
5246.18724,0.08274
5244.25849,0.08331
5242.32975,0.08357
5240.40100,0.08321
5238.47225,0.08303
5236.54351,0.08353
5234.61476,0.08425
5232.68602,0.08426
5230.75727,0.08343
5228.82853,0.08269
5226.89978,0.08247
5224.97104,0.08249
5223.04229,0.08261
5221.11355,0.08266
5219.18480,0.08264
5217.25606,0.08286
5215.32731,0.08307
5213.39857,0.08312
5211.46982,0.08344
5209.54107,0.08388
5207.61233,0.08392
5205.68358,0.08340
5203.75484,0.08240
5201.82609,0.08156
5199.89735,0.08177
5197.96860,0.08281
5196.03986,0.08347
5194.11111,0.08344
5192.18237,0.08328
5190.25362,0.08301
5188.32488,0.08267
5186.39613,0.08271
5184.46739,0.08299
5182.53864,0.08319
5180.60990,0.08353
5178.68115,0.08381
5176.75240,0.08345
5174.82366,0.08263
5172.89491,0.08210
5170.96617,0.08242
5169.03742,0.08351
5167.10868,0.08408
5165.17993,0.08335
5163.25119,0.08242
5161.32244,0.08242
5159.39370,0.08308
5157.46495,0.08352
5155.53621,0.08351
5153.60746,0.08357
5151.67872,0.08374
5149.74997,0.08365
5147.82123,0.08328
5145.89248,0.08292
5143.96373,0.08262
5142.03499,0.08223
5140.10624,0.08191
5138.17750,0.08201
5136.24875,0.08233
5134.32001,0.08231
5132.39126,0.08199
5130.46252,0.08163
5128.53377,0.08126
5126.60503,0.08138
5124.67628,0.08221
5122.74754,0.08291
5120.81879,0.08281
5118.89005,0.08236
5116.96130,0.08212
5115.03255,0.08218
5113.10381,0.08253
5111.17506,0.08258
5109.24632,0.08208
5107.31757,0.08191
5105.38883,0.08222
5103.46008,0.08250
5101.53134,0.08263
5099.60259,0.08232
5097.67385,0.08156
5095.74510,0.08110
5093.81636,0.08156
5091.88761,0.08239
5089.95887,0.08258
5088.03012,0.08244
5086.10138,0.08259
5084.17263,0.08289
5082.24388,0.08296
5080.31514,0.08240
5078.38639,0.08143
5076.45765,0.08114
5074.52890,0.08188
5072.60016,0.08261
5070.67141,0.08221
5068.74267,0.08121
5066.81392,0.08104
5064.88518,0.08212
5062.95643,0.08333
5061.02769,0.08331
5059.09894,0.08214
5057.17020,0.08128
5055.24145,0.08157
5053.31270,0.08235
5051.38396,0.08263
5049.45521,0.08231
5047.52647,0.08211
5045.59772,0.08219
5043.66898,0.08231
5041.74023,0.08260
5039.81149,0.08271
5037.88274,0.08219
5035.95400,0.08155
5034.02525,0.08133
5032.09651,0.08125
5030.16776,0.08127
5028.23902,0.08159
5026.31027,0.08183
5024.38153,0.08185
5022.45278,0.08202
5020.52403,0.08223
5018.59529,0.08237
5016.66654,0.08226
5014.73780,0.08162
5012.80905,0.08118
5010.88031,0.08161
5008.95156,0.08233
5007.02282,0.08256
5005.09407,0.08229
5003.16533,0.08194
5001.23658,0.08192
4999.30784,0.08205
4997.37909,0.08185
4995.45035,0.08131
4993.52160,0.08119
4991.59286,0.08180
4989.66411,0.08230
4987.73536,0.08213
4985.80662,0.08149
4983.87787,0.08088
4981.94913,0.08078
4980.02038,0.08097
4978.09164,0.08107
4976.16289,0.08128
4974.23415,0.08140
4972.30540,0.08108
4970.37666,0.08059
4968.44791,0.08031
4966.51917,0.08032
4964.59042,0.08046
4962.66168,0.08072
4960.73293,0.08125
4958.80418,0.08165
4956.87544,0.08137
4954.94669,0.08088
4953.01795,0.08124
4951.08920,0.08220
4949.16046,0.08249
4947.23171,0.08199
4945.30297,0.08150
4943.37422,0.08133
4941.44548,0.08145
4939.51673,0.08157
4937.58799,0.08117
4935.65924,0.08031
4933.73050,0.07978
4931.80175,0.07998
4929.87301,0.08029
4927.94426,0.08036
4926.01551,0.08060
4924.08677,0.08081
4922.15802,0.08063
4920.22928,0.08060
4918.30053,0.08102
4916.37179,0.08144
4914.44304,0.08161
4912.51430,0.08170
4910.58555,0.08174
4908.65681,0.08155
4906.72806,0.08123
4904.79932,0.08100
4902.87057,0.08078
4900.94183,0.08085
4899.01308,0.08137
4897.08434,0.08178
4895.15559,0.08170
4893.22684,0.08120
4891.29810,0.08072
4889.36935,0.08074
4887.44061,0.08093
4885.51186,0.08087
4883.58312,0.08080
4881.65437,0.08090
4879.72563,0.08114
4877.79688,0.08114
4875.86814,0.08045
4873.93939,0.07970
4872.01065,0.07978
4870.08190,0.08023
4868.15316,0.08044
4866.22441,0.08052
4864.29566,0.08070
4862.36692,0.08107
4860.43817,0.08114
4858.50943,0.08053
4856.58068,0.07993
4854.65194,0.07984
4852.72319,0.07995
4850.79445,0.08000
4848.86570,0.08005
4846.93696,0.08030
4845.00821,0.08054
4843.07947,0.08020
4841.15072,0.07961
4839.22198,0.07946
4837.29323,0.07943
4835.36449,0.07931
4833.43574,0.07959
4831.50699,0.08018
4829.57825,0.08053
4827.64950,0.08068
4825.72076,0.08100
4823.79201,0.08125
4821.86327,0.08099
4819.93452,0.08050
4818.00578,0.08010
4816.07703,0.07955
4814.14829,0.07931
4812.21954,0.07987
4810.29080,0.08039
4808.36205,0.08026
4806.43331,0.07992
4804.50456,0.07986
4802.57582,0.08023
4800.64707,0.08050
4798.71832,0.08034
4796.78958,0.08024
4794.86083,0.08020
4792.93209,0.07994
4791.00334,0.07986
4789.07460,0.08024
4787.14585,0.08049
4785.21711,0.08009
4783.28836,0.07952
4781.35962,0.07934
4779.43087,0.07933
4777.50213,0.07924
4775.57338,0.07946
4773.64464,0.08005
4771.71589,0.08044
4769.78714,0.08038
4767.85840,0.08015
4765.92965,0.08025
4764.00091,0.08050
4762.07216,0.08033
4760.14342,0.07985
4758.21467,0.07938
4756.28593,0.07905
4754.35718,0.07941
4752.42844,0.08012
4750.49969,0.08010
4748.57095,0.07971
4746.64220,0.07968
4744.71346,0.07962
4742.78471,0.07930
4740.85597,0.07907
4738.92722,0.07910
4736.99847,0.07912
4735.06973,0.07903
4733.14098,0.07924
4731.21224,0.07974
4729.28349,0.08011
4727.35475,0.08022
4725.42600,0.08008
4723.49726,0.07979
4721.56851,0.07948
4719.63977,0.07933
4717.71102,0.07941
4715.78228,0.07964
4713.85353,0.07987
4711.92479,0.07995
4709.99604,0.07982
4708.06729,0.07925
4706.13855,0.07847
4704.20980,0.07834
4702.28106,0.07890
4700.35231,0.07938
4698.42357,0.07923
4696.49482,0.07850
4694.56608,0.07783
4692.63733,0.07782
4690.70859,0.07826
4688.77984,0.07867
4686.85110,0.07897
4684.92235,0.07917
4682.99361,0.07913
4681.06486,0.07894
4679.13612,0.07904
4677.20737,0.07931
4675.27862,0.07922
4673.34988,0.07879
4671.42113,0.07847
4669.49239,0.07831
4667.56364,0.07814
4665.63490,0.07791
4663.70615,0.07764
4661.77741,0.07761
4659.84866,0.07797
4657.91992,0.07842
4655.99117,0.07868
4654.06243,0.07875
4652.13368,0.07867
4650.20494,0.07849
4648.27619,0.07843
4646.34745,0.07858
4644.41870,0.07857
4642.48995,0.07821
4640.56121,0.07793
4638.63246,0.07809
4636.70372,0.07853
4634.77497,0.07868
4632.84623,0.07823
4630.91748,0.07770
4628.98874,0.07777
4627.05999,0.07819
4625.13125,0.07853
4623.20250,0.07862
4621.27376,0.07842
4619.34501,0.07812
4617.41627,0.07797
4615.48752,0.07795
4613.55877,0.07786
4611.63003,0.07783
4609.70128,0.07803
4607.77254,0.07802
4605.84379,0.07780
4603.91505,0.07797
4601.98630,0.07841
4600.05756,0.07856
4598.12881,0.07858
4596.20007,0.07855
4594.27132,0.07824
4592.34258,0.07809
4590.41383,0.07854
4588.48509,0.07886
4586.55634,0.07856
4584.62760,0.07827
4582.69885,0.07825
4580.77010,0.07815
4578.84136,0.07807
4576.91261,0.07819
4574.98387,0.07831
4573.05512,0.07809
4571.12638,0.07744
4569.19763,0.07672
4567.26889,0.07663
4565.34014,0.07713
4563.41140,0.07754
4561.48265,0.07757
4559.55391,0.07723
4557.62516,0.07688
4555.69642,0.07701
4553.76767,0.07742
4551.83893,0.07776
4549.91018,0.07785
4547.98143,0.07749
4546.05269,0.07695
4544.12394,0.07694
4542.19520,0.07744
4540.26645,0.07757
4538.33771,0.07702
4536.40896,0.07632
4534.48022,0.07598
4532.55147,0.07603
4530.62273,0.07631
4528.69398,0.07677
4526.76524,0.07723
4524.83649,0.07742
4522.90775,0.07735
4520.97900,0.07714
4519.05025,0.07696
4517.12151,0.07683
4515.19276,0.07660
4513.26402,0.07614
4511.33527,0.07575
4509.40653,0.07576
4507.47778,0.07588
4505.54904,0.07599
4503.62029,0.07627
4501.69155,0.07636
4499.76280,0.07607
4497.83406,0.07583
4495.90531,0.07579
4493.97657,0.07575
4492.04782,0.07565
4490.11908,0.07536
4488.19033,0.07496
4486.26158,0.07466
4484.33284,0.07444
4482.40409,0.07430
4480.47535,0.07441
4478.54660,0.07465
4476.61786,0.07462
4474.68911,0.07418
4472.76037,0.07362
4470.83162,0.07331
4468.90288,0.07333
4466.97413,0.07336
4465.04539,0.07317
4463.11664,0.07291
4461.18790,0.07279
4459.25915,0.07265
4457.33041,0.07245
4455.40166,0.07245
4453.47291,0.07262
4451.54417,0.07270
4449.61542,0.07264
4447.68668,0.07249
4445.75793,0.07240
4443.82919,0.07235
4441.90044,0.07199
4439.97170,0.07142
4438.04295,0.07090
4436.11421,0.07036
4434.18546,0.07001
4432.25672,0.06988
4430.32797,0.06963
4428.39923,0.06939
4426.47048,0.06949
4424.54173,0.06967
4422.61299,0.06966
4420.68424,0.06934
4418.75550,0.06875
4416.82675,0.06831
4414.89801,0.06820
4412.96926,0.06803
4411.04052,0.06773
4409.11177,0.06763
4407.18303,0.06778
4405.25428,0.06799
4403.32554,0.06796
4401.39679,0.06743
4399.46805,0.06670
4397.53930,0.06630
4395.61056,0.06615
4393.68181,0.06595
4391.75306,0.06556
4389.82432,0.06512
4387.89557,0.06482
4385.96683,0.06468
4384.03808,0.06477
4382.10934,0.06497
4380.18059,0.06474
4378.25185,0.06394
4376.32310,0.06316
4374.39436,0.06291
4372.46561,0.06301
4370.53687,0.06295
4368.60812,0.06248
4366.67938,0.06187
4364.75063,0.06151
4362.82189,0.06136
4360.89314,0.06113
4358.96439,0.06092
4357.03565,0.06070
4355.10690,0.06034
4353.17816,0.06023
4351.24941,0.06038
4349.32067,0.06042
4347.39192,0.06040
4345.46318,0.06035
4343.53443,0.06024
4341.60569,0.06014
4339.67694,0.05989
4337.74820,0.05967
4335.81945,0.05990
4333.89071,0.06039
4331.96196,0.06037
4330.03321,0.05974
4328.10447,0.05922
4326.17572,0.05924
4324.24698,0.05952
4322.31823,0.05965
4320.38949,0.05960
4318.46074,0.05982
4316.53200,0.06037
4314.60325,0.06071
4312.67451,0.06077
4310.74576,0.06084
4308.81702,0.06097
4306.88827,0.06123
4304.95953,0.06146
4303.03078,0.06130
4301.10204,0.06102
4299.17329,0.06119
4297.24454,0.06160
4295.31580,0.06152
4293.38705,0.06108
4291.45831,0.06090
4289.52956,0.06093
4287.60082,0.06096
4285.67207,0.06097
4283.74333,0.06099
4281.81458,0.06123
4279.88584,0.06159
4277.95709,0.06165
4276.02835,0.06146
4274.09960,0.06148
4272.17086,0.06182
4270.24211,0.06213
4268.31336,0.06226
4266.38462,0.06224
4264.45587,0.06190
4262.52713,0.06140
4260.59838,0.06125
4258.66964,0.06141
4256.74089,0.06148
4254.81215,0.06147
4252.88340,0.06149
4250.95466,0.06140
4249.02591,0.06125
4247.09717,0.06123
4245.16842,0.06131
4243.23968,0.06149
4241.31093,0.06169
4239.38219,0.06164
4237.45344,0.06139
4235.52469,0.06113
4233.59595,0.06080
4231.66720,0.06054
4229.73846,0.06050
4227.80971,0.06055
4225.88097,0.06055
4223.95222,0.06066
4222.02348,0.06094
4220.09473,0.06095
4218.16599,0.06062
4216.23724,0.06046
4214.30850,0.06048
4212.37975,0.06045
4210.45101,0.06046
4208.52226,0.06060
4206.59352,0.06097
4204.66477,0.06133
4202.73602,0.06131
4200.80728,0.06120
4198.87853,0.06144
4196.94979,0.06174
4195.02104,0.06162
4193.09230,0.06125
4191.16355,0.06095
4189.23481,0.06081
4187.30606,0.06102
4185.37732,0.06140
4183.44857,0.06135
4181.51983,0.06096
4179.59108,0.06067
4177.66234,0.06058
4175.73359,0.06067
4173.80484,0.06101
4171.87610,0.06129
4169.94735,0.06121
4168.01861,0.06103
4166.08986,0.06112
4164.16112,0.06138
4162.23237,0.06145
4160.30363,0.06139
4158.37488,0.06146
4156.44614,0.06154
4154.51739,0.06145
4152.58865,0.06131
4150.65990,0.06125
4148.73116,0.06126
4146.80241,0.06130
4144.87367,0.06137
4142.94492,0.06162
4141.01617,0.06209
4139.08743,0.06248
4137.15868,0.06253
4135.22994,0.06225
4133.30119,0.06190
4131.37245,0.06171
4129.44370,0.06181
4127.51496,0.06226
4125.58621,0.06281
4123.65747,0.06300
4121.72872,0.06291
4119.79998,0.06279
4117.87123,0.06259
4115.94249,0.06250
4114.01374,0.06260
4112.08500,0.06241
4110.15625,0.06213
4108.22750,0.06233
4106.29876,0.06257
4104.37001,0.06249
4102.44127,0.06246
4100.51252,0.06261
4098.58378,0.06285
4096.65503,0.06319
4094.72629,0.06341
4092.79754,0.06328
4090.86880,0.06296
4088.94005,0.06276
4087.01131,0.06269
4085.08256,0.06261
4083.15382,0.06254
4081.22507,0.06259
4079.29632,0.06261
4077.36758,0.06237
4075.43883,0.06208
4073.51009,0.06208
4071.58134,0.06228
4069.65260,0.06243
4067.72385,0.06237
4065.79511,0.06220
4063.86636,0.06229
4061.93762,0.06251
4060.00887,0.06259
4058.08013,0.06258
4056.15138,0.06243
4054.22264,0.06242
4052.29389,0.06298
4050.36515,0.06353
4048.43640,0.06350
4046.50765,0.06318
4044.57891,0.06301
4042.65016,0.06305
4040.72142,0.06316
4038.79267,0.06318
4036.86393,0.06314
4034.93518,0.06318
4033.00644,0.06316
4031.07769,0.06296
4029.14895,0.06287
4027.22020,0.06292
4025.29146,0.06283
4023.36271,0.06285
4021.43397,0.06316
4019.50522,0.06340
4017.57648,0.06345
4015.64773,0.06339
4013.71898,0.06324
4011.79024,0.06302
4009.86149,0.06295
4007.93275,0.06325
4006.00400,0.06354
4004.07526,0.06343
4002.14651,0.06311
4000.21777,0.06291
3998.28902,0.06300
3996.36028,0.06324
3994.43153,0.06332
3992.50279,0.06328
3990.57404,0.06339
3988.64530,0.06366
3986.71655,0.06386
3984.78780,0.06390
3982.85906,0.06382
3980.93031,0.06369
3979.00157,0.06363
3977.07282,0.06383
3975.14408,0.06423
3973.21533,0.06440
3971.28659,0.06428
3969.35784,0.06421
3967.42910,0.06426
3965.50035,0.06426
3963.57161,0.06417
3961.64286,0.06425
3959.71412,0.06453
3957.78537,0.06452
3955.85663,0.06420
3953.92788,0.06401
3951.99913,0.06408
3950.07039,0.06427
3948.14164,0.06436
3946.21290,0.06438
3944.28415,0.06456
3942.35541,0.06485
3940.42666,0.06481
3938.49792,0.06442
3936.56917,0.06415
3934.64043,0.06413
3932.71168,0.06418
3930.78294,0.06427
3928.85419,0.06431
3926.92545,0.06425
3924.99670,0.06421
3923.06795,0.06419
3921.13921,0.06425
3919.21046,0.06442
3917.28172,0.06445
3915.35297,0.06442
3913.42423,0.06450
3911.49548,0.06439
3909.56674,0.06423
3907.63799,0.06431
3905.70925,0.06424
3903.78050,0.06399
3901.85176,0.06382
3899.92301,0.06371
3897.99427,0.06377
3896.06552,0.06399
3894.13678,0.06393
3892.20803,0.06354
3890.27928,0.06331
3888.35054,0.06366
3886.42179,0.06429
3884.49305,0.06451
3882.56430,0.06422
3880.63556,0.06387
3878.70681,0.06380
3876.77807,0.06398
3874.84932,0.06413
3872.92058,0.06414
3870.99183,0.06406
3869.06309,0.06398
3867.13434,0.06398
3865.20560,0.06396
3863.27685,0.06389
3861.34811,0.06378
3859.41936,0.06363
3857.49061,0.06369
3855.56187,0.06396
3853.63312,0.06396
3851.70438,0.06366
3849.77563,0.06352
3847.84689,0.06359
3845.91814,0.06385
3843.98940,0.06419
3842.06065,0.06442
3840.13191,0.06433
3838.20316,0.06390
3836.27442,0.06360
3834.34567,0.06364
3832.41693,0.06371
3830.48818,0.06357
3828.55943,0.06349
3826.63069,0.06373
3824.70194,0.06407
3822.77320,0.06423
3820.84445,0.06422
3818.91571,0.06423
3816.98696,0.06437
3815.05822,0.06444
3813.12947,0.06443
3811.20073,0.06439
3809.27198,0.06429
3807.34324,0.06418
3805.41449,0.06413
3803.48575,0.06397
3801.55700,0.06370
3799.62826,0.06371
3797.69951,0.06398
3795.77076,0.06403
3793.84202,0.06393
3791.91327,0.06415
3789.98453,0.06458
3788.05578,0.06467
3786.12704,0.06436
3784.19829,0.06418
3782.26955,0.06429
3780.34080,0.06451
3778.41206,0.06480
3776.48331,0.06489
3774.55457,0.06462
3772.62582,0.06433
3770.69708,0.06425
3768.76833,0.06424
3766.83959,0.06408
3764.91084,0.06397
3762.98209,0.06431
3761.05335,0.06485
3759.12460,0.06495
3757.19586,0.06464
3755.26711,0.06446
3753.33837,0.06446
3751.40962,0.06434
3749.48088,0.06438
3747.55213,0.06474
3745.62339,0.06483
3743.69464,0.06457
3741.76590,0.06462
3739.83715,0.06492
3737.90841,0.06495
3735.97966,0.06481
3734.05091,0.06492
3732.12217,0.06524
3730.19342,0.06550
3728.26468,0.06568
3726.33593,0.06562
3724.40719,0.06523
3722.47844,0.06484
3720.54970,0.06479
3718.62095,0.06498
3716.69221,0.06515
3714.76346,0.06525
3712.83472,0.06518
3710.90597,0.06485
3708.97723,0.06453
3707.04848,0.06433
3705.11974,0.06413
3703.19099,0.06393
3701.26224,0.06392
3699.33350,0.06401
3697.40475,0.06385
3695.47601,0.06344
3693.54726,0.06299
3691.61852,0.06266
3689.68977,0.06257
3687.76103,0.06247
3685.83228,0.06216
3683.90354,0.06189
3681.97479,0.06176
3680.04605,0.06156
3678.11730,0.06127
3676.18856,0.06106
3674.25981,0.06101
3672.33107,0.06120
3670.40232,0.06147
3668.47357,0.06157
3666.54483,0.06160
3664.61608,0.06172
3662.68734,0.06176
3660.75859,0.06165
3658.82985,0.06157
3656.90110,0.06161
3654.97236,0.06180
3653.04361,0.06203
3651.11487,0.06195
3649.18612,0.06164
3647.25738,0.06149
3645.32863,0.06145
3643.39989,0.06136
3641.47114,0.06144
3639.54239,0.06187
3637.61365,0.06230
3635.68490,0.06225
3633.75616,0.06182
3631.82741,0.06146
3629.89867,0.06136
3627.96992,0.06120
3626.04118,0.06099
3624.11243,0.06099
3622.18369,0.06116
3620.25494,0.06128
3618.32620,0.06109
3616.39745,0.06066
3614.46871,0.06040
3612.53996,0.06038
3610.61122,0.06049
3608.68247,0.06069
3606.75372,0.06087
3604.82498,0.06095
3602.89623,0.06077
3600.96749,0.06036
3599.03874,0.06005
3597.11000,0.06008
3595.18125,0.06036
3593.25251,0.06052
3591.32376,0.06052
3589.39502,0.06064
3587.46627,0.06071
3585.53753,0.06054
3583.60878,0.06041
3581.68004,0.06036
3579.75129,0.06024
3577.82254,0.06003
3575.89380,0.05985
3573.96505,0.05982
3572.03631,0.05997
3570.10756,0.06014
3568.17882,0.06024
3566.25007,0.06024
3564.32133,0.06013
3562.39258,0.06009
3560.46384,0.06008
3558.53509,0.05978
3556.60635,0.05949
3554.67760,0.05962
3552.74886,0.05988
3550.82011,0.05981
3548.89137,0.05956
3546.96262,0.05955
3545.03387,0.05971
3543.10513,0.05973
3541.17638,0.05970
3539.24764,0.05955
3537.31889,0.05919
3535.39015,0.05909
3533.46140,0.05954
3531.53266,0.06003
3529.60391,0.06005
3527.67517,0.05974
3525.74642,0.05949
3523.81768,0.05938
3521.88893,0.05943
3519.96019,0.05962
3518.03144,0.05961
3516.10270,0.05941
3514.17395,0.05942
3512.24520,0.05946
3510.31646,0.05928
3508.38771,0.05918
3506.45897,0.05937
3504.53022,0.05977
3502.60148,0.06007
3500.67273,0.05992
3498.74399,0.05951
3496.81524,0.05947
3494.88650,0.05978
3492.95775,0.05994
3491.02901,0.05980
3489.10026,0.05961
3487.17152,0.05954
3485.24277,0.05954
3483.31402,0.05949
3481.38528,0.05946
3479.45653,0.05950
3477.52779,0.05945
3475.59904,0.05931
3473.67030,0.05922
3471.74155,0.05908
3469.81281,0.05884
3467.88406,0.05882
3465.95532,0.05908
3464.02657,0.05912
3462.09783,0.05882
3460.16908,0.05853
3458.24034,0.05831
3456.31159,0.05810
3454.38285,0.05799
3452.45410,0.05798
3450.52535,0.05817
3448.59661,0.05851
3446.66786,0.05850
3444.73912,0.05810
3442.81037,0.05799
3440.88163,0.05837
3438.95288,0.05873
3437.02414,0.05864
3435.09539,0.05829
3433.16665,0.05815
3431.23790,0.05844
3429.30916,0.05876
3427.38041,0.05877
3425.45167,0.05873
3423.52292,0.05885
3421.59418,0.05898
3419.66543,0.05901
3417.73668,0.05901
3415.80794,0.05886
3413.87919,0.05842
3411.95045,0.05808
3410.02170,0.05826
3408.09296,0.05873
3406.16421,0.05904
3404.23547,0.05893
3402.30672,0.05850
3400.37798,0.05816
3398.44923,0.05823
3396.52049,0.05853
3394.59174,0.05881
3392.66300,0.05918
3390.73425,0.05955
3388.80550,0.05971
3386.87676,0.05967
3384.94801,0.05941
3383.01927,0.05894
3381.09052,0.05841
3379.16178,0.05828
3377.23303,0.05879
3375.30429,0.05946
3373.37554,0.05952
3371.44680,0.05875
3369.51805,0.05803
3367.58931,0.05794
3365.66056,0.05800
3363.73182,0.05794
3361.80307,0.05800
3359.87433,0.05819
3357.94558,0.05848
3356.01683,0.05862
3354.08809,0.05857
3352.15934,0.05868
3350.23060,0.05889
3348.30185,0.05892
3346.37311,0.05883
3344.44436,0.05871
3342.51562,0.05854
3340.58687,0.05823
3338.65813,0.05779
3336.72938,0.05754
3334.80064,0.05763
3332.87189,0.05790
3330.94315,0.05823
3329.01440,0.05836
3327.08566,0.05818
3325.15691,0.05786
3323.22816,0.05751
3321.29942,0.05755
3319.37067,0.05800
3317.44193,0.05809
3315.51318,0.05760
3313.58444,0.05712
3311.65569,0.05697
3309.72695,0.05718
3307.79820,0.05777
3305.86946,0.05834
3303.94071,0.05837
3302.01197,0.05816
3300.08322,0.05807
3298.15448,0.05805
3296.22573,0.05821
3294.29698,0.05831
3292.36824,0.05808
3290.43949,0.05783
3288.51075,0.05782
3286.58200,0.05807
3284.65326,0.05846
3282.72451,0.05875
3280.79577,0.05891
3278.86702,0.05900
3276.93828,0.05893
3275.00953,0.05880
3273.08079,0.05875
3271.15204,0.05857
3269.22330,0.05823
3267.29455,0.05814
3265.36581,0.05833
3263.43706,0.05834
3261.50831,0.05818
3259.57957,0.05835
3257.65082,0.05883
3255.72208,0.05920
3253.79333,0.05945
3251.86459,0.05962
3249.93584,0.05965
3248.00710,0.05943
3246.07835,0.05885
3244.14961,0.05807
3242.22086,0.05764
3240.29212,0.05774
3238.36337,0.05772
3236.43463,0.05747
3234.50588,0.05744
3232.57713,0.05772
3230.64839,0.05806
3228.71964,0.05799
3226.79090,0.05750
3224.86215,0.05743
3222.93341,0.05788
3221.00466,0.05814
3219.07592,0.05825
3217.14717,0.05842
3215.21843,0.05844
3213.28968,0.05852
3211.36094,0.05854
3209.43219,0.05821
3207.50345,0.05798
3205.57470,0.05804
3203.64596,0.05821
3201.71721,0.05831
3199.78846,0.05831
3197.85972,0.05838
3195.93097,0.05842
3194.00223,0.05815
3192.07348,0.05765
3190.14474,0.05757
3188.21599,0.05794
3186.28725,0.05805
3184.35850,0.05797
3182.42976,0.05818
3180.50101,0.05853
3178.57227,0.05857
3176.64352,0.05827
3174.71478,0.05792
3172.78603,0.05778
3170.85729,0.05786
3168.92854,0.05787
3166.99979,0.05773
3165.07105,0.05769
3163.14230,0.05775
3161.21356,0.05791
3159.28481,0.05835
3157.35607,0.05878
3155.42732,0.05864
3153.49858,0.05824
3151.56983,0.05816
3149.64109,0.05826
3147.71234,0.05818
3145.78360,0.05802
3143.85485,0.05794
3141.92611,0.05768
3139.99736,0.05740
3138.06861,0.05770
3136.13987,0.05839
3134.21112,0.05871
3132.28238,0.05844
3130.35363,0.05809
3128.42489,0.05806
3126.49614,0.05817
3124.56740,0.05820
3122.63865,0.05804
3120.70991,0.05792
3118.78116,0.05789
3116.85242,0.05777
3114.92367,0.05762
3112.99493,0.05754
3111.06618,0.05757
3109.13744,0.05774
3107.20869,0.05784
3105.27994,0.05772
3103.35120,0.05760
3101.42245,0.05772
3099.49371,0.05788
3097.56496,0.05798
3095.63622,0.05821
3093.70747,0.05843
3091.77873,0.05819
3089.84998,0.05754
3087.92124,0.05707
3085.99249,0.05712
3084.06375,0.05731
3082.13500,0.05721
3080.20626,0.05689
3078.27751,0.05664
3076.34877,0.05660
3074.42002,0.05675
3072.49127,0.05684
3070.56253,0.05670
3068.63378,0.05655
3066.70504,0.05663
3064.77629,0.05675
3062.84755,0.05673
3060.91880,0.05668
3058.99006,0.05664
3057.06131,0.05666
3055.13257,0.05666
3053.20382,0.05651
3051.27508,0.05639
3049.34633,0.05639
3047.41759,0.05621
3045.48884,0.05590
3043.56009,0.05583
3041.63135,0.05594
3039.70260,0.05596
3037.77386,0.05592
3035.84511,0.05590
3033.91637,0.05581
3031.98762,0.05564
3030.05888,0.05568
3028.13013,0.05581
3026.20139,0.05570
3024.27264,0.05548
3022.34390,0.05533
3020.41515,0.05527
3018.48641,0.05539
3016.55766,0.05558
3014.62892,0.05557
3012.70017,0.05530
3010.77142,0.05510
3008.84268,0.05520
3006.91393,0.05528
3004.98519,0.05507
3003.05644,0.05483
3001.12770,0.05476
2999.19895,0.05469
2997.27021,0.05461
2995.34146,0.05468
2993.41272,0.05480
2991.48397,0.05469
2989.55523,0.05434
2987.62648,0.05404
2985.69774,0.05384
2983.76899,0.05375
2981.84025,0.05377
2979.91150,0.05382
2977.98275,0.05386
2976.05401,0.05385
2974.12526,0.05379
2972.19652,0.05375
2970.26777,0.05374
2968.33903,0.05374
2966.41028,0.05391
2964.48154,0.05423
2962.55279,0.05438
2960.62405,0.05434
2958.69530,0.05426
2956.76656,0.05426
2954.83781,0.05436
2952.90907,0.05441
2950.98032,0.05434
2949.05157,0.05428
2947.12283,0.05418
2945.19408,0.05403
2943.26534,0.05403
2941.33659,0.05416
2939.40785,0.05423
2937.47910,0.05436
2935.55036,0.05470
2933.62161,0.05509
2931.69287,0.05528
2929.76412,0.05528
2927.83538,0.05521
2925.90663,0.05527
2923.97789,0.05555
2922.04914,0.05588
2920.12040,0.05617
2918.19165,0.05644
2916.26290,0.05663
2914.33416,0.05671
2912.40541,0.05675
2910.47667,0.05679
2908.54792,0.05680
2906.61918,0.05678
2904.69043,0.05683
2902.76169,0.05698
2900.83294,0.05706
2898.90420,0.05705
2896.97545,0.05707
2895.04671,0.05716
2893.11796,0.05714
2891.18922,0.05695
2889.26047,0.05677
2887.33172,0.05673
2885.40298,0.05679
2883.47423,0.05676
2881.54549,0.05663
2879.61674,0.05648
2877.68800,0.05632
2875.75925,0.05624
2873.83051,0.05628
2871.90176,0.05632
2869.97302,0.05627
2868.04427,0.05617
2866.11553,0.05616
2864.18678,0.05630
2862.25804,0.05651
2860.32929,0.05663
2858.40055,0.05664
2856.47180,0.05656
2854.54305,0.05640
2852.61431,0.05640
2850.68556,0.05670
2848.75682,0.05705
2846.82807,0.05716
2844.89933,0.05701
2842.97058,0.05673
2841.04184,0.05651
2839.11309,0.05652
2837.18435,0.05662
2835.25560,0.05674
2833.32686,0.05689
2831.39811,0.05697
2829.46937,0.05688
2827.54062,0.05671
2825.61188,0.05661
2823.68313,0.05664
2821.75438,0.05675
2819.82564,0.05678
2817.89689,0.05667
2815.96815,0.05659
2814.03940,0.05666
2812.11066,0.05670
2810.18191,0.05665
2808.25317,0.05661
2806.32442,0.05658
2804.39568,0.05660
2802.46693,0.05667
2800.53819,0.05673
2798.60944,0.05674
2796.68070,0.05668
2794.75195,0.05662
2792.82320,0.05661
2790.89446,0.05659
2788.96571,0.05653
2787.03697,0.05641
2785.10822,0.05632
2783.17948,0.05638
2781.25073,0.05657
2779.32199,0.05675
2777.39324,0.05690
2775.46450,0.05710
2773.53575,0.05726
2771.60701,0.05721
2769.67826,0.05705
2767.74952,0.05688
2765.82077,0.05676
2763.89203,0.05670
2761.96328,0.05670
2760.03453,0.05678
2758.10579,0.05691
2756.17704,0.05695
2754.24830,0.05681
2752.31955,0.05659
2750.39081,0.05647
2748.46206,0.05646
2746.53332,0.05643
2744.60457,0.05637
2742.67583,0.05634
2740.74708,0.05634
2738.81834,0.05640
2736.88959,0.05651
2734.96085,0.05655
2733.03210,0.05646
2731.10336,0.05640
2729.17461,0.05656
2727.24586,0.05675
2725.31712,0.05666
2723.38837,0.05652
2721.45963,0.05659
2719.53088,0.05675
2717.60214,0.05685
2715.67339,0.05697
2713.74465,0.05697
2711.81590,0.05678
2709.88716,0.05665
2707.95841,0.05669
2706.02967,0.05671
2704.10092,0.05667
2702.17218,0.05662
2700.24343,0.05657
2698.31468,0.05663
2696.38594,0.05671
2694.45719,0.05661
2692.52845,0.05655
2690.59970,0.05669
2688.67096,0.05678
2686.74221,0.05668
2684.81347,0.05654
2682.88472,0.05648
2680.95598,0.05655
2679.02723,0.05660
2677.09849,0.05655
2675.16974,0.05653
2673.24100,0.05648
2671.31225,0.05635
2669.38351,0.05629
2667.45476,0.05636
2665.52601,0.05645
2663.59727,0.05645
2661.66852,0.05639
2659.73978,0.05638
2657.81103,0.05644
2655.88229,0.05656
2653.95354,0.05662
2652.02480,0.05655
2650.09605,0.05641
2648.16731,0.05637
2646.23856,0.05642
2644.30982,0.05638
2642.38107,0.05636
2640.45233,0.05643
2638.52358,0.05646
2636.59484,0.05645
2634.66609,0.05643
2632.73734,0.05639
2630.80860,0.05633
2628.87985,0.05623
2626.95111,0.05614
2625.02236,0.05618
2623.09362,0.05632
2621.16487,0.05638
2619.23613,0.05634
2617.30738,0.05632
2615.37864,0.05628
2613.44989,0.05617
2611.52115,0.05617
2609.59240,0.05628
2607.66366,0.05629
2605.73491,0.05616
2603.80616,0.05600
2601.87742,0.05594
2599.94867,0.05600
2598.01993,0.05615
2596.09118,0.05629
2594.16244,0.05624
2592.23369,0.05605
2590.30495,0.05591
2588.37620,0.05596
2586.44746,0.05617
2584.51871,0.05627
2582.58997,0.05611
2580.66122,0.05597
2578.73248,0.05599
2576.80373,0.05599
2574.87499,0.05597
2572.94624,0.05606
2571.01749,0.05624
2569.08875,0.05631
2567.16000,0.05620
2565.23126,0.05604
2563.30251,0.05595
2561.37377,0.05593
2559.44502,0.05597
2557.51628,0.05604
2555.58753,0.05612
2553.65879,0.05617
2551.73004,0.05610
2549.80130,0.05591
2547.87255,0.05575
2545.94381,0.05576
2544.01506,0.05591
2542.08631,0.05605
2540.15757,0.05606
2538.22882,0.05600
2536.30008,0.05594
2534.37133,0.05584
2532.44259,0.05580
2530.51384,0.05580
2528.58510,0.05572
2526.65635,0.05563
2524.72761,0.05564
2522.79886,0.05575
2520.87012,0.05590
2518.94137,0.05596
2517.01263,0.05593
2515.08388,0.05588
2513.15514,0.05584
2511.22639,0.05581
2509.29764,0.05583
2507.36890,0.05587
2505.44015,0.05581
2503.51141,0.05565
2501.58266,0.05564
2499.65392,0.05585
2497.72517,0.05600
2495.79643,0.05596
2493.86768,0.05595
2491.93894,0.05597
2490.01019,0.05593
2488.08145,0.05598
2486.15270,0.05606
2484.22396,0.05593
2482.29521,0.05576
2480.36647,0.05580
2478.43772,0.05594
2476.50897,0.05600
2474.58023,0.05595
2472.65148,0.05586
2470.72274,0.05582
2468.79399,0.05592
2466.86525,0.05616
2464.93650,0.05640
2463.00776,0.05649
2461.07901,0.05641
2459.15027,0.05626
2457.22152,0.05608
2455.29278,0.05592
2453.36403,0.05584
2451.43529,0.05591
2449.50654,0.05612
2447.57779,0.05630
2445.64905,0.05633
2443.72030,0.05625
2441.79156,0.05615
2439.86281,0.05608
2437.93407,0.05610
2436.00532,0.05616
2434.07658,0.05623
2432.14783,0.05631
2430.21909,0.05631
2428.29034,0.05620
2426.36160,0.05609
2424.43285,0.05605
2422.50411,0.05600
2420.57536,0.05588
2418.64662,0.05584
2416.71787,0.05593
2414.78912,0.05596
2412.86038,0.05594
2410.93163,0.05596
2409.00289,0.05599
2407.07414,0.05606
2405.14540,0.05614
2403.21665,0.05618
2401.28791,0.05621
2399.35916,0.05614
2397.43042,0.05597
2395.50167,0.05591
2393.57293,0.05602
2391.64418,0.05617
2389.71544,0.05627
2387.78669,0.05621
2385.85795,0.05611
2383.92920,0.05613
2382.00045,0.05609
2380.07171,0.05593
2378.14296,0.05583
2376.21422,0.05590
2374.28547,0.05599
2372.35673,0.05598
2370.42798,0.05596
2368.49924,0.05606
2366.57049,0.05617
2364.64175,0.05612
2362.71300,0.05598
2360.78426,0.05594
2358.85551,0.05597
2356.92677,0.05594
2354.99802,0.05595
2353.06927,0.05603
2351.14053,0.05599
2349.21178,0.05591
2347.28304,0.05590
2345.35429,0.05586
2343.42555,0.05586
2341.49680,0.05587
2339.56806,0.05587
2337.63931,0.05600
2335.71057,0.05609
2333.78182,0.05602
2331.85308,0.05599
2329.92433,0.05608
2327.99559,0.05616
2326.06684,0.05621
2324.13810,0.05625
2322.20935,0.05620
2320.28060,0.05606
2318.35186,0.05598
2316.42311,0.05592
2314.49437,0.05584
2312.56562,0.05582
2310.63688,0.05589
2308.70813,0.05594
2306.77939,0.05590
2304.85064,0.05587
2302.92190,0.05583
2300.99315,0.05572
2299.06441,0.05561
2297.13566,0.05560
2295.20692,0.05564
2293.27817,0.05567
2291.34943,0.05568
2289.42068,0.05567
2287.49193,0.05560
2285.56319,0.05554
2283.63444,0.05558
2281.70570,0.05566
2279.77695,0.05567
2277.84821,0.05567
2275.91946,0.05577
2273.99072,0.05594
2272.06197,0.05597
2270.13323,0.05581
2268.20448,0.05569
2266.27574,0.05573
2264.34699,0.05586
2262.41825,0.05601
2260.48950,0.05609
2258.56075,0.05605
2256.63201,0.05598
2254.70326,0.05596
2252.77452,0.05592
2250.84577,0.05582
2248.91703,0.05574
2246.98828,0.05580
2245.05954,0.05588
2243.13079,0.05588
2241.20205,0.05595
2239.27330,0.05610
2237.34456,0.05614
2235.41581,0.05615
2233.48707,0.05621
2231.55832,0.05617
2229.62958,0.05602
2227.70083,0.05595
2225.77208,0.05604
2223.84334,0.05613
2221.91459,0.05610
2219.98585,0.05598
2218.05710,0.05592
2216.12836,0.05590
2214.19961,0.05586
2212.27087,0.05595
2210.34212,0.05610
2208.41338,0.05622
2206.48463,0.05642
2204.55589,0.05660
2202.62714,0.05652
2200.69840,0.05627
2198.76965,0.05612
2196.84090,0.05607
2194.91216,0.05601
2192.98341,0.05601
2191.05467,0.05611
2189.12592,0.05621
2187.19718,0.05615
2185.26843,0.05600
2183.33969,0.05598
2181.41094,0.05621
2179.48220,0.05653
2177.55345,0.05663
2175.62471,0.05649
2173.69596,0.05636
2171.76722,0.05635
2169.83847,0.05639
2167.90973,0.05638
2165.98098,0.05626
2164.05223,0.05619
2162.12349,0.05628
2160.19474,0.05642
2158.26600,0.05649
2156.33725,0.05646
2154.40851,0.05645
2152.47976,0.05656
2150.55102,0.05662
2148.62227,0.05652
2146.69353,0.05641
2144.76478,0.05637
2142.83604,0.05638
2140.90729,0.05637
2138.97855,0.05637
2137.04980,0.05641
2135.12106,0.05642
2133.19231,0.05638
2131.26356,0.05641
2129.33482,0.05655
2127.40607,0.05667
2125.47733,0.05661
2123.54858,0.05652
2121.61984,0.05664
2119.69109,0.05681
2117.76235,0.05687
2115.83360,0.05691
2113.90486,0.05684
2111.97611,0.05656
2110.04737,0.05634
2108.11862,0.05630
2106.18988,0.05636
2104.26113,0.05644
2102.33238,0.05657
2100.40364,0.05681
2098.47489,0.05710
2096.54615,0.05730
2094.61740,0.05730
2092.68866,0.05713
2090.75991,0.05698
2088.83117,0.05679
2086.90242,0.05661
2084.97368,0.05662
2083.04493,0.05679
2081.11619,0.05690
2079.18744,0.05679
2077.25870,0.05666
2075.32995,0.05675
2073.40121,0.05684
2071.47246,0.05674
2069.54371,0.05670
2067.61497,0.05681
2065.68622,0.05690
2063.75748,0.05694
2061.82873,0.05700
2059.89999,0.05698
2057.97124,0.05685
2056.04250,0.05672
2054.11375,0.05672
2052.18501,0.05685
2050.25626,0.05691
2048.32752,0.05683
2046.39877,0.05678
2044.47003,0.05679
2042.54128,0.05676
2040.61254,0.05673
2038.68379,0.05679
2036.75504,0.05682
2034.82630,0.05670
2032.89755,0.05662
2030.96881,0.05676
2029.04006,0.05695
2027.11132,0.05708
2025.18257,0.05715
2023.25383,0.05712
2021.32508,0.05698
2019.39634,0.05692
2017.46759,0.05697
2015.53885,0.05704
2013.61010,0.05714
2011.68136,0.05726
2009.75261,0.05727
2007.82386,0.05716
2005.89512,0.05711
2003.96637,0.05726
2002.03763,0.05744
2000.10888,0.05744
1998.18014,0.05734
1996.25139,0.05728
1994.32265,0.05727
1992.39390,0.05732
1990.46516,0.05742
1988.53641,0.05747
1986.60767,0.05747
1984.67892,0.05759
1982.75018,0.05776
1980.82143,0.05778
1978.89269,0.05763
1976.96394,0.05749
1975.03519,0.05759
1973.10645,0.05789
1971.17770,0.05807
1969.24896,0.05799
1967.32021,0.05787
1965.39147,0.05791
1963.46272,0.05802
1961.53398,0.05805
1959.60523,0.05800
1957.67649,0.05794
1955.74774,0.05794
1953.81900,0.05802
1951.89025,0.05814
1949.96151,0.05821
1948.03276,0.05818
1946.10402,0.05814
1944.17527,0.05818
1942.24652,0.05824
1940.31778,0.05828
1938.38903,0.05825
1936.46029,0.05814
1934.53154,0.05805
1932.60280,0.05803
1930.67405,0.05816
1928.74531,0.05840
1926.81656,0.05857
1924.88782,0.05860
1922.95907,0.05860
1921.03033,0.05869
1919.10158,0.05885
1917.17284,0.05892
1915.24409,0.05885
1913.31534,0.05880
1911.38660,0.05879
1909.45785,0.05887
1907.52911,0.05914
1905.60036,0.05942
1903.67162,0.05949
1901.74287,0.05944
1899.81413,0.05947
1897.88538,0.05957
1895.95664,0.05966
1894.02789,0.05980
1892.09915,0.06001
1890.17040,0.06014
1888.24166,0.06010
1886.31291,0.06007
1884.38417,0.06016
1882.45542,0.06024
1880.52667,0.06029
1878.59793,0.06041
1876.66918,0.06058
1874.74044,0.06075
1872.81169,0.06089
1870.88295,0.06094
1868.95420,0.06088
1867.02546,0.06082
1865.09671,0.06086
1863.16797,0.06090
1861.23922,0.06087
1859.31048,0.06094
1857.38173,0.06119
1855.45299,0.06134
1853.52424,0.06128
1851.59549,0.06121
1849.66675,0.06126
1847.73800,0.06140
1845.80926,0.06150
1843.88051,0.06138
1841.95177,0.06125
1840.02302,0.06134
1838.09428,0.06152
1836.16553,0.06163
1834.23679,0.06168
1832.30804,0.06166
1830.37930,0.06163
1828.45055,0.06160
1826.52181,0.06157
1824.59306,0.06160
1822.66432,0.06165
1820.73557,0.06168
1818.80682,0.06169
1816.87808,0.06169
1814.94933,0.06169
1813.02059,0.06167
1811.09184,0.06163
1809.16310,0.06162
1807.23435,0.06155
1805.30561,0.06119
1803.37686,0.06044
1801.44812,0.05942
1799.51937,0.05827
1797.59063,0.05730
1795.66188,0.05674
1793.73314,0.05644
1791.80439,0.05620
1789.87565,0.05616
1787.94690,0.05640
1786.01815,0.05689
1784.08941,0.05742
1782.16066,0.05776
1780.23192,0.05787
1778.30317,0.05793
1776.37443,0.05803
1774.44568,0.05814
1772.51694,0.05819
1770.58819,0.05812
1768.65945,0.05791
1766.73070,0.05757
1764.80196,0.05723
1762.87321,0.05684
1760.94447,0.05623
1759.01572,0.05554
1757.08697,0.05497
1755.15823,0.05448
1753.22948,0.05408
1751.30074,0.05380
1749.37199,0.05352
1747.44325,0.05312
1745.51450,0.05265
1743.58576,0.05235
1741.65701,0.05228
1739.72827,0.05231
1737.79952,0.05243
1735.87078,0.05280
1733.94203,0.05343
1732.01329,0.05410
1730.08454,0.05463
1728.15580,0.05496
1726.22705,0.05514
1724.29830,0.05529
1722.36956,0.05547
1720.44081,0.05568
1718.51207,0.05588
1716.58332,0.05596
1714.65458,0.05607
1712.72583,0.05641
1710.79709,0.05699
1708.86834,0.05757
1706.93960,0.05783
1705.01085,0.05785
1703.08211,0.05809
1701.15336,0.05866
1699.22462,0.05926
1697.29587,0.05962
1695.36713,0.05973
1693.43838,0.05983
1691.50963,0.06010
1689.58089,0.06042
1687.65214,0.06072
1685.72340,0.06097
1683.79465,0.06112
1681.86591,0.06127
1679.93716,0.06159
1678.00842,0.06205
1676.07967,0.06264
1674.15093,0.06325
1672.22218,0.06376
1670.29344,0.06432
1668.36469,0.06508
1666.43595,0.06595
1664.50720,0.06677
1662.57845,0.06744
1660.64971,0.06797
1658.72096,0.06851
1656.79222,0.06909
1654.86347,0.06965
1652.93473,0.07016
1651.00598,0.07049
1649.07724,0.07061
1647.14849,0.07060
1645.21975,0.07052
1643.29100,0.07059
1641.36226,0.07096
1639.43351,0.07141
1637.50477,0.07163
1635.57602,0.07170
1633.64728,0.07184
1631.71853,0.07206
1629.78978,0.07231
1627.86104,0.07259
1625.93229,0.07284
1624.00355,0.07298
1622.07480,0.07302
1620.14606,0.07301
1618.21731,0.07293
1616.28857,0.07291
1614.35982,0.07296
1612.43108,0.07288
1610.50233,0.07270
1608.57359,0.07253
1606.64484,0.07227
1604.71610,0.07187
1602.78735,0.07149
1600.85861,0.07150
1598.92986,0.07212
1597.00111,0.07301
1595.07237,0.07371
1593.14362,0.07398
1591.21488,0.07381
1589.28613,0.07352
1587.35739,0.07322
1585.42864,0.07267
1583.49990,0.07191
1581.57115,0.07119
1579.64241,0.07064
1577.71366,0.07048
1575.78492,0.07098
1573.85617,0.07192
1571.92743,0.07278
1569.99868,0.07345
1568.06993,0.07398
1566.14119,0.07433
1564.21244,0.07458
1562.28370,0.07498
1560.35495,0.07579
1558.42621,0.07710
1556.49746,0.07838
1554.56872,0.07924
1552.63997,0.07965
1550.71123,0.07964
1548.78248,0.07928
1546.85374,0.07861
1544.92499,0.07764
1542.99625,0.07658
1541.06750,0.07585
1539.13876,0.07582
1537.21001,0.07653
1535.28126,0.07753
1533.35252,0.07842
1531.42377,0.07890
1529.49503,0.07907
1527.56628,0.07907
1525.63754,0.07877
1523.70879,0.07818
1521.78005,0.07749
1519.85130,0.07679
1517.92256,0.07601
1515.99381,0.07525
1514.06507,0.07463
1512.13632,0.07399
1510.20758,0.07335
1508.27883,0.07279
1506.35008,0.07197
1504.42134,0.07086
1502.49259,0.06982
1500.56385,0.06892
1498.63510,0.06795
1496.70636,0.06673
1494.77761,0.06559
1492.84887,0.06475
1490.92012,0.06402
1488.99138,0.06328
1487.06263,0.06255
1485.13389,0.06184
1483.20514,0.06123
1481.27640,0.06066
1479.34765,0.06007
1477.41891,0.05953
1475.49016,0.05916
1473.56141,0.05886
1471.63267,0.05850
1469.70392,0.05832
1467.77518,0.05844
1465.84643,0.05866
1463.91769,0.05880
1461.98894,0.05899
1460.06020,0.05933
1458.13145,0.05972
1456.20271,0.05985
1454.27396,0.05984
1452.34522,0.06003
1450.41647,0.06038
1448.48773,0.06072
1446.55898,0.06100
1444.63024,0.06107
1442.70149,0.06092
1440.77274,0.06093
1438.84400,0.06139
1436.91525,0.06245
1434.98651,0.06400
1433.05776,0.06555
1431.12902,0.06692
1429.20027,0.06824
1427.27153,0.06966
1425.34278,0.07154
1423.41404,0.07373
1421.48529,0.07573
1419.55655,0.07768
1417.62780,0.07975
1415.69906,0.08146
1413.77031,0.08282
1411.84156,0.08429
1409.91282,0.08574
1407.98407,0.08650
1406.05533,0.08623
1404.12658,0.08508
1402.19784,0.08380
1400.26909,0.08314
1398.34035,0.08332
1396.41160,0.08395
1394.48286,0.08446
1392.55411,0.08455
1390.62537,0.08438
1388.69662,0.08412
1386.76788,0.08371
1384.83913,0.08305
1382.91039,0.08225
1380.98164,0.08144
1379.05289,0.08073
1377.12415,0.08033
1375.19540,0.08025
1373.26666,0.08000
1371.33791,0.07934
1369.40917,0.07854
1367.48042,0.07760
1365.55168,0.07631
1363.62293,0.07481
1361.69419,0.07353
1359.76544,0.07247
1357.83670,0.07139
1355.90795,0.07034
1353.97921,0.06959
1352.05046,0.06913
1350.12172,0.06857
1348.19297,0.06774
1346.26422,0.06675
1344.33548,0.06558
1342.40673,0.06426
1340.47799,0.06300
1338.54924,0.06204
1336.62050,0.06149
1334.69175,0.06135
1332.76301,0.06144
1330.83426,0.06166
1328.90552,0.06192
1326.97677,0.06202
1325.04803,0.06198
1323.11928,0.06209
1321.19054,0.06239
1319.26179,0.06269
1317.33304,0.06295
1315.40430,0.06313
1313.47555,0.06311
1311.54681,0.06290
1309.61806,0.06274
1307.68932,0.06258
1305.76057,0.06232
1303.83183,0.06209
1301.90308,0.06193
1299.97434,0.06188
1298.04559,0.06191
1296.11685,0.06188
1294.18810,0.06168
1292.25936,0.06135
1290.33061,0.06105
1288.40187,0.06086
1286.47312,0.06050
1284.54437,0.05982
1282.61563,0.05911
1280.68688,0.05859
1278.75814,0.05807
1276.82939,0.05745
1274.90065,0.05692
1272.97190,0.05658
1271.04316,0.05635
1269.11441,0.05619
1267.18567,0.05609
1265.25692,0.05603
1263.32818,0.05605
1261.39943,0.05621
1259.47069,0.05655
1257.54194,0.05714
1255.61320,0.05796
1253.68445,0.05881
1251.75570,0.05942
1249.82696,0.05977
1247.89821,0.06005
1245.96947,0.06032
1244.04072,0.06059
1242.11198,0.06104
1240.18323,0.06161
1238.25449,0.06196
1236.32574,0.06205
1234.39700,0.06211
1232.46825,0.06233
1230.53951,0.06268
1228.61076,0.06297
1226.68202,0.06296
1224.75327,0.06273
1222.82452,0.06257
1220.89578,0.06246
1218.96703,0.06215
1217.03829,0.06177
1215.10954,0.06148
1213.18080,0.06106
1211.25205,0.06057
1209.32331,0.06043
1207.39456,0.06058
1205.46582,0.06074
1203.53707,0.06070
1201.60833,0.06045
1199.67958,0.06017
1197.75084,0.05999
1195.82209,0.05991
1193.89335,0.05989
1191.96460,0.05988
1190.03585,0.05988
1188.10711,0.05995
1186.17836,0.06017
1184.24962,0.06041
1182.32087,0.06042
1180.39213,0.06018
1178.46338,0.05995
1176.53464,0.05987
1174.60589,0.05987
1172.67715,0.05982
1170.74840,0.05977
1168.81966,0.05985
1166.89091,0.05990
1164.96217,0.05983
1163.03342,0.05982
1161.10467,0.05993
1159.17593,0.06014
1157.24718,0.06040
1155.31844,0.06054
1153.38969,0.06044
1151.46095,0.06024
1149.53220,0.06029
1147.60346,0.06059
1145.67471,0.06076
1143.74597,0.06063
1141.81722,0.06045
1139.88848,0.06031
1137.95973,0.06019
1136.03099,0.06000
1134.10224,0.05963
1132.17350,0.05926
1130.24475,0.05909
1128.31600,0.05902
1126.38726,0.05884
1124.45851,0.05845
1122.52977,0.05799
1120.60102,0.05759
1118.67228,0.05747
1116.74353,0.05756
1114.81479,0.05755
1112.88604,0.05745
1110.95730,0.05749
1109.02855,0.05761
1107.09981,0.05770
1105.17106,0.05778
1103.24232,0.05797
1101.31357,0.05809
1099.38483,0.05801
1097.45608,0.05805
1095.52733,0.05851
1093.59859,0.05899
1091.66984,0.05898
1089.74110,0.05873
1087.81235,0.05867
1085.88361,0.05868
1083.95486,0.05865
1082.02612,0.05867
1080.09737,0.05866
1078.16863,0.05862
1076.23988,0.05870
1074.31114,0.05885
1072.38239,0.05875
1070.45365,0.05841
1068.52490,0.05829
1066.59615,0.05844
1064.66741,0.05843
1062.73866,0.05828
1060.80992,0.05837
1058.88117,0.05864
1056.95243,0.05876
1055.02368,0.05853
1053.09494,0.05820
1051.16619,0.05818
1049.23745,0.05848
1047.30870,0.05877
1045.37996,0.05885
1043.45121,0.05860
1041.52247,0.05800
1039.59372,0.05747
1037.66498,0.05745
1035.73623,0.05783
1033.80748,0.05820
1031.87874,0.05833
1029.94999,0.05825
1028.02125,0.05808
1026.09250,0.05786
1024.16376,0.05768
1022.23501,0.05768
1020.30627,0.05779
1018.37752,0.05769
1016.44878,0.05737
1014.52003,0.05722
1012.59129,0.05735
1010.66254,0.05739
1008.73380,0.05731
1006.80505,0.05732
1004.87631,0.05720
1002.94756,0.05677
1001.01881,0.05641
999.09007,0.05640
997.16132,0.05660
995.23258,0.05664
993.30383,0.05632
991.37509,0.05597
989.44634,0.05580
987.51760,0.05558
985.58885,0.05543
983.66011,0.05556
981.73136,0.05567
979.80262,0.05560
977.87387,0.05559
975.94513,0.05573
974.01638,0.05595
972.08763,0.05620
970.15889,0.05659
968.23014,0.05711
966.30140,0.05745
964.37265,0.05749
962.44391,0.05749
960.51516,0.05762
958.58642,0.05794
956.65767,0.05849
954.72893,0.05906
952.80018,0.05938
950.87144,0.05942
948.94269,0.05926
947.01395,0.05893
945.08520,0.05862
943.15646,0.05858
941.22771,0.05874
939.29896,0.05879
937.37022,0.05874
935.44147,0.05870
933.51273,0.05857
931.58398,0.05856
929.65524,0.05882
927.72649,0.05901
925.79775,0.05889
923.86900,0.05869
921.94026,0.05869
920.01151,0.05891
918.08277,0.05907
916.15402,0.05893
914.22528,0.05855
912.29653,0.05822
910.36779,0.05819
908.43904,0.05825
906.51029,0.05813
904.58155,0.05792
902.65280,0.05784
900.72406,0.05792
898.79531,0.05797
896.86657,0.05789
894.93782,0.05771
893.00908,0.05747
891.08033,0.05725
889.15159,0.05716
887.22284,0.05725
885.29410,0.05744
883.36535,0.05752
881.43661,0.05773
879.50786,0.05852
877.57911,0.06011
875.65037,0.06210
873.72162,0.06360
871.79288,0.06412
869.86413,0.06363
867.93539,0.06250
866.00664,0.06138
864.07790,0.06060
862.14915,0.06011
860.22041,0.05966
858.29166,0.05908
856.36292,0.05852
854.43417,0.05830
852.50543,0.05837
850.57668,0.05841
848.64794,0.05825
846.71919,0.05787
844.79044,0.05757
842.86170,0.05771
840.93295,0.05810
839.00421,0.05826
837.07546,0.05829
835.14672,0.05845
833.21797,0.05846
831.28923,0.05817
829.36048,0.05792
827.43174,0.05810
825.50299,0.05861
823.57425,0.05892
821.64550,0.05892
819.71676,0.05883
817.78801,0.05863
815.85926,0.05839
813.93052,0.05840
812.00177,0.05860
810.07303,0.05857
808.14428,0.05839
806.21554,0.05826
804.28679,0.05807
802.35805,0.05797
800.42930,0.05796
798.50056,0.05784
796.57181,0.05773
794.64307,0.05772
792.71432,0.05766
790.78558,0.05727
788.85683,0.05683
786.92809,0.05667
784.99934,0.05646
783.07059,0.05631
781.14185,0.05630
779.21310,0.05604
777.28436,0.05583
775.35561,0.05594
773.42687,0.05593
771.49812,0.05567
769.56938,0.05550
767.64063,0.05544
765.71189,0.05540
763.78314,0.05558
761.85440,0.05579
759.92565,0.05564
757.99691,0.05529
756.06816,0.05502
754.13942,0.05476
752.21067,0.05438
750.28192,0.05395
748.35318,0.05379
746.42443,0.05409
744.49569,0.05443
742.56694,0.05426
740.63820,0.05382
738.70945,0.05359
736.78071,0.05344
734.85196,0.05308
732.92322,0.05268
730.99447,0.05250
729.06573,0.05250
727.13698,0.05244
725.20824,0.05200
723.27949,0.05136
721.35074,0.05101
719.42200,0.05074
717.49325,0.05020
715.56451,0.05009
713.63576,0.05101
711.70702,0.05191
709.77827,0.05180
707.84953,0.05130
705.92078,0.05127
703.99204,0.05168
702.06329,0.05219
700.13455,0.05250
698.20580,0.05248
696.27706,0.05273
694.34831,0.05338
692.41957,0.05354
690.49082,0.05317
688.56207,0.05307
686.63333,0.05338
684.70458,0.05364
682.77584,0.05362
680.84709,0.05378
678.91835,0.05459
676.98960,0.05556
675.06086,0.05580
673.13211,0.05507
671.20337,0.05409
669.27462,0.05364
667.34588,0.05361
665.41713,0.05342
663.48839,0.05295
661.55964,0.05260
659.63090,0.05259
657.70215,0.05256
655.77340,0.05223
653.84466,0.05196
651.91591,0.05204
649.98717,0.05188
648.05842,0.05134
646.12968,0.05125
644.20093,0.05160
642.27219,0.05201
640.34344,0.05325
638.41470,0.05535
636.48595,0.05665
634.55721,0.05673
632.62846,0.05671
630.69972,0.05703
628.77097,0.05712
626.84222,0.05665
624.91348,0.05604
622.98473,0.05570
621.05599,0.05593
619.12724,0.05703
617.19850,0.05847
615.26975,0.05987
613.34101,0.06161
611.41226,0.06333
609.48352,0.06385
607.55477,0.06317
605.62603,0.06297
603.69728,0.06402
601.76854,0.06527
599.83979,0.06587
