7497.03301,0.10575
7495.10426,0.10662
7493.17552,0.11130
7491.24677,0.11569
7489.31803,0.11815
7487.38928,0.11769
7485.46054,0.11288
7483.53179,0.10811
7481.60305,0.10912
7479.67430,0.11274
7477.74556,0.11454
7475.81681,0.11571
7473.88807,0.11736
7471.95932,0.11632
7470.03057,0.11105
7468.10183,0.10738
7466.17308,0.10840
7464.24434,0.11161
7462.31559,0.11470
7460.38685,0.11554
7458.45810,0.11377
7456.52936,0.11046
7454.60061,0.10542
7452.67187,0.10077
7450.74312,0.10022
7448.81438,0.10309
7446.88563,0.10598
7444.95689,0.10751
7443.02814,0.10706
7441.09940,0.10496
7439.17065,0.10449
7437.24190,0.10834
7435.31316,0.11273
7433.38441,0.11368
7431.45567,0.11302
7429.52692,0.11310
7427.59818,0.11460
7425.66943,0.11614
7423.74069,0.11439
7421.81194,0.10829
7419.88320,0.10194
7417.95445,0.10062
7416.02571,0.10313
7414.09696,0.10606
7412.16822,0.10946
7410.23947,0.11186
7408.31073,0.11216
7406.38198,0.11289
7404.45323,0.11537
7402.52449,0.11703
7400.59574,0.11540
7398.66700,0.11229
7396.73825,0.10902
7394.80951,0.10625
7392.88076,0.10814
7390.95202,0.11274
7389.02327,0.11276
7387.09453,0.11122
7385.16578,0.11267
7383.23704,0.11342
7381.30829,0.11095
7379.37955,0.10847
7377.45080,0.10845
7375.52205,0.10840
7373.59331,0.10857
7371.66456,0.11237
7369.73582,0.11659
7367.80707,0.11654
7365.87833,0.11387
7363.94958,0.11160
7362.02084,0.10942
7360.09209,0.10722
7358.16335,0.10724
7356.23460,0.10968
7354.30586,0.11054
7352.37711,0.10866
7350.44837,0.10850
7348.51962,0.11162
7346.59088,0.11426
7344.66213,0.11295
7342.73338,0.10858
7340.80464,0.10593
7338.87589,0.10638
7336.94715,0.10874
7335.01840,0.11209
7333.08966,0.11324
7331.16091,0.11173
7329.23217,0.10942
7327.30342,0.10612
7325.37468,0.10444
7323.44593,0.10692
7321.51719,0.11062
7319.58844,0.11077
7317.65970,0.10827
7315.73095,0.10787
7313.80221,0.10974
7311.87346,0.11100
7309.94471,0.11298
7308.01597,0.11611
7306.08722,0.11620
7304.15848,0.11254
7302.22973,0.10939
7300.30099,0.10902
7298.37224,0.11079
7296.44350,0.11142
7294.51475,0.10864
7292.58601,0.10705
7290.65726,0.11009
7288.72852,0.11186
7286.79977,0.10953
7284.87103,0.10818
7282.94228,0.10817
7281.01353,0.10598
7279.08479,0.10345
7277.15604,0.10377
7275.22730,0.10568
7273.29855,0.10632
7271.36981,0.10644
7269.44106,0.10692
7267.51232,0.10546
7265.58357,0.10293
7263.65483,0.10306
7261.72608,0.10490
7259.79734,0.10447
7257.86859,0.10188
7255.93985,0.10145
7254.01110,0.10410
7252.08236,0.10641
7250.15361,0.10638
7248.22486,0.10636
7246.29612,0.10904
7244.36737,0.11168
7242.43863,0.11107
7240.50988,0.10915
7238.58114,0.10718
7236.65239,0.10523
7234.72365,0.10589
7232.79490,0.10947
7230.86616,0.11166
7228.93741,0.11034
7227.00867,0.10737
7225.07992,0.10494
7223.15118,0.10467
7221.22243,0.10652
7219.29369,0.10695
7217.36494,0.10368
7215.43619,0.09993
7213.50745,0.09923
7211.57870,0.10170
7209.64996,0.10408
7207.72121,0.10445
7205.79247,0.10571
7203.86372,0.10763
7201.93498,0.10756
7200.00623,0.10585
7198.07749,0.10363
7196.14874,0.10198
7194.22000,0.10288
7192.29125,0.10617
7190.36251,0.10869
7188.43376,0.11036
7186.50501,0.11144
7184.57627,0.10914
7182.64752,0.10527
7180.71878,0.10414
7178.79003,0.10639
7176.86129,0.10954
7174.93254,0.11014
7173.00380,0.10758
7171.07505,0.10487
7169.14631,0.10439
7167.21756,0.10480
7165.28882,0.10424
7163.36007,0.10365
7161.43133,0.10413
7159.50258,0.10580
7157.57384,0.10820
7155.64509,0.10917
7153.71634,0.10702
7151.78760,0.10376
7149.85885,0.10174
7147.93011,0.10077
7146.00136,0.10056
7144.07262,0.10156
7142.14387,0.10348
7140.21513,0.10448
7138.28638,0.10360
7136.35764,0.10287
7134.42889,0.10372
7132.50015,0.10404
7130.57140,0.10202
7128.64266,0.10056
7126.71391,0.10114
7124.78516,0.10177
7122.85642,0.10201
7120.92767,0.10262
7118.99893,0.10336
7117.07018,0.10245
7115.14144,0.10007
7113.21269,0.09994
7111.28395,0.10258
7109.35520,0.10471
7107.42646,0.10481
7105.49771,0.10439
7103.56897,0.10529
7101.64022,0.10709
7099.71148,0.10727
7097.78273,0.10441
7095.85399,0.10133
7093.92524,0.10225
7091.99649,0.10617
7090.06775,0.10848
7088.13900,0.10664
7086.21026,0.10330
7084.28151,0.10150
7082.35277,0.10029
7080.42402,0.09992
7078.49528,0.10287
7076.56653,0.10624
7074.63779,0.10612
7072.70904,0.10537
7070.78030,0.10710
7068.85155,0.10905
7066.92281,0.11000
7064.99406,0.11069
7063.06532,0.10970
7061.13657,0.10658
7059.20782,0.10413
7057.27908,0.10424
7055.35033,0.10736
7053.42159,0.11143
7051.49284,0.11157
7049.56410,0.10788
7047.63535,0.10506
7045.70661,0.10391
7043.77786,0.10367
7041.84912,0.10415
7039.92037,0.10365
7037.99163,0.10285
7036.06288,0.10412
7034.13414,0.10559
7032.20539,0.10498
7030.27664,0.10377
7028.34790,0.10337
7026.41915,0.10365
7024.49041,0.10393
7022.56166,0.10267
7020.63292,0.10026
7018.70417,0.10050
7016.77543,0.10351
7014.84668,0.10437
7012.91794,0.10327
7010.98919,0.10347
7009.06045,0.10410
7007.13170,0.10554
7005.20296,0.10793
7003.27421,0.10770
7001.34547,0.10577
6999.41672,0.10520
6997.48797,0.10459
6995.55923,0.10336
6993.63048,0.10235
6991.70174,0.10174
6989.77299,0.10320
6987.84425,0.10558
6985.91550,0.10513
6983.98676,0.10281
6982.05801,0.10204
6980.12927,0.10340
6978.20052,0.10527
6976.27178,0.10559
6974.34303,0.10390
6972.41429,0.10263
6970.48554,0.10261
6968.55680,0.10164
6966.62805,0.10094
6964.69930,0.10290
6962.77056,0.10564
6960.84181,0.10724
6958.91307,0.10758
6956.98432,0.10646
6955.05558,0.10489
6953.12683,0.10426
6951.19809,0.10484
6949.26934,0.10588
6947.34060,0.10578
6945.41185,0.10433
6943.48311,0.10267
6941.55436,0.10136
6939.62562,0.10041
6937.69687,0.09916
6935.76812,0.09837
6933.83938,0.10074
6931.91063,0.10496
6929.98189,0.10610
6928.05314,0.10467
6926.12440,0.10506
6924.19565,0.10801
6922.26691,0.11030
6920.33816,0.10912
6918.40942,0.10671
6916.48067,0.10689
6914.55193,0.10696
6912.62318,0.10579
6910.69444,0.10627
6908.76569,0.10660
6906.83695,0.10514
6904.90820,0.10464
6902.97945,0.10631
6901.05071,0.10775
6899.12196,0.10668
6897.19322,0.10519
6895.26447,0.10638
6893.33573,0.10864
6891.40698,0.10893
6889.47824,0.10786
6887.54949,0.10679
6885.62075,0.10544
6883.69200,0.10433
6881.76326,0.10516
6879.83451,0.10764
6877.90577,0.10927
6875.97702,0.10927
6874.04828,0.10816
6872.11953,0.10681
6870.19078,0.10717
6868.26204,0.10843
6866.33329,0.10801
6864.40455,0.10578
6862.47580,0.10322
6860.54706,0.10148
6858.61831,0.10091
6856.68957,0.10154
6854.76082,0.10268
6852.83208,0.10327
6850.90333,0.10273
6848.97459,0.10210
6847.04584,0.10270
6845.11710,0.10417
6843.18835,0.10630
6841.25960,0.10735
6839.33086,0.10585
6837.40211,0.10384
6835.47337,0.10239
6833.54462,0.10098
6831.61588,0.10054
6829.68713,0.10266
6827.75839,0.10524
6825.82964,0.10444
6823.90090,0.10224
6821.97215,0.10146
6820.04341,0.10108
6818.11466,0.10182
6816.18592,0.10420
6814.25717,0.10463
6812.32843,0.10229
6810.39968,0.10065
6808.47093,0.10163
6806.54219,0.10449
6804.61344,0.10603
6802.68470,0.10426
6800.75595,0.10202
6798.82721,0.10111
6796.89846,0.10107
6794.96972,0.10192
6793.04097,0.10343
6791.11223,0.10408
6789.18348,0.10328
6787.25474,0.10301
6785.32599,0.10450
6783.39725,0.10623
6781.46850,0.10666
6779.53975,0.10614
6777.61101,0.10609
6775.68226,0.10630
6773.75352,0.10557
6771.82477,0.10478
6769.89603,0.10504
6767.96728,0.10463
6766.03854,0.10271
6764.10979,0.10110
6762.18105,0.09972
6760.25230,0.09798
6758.32356,0.09824
6756.39481,0.10066
6754.46607,0.10269
6752.53732,0.10379
6750.60858,0.10426
6748.67983,0.10340
6746.75108,0.10147
6744.82234,0.10142
6742.89359,0.10403
6740.96485,0.10513
6739.03610,0.10328
6737.10736,0.10215
6735.17861,0.10302
6733.24987,0.10319
6731.32112,0.10205
6729.39238,0.10073
6727.46363,0.09959
6725.53489,0.09956
6723.60614,0.09973
6721.67740,0.09968
6719.74865,0.10182
6717.81991,0.10443
6715.89116,0.10401
6713.96241,0.10259
6712.03367,0.10305
6710.10492,0.10405
6708.17618,0.10406
6706.24743,0.10343
6704.31869,0.10267
6702.38994,0.10309
6700.46120,0.10455
6698.53245,0.10496
6696.60371,0.10371
6694.67496,0.10234
6692.74622,0.10251
6690.81747,0.10251
6688.88873,0.10121
6686.95998,0.10058
6685.03123,0.10169
6683.10249,0.10461
6681.17374,0.10711
6679.24500,0.10652
6677.31625,0.10438
6675.38751,0.10284
6673.45876,0.10213
6671.53002,0.10254
6669.60127,0.10380
6667.67253,0.10426
6665.74378,0.10368
6663.81504,0.10291
6661.88629,0.10141
6659.95755,0.09959
6658.02880,0.09957
6656.10006,0.10076
6654.17131,0.10103
6652.24256,0.10175
6650.31382,0.10417
6648.38507,0.10572
6646.45633,0.10560
6644.52758,0.10574
6642.59884,0.10547
6640.67009,0.10321
6638.74135,0.10119
6636.81260,0.10188
6634.88386,0.10336
6632.95511,0.10329
6631.02637,0.10252
6629.09762,0.10237
6627.16888,0.10226
6625.24013,0.10083
6623.31139,0.09891
6621.38264,0.09847
6619.45389,0.09923
6617.52515,0.10052
6615.59640,0.10211
6613.66766,0.10353
6611.73891,0.10523
6609.81017,0.10590
6607.88142,0.10413
6605.95268,0.10195
6604.02393,0.10089
6602.09519,0.10073
6600.16644,0.10082
6598.23770,0.10068
6596.30895,0.10120
6594.38021,0.10216
6592.45146,0.10278
6590.52271,0.10300
6588.59397,0.10130
6586.66522,0.09825
6584.73648,0.09742
6582.80773,0.09797
6580.87899,0.09739
6578.95024,0.09735
6577.02150,0.09916
6575.09275,0.10080
6573.16401,0.10088
6571.23526,0.10117
6569.30652,0.10322
6567.37777,0.10513
6565.44903,0.10435
6563.52028,0.10162
6561.59154,0.10004
6559.66279,0.10021
6557.73404,0.10012
6555.80530,0.09958
6553.87655,0.09956
6551.94781,0.10023
6550.01906,0.10104
6548.09032,0.10069
6546.16157,0.09977
6544.23283,0.10000
6542.30408,0.10121
6540.37534,0.10226
6538.44659,0.10301
6536.51785,0.10383
6534.58910,0.10360
6532.66036,0.10214
6530.73161,0.10252
6528.80287,0.10507
6526.87412,0.10644
6524.94537,0.10531
6523.01663,0.10249
6521.08788,0.10023
6519.15914,0.10091
6517.23039,0.10321
6515.30165,0.10432
6513.37290,0.10394
6511.44416,0.10302
6509.51541,0.10189
6507.58667,0.10127
6505.65792,0.10181
6503.72918,0.10327
6501.80043,0.10452
6499.87169,0.10411
6497.94294,0.10147
6496.01419,0.09847
6494.08545,0.09706
6492.15670,0.09747
6490.22796,0.09860
6488.29921,0.09935
6486.37047,0.09947
6484.44172,0.09921
6482.51298,0.09933
6480.58423,0.10011
6478.65549,0.10127
6476.72674,0.10245
6474.79800,0.10208
6472.86925,0.10087
6470.94051,0.10075
6469.01176,0.09953
6467.08302,0.09717
6465.15427,0.09719
6463.22552,0.09855
6461.29678,0.09875
6459.36803,0.09946
6457.43929,0.10152
6455.51054,0.10242
6453.58180,0.10110
6451.65305,0.09885
6449.72431,0.09736
6447.79556,0.09781
6445.86682,0.09909
6443.93807,0.09941
6442.00933,0.09906
6440.08058,0.09935
6438.15184,0.10137
6436.22309,0.10374
6434.29434,0.10306
6432.36560,0.10011
6430.43685,0.09864
6428.50811,0.09911
6426.57936,0.10033
6424.65062,0.10097
6422.72187,0.10019
6420.79313,0.09937
6418.86438,0.09931
6416.93564,0.09940
6415.00689,0.09964
6413.07815,0.09980
6411.14940,0.09940
6409.22066,0.09837
6407.29191,0.09707
6405.36317,0.09607
6403.43442,0.09547
6401.50567,0.09506
6399.57693,0.09579
6397.64818,0.09816
6395.71944,0.10013
6393.79069,0.10051
6391.86195,0.09979
6389.93320,0.09873
6388.00446,0.09947
6386.07571,0.10122
6384.14697,0.10038
6382.21822,0.09808
6380.28948,0.09786
6378.36073,0.09954
6376.43199,0.10089
6374.50324,0.10064
6372.57450,0.09906
6370.64575,0.09792
6368.71700,0.09824
6366.78826,0.09848
6364.85951,0.09790
6362.93077,0.09776
6361.00202,0.09862
6359.07328,0.10037
6357.14453,0.10316
6355.21579,0.10494
6353.28704,0.10381
6351.35830,0.10170
6349.42955,0.10036
6347.50081,0.09960
6345.57206,0.09918
6343.64332,0.09858
6341.71457,0.09816
6339.78582,0.09843
6337.85708,0.09930
6335.92833,0.10029
6333.99959,0.10031
6332.07084,0.09974
6330.14210,0.09952
6328.21335,0.09874
6326.28461,0.09781
6324.35586,0.09831
6322.42712,0.09954
6320.49837,0.09984
6318.56963,0.09905
6316.64088,0.09903
6314.71214,0.10090
6312.78339,0.10183
6310.85465,0.09958
6308.92590,0.09652
6306.99715,0.09602
6305.06841,0.09798
6303.13966,0.09994
6301.21092,0.10075
6299.28217,0.09986
6297.35343,0.09682
6295.42468,0.09359
6293.49594,0.09266
6291.56719,0.09425
6289.63845,0.09656
6287.70970,0.09751
6285.78096,0.09688
6283.85221,0.09592
6281.92347,0.09578
6279.99472,0.09647
6278.06598,0.09653
6276.13723,0.09705
6274.20848,0.09935
6272.27974,0.10055
6270.35099,0.10008
6268.42225,0.09984
6266.49350,0.09982
6264.56476,0.10036
6262.63601,0.10117
6260.70727,0.10054
6258.77852,0.09838
6256.84978,0.09640
6254.92103,0.09605
6252.99229,0.09724
6251.06354,0.09863
6249.13480,0.09939
6247.20605,0.09973
6245.27730,0.09915
6243.34856,0.09805
6241.41981,0.09821
6239.49107,0.09912
6237.56232,0.09927
6235.63358,0.09835
6233.70483,0.09742
6231.77609,0.09769
6229.84734,0.09828
6227.91860,0.09810
6225.98985,0.09781
6224.06111,0.09768
6222.13236,0.09739
6220.20362,0.09740
6218.27487,0.09762
6216.34613,0.09731
6214.41738,0.09727
6212.48863,0.09815
6210.55989,0.09864
6208.63114,0.09765
6206.70240,0.09645
6204.77365,0.09682
6202.84491,0.09865
6200.91616,0.10049
6198.98742,0.10099
6197.05867,0.09968
6195.12993,0.09737
6193.20118,0.09561
6191.27244,0.09532
6189.34369,0.09654
6187.41495,0.09840
6185.48620,0.09890
6183.55746,0.09741
6181.62871,0.09607
6179.69996,0.09630
6177.77122,0.09690
6175.84247,0.09712
6173.91373,0.09772
6171.98498,0.09811
6170.05624,0.09762
6168.12749,0.09780
6166.19875,0.09850
6164.27000,0.09790
6162.34126,0.09691
6160.41251,0.09709
6158.48377,0.09774
6156.55502,0.09794
6154.62628,0.09766
6152.69753,0.09661
6150.76878,0.09529
6148.84004,0.09526
6146.91129,0.09631
6144.98255,0.09692
6143.05380,0.09682
6141.12506,0.09653
6139.19631,0.09610
6137.26757,0.09576
6135.33882,0.09548
6133.41008,0.09490
6131.48133,0.09455
6129.55259,0.09504
6127.62384,0.09543
6125.69510,0.09507
6123.76635,0.09483
6121.83761,0.09489
6119.90886,0.09469
6117.98011,0.09539
6116.05137,0.09689
6114.12262,0.09710
6112.19388,0.09628
6110.26513,0.09614
6108.33639,0.09721
6106.40764,0.09806
6104.47890,0.09712
6102.55015,0.09564
6100.62141,0.09503
6098.69266,0.09455
6096.76392,0.09394
6094.83517,0.09414
6092.90643,0.09512
6090.97768,0.09604
6089.04893,0.09652
6087.12019,0.09658
6085.19144,0.09621
6083.26270,0.09586
6081.33395,0.09577
6079.40521,0.09553
6077.47646,0.09540
6075.54772,0.09540
6073.61897,0.09464
6071.69023,0.09416
6069.76148,0.09545
6067.83274,0.09757
6065.90399,0.09871
6063.97525,0.09870
6062.04650,0.09821
6060.11776,0.09684
6058.18901,0.09505
6056.26026,0.09439
6054.33152,0.09493
6052.40277,0.09593
6050.47403,0.09615
6048.54528,0.09451
6046.61654,0.09296
6044.68779,0.09340
6042.75905,0.09431
6040.83030,0.09409
6038.90156,0.09334
6036.97281,0.09359
6035.04407,0.09455
6033.11532,0.09505
6031.18658,0.09537
6029.25783,0.09490
6027.32909,0.09316
6025.40034,0.09226
6023.47159,0.09308
6021.54285,0.09398
6019.61410,0.09379
6017.68536,0.09331
6015.75661,0.09281
6013.82787,0.09168
6011.89912,0.09113
6009.97038,0.09158
6008.04163,0.09147
6006.11289,0.09088
6004.18414,0.09088
6002.25540,0.09145
6000.32665,0.09195
5998.39791,0.09243
5996.46916,0.09279
5994.54041,0.09190
5992.61167,0.09099
5990.68292,0.09208
5988.75418,0.09344
5986.82543,0.09390
5984.89669,0.09443
5982.96794,0.09490
5981.03920,0.09553
5979.11045,0.09649
5977.18171,0.09648
5975.25296,0.09526
5973.32422,0.09417
5971.39547,0.09410
5969.46673,0.09440
5967.53798,0.09400
5965.60924,0.09331
5963.68049,0.09314
5961.75174,0.09310
5959.82300,0.09261
5957.89425,0.09131
5955.96551,0.08990
5954.03676,0.08987
5952.10802,0.09081
5950.17927,0.09156
5948.25053,0.09211
5946.32178,0.09203
5944.39304,0.09170
5942.46429,0.09198
5940.53555,0.09224
5938.60680,0.09180
5936.67806,0.09129
5934.74931,0.09108
5932.82057,0.09080
5930.89182,0.09067
5928.96307,0.09066
5927.03433,0.09013
5925.10558,0.08951
5923.17684,0.08948
5921.24809,0.08998
5919.31935,0.09028
5917.39060,0.08972
5915.46186,0.08903
5913.53311,0.08914
5911.60437,0.08952
5909.67562,0.08942
5907.74688,0.08897
5905.81813,0.08854
5903.88939,0.08798
5901.96064,0.08699
5900.03189,0.08586
5898.10315,0.08502
5896.17440,0.08381
5894.24566,0.08208
5892.31691,0.08156
5890.38817,0.08254
5888.45942,0.08313
5886.53068,0.08292
5884.60193,0.08292
5882.67319,0.08303
5880.74444,0.08237
5878.81570,0.08116
5876.88695,0.08084
5874.95821,0.08190
5873.02946,0.08263
5871.10072,0.08206
5869.17197,0.08168
5867.24322,0.08207
5865.31448,0.08187
5863.38573,0.08059
5861.45699,0.07907
5859.52824,0.07830
5857.59950,0.07827
5855.67075,0.07850
5853.74201,0.07863
5851.81326,0.07822
5849.88452,0.07733
5847.95577,0.07650
5846.02703,0.07584
5844.09828,0.07493
5842.16954,0.07407
5840.24079,0.07381
5838.31205,0.07418
5836.38330,0.07472
5834.45455,0.07451
5832.52581,0.07366
5830.59706,0.07282
5828.66832,0.07195
5826.73957,0.07137
5824.81083,0.07154
5822.88208,0.07261
5820.95334,0.07407
5819.02459,0.07483
5817.09585,0.07466
5815.16710,0.07428
5813.23836,0.07407
5811.30961,0.07427
5809.38087,0.07547
5807.45212,0.07671
5805.52337,0.07654
5803.59463,0.07548
5801.66588,0.07455
5799.73714,0.07462
5797.80839,0.07613
5795.87965,0.07847
5793.95090,0.08072
5792.02216,0.08202
5790.09341,0.08150
5788.16467,0.07944
5786.23592,0.07754
5784.30718,0.07677
5782.37843,0.07683
5780.44969,0.07762
5778.52094,0.07898
5776.59220,0.08034
5774.66345,0.08102
5772.73470,0.08067
5770.80596,0.07986
5768.87721,0.07953
5766.94847,0.07996
5765.01972,0.08047
5763.09098,0.08040
5761.16223,0.08016
5759.23349,0.08032
5757.30474,0.08073
5755.37600,0.08104
5753.44725,0.08097
5751.51851,0.08054
5749.58976,0.08011
5747.66102,0.07972
5745.73227,0.07938
5743.80352,0.07964
5741.87478,0.07999
5739.94603,0.07930
5738.01729,0.07848
5736.08854,0.07864
5734.15980,0.07918
5732.23105,0.07949
5730.30231,0.08016
5728.37356,0.08142
5726.44482,0.08159
5724.51607,0.07981
5722.58733,0.07808
5720.65858,0.07814
5718.72984,0.07909
5716.80109,0.07971
5714.87235,0.08016
5712.94360,0.08045
5711.01485,0.07987
5709.08611,0.07909
5707.15736,0.07968
5705.22862,0.08141
5703.29987,0.08229
5701.37113,0.08129
5699.44238,0.07975
5697.51364,0.07924
5695.58489,0.07941
5693.65615,0.07951
5691.72740,0.07951
5689.79866,0.07948
5687.86991,0.07966
5685.94117,0.08011
5684.01242,0.08042
5682.08368,0.08047
5680.15493,0.08061
5678.22618,0.08092
5676.29744,0.08092
5674.36869,0.08050
5672.43995,0.08059
5670.51120,0.08153
5668.58246,0.08197
5666.65371,0.08120
5664.72497,0.08066
5662.79622,0.08134
5660.86748,0.08211
5658.93873,0.08213
5657.00999,0.08209
5655.08124,0.08207
5653.15250,0.08207
5651.22375,0.08262
5649.29500,0.08282
5647.36626,0.08218
5645.43751,0.08189
5643.50877,0.08211
5641.58002,0.08229
5639.65128,0.08270
5637.72253,0.08290
5635.79379,0.08255
5633.86504,0.08198
5631.93630,0.08098
5630.00755,0.08022
5628.07881,0.08082
5626.15006,0.08206
5624.22132,0.08218
5622.29257,0.08091
5620.36383,0.07986
5618.43508,0.08024
5616.50633,0.08130
5614.57759,0.08189
5612.64884,0.08198
5610.72010,0.08203
5608.79135,0.08205
5606.86261,0.08192
5604.93386,0.08207
5603.00512,0.08271
5601.07637,0.08299
5599.14763,0.08264
5597.21888,0.08215
5595.29014,0.08113
5593.36139,0.08014
5591.43265,0.08060
5589.50390,0.08176
5587.57516,0.08225
5585.64641,0.08223
5583.71766,0.08189
5581.78892,0.08158
5579.86017,0.08226
5577.93143,0.08348
5576.00268,0.08389
5574.07394,0.08369
5572.14519,0.08409
5570.21645,0.08493
5568.28770,0.08488
5566.35896,0.08377
5564.43021,0.08288
5562.50147,0.08327
5560.57272,0.08455
5558.64398,0.08523
5556.71523,0.08471
5554.78648,0.08410
5552.85774,0.08406
5550.92899,0.08392
5549.00025,0.08346
5547.07150,0.08327
5545.14276,0.08359
5543.21401,0.08392
5541.28527,0.08398
5539.35652,0.08400
5537.42778,0.08399
5535.49903,0.08401
5533.57029,0.08399
5531.64154,0.08392
5529.71280,0.08412
5527.78405,0.08448
5525.85531,0.08449
5523.92656,0.08404
5521.99781,0.08351
5520.06907,0.08342
5518.14032,0.08394
5516.21158,0.08432
5514.28283,0.08395
5512.35409,0.08357
5510.42534,0.08386
5508.49660,0.08459
5506.56785,0.08520
5504.63911,0.08525
5502.71036,0.08510
5500.78162,0.08501
5498.85287,0.08467
5496.92413,0.08429
5494.99538,0.08414
5493.06664,0.08424
5491.13789,0.08455
5489.20914,0.08450
5487.28040,0.08382
5485.35165,0.08323
5483.42291,0.08314
5481.49416,0.08352
5479.56542,0.08438
5477.63667,0.08511
5475.70793,0.08478
5473.77918,0.08352
5471.85044,0.08230
5469.92169,0.08190
5467.99295,0.08231
5466.06420,0.08288
5464.13546,0.08307
5462.20671,0.08279
5460.27796,0.08241
5458.34922,0.08251
5456.42047,0.08309
5454.49173,0.08360
5452.56298,0.08385
5450.63424,0.08375
5448.70549,0.08326
5446.77675,0.08329
5444.84800,0.08391
5442.91926,0.08397
5440.99051,0.08378
5439.06177,0.08445
5437.13302,0.08525
5435.20428,0.08513
5433.27553,0.08486
5431.34679,0.08500
5429.41804,0.08478
5427.48929,0.08444
5425.56055,0.08484
5423.63180,0.08520
5421.70306,0.08439
5419.77431,0.08323
5417.84557,0.08274
5415.91682,0.08269
5413.98808,0.08265
5412.05933,0.08296
5410.13059,0.08396
5408.20184,0.08456
5406.27310,0.08437
5404.34435,0.08435
5402.41561,0.08391
5400.48686,0.08275
5398.55811,0.08213
5396.62937,0.08245
5394.70062,0.08314
5392.77188,0.08407
5390.84313,0.08494
5388.91439,0.08470
5386.98564,0.08348
5385.05690,0.08260
5383.12815,0.08200
5381.19941,0.08129
5379.27066,0.08126
5377.34192,0.08222
5375.41317,0.08338
5373.48443,0.08389
5371.55568,0.08355
5369.62694,0.08321
5367.69819,0.08355
5365.76944,0.08386
5363.84070,0.08355
5361.91195,0.08300
5359.98321,0.08278
5358.05446,0.08321
5356.12572,0.08391
5354.19697,0.08402
5352.26823,0.08358
5350.33948,0.08322
5348.41074,0.08316
5346.48199,0.08344
5344.55325,0.08386
5342.62450,0.08448
5340.69576,0.08544
5338.76701,0.08596
5336.83827,0.08563
5334.90952,0.08503
5332.98077,0.08425
5331.05203,0.08337
5329.12328,0.08302
5327.19454,0.08314
5325.26579,0.08320
5323.33705,0.08316
5321.40830,0.08329
5319.47956,0.08372
5317.55081,0.08399
5315.62207,0.08409
5313.69332,0.08444
5311.76458,0.08477
5309.83583,0.08491
5307.90709,0.08516
5305.97834,0.08521
5304.04959,0.08496
5302.12085,0.08500
5300.19210,0.08502
5298.26336,0.08436
5296.33461,0.08410
5294.40587,0.08493
5292.47712,0.08555
5290.54838,0.08533
5288.61963,0.08478
5286.69089,0.08405
5284.76214,0.08374
5282.83340,0.08463
5280.90465,0.08563
5278.97591,0.08545
5277.04716,0.08440
5275.11842,0.08329
5273.18967,0.08263
5271.26092,0.08278
5269.33218,0.08327
5267.40343,0.08322
5265.47469,0.08287
5263.54594,0.08295
5261.61720,0.08335
5259.68845,0.08379
5257.75971,0.08412
5255.83096,0.08400
5253.90222,0.08361
5251.97347,0.08350
5250.04473,0.08368
5248.11598,0.08380
5246.18724,0.08356
5244.25849,0.08299
5242.32975,0.08267
5240.40100,0.08271
5238.47225,0.08251
5236.54351,0.08207
5234.61476,0.08185
5232.68602,0.08196
5230.75727,0.08212
5228.82853,0.08222
5226.89978,0.08253
5224.97104,0.08309
5223.04229,0.08342
5221.11355,0.08341
5219.18480,0.08337
5217.25606,0.08318
5215.32731,0.08289
5213.39857,0.08268
5211.46982,0.08270
5209.54107,0.08312
5207.61233,0.08305
5205.68358,0.08198
5203.75484,0.08135
5201.82609,0.08186
5199.89735,0.08265
5197.96860,0.08329
5196.03986,0.08368
5194.11111,0.08365
5192.18237,0.08323
5190.25362,0.08267
5188.32488,0.08242
5186.39613,0.08274
5184.46739,0.08327
5182.53864,0.08344
5180.60990,0.08332
5178.68115,0.08329
5176.75240,0.08328
5174.82366,0.08308
5172.89491,0.08290
5170.96617,0.08299
5169.03742,0.08321
5167.10868,0.08322
5165.17993,0.08310
5163.25119,0.08288
5161.32244,0.08247
5159.39370,0.08221
5157.46495,0.08233
5155.53621,0.08277
5153.60746,0.08338
5151.67872,0.08387
5149.74997,0.08379
5147.82123,0.08317
5145.89248,0.08273
5143.96373,0.08308
5142.03499,0.08390
5140.10624,0.08418
5138.17750,0.08358
5136.24875,0.08294
5134.32001,0.08274
5132.39126,0.08279
5130.46252,0.08290
5128.53377,0.08286
5126.60503,0.08282
5124.67628,0.08299
5122.74754,0.08307
5120.81879,0.08284
5118.89005,0.08263
5116.96130,0.08278
5115.03255,0.08298
5113.10381,0.08262
5111.17506,0.08233
5109.24632,0.08285
5107.31757,0.08339
5105.38883,0.08332
5103.46008,0.08299
5101.53134,0.08258
5099.60259,0.08212
5097.67385,0.08165
5095.74510,0.08132
5093.81636,0.08141
5091.88761,0.08163
5089.95887,0.08162
5088.03012,0.08180
5086.10138,0.08220
5084.17263,0.08248
5082.24388,0.08263
5080.31514,0.08256
5078.38639,0.08248
5076.45765,0.08274
5074.52890,0.08300
5072.60016,0.08310
5070.67141,0.08318
5068.74267,0.08304
5066.81392,0.08255
5064.88518,0.08220
5062.95643,0.08230
5061.02769,0.08277
5059.09894,0.08347
5057.17020,0.08401
5055.24145,0.08389
5053.31270,0.08346
5051.38396,0.08366
5049.45521,0.08407
5047.52647,0.08357
5045.59772,0.08297
5043.66898,0.08305
5041.74023,0.08268
5039.81149,0.08181
5037.88274,0.08148
5035.95400,0.08158
5034.02525,0.08202
5032.09651,0.08282
5030.16776,0.08296
5028.23902,0.08216
5026.31027,0.08141
5024.38153,0.08129
5022.45278,0.08177
5020.52403,0.08242
5018.59529,0.08253
5016.66654,0.08228
5014.73780,0.08235
5012.80905,0.08239
5010.88031,0.08210
5008.95156,0.08214
5007.02282,0.08241
5005.09407,0.08228
5003.16533,0.08199
5001.23658,0.08188
4999.30784,0.08186
4997.37909,0.08208
4995.45035,0.08244
4993.52160,0.08223
4991.59286,0.08162
4989.66411,0.08158
4987.73536,0.08205
4985.80662,0.08210
4983.87787,0.08154
4981.94913,0.08126
4980.02038,0.08166
4978.09164,0.08202
4976.16289,0.08180
4974.23415,0.08140
4972.30540,0.08127
4970.37666,0.08145
4968.44791,0.08192
4966.51917,0.08220
4964.59042,0.08163
4962.66168,0.08084
4960.73293,0.08066
4958.80418,0.08098
4956.87544,0.08146
4954.94669,0.08182
4953.01795,0.08207
4951.08920,0.08244
4949.16046,0.08277
4947.23171,0.08260
4945.30297,0.08211
4943.37422,0.08185
4941.44548,0.08176
4939.51673,0.08151
4937.58799,0.08127
4935.65924,0.08121
4933.73050,0.08137
4931.80175,0.08161
4929.87301,0.08192
4927.94426,0.08220
4926.01551,0.08202
4924.08677,0.08141
4922.15802,0.08118
4920.22928,0.08148
4918.30053,0.08149
4916.37179,0.08099
4914.44304,0.08052
4912.51430,0.08044
4910.58555,0.08087
4908.65681,0.08147
4906.72806,0.08177
4904.79932,0.08176
4902.87057,0.08169
4900.94183,0.08166
4899.01308,0.08131
4897.08434,0.08071
4895.15559,0.08075
4893.22684,0.08126
4891.29810,0.08139
4889.36935,0.08130
4887.44061,0.08135
4885.51186,0.08127
4883.58312,0.08105
4881.65437,0.08098
4879.72563,0.08089
4877.79688,0.08074
4875.86814,0.08106
4873.93939,0.08169
4872.01065,0.08171
4870.08190,0.08102
4868.15316,0.08046
4866.22441,0.08035
4864.29566,0.08042
4862.36692,0.08067
4860.43817,0.08094
4858.50943,0.08092
4856.58068,0.08059
4854.65194,0.08033
4852.72319,0.08073
4850.79445,0.08160
4848.86570,0.08193
4846.93696,0.08153
4845.00821,0.08129
4843.07947,0.08141
4841.15072,0.08140
4839.22198,0.08119
4837.29323,0.08097
4835.36449,0.08068
4833.43574,0.08027
4831.50699,0.08003
4829.57825,0.08011
4827.64950,0.08030
4825.72076,0.08046
4823.79201,0.08058
4821.86327,0.08073
4819.93452,0.08097
4818.00578,0.08143
4816.07703,0.08196
4814.14829,0.08186
4812.21954,0.08098
4810.29080,0.08021
4808.36205,0.08025
4806.43331,0.08064
4804.50456,0.08059
4802.57582,0.08021
4800.64707,0.07999
4798.71832,0.08002
4796.78958,0.08028
4794.86083,0.08063
4792.93209,0.08072
4791.00334,0.08047
4789.07460,0.08037
4787.14585,0.08067
4785.21711,0.08102
4783.28836,0.08101
4781.35962,0.08065
4779.43087,0.08004
4777.50213,0.07923
4775.57338,0.07887
4773.64464,0.07928
4771.71589,0.08005
4769.78714,0.08070
4767.85840,0.08094
4765.92965,0.08097
4764.00091,0.08087
4762.07216,0.08062
4760.14342,0.08045
4758.21467,0.08039
4756.28593,0.08028
4754.35718,0.08019
4752.42844,0.08031
4750.49969,0.08061
4748.57095,0.08089
4746.64220,0.08099
4744.71346,0.08059
4742.78471,0.07998
4740.85597,0.07996
4738.92722,0.08041
4736.99847,0.08070
4735.06973,0.08056
4733.14098,0.08006
4731.21224,0.07967
4729.28349,0.07955
4727.35475,0.07958
4725.42600,0.07977
4723.49726,0.07995
4721.56851,0.07984
4719.63977,0.07958
4717.71102,0.07940
4715.78228,0.07923
4713.85353,0.07919
4711.92479,0.07956
4709.99604,0.08001
4708.06729,0.07987
4706.13855,0.07942
4704.20980,0.07947
4702.28106,0.07991
4700.35231,0.08012
4698.42357,0.08010
4696.49482,0.07993
4694.56608,0.07955
4692.63733,0.07911
4690.70859,0.07885
4688.77984,0.07883
4686.85110,0.07880
4684.92235,0.07851
4682.99361,0.07822
4681.06486,0.07823
4679.13612,0.07852
4677.20737,0.07879
4675.27862,0.07889
4673.34988,0.07895
4671.42113,0.07899
4669.49239,0.07905
4667.56364,0.07915
4665.63490,0.07917
4663.70615,0.07908
4661.77741,0.07896
4659.84866,0.07892
4657.91992,0.07922
4655.99117,0.07978
4654.06243,0.07997
4652.13368,0.07961
4650.20494,0.07908
4648.27619,0.07873
4646.34745,0.07864
4644.41870,0.07882
4642.48995,0.07913
4640.56121,0.07925
4638.63246,0.07918
4636.70372,0.07904
4634.77497,0.07885
4632.84623,0.07879
4630.91748,0.07883
4628.98874,0.07888
4627.05999,0.07903
4625.13125,0.07927
4623.20250,0.07930
4621.27376,0.07884
4619.34501,0.07844
4617.41627,0.07883
4615.48752,0.07955
4613.55877,0.07970
4611.63003,0.07939
4609.70128,0.07918
4607.77254,0.07912
4605.84379,0.07904
4603.91505,0.07889
4601.98630,0.07873
4600.05756,0.07873
4598.12881,0.07894
4596.20007,0.07903
4594.27132,0.07861
4592.34258,0.07795
4590.41383,0.07778
4588.48509,0.07819
4586.55634,0.07853
4584.62760,0.07843
4582.69885,0.07835
4580.77010,0.07862
4578.84136,0.07868
4576.91261,0.07836
4574.98387,0.07823
4573.05512,0.07847
4571.12638,0.07873
4569.19763,0.07870
4567.26889,0.07849
4565.34014,0.07846
4563.41140,0.07857
4561.48265,0.07853
4559.55391,0.07833
4557.62516,0.07796
4555.69642,0.07746
4553.76767,0.07733
4551.83893,0.07770
4549.91018,0.07800
4547.98143,0.07784
4546.05269,0.07751
4544.12394,0.07736
4542.19520,0.07725
4540.26645,0.07716
4538.33771,0.07746
4536.40896,0.07780
4534.48022,0.07752
4532.55147,0.07702
4530.62273,0.07702
4528.69398,0.07733
4526.76524,0.07722
4524.83649,0.07689
4522.90775,0.07684
4520.97900,0.07662
4519.05025,0.07607
4517.12151,0.07599
4515.19276,0.07629
4513.26402,0.07625
4511.33527,0.07618
4509.40653,0.07642
4507.47778,0.07644
4505.54904,0.07604
4503.62029,0.07566
4501.69155,0.07564
4499.76280,0.07581
4497.83406,0.07589
4495.90531,0.07590
4493.97657,0.07606
4492.04782,0.07632
4490.11908,0.07628
4488.19033,0.07586
4486.26158,0.07554
4484.33284,0.07551
4482.40409,0.07555
4480.47535,0.07553
4478.54660,0.07534
4476.61786,0.07499
4474.68911,0.07463
4472.76037,0.07418
4470.83162,0.07362
4468.90288,0.07335
4466.97413,0.07350
4465.04539,0.07366
4463.11664,0.07364
4461.18790,0.07372
4459.25915,0.07387
4457.33041,0.07356
4455.40166,0.07277
4453.47291,0.07221
4451.54417,0.07207
4449.61542,0.07213
4447.68668,0.07225
4445.75793,0.07205
4443.82919,0.07143
4441.90044,0.07095
4439.97170,0.07088
4438.04295,0.07075
4436.11421,0.07029
4434.18546,0.06981
4432.25672,0.06962
4430.32797,0.06973
4428.39923,0.06983
4426.47048,0.06968
4424.54173,0.06947
4422.61299,0.06941
4420.68424,0.06953
4418.75550,0.06956
4416.82675,0.06918
4414.89801,0.06845
4412.96926,0.06800
4411.04052,0.06810
4409.11177,0.06822
4407.18303,0.06805
4405.25428,0.06786
4403.32554,0.06781
4401.39679,0.06786
4399.46805,0.06774
4397.53930,0.06726
4395.61056,0.06682
4393.68181,0.06681
4391.75306,0.06694
4389.82432,0.06676
4387.89557,0.06608
4385.96683,0.06518
4384.03808,0.06456
4382.10934,0.06421
4380.18059,0.06394
4378.25185,0.06373
4376.32310,0.06348
4374.39436,0.06318
4372.46561,0.06304
4370.53687,0.06291
4368.60812,0.06271
4366.67938,0.06247
4364.75063,0.06220
4362.82189,0.06201
4360.89314,0.06178
4358.96439,0.06159
4357.03565,0.06166
4355.10690,0.06186
4353.17816,0.06170
4351.24941,0.06126
4349.32067,0.06110
4347.39192,0.06130
4345.46318,0.06143
4343.53443,0.06110
4341.60569,0.06047
4339.67694,0.06033
4337.74820,0.06071
4335.81945,0.06086
4333.89071,0.06077
4331.96196,0.06073
4330.03321,0.06053
4328.10447,0.06001
4326.17572,0.05972
4324.24698,0.05996
4322.31823,0.06022
4320.38949,0.06044
4318.46074,0.06072
4316.53200,0.06085
4314.60325,0.06103
4312.67451,0.06135
4310.74576,0.06145
4308.81702,0.06135
4306.88827,0.06141
4304.95953,0.06168
4303.03078,0.06177
4301.10204,0.06167
4299.17329,0.06171
4297.24454,0.06188
4295.31580,0.06202
4293.38705,0.06208
4291.45831,0.06200
4289.52956,0.06171
4287.60082,0.06141
4285.67207,0.06127
4283.74333,0.06129
4281.81458,0.06151
4279.88584,0.06176
4277.95709,0.06183
4276.02835,0.06187
4274.09960,0.06225
4272.17086,0.06279
4270.24211,0.06286
4268.31336,0.06247
4266.38462,0.06216
4264.45587,0.06214
4262.52713,0.06229
4260.59838,0.06229
4258.66964,0.06219
4256.74089,0.06239
4254.81215,0.06263
4252.88340,0.06231
4250.95466,0.06175
4249.02591,0.06152
4247.09717,0.06144
4245.16842,0.06139
4243.23968,0.06157
4241.31093,0.06186
4239.38219,0.06185
4237.45344,0.06145
4235.52469,0.06105
4233.59595,0.06110
4231.66720,0.06144
4229.73846,0.06150
4227.80971,0.06125
4225.88097,0.06099
4223.95222,0.06072
4222.02348,0.06058
4220.09473,0.06097
4218.16599,0.06163
4216.23724,0.06183
4214.30850,0.06154
4212.37975,0.06131
4210.45101,0.06133
4208.52226,0.06122
4206.59352,0.06092
4204.66477,0.06076
4202.73602,0.06083
4200.80728,0.06105
4198.87853,0.06137
4196.94979,0.06173
4195.02104,0.06204
4193.09230,0.06230
4191.16355,0.06244
4189.23481,0.06224
4187.30606,0.06190
4185.37732,0.06174
4183.44857,0.06161
4181.51983,0.06159
4179.59108,0.06179
4177.66234,0.06188
4175.73359,0.06184
4173.80484,0.06189
4171.87610,0.06182
4169.94735,0.06156
4168.01861,0.06145
4166.08986,0.06151
4164.16112,0.06159
4162.23237,0.06160
4160.30363,0.06166
4158.37488,0.06179
4156.44614,0.06187
4154.51739,0.06205
4152.58865,0.06236
4150.65990,0.06246
4148.73116,0.06245
4146.80241,0.06259
4144.87367,0.06264
4142.94492,0.06257
4141.01617,0.06263
4139.08743,0.06276
4137.15868,0.06277
4135.22994,0.06271
4133.30119,0.06283
4131.37245,0.06306
4129.44370,0.06322
4127.51496,0.06333
4125.58621,0.06340
4123.65747,0.06348
4121.72872,0.06352
4119.79998,0.06337
4117.87123,0.06312
4115.94249,0.06280
4114.01374,0.06247
4112.08500,0.06235
4110.15625,0.06260
4108.22750,0.06288
4106.29876,0.06297
4104.37001,0.06303
4102.44127,0.06296
4100.51252,0.06294
4098.58378,0.06336
4096.65503,0.06372
4094.72629,0.06360
4092.79754,0.06319
4090.86880,0.06274
4088.94005,0.06255
4087.01131,0.06266
4085.08256,0.06275
4083.15382,0.06267
4081.22507,0.06247
4079.29632,0.06235
4077.36758,0.06240
4075.43883,0.06253
4073.51009,0.06272
4071.58134,0.06297
4069.65260,0.06311
4067.72385,0.06317
4065.79511,0.06332
4063.86636,0.06341
4061.93762,0.06313
4060.00887,0.06281
4058.08013,0.06290
4056.15138,0.06310
4054.22264,0.06323
4052.29389,0.06336
4050.36515,0.06344
4048.43640,0.06349
4046.50765,0.06352
4044.57891,0.06355
4042.65016,0.06366
4040.72142,0.06377
4038.79267,0.06365
4036.86393,0.06339
4034.93518,0.06329
4033.00644,0.06336
4031.07769,0.06351
4029.14895,0.06381
4027.22020,0.06405
4025.29146,0.06402
4023.36271,0.06401
4021.43397,0.06410
4019.50522,0.06403
4017.57648,0.06383
4015.64773,0.06363
4013.71898,0.06353
4011.79024,0.06348
4009.86149,0.06337
4007.93275,0.06345
4006.00400,0.06383
4004.07526,0.06410
4002.14651,0.06392
4000.21777,0.06361
3998.28902,0.06356
3996.36028,0.06362
3994.43153,0.06377
3992.50279,0.06400
3990.57404,0.06411
3988.64530,0.06409
3986.71655,0.06404
3984.78780,0.06401
3982.85906,0.06414
3980.93031,0.06438
3979.00157,0.06463
3977.07282,0.06477
3975.14408,0.06456
3973.21533,0.06420
3971.28659,0.06406
3969.35784,0.06429
3967.42910,0.06472
3965.50035,0.06490
3963.57161,0.06459
3961.64286,0.06424
3959.71412,0.06433
3957.78537,0.06468
3955.85663,0.06479
3953.92788,0.06469
3951.99913,0.06468
3950.07039,0.06471
3948.14164,0.06485
3946.21290,0.06516
3944.28415,0.06521
3942.35541,0.06494
3940.42666,0.06479
3938.49792,0.06483
3936.56917,0.06467
3934.64043,0.06427
3932.71168,0.06417
3930.78294,0.06447
3928.85419,0.06461
3926.92545,0.06450
3924.99670,0.06444
3923.06795,0.06459
3921.13921,0.06473
3919.21046,0.06459
3917.28172,0.06448
3915.35297,0.06473
3913.42423,0.06503
3911.49548,0.06501
3909.56674,0.06473
3907.63799,0.06447
3905.70925,0.06439
3903.78050,0.06440
3901.85176,0.06454
3899.92301,0.06477
3897.99427,0.06479
3896.06552,0.06466
3894.13678,0.06459
3892.20803,0.06462
3890.27928,0.06478
3888.35054,0.06488
3886.42179,0.06465
3884.49305,0.06425
3882.56430,0.06409
3880.63556,0.06424
3878.70681,0.06452
3876.77807,0.06474
3874.84932,0.06476
3872.92058,0.06462
3870.99183,0.06449
3869.06309,0.06457
3867.13434,0.06469
3865.20560,0.06456
3863.27685,0.06439
3861.34811,0.06434
3859.41936,0.06417
3857.49061,0.06404
3855.56187,0.06405
3853.63312,0.06396
3851.70438,0.06380
3849.77563,0.06373
3847.84689,0.06374
3845.91814,0.06400
3843.98940,0.06447
3842.06065,0.06457
3840.13191,0.06405
3838.20316,0.06355
3836.27442,0.06363
3834.34567,0.06395
3832.41693,0.06423
3830.48818,0.06449
3828.55943,0.06463
3826.63069,0.06456
3824.70194,0.06449
3822.77320,0.06458
3820.84445,0.06463
3818.91571,0.06440
3816.98696,0.06405
3815.05822,0.06382
3813.12947,0.06397
3811.20073,0.06424
3809.27198,0.06428
3807.34324,0.06421
3805.41449,0.06429
3803.48575,0.06455
3801.55700,0.06480
3799.62826,0.06496
3797.69951,0.06498
3795.77076,0.06484
3793.84202,0.06473
3791.91327,0.06473
3789.98453,0.06466
3788.05578,0.06449
3786.12704,0.06434
3784.19829,0.06433
3782.26955,0.06446
3780.34080,0.06461
3778.41206,0.06466
3776.48331,0.06467
3774.55457,0.06482
3772.62582,0.06505
3770.69708,0.06508
3768.76833,0.06488
3766.83959,0.06460
3764.91084,0.06441
3762.98209,0.06446
3761.05335,0.06460
3759.12460,0.06458
3757.19586,0.06452
3755.26711,0.06453
3753.33837,0.06463
3751.40962,0.06487
3749.48088,0.06514
3747.55213,0.06536
3745.62339,0.06537
3743.69464,0.06500
3741.76590,0.06474
3739.83715,0.06486
3737.90841,0.06516
3735.97966,0.06544
3734.05091,0.06543
3732.12217,0.06514
3730.19342,0.06505
3728.26468,0.06528
3726.33593,0.06545
3724.40719,0.06536
3722.47844,0.06523
3720.54970,0.06525
3718.62095,0.06539
3716.69221,0.06554
3714.76346,0.06558
3712.83472,0.06530
3710.90597,0.06482
3708.97723,0.06456
3707.04848,0.06461
3705.11974,0.06461
3703.19099,0.06427
3701.26224,0.06390
3699.33350,0.06390
3697.40475,0.06400
3695.47601,0.06384
3693.54726,0.06358
3691.61852,0.06341
3689.68977,0.06329
3687.76103,0.06304
3685.83228,0.06262
3683.90354,0.06212
3681.97479,0.06171
3680.04605,0.06148
3678.11730,0.06143
3676.18856,0.06148
3674.25981,0.06154
3672.33107,0.06144
3670.40232,0.06134
3668.47357,0.06142
3666.54483,0.06154
3664.61608,0.06161
3662.68734,0.06161
3660.75859,0.06138
3658.82985,0.06111
3656.90110,0.06106
3654.97236,0.06132
3653.04361,0.06178
3651.11487,0.06197
3649.18612,0.06173
3647.25738,0.06163
3645.32863,0.06178
3643.39989,0.06197
3641.47114,0.06219
3639.54239,0.06233
3637.61365,0.06234
3635.68490,0.06234
3633.75616,0.06230
3631.82741,0.06220
3629.89867,0.06209
3627.96992,0.06181
3626.04118,0.06151
3624.11243,0.06135
3622.18369,0.06121
3620.25494,0.06110
3618.32620,0.06101
3616.39745,0.06082
3614.46871,0.06071
3612.53996,0.06099
3610.61122,0.06140
3608.68247,0.06139
3606.75372,0.06113
3604.82498,0.06096
3602.89623,0.06075
3600.96749,0.06036
3599.03874,0.06020
3597.11000,0.06060
3595.18125,0.06104
3593.25251,0.06091
3591.32376,0.06046
3589.39502,0.06031
3587.46627,0.06051
3585.53753,0.06070
3583.60878,0.06081
3581.68004,0.06081
3579.75129,0.06061
3577.82254,0.06040
3575.89380,0.06029
3573.96505,0.06026
3572.03631,0.06036
3570.10756,0.06048
3568.17882,0.06052
3566.25007,0.06055
3564.32133,0.06066
3562.39258,0.06066
3560.46384,0.06043
3558.53509,0.06016
3556.60635,0.06004
3554.67760,0.06012
3552.74886,0.06020
3550.82011,0.06011
3548.89137,0.06003
3546.96262,0.06001
3545.03387,0.05993
3543.10513,0.05994
3541.17638,0.06004
3539.24764,0.05992
3537.31889,0.05952
3535.39015,0.05934
3533.46140,0.05958
3531.53266,0.05967
3529.60391,0.05946
3527.67517,0.05950
3525.74642,0.05975
3523.81768,0.05974
3521.88893,0.05972
3519.96019,0.06012
3518.03144,0.06051
3516.10270,0.06025
3514.17395,0.05972
3512.24520,0.05955
3510.31646,0.05972
3508.38771,0.05999
3506.45897,0.06017
3504.53022,0.06018
3502.60148,0.06014
3500.67273,0.06011
3498.74399,0.06001
3496.81524,0.06000
3494.88650,0.06022
3492.95775,0.06046
3491.02901,0.06046
3489.10026,0.06026
3487.17152,0.05993
3485.24277,0.05965
3483.31402,0.05967
3481.38528,0.05975
3479.45653,0.05964
3477.52779,0.05960
3475.59904,0.05967
3473.67030,0.05945
3471.74155,0.05891
3469.81281,0.05850
3467.88406,0.05847
3465.95532,0.05873
3464.02657,0.05910
3462.09783,0.05918
3460.16908,0.05884
3458.24034,0.05849
3456.31159,0.05843
3454.38285,0.05853
3452.45410,0.05863
3450.52535,0.05890
3448.59661,0.05933
3446.66786,0.05950
3444.73912,0.05933
3442.81037,0.05912
3440.88163,0.05898
3438.95288,0.05895
3437.02414,0.05894
3435.09539,0.05882
3433.16665,0.05874
3431.23790,0.05886
3429.30916,0.05895
3427.38041,0.05888
3425.45167,0.05878
3423.52292,0.05873
3421.59418,0.05885
3419.66543,0.05919
3417.73668,0.05944
3415.80794,0.05925
3413.87919,0.05887
3411.95045,0.05857
3410.02170,0.05836
3408.09296,0.05833
3406.16421,0.05859
3404.23547,0.05889
3402.30672,0.05894
3400.37798,0.05862
3398.44923,0.05822
3396.52049,0.05847
3394.59174,0.05936
3392.66300,0.05992
3390.73425,0.05982
3388.80550,0.05955
3386.87676,0.05935
3384.94801,0.05920
3383.01927,0.05902
3381.09052,0.05890
3379.16178,0.05890
3377.23303,0.05868
3375.30429,0.05828
3373.37554,0.05809
3371.44680,0.05795
3369.51805,0.05776
3367.58931,0.05792
3365.66056,0.05849
3363.73182,0.05890
3361.80307,0.05876
3359.87433,0.05853
3357.94558,0.05871
3356.01683,0.05895
3354.08809,0.05880
3352.15934,0.05846
3350.23060,0.05816
3348.30185,0.05814
3346.37311,0.05846
3344.44436,0.05867
3342.51562,0.05860
3340.58687,0.05866
3338.65813,0.05880
3336.72938,0.05878
3334.80064,0.05864
3332.87189,0.05854
3330.94315,0.05844
3329.01440,0.05828
3327.08566,0.05830
3325.15691,0.05849
3323.22816,0.05848
3321.29942,0.05837
3319.37067,0.05833
3317.44193,0.05819
3315.51318,0.05795
3313.58444,0.05793
3311.65569,0.05824
3309.72695,0.05861
3307.79820,0.05879
3305.86946,0.05862
3303.94071,0.05816
3302.01197,0.05799
3300.08322,0.05827
3298.15448,0.05842
3296.22573,0.05831
3294.29698,0.05846
3292.36824,0.05880
3290.43949,0.05889
3288.51075,0.05873
3286.58200,0.05848
3284.65326,0.05833
3282.72451,0.05835
3280.79577,0.05837
3278.86702,0.05826
3276.93828,0.05826
3275.00953,0.05851
3273.08079,0.05865
3271.15204,0.05867
3269.22330,0.05901
3267.29455,0.05939
3265.36581,0.05926
3263.43706,0.05870
3261.50831,0.05813
3259.57957,0.05794
3257.65082,0.05831
3255.72208,0.05893
3253.79333,0.05919
3251.86459,0.05900
3249.93584,0.05878
3248.00710,0.05878
3246.07835,0.05869
3244.14961,0.05812
3242.22086,0.05739
3240.29212,0.05723
3238.36337,0.05763
3236.43463,0.05801
3234.50588,0.05816
3232.57713,0.05800
3230.64839,0.05763
3228.71964,0.05769
3226.79090,0.05858
3224.86215,0.05956
3222.93341,0.05968
3221.00466,0.05923
3219.07592,0.05897
3217.14717,0.05908
3215.21843,0.05947
3213.28968,0.05970
3211.36094,0.05935
3209.43219,0.05897
3207.50345,0.05891
3205.57470,0.05880
3203.64596,0.05868
3201.71721,0.05870
3199.78846,0.05853
3197.85972,0.05802
3195.93097,0.05768
3194.00223,0.05789
3192.07348,0.05826
3190.14474,0.05837
3188.21599,0.05832
3186.28725,0.05816
3184.35850,0.05794
3182.42976,0.05771
3180.50101,0.05758
3178.57227,0.05799
3176.64352,0.05852
3174.71478,0.05847
3172.78603,0.05841
3170.85729,0.05871
3168.92854,0.05873
3166.99979,0.05816
3165.07105,0.05778
3163.14230,0.05822
3161.21356,0.05863
3159.28481,0.05826
3157.35607,0.05779
3155.42732,0.05805
3153.49858,0.05878
3151.56983,0.05894
3149.64109,0.05840
3147.71234,0.05780
3145.78360,0.05761
3143.85485,0.05817
3141.92611,0.05892
3139.99736,0.05898
3138.06861,0.05851
3136.13987,0.05807
3134.21112,0.05794
3132.28238,0.05806
3130.35363,0.05838
3128.42489,0.05859
3126.49614,0.05818
3124.56740,0.05772
3122.63865,0.05787
3120.70991,0.05834
3118.78116,0.05865
3116.85242,0.05850
3114.92367,0.05803
3112.99493,0.05772
3111.06618,0.05781
3109.13744,0.05808
3107.20869,0.05823
3105.27994,0.05809
3103.35120,0.05778
3101.42245,0.05763
3099.49371,0.05765
3097.56496,0.05766
3095.63622,0.05779
3093.70747,0.05806
3091.77873,0.05812
3089.84998,0.05779
3087.92124,0.05748
3085.99249,0.05729
3084.06375,0.05701
3082.13500,0.05685
3080.20626,0.05687
3078.27751,0.05686
3076.34877,0.05691
3074.42002,0.05713
3072.49127,0.05734
3070.56253,0.05742
3068.63378,0.05742
3066.70504,0.05725
3064.77629,0.05694
3062.84755,0.05673
3060.91880,0.05669
3058.99006,0.05681
3057.06131,0.05698
3055.13257,0.05693
3053.20382,0.05676
3051.27508,0.05675
3049.34633,0.05667
3047.41759,0.05634
3045.48884,0.05610
3043.56009,0.05605
3041.63135,0.05603
3039.70260,0.05615
3037.77386,0.05634
3035.84511,0.05634
3033.91637,0.05610
3031.98762,0.05584
3030.05888,0.05580
3028.13013,0.05589
3026.20139,0.05597
3024.27264,0.05608
3022.34390,0.05611
3020.41515,0.05582
3018.48641,0.05554
3016.55766,0.05562
3014.62892,0.05570
3012.70017,0.05560
3010.77142,0.05556
3008.84268,0.05557
3006.91393,0.05553
3004.98519,0.05540
3003.05644,0.05520
3001.12770,0.05509
2999.19895,0.05516
2997.27021,0.05513
2995.34146,0.05499
2993.41272,0.05488
2991.48397,0.05473
2989.55523,0.05461
2987.62648,0.05475
2985.69774,0.05502
2983.76899,0.05504
2981.84025,0.05465
2979.91150,0.05412
2977.98275,0.05388
2976.05401,0.05393
2974.12526,0.05399
2972.19652,0.05401
2970.26777,0.05409
2968.33903,0.05427
2966.41028,0.05446
2964.48154,0.05453
2962.55279,0.05448
2960.62405,0.05453
2958.69530,0.05469
2956.76656,0.05476
2954.83781,0.05480
2952.90907,0.05500
2950.98032,0.05517
2949.05157,0.05516
2947.12283,0.05520
2945.19408,0.05530
2943.26534,0.05524
2941.33659,0.05508
2939.40785,0.05504
2937.47910,0.05518
2935.55036,0.05536
2933.62161,0.05545
2931.69287,0.05549
2929.76412,0.05554
2927.83538,0.05560
2925.90663,0.05572
2923.97789,0.05591
2922.04914,0.05610
2920.12040,0.05628
2918.19165,0.05648
2916.26290,0.05670
2914.33416,0.05688
2912.40541,0.05706
2910.47667,0.05718
2908.54792,0.05720
2906.61918,0.05714
2904.69043,0.05713
2902.76169,0.05731
2900.83294,0.05770
2898.90420,0.05800
2896.97545,0.05789
2895.04671,0.05748
2893.11796,0.05718
2891.18922,0.05712
2889.26047,0.05711
2887.33172,0.05706
2885.40298,0.05702
2883.47423,0.05693
2881.54549,0.05675
2879.61674,0.05661
2877.68800,0.05648
2875.75925,0.05629
2873.83051,0.05616
2871.90176,0.05623
2869.97302,0.05642
2868.04427,0.05654
2866.11553,0.05649
2864.18678,0.05639
2862.25804,0.05649
2860.32929,0.05677
2858.40055,0.05696
2856.47180,0.05685
2854.54305,0.05673
2852.61431,0.05695
2850.68556,0.05733
2848.75682,0.05755
2846.82807,0.05752
2844.89933,0.05744
2842.97058,0.05748
2841.04184,0.05748
2839.11309,0.05724
2837.18435,0.05693
2835.25560,0.05685
2833.32686,0.05689
2831.39811,0.05678
2829.46937,0.05656
2827.54062,0.05649
2825.61188,0.05673
2823.68313,0.05703
2821.75438,0.05708
2819.82564,0.05692
2817.89689,0.05682
2815.96815,0.05683
2814.03940,0.05681
2812.11066,0.05679
2810.18191,0.05683
2808.25317,0.05695
2806.32442,0.05712
2804.39568,0.05716
2802.46693,0.05699
2800.53819,0.05689
2798.60944,0.05699
2796.68070,0.05710
2794.75195,0.05719
2792.82320,0.05728
2790.89446,0.05725
2788.96571,0.05720
2787.03697,0.05733
2785.10822,0.05761
2783.17948,0.05778
2781.25073,0.05779
2779.32199,0.05770
2777.39324,0.05754
2775.46450,0.05730
2773.53575,0.05694
2771.60701,0.05667
2769.67826,0.05670
2767.74952,0.05690
2765.82077,0.05703
2763.89203,0.05710
2761.96328,0.05713
2760.03453,0.05717
2758.10579,0.05735
2756.17704,0.05749
2754.24830,0.05740
2752.31955,0.05722
2750.39081,0.05707
2748.46206,0.05691
2746.53332,0.05678
2744.60457,0.05675
2742.67583,0.05685
2740.74708,0.05697
2738.81834,0.05697
2736.88959,0.05689
2734.96085,0.05683
2733.03210,0.05682
2731.10336,0.05701
2729.17461,0.05720
2727.24586,0.05722
2725.31712,0.05726
2723.38837,0.05732
2721.45963,0.05724
2719.53088,0.05699
2717.60214,0.05681
2715.67339,0.05693
2713.74465,0.05719
2711.81590,0.05721
2709.88716,0.05698
2707.95841,0.05674
2706.02967,0.05670
2704.10092,0.05683
2702.17218,0.05691
2700.24343,0.05685
2698.31468,0.05677
2696.38594,0.05674
2694.45719,0.05681
2692.52845,0.05697
2690.59970,0.05713
2688.67096,0.05724
2686.74221,0.05733
2684.81347,0.05740
2682.88472,0.05731
2680.95598,0.05707
2679.02723,0.05684
2677.09849,0.05671
2675.16974,0.05681
2673.24100,0.05700
2671.31225,0.05703
2669.38351,0.05698
2667.45476,0.05706
2665.52601,0.05713
2663.59727,0.05697
2661.66852,0.05673
2659.73978,0.05663
2657.81103,0.05667
2655.88229,0.05685
2653.95354,0.05702
2652.02480,0.05705
2650.09605,0.05699
2648.16731,0.05695
2646.23856,0.05697
2644.30982,0.05699
2642.38107,0.05697
2640.45233,0.05694
2638.52358,0.05689
2636.59484,0.05679
2634.66609,0.05670
2632.73734,0.05668
2630.80860,0.05665
2628.87985,0.05655
2626.95111,0.05646
2625.02236,0.05642
2623.09362,0.05640
2621.16487,0.05638
2619.23613,0.05635
2617.30738,0.05635
2615.37864,0.05643
2613.44989,0.05654
2611.52115,0.05656
2609.59240,0.05652
2607.66366,0.05645
2605.73491,0.05636
2603.80616,0.05629
2601.87742,0.05622
2599.94867,0.05616
2598.01993,0.05621
2596.09118,0.05635
2594.16244,0.05644
2592.23369,0.05647
2590.30495,0.05655
2588.37620,0.05668
2586.44746,0.05667
2584.51871,0.05652
2582.58997,0.05645
2580.66122,0.05645
2578.73248,0.05628
2576.80373,0.05610
2574.87499,0.05623
2572.94624,0.05652
2571.01749,0.05661
2569.08875,0.05645
2567.16000,0.05620
2565.23126,0.05605
2563.30251,0.05612
2561.37377,0.05636
2559.44502,0.05652
2557.51628,0.05650
2555.58753,0.05635
2553.65879,0.05617
2551.73004,0.05609
2549.80130,0.05616
2547.87255,0.05635
2545.94381,0.05650
2544.01506,0.05641
2542.08631,0.05614
2540.15757,0.05599
2538.22882,0.05602
2536.30008,0.05608
2534.37133,0.05605
2532.44259,0.05597
2530.51384,0.05599
2528.58510,0.05614
2526.65635,0.05612
2524.72761,0.05598
2522.79886,0.05606
2520.87012,0.05626
2518.94137,0.05632
2517.01263,0.05623
2515.08388,0.05613
2513.15514,0.05608
2511.22639,0.05615
2509.29764,0.05631
2507.36890,0.05644
2505.44015,0.05658
2503.51141,0.05679
2501.58266,0.05690
2499.65392,0.05685
2497.72517,0.05683
2495.79643,0.05679
2493.86768,0.05663
2491.93894,0.05651
2490.01019,0.05655
2488.08145,0.05653
2486.15270,0.05636
2484.22396,0.05634
2482.29521,0.05655
2480.36647,0.05673
2478.43772,0.05677
2476.50897,0.05667
2474.58023,0.05652
2472.65148,0.05642
2470.72274,0.05642
2468.79399,0.05649
2466.86525,0.05655
2464.93650,0.05662
2463.00776,0.05671
2461.07901,0.05673
2459.15027,0.05663
2457.22152,0.05649
2455.29278,0.05635
2453.36403,0.05621
2451.43529,0.05608
2449.50654,0.05604
2447.57779,0.05616
2445.64905,0.05636
2443.72030,0.05656
2441.79156,0.05671
2439.86281,0.05680
2437.93407,0.05675
2436.00532,0.05664
2434.07658,0.05662
2432.14783,0.05655
2430.21909,0.05636
2428.29034,0.05629
2426.36160,0.05631
2424.43285,0.05636
2422.50411,0.05660
2420.57536,0.05688
2418.64662,0.05696
2416.71787,0.05681
2414.78912,0.05666
2412.86038,0.05671
2410.93163,0.05674
2409.00289,0.05661
2407.07414,0.05649
2405.14540,0.05648
2403.21665,0.05651
2401.28791,0.05659
2399.35916,0.05663
2397.43042,0.05652
2395.50167,0.05626
2393.57293,0.05613
2391.64418,0.05641
2389.71544,0.05682
2387.78669,0.05693
2385.85795,0.05676
2383.92920,0.05661
2382.00045,0.05665
2380.07171,0.05680
2378.14296,0.05684
2376.21422,0.05664
2374.28547,0.05645
2372.35673,0.05646
2370.42798,0.05645
2368.49924,0.05627
2366.57049,0.05612
2364.64175,0.05617
2362.71300,0.05642
2360.78426,0.05667
2358.85551,0.05671
2356.92677,0.05662
2354.99802,0.05655
2353.06927,0.05652
2351.14053,0.05642
2349.21178,0.05633
2347.28304,0.05645
2345.35429,0.05661
2343.42555,0.05653
2341.49680,0.05646
2339.56806,0.05646
2337.63931,0.05633
2335.71057,0.05622
2333.78182,0.05628
2331.85308,0.05635
2329.92433,0.05634
2327.99559,0.05637
2326.06684,0.05652
2324.13810,0.05659
2322.20935,0.05650
2320.28060,0.05640
2318.35186,0.05639
2316.42311,0.05642
2314.49437,0.05645
2312.56562,0.05641
2310.63688,0.05625
2308.70813,0.05611
2306.77939,0.05603
2304.85064,0.05596
2302.92190,0.05600
2300.99315,0.05613
2299.06441,0.05632
2297.13566,0.05658
2295.20692,0.05664
2293.27817,0.05642
2291.34943,0.05624
2289.42068,0.05624
2287.49193,0.05625
2285.56319,0.05624
2283.63444,0.05622
2281.70570,0.05615
2279.77695,0.05607
2277.84821,0.05612
2275.91946,0.05628
2273.99072,0.05639
2272.06197,0.05643
2270.13323,0.05647
2268.20448,0.05652
2266.27574,0.05656
2264.34699,0.05655
2262.41825,0.05645
2260.48950,0.05632
2258.56075,0.05619
2256.63201,0.05610
2254.70326,0.05614
2252.77452,0.05621
2250.84577,0.05609
2248.91703,0.05595
2246.98828,0.05613
2245.05954,0.05645
2243.13079,0.05654
2241.20205,0.05643
2239.27330,0.05635
2237.34456,0.05641
2235.41581,0.05658
2233.48707,0.05667
2231.55832,0.05657
2229.62958,0.05643
2227.70083,0.05638
2225.77208,0.05637
2223.84334,0.05634
2221.91459,0.05627
2219.98585,0.05622
2218.05710,0.05614
2216.12836,0.05612
2214.19961,0.05624
2212.27087,0.05640
2210.34212,0.05650
2208.41338,0.05654
2206.48463,0.05652
2204.55589,0.05650
2202.62714,0.05645
2200.69840,0.05635
2198.76965,0.05637
2196.84090,0.05655
2194.91216,0.05671
2192.98341,0.05675
2191.05467,0.05671
2189.12592,0.05665
2187.19718,0.05658
2185.26843,0.05658
2183.33969,0.05670
2181.41094,0.05691
2179.48220,0.05704
2177.55345,0.05699
2175.62471,0.05685
2173.69596,0.05669
2171.76722,0.05656
2169.83847,0.05650
2167.90973,0.05654
2165.98098,0.05659
2164.05223,0.05660
2162.12349,0.05664
2160.19474,0.05683
2158.26600,0.05703
2156.33725,0.05693
2154.40851,0.05666
2152.47976,0.05665
2150.55102,0.05685
2148.62227,0.05694
2146.69353,0.05686
2144.76478,0.05688
2142.83604,0.05709
2140.90729,0.05724
2138.97855,0.05725
2137.04980,0.05720
2135.12106,0.05717
2133.19231,0.05723
2131.26356,0.05733
2129.33482,0.05735
2127.40607,0.05720
2125.47733,0.05695
2123.54858,0.05679
2121.61984,0.05684
2119.69109,0.05695
2117.76235,0.05697
2115.83360,0.05705
2113.90486,0.05713
2111.97611,0.05708
2110.04737,0.05706
2108.11862,0.05720
2106.18988,0.05730
2104.26113,0.05730
2102.33238,0.05736
2100.40364,0.05746
2098.47489,0.05751
2096.54615,0.05741
2094.61740,0.05725
2092.68866,0.05720
2090.75991,0.05724
2088.83117,0.05719
2086.90242,0.05711
2084.97368,0.05712
2083.04493,0.05707
2081.11619,0.05700
2079.18744,0.05713
2077.25870,0.05735
2075.32995,0.05743
2073.40121,0.05742
2071.47246,0.05742
2069.54371,0.05741
2067.61497,0.05749
2065.68622,0.05763
2063.75748,0.05756
2061.82873,0.05732
2059.89999,0.05722
2057.97124,0.05725
2056.04250,0.05721
2054.11375,0.05715
2052.18501,0.05726
2050.25626,0.05743
2048.32752,0.05750
2046.39877,0.05747
2044.47003,0.05737
2042.54128,0.05720
2040.61254,0.05705
2038.68379,0.05711
2036.75504,0.05733
2034.82630,0.05746
2032.89755,0.05752
2030.96881,0.05750
2029.04006,0.05732
2027.11132,0.05712
2025.18257,0.05715
2023.25383,0.05731
2021.32508,0.05739
2019.39634,0.05735
2017.46759,0.05725
2015.53885,0.05719
2013.61010,0.05718
2011.68136,0.05722
2009.75261,0.05736
2007.82386,0.05750
2005.89512,0.05752
2003.96637,0.05749
2002.03763,0.05758
2000.10888,0.05774
1998.18014,0.05776
1996.25139,0.05770
1994.32265,0.05776
1992.39390,0.05783
1990.46516,0.05777
1988.53641,0.05776
1986.60767,0.05779
1984.67892,0.05775
1982.75018,0.05775
1980.82143,0.05781
1978.89269,0.05785
1976.96394,0.05787
1975.03519,0.05794
1973.10645,0.05804
1971.17770,0.05812
1969.24896,0.05813
1967.32021,0.05808
1965.39147,0.05805
1963.46272,0.05818
1961.53398,0.05842
1959.60523,0.05861
1957.67649,0.05860
1955.74774,0.05847
1953.81900,0.05849
1951.89025,0.05867
1949.96151,0.05876
1948.03276,0.05874
1946.10402,0.05870
1944.17527,0.05869
1942.24652,0.05861
1940.31778,0.05844
1938.38903,0.05843
1936.46029,0.05862
1934.53154,0.05876
1932.60280,0.05880
1930.67405,0.05887
1928.74531,0.05895
1926.81656,0.05890
1924.88782,0.05880
1922.95907,0.05878
1921.03033,0.05891
1919.10158,0.05903
1917.17284,0.05893
1915.24409,0.05875
1913.31534,0.05887
1911.38660,0.05916
1909.45785,0.05932
1907.52911,0.05934
1905.60036,0.05933
1903.67162,0.05941
1901.74287,0.05964
1899.81413,0.05984
1897.88538,0.05995
1895.95664,0.06002
1894.02789,0.06005
1892.09915,0.06008
1890.17040,0.06020
1888.24166,0.06038
1886.31291,0.06054
1884.38417,0.06065
1882.45542,0.06066
1880.52667,0.06067
1878.59793,0.06080
1876.66918,0.06088
1874.74044,0.06075
1872.81169,0.06059
1870.88295,0.06056
1868.95420,0.06066
1867.02546,0.06094
1865.09671,0.06123
1863.16797,0.06136
1861.23922,0.06137
1859.31048,0.06143
1857.38173,0.06153
1855.45299,0.06162
1853.52424,0.06169
1851.59549,0.06175
1849.66675,0.06171
1847.73800,0.06156
1845.80926,0.06159
1843.88051,0.06184
1841.95177,0.06200
1840.02302,0.06209
1838.09428,0.06220
1836.16553,0.06222
1834.23679,0.06219
1832.30804,0.06224
1830.37930,0.06224
1828.45055,0.06215
1826.52181,0.06211
1824.59306,0.06201
1822.66432,0.06189
1820.73557,0.06197
1818.80682,0.06216
1816.87808,0.06223
1814.94933,0.06223
1813.02059,0.06217
1811.09184,0.06205
1809.16310,0.06200
1807.23435,0.06194
1805.30561,0.06166
1803.37686,0.06102
1801.44812,0.05990
1799.51937,0.05848
1797.59063,0.05739
1795.66188,0.05682
1793.73314,0.05641
1791.80439,0.05617
1789.87565,0.05644
1787.94690,0.05711
1786.01815,0.05773
1784.08941,0.05802
1782.16066,0.05817
1780.23192,0.05840
1778.30317,0.05863
1776.37443,0.05868
1774.44568,0.05869
1772.51694,0.05877
1770.58819,0.05866
1768.65945,0.05826
1766.73070,0.05779
1764.80196,0.05733
1762.87321,0.05682
1760.94447,0.05631
1759.01572,0.05581
1757.08697,0.05532
1755.15823,0.05490
1753.22948,0.05449
1751.30074,0.05398
1749.37199,0.05342
1747.44325,0.05296
1745.51450,0.05269
1743.58576,0.05250
1741.65701,0.05236
1739.72827,0.05252
1737.79952,0.05306
1735.87078,0.05361
1733.94203,0.05399
1732.01329,0.05429
1730.08454,0.05466
1728.15580,0.05516
1726.22705,0.05564
1724.29830,0.05598
1722.36956,0.05625
1720.44081,0.05642
1718.51207,0.05643
1716.58332,0.05643
1714.65458,0.05662
1712.72583,0.05689
1710.79709,0.05710
1708.86834,0.05736
1706.93960,0.05773
1705.01085,0.05815
1703.08211,0.05857
1701.15336,0.05891
1699.22462,0.05914
1697.29587,0.05940
1695.36713,0.05971
1693.43838,0.06000
1691.50963,0.06021
1689.58089,0.06033
1687.65214,0.06049
1685.72340,0.06077
1683.79465,0.06113
1681.86591,0.06162
1679.93716,0.06220
1678.00842,0.06268
1676.07967,0.06311
1674.15093,0.06362
1672.22218,0.06414
1670.29344,0.06472
1668.36469,0.06543
1666.43595,0.06613
1664.50720,0.06679
1662.57845,0.06746
1660.64971,0.06817
1658.72096,0.06892
1656.79222,0.06958
1654.86347,0.06999
1652.93473,0.07015
1651.00598,0.07035
1649.07724,0.07060
1647.14849,0.07085
1645.21975,0.07114
1643.29100,0.07137
1641.36226,0.07149
1639.43351,0.07166
1637.50477,0.07196
1635.57602,0.07219
1633.64728,0.07218
1631.71853,0.07212
1629.78978,0.07226
1627.86104,0.07262
1625.93229,0.07299
1624.00355,0.07323
1622.07480,0.07322
1620.14606,0.07312
1618.21731,0.07312
1616.28857,0.07319
1614.35982,0.07317
1612.43108,0.07298
1610.50233,0.07271
1608.57359,0.07251
1606.64484,0.07222
1604.71610,0.07174
1602.78735,0.07142
1600.85861,0.07167
1598.92986,0.07243
1597.00111,0.07341
1595.07237,0.07423
1593.14362,0.07450
1591.21488,0.07427
1589.28613,0.07386
1587.35739,0.07335
1585.42864,0.07272
1583.49990,0.07211
1581.57115,0.07152
1579.64241,0.07109
1577.71366,0.07120
1575.78492,0.07193
1573.85617,0.07281
1571.92743,0.07363
1569.99868,0.07447
1568.06993,0.07508
1566.14119,0.07521
1564.21244,0.07517
1562.28370,0.07548
1560.35495,0.07642
1558.42621,0.07772
1556.49746,0.07872
1554.56872,0.07942
1552.63997,0.07998
1550.71123,0.08018
1548.78248,0.07984
1546.85374,0.07913
1544.92499,0.07821
1542.99625,0.07721
1541.06750,0.07649
1539.13876,0.07648
1537.21001,0.07728
1535.28126,0.07841
1533.35252,0.07934
1531.42377,0.07986
1529.49503,0.08004
1527.56628,0.07994
1525.63754,0.07942
1523.70879,0.07860
1521.78005,0.07787
1519.85130,0.07731
1517.92256,0.07657
1515.99381,0.07578
1514.06507,0.07521
1512.13632,0.07473
1510.20758,0.07409
1508.27883,0.07322
1506.35008,0.07206
1504.42134,0.07089
1502.49259,0.07000
1500.56385,0.06930
1498.63510,0.06848
1496.70636,0.06742
1494.77761,0.06640
1492.84887,0.06567
1490.92012,0.06493
1488.99138,0.06396
1487.06263,0.06300
1485.13389,0.06224
1483.20514,0.06165
1481.27640,0.06119
1479.34765,0.06079
1477.41891,0.06042
1475.49016,0.06009
1473.56141,0.05965
1471.63267,0.05920
1469.70392,0.05897
1467.77518,0.05898
1465.84643,0.05917
1463.91769,0.05944
1461.98894,0.05964
1460.06020,0.05976
1458.13145,0.05990
1456.20271,0.06016
1454.27396,0.06055
1452.34522,0.06090
1450.41647,0.06113
1448.48773,0.06135
1446.55898,0.06148
1444.63024,0.06140
1442.70149,0.06135
1440.77274,0.06169
1438.84400,0.06250
1436.91525,0.06358
1434.98651,0.06480
1433.05776,0.06610
1431.12902,0.06726
1429.20027,0.06834
1427.27153,0.06988
1425.34278,0.07204
1423.41404,0.07441
1421.48529,0.07660
1419.55655,0.07858
1417.62780,0.08038
1415.69906,0.08198
1413.77031,0.08350
1411.84156,0.08506
1409.91282,0.08642
1407.98407,0.08704
1406.05533,0.08656
1404.12658,0.08532
1402.19784,0.08421
1400.26909,0.08385
1398.34035,0.08412
1396.41160,0.08459
1394.48286,0.08499
1392.55411,0.08522
1390.62537,0.08524
1388.69662,0.08509
1386.76788,0.08469
1384.83913,0.08393
1382.91039,0.08303
1380.98164,0.08221
1379.05289,0.08154
1377.12415,0.08106
1375.19540,0.08075
1373.26666,0.08050
1371.33791,0.08008
1369.40917,0.07943
1367.48042,0.07859
1365.55168,0.07752
1363.62293,0.07608
1361.69419,0.07439
1359.76544,0.07283
1357.83670,0.07157
1355.90795,0.07060
1353.97921,0.06991
1352.05046,0.06942
1350.12172,0.06898
1348.19297,0.06839
1346.26422,0.06748
1344.33548,0.06632
1342.40673,0.06498
1340.47799,0.06361
1338.54924,0.06254
1336.62050,0.06198
1334.69175,0.06196
1332.76301,0.06224
1330.83426,0.06253
1328.90552,0.06274
1326.97677,0.06287
1325.04803,0.06295
1323.11928,0.06303
1321.19054,0.06313
1319.26179,0.06318
1317.33304,0.06311
1315.40430,0.06293
1313.47555,0.06289
1311.54681,0.06292
1309.61806,0.06286
1307.68932,0.06279
1305.76057,0.06276
1303.83183,0.06276
1301.90308,0.06277
1299.97434,0.06258
1298.04559,0.06222
1296.11685,0.06199
1294.18810,0.06197
1292.25936,0.06189
1290.33061,0.06157
1288.40187,0.06105
1286.47312,0.06048
1284.54437,0.05997
1282.61563,0.05949
1280.68688,0.05910
1278.75814,0.05865
1276.82939,0.05805
1274.90065,0.05749
1272.97190,0.05708
1271.04316,0.05670
1269.11441,0.05641
1267.18567,0.05630
1265.25692,0.05634
1263.32818,0.05645
1261.39943,0.05657
1259.47069,0.05675
1257.54194,0.05730
1255.61320,0.05830
1253.68445,0.05934
1251.75570,0.05994
1249.82696,0.06021
1247.89821,0.06054
1245.96947,0.06087
1244.04072,0.06103
1242.11198,0.06122
1240.18323,0.06162
1238.25449,0.06200
1236.32574,0.06215
1234.39700,0.06228
1232.46825,0.06259
1230.53951,0.06292
1228.61076,0.06307
1226.68202,0.06306
1224.75327,0.06293
1222.82452,0.06267
1220.89578,0.06244
1218.96703,0.06237
1217.03829,0.06229
1215.10954,0.06207
1213.18080,0.06168
1211.25205,0.06121
1209.32331,0.06088
1207.39456,0.06077
1205.46582,0.06073
1203.53707,0.06060
1201.60833,0.06039
1199.67958,0.06024
1197.75084,0.06022
1195.82209,0.06027
1193.89335,0.06037
1191.96460,0.06058
1190.03585,0.06084
1188.10711,0.06084
1186.17836,0.06052
1184.24962,0.06024
1182.32087,0.06008
1180.39213,0.05993
1178.46338,0.05989
1176.53464,0.06013
1174.60589,0.06046
1172.67715,0.06066
1170.74840,0.06077
1168.81966,0.06082
1166.89091,0.06074
1164.96217,0.06070
1163.03342,0.06083
1161.10467,0.06094
1159.17593,0.06084
1157.24718,0.06069
1155.31844,0.06083
1153.38969,0.06110
1151.46095,0.06119
1149.53220,0.06106
1147.60346,0.06104
1145.67471,0.06131
1143.74597,0.06144
1141.81722,0.06108
1139.88848,0.06054
1137.95973,0.06024
1136.03099,0.06018
1134.10224,0.06018
1132.17350,0.05999
1130.24475,0.05947
1128.31600,0.05890
1126.38726,0.05866
1124.45851,0.05863
1122.52977,0.05863
1120.60102,0.05853
1118.67228,0.05823
1116.74353,0.05789
1114.81479,0.05777
1112.88604,0.05786
1110.95730,0.05786
1109.02855,0.05768
1107.09981,0.05750
1105.17106,0.05751
1103.24232,0.05772
1101.31357,0.05802
1099.38483,0.05832
1097.45608,0.05862
1095.52733,0.05876
1093.59859,0.05877
1091.66984,0.05891
1089.74110,0.05911
1087.81235,0.05904
1085.88361,0.05871
1083.95486,0.05852
1082.02612,0.05856
1080.09737,0.05845
1078.16863,0.05816
1076.23988,0.05809
1074.31114,0.05837
1072.38239,0.05873
1070.45365,0.05892
1068.52490,0.05901
1066.59615,0.05897
1064.66741,0.05870
1062.73866,0.05842
1060.80992,0.05836
1058.88117,0.05841
1056.95243,0.05851
1055.02368,0.05879
1053.09494,0.05903
1051.16619,0.05885
1049.23745,0.05856
1047.30870,0.05849
1045.37996,0.05863
1043.45121,0.05899
1041.52247,0.05932
1039.59372,0.05916
1037.66498,0.05872
1035.73623,0.05856
1033.80748,0.05865
1031.87874,0.05854
1029.94999,0.05822
1028.02125,0.05795
1026.09250,0.05776
1024.16376,0.05768
1022.23501,0.05790
1020.30627,0.05816
1018.37752,0.05790
1016.44878,0.05751
1014.52003,0.05763
1012.59129,0.05796
1010.66254,0.05791
1008.73380,0.05748
1006.80505,0.05702
1004.87631,0.05671
1002.94756,0.05661
1001.01881,0.05657
999.09007,0.05639
997.16132,0.05620
995.23258,0.05621
993.30383,0.05640
991.37509,0.05656
989.44634,0.05655
987.51760,0.05648
985.58885,0.05657
983.66011,0.05672
981.73136,0.05662
979.80262,0.05628
977.87387,0.05599
975.94513,0.05604
974.01638,0.05630
972.08763,0.05649
970.15889,0.05661
968.23014,0.05684
966.30140,0.05720
964.37265,0.05762
962.44391,0.05802
960.51516,0.05833
958.58642,0.05847
956.65767,0.05867
954.72893,0.05916
952.80018,0.05972
950.87144,0.06007
948.94269,0.06000
947.01395,0.05965
945.08520,0.05946
943.15646,0.05949
941.22771,0.05961
939.29896,0.05966
937.37022,0.05935
935.44147,0.05888
933.51273,0.05872
931.58398,0.05883
929.65524,0.05882
927.72649,0.05869
925.79775,0.05874
923.86900,0.05887
921.94026,0.05895
920.01151,0.05906
918.08277,0.05916
916.15402,0.05911
914.22528,0.05898
912.29653,0.05899
910.36779,0.05891
908.43904,0.05860
906.51029,0.05832
904.58155,0.05828
902.65280,0.05829
900.72406,0.05812
898.79531,0.05801
896.86657,0.05809
894.93782,0.05820
893.00908,0.05806
891.08033,0.05772
889.15159,0.05764
887.22284,0.05793
885.29410,0.05815
883.36535,0.05823
881.43661,0.05856
879.50786,0.05942
877.57911,0.06075
875.65037,0.06238
873.72162,0.06393
871.79288,0.06457
869.86413,0.06395
867.93539,0.06266
866.00664,0.06128
864.07790,0.06024
862.14915,0.05981
860.22041,0.05960
858.29166,0.05919
856.36292,0.05874
854.43417,0.05832
852.50543,0.05796
850.57668,0.05788
848.64794,0.05812
846.71919,0.05857
844.79044,0.05902
842.86170,0.05925
840.93295,0.05919
839.00421,0.05874
837.07546,0.05825
835.14672,0.05832
833.21797,0.05873
831.28923,0.05907
829.36048,0.05931
827.43174,0.05952
825.50299,0.05982
823.57425,0.06001
821.64550,0.05970
819.71676,0.05918
817.78801,0.05891
815.85926,0.05877
813.93052,0.05868
812.00177,0.05852
810.07303,0.05826
808.14428,0.05823
806.21554,0.05845
804.28679,0.05865
802.35805,0.05867
800.42930,0.05840
798.50056,0.05796
796.57181,0.05770
794.64307,0.05782
792.71432,0.05793
790.78558,0.05770
788.85683,0.05743
786.92809,0.05740
784.99934,0.05756
783.07059,0.05766
781.14185,0.05747
779.21310,0.05720
777.28436,0.05720
775.35561,0.05726
773.42687,0.05718
771.49812,0.05697
769.56938,0.05653
767.64063,0.05592
765.71189,0.05557
763.78314,0.05566
761.85440,0.05586
759.92565,0.05581
757.99691,0.05550
756.06816,0.05519
754.13942,0.05508
752.21067,0.05519
750.28192,0.05525
748.35318,0.05493
746.42443,0.05454
744.49569,0.05452
742.56694,0.05455
740.63820,0.05436
738.70945,0.05407
736.78071,0.05387
734.85196,0.05384
732.92322,0.05376
730.99447,0.05347
729.06573,0.05324
727.13698,0.05306
725.20824,0.05260
723.27949,0.05215
721.35074,0.05218
719.42200,0.05220
717.49325,0.05168
715.56451,0.05139
713.63576,0.05215
711.70702,0.05303
709.77827,0.05297
707.84953,0.05252
705.92078,0.05238
703.99204,0.05241
702.06329,0.05247
700.13455,0.05262
698.20580,0.05298
696.27706,0.05367
694.34831,0.05430
692.41957,0.05453
690.49082,0.05454
688.56207,0.05417
686.63333,0.05371
684.70458,0.05406
682.77584,0.05489
680.84709,0.05540
678.91835,0.05574
676.98960,0.05583
675.06086,0.05537
673.13211,0.05497
671.20337,0.05501
669.27462,0.05507
667.34588,0.05498
665.41713,0.05482
663.48839,0.05448
661.55964,0.05372
659.63090,0.05264
657.70215,0.05201
655.77340,0.05214
653.84466,0.05216
651.91591,0.05170
649.98717,0.05150
648.05842,0.05179
646.12968,0.05226
644.20093,0.05256
642.27219,0.05228
640.34344,0.05182
638.41470,0.05206
636.48595,0.05344
634.55721,0.05530
632.62846,0.05623
630.69972,0.05644
628.77097,0.05696
626.84222,0.05724
624.91348,0.05693
622.98473,0.05671
621.05599,0.05663
619.12724,0.05638
617.19850,0.05621
615.26975,0.05644
613.34101,0.05709
611.41226,0.05826
609.48352,0.05972
607.55477,0.06106
605.62603,0.06257
603.69728,0.06455
601.76854,0.06609
599.83979,0.06587
