7497.03301,0.82482
7495.10426,0.82149
7493.17552,0.82247
7491.24677,0.82909
7489.31803,0.83241
7487.38928,0.82732
7485.46054,0.82337
7483.53179,0.82438
7481.60305,0.82479
7479.67430,0.82420
7477.74556,0.82507
7475.81681,0.82773
7473.88807,0.83093
7471.95932,0.83025
7470.03057,0.82558
7468.10183,0.82254
7466.17308,0.82235
7464.24434,0.82570
7462.31559,0.83110
7460.38685,0.83136
7458.45810,0.82753
7456.52936,0.82556
7454.60061,0.82502
7452.67187,0.82379
7450.74312,0.82178
7448.81438,0.82169
7446.88563,0.82358
7444.95689,0.82288
7443.02814,0.81843
7441.09940,0.81361
7439.17065,0.81208
7437.24190,0.81363
7435.31316,0.81434
7433.38441,0.81398
7431.45567,0.81465
7429.52692,0.81560
7427.59818,0.81557
7425.66943,0.81434
7423.74069,0.81376
7421.81194,0.81628
7419.88320,0.81915
7417.95445,0.81852
7416.02571,0.81484
7414.09696,0.80947
7412.16822,0.80500
7410.23947,0.80402
7408.31073,0.80607
7406.38198,0.80891
7404.45323,0.80959
7402.52449,0.80923
7400.59574,0.81114
7398.66700,0.81148
7396.73825,0.80720
7394.80951,0.80416
7392.88076,0.80494
7390.95202,0.80456
7389.02327,0.80256
7387.09453,0.80331
7385.16578,0.80552
7383.23704,0.80407
7381.30829,0.80069
7379.37955,0.80265
7377.45080,0.80893
7375.52205,0.81216
7373.59331,0.81093
7371.66456,0.80786
7369.73582,0.80493
7367.80707,0.80239
7365.87833,0.80058
7363.94958,0.80155
7362.02084,0.80539
7360.09209,0.80890
7358.16335,0.80707
7356.23460,0.80162
7354.30586,0.80131
7352.37711,0.80594
7350.44837,0.80794
7348.51962,0.80503
7346.59088,0.80163
7344.66213,0.80334
7342.73338,0.80665
7340.80464,0.80417
7338.87589,0.79938
7336.94715,0.79899
7335.01840,0.80150
7333.08966,0.80176
7331.16091,0.79860
7329.23217,0.79636
7327.30342,0.79760
7325.37468,0.79913
7323.44593,0.79909
7321.51719,0.79942
7319.58844,0.80111
7317.65970,0.80181
7315.73095,0.80050
7313.80221,0.80059
7311.87346,0.80181
7309.94471,0.80043
7308.01597,0.79701
7306.08722,0.79492
7304.15848,0.79697
7302.22973,0.80053
7300.30099,0.80110
7298.37224,0.79989
7296.44350,0.79928
7294.51475,0.79848
7292.58601,0.79528
7290.65726,0.79094
7288.72852,0.79001
7286.79977,0.79336
7284.87103,0.79803
7282.94228,0.80078
7281.01353,0.80010
7279.08479,0.79795
7277.15604,0.79764
7275.22730,0.79834
7273.29855,0.79666
7271.36981,0.79406
7269.44106,0.79349
7267.51232,0.79355
7265.58357,0.79191
7263.65483,0.79000
7261.72608,0.79120
7259.79734,0.79519
7257.86859,0.79802
7255.93985,0.79709
7254.01110,0.79525
7252.08236,0.79590
7250.15361,0.79640
7248.22486,0.79355
7246.29612,0.78865
7244.36737,0.78617
7242.43863,0.78695
7240.50988,0.78628
7238.58114,0.78502
7236.65239,0.78734
7234.72365,0.79063
7232.79490,0.79050
7230.86616,0.78889
7228.93741,0.78943
7227.00867,0.79001
7225.07992,0.78707
7223.15118,0.78392
7221.22243,0.78580
7219.29369,0.78975
7217.36494,0.78974
7215.43619,0.78572
7213.50745,0.78244
7211.57870,0.78183
7209.64996,0.77993
7207.72121,0.77759
7205.79247,0.77952
7203.86372,0.78195
7201.93498,0.78117
7200.00623,0.78091
7198.07749,0.78082
7196.14874,0.77714
7194.22000,0.77309
7192.29125,0.77298
7190.36251,0.77534
7188.43376,0.77687
7186.50501,0.77512
7184.57627,0.77028
7182.64752,0.76577
7180.71878,0.76428
7178.79003,0.76366
7176.86129,0.76250
7174.93254,0.76383
7173.00380,0.76527
7171.07505,0.76339
7169.14631,0.76341
7167.21756,0.76585
7165.28882,0.76463
7163.36007,0.76171
7161.43133,0.76078
7159.50258,0.76032
7157.57384,0.76092
7155.64509,0.76219
7153.71634,0.76260
7151.78760,0.76499
7149.85885,0.76927
7147.93011,0.76951
7146.00136,0.76463
7144.07262,0.76149
7142.14387,0.76290
7140.21513,0.76381
7138.28638,0.76110
7136.35764,0.75771
7134.42889,0.75850
7132.50015,0.76342
7130.57140,0.76578
7128.64266,0.76226
7126.71391,0.75802
7124.78516,0.75635
7122.85642,0.75562
7120.92767,0.75531
7118.99893,0.75431
7117.07018,0.75310
7115.14144,0.75447
7113.21269,0.75669
7111.28395,0.75878
7109.35520,0.76198
7107.42646,0.76299
7105.49771,0.76041
7103.56897,0.75759
7101.64022,0.75521
7099.71148,0.75312
7097.78273,0.75264
7095.85399,0.75286
7093.92524,0.75197
7091.99649,0.75042
7090.06775,0.74907
7088.13900,0.74722
7086.21026,0.74617
7084.28151,0.74655
7082.35277,0.74573
7080.42402,0.74410
7078.49528,0.74182
7076.56653,0.73727
7074.63779,0.73233
7072.70904,0.72846
7070.78030,0.72458
7068.85155,0.72016
7066.92281,0.71843
7064.99406,0.72147
7063.06532,0.72554
7061.13657,0.72869
7059.20782,0.73167
7057.27908,0.73391
7055.35033,0.73593
7053.42159,0.73893
7051.49284,0.74187
7049.56410,0.74237
7047.63535,0.74147
7045.70661,0.74126
7043.77786,0.74084
7041.84912,0.73957
7039.92037,0.73822
7037.99163,0.73848
7036.06288,0.74115
7034.13414,0.74378
7032.20539,0.74481
7030.27664,0.74496
7028.34790,0.74382
7026.41915,0.74112
7024.49041,0.73897
7022.56166,0.73872
7020.63292,0.73797
7018.70417,0.73593
7016.77543,0.73623
7014.84668,0.73872
7012.91794,0.73845
7010.98919,0.73491
7009.06045,0.73188
7007.13170,0.73161
7005.20296,0.73358
7003.27421,0.73478
7001.34547,0.73363
6999.41672,0.73369
6997.48797,0.73686
6995.55923,0.73945
6993.63048,0.73972
6991.70174,0.73927
6989.77299,0.73750
6987.84425,0.73339
6985.91550,0.73035
6983.98676,0.73263
6982.05801,0.73746
6980.12927,0.73791
6978.20052,0.73295
6976.27178,0.72836
6974.34303,0.72853
6972.41429,0.73093
6970.48554,0.73128
6968.55680,0.73029
6966.62805,0.73096
6964.69930,0.73403
6962.77056,0.73699
6960.84181,0.73651
6958.91307,0.73339
6956.98432,0.73086
6955.05558,0.72918
6953.12683,0.72760
6951.19809,0.72585
6949.26934,0.72453
6947.34060,0.72510
6945.41185,0.72563
6943.48311,0.72484
6941.55436,0.72586
6939.62562,0.72980
6937.69687,0.73319
6935.76812,0.73213
6933.83938,0.72782
6931.91063,0.72503
6929.98189,0.72456
6928.05314,0.72497
6926.12440,0.72696
6924.19565,0.73062
6922.26691,0.73396
6920.33816,0.73501
6918.40942,0.73279
6916.48067,0.72971
6914.55193,0.72870
6912.62318,0.72824
6910.69444,0.72704
6908.76569,0.72650
6906.83695,0.72715
6904.90820,0.72904
6902.97945,0.73126
6901.05071,0.73183
6899.12196,0.73185
6897.19322,0.73314
6895.26447,0.73385
6893.33573,0.73303
6891.40698,0.73246
6889.47824,0.73264
6887.54949,0.73237
6885.62075,0.73117
6883.69200,0.72994
6881.76326,0.72907
6879.83451,0.72879
6877.90577,0.72919
6875.97702,0.73032
6874.04828,0.73188
6872.11953,0.73202
6870.19078,0.73074
6868.26204,0.73031
6866.33329,0.73136
6864.40455,0.73200
6862.47580,0.73126
6860.54706,0.73082
6858.61831,0.73094
6856.68957,0.73048
6854.76082,0.73058
6852.83208,0.73273
6850.90333,0.73337
6848.97459,0.73019
6847.04584,0.72870
6845.11710,0.73087
6843.18835,0.73260
6841.25960,0.73269
6839.33086,0.73203
6837.40211,0.73000
6835.47337,0.72680
6833.54462,0.72509
6831.61588,0.72540
6829.68713,0.72678
6827.75839,0.72969
6825.82964,0.73168
6823.90090,0.72945
6821.97215,0.72515
6820.04341,0.72350
6818.11466,0.72525
6816.18592,0.72799
6814.25717,0.72982
6812.32843,0.72991
6810.39968,0.72903
6808.47093,0.72887
6806.54219,0.73039
6804.61344,0.73270
6802.68470,0.73444
6800.75595,0.73557
6798.82721,0.73499
6796.89846,0.73199
6794.96972,0.72922
6793.04097,0.72839
6791.11223,0.72812
6789.18348,0.72815
6787.25474,0.72903
6785.32599,0.73032
6783.39725,0.73155
6781.46850,0.73225
6779.53975,0.73268
6777.61101,0.73281
6775.68226,0.73166
6773.75352,0.72961
6771.82477,0.72815
6769.89603,0.72757
6767.96728,0.72716
6766.03854,0.72686
6764.10979,0.72652
6762.18105,0.72600
6760.25230,0.72603
6758.32356,0.72648
6756.39481,0.72704
6754.46607,0.72765
6752.53732,0.72869
6750.60858,0.73124
6748.67983,0.73369
6746.75108,0.73316
6744.82234,0.73038
6742.89359,0.72752
6740.96485,0.72599
6739.03610,0.72739
6737.10736,0.73057
6735.17861,0.73179
6733.24987,0.73038
6731.32112,0.72911
6729.39238,0.72931
6727.46363,0.73005
6725.53489,0.73110
6723.60614,0.73239
6721.67740,0.73321
6719.74865,0.73305
6717.81991,0.73145
6715.89116,0.72925
6713.96241,0.72828
6712.03367,0.72888
6710.10492,0.73004
6708.17618,0.73156
6706.24743,0.73369
6704.31869,0.73490
6702.38994,0.73374
6700.46120,0.73209
6698.53245,0.73293
6696.60371,0.73502
6694.67496,0.73454
6692.74622,0.73197
6690.81747,0.73121
6688.88873,0.73249
6686.95998,0.73244
6685.03123,0.73033
6683.10249,0.72915
6681.17374,0.72995
6679.24500,0.73015
6677.31625,0.72919
6675.38751,0.72909
6673.45876,0.72926
6671.53002,0.72914
6669.60127,0.73031
6667.67253,0.73175
6665.74378,0.73092
6663.81504,0.72812
6661.88629,0.72700
6659.95755,0.73014
6658.02880,0.73388
6656.10006,0.73347
6654.17131,0.73056
6652.24256,0.72887
6650.31382,0.72860
6648.38507,0.72907
6646.45633,0.73078
6644.52758,0.73307
6642.59884,0.73479
6640.67009,0.73639
6638.74135,0.73690
6636.81260,0.73457
6634.88386,0.73141
6632.95511,0.73006
6631.02637,0.73059
6629.09762,0.73207
6627.16888,0.73291
6625.24013,0.73298
6623.31139,0.73418
6621.38264,0.73622
6619.45389,0.73737
6617.52515,0.73768
6615.59640,0.73785
6613.66766,0.73781
6611.73891,0.73684
6609.81017,0.73447
6607.88142,0.73276
6605.95268,0.73392
6604.02393,0.73626
6602.09519,0.73747
6600.16644,0.73820
6598.23770,0.73984
6596.30895,0.74137
6594.38021,0.74126
6592.45146,0.74006
6590.52271,0.73864
6588.59397,0.73765
6586.66522,0.73719
6584.73648,0.73602
6582.80773,0.73465
6580.87899,0.73496
6578.95024,0.73588
6577.02150,0.73518
6575.09275,0.73385
6573.16401,0.73387
6571.23526,0.73522
6569.30652,0.73817
6567.37777,0.74212
6565.44903,0.74342
6563.52028,0.74103
6561.59154,0.73798
6559.66279,0.73589
6557.73404,0.73505
6555.80530,0.73609
6553.87655,0.73827
6551.94781,0.73999
6550.01906,0.74018
6548.09032,0.73893
6546.16157,0.73776
6544.23283,0.73714
6542.30408,0.73678
6540.37534,0.73722
6538.44659,0.73849
6536.51785,0.74008
6534.58910,0.73982
6532.66036,0.73591
6530.73161,0.73154
6528.80287,0.73076
6526.87412,0.73369
6524.94537,0.73748
6523.01663,0.73918
6521.08788,0.73920
6519.15914,0.73947
6517.23039,0.73892
6515.30165,0.73704
6513.37290,0.73627
6511.44416,0.73741
6509.51541,0.73877
6507.58667,0.73827
6505.65792,0.73615
6503.72918,0.73597
6501.80043,0.73827
6499.87169,0.74003
6497.94294,0.74052
6496.01419,0.74064
6494.08545,0.74011
6492.15670,0.73827
6490.22796,0.73607
6488.29921,0.73549
6486.37047,0.73729
6484.44172,0.74011
6482.51298,0.74194
6480.58423,0.74240
6478.65549,0.74166
6476.72674,0.73958
6474.79800,0.73739
6472.86925,0.73727
6470.94051,0.73904
6469.01176,0.74072
6467.08302,0.74135
6465.15427,0.74022
6463.22552,0.73855
6461.29678,0.73821
6459.36803,0.73741
6457.43929,0.73596
6455.51054,0.73648
6453.58180,0.73878
6451.65305,0.74118
6449.72431,0.74171
6447.79556,0.73887
6445.86682,0.73573
6443.93807,0.73568
6442.00933,0.73672
6440.08058,0.73672
6438.15184,0.73777
6436.22309,0.74029
6434.29434,0.74075
6432.36560,0.73851
6430.43685,0.73682
6428.50811,0.73673
6426.57936,0.73737
6424.65062,0.73883
6422.72187,0.74023
6420.79313,0.74011
6418.86438,0.73983
6416.93564,0.74060
6415.00689,0.74072
6413.07815,0.73962
6411.14940,0.73877
6409.22066,0.73880
6407.29191,0.73930
6405.36317,0.73945
6403.43442,0.73887
6401.50567,0.73867
6399.57693,0.73981
6397.64818,0.74142
6395.71944,0.74297
6393.79069,0.74416
6391.86195,0.74359
6389.93320,0.74170
6388.00446,0.74057
6386.07571,0.74050
6384.14697,0.74041
6382.21822,0.74011
6380.28948,0.73953
6378.36073,0.73800
6376.43199,0.73733
6374.50324,0.73931
6372.57450,0.74155
6370.64575,0.74104
6368.71700,0.73920
6366.78826,0.73935
6364.85951,0.74049
6362.93077,0.74009
6361.00202,0.73889
6359.07328,0.73832
6357.14453,0.73837
6355.21579,0.73844
6353.28704,0.73879
6351.35830,0.73924
6349.42955,0.73897
6347.50081,0.73908
6345.57206,0.74078
6343.64332,0.74318
6341.71457,0.74433
6339.78582,0.74295
6337.85708,0.74003
6335.92833,0.73778
6333.99959,0.73736
6332.07084,0.73804
6330.14210,0.73862
6328.21335,0.73872
6326.28461,0.73898
6324.35586,0.73945
6322.42712,0.73928
6320.49837,0.73969
6318.56963,0.74201
6316.64088,0.74402
6314.71214,0.74346
6312.78339,0.74130
6310.85465,0.73961
6308.92590,0.73925
6306.99715,0.73912
6305.06841,0.73826
6303.13966,0.73848
6301.21092,0.74078
6299.28217,0.74279
6297.35343,0.74303
6295.42468,0.74260
6293.49594,0.74272
6291.56719,0.74296
6289.63845,0.74281
6287.70970,0.74379
6285.78096,0.74596
6283.85221,0.74654
6281.92347,0.74536
6279.99472,0.74395
6278.06598,0.74242
6276.13723,0.74229
6274.20848,0.74340
6272.27974,0.74286
6270.35099,0.74183
6268.42225,0.74308
6266.49350,0.74495
6264.56476,0.74505
6262.63601,0.74443
6260.70727,0.74473
6258.77852,0.74569
6256.84978,0.74559
6254.92103,0.74363
6252.99229,0.74247
6251.06354,0.74456
6249.13480,0.74802
6247.20605,0.74966
6245.27730,0.74937
6243.34856,0.74830
6241.41981,0.74649
6239.49107,0.74565
6237.56232,0.74774
6235.63358,0.75086
6233.70483,0.75175
6231.77609,0.74978
6229.84734,0.74715
6227.91860,0.74625
6225.98985,0.74726
6224.06111,0.74882
6222.13236,0.74959
6220.20362,0.74932
6218.27487,0.74947
6216.34613,0.75130
6214.41738,0.75362
6212.48863,0.75444
6210.55989,0.75279
6208.63114,0.74991
6206.70240,0.74874
6204.77365,0.74993
6202.84491,0.75144
6200.91616,0.75188
6198.98742,0.75151
6197.05867,0.75165
6195.12993,0.75309
6193.20118,0.75441
6191.27244,0.75458
6189.34369,0.75482
6187.41495,0.75488
6185.48620,0.75367
6183.55746,0.75260
6181.62871,0.75308
6179.69996,0.75414
6177.77122,0.75423
6175.84247,0.75369
6173.91373,0.75360
6171.98498,0.75371
6170.05624,0.75389
6168.12749,0.75444
6166.19875,0.75495
6164.27000,0.75583
6162.34126,0.75690
6160.41251,0.75615
6158.48377,0.75470
6156.55502,0.75543
6154.62628,0.75679
6152.69753,0.75635
6150.76878,0.75487
6148.84004,0.75395
6146.91129,0.75427
6144.98255,0.75464
6143.05380,0.75400
6141.12506,0.75366
6139.19631,0.75450
6137.26757,0.75603
6135.33882,0.75787
6133.41008,0.75883
6131.48133,0.75833
6129.55259,0.75733
6127.62384,0.75676
6125.69510,0.75747
6123.76635,0.75875
6121.83761,0.75864
6119.90886,0.75720
6117.98011,0.75610
6116.05137,0.75619
6114.12262,0.75707
6112.19388,0.75809
6110.26513,0.75876
6108.33639,0.75903
6106.40764,0.75956
6104.47890,0.76038
6102.55015,0.76022
6100.62141,0.75839
6098.69266,0.75624
6096.76392,0.75570
6094.83517,0.75694
6092.90643,0.75893
6090.97768,0.76058
6089.04893,0.76074
6087.12019,0.75963
6085.19144,0.75842
6083.26270,0.75752
6081.33395,0.75712
6079.40521,0.75683
6077.47646,0.75606
6075.54772,0.75571
6073.61897,0.75620
6071.69023,0.75667
6069.76148,0.75668
6067.83274,0.75653
6065.90399,0.75675
6063.97525,0.75719
6062.04650,0.75743
6060.11776,0.75723
6058.18901,0.75610
6056.26026,0.75441
6054.33152,0.75446
6052.40277,0.75709
6050.47403,0.75977
6048.54528,0.76017
6046.61654,0.75864
6044.68779,0.75681
6042.75905,0.75579
6040.83030,0.75559
6038.90156,0.75547
6036.97281,0.75473
6035.04407,0.75364
6033.11532,0.75245
6031.18658,0.75145
6029.25783,0.75148
6027.32909,0.75202
6025.40034,0.75103
6023.47159,0.74853
6021.54285,0.74738
6019.61410,0.74875
6017.68536,0.75063
6015.75661,0.75137
6013.82787,0.75078
6011.89912,0.74900
6009.97038,0.74667
6008.04163,0.74470
6006.11289,0.74377
6004.18414,0.74379
6002.25540,0.74378
6000.32665,0.74329
5998.39791,0.74241
5996.46916,0.74193
5994.54041,0.74252
5992.61167,0.74299
5990.68292,0.74236
5988.75418,0.74099
5986.82543,0.73927
5984.89669,0.73795
5982.96794,0.73768
5981.03920,0.73795
5979.11045,0.73728
5977.18171,0.73596
5975.25296,0.73588
5973.32422,0.73679
5971.39547,0.73676
5969.46673,0.73582
5967.53798,0.73548
5965.60924,0.73567
5963.68049,0.73568
5961.75174,0.73558
5959.82300,0.73525
5957.89425,0.73494
5955.96551,0.73513
5954.03676,0.73559
5952.10802,0.73573
5950.17927,0.73550
5948.25053,0.73559
5946.32178,0.73658
5944.39304,0.73805
5942.46429,0.73865
5940.53555,0.73779
5938.60680,0.73686
5936.67806,0.73745
5934.74931,0.73845
5932.82057,0.73827
5930.89182,0.73781
5928.96307,0.73713
5927.03433,0.73599
5925.10558,0.73554
5923.17684,0.73542
5921.24809,0.73540
5919.31935,0.73616
5917.39060,0.73667
5915.46186,0.73579
5913.53311,0.73473
5911.60437,0.73468
5909.67562,0.73504
5907.74688,0.73545
5905.81813,0.73560
5903.88939,0.73492
5901.96064,0.73462
5900.03189,0.73548
5898.10315,0.73553
5896.17440,0.73369
5894.24566,0.73192
5892.31691,0.73205
5890.38817,0.73350
5888.45942,0.73482
5886.53068,0.73515
5884.60193,0.73399
5882.67319,0.73214
5880.74444,0.73118
5878.81570,0.73105
5876.88695,0.73105
5874.95821,0.73143
5873.02946,0.73220
5871.10072,0.73235
5869.17197,0.73153
5867.24322,0.73087
5865.31448,0.73132
5863.38573,0.73249
5861.45699,0.73308
5859.52824,0.73283
5857.59950,0.73274
5855.67075,0.73295
5853.74201,0.73349
5851.81326,0.73458
5849.88452,0.73541
5847.95577,0.73552
5846.02703,0.73533
5844.09828,0.73504
5842.16954,0.73446
5840.24079,0.73411
5838.31205,0.73415
5836.38330,0.73366
5834.45455,0.73277
5832.52581,0.73257
5830.59706,0.73346
5828.66832,0.73472
5826.73957,0.73483
5824.81083,0.73326
5822.88208,0.73095
5820.95334,0.72976
5819.02459,0.73044
5817.09585,0.73107
5815.16710,0.73107
5813.23836,0.73183
5811.30961,0.73252
5809.38087,0.73173
5807.45212,0.73045
5805.52337,0.73046
5803.59463,0.73174
5801.66588,0.73231
5799.73714,0.73196
5797.80839,0.73237
5795.87965,0.73312
5793.95090,0.73259
5792.02216,0.73155
5790.09341,0.73182
5788.16467,0.73262
5786.23592,0.73198
5784.30718,0.73040
5782.37843,0.73017
5780.44969,0.73147
5778.52094,0.73180
5776.59220,0.73062
5774.66345,0.73041
5772.73470,0.73157
5770.80596,0.73248
5768.87721,0.73313
5766.94847,0.73364
5765.01972,0.73304
5763.09098,0.73196
5761.16223,0.73208
5759.23349,0.73319
5757.30474,0.73436
5755.37600,0.73497
5753.44725,0.73435
5751.51851,0.73306
5749.58976,0.73232
5747.66102,0.73239
5745.73227,0.73270
5743.80352,0.73268
5741.87478,0.73294
5739.94603,0.73381
5738.01729,0.73416
5736.08854,0.73349
5734.15980,0.73257
5732.23105,0.73190
5730.30231,0.73129
5728.37356,0.73065
5726.44482,0.73083
5724.51607,0.73201
5722.58733,0.73256
5720.65858,0.73234
5718.72984,0.73294
5716.80109,0.73356
5714.87235,0.73293
5712.94360,0.73256
5711.01485,0.73326
5709.08611,0.73321
5707.15736,0.73191
5705.22862,0.73098
5703.29987,0.73107
5701.37113,0.73169
5699.44238,0.73175
5697.51364,0.73101
5695.58489,0.73067
5693.65615,0.73079
5691.72740,0.73097
5689.79866,0.73198
5687.86991,0.73313
5685.94117,0.73273
5684.01242,0.73159
5682.08368,0.73149
5680.15493,0.73220
5678.22618,0.73301
5676.29744,0.73356
5674.36869,0.73300
5672.43995,0.73177
5670.51120,0.73148
5668.58246,0.73196
5666.65371,0.73155
5664.72497,0.73051
5662.79622,0.73049
5660.86748,0.73101
5658.93873,0.73095
5657.00999,0.73148
5655.08124,0.73308
5653.15250,0.73405
5651.22375,0.73380
5649.29500,0.73286
5647.36626,0.73181
5645.43751,0.73187
5643.50877,0.73262
5641.58002,0.73256
5639.65128,0.73179
5637.72253,0.73088
5635.79379,0.73020
5633.86504,0.73038
5631.93630,0.73167
5630.00755,0.73315
5628.07881,0.73356
5626.15006,0.73322
5624.22132,0.73265
5622.29257,0.73165
5620.36383,0.73125
5618.43508,0.73187
5616.50633,0.73218
5614.57759,0.73221
5612.64884,0.73257
5610.72010,0.73252
5608.79135,0.73200
5606.86261,0.73196
5604.93386,0.73249
5603.00512,0.73300
5601.07637,0.73296
5599.14763,0.73239
5597.21888,0.73207
5595.29014,0.73232
5593.36139,0.73249
5591.43265,0.73240
5589.50390,0.73253
5587.57516,0.73266
5585.64641,0.73223
5583.71766,0.73163
5581.78892,0.73124
5579.86017,0.73085
5577.93143,0.73074
5576.00268,0.73095
5574.07394,0.73111
5572.14519,0.73150
5570.21645,0.73239
5568.28770,0.73314
5566.35896,0.73332
5564.43021,0.73302
5562.50147,0.73325
5560.57272,0.73463
5558.64398,0.73537
5556.71523,0.73440
5554.78648,0.73345
5552.85774,0.73378
5550.92899,0.73481
5549.00025,0.73529
5547.07150,0.73512
5545.14276,0.73483
5543.21401,0.73423
5541.28527,0.73325
5539.35652,0.73252
5537.42778,0.73255
5535.49903,0.73308
5533.57029,0.73357
5531.64154,0.73357
5529.71280,0.73340
5527.78405,0.73388
5525.85531,0.73461
5523.92656,0.73457
5521.99781,0.73396
5520.06907,0.73354
5518.14032,0.73307
5516.21158,0.73213
5514.28283,0.73171
5512.35409,0.73253
5510.42534,0.73403
5508.49660,0.73568
5506.56785,0.73647
5504.63911,0.73533
5502.71036,0.73350
5500.78162,0.73298
5498.85287,0.73314
5496.92413,0.73299
5494.99538,0.73360
5493.06664,0.73468
5491.13789,0.73428
5489.20914,0.73314
5487.28040,0.73300
5485.35165,0.73358
5483.42291,0.73419
5481.49416,0.73482
5479.56542,0.73548
5477.63667,0.73590
5475.70793,0.73581
5473.77918,0.73555
5471.85044,0.73549
5469.92169,0.73554
5467.99295,0.73553
5466.06420,0.73558
5464.13546,0.73594
5462.20671,0.73647
5460.27796,0.73678
5458.34922,0.73688
5456.42047,0.73669
5454.49173,0.73600
5452.56298,0.73576
5450.63424,0.73626
5448.70549,0.73632
5446.77675,0.73611
5444.84800,0.73651
5442.91926,0.73728
5440.99051,0.73775
5439.06177,0.73791
5437.13302,0.73833
5435.20428,0.73896
5433.27553,0.73909
5431.34679,0.73837
5429.41804,0.73721
5427.48929,0.73673
5425.56055,0.73761
5423.63180,0.73900
5421.70306,0.73957
5419.77431,0.73930
5417.84557,0.73922
5415.91682,0.73965
5413.98808,0.73984
5412.05933,0.73919
5410.13059,0.73837
5408.20184,0.73854
5406.27310,0.73943
5404.34435,0.74015
5402.41561,0.74080
5400.48686,0.74139
5398.55811,0.74142
5396.62937,0.74095
5394.70062,0.74074
5392.77188,0.74132
5390.84313,0.74240
5388.91439,0.74289
5386.98564,0.74198
5385.05690,0.74051
5383.12815,0.73982
5381.19941,0.73982
5379.27066,0.73986
5377.34192,0.73982
5375.41317,0.73974
5373.48443,0.73952
5371.55568,0.73980
5369.62694,0.74099
5367.69819,0.74206
5365.76944,0.74219
5363.84070,0.74166
5361.91195,0.74072
5359.98321,0.73961
5358.05446,0.73889
5356.12572,0.73858
5354.19697,0.73845
5352.26823,0.73840
5350.33948,0.73797
5348.41074,0.73766
5346.48199,0.73816
5344.55325,0.73869
5342.62450,0.73857
5340.69576,0.73800
5338.76701,0.73728
5336.83827,0.73635
5334.90952,0.73528
5332.98077,0.73470
5331.05203,0.73484
5329.12328,0.73499
5327.19454,0.73481
5325.26579,0.73458
5323.33705,0.73411
5321.40830,0.73328
5319.47956,0.73232
5317.55081,0.73136
5315.62207,0.73029
5313.69332,0.72888
5311.76458,0.72761
5309.83583,0.72674
5307.90709,0.72554
5305.97834,0.72398
5304.04959,0.72256
5302.12085,0.72134
5300.19210,0.72041
5298.26336,0.71957
5296.33461,0.71863
5294.40587,0.71764
5292.47712,0.71648
5290.54838,0.71536
5288.61963,0.71439
5286.69089,0.71266
5284.76214,0.70991
5282.83340,0.70741
5280.90465,0.70598
5278.97591,0.70462
5277.04716,0.70243
5275.11842,0.70004
5273.18967,0.69796
5271.26092,0.69582
5269.33218,0.69327
5267.40343,0.69075
5265.47469,0.68906
5263.54594,0.68801
5261.61720,0.68638
5259.68845,0.68401
5257.75971,0.68191
5255.83096,0.68036
5253.90222,0.67892
5251.97347,0.67735
5250.04473,0.67572
5248.11598,0.67415
5246.18724,0.67243
5244.25849,0.67067
5242.32975,0.66892
5240.40100,0.66693
5238.47225,0.66523
5236.54351,0.66458
5234.61476,0.66454
5232.68602,0.66403
5230.75727,0.66272
5228.82853,0.66137
5226.89978,0.66077
5224.97104,0.66061
5223.04229,0.65972
5221.11355,0.65816
5219.18480,0.65727
5217.25606,0.65708
5215.32731,0.65662
5213.39857,0.65582
5211.46982,0.65532
5209.54107,0.65536
5207.61233,0.65567
5205.68358,0.65547
5203.75484,0.65434
5201.82609,0.65309
5199.89735,0.65267
5197.96860,0.65300
5196.03986,0.65321
5194.11111,0.65288
5192.18237,0.65267
5190.25362,0.65295
5188.32488,0.65313
5186.39613,0.65285
5184.46739,0.65281
5182.53864,0.65341
5180.60990,0.65385
5178.68115,0.65371
5176.75240,0.65356
5174.82366,0.65358
5172.89491,0.65368
5170.96617,0.65391
5169.03742,0.65422
5167.10868,0.65484
5165.17993,0.65562
5163.25119,0.65587
5161.32244,0.65574
5159.39370,0.65595
5157.46495,0.65670
5155.53621,0.65747
5153.60746,0.65775
5151.67872,0.65782
5149.74997,0.65815
5147.82123,0.65850
5145.89248,0.65838
5143.96373,0.65821
5142.03499,0.65847
5140.10624,0.65864
5138.17750,0.65836
5136.24875,0.65844
5134.32001,0.65937
5132.39126,0.66059
5130.46252,0.66155
5128.53377,0.66252
5126.60503,0.66392
5124.67628,0.66523
5122.74754,0.66548
5120.81879,0.66494
5118.89005,0.66475
5116.96130,0.66533
5115.03255,0.66651
5113.10381,0.66792
5111.17506,0.66878
5109.24632,0.66882
5107.31757,0.66885
5105.38883,0.66933
5103.46008,0.66959
5101.53134,0.66947
5099.60259,0.66971
5097.67385,0.67023
5095.74510,0.67027
5093.81636,0.67007
5091.88761,0.67012
5089.95887,0.67021
5088.03012,0.67049
5086.10138,0.67125
5084.17263,0.67215
5082.24388,0.67290
5080.31514,0.67339
5078.38639,0.67354
5076.45765,0.67376
5074.52890,0.67437
5072.60016,0.67507
5070.67141,0.67546
5068.74267,0.67552
5066.81392,0.67566
5064.88518,0.67618
5062.95643,0.67675
5061.02769,0.67706
5059.09894,0.67734
5057.17020,0.67767
5055.24145,0.67780
5053.31270,0.67774
5051.38396,0.67797
5049.45521,0.67883
5047.52647,0.67974
5045.59772,0.68014
5043.66898,0.68021
5041.74023,0.68010
5039.81149,0.68012
5037.88274,0.68060
5035.95400,0.68119
5034.02525,0.68158
5032.09651,0.68179
5030.16776,0.68179
5028.23902,0.68165
5026.31027,0.68143
5024.38153,0.68119
5022.45278,0.68115
5020.52403,0.68188
5018.59529,0.68312
5016.66654,0.68363
5014.73780,0.68316
5012.80905,0.68256
5010.88031,0.68252
5008.95156,0.68268
5007.02282,0.68266
5005.09407,0.68307
5003.16533,0.68389
5001.23658,0.68422
4999.30784,0.68405
4997.37909,0.68416
4995.45035,0.68457
4993.52160,0.68448
4991.59286,0.68387
4989.66411,0.68328
4987.73536,0.68305
4985.80662,0.68330
4983.87787,0.68332
4981.94913,0.68270
4980.02038,0.68238
4978.09164,0.68250
4976.16289,0.68214
4974.23415,0.68142
4972.30540,0.68111
4970.37666,0.68083
4968.44791,0.68008
4966.51917,0.67969
4964.59042,0.67989
4962.66168,0.67970
4960.73293,0.67886
4958.80418,0.67795
4956.87544,0.67755
4954.94669,0.67755
4953.01795,0.67705
4951.08920,0.67594
4949.16046,0.67510
4947.23171,0.67458
4945.30297,0.67372
4943.37422,0.67253
4941.44548,0.67132
4939.51673,0.67046
4937.58799,0.67023
4935.65924,0.66977
4933.73050,0.66852
4931.80175,0.66718
4929.87301,0.66618
4927.94426,0.66540
4926.01551,0.66472
4924.08677,0.66407
4922.15802,0.66328
4920.22928,0.66230
4918.30053,0.66113
4916.37179,0.65979
4914.44304,0.65863
4912.51430,0.65789
4910.58555,0.65769
4908.65681,0.65783
4906.72806,0.65743
4904.79932,0.65646
4902.87057,0.65564
4900.94183,0.65476
4899.01308,0.65375
4897.08434,0.65291
4895.15559,0.65186
4893.22684,0.65045
4891.29810,0.64921
4889.36935,0.64835
4887.44061,0.64763
4885.51186,0.64689
4883.58312,0.64625
4881.65437,0.64564
4879.72563,0.64483
4877.79688,0.64406
4875.86814,0.64355
4873.93939,0.64289
4872.01065,0.64184
4870.08190,0.64077
4868.15316,0.63996
4866.22441,0.63921
4864.29566,0.63829
4862.36692,0.63735
4860.43817,0.63645
4858.50943,0.63558
4856.58068,0.63485
4854.65194,0.63406
4852.72319,0.63308
4850.79445,0.63230
4848.86570,0.63222
4846.93696,0.63252
4845.00821,0.63213
4843.07947,0.63089
4841.15072,0.62961
4839.22198,0.62880
4837.29323,0.62857
4835.36449,0.62850
4833.43574,0.62790
4831.50699,0.62686
4829.57825,0.62582
4827.64950,0.62494
4825.72076,0.62442
4823.79201,0.62409
4821.86327,0.62363
4819.93452,0.62310
4818.00578,0.62242
4816.07703,0.62169
4814.14829,0.62115
4812.21954,0.62082
4810.29080,0.62064
4808.36205,0.62028
4806.43331,0.61966
4804.50456,0.61920
4802.57582,0.61894
4800.64707,0.61827
4798.71832,0.61699
4796.78958,0.61603
4794.86083,0.61585
4792.93209,0.61595
4791.00334,0.61625
4789.07460,0.61651
4787.14585,0.61622
4785.21711,0.61578
4783.28836,0.61533
4781.35962,0.61482
4779.43087,0.61483
4777.50213,0.61533
4775.57338,0.61562
4773.64464,0.61552
4771.71589,0.61521
4769.78714,0.61486
4767.85840,0.61446
4765.92965,0.61401
4764.00091,0.61356
4762.07216,0.61303
4760.14342,0.61241
4758.21467,0.61210
4756.28593,0.61227
4754.35718,0.61244
4752.42844,0.61229
4750.49969,0.61206
4748.57095,0.61213
4746.64220,0.61247
4744.71346,0.61246
4742.78471,0.61205
4740.85597,0.61189
4738.92722,0.61210
4736.99847,0.61235
4735.06973,0.61239
4733.14098,0.61226
4731.21224,0.61221
4729.28349,0.61201
4727.35475,0.61171
4725.42600,0.61184
4723.49726,0.61203
4721.56851,0.61193
4719.63977,0.61182
4717.71102,0.61182
4715.78228,0.61176
4713.85353,0.61165
4711.92479,0.61164
4709.99604,0.61187
4708.06729,0.61214
4706.13855,0.61185
4704.20980,0.61092
4702.28106,0.60994
4700.35231,0.60941
4698.42357,0.60964
4696.49482,0.61024
4694.56608,0.61032
4692.63733,0.60987
4690.70859,0.60949
4688.77984,0.60926
4686.85110,0.60866
4684.92235,0.60770
4682.99361,0.60718
4681.06486,0.60713
4679.13612,0.60653
4677.20737,0.60530
4675.27862,0.60397
4673.34988,0.60278
4671.42113,0.60218
4669.49239,0.60229
4667.56364,0.60250
4665.63490,0.60260
4663.70615,0.60279
4661.77741,0.60318
4659.84866,0.60393
4657.91992,0.60459
4655.99117,0.60452
4654.06243,0.60404
4652.13368,0.60389
4650.20494,0.60400
4648.27619,0.60384
4646.34745,0.60333
4644.41870,0.60284
4642.48995,0.60253
4640.56121,0.60219
4638.63246,0.60183
4636.70372,0.60153
4634.77497,0.60120
4632.84623,0.60070
4630.91748,0.59999
4628.98874,0.59938
4627.05999,0.59916
4625.13125,0.59901
4623.20250,0.59883
4621.27376,0.59902
4619.34501,0.59941
4617.41627,0.59950
4615.48752,0.59918
4613.55877,0.59883
4611.63003,0.59913
4609.70128,0.60023
4607.77254,0.60138
4605.84379,0.60210
4603.91505,0.60258
4601.98630,0.60327
4600.05756,0.60449
4598.12881,0.60601
4596.20007,0.60738
4594.27132,0.60838
4592.34258,0.60892
4590.41383,0.60926
4588.48509,0.60974
4586.55634,0.61013
4584.62760,0.60995
4582.69885,0.60949
4580.77010,0.60938
4578.84136,0.60954
4576.91261,0.60951
4574.98387,0.60924
4573.05512,0.60901
4571.12638,0.60906
4569.19763,0.60913
4567.26889,0.60901
4565.34014,0.60916
4563.41140,0.60993
4561.48265,0.61057
4559.55391,0.61026
4557.62516,0.60946
4555.69642,0.60919
4553.76767,0.60941
4551.83893,0.60940
4549.91018,0.60917
4547.98143,0.60904
4546.05269,0.60888
4544.12394,0.60852
4542.19520,0.60790
4540.26645,0.60685
4538.33771,0.60525
4536.40896,0.60322
4534.48022,0.60051
4532.55147,0.59709
4530.62273,0.59394
4528.69398,0.59200
4526.76524,0.59168
4524.83649,0.59363
4522.90775,0.59791
4520.97900,0.60301
4519.05025,0.60732
4517.12151,0.61060
4515.19276,0.61321
4513.26402,0.61546
4511.33527,0.61744
4509.40653,0.61879
4507.47778,0.61912
4505.54904,0.61889
4503.62029,0.61902
4501.69155,0.61941
4499.76280,0.61969
4497.83406,0.62007
4495.90531,0.62047
4493.97657,0.62046
4492.04782,0.61981
4490.11908,0.61895
4488.19033,0.61831
4486.26158,0.61771
4484.33284,0.61718
4482.40409,0.61684
4480.47535,0.61623
4478.54660,0.61511
4476.61786,0.61362
4474.68911,0.61183
4472.76037,0.60994
4470.83162,0.60821
4468.90288,0.60669
4466.97413,0.60515
4465.04539,0.60344
4463.11664,0.60150
4461.18790,0.59947
4459.25915,0.59784
4457.33041,0.59657
4455.40166,0.59496
4453.47291,0.59275
4451.54417,0.59051
4449.61542,0.58856
4447.68668,0.58664
4445.75793,0.58459
4443.82919,0.58283
4441.90044,0.58160
4439.97170,0.58030
4438.04295,0.57834
4436.11421,0.57606
4434.18546,0.57402
4432.25672,0.57226
4430.32797,0.57057
4428.39923,0.56889
4426.47048,0.56730
4424.54173,0.56566
4422.61299,0.56369
4420.68424,0.56159
4418.75550,0.55979
4416.82675,0.55821
4414.89801,0.55653
4412.96926,0.55473
4411.04052,0.55307
4409.11177,0.55168
4407.18303,0.55052
4405.25428,0.54953
4403.32554,0.54858
4401.39679,0.54793
4399.46805,0.54753
4397.53930,0.54674
4395.61056,0.54572
4393.68181,0.54520
4391.75306,0.54497
4389.82432,0.54453
4387.89557,0.54409
4385.96683,0.54389
4384.03808,0.54370
4382.10934,0.54345
4380.18059,0.54325
4378.25185,0.54283
4376.32310,0.54193
4374.39436,0.54092
4372.46561,0.54043
4370.53687,0.54041
4368.60812,0.54017
4366.67938,0.53948
4364.75063,0.53855
4362.82189,0.53752
4360.89314,0.53659
4358.96439,0.53586
4357.03565,0.53515
4355.10690,0.53430
4353.17816,0.53346
4351.24941,0.53292
4349.32067,0.53257
4347.39192,0.53209
4345.46318,0.53138
4343.53443,0.53063
4341.60569,0.52998
4339.67694,0.52941
4337.74820,0.52924
4335.81945,0.52957
4333.89071,0.52988
4331.96196,0.52982
4330.03321,0.52931
4328.10447,0.52875
4326.17572,0.52854
4324.24698,0.52839
4322.31823,0.52809
4320.38949,0.52797
4318.46074,0.52807
4316.53200,0.52808
4314.60325,0.52795
4312.67451,0.52747
4310.74576,0.52647
4308.81702,0.52546
4306.88827,0.52494
4304.95953,0.52464
4303.03078,0.52405
4301.10204,0.52328
4299.17329,0.52260
4297.24454,0.52202
4295.31580,0.52143
4293.38705,0.52077
4291.45831,0.51998
4289.52956,0.51909
4287.60082,0.51835
4285.67207,0.51796
4283.74333,0.51758
4281.81458,0.51697
4279.88584,0.51643
4277.95709,0.51607
4276.02835,0.51576
4274.09960,0.51545
4272.17086,0.51501
4270.24211,0.51455
4268.31336,0.51436
4266.38462,0.51419
4264.45587,0.51389
4262.52713,0.51381
4260.59838,0.51399
4258.66964,0.51427
4256.74089,0.51461
4254.81215,0.51480
4252.88340,0.51484
4250.95466,0.51503
4249.02591,0.51542
4247.09717,0.51593
4245.16842,0.51665
4243.23968,0.51775
4241.31093,0.51904
4239.38219,0.52005
4237.45344,0.52066
4235.52469,0.52118
4233.59595,0.52178
4231.66720,0.52238
4229.73846,0.52266
4227.80971,0.52250
4225.88097,0.52241
4223.95222,0.52274
4222.02348,0.52307
4220.09473,0.52329
4218.16599,0.52354
4216.23724,0.52359
4214.30850,0.52330
4212.37975,0.52272
4210.45101,0.52217
4208.52226,0.52218
4206.59352,0.52250
4204.66477,0.52248
4202.73602,0.52203
4200.80728,0.52154
4198.87853,0.52139
4196.94979,0.52167
4195.02104,0.52205
4193.09230,0.52214
4191.16355,0.52221
4189.23481,0.52252
4187.30606,0.52289
4185.37732,0.52324
4183.44857,0.52358
4181.51983,0.52396
4179.59108,0.52452
4177.66234,0.52523
4175.73359,0.52591
4173.80484,0.52641
4171.87610,0.52672
4169.94735,0.52723
4168.01861,0.52805
4166.08986,0.52875
4164.16112,0.52901
4162.23237,0.52892
4160.30363,0.52875
4158.37488,0.52867
4156.44614,0.52871
4154.51739,0.52878
4152.58865,0.52875
4150.65990,0.52832
4148.73116,0.52734
4146.80241,0.52648
4144.87367,0.52621
4142.94492,0.52585
4141.01617,0.52493
4139.08743,0.52395
4137.15868,0.52329
4135.22994,0.52263
4133.30119,0.52176
4131.37245,0.52083
4129.44370,0.51977
4127.51496,0.51835
4125.58621,0.51676
4123.65747,0.51551
4121.72872,0.51473
4119.79998,0.51388
4117.87123,0.51258
4115.94249,0.51091
4114.01374,0.50926
4112.08500,0.50782
4110.15625,0.50626
4108.22750,0.50441
4106.29876,0.50270
4104.37001,0.50140
4102.44127,0.50031
4100.51252,0.49928
4098.58378,0.49818
4096.65503,0.49684
4094.72629,0.49522
4092.79754,0.49378
4090.86880,0.49267
4088.94005,0.49139
4087.01131,0.48990
4085.08256,0.48847
4083.15382,0.48694
4081.22507,0.48523
4079.29632,0.48331
4077.36758,0.48112
4075.43883,0.47887
4073.51009,0.47688
4071.58134,0.47506
4069.65260,0.47322
4067.72385,0.47163
4065.79511,0.47036
4063.86636,0.46903
4061.93762,0.46772
4060.00887,0.46664
4058.08013,0.46554
4056.15138,0.46435
4054.22264,0.46330
4052.29389,0.46230
4050.36515,0.46106
4048.43640,0.45981
4046.50765,0.45878
4044.57891,0.45766
4042.65016,0.45630
4040.72142,0.45502
4038.79267,0.45409
4036.86393,0.45361
4034.93518,0.45352
4033.00644,0.45347
4031.07769,0.45313
4029.14895,0.45280
4027.22020,0.45290
4025.29146,0.45334
4023.36271,0.45361
4021.43397,0.45357
4019.50522,0.45366
4017.57648,0.45404
4015.64773,0.45439
4013.71898,0.45444
4011.79024,0.45422
4009.86149,0.45401
4007.93275,0.45389
4006.00400,0.45371
4004.07526,0.45354
4002.14651,0.45366
4000.21777,0.45405
3998.28902,0.45453
3996.36028,0.45491
3994.43153,0.45489
3992.50279,0.45475
3990.57404,0.45485
3988.64530,0.45505
3986.71655,0.45520
3984.78780,0.45534
3982.85906,0.45535
3980.93031,0.45522
3979.00157,0.45527
3977.07282,0.45554
3975.14408,0.45584
3973.21533,0.45607
3971.28659,0.45619
3969.35784,0.45617
3967.42910,0.45613
3965.50035,0.45622
3963.57161,0.45634
3961.64286,0.45632
3959.71412,0.45624
3957.78537,0.45613
3955.85663,0.45586
3953.92788,0.45557
3951.99913,0.45542
3950.07039,0.45541
3948.14164,0.45561
3946.21290,0.45604
3944.28415,0.45642
3942.35541,0.45654
3940.42666,0.45668
3938.49792,0.45712
3936.56917,0.45776
3934.64043,0.45854
3932.71168,0.45952
3930.78294,0.46064
3928.85419,0.46177
3926.92545,0.46291
3924.99670,0.46405
3923.06795,0.46496
3921.13921,0.46584
3919.21046,0.46717
3917.28172,0.46872
3915.35297,0.46995
3913.42423,0.47080
3911.49548,0.47156
3909.56674,0.47224
3907.63799,0.47258
3905.70925,0.47285
3903.78050,0.47331
3901.85176,0.47362
3899.92301,0.47379
3897.99427,0.47415
3896.06552,0.47459
3894.13678,0.47493
3892.20803,0.47516
3890.27928,0.47545
3888.35054,0.47591
3886.42179,0.47630
3884.49305,0.47638
3882.56430,0.47642
3880.63556,0.47646
3878.70681,0.47631
3876.77807,0.47642
3874.84932,0.47716
3872.92058,0.47799
3870.99183,0.47856
3869.06309,0.47897
3867.13434,0.47898
3865.20560,0.47874
3863.27685,0.47870
3861.34811,0.47892
3859.41936,0.47922
3857.49061,0.47932
3855.56187,0.47929
3853.63312,0.47963
3851.70438,0.48009
3849.77563,0.47999
3847.84689,0.47965
3845.91814,0.47950
3843.98940,0.47969
3842.06065,0.48021
3840.13191,0.48068
3838.20316,0.48059
3836.27442,0.48011
3834.34567,0.47981
3832.41693,0.47985
3830.48818,0.48009
3828.55943,0.48044
3826.63069,0.48073
3824.70194,0.48066
3822.77320,0.48016
3820.84445,0.47957
3818.91571,0.47932
3816.98696,0.47921
3815.05822,0.47872
3813.12947,0.47800
3811.20073,0.47753
3809.27198,0.47713
3807.34324,0.47644
3805.41449,0.47567
3803.48575,0.47514
3801.55700,0.47454
3799.62826,0.47365
3797.69951,0.47275
3795.77076,0.47186
3793.84202,0.47089
3791.91327,0.46995
3789.98453,0.46902
3788.05578,0.46789
3786.12704,0.46651
3784.19829,0.46525
3782.26955,0.46428
3780.34080,0.46316
3778.41206,0.46162
3776.48331,0.45997
3774.55457,0.45856
3772.62582,0.45718
3770.69708,0.45563
3768.76833,0.45393
3766.83959,0.45203
3764.91084,0.44979
3762.98209,0.44727
3761.05335,0.44460
3759.12460,0.44181
3757.19586,0.43917
3755.26711,0.43663
3753.33837,0.43365
3751.40962,0.42985
3749.48088,0.42567
3747.55213,0.42179
3745.62339,0.41747
3743.69464,0.41221
3741.76590,0.40714
3739.83715,0.40241
3737.90841,0.39721
3735.97966,0.39065
3734.05091,0.38266
3732.12217,0.37418
3730.19342,0.36554
3728.26468,0.35608
3726.33593,0.34515
3724.40719,0.33298
3722.47844,0.31967
3720.54970,0.30461
3718.62095,0.28785
3716.69221,0.27006
3714.76346,0.25175
3712.83472,0.23219
3710.90597,0.21201
3708.97723,0.19369
3707.04848,0.17709
3705.11974,0.16097
3703.19099,0.14467
3701.26224,0.12883
3699.33350,0.11522
3697.40475,0.10483
3695.47601,0.09793
3693.54726,0.09456
3691.61852,0.09425
3689.68977,0.09646
3687.76103,0.10060
3685.83228,0.10508
3683.90354,0.10941
3681.97479,0.11355
3680.04605,0.11672
3678.11730,0.11772
3676.18856,0.11589
3674.25981,0.11294
3672.33107,0.11106
3670.40232,0.11027
3668.47357,0.11017
3666.54483,0.11070
3664.61608,0.11161
3662.68734,0.11229
3660.75859,0.11188
3658.82985,0.10973
3656.90110,0.10601
3654.97236,0.10216
3653.04361,0.09998
3651.11487,0.09980
3649.18612,0.10116
3647.25738,0.10376
3645.32863,0.10710
3643.39989,0.11056
3641.47114,0.11337
3639.54239,0.11512
3637.61365,0.11598
3635.68490,0.11582
3633.75616,0.11456
3631.82741,0.11244
3629.89867,0.10902
3627.96992,0.10345
3626.04118,0.09691
3624.11243,0.09060
3622.18369,0.08545
3620.25494,0.08410
3618.32620,0.08882
3616.39745,0.09748
3614.46871,0.10598
3612.53996,0.11257
3610.61122,0.11737
3608.68247,0.12086
3606.75372,0.12319
3604.82498,0.12451
3602.89623,0.12516
3600.96749,0.12531
3599.03874,0.12525
3597.11000,0.12544
3595.18125,0.12582
3593.25251,0.12584
3591.32376,0.12546
3589.39502,0.12514
3587.46627,0.12469
3585.53753,0.12397
3583.60878,0.12350
3581.68004,0.12334
3579.75129,0.12307
3577.82254,0.12257
3575.89380,0.12213
3573.96505,0.12191
3572.03631,0.12189
3570.10756,0.12177
3568.17882,0.12139
3566.25007,0.12107
3564.32133,0.12091
3562.39258,0.12072
3560.46384,0.12054
3558.53509,0.12030
3556.60635,0.11989
3554.67760,0.11953
3552.74886,0.11950
3550.82011,0.11975
3548.89137,0.12006
3546.96262,0.12019
3545.03387,0.12015
3543.10513,0.12001
3541.17638,0.11971
3539.24764,0.11934
3537.31889,0.11896
3535.39015,0.11859
3533.46140,0.11844
3531.53266,0.11856
3529.60391,0.11869
3527.67517,0.11847
3525.74642,0.11788
3523.81768,0.11721
3521.88893,0.11674
3519.96019,0.11630
3518.03144,0.11571
3516.10270,0.11525
3514.17395,0.11513
3512.24520,0.11499
3510.31646,0.11450
3508.38771,0.11386
3506.45897,0.11353
3504.53022,0.11350
3502.60148,0.11347
3500.67273,0.11327
3498.74399,0.11298
3496.81524,0.11275
3494.88650,0.11240
3492.95775,0.11163
3491.02901,0.11054
3489.10026,0.10944
3487.17152,0.10867
3485.24277,0.10839
3483.31402,0.10838
3481.38528,0.10839
3479.45653,0.10825
3477.52779,0.10795
3475.59904,0.10768
3473.67030,0.10742
3471.74155,0.10711
3469.81281,0.10689
3467.88406,0.10658
3465.95532,0.10613
3464.02657,0.10575
3462.09783,0.10568
3460.16908,0.10586
3458.24034,0.10568
3456.31159,0.10492
3454.38285,0.10438
3452.45410,0.10437
3450.52535,0.10407
3448.59661,0.10321
3446.66786,0.10237
3444.73912,0.10206
3442.81037,0.10216
3440.88163,0.10231
3438.95288,0.10252
3437.02414,0.10263
3435.09539,0.10245
3433.16665,0.10212
3431.23790,0.10177
3429.30916,0.10153
3427.38041,0.10141
3425.45167,0.10130
3423.52292,0.10137
3421.59418,0.10157
3419.66543,0.10158
3417.73668,0.10146
3415.80794,0.10141
3413.87919,0.10138
3411.95045,0.10137
3410.02170,0.10163
3408.09296,0.10208
3406.16421,0.10217
3404.23547,0.10202
3402.30672,0.10218
3400.37798,0.10238
3398.44923,0.10236
3396.52049,0.10249
3394.59174,0.10273
3392.66300,0.10273
3390.73425,0.10275
3388.80550,0.10322
3386.87676,0.10376
3384.94801,0.10400
3383.01927,0.10416
3381.09052,0.10416
3379.16178,0.10400
3377.23303,0.10423
3375.30429,0.10476
3373.37554,0.10490
3371.44680,0.10475
3369.51805,0.10503
3367.58931,0.10558
3365.66056,0.10568
3363.73182,0.10548
3361.80307,0.10556
3359.87433,0.10597
3357.94558,0.10672
3356.01683,0.10761
3354.08809,0.10808
3352.15934,0.10799
3350.23060,0.10779
3348.30185,0.10791
3346.37311,0.10842
3344.44436,0.10889
3342.51562,0.10889
3340.58687,0.10864
3338.65813,0.10869
3336.72938,0.10917
3334.80064,0.10976
3332.87189,0.11028
3330.94315,0.11083
3329.01440,0.11124
3327.08566,0.11132
3325.15691,0.11129
3323.22816,0.11147
3321.29942,0.11200
3319.37067,0.11278
3317.44193,0.11350
3315.51318,0.11388
3313.58444,0.11396
3311.65569,0.11407
3309.72695,0.11409
3307.79820,0.11397
3305.86946,0.11412
3303.94071,0.11456
3302.01197,0.11482
3300.08322,0.11503
3298.15448,0.11566
3296.22573,0.11640
3294.29698,0.11667
3292.36824,0.11676
3290.43949,0.11715
3288.51075,0.11759
3286.58200,0.11790
3284.65326,0.11827
3282.72451,0.11872
3280.79577,0.11904
3278.86702,0.11919
3276.93828,0.11949
3275.00953,0.12017
3273.08079,0.12103
3271.15204,0.12174
3269.22330,0.12223
3267.29455,0.12258
3265.36581,0.12294
3263.43706,0.12341
3261.50831,0.12405
3259.57957,0.12487
3257.65082,0.12557
3255.72208,0.12600
3253.79333,0.12625
3251.86459,0.12634
3249.93584,0.12655
3248.00710,0.12726
3246.07835,0.12811
3244.14961,0.12856
3242.22086,0.12890
3240.29212,0.12945
3238.36337,0.12995
3236.43463,0.13026
3234.50588,0.13065
3232.57713,0.13126
3230.64839,0.13191
3228.71964,0.13235
3226.79090,0.13243
3224.86215,0.13252
3222.93341,0.13299
3221.00466,0.13372
3219.07592,0.13442
3217.14717,0.13475
3215.21843,0.13479
3213.28968,0.13495
3211.36094,0.13543
3209.43219,0.13610
3207.50345,0.13674
3205.57470,0.13739
3203.64596,0.13829
3201.71721,0.13918
3199.78846,0.13960
3197.85972,0.13962
3195.93097,0.13981
3194.00223,0.14037
3192.07348,0.14114
3190.14474,0.14210
3188.21599,0.14293
3186.28725,0.14327
3184.35850,0.14349
3182.42976,0.14392
3180.50101,0.14441
3178.57227,0.14504
3176.64352,0.14582
3174.71478,0.14642
3172.78603,0.14685
3170.85729,0.14745
3168.92854,0.14834
3166.99979,0.14921
3165.07105,0.14975
3163.14230,0.15007
3161.21356,0.15054
3159.28481,0.15137
3157.35607,0.15236
3155.42732,0.15311
3153.49858,0.15363
3151.56983,0.15419
3149.64109,0.15479
3147.71234,0.15515
3145.78360,0.15547
3143.85485,0.15631
3141.92611,0.15754
3139.99736,0.15846
3138.06861,0.15878
3136.13987,0.15888
3134.21112,0.15923
3132.28238,0.15990
3130.35363,0.16070
3128.42489,0.16148
3126.49614,0.16199
3124.56740,0.16221
3122.63865,0.16253
3120.70991,0.16313
3118.78116,0.16379
3116.85242,0.16425
3114.92367,0.16428
3112.99493,0.16387
3111.06618,0.16342
3109.13744,0.16328
3107.20869,0.16330
3105.27994,0.16334
3103.35120,0.16352
3101.42245,0.16397
3099.49371,0.16469
3097.56496,0.16544
3095.63622,0.16580
3093.70747,0.16542
3091.77873,0.16422
3089.84998,0.16237
3087.92124,0.16032
3085.99249,0.15865
3084.06375,0.15805
3082.13500,0.15883
3080.20626,0.16054
3078.27751,0.16232
3076.34877,0.16354
3074.42002,0.16399
3072.49127,0.16368
3070.56253,0.16276
3068.63378,0.16128
3066.70504,0.15929
3064.77629,0.15714
3062.84755,0.15558
3060.91880,0.15528
3058.99006,0.15642
3057.06131,0.15874
3055.13257,0.16160
3053.20382,0.16413
3051.27508,0.16596
3049.34633,0.16723
3047.41759,0.16803
3045.48884,0.16835
3043.56009,0.16805
3041.63135,0.16680
3039.70260,0.16444
3037.77386,0.16127
3035.84511,0.15739
3033.91637,0.15241
3031.98762,0.14673
3030.05888,0.14184
3028.13013,0.13920
3026.20139,0.13949
3024.27264,0.14260
3022.34390,0.14763
3020.41515,0.15291
3018.48641,0.15714
3016.55766,0.16008
3014.62892,0.16195
3012.70017,0.16266
3010.77142,0.16200
3008.84268,0.16023
3006.91393,0.15776
3004.98519,0.15496
3003.05644,0.15227
3001.12770,0.14989
2999.19895,0.14748
2997.27021,0.14452
2995.34146,0.14068
2993.41272,0.13595
2991.48397,0.13064
2989.55523,0.12536
2987.62648,0.12058
2985.69774,0.11646
2983.76899,0.11322
2981.84025,0.11078
2979.91150,0.10846
2977.98275,0.10573
2976.05401,0.10273
2974.12526,0.09957
2972.19652,0.09626
2970.26777,0.09283
2968.33903,0.08937
2966.41028,0.08612
2964.48154,0.08336
2962.55279,0.08123
2960.62405,0.07974
2958.69530,0.07890
2956.76656,0.07881
2954.83781,0.07948
2952.90907,0.08074
2950.98032,0.08225
2949.05157,0.08337
2947.12283,0.08385
2945.19408,0.08392
2943.26534,0.08350
2941.33659,0.08267
2939.40785,0.08182
2937.47910,0.08094
2935.55036,0.08001
2933.62161,0.07937
2931.69287,0.07914
2929.76412,0.07933
2927.83538,0.08001
2925.90663,0.08107
2923.97789,0.08224
2922.04914,0.08343
2920.12040,0.08469
2918.19165,0.08611
2916.26290,0.08774
2914.33416,0.08950
2912.40541,0.09133
2910.47667,0.09327
2908.54792,0.09504
2906.61918,0.09644
2904.69043,0.09778
2902.76169,0.09917
2900.83294,0.10033
2898.90420,0.10117
2896.97545,0.10195
2895.04671,0.10284
2893.11796,0.10360
2891.18922,0.10398
2889.26047,0.10395
2887.33172,0.10330
2885.40298,0.10175
2883.47423,0.09945
2881.54549,0.09673
2879.61674,0.09384
2877.68800,0.09131
2875.75925,0.08968
2873.83051,0.08907
2871.90176,0.08958
2869.97302,0.09094
2868.04427,0.09254
2866.11553,0.09420
2864.18678,0.09607
2862.25804,0.09817
2860.32929,0.10030
2858.40055,0.10233
2856.47180,0.10441
2854.54305,0.10664
2852.61431,0.10901
2850.68556,0.11177
2848.75682,0.11526
2846.82807,0.11967
2844.89933,0.12494
2842.97058,0.13077
2841.04184,0.13702
2839.11309,0.14365
2837.18435,0.15021
2835.25560,0.15623
2833.32686,0.16164
2831.39811,0.16665
2829.46937,0.17123
2827.54062,0.17527
2825.61188,0.17892
2823.68313,0.18239
2821.75438,0.18562
2819.82564,0.18864
2817.89689,0.19136
2815.96815,0.19371
2814.03940,0.19568
2812.11066,0.19745
2810.18191,0.19931
2808.25317,0.20121
2806.32442,0.20300
2804.39568,0.20475
2802.46693,0.20635
2800.53819,0.20774
2798.60944,0.20928
2796.68070,0.21114
2794.75195,0.21298
2792.82320,0.21455
2790.89446,0.21593
2788.96571,0.21731
2787.03697,0.21868
2785.10822,0.21985
2783.17948,0.22075
2781.25073,0.22163
2779.32199,0.22272
2777.39324,0.22388
2775.46450,0.22494
2773.53575,0.22586
2771.60701,0.22662
2769.67826,0.22729
2767.74952,0.22794
2765.82077,0.22844
2763.89203,0.22898
2761.96328,0.22975
2760.03453,0.23041
2758.10579,0.23081
2756.17704,0.23120
2754.24830,0.23154
2752.31955,0.23168
2750.39081,0.23172
2748.46206,0.23179
2746.53332,0.23192
2744.60457,0.23202
2742.67583,0.23207
2740.74708,0.23223
2738.81834,0.23248
2736.88959,0.23265
2734.96085,0.23269
2733.03210,0.23285
2731.10336,0.23328
2729.17461,0.23389
2727.24586,0.23466
2725.31712,0.23542
2723.38837,0.23604
2721.45963,0.23668
2719.53088,0.23744
2717.60214,0.23821
2715.67339,0.23886
2713.74465,0.23938
2711.81590,0.23988
2709.88716,0.24051
2707.95841,0.24124
2706.02967,0.24196
2704.10092,0.24263
2702.17218,0.24328
2700.24343,0.24393
2698.31468,0.24462
2696.38594,0.24531
2694.45719,0.24595
2692.52845,0.24661
2690.59970,0.24730
2688.67096,0.24787
2686.74221,0.24825
2684.81347,0.24856
2682.88472,0.24898
2680.95598,0.24958
2679.02723,0.25015
2677.09849,0.25065
2675.16974,0.25103
2673.24100,0.25120
2671.31225,0.25130
2669.38351,0.25150
2667.45476,0.25178
2665.52601,0.25202
2663.59727,0.25211
2661.66852,0.25210
2659.73978,0.25207
2657.81103,0.25208
2655.88229,0.25212
2653.95354,0.25215
2652.02480,0.25202
2650.09605,0.25163
2648.16731,0.25108
2646.23856,0.25039
2644.30982,0.24947
2642.38107,0.24842
2640.45233,0.24717
2638.52358,0.24552
2636.59484,0.24346
2634.66609,0.24094
2632.73734,0.23787
2630.80860,0.23449
2628.87985,0.23127
2626.95111,0.22835
2625.02236,0.22569
2623.09362,0.22328
2621.16487,0.22086
2619.23613,0.21819
2617.30738,0.21542
2615.37864,0.21261
2613.44989,0.20963
2611.52115,0.20636
2609.59240,0.20288
2607.66366,0.19953
2605.73491,0.19670
2603.80616,0.19444
2601.87742,0.19259
2599.94867,0.19103
2598.01993,0.18965
2596.09118,0.18842
2594.16244,0.18743
2592.23369,0.18665
2590.30495,0.18594
2588.37620,0.18529
2586.44746,0.18473
2584.51871,0.18421
2582.58997,0.18382
2580.66122,0.18367
2578.73248,0.18349
2576.80373,0.18303
2574.87499,0.18244
2572.94624,0.18183
2571.01749,0.18111
2569.08875,0.18036
2567.16000,0.17962
2565.23126,0.17884
2563.30251,0.17801
2561.37377,0.17691
2559.44502,0.17556
2557.51628,0.17423
2555.58753,0.17288
2553.65879,0.17134
2551.73004,0.16959
2549.80130,0.16773
2547.87255,0.16586
2545.94381,0.16398
2544.01506,0.16199
2542.08631,0.15957
2540.15757,0.15603
2538.22882,0.15080
2536.30008,0.14411
2534.37133,0.13673
2532.44259,0.12937
2530.51384,0.12243
2528.58510,0.11615
2526.65635,0.11081
2524.72761,0.10653
2522.79886,0.10315
2520.87012,0.10053
2518.94137,0.09879
2517.01263,0.09780
2515.08388,0.09727
2513.15514,0.09715
2511.22639,0.09785
2509.29764,0.09988
2507.36890,0.10332
2505.44015,0.10801
2503.51141,0.11389
2501.58266,0.12094
2499.65392,0.12905
2497.72517,0.13818
2495.79643,0.14816
2493.86768,0.15837
2491.93894,0.16814
2490.01019,0.17723
2488.08145,0.18574
2486.15270,0.19379
2484.22396,0.20149
2482.29521,0.20897
2480.36647,0.21637
2478.43772,0.22369
2476.50897,0.23082
2474.58023,0.23749
2472.65148,0.24357
2470.72274,0.24905
2468.79399,0.25391
2466.86525,0.25808
2464.93650,0.26160
2463.00776,0.26458
2461.07901,0.26716
2459.15027,0.26944
2457.22152,0.27162
2455.29278,0.27371
2453.36403,0.27554
2451.43529,0.27711
2449.50654,0.27860
2447.57779,0.28015
2445.64905,0.28166
2443.72030,0.28296
2441.79156,0.28414
2439.86281,0.28540
2437.93407,0.28656
2436.00532,0.28753
2434.07658,0.28848
2432.14783,0.28955
2430.21909,0.29073
2428.29034,0.29190
2426.36160,0.29294
2424.43285,0.29390
2422.50411,0.29483
2420.57536,0.29569
2418.64662,0.29660
2416.71787,0.29766
2414.78912,0.29875
2412.86038,0.29974
2410.93163,0.30059
2409.00289,0.30115
2407.07414,0.30148
2405.14540,0.30194
2403.21665,0.30267
2401.28791,0.30340
2399.35916,0.30397
2397.43042,0.30447
2395.50167,0.30492
2393.57293,0.30540
2391.64418,0.30607
2389.71544,0.30689
2387.78669,0.30758
2385.85795,0.30809
2383.92920,0.30848
2382.00045,0.30875
2380.07171,0.30903
2378.14296,0.30949
2376.21422,0.31017
2374.28547,0.31086
2372.35673,0.31125
2370.42798,0.31132
2368.49924,0.31137
2366.57049,0.31161
2364.64175,0.31195
2362.71300,0.31211
2360.78426,0.31216
2358.85551,0.31230
2356.92677,0.31229
2354.99802,0.31212
2353.06927,0.31209
2351.14053,0.31215
2349.21178,0.31213
2347.28304,0.31208
2345.35429,0.31190
2343.42555,0.31136
2341.49680,0.31069
2339.56806,0.31048
2337.63931,0.31078
2335.71057,0.31124
2333.78182,0.31171
2331.85308,0.31207
2329.92433,0.31230
2327.99559,0.31256
2326.06684,0.31280
2324.13810,0.31275
2322.20935,0.31255
2320.28060,0.31247
2318.35186,0.31236
2316.42311,0.31212
2314.49437,0.31190
2312.56562,0.31174
2310.63688,0.31165
2308.70813,0.31161
2306.77939,0.31155
2304.85064,0.31147
2302.92190,0.31139
2300.99315,0.31130
2299.06441,0.31113
2297.13566,0.31094
2295.20692,0.31088
2293.27817,0.31099
2291.34943,0.31115
2289.42068,0.31129
2287.49193,0.31140
2285.56319,0.31137
2283.63444,0.31112
2281.70570,0.31069
2279.77695,0.31031
2277.84821,0.31003
2275.91946,0.30964
2273.99072,0.30899
2272.06197,0.30819
2270.13323,0.30743
2268.20448,0.30674
2266.27574,0.30612
2264.34699,0.30546
2262.41825,0.30459
2260.48950,0.30357
2258.56075,0.30261
2256.63201,0.30183
2254.70326,0.30114
2252.77452,0.30042
2250.84577,0.29969
2248.91703,0.29908
2246.98828,0.29872
2245.05954,0.29831
2243.13079,0.29760
2241.20205,0.29680
2239.27330,0.29614
2237.34456,0.29536
2235.41581,0.29435
2233.48707,0.29328
2231.55832,0.29222
2229.62958,0.29125
2227.70083,0.29047
2225.77208,0.28983
2223.84334,0.28929
2221.91459,0.28888
2219.98585,0.28865
2218.05710,0.28866
2216.12836,0.28881
2214.19961,0.28894
2212.27087,0.28894
2210.34212,0.28875
2208.41338,0.28852
2206.48463,0.28841
2204.55589,0.28825
2202.62714,0.28792
2200.69840,0.28735
2198.76965,0.28656
2196.84090,0.28572
2194.91216,0.28489
2192.98341,0.28401
2191.05467,0.28302
2189.12592,0.28191
2187.19718,0.28077
2185.26843,0.27966
2183.33969,0.27856
2181.41094,0.27742
2179.48220,0.27615
2177.55345,0.27472
2175.62471,0.27324
2173.69596,0.27194
2171.76722,0.27094
2169.83847,0.27001
2167.90973,0.26893
2165.98098,0.26755
2164.05223,0.26591
2162.12349,0.26425
2160.19474,0.26265
2158.26600,0.26091
2156.33725,0.25901
2154.40851,0.25708
2152.47976,0.25499
2150.55102,0.25273
2148.62227,0.25061
2146.69353,0.24893
2144.76478,0.24779
2142.83604,0.24710
2140.90729,0.24664
2138.97855,0.24630
2137.04980,0.24625
2135.12106,0.24654
2133.19231,0.24717
2131.26356,0.24815
2129.33482,0.24932
2127.40607,0.25057
2125.47733,0.25205
2123.54858,0.25369
2121.61984,0.25533
2119.69109,0.25689
2117.76235,0.25818
2115.83360,0.25919
2113.90486,0.26003
2111.97611,0.26070
2110.04737,0.26133
2108.11862,0.26187
2106.18988,0.26217
2104.26113,0.26236
2102.33238,0.26259
2100.40364,0.26289
2098.47489,0.26330
2096.54615,0.26367
2094.61740,0.26376
2092.68866,0.26364
2090.75991,0.26363
2088.83117,0.26365
2086.90242,0.26329
2084.97368,0.26268
2083.04493,0.26219
2081.11619,0.26174
2079.18744,0.26112
2077.25870,0.26044
2075.32995,0.25980
2073.40121,0.25917
2071.47246,0.25849
2069.54371,0.25768
2067.61497,0.25685
2065.68622,0.25614
2063.75748,0.25557
2061.82873,0.25502
2059.89999,0.25434
2057.97124,0.25358
2056.04250,0.25284
2054.11375,0.25220
2052.18501,0.25168
2050.25626,0.25114
2048.32752,0.25044
2046.39877,0.24970
2044.47003,0.24904
2042.54128,0.24846
2040.61254,0.24788
2038.68379,0.24733
2036.75504,0.24688
2034.82630,0.24649
2032.89755,0.24611
2030.96881,0.24581
2029.04006,0.24565
2027.11132,0.24568
2025.18257,0.24583
2023.25383,0.24596
2021.32508,0.24599
2019.39634,0.24582
2017.46759,0.24543
2015.53885,0.24485
2013.61010,0.24411
2011.68136,0.24329
2009.75261,0.24256
2007.82386,0.24195
2005.89512,0.24134
2003.96637,0.24076
2002.03763,0.24021
2000.10888,0.23961
1998.18014,0.23912
1996.25139,0.23891
1994.32265,0.23886
1992.39390,0.23867
1990.46516,0.23829
1988.53641,0.23796
1986.60767,0.23778
1984.67892,0.23773
1982.75018,0.23764
1980.82143,0.23729
1978.89269,0.23680
1976.96394,0.23641
1975.03519,0.23596
1973.10645,0.23536
1971.17770,0.23471
1969.24896,0.23400
1967.32021,0.23315
1965.39147,0.23193
1963.46272,0.23033
1961.53398,0.22904
1959.60523,0.22869
1957.67649,0.22904
1955.74774,0.22945
1953.81900,0.22963
1951.89025,0.22951
1949.96151,0.22929
1948.03276,0.22920
1946.10402,0.22918
1944.17527,0.22921
1942.24652,0.22952
1940.31778,0.23010
1938.38903,0.23084
1936.46029,0.23176
1934.53154,0.23284
1932.60280,0.23382
1930.67405,0.23453
1928.74531,0.23508
1926.81656,0.23555
1924.88782,0.23583
1922.95907,0.23582
1921.03033,0.23561
1919.10158,0.23508
1917.17284,0.23408
1915.24409,0.23281
1913.31534,0.23153
1911.38660,0.23017
1909.45785,0.22862
1907.52911,0.22691
1905.60036,0.22500
1903.67162,0.22286
1901.74287,0.22072
1899.81413,0.21875
1897.88538,0.21676
1895.95664,0.21462
1894.02789,0.21255
1892.09915,0.21070
1890.17040,0.20896
1888.24166,0.20736
1886.31291,0.20602
1884.38417,0.20467
1882.45542,0.20316
1880.52667,0.20175
1878.59793,0.20059
1876.66918,0.19957
1874.74044,0.19865
1872.81169,0.19791
1870.88295,0.19739
1868.95420,0.19717
1867.02546,0.19742
1865.09671,0.19808
1863.16797,0.19886
1861.23922,0.19965
1859.31048,0.20043
1857.38173,0.20120
1855.45299,0.20201
1853.52424,0.20274
1851.59549,0.20320
1849.66675,0.20336
1847.73800,0.20319
1845.80926,0.20253
1843.88051,0.20126
1841.95177,0.19958
1840.02302,0.19771
1838.09428,0.19550
1836.16553,0.19290
1834.23679,0.19002
1832.30804,0.18670
1830.37930,0.18269
1828.45055,0.17837
1826.52181,0.17425
1824.59306,0.17017
1822.66432,0.16621
1820.73557,0.16252
1818.80682,0.15892
1816.87808,0.15523
1814.94933,0.15122
1813.02059,0.14634
1811.09184,0.13983
1809.16310,0.13116
1807.23435,0.11983
1805.30561,0.10569
1803.37686,0.08979
1801.44812,0.07480
1799.51937,0.06410
1797.59063,0.05892
1795.66188,0.05752
1793.73314,0.05865
1791.80439,0.06385
1789.87565,0.07382
1787.94690,0.08594
1786.01815,0.09784
1784.08941,0.10775
1782.16066,0.11453
1780.23192,0.11850
1778.30317,0.12055
1776.37443,0.12126
1774.44568,0.12081
1772.51694,0.11895
1770.58819,0.11582
1768.65945,0.11192
1766.73070,0.10743
1764.80196,0.10266
1762.87321,0.09758
1760.94447,0.09200
1759.01572,0.08634
1757.08697,0.08055
1755.15823,0.07472
1753.22948,0.06910
1751.30074,0.06336
1749.37199,0.05777
1747.44325,0.05292
1745.51450,0.04874
1743.58576,0.04510
1741.65701,0.04212
1739.72827,0.03979
1737.79952,0.03810
1735.87078,0.03709
1733.94203,0.03677
1732.01329,0.03714
1730.08454,0.03818
1728.15580,0.03987
1726.22705,0.04202
1724.29830,0.04465
1722.36956,0.04784
1720.44081,0.05149
1718.51207,0.05584
1716.58332,0.06074
1714.65458,0.06499
1712.72583,0.06817
1710.79709,0.07061
1708.86834,0.07253
1706.93960,0.07396
1705.01085,0.07491
1703.08211,0.07561
1701.15336,0.07638
1699.22462,0.07724
1697.29587,0.07769
1695.36713,0.07746
1693.43838,0.07682
1691.50963,0.07605
1689.58089,0.07516
1687.65214,0.07434
1685.72340,0.07364
1683.79465,0.07270
1681.86591,0.07168
1679.93716,0.07086
1678.00842,0.07013
1676.07967,0.06933
1674.15093,0.06851
1672.22218,0.06781
1670.29344,0.06706
1668.36469,0.06620
1666.43595,0.06561
1664.50720,0.06530
1662.57845,0.06504
1660.64971,0.06468
1658.72096,0.06441
1656.79222,0.06445
1654.86347,0.06467
1652.93473,0.06463
1651.00598,0.06436
1649.07724,0.06420
1647.14849,0.06404
1645.21975,0.06367
1643.29100,0.06324
1641.36226,0.06290
1639.43351,0.06255
1637.50477,0.06203
1635.57602,0.06143
1633.64728,0.06111
1631.71853,0.06092
1629.78978,0.06049
1627.86104,0.05990
1625.93229,0.05946
1624.00355,0.05911
1622.07480,0.05865
1620.14606,0.05814
1618.21731,0.05769
1616.28857,0.05740
1614.35982,0.05728
1612.43108,0.05709
1610.50233,0.05668
1608.57359,0.05610
1606.64484,0.05554
1604.71610,0.05521
1602.78735,0.05520
1600.85861,0.05554
1598.92986,0.05627
1597.00111,0.05732
1595.07237,0.05841
1593.14362,0.05925
1591.21488,0.05975
1589.28613,0.06019
1587.35739,0.06093
1585.42864,0.06215
1583.49990,0.06384
1581.57115,0.06592
1579.64241,0.06826
1577.71366,0.07102
1575.78492,0.07431
1573.85617,0.07746
1571.92743,0.08020
1569.99868,0.08294
1568.06993,0.08549
1566.14119,0.08772
1564.21244,0.09001
1562.28370,0.09250
1560.35495,0.09528
1558.42621,0.09811
1556.49746,0.10013
1554.56872,0.10170
1552.63997,0.10298
1550.71123,0.10360
1548.78248,0.10369
1546.85374,0.10362
1544.92499,0.10356
1542.99625,0.10341
1541.06750,0.10284
1539.13876,0.10193
1537.21001,0.10136
1535.28126,0.10103
1533.35252,0.10053
1531.42377,0.09995
1529.49503,0.09948
1527.56628,0.09906
1525.63754,0.09857
1523.70879,0.09799
1521.78005,0.09733
1519.85130,0.09668
1517.92256,0.09601
1515.99381,0.09535
1514.06507,0.09492
1512.13632,0.09466
1510.20758,0.09433
1508.27883,0.09387
1506.35008,0.09334
1504.42134,0.09297
1502.49259,0.09280
1500.56385,0.09273
1498.63510,0.09260
1496.70636,0.09235
1494.77761,0.09228
1492.84887,0.09248
1490.92012,0.09278
1488.99138,0.09308
1487.06263,0.09328
1485.13389,0.09331
1483.20514,0.09331
1481.27640,0.09338
1479.34765,0.09351
1477.41891,0.09364
1475.49016,0.09376
1473.56141,0.09390
1471.63267,0.09399
1469.70392,0.09396
1467.77518,0.09400
1465.84643,0.09424
1463.91769,0.09458
1461.98894,0.09488
1460.06020,0.09510
1458.13145,0.09526
1456.20271,0.09537
1454.27396,0.09553
1452.34522,0.09574
1450.41647,0.09594
1448.48773,0.09612
1446.55898,0.09631
1444.63024,0.09664
1442.70149,0.09703
1440.77274,0.09745
1438.84400,0.09800
1436.91525,0.09858
1434.98651,0.09920
1433.05776,0.10003
1431.12902,0.10092
1429.20027,0.10171
1427.27153,0.10242
1425.34278,0.10305
1423.41404,0.10363
1421.48529,0.10417
1419.55655,0.10467
1417.62780,0.10524
1415.69906,0.10598
1413.77031,0.10661
1411.84156,0.10670
1409.91282,0.10616
1407.98407,0.10508
1406.05533,0.10326
1404.12658,0.10080
1402.19784,0.09848
1400.26909,0.09683
1398.34035,0.09582
1396.41160,0.09513
1394.48286,0.09434
1392.55411,0.09351
1390.62537,0.09289
1388.69662,0.09239
1386.76788,0.09194
1384.83913,0.09168
1382.91039,0.09167
1380.98164,0.09180
1379.05289,0.09189
1377.12415,0.09199
1375.19540,0.09239
1373.26666,0.09329
1371.33791,0.09449
1369.40917,0.09580
1367.48042,0.09725
1365.55168,0.09878
1363.62293,0.10041
1361.69419,0.10220
1359.76544,0.10395
1357.83670,0.10555
1355.90795,0.10706
1353.97921,0.10840
1352.05046,0.10943
1350.12172,0.11034
1348.19297,0.11151
1346.26422,0.11289
1344.33548,0.11403
1342.40673,0.11486
1340.47799,0.11571
1338.54924,0.11666
1336.62050,0.11740
1334.69175,0.11787
1332.76301,0.11818
1330.83426,0.11842
1328.90552,0.11861
1326.97677,0.11865
1325.04803,0.11856
1323.11928,0.11859
1321.19054,0.11892
1319.26179,0.11945
1317.33304,0.11988
1315.40430,0.12006
1313.47555,0.12029
1311.54681,0.12090
1309.61806,0.12175
1307.68932,0.12260
1305.76057,0.12353
1303.83183,0.12465
1301.90308,0.12575
1299.97434,0.12659
1298.04559,0.12714
1296.11685,0.12743
1294.18810,0.12733
1292.25936,0.12675
1290.33061,0.12578
1288.40187,0.12468
1286.47312,0.12355
1284.54437,0.12229
1282.61563,0.12082
1280.68688,0.11919
1278.75814,0.11761
1276.82939,0.11605
1274.90065,0.11427
1272.97190,0.11241
1271.04316,0.11078
1269.11441,0.10926
1267.18567,0.10780
1265.25692,0.10649
1263.32818,0.10533
1261.39943,0.10439
1259.47069,0.10371
1257.54194,0.10313
1255.61320,0.10239
1253.68445,0.10155
1251.75570,0.10071
1249.82696,0.09977
1247.89821,0.09885
1245.96947,0.09817
1244.04072,0.09766
1242.11198,0.09728
1240.18323,0.09727
1238.25449,0.09769
1236.32574,0.09818
1234.39700,0.09847
1232.46825,0.09882
1230.53951,0.09950
1228.61076,0.10052
1226.68202,0.10153
1224.75327,0.10217
1222.82452,0.10248
1220.89578,0.10262
1218.96703,0.10256
1217.03829,0.10234
1215.10954,0.10209
1213.18080,0.10163
1211.25205,0.10081
1209.32331,0.09973
1207.39456,0.09851
1205.46582,0.09730
1203.53707,0.09625
1201.60833,0.09517
1199.67958,0.09392
1197.75084,0.09271
1195.82209,0.09164
1193.89335,0.09035
1191.96460,0.08875
1190.03585,0.08728
1188.10711,0.08618
1186.17836,0.08514
1184.24962,0.08394
1182.32087,0.08263
1180.39213,0.08133
1178.46338,0.08021
1176.53464,0.07923
1174.60589,0.07810
1172.67715,0.07686
1170.74840,0.07574
1168.81966,0.07471
1166.89091,0.07377
1164.96217,0.07293
1163.03342,0.07229
1161.10467,0.07218
1159.17593,0.07277
1157.24718,0.07386
1155.31844,0.07518
1153.38969,0.07659
1151.46095,0.07800
1149.53220,0.07928
1147.60346,0.08038
1145.67471,0.08140
1143.74597,0.08252
1141.81722,0.08370
1139.88848,0.08462
1137.95973,0.08507
1136.03099,0.08520
1134.10224,0.08518
1132.17350,0.08498
1130.24475,0.08453
1128.31600,0.08382
1126.38726,0.08264
1124.45851,0.08099
1122.52977,0.07921
1120.60102,0.07741
1118.67228,0.07562
1116.74353,0.07412
1114.81479,0.07329
1112.88604,0.07323
1110.95730,0.07352
1109.02855,0.07388
1107.09981,0.07449
1105.17106,0.07534
1103.24232,0.07622
1101.31357,0.07706
1099.38483,0.07784
1097.45608,0.07856
1095.52733,0.07931
1093.59859,0.08002
1091.66984,0.08075
1089.74110,0.08153
1087.81235,0.08217
1085.88361,0.08273
1083.95486,0.08332
1082.02612,0.08379
1080.09737,0.08415
1078.16863,0.08453
1076.23988,0.08477
1074.31114,0.08472
1072.38239,0.08455
1070.45365,0.08432
1068.52490,0.08367
1066.59615,0.08242
1064.66741,0.08106
1062.73866,0.08008
1060.80992,0.07935
1058.88117,0.07860
1056.95243,0.07813
1055.02368,0.07802
1053.09494,0.07777
1051.16619,0.07739
1049.23745,0.07738
1047.30870,0.07771
1045.37996,0.07793
1043.45121,0.07794
1041.52247,0.07793
1039.59372,0.07804
1037.66498,0.07825
1035.73623,0.07857
1033.80748,0.07894
1031.87874,0.07883
1029.94999,0.07781
1028.02125,0.07635
1026.09250,0.07523
1024.16376,0.07455
1022.23501,0.07419
1020.30627,0.07422
1018.37752,0.07455
1016.44878,0.07502
1014.52003,0.07553
1012.59129,0.07609
1010.66254,0.07661
1008.73380,0.07677
1006.80505,0.07643
1004.87631,0.07591
1002.94756,0.07541
1001.01881,0.07484
999.09007,0.07409
997.16132,0.07315
995.23258,0.07225
993.30383,0.07160
991.37509,0.07109
989.44634,0.07058
987.51760,0.07014
985.58885,0.06988
983.66011,0.06956
981.73136,0.06871
979.80262,0.06775
977.87387,0.06737
975.94513,0.06732
974.01638,0.06705
972.08763,0.06660
970.15889,0.06624
968.23014,0.06603
966.30140,0.06597
964.37265,0.06577
962.44391,0.06516
960.51516,0.06446
958.58642,0.06400
956.65767,0.06362
954.72893,0.06306
952.80018,0.06241
950.87144,0.06206
948.94269,0.06196
947.01395,0.06158
945.08520,0.06096
943.15646,0.06050
941.22771,0.06039
939.29896,0.06041
937.37022,0.06032
935.44147,0.06011
933.51273,0.05972
931.58398,0.05913
929.65524,0.05863
927.72649,0.05832
925.79775,0.05812
923.86900,0.05803
921.94026,0.05805
920.01151,0.05814
918.08277,0.05829
916.15402,0.05858
914.22528,0.05901
912.29653,0.05926
910.36779,0.05927
908.43904,0.05954
906.51029,0.06025
904.58155,0.06092
902.65280,0.06138
900.72406,0.06206
898.79531,0.06295
896.86657,0.06372
894.93782,0.06452
893.00908,0.06576
891.08033,0.06739
889.15159,0.06826
887.22284,0.06711
885.29410,0.06451
883.36535,0.06266
881.43661,0.06291
879.50786,0.06473
877.57911,0.06686
875.65037,0.06854
873.72162,0.06941
871.79288,0.06931
869.86413,0.06868
867.93539,0.06795
866.00664,0.06703
864.07790,0.06577
862.14915,0.06452
860.22041,0.06363
858.29166,0.06290
856.36292,0.06189
854.43417,0.06052
852.50543,0.05897
850.57668,0.05713
848.64794,0.05566
846.71919,0.05566
844.79044,0.05643
842.86170,0.05639
840.93295,0.05547
839.00421,0.05452
837.07546,0.05380
835.14672,0.05328
833.21797,0.05292
831.28923,0.05235
829.36048,0.05142
827.43174,0.05055
825.50299,0.04982
823.57425,0.04881
821.64550,0.04766
819.71676,0.04691
817.78801,0.04638
815.85926,0.04582
813.93052,0.04539
812.00177,0.04501
810.07303,0.04466
808.14428,0.04456
806.21554,0.04474
804.28679,0.04530
802.35805,0.04595
800.42930,0.04600
798.50056,0.04546
796.57181,0.04481
794.64307,0.04417
792.71432,0.04359
790.78558,0.04329
788.85683,0.04336
786.92809,0.04354
784.99934,0.04355
783.07059,0.04351
781.14185,0.04366
779.21310,0.04372
777.28436,0.04337
775.35561,0.04278
773.42687,0.04214
771.49812,0.04153
769.56938,0.04104
767.64063,0.04063
765.71189,0.04057
763.78314,0.04101
761.85440,0.04130
759.92565,0.04112
757.99691,0.04076
756.06816,0.04032
754.13942,0.03982
752.21067,0.03940
750.28192,0.03925
748.35318,0.03922
746.42443,0.03902
744.49569,0.03879
742.56694,0.03870
740.63820,0.03861
738.70945,0.03839
736.78071,0.03812
734.85196,0.03789
732.92322,0.03795
730.99447,0.03838
729.06573,0.03874
727.13698,0.03867
725.20824,0.03833
723.27949,0.03773
721.35074,0.03684
719.42200,0.03627
717.49325,0.03676
715.56451,0.03866
713.63576,0.04185
711.70702,0.04487
709.77827,0.04588
707.84953,0.04506
705.92078,0.04418
703.99204,0.04423
702.06329,0.04490
700.13455,0.04549
698.20580,0.04563
696.27706,0.04537
694.34831,0.04497
692.41957,0.04480
690.49082,0.04502
688.56207,0.04510
686.63333,0.04480
684.70458,0.04464
682.77584,0.04495
680.84709,0.04548
678.91835,0.04580
676.98960,0.04598
675.06086,0.04615
673.13211,0.04601
671.20337,0.04551
669.27462,0.04509
667.34588,0.04521
665.41713,0.04575
663.48839,0.04596
661.55964,0.04574
659.63090,0.04590
657.70215,0.04641
655.77340,0.04621
653.84466,0.04558
651.91591,0.04565
649.98717,0.04612
648.05842,0.04636
646.12968,0.04660
644.20093,0.04666
642.27219,0.04607
640.34344,0.04523
638.41470,0.04495
636.48595,0.04503
634.55721,0.04493
632.62846,0.04488
630.69972,0.04457
628.77097,0.04359
626.84222,0.04306
624.91348,0.04377
622.98473,0.04495
621.05599,0.04556
619.12724,0.04477
617.19850,0.04313
615.26975,0.04227
613.34101,0.04264
611.41226,0.04417
609.48352,0.04576
607.55477,0.04548
605.62603,0.04414
603.69728,0.04333
601.76854,0.04307
599.83979,0.04305
