7497.03301,0.83085
7495.10426,0.82829
7493.17552,0.82766
7491.24677,0.83122
7489.31803,0.83691
7487.38928,0.83822
7485.46054,0.83271
7483.53179,0.82710
7481.60305,0.82525
7479.67430,0.82370
7477.74556,0.82347
7475.81681,0.82736
7473.88807,0.83094
7471.95932,0.83137
7470.03057,0.82815
7468.10183,0.82137
7466.17308,0.81920
7464.24434,0.82333
7462.31559,0.82342
7460.38685,0.81958
7458.45810,0.82077
7456.52936,0.82556
7454.60061,0.82640
7452.67187,0.82347
7450.74312,0.82008
7448.81438,0.81656
7446.88563,0.81497
7444.95689,0.81386
7443.02814,0.80977
7441.09940,0.80831
7439.17065,0.81391
7437.24190,0.82080
7435.31316,0.82346
7433.38441,0.82208
7431.45567,0.81706
7429.52692,0.81020
7427.59818,0.80741
7425.66943,0.81016
7423.74069,0.81353
7421.81194,0.81300
7419.88320,0.80831
7417.95445,0.80497
7416.02571,0.80609
7414.09696,0.80825
7412.16822,0.80905
7410.23947,0.80958
7408.31073,0.81047
7406.38198,0.81099
7404.45323,0.81166
7402.52449,0.81286
7400.59574,0.81283
7398.66700,0.81064
7396.73825,0.80752
7394.80951,0.80525
7392.88076,0.80607
7390.95202,0.80922
7389.02327,0.81006
7387.09453,0.80936
7385.16578,0.81006
7383.23704,0.81028
7381.30829,0.81047
7379.37955,0.81197
7377.45080,0.81339
7375.52205,0.81377
7373.59331,0.81160
7371.66456,0.80642
7369.73582,0.80067
7367.80707,0.79818
7365.87833,0.79933
7363.94958,0.80046
7362.02084,0.80076
7360.09209,0.80145
7358.16335,0.80198
7356.23460,0.80355
7354.30586,0.80759
7352.37711,0.81066
7350.44837,0.80727
7348.51962,0.79835
7346.59088,0.79428
7344.66213,0.80101
7342.73338,0.80870
7340.80464,0.80731
7338.87589,0.80239
7336.94715,0.80227
7335.01840,0.80415
7333.08966,0.80235
7331.16091,0.79821
7329.23217,0.79509
7327.30342,0.79376
7325.37468,0.79413
7323.44593,0.79444
7321.51719,0.79324
7319.58844,0.79231
7317.65970,0.79434
7315.73095,0.79908
7313.80221,0.80205
7311.87346,0.79977
7309.94471,0.79443
7308.01597,0.79035
7306.08722,0.79101
7304.15848,0.79618
7302.22973,0.80035
7300.30099,0.80062
7298.37224,0.79928
7296.44350,0.79826
7294.51475,0.79734
7292.58601,0.79453
7290.65726,0.79046
7288.72852,0.78961
7286.79977,0.79251
7284.87103,0.79486
7282.94228,0.79434
7281.01353,0.79226
7279.08479,0.79085
7277.15604,0.79209
7275.22730,0.79409
7273.29855,0.79178
7271.36981,0.78637
7269.44106,0.78401
7267.51232,0.78669
7265.58357,0.79143
7263.65483,0.79512
7261.72608,0.79790
7259.79734,0.79905
7257.86859,0.79642
7255.93985,0.79121
7254.01110,0.78728
7252.08236,0.78645
7250.15361,0.78570
7248.22486,0.78426
7246.29612,0.78555
7244.36737,0.78885
7242.43863,0.78999
7240.50988,0.78861
7238.58114,0.78859
7236.65239,0.79019
7234.72365,0.79016
7232.79490,0.78828
7230.86616,0.78778
7228.93741,0.79098
7227.00867,0.79454
7225.07992,0.79452
7223.15118,0.79201
7221.22243,0.78871
7219.29369,0.78631
7217.36494,0.78577
7215.43619,0.78583
7213.50745,0.78823
7211.57870,0.79295
7209.64996,0.79319
7207.72121,0.78698
7205.79247,0.78040
7203.86372,0.77822
7201.93498,0.77925
7200.00623,0.77948
7198.07749,0.77868
7196.14874,0.77762
7194.22000,0.77597
7192.29125,0.77533
7190.36251,0.77478
7188.43376,0.77199
7186.50501,0.76917
7184.57627,0.76891
7182.64752,0.76859
7180.71878,0.76553
7178.79003,0.76335
7176.86129,0.76482
7174.93254,0.76572
7173.00380,0.76317
7171.07505,0.76035
7169.14631,0.75972
7167.21756,0.76031
7165.28882,0.76113
7163.36007,0.76234
7161.43133,0.76418
7159.50258,0.76523
7157.57384,0.76480
7155.64509,0.76319
7153.71634,0.75996
7151.78760,0.75882
7149.85885,0.76322
7147.93011,0.76807
7146.00136,0.76860
7144.07262,0.76659
7142.14387,0.76357
7140.21513,0.76068
7138.28638,0.76083
7136.35764,0.76358
7134.42889,0.76451
7132.50015,0.76270
7130.57140,0.76087
7128.64266,0.75972
7126.71391,0.75967
7124.78516,0.76060
7122.85642,0.75960
7120.92767,0.75665
7118.99893,0.75468
7117.07018,0.75419
7115.14144,0.75333
7113.21269,0.75114
7111.28395,0.75019
7109.35520,0.75209
7107.42646,0.75482
7105.49771,0.75685
7103.56897,0.75670
7101.64022,0.75368
7099.71148,0.75032
7097.78273,0.74834
7095.85399,0.74741
7093.92524,0.74699
7091.99649,0.74648
7090.06775,0.74591
7088.13900,0.74639
7086.21026,0.74781
7084.28151,0.74643
7082.35277,0.74118
7080.42402,0.73779
7078.49528,0.73814
7076.56653,0.73722
7074.63779,0.73294
7072.70904,0.72784
7070.78030,0.72503
7068.85155,0.72454
7066.92281,0.72356
7064.99406,0.72250
7063.06532,0.72363
7061.13657,0.72558
7059.20782,0.72725
7057.27908,0.73015
7055.35033,0.73403
7053.42159,0.73682
7051.49284,0.73864
7049.56410,0.74086
7047.63535,0.74272
7045.70661,0.74381
7043.77786,0.74434
7041.84912,0.74231
7039.92037,0.73769
7037.99163,0.73428
7036.06288,0.73547
7034.13414,0.73981
7032.20539,0.74179
7030.27664,0.73966
7028.34790,0.73709
7026.41915,0.73732
7024.49041,0.73787
7022.56166,0.73448
7020.63292,0.72971
7018.70417,0.72870
7016.77543,0.73247
7014.84668,0.73788
7012.91794,0.74039
7010.98919,0.74046
7009.06045,0.74118
7007.13170,0.74094
7005.20296,0.73762
7003.27421,0.73479
7001.34547,0.73545
6999.41672,0.73605
6997.48797,0.73379
6995.55923,0.73134
6993.63048,0.72985
6991.70174,0.72835
6989.77299,0.72818
6987.84425,0.72941
6985.91550,0.72996
6983.98676,0.73016
6982.05801,0.73149
6980.12927,0.73434
6978.20052,0.73739
6976.27178,0.73651
6974.34303,0.73099
6972.41429,0.72676
6970.48554,0.72724
6968.55680,0.72878
6966.62805,0.72786
6964.69930,0.72596
6962.77056,0.72647
6960.84181,0.73029
6958.91307,0.73403
6956.98432,0.73367
6955.05558,0.73055
6953.12683,0.72772
6951.19809,0.72576
6949.26934,0.72561
6947.34060,0.72605
6945.41185,0.72445
6943.48311,0.72323
6941.55436,0.72491
6939.62562,0.72697
6937.69687,0.72768
6935.76812,0.72908
6933.83938,0.73183
6931.91063,0.73341
6929.98189,0.73202
6928.05314,0.72921
6926.12440,0.72848
6924.19565,0.73065
6922.26691,0.73275
6920.33816,0.73132
6918.40942,0.72726
6916.48067,0.72639
6914.55193,0.73049
6912.62318,0.73371
6910.69444,0.73216
6908.76569,0.72878
6906.83695,0.72749
6904.90820,0.72784
6902.97945,0.72786
6901.05071,0.72604
6899.12196,0.72157
6897.19322,0.71852
6895.26447,0.72099
6893.33573,0.72606
6891.40698,0.72975
6889.47824,0.73171
6887.54949,0.73198
6885.62075,0.73083
6883.69200,0.72934
6881.76326,0.72896
6879.83451,0.73063
6877.90577,0.73254
6875.97702,0.73350
6874.04828,0.73433
6872.11953,0.73385
6870.19078,0.73213
6868.26204,0.73108
6866.33329,0.73026
6864.40455,0.72970
6862.47580,0.73095
6860.54706,0.73407
6858.61831,0.73638
6856.68957,0.73556
6854.76082,0.73373
6852.83208,0.73244
6850.90333,0.73076
6848.97459,0.73001
6847.04584,0.73105
6845.11710,0.73130
6843.18835,0.72886
6841.25960,0.72644
6839.33086,0.72707
6837.40211,0.72867
6835.47337,0.72966
6833.54462,0.73176
6831.61588,0.73321
6829.68713,0.73078
6827.75839,0.72678
6825.82964,0.72521
6823.90090,0.72633
6821.97215,0.72796
6820.04341,0.72802
6818.11466,0.72759
6816.18592,0.72934
6814.25717,0.73256
6812.32843,0.73473
6810.39968,0.73459
6808.47093,0.73274
6806.54219,0.73096
6804.61344,0.72944
6802.68470,0.72756
6800.75595,0.72602
6798.82721,0.72522
6796.89846,0.72497
6794.96972,0.72555
6793.04097,0.72689
6791.11223,0.72843
6789.18348,0.72898
6787.25474,0.72772
6785.32599,0.72613
6783.39725,0.72585
6781.46850,0.72651
6779.53975,0.72666
6777.61101,0.72636
6775.68226,0.72732
6773.75352,0.72892
6771.82477,0.72933
6769.89603,0.73009
6767.96728,0.73272
6766.03854,0.73436
6764.10979,0.73264
6762.18105,0.73033
6760.25230,0.72969
6758.32356,0.72929
6756.39481,0.72934
6754.46607,0.73149
6752.53732,0.73406
6750.60858,0.73398
6748.67983,0.73080
6746.75108,0.72827
6744.82234,0.72945
6742.89359,0.73090
6740.96485,0.72976
6739.03610,0.72877
6737.10736,0.72847
6735.17861,0.72686
6733.24987,0.72555
6731.32112,0.72701
6729.39238,0.72962
6727.46363,0.73086
6725.53489,0.73016
6723.60614,0.72789
6721.67740,0.72512
6719.74865,0.72384
6717.81991,0.72618
6715.89116,0.73099
6713.96241,0.73405
6712.03367,0.73307
6710.10492,0.72930
6708.17618,0.72589
6706.24743,0.72495
6704.31869,0.72647
6702.38994,0.73006
6700.46120,0.73377
6698.53245,0.73381
6696.60371,0.73134
6694.67496,0.73104
6692.74622,0.73265
6690.81747,0.73325
6688.88873,0.73169
6686.95998,0.72943
6685.03123,0.72895
6683.10249,0.73077
6681.17374,0.73334
6679.24500,0.73315
6677.31625,0.73058
6675.38751,0.72994
6673.45876,0.73143
6671.53002,0.73364
6669.60127,0.73652
6667.67253,0.73883
6665.74378,0.73856
6663.81504,0.73559
6661.88629,0.73188
6659.95755,0.72964
6658.02880,0.72979
6656.10006,0.73040
6654.17131,0.73023
6652.24256,0.73072
6650.31382,0.73126
6648.38507,0.73014
6646.45633,0.72891
6644.52758,0.72950
6642.59884,0.73119
6640.67009,0.73296
6638.74135,0.73395
6636.81260,0.73300
6634.88386,0.73095
6632.95511,0.72982
6631.02637,0.73045
6629.09762,0.73225
6627.16888,0.73446
6625.24013,0.73581
6623.31139,0.73518
6621.38264,0.73455
6619.45389,0.73511
6617.52515,0.73505
6615.59640,0.73412
6613.66766,0.73306
6611.73891,0.73223
6609.81017,0.73217
6607.88142,0.73261
6605.95268,0.73410
6604.02393,0.73696
6602.09519,0.73877
6600.16644,0.73815
6598.23770,0.73673
6596.30895,0.73649
6594.38021,0.73722
6592.45146,0.73710
6590.52271,0.73557
6588.59397,0.73386
6586.66522,0.73346
6584.73648,0.73456
6582.80773,0.73591
6580.87899,0.73652
6578.95024,0.73673
6577.02150,0.73725
6575.09275,0.73724
6573.16401,0.73620
6571.23526,0.73614
6569.30652,0.73777
6567.37777,0.73929
6565.44903,0.73972
6563.52028,0.73933
6561.59154,0.73890
6559.66279,0.73836
6557.73404,0.73702
6555.80530,0.73590
6553.87655,0.73598
6551.94781,0.73702
6550.01906,0.73838
6548.09032,0.73876
6546.16157,0.73828
6544.23283,0.73836
6542.30408,0.73871
6540.37534,0.73779
6538.44659,0.73548
6536.51785,0.73376
6534.58910,0.73383
6532.66036,0.73413
6530.73161,0.73419
6528.80287,0.73603
6526.87412,0.73883
6524.94537,0.73921
6523.01663,0.73766
6521.08788,0.73729
6519.15914,0.73805
6517.23039,0.73719
6515.30165,0.73532
6513.37290,0.73600
6511.44416,0.73867
6509.51541,0.74014
6507.58667,0.73971
6505.65792,0.73795
6503.72918,0.73547
6501.80043,0.73407
6499.87169,0.73558
6497.94294,0.73800
6496.01419,0.73853
6494.08545,0.73894
6492.15670,0.73937
6490.22796,0.73715
6488.29921,0.73544
6486.37047,0.73783
6484.44172,0.74144
6482.51298,0.74353
6480.58423,0.74345
6478.65549,0.74111
6476.72674,0.73841
6474.79800,0.73697
6472.86925,0.73645
6470.94051,0.73628
6469.01176,0.73712
6467.08302,0.73845
6465.15427,0.73774
6463.22552,0.73630
6461.29678,0.73821
6459.36803,0.74198
6457.43929,0.74294
6455.51054,0.74116
6453.58180,0.73942
6451.65305,0.73826
6449.72431,0.73726
6447.79556,0.73626
6445.86682,0.73570
6443.93807,0.73620
6442.00933,0.73642
6440.08058,0.73586
6438.15184,0.73647
6436.22309,0.73825
6434.29434,0.73913
6432.36560,0.73818
6430.43685,0.73716
6428.50811,0.73820
6426.57936,0.73915
6424.65062,0.73742
6422.72187,0.73634
6420.79313,0.73820
6418.86438,0.73927
6416.93564,0.73875
6415.00689,0.73990
6413.07815,0.74174
6411.14940,0.74161
6409.22066,0.73986
6407.29191,0.73785
6405.36317,0.73708
6403.43442,0.73802
6401.50567,0.73951
6399.57693,0.74028
6397.64818,0.73998
6395.71944,0.73964
6393.79069,0.73998
6391.86195,0.74061
6389.93320,0.74102
6388.00446,0.74159
6386.07571,0.74292
6384.14697,0.74392
6382.21822,0.74370
6380.28948,0.74262
6378.36073,0.74032
6376.43199,0.73808
6374.50324,0.73861
6372.57450,0.74060
6370.64575,0.74067
6368.71700,0.73903
6366.78826,0.73808
6364.85951,0.73943
6362.93077,0.74184
6361.00202,0.74258
6359.07328,0.74192
6357.14453,0.74110
6355.21579,0.74021
6353.28704,0.73959
6351.35830,0.73917
6349.42955,0.73936
6347.50081,0.74095
6345.57206,0.74264
6343.64332,0.74345
6341.71457,0.74428
6339.78582,0.74351
6337.85708,0.73973
6335.92833,0.73673
6333.99959,0.73717
6332.07084,0.73929
6330.14210,0.74107
6328.21335,0.74252
6326.28461,0.74384
6324.35586,0.74361
6322.42712,0.74149
6320.49837,0.73951
6318.56963,0.73909
6316.64088,0.74009
6314.71214,0.74182
6312.78339,0.74331
6310.85465,0.74403
6308.92590,0.74481
6306.99715,0.74510
6305.06841,0.74371
6303.13966,0.74218
6301.21092,0.74193
6299.28217,0.74231
6297.35343,0.74252
6295.42468,0.74253
6293.49594,0.74275
6291.56719,0.74294
6289.63845,0.74280
6287.70970,0.74309
6285.78096,0.74391
6283.85221,0.74452
6281.92347,0.74457
6279.99472,0.74340
6278.06598,0.74143
6276.13723,0.74039
6274.20848,0.74067
6272.27974,0.74221
6270.35099,0.74437
6268.42225,0.74519
6266.49350,0.74479
6264.56476,0.74492
6262.63601,0.74561
6260.70727,0.74613
6258.77852,0.74627
6256.84978,0.74611
6254.92103,0.74611
6252.99229,0.74711
6251.06354,0.74831
6249.13480,0.74743
6247.20605,0.74526
6245.27730,0.74506
6243.34856,0.74665
6241.41981,0.74715
6239.49107,0.74642
6237.56232,0.74703
6235.63358,0.74958
6233.70483,0.75166
6231.77609,0.75130
6229.84734,0.74951
6227.91860,0.74871
6225.98985,0.74960
6224.06111,0.75029
6222.13236,0.74953
6220.20362,0.74834
6218.27487,0.74753
6216.34613,0.74703
6214.41738,0.74696
6212.48863,0.74794
6210.55989,0.75003
6208.63114,0.75137
6206.70240,0.75067
6204.77365,0.74900
6202.84491,0.74789
6200.91616,0.74814
6198.98742,0.74936
6197.05867,0.74977
6195.12993,0.74869
6193.20118,0.74860
6191.27244,0.75038
6189.34369,0.75124
6187.41495,0.75067
6185.48620,0.75027
6183.55746,0.75057
6181.62871,0.75224
6179.69996,0.75415
6177.77122,0.75357
6175.84247,0.75109
6173.91373,0.74946
6171.98498,0.74989
6170.05624,0.75181
6168.12749,0.75292
6166.19875,0.75181
6164.27000,0.75068
6162.34126,0.75196
6160.41251,0.75422
6158.48377,0.75523
6156.55502,0.75605
6154.62628,0.75720
6152.69753,0.75683
6150.76878,0.75539
6148.84004,0.75470
6146.91129,0.75465
6144.98255,0.75514
6143.05380,0.75591
6141.12506,0.75589
6139.19631,0.75548
6137.26757,0.75589
6135.33882,0.75652
6133.41008,0.75580
6131.48133,0.75404
6129.55259,0.75279
6127.62384,0.75266
6125.69510,0.75307
6123.76635,0.75327
6121.83761,0.75399
6119.90886,0.75576
6117.98011,0.75726
6116.05137,0.75778
6114.12262,0.75783
6112.19388,0.75796
6110.26513,0.75756
6108.33639,0.75591
6106.40764,0.75472
6104.47890,0.75543
6102.55015,0.75628
6100.62141,0.75556
6098.69266,0.75496
6096.76392,0.75622
6094.83517,0.75785
6092.90643,0.75809
6090.97768,0.75714
6089.04893,0.75611
6087.12019,0.75590
6085.19144,0.75667
6083.26270,0.75777
6081.33395,0.75822
6079.40521,0.75789
6077.47646,0.75762
6075.54772,0.75784
6073.61897,0.75778
6071.69023,0.75713
6069.76148,0.75679
6067.83274,0.75685
6065.90399,0.75672
6063.97525,0.75649
6062.04650,0.75682
6060.11776,0.75772
6058.18901,0.75797
6056.26026,0.75694
6054.33152,0.75591
6052.40277,0.75602
6050.47403,0.75634
6048.54528,0.75592
6046.61654,0.75515
6044.68779,0.75492
6042.75905,0.75532
6040.83030,0.75551
6038.90156,0.75516
6036.97281,0.75458
6035.04407,0.75371
6033.11532,0.75303
6031.18658,0.75312
6029.25783,0.75260
6027.32909,0.75114
6025.40034,0.75045
6023.47159,0.75026
6021.54285,0.74958
6019.61410,0.74865
6017.68536,0.74835
6015.75661,0.74913
6013.82787,0.74946
6011.89912,0.74811
6009.97038,0.74634
6008.04163,0.74583
6006.11289,0.74606
6004.18414,0.74535
6002.25540,0.74435
6000.32665,0.74413
5998.39791,0.74367
5996.46916,0.74249
5994.54041,0.74178
5992.61167,0.74185
5990.68292,0.74133
5988.75418,0.73992
5986.82543,0.73910
5984.89669,0.73915
5982.96794,0.73897
5981.03920,0.73880
5979.11045,0.73900
5977.18171,0.73850
5975.25296,0.73763
5973.32422,0.73783
5971.39547,0.73883
5969.46673,0.73925
5967.53798,0.73848
5965.60924,0.73742
5963.68049,0.73689
5961.75174,0.73662
5959.82300,0.73616
5957.89425,0.73554
5955.96551,0.73527
5954.03676,0.73573
5952.10802,0.73677
5950.17927,0.73739
5948.25053,0.73675
5946.32178,0.73642
5944.39304,0.73782
5942.46429,0.73915
5940.53555,0.73878
5938.60680,0.73804
5936.67806,0.73844
5934.74931,0.73865
5932.82057,0.73703
5930.89182,0.73531
5928.96307,0.73545
5927.03433,0.73636
5925.10558,0.73604
5923.17684,0.73514
5921.24809,0.73527
5919.31935,0.73570
5917.39060,0.73622
5915.46186,0.73731
5913.53311,0.73784
5911.60437,0.73736
5909.67562,0.73635
5907.74688,0.73535
5905.81813,0.73503
5903.88939,0.73489
5901.96064,0.73425
5900.03189,0.73390
5898.10315,0.73430
5896.17440,0.73500
5894.24566,0.73553
5892.31691,0.73480
5890.38817,0.73311
5888.45942,0.73246
5886.53068,0.73295
5884.60193,0.73311
5882.67319,0.73264
5880.74444,0.73242
5878.81570,0.73225
5876.88695,0.73107
5874.95821,0.73029
5873.02946,0.73177
5871.10072,0.73356
5869.17197,0.73398
5867.24322,0.73395
5865.31448,0.73351
5863.38573,0.73304
5861.45699,0.73358
5859.52824,0.73412
5857.59950,0.73349
5855.67075,0.73264
5853.74201,0.73258
5851.81326,0.73296
5849.88452,0.73289
5847.95577,0.73223
5846.02703,0.73186
5844.09828,0.73227
5842.16954,0.73298
5840.24079,0.73366
5838.31205,0.73414
5836.38330,0.73381
5834.45455,0.73198
5832.52581,0.72950
5830.59706,0.72846
5828.66832,0.72914
5826.73957,0.73032
5824.81083,0.73139
5822.88208,0.73171
5820.95334,0.73113
5819.02459,0.73073
5817.09585,0.73097
5815.16710,0.73078
5813.23836,0.72968
5811.30961,0.72886
5809.38087,0.72883
5807.45212,0.72899
5805.52337,0.72938
5803.59463,0.73017
5801.66588,0.73100
5799.73714,0.73168
5797.80839,0.73199
5795.87965,0.73132
5793.95090,0.72991
5792.02216,0.72917
5790.09341,0.73003
5788.16467,0.73196
5786.23592,0.73339
5784.30718,0.73376
5782.37843,0.73374
5780.44969,0.73314
5778.52094,0.73212
5776.59220,0.73167
5774.66345,0.73176
5772.73470,0.73266
5770.80596,0.73423
5768.87721,0.73440
5766.94847,0.73314
5765.01972,0.73243
5763.09098,0.73269
5761.16223,0.73344
5759.23349,0.73390
5757.30474,0.73353
5755.37600,0.73315
5753.44725,0.73363
5751.51851,0.73445
5749.58976,0.73475
5747.66102,0.73472
5745.73227,0.73475
5743.80352,0.73412
5741.87478,0.73264
5739.94603,0.73185
5738.01729,0.73238
5736.08854,0.73286
5734.15980,0.73269
5732.23105,0.73246
5730.30231,0.73243
5728.37356,0.73203
5726.44482,0.73105
5724.51607,0.73090
5722.58733,0.73188
5720.65858,0.73221
5718.72984,0.73186
5716.80109,0.73213
5714.87235,0.73265
5712.94360,0.73250
5711.01485,0.73208
5709.08611,0.73170
5707.15736,0.73144
5705.22862,0.73166
5703.29987,0.73217
5701.37113,0.73263
5699.44238,0.73288
5697.51364,0.73288
5695.58489,0.73277
5693.65615,0.73241
5691.72740,0.73202
5689.79866,0.73218
5687.86991,0.73260
5685.94117,0.73259
5684.01242,0.73178
5682.08368,0.73062
5680.15493,0.73036
5678.22618,0.73083
5676.29744,0.73068
5674.36869,0.73026
5672.43995,0.73050
5670.51120,0.73103
5668.58246,0.73156
5666.65371,0.73220
5664.72497,0.73255
5662.79622,0.73268
5660.86748,0.73307
5658.93873,0.73294
5657.00999,0.73164
5655.08124,0.73035
5653.15250,0.73038
5651.22375,0.73146
5649.29500,0.73260
5647.36626,0.73342
5645.43751,0.73380
5643.50877,0.73351
5641.58002,0.73270
5639.65128,0.73201
5637.72253,0.73182
5635.79379,0.73176
5633.86504,0.73187
5631.93630,0.73213
5630.00755,0.73196
5628.07881,0.73161
5626.15006,0.73172
5624.22132,0.73193
5622.29257,0.73155
5620.36383,0.73111
5618.43508,0.73122
5616.50633,0.73126
5614.57759,0.73163
5612.64884,0.73306
5610.72010,0.73383
5608.79135,0.73307
5606.86261,0.73265
5604.93386,0.73294
5603.00512,0.73252
5601.07637,0.73121
5599.14763,0.73033
5597.21888,0.73103
5595.29014,0.73231
5593.36139,0.73266
5591.43265,0.73238
5589.50390,0.73183
5587.57516,0.73142
5585.64641,0.73225
5583.71766,0.73359
5581.78892,0.73349
5579.86017,0.73217
5577.93143,0.73156
5576.00268,0.73206
5574.07394,0.73250
5572.14519,0.73261
5570.21645,0.73275
5568.28770,0.73259
5566.35896,0.73203
5564.43021,0.73203
5562.50147,0.73287
5560.57272,0.73337
5558.64398,0.73318
5556.71523,0.73328
5554.78648,0.73371
5552.85774,0.73360
5550.92899,0.73295
5549.00025,0.73270
5547.07150,0.73318
5545.14276,0.73356
5543.21401,0.73350
5541.28527,0.73378
5539.35652,0.73437
5537.42778,0.73447
5535.49903,0.73412
5533.57029,0.73368
5531.64154,0.73308
5529.71280,0.73242
5527.78405,0.73249
5525.85531,0.73327
5523.92656,0.73334
5521.99781,0.73292
5520.06907,0.73330
5518.14032,0.73394
5516.21158,0.73412
5514.28283,0.73411
5512.35409,0.73370
5510.42534,0.73253
5508.49660,0.73145
5506.56785,0.73169
5504.63911,0.73281
5502.71036,0.73380
5500.78162,0.73459
5498.85287,0.73497
5496.92413,0.73500
5494.99538,0.73520
5493.06664,0.73516
5491.13789,0.73504
5489.20914,0.73555
5487.28040,0.73621
5485.35165,0.73637
5483.42291,0.73561
5481.49416,0.73450
5479.56542,0.73441
5477.63667,0.73508
5475.70793,0.73550
5473.77918,0.73547
5471.85044,0.73515
5469.92169,0.73493
5467.99295,0.73528
5466.06420,0.73568
5464.13546,0.73498
5462.20671,0.73379
5460.27796,0.73350
5458.34922,0.73393
5456.42047,0.73461
5454.49173,0.73568
5452.56298,0.73662
5450.63424,0.73679
5448.70549,0.73643
5446.77675,0.73607
5444.84800,0.73604
5442.91926,0.73625
5440.99051,0.73674
5439.06177,0.73749
5437.13302,0.73772
5435.20428,0.73755
5433.27553,0.73779
5431.34679,0.73800
5429.41804,0.73794
5427.48929,0.73816
5425.56055,0.73828
5423.63180,0.73813
5421.70306,0.73822
5419.77431,0.73841
5417.84557,0.73833
5415.91682,0.73825
5413.98808,0.73857
5412.05933,0.73897
5410.13059,0.73905
5408.20184,0.73932
5406.27310,0.74024
5404.34435,0.74095
5402.41561,0.74082
5400.48686,0.74044
5398.55811,0.74040
5396.62937,0.74089
5394.70062,0.74171
5392.77188,0.74212
5390.84313,0.74165
5388.91439,0.74047
5386.98564,0.73928
5385.05690,0.73883
5383.12815,0.73872
5381.19941,0.73854
5379.27066,0.73887
5377.34192,0.73970
5375.41317,0.74033
5373.48443,0.74032
5371.55568,0.73981
5369.62694,0.73968
5367.69819,0.74009
5365.76944,0.74022
5363.84070,0.73998
5361.91195,0.73986
5359.98321,0.73976
5358.05446,0.73931
5356.12572,0.73903
5354.19697,0.73935
5352.26823,0.73962
5350.33948,0.73946
5348.41074,0.73916
5346.48199,0.73837
5344.55325,0.73723
5342.62450,0.73695
5340.69576,0.73752
5338.76701,0.73736
5336.83827,0.73580
5334.90952,0.73453
5332.98077,0.73463
5331.05203,0.73434
5329.12328,0.73270
5327.19454,0.73107
5325.26579,0.73021
5323.33705,0.72986
5321.40830,0.72975
5319.47956,0.72967
5317.55081,0.72961
5315.62207,0.72930
5313.69332,0.72838
5311.76458,0.72696
5309.83583,0.72524
5307.90709,0.72341
5305.97834,0.72197
5304.04959,0.72102
5302.12085,0.71983
5300.19210,0.71812
5298.26336,0.71670
5296.33461,0.71588
5294.40587,0.71489
5292.47712,0.71314
5290.54838,0.71077
5288.61963,0.70863
5286.69089,0.70709
5284.76214,0.70561
5282.83340,0.70395
5280.90465,0.70201
5278.97591,0.69999
5277.04716,0.69858
5275.11842,0.69710
5273.18967,0.69410
5271.26092,0.69063
5269.33218,0.68859
5267.40343,0.68744
5265.47469,0.68590
5263.54594,0.68394
5261.61720,0.68194
5259.68845,0.68001
5257.75971,0.67805
5255.83096,0.67596
5253.90222,0.67382
5251.97347,0.67203
5250.04473,0.67046
5248.11598,0.66877
5246.18724,0.66742
5244.25849,0.66630
5242.32975,0.66469
5240.40100,0.66291
5238.47225,0.66147
5236.54351,0.66027
5234.61476,0.65882
5232.68602,0.65687
5230.75727,0.65531
5228.82853,0.65474
5226.89978,0.65390
5224.97104,0.65234
5223.04229,0.65137
5221.11355,0.65121
5219.18480,0.65121
5217.25606,0.65108
5215.32731,0.65042
5213.39857,0.64933
5211.46982,0.64855
5209.54107,0.64824
5207.61233,0.64800
5205.68358,0.64782
5203.75484,0.64780
5201.82609,0.64757
5199.89735,0.64689
5197.96860,0.64615
5196.03986,0.64594
5194.11111,0.64644
5192.18237,0.64739
5190.25362,0.64800
5188.32488,0.64788
5186.39613,0.64776
5184.46739,0.64794
5182.53864,0.64786
5180.60990,0.64742
5178.68115,0.64713
5176.75240,0.64741
5174.82366,0.64786
5172.89491,0.64791
5170.96617,0.64794
5169.03742,0.64866
5167.10868,0.64979
5165.17993,0.65035
5163.25119,0.64990
5161.32244,0.64930
5159.39370,0.64927
5157.46495,0.64935
5155.53621,0.64915
5153.60746,0.64908
5151.67872,0.64941
5149.74997,0.64996
5147.82123,0.65082
5145.89248,0.65196
5143.96373,0.65278
5142.03499,0.65309
5140.10624,0.65331
5138.17750,0.65352
5136.24875,0.65366
5134.32001,0.65414
5132.39126,0.65530
5130.46252,0.65651
5128.53377,0.65700
5126.60503,0.65717
5124.67628,0.65773
5122.74754,0.65865
5120.81879,0.65979
5118.89005,0.66105
5116.96130,0.66156
5115.03255,0.66109
5113.10381,0.66091
5111.17506,0.66149
5109.24632,0.66222
5107.31757,0.66272
5105.38883,0.66331
5103.46008,0.66404
5101.53134,0.66416
5099.60259,0.66387
5097.67385,0.66396
5095.74510,0.66423
5093.81636,0.66456
5091.88761,0.66480
5089.95887,0.66456
5088.03012,0.66443
5086.10138,0.66508
5084.17263,0.66626
5082.24388,0.66709
5080.31514,0.66731
5078.38639,0.66776
5076.45765,0.66873
5074.52890,0.66958
5072.60016,0.67022
5070.67141,0.67052
5068.74267,0.67005
5066.81392,0.66945
5064.88518,0.66968
5062.95643,0.67053
5061.02769,0.67128
5059.09894,0.67183
5057.17020,0.67238
5055.24145,0.67284
5053.31270,0.67321
5051.38396,0.67369
5049.45521,0.67426
5047.52647,0.67492
5045.59772,0.67558
5043.66898,0.67613
5041.74023,0.67669
5039.81149,0.67693
5037.88274,0.67648
5035.95400,0.67574
5034.02525,0.67522
5032.09651,0.67519
5030.16776,0.67567
5028.23902,0.67657
5026.31027,0.67769
5024.38153,0.67862
5022.45278,0.67913
5020.52403,0.67932
5018.59529,0.67894
5016.66654,0.67804
5014.73780,0.67759
5012.80905,0.67780
5010.88031,0.67841
5008.95156,0.67959
5007.02282,0.68081
5005.09407,0.68130
5003.16533,0.68130
5001.23658,0.68114
4999.30784,0.68088
4997.37909,0.68077
4995.45035,0.68084
4993.52160,0.68087
4991.59286,0.68083
4989.66411,0.68078
4987.73536,0.68063
4985.80662,0.68038
4983.87787,0.68024
4981.94913,0.68034
4980.02038,0.68030
4978.09164,0.67992
4976.16289,0.67952
4974.23415,0.67899
4972.30540,0.67837
4970.37666,0.67829
4968.44791,0.67844
4966.51917,0.67803
4964.59042,0.67723
4962.66168,0.67639
4960.73293,0.67584
4958.80418,0.67586
4956.87544,0.67578
4954.94669,0.67510
4953.01795,0.67413
4951.08920,0.67334
4949.16046,0.67297
4947.23171,0.67247
4945.30297,0.67161
4943.37422,0.67119
4941.44548,0.67110
4939.51673,0.67041
4937.58799,0.66938
4935.65924,0.66865
4933.73050,0.66800
4931.80175,0.66701
4929.87301,0.66566
4927.94426,0.66428
4926.01551,0.66359
4924.08677,0.66376
4922.15802,0.66396
4920.22928,0.66357
4918.30053,0.66278
4916.37179,0.66207
4914.44304,0.66127
4912.51430,0.65989
4910.58555,0.65862
4908.65681,0.65806
4906.72806,0.65727
4904.79932,0.65575
4902.87057,0.65438
4900.94183,0.65350
4899.01308,0.65288
4897.08434,0.65213
4895.15559,0.65091
4893.22684,0.64973
4891.29810,0.64894
4889.36935,0.64802
4887.44061,0.64699
4885.51186,0.64643
4883.58312,0.64617
4881.65437,0.64576
4879.72563,0.64524
4877.79688,0.64427
4875.86814,0.64284
4873.93939,0.64161
4872.01065,0.64070
4870.08190,0.63993
4868.15316,0.63920
4866.22441,0.63869
4864.29566,0.63863
4862.36692,0.63828
4860.43817,0.63705
4858.50943,0.63607
4856.58068,0.63601
4854.65194,0.63571
4852.72319,0.63446
4850.79445,0.63287
4848.86570,0.63166
4846.93696,0.63114
4845.00821,0.63094
4843.07947,0.63058
4841.15072,0.63016
4839.22198,0.62994
4837.29323,0.62963
4835.36449,0.62886
4833.43574,0.62782
4831.50699,0.62672
4829.57825,0.62565
4827.64950,0.62500
4825.72076,0.62481
4823.79201,0.62459
4821.86327,0.62406
4819.93452,0.62337
4818.00578,0.62257
4816.07703,0.62204
4814.14829,0.62216
4812.21954,0.62238
4810.29080,0.62201
4808.36205,0.62100
4806.43331,0.61977
4804.50456,0.61892
4802.57582,0.61860
4800.64707,0.61829
4798.71832,0.61771
4796.78958,0.61748
4794.86083,0.61802
4792.93209,0.61872
4791.00334,0.61862
4789.07460,0.61756
4787.14585,0.61648
4785.21711,0.61623
4783.28836,0.61639
4781.35962,0.61631
4779.43087,0.61609
4777.50213,0.61593
4775.57338,0.61582
4773.64464,0.61569
4771.71589,0.61560
4769.78714,0.61551
4767.85840,0.61520
4765.92965,0.61471
4764.00091,0.61429
4762.07216,0.61412
4760.14342,0.61412
4758.21467,0.61388
4756.28593,0.61327
4754.35718,0.61261
4752.42844,0.61210
4750.49969,0.61181
4748.57095,0.61193
4746.64220,0.61262
4744.71346,0.61352
4742.78471,0.61398
4740.85597,0.61387
4738.92722,0.61340
4736.99847,0.61283
4735.06973,0.61272
4733.14098,0.61281
4731.21224,0.61254
4729.28349,0.61240
4727.35475,0.61268
4725.42600,0.61289
4723.49726,0.61283
4721.56851,0.61265
4719.63977,0.61243
4717.71102,0.61224
4715.78228,0.61204
4713.85353,0.61160
4711.92479,0.61104
4709.99604,0.61062
4708.06729,0.61047
4706.13855,0.61066
4704.20980,0.61084
4702.28106,0.61069
4700.35231,0.61039
4698.42357,0.61001
4696.49482,0.60987
4694.56608,0.61015
4692.63733,0.61004
4690.70859,0.60922
4688.77984,0.60840
4686.85110,0.60807
4684.92235,0.60821
4682.99361,0.60821
4681.06486,0.60769
4679.13612,0.60705
4677.20737,0.60629
4675.27862,0.60529
4673.34988,0.60439
4671.42113,0.60367
4669.49239,0.60313
4667.56364,0.60295
4665.63490,0.60299
4663.70615,0.60290
4661.77741,0.60259
4659.84866,0.60255
4657.91992,0.60300
4655.99117,0.60336
4654.06243,0.60363
4652.13368,0.60417
4650.20494,0.60459
4648.27619,0.60433
4646.34745,0.60353
4644.41870,0.60283
4642.48995,0.60257
4640.56121,0.60248
4638.63246,0.60217
4636.70372,0.60157
4634.77497,0.60100
4632.84623,0.60061
4630.91748,0.60011
4628.98874,0.59945
4627.05999,0.59887
4625.13125,0.59830
4623.20250,0.59789
4621.27376,0.59812
4619.34501,0.59853
4617.41627,0.59852
4615.48752,0.59841
4613.55877,0.59848
4611.63003,0.59911
4609.70128,0.60040
4607.77254,0.60145
4605.84379,0.60197
4603.91505,0.60269
4601.98630,0.60382
4600.05756,0.60507
4598.12881,0.60634
4596.20007,0.60748
4594.27132,0.60830
4592.34258,0.60896
4590.41383,0.60944
4588.48509,0.60960
4586.55634,0.60984
4584.62760,0.61050
4582.69885,0.61086
4580.77010,0.61020
4578.84136,0.60912
4576.91261,0.60843
4574.98387,0.60836
4573.05512,0.60882
4571.12638,0.60918
4569.19763,0.60885
4567.26889,0.60836
4565.34014,0.60847
4563.41140,0.60903
4561.48265,0.60964
4559.55391,0.61007
4557.62516,0.60996
4555.69642,0.60974
4553.76767,0.61000
4551.83893,0.61027
4549.91018,0.61033
4547.98143,0.61044
4546.05269,0.61021
4544.12394,0.60930
4542.19520,0.60791
4540.26645,0.60621
4538.33771,0.60426
4536.40896,0.60217
4534.48022,0.59970
4532.55147,0.59662
4530.62273,0.59348
4528.69398,0.59150
4526.76524,0.59176
4524.83649,0.59425
4522.90775,0.59805
4520.97900,0.60217
4519.05025,0.60626
4517.12151,0.61017
4515.19276,0.61325
4513.26402,0.61520
4511.33527,0.61658
4509.40653,0.61781
4507.47778,0.61877
4505.54904,0.61940
4503.62029,0.61989
4501.69155,0.62029
4499.76280,0.62053
4497.83406,0.62062
4495.90531,0.62064
4493.97657,0.62046
4492.04782,0.61981
4490.11908,0.61892
4488.19033,0.61817
4486.26158,0.61751
4484.33284,0.61683
4482.40409,0.61620
4480.47535,0.61547
4478.54660,0.61445
4476.61786,0.61334
4474.68911,0.61220
4472.76037,0.61070
4470.83162,0.60882
4468.90288,0.60700
4466.97413,0.60532
4465.04539,0.60359
4463.11664,0.60184
4461.18790,0.60016
4459.25915,0.59847
4457.33041,0.59673
4455.40166,0.59502
4453.47291,0.59347
4451.54417,0.59181
4449.61542,0.58980
4447.68668,0.58766
4445.75793,0.58556
4443.82919,0.58348
4441.90044,0.58156
4439.97170,0.57992
4438.04295,0.57835
4436.11421,0.57685
4434.18546,0.57527
4432.25672,0.57339
4430.32797,0.57133
4428.39923,0.56920
4426.47048,0.56716
4424.54173,0.56523
4422.61299,0.56330
4420.68424,0.56162
4418.75550,0.56003
4416.82675,0.55812
4414.89801,0.55620
4412.96926,0.55465
4411.04052,0.55350
4409.11177,0.55267
4407.18303,0.55181
4405.25428,0.55070
4403.32554,0.54943
4401.39679,0.54820
4399.46805,0.54722
4397.53930,0.54650
4395.61056,0.54602
4393.68181,0.54565
4391.75306,0.54505
4389.82432,0.54426
4387.89557,0.54387
4385.96683,0.54382
4384.03808,0.54357
4382.10934,0.54297
4380.18059,0.54222
4378.25185,0.54162
4376.32310,0.54141
4374.39436,0.54145
4372.46561,0.54126
4370.53687,0.54076
4368.60812,0.54027
4366.67938,0.53975
4364.75063,0.53895
4362.82189,0.53827
4360.89314,0.53811
4358.96439,0.53791
4357.03565,0.53706
4355.10690,0.53576
4353.17816,0.53464
4351.24941,0.53404
4349.32067,0.53378
4347.39192,0.53346
4345.46318,0.53283
4343.53443,0.53208
4341.60569,0.53132
4339.67694,0.53053
4337.74820,0.52983
4335.81945,0.52928
4333.89071,0.52884
4331.96196,0.52864
4330.03321,0.52883
4328.10447,0.52936
4326.17572,0.52989
4324.24698,0.53005
4322.31823,0.52979
4320.38949,0.52933
4318.46074,0.52903
4316.53200,0.52912
4314.60325,0.52924
4312.67451,0.52885
4310.74576,0.52802
4308.81702,0.52715
4306.88827,0.52629
4304.95953,0.52546
4303.03078,0.52469
4301.10204,0.52390
4299.17329,0.52334
4297.24454,0.52292
4295.31580,0.52224
4293.38705,0.52141
4291.45831,0.52066
4289.52956,0.51996
4287.60082,0.51923
4285.67207,0.51857
4283.74333,0.51807
4281.81458,0.51763
4279.88584,0.51719
4277.95709,0.51687
4276.02835,0.51647
4274.09960,0.51577
4272.17086,0.51494
4270.24211,0.51431
4268.31336,0.51398
4266.38462,0.51402
4264.45587,0.51419
4262.52713,0.51422
4260.59838,0.51432
4258.66964,0.51451
4256.74089,0.51468
4254.81215,0.51514
4252.88340,0.51585
4250.95466,0.51625
4249.02591,0.51625
4247.09717,0.51630
4245.16842,0.51683
4243.23968,0.51777
4241.31093,0.51876
4239.38219,0.51964
4237.45344,0.52043
4235.52469,0.52096
4233.59595,0.52123
4231.66720,0.52153
4229.73846,0.52197
4227.80971,0.52250
4225.88097,0.52305
4223.95222,0.52341
4222.02348,0.52358
4220.09473,0.52363
4218.16599,0.52345
4216.23724,0.52310
4214.30850,0.52274
4212.37975,0.52250
4210.45101,0.52262
4208.52226,0.52290
4206.59352,0.52285
4204.66477,0.52253
4202.73602,0.52238
4200.80728,0.52248
4198.87853,0.52247
4196.94979,0.52226
4195.02104,0.52199
4193.09230,0.52187
4191.16355,0.52206
4189.23481,0.52245
4187.30606,0.52296
4185.37732,0.52361
4183.44857,0.52427
4181.51983,0.52463
4179.59108,0.52461
4177.66234,0.52475
4175.73359,0.52532
4173.80484,0.52613
4171.87610,0.52705
4169.94735,0.52768
4168.01861,0.52783
4166.08986,0.52781
4164.16112,0.52780
4162.23237,0.52795
4160.30363,0.52829
4158.37488,0.52840
4156.44614,0.52810
4154.51739,0.52761
4152.58865,0.52721
4150.65990,0.52690
4148.73116,0.52650
4146.80241,0.52617
4144.87367,0.52609
4142.94492,0.52592
4141.01617,0.52543
4139.08743,0.52466
4137.15868,0.52364
4135.22994,0.52244
4133.30119,0.52123
4131.37245,0.52009
4129.44370,0.51897
4127.51496,0.51781
4125.58621,0.51652
4123.65747,0.51515
4121.72872,0.51391
4119.79998,0.51287
4117.87123,0.51171
4115.94249,0.51018
4114.01374,0.50847
4112.08500,0.50680
4110.15625,0.50522
4108.22750,0.50391
4106.29876,0.50290
4104.37001,0.50190
4102.44127,0.50061
4100.51252,0.49922
4098.58378,0.49798
4096.65503,0.49674
4094.72629,0.49529
4092.79754,0.49370
4090.86880,0.49217
4088.94005,0.49069
4087.01131,0.48928
4085.08256,0.48786
4083.15382,0.48623
4081.22507,0.48460
4079.29632,0.48305
4077.36758,0.48120
4075.43883,0.47914
4073.51009,0.47736
4071.58134,0.47579
4069.65260,0.47389
4067.72385,0.47183
4065.79511,0.47022
4063.86636,0.46886
4061.93762,0.46727
4060.00887,0.46562
4058.08013,0.46430
4056.15138,0.46317
4054.22264,0.46196
4052.29389,0.46085
4050.36515,0.46013
4048.43640,0.45945
4046.50765,0.45835
4044.57891,0.45710
4042.65016,0.45606
4040.72142,0.45513
4038.79267,0.45426
4036.86393,0.45379
4034.93518,0.45371
4033.00644,0.45350
4031.07769,0.45312
4029.14895,0.45290
4027.22020,0.45302
4025.29146,0.45326
4023.36271,0.45325
4021.43397,0.45307
4019.50522,0.45311
4017.57648,0.45324
4015.64773,0.45327
4013.71898,0.45360
4011.79024,0.45416
4009.86149,0.45437
4007.93275,0.45418
4006.00400,0.45403
4004.07526,0.45416
4002.14651,0.45434
4000.21777,0.45432
3998.28902,0.45434
3996.36028,0.45460
3994.43153,0.45487
3992.50279,0.45494
3990.57404,0.45483
3988.64530,0.45487
3986.71655,0.45526
3984.78780,0.45579
3982.85906,0.45603
3980.93031,0.45587
3979.00157,0.45568
3977.07282,0.45569
3975.14408,0.45578
3973.21533,0.45593
3971.28659,0.45594
3969.35784,0.45569
3967.42910,0.45557
3965.50035,0.45578
3963.57161,0.45592
3961.64286,0.45581
3959.71412,0.45564
3957.78537,0.45560
3955.85663,0.45562
3953.92788,0.45549
3951.99913,0.45534
3950.07039,0.45528
3948.14164,0.45530
3946.21290,0.45547
3944.28415,0.45574
3942.35541,0.45595
3940.42666,0.45602
3938.49792,0.45630
3936.56917,0.45718
3934.64043,0.45837
3932.71168,0.45943
3930.78294,0.46015
3928.85419,0.46050
3926.92545,0.46113
3924.99670,0.46253
3923.06795,0.46412
3921.13921,0.46546
3919.21046,0.46690
3917.28172,0.46833
3915.35297,0.46927
3913.42423,0.46999
3911.49548,0.47070
3909.56674,0.47132
3907.63799,0.47189
3905.70925,0.47239
3903.78050,0.47291
3901.85176,0.47354
3899.92301,0.47392
3897.99427,0.47399
3896.06552,0.47420
3894.13678,0.47462
3892.20803,0.47502
3890.27928,0.47534
3888.35054,0.47557
3886.42179,0.47557
3884.49305,0.47538
3882.56430,0.47554
3880.63556,0.47605
3878.70681,0.47630
3876.77807,0.47623
3874.84932,0.47630
3872.92058,0.47652
3870.99183,0.47673
3869.06309,0.47698
3867.13434,0.47735
3865.20560,0.47793
3863.27685,0.47858
3861.34811,0.47890
3859.41936,0.47881
3857.49061,0.47856
3855.56187,0.47839
3853.63312,0.47842
3851.70438,0.47865
3849.77563,0.47888
3847.84689,0.47885
3845.91814,0.47868
3843.98940,0.47881
3842.06065,0.47920
3840.13191,0.47943
3838.20316,0.47959
3836.27442,0.47994
3834.34567,0.47993
3832.41693,0.47928
3830.48818,0.47863
3828.55943,0.47853
3826.63069,0.47874
3824.70194,0.47882
3822.77320,0.47873
3820.84445,0.47837
3818.91571,0.47756
3816.98696,0.47665
3815.05822,0.47627
3813.12947,0.47632
3811.20073,0.47620
3809.27198,0.47570
3807.34324,0.47501
3805.41449,0.47426
3803.48575,0.47339
3801.55700,0.47249
3799.62826,0.47178
3797.69951,0.47111
3795.77076,0.47018
3793.84202,0.46910
3791.91327,0.46804
3789.98453,0.46700
3788.05578,0.46588
3786.12704,0.46472
3784.19829,0.46368
3782.26955,0.46263
3780.34080,0.46135
3778.41206,0.45985
3776.48331,0.45816
3774.55457,0.45631
3772.62582,0.45457
3770.69708,0.45288
3768.76833,0.45096
3766.83959,0.44907
3764.91084,0.44754
3762.98209,0.44603
3761.05335,0.44384
3759.12460,0.44060
3757.19586,0.43722
3755.26711,0.43440
3753.33837,0.43172
3751.40962,0.42849
3749.48088,0.42452
3747.55213,0.42048
3745.62339,0.41597
3743.69464,0.41056
3741.76590,0.40555
3739.83715,0.40099
3737.90841,0.39555
3735.97966,0.38858
3734.05091,0.38071
3732.12217,0.37270
3730.19342,0.36456
3728.26468,0.35550
3726.33593,0.34459
3724.40719,0.33223
3722.47844,0.31878
3720.54970,0.30364
3718.62095,0.28682
3716.69221,0.26895
3714.76346,0.25062
3712.83472,0.23138
3710.90597,0.21184
3708.97723,0.19388
3707.04848,0.17717
3705.11974,0.16086
3703.19099,0.14456
3701.26224,0.12876
3699.33350,0.11527
3697.40475,0.10533
3695.47601,0.09877
3693.54726,0.09525
3691.61852,0.09452
3689.68977,0.09622
3687.76103,0.10009
3685.83228,0.10474
3683.90354,0.10932
3681.97479,0.11359
3680.04605,0.11664
3678.11730,0.11715
3676.18856,0.11492
3674.25981,0.11235
3672.33107,0.11098
3670.40232,0.11016
3668.47357,0.10995
3666.54483,0.11078
3664.61608,0.11215
3662.68734,0.11293
3660.75859,0.11219
3658.82985,0.10978
3656.90110,0.10612
3654.97236,0.10212
3653.04361,0.09939
3651.11487,0.09886
3649.18612,0.10076
3647.25738,0.10432
3645.32863,0.10794
3643.39989,0.11103
3641.47114,0.11352
3639.54239,0.11515
3637.61365,0.11578
3635.68490,0.11545
3633.75616,0.11425
3631.82741,0.11215
3629.89867,0.10847
3627.96992,0.10285
3626.04118,0.09671
3624.11243,0.09063
3622.18369,0.08538
3620.25494,0.08391
3618.32620,0.08853
3616.39745,0.09700
3614.46871,0.10537
3612.53996,0.11204
3610.61122,0.11684
3608.68247,0.12006
3606.75372,0.12218
3604.82498,0.12361
3602.89623,0.12436
3600.96749,0.12455
3599.03874,0.12487
3597.11000,0.12540
3595.18125,0.12557
3593.25251,0.12528
3591.32376,0.12468
3589.39502,0.12396
3587.46627,0.12348
3585.53753,0.12345
3583.60878,0.12355
3581.68004,0.12340
3579.75129,0.12308
3577.82254,0.12261
3575.89380,0.12200
3573.96505,0.12152
3572.03631,0.12139
3570.10756,0.12132
3568.17882,0.12092
3566.25007,0.12041
3564.32133,0.12023
3562.39258,0.12017
3560.46384,0.11977
3558.53509,0.11936
3556.60635,0.11937
3554.67760,0.11946
3552.74886,0.11923
3550.82011,0.11891
3548.89137,0.11876
3546.96262,0.11861
3545.03387,0.11834
3543.10513,0.11816
3541.17638,0.11814
3539.24764,0.11810
3537.31889,0.11799
3535.39015,0.11805
3533.46140,0.11831
3531.53266,0.11844
3529.60391,0.11804
3527.67517,0.11732
3525.74642,0.11680
3523.81768,0.11644
3521.88893,0.11590
3519.96019,0.11520
3518.03144,0.11463
3516.10270,0.11435
3514.17395,0.11423
3512.24520,0.11407
3510.31646,0.11385
3508.38771,0.11361
3506.45897,0.11339
3504.53022,0.11319
3502.60148,0.11312
3500.67273,0.11318
3498.74399,0.11294
3496.81524,0.11218
3494.88650,0.11131
3492.95775,0.11068
3491.02901,0.11021
3489.10026,0.10965
3487.17152,0.10897
3485.24277,0.10834
3483.31402,0.10779
3481.38528,0.10724
3479.45653,0.10688
3477.52779,0.10681
3475.59904,0.10675
3473.67030,0.10660
3471.74155,0.10649
3469.81281,0.10633
3467.88406,0.10597
3465.95532,0.10552
3464.02657,0.10519
3462.09783,0.10513
3460.16908,0.10500
3458.24034,0.10447
3456.31159,0.10377
3454.38285,0.10327
3452.45410,0.10300
3450.52535,0.10273
3448.59661,0.10238
3446.66786,0.10208
3444.73912,0.10186
3442.81037,0.10170
3440.88163,0.10150
3438.95288,0.10120
3437.02414,0.10097
3435.09539,0.10100
3433.16665,0.10110
3431.23790,0.10113
3429.30916,0.10113
3427.38041,0.10100
3425.45167,0.10088
3423.52292,0.10089
3421.59418,0.10078
3419.66543,0.10070
3417.73668,0.10090
3415.80794,0.10109
3413.87919,0.10118
3411.95045,0.10145
3410.02170,0.10178
3408.09296,0.10193
3406.16421,0.10188
3404.23547,0.10177
3402.30672,0.10172
3400.37798,0.10183
3398.44923,0.10196
3396.52049,0.10195
3394.59174,0.10192
3392.66300,0.10213
3390.73425,0.10267
3388.80550,0.10325
3386.87676,0.10353
3384.94801,0.10356
3383.01927,0.10350
3381.09052,0.10340
3379.16178,0.10345
3377.23303,0.10379
3375.30429,0.10458
3373.37554,0.10543
3371.44680,0.10562
3369.51805,0.10525
3367.58931,0.10499
3365.66056,0.10512
3363.73182,0.10539
3361.80307,0.10553
3359.87433,0.10564
3357.94558,0.10586
3356.01683,0.10611
3354.08809,0.10624
3352.15934,0.10643
3350.23060,0.10683
3348.30185,0.10722
3346.37311,0.10752
3344.44436,0.10773
3342.51562,0.10773
3340.58687,0.10787
3338.65813,0.10838
3336.72938,0.10894
3334.80064,0.10916
3332.87189,0.10914
3330.94315,0.10933
3329.01440,0.10981
3327.08566,0.11029
3325.15691,0.11065
3323.22816,0.11087
3321.29942,0.11105
3319.37067,0.11141
3317.44193,0.11209
3315.51318,0.11260
3313.58444,0.11266
3311.65569,0.11279
3309.72695,0.11314
3307.79820,0.11337
3305.86946,0.11355
3303.94071,0.11379
3302.01197,0.11392
3300.08322,0.11394
3298.15448,0.11434
3296.22573,0.11503
3294.29698,0.11549
3292.36824,0.11579
3290.43949,0.11609
3288.51075,0.11638
3286.58200,0.11682
3284.65326,0.11736
3282.72451,0.11793
3280.79577,0.11833
3278.86702,0.11841
3276.93828,0.11854
3275.00953,0.11903
3273.08079,0.11978
3271.15204,0.12062
3269.22330,0.12128
3267.29455,0.12173
3265.36581,0.12205
3263.43706,0.12240
3261.50831,0.12300
3259.57957,0.12364
3257.65082,0.12408
3255.72208,0.12454
3253.79333,0.12507
3251.86459,0.12542
3249.93584,0.12580
3248.00710,0.12643
3246.07835,0.12679
3244.14961,0.12672
3242.22086,0.12675
3240.29212,0.12693
3238.36337,0.12714
3236.43463,0.12761
3234.50588,0.12825
3232.57713,0.12892
3230.64839,0.12972
3228.71964,0.13054
3226.79090,0.13096
3224.86215,0.13109
3222.93341,0.13145
3221.00466,0.13201
3219.07592,0.13259
3217.14717,0.13333
3215.21843,0.13403
3213.28968,0.13445
3211.36094,0.13484
3209.43219,0.13527
3207.50345,0.13546
3205.57470,0.13563
3203.64596,0.13616
3201.71721,0.13683
3199.78846,0.13722
3197.85972,0.13761
3195.93097,0.13831
3194.00223,0.13893
3192.07348,0.13942
3190.14474,0.14008
3188.21599,0.14091
3186.28725,0.14180
3184.35850,0.14252
3182.42976,0.14294
3180.50101,0.14319
3178.57227,0.14341
3176.64352,0.14358
3174.71478,0.14394
3172.78603,0.14486
3170.85729,0.14595
3168.92854,0.14668
3166.99979,0.14717
3165.07105,0.14765
3163.14230,0.14818
3161.21356,0.14884
3159.28481,0.14963
3157.35607,0.15044
3155.42732,0.15123
3153.49858,0.15195
3151.56983,0.15250
3149.64109,0.15292
3147.71234,0.15327
3145.78360,0.15351
3143.85485,0.15384
3141.92611,0.15454
3139.99736,0.15545
3138.06861,0.15623
3136.13987,0.15684
3134.21112,0.15749
3132.28238,0.15831
3130.35363,0.15900
3128.42489,0.15940
3126.49614,0.15969
3124.56740,0.16006
3122.63865,0.16067
3120.70991,0.16127
3118.78116,0.16154
3116.85242,0.16173
3114.92367,0.16180
3112.99493,0.16152
3111.06618,0.16132
3109.13744,0.16142
3107.20869,0.16145
3105.27994,0.16149
3103.35120,0.16186
3101.42245,0.16252
3099.49371,0.16316
3097.56496,0.16348
3095.63622,0.16342
3093.70747,0.16306
3091.77873,0.16212
3089.84998,0.16037
3087.92124,0.15835
3085.99249,0.15703
3084.06375,0.15689
3082.13500,0.15774
3080.20626,0.15919
3078.27751,0.16069
3076.34877,0.16173
3074.42002,0.16214
3072.49127,0.16197
3070.56253,0.16115
3068.63378,0.15960
3066.70504,0.15758
3064.77629,0.15551
3062.84755,0.15401
3060.91880,0.15385
3058.99006,0.15523
3057.06131,0.15756
3055.13257,0.16023
3053.20382,0.16277
3051.27508,0.16483
3049.34633,0.16627
3047.41759,0.16707
3045.48884,0.16717
3043.56009,0.16653
3041.63135,0.16511
3039.70260,0.16282
3037.77386,0.15982
3035.84511,0.15606
3033.91637,0.15118
3031.98762,0.14568
3030.05888,0.14099
3028.13013,0.13847
3026.20139,0.13902
3024.27264,0.14242
3022.34390,0.14733
3020.41515,0.15241
3018.48641,0.15672
3016.55766,0.15961
3014.62892,0.16103
3012.70017,0.16135
3010.77142,0.16081
3008.84268,0.15938
3006.91393,0.15699
3004.98519,0.15405
3003.05644,0.15141
3001.12770,0.14936
2999.19895,0.14726
2997.27021,0.14442
2995.34146,0.14067
2993.41272,0.13599
2991.48397,0.13046
2989.55523,0.12480
2987.62648,0.11986
2985.69774,0.11602
2983.76899,0.11317
2981.84025,0.11068
2979.91150,0.10806
2977.98275,0.10530
2976.05401,0.10241
2974.12526,0.09930
2972.19652,0.09610
2970.26777,0.09284
2968.33903,0.08956
2966.41028,0.08642
2964.48154,0.08351
2962.55279,0.08102
2960.62405,0.07932
2958.69530,0.07859
2956.76656,0.07878
2954.83781,0.07963
2952.90907,0.08080
2950.98032,0.08197
2949.05157,0.08290
2947.12283,0.08353
2945.19408,0.08382
2943.26534,0.08372
2941.33659,0.08314
2939.40785,0.08205
2937.47910,0.08062
2935.55036,0.07927
2933.62161,0.07853
2931.69287,0.07860
2929.76412,0.07929
2927.83538,0.08024
2925.90663,0.08099
2923.97789,0.08164
2922.04914,0.08261
2920.12040,0.08388
2918.19165,0.08533
2916.26290,0.08703
2914.33416,0.08894
2912.40541,0.09092
2910.47667,0.09273
2908.54792,0.09440
2906.61918,0.09617
2904.69043,0.09786
2902.76169,0.09923
2900.83294,0.10035
2898.90420,0.10124
2896.97545,0.10199
2895.04671,0.10276
2893.11796,0.10332
2891.18922,0.10345
2889.26047,0.10328
2887.33172,0.10273
2885.40298,0.10144
2883.47423,0.09941
2881.54549,0.09688
2879.61674,0.09401
2877.68800,0.09130
2875.75925,0.08957
2873.83051,0.08906
2871.90176,0.08942
2869.97302,0.09049
2868.04427,0.09224
2866.11553,0.09432
2864.18678,0.09628
2862.25804,0.09811
2860.32929,0.10008
2858.40055,0.10216
2856.47180,0.10416
2854.54305,0.10625
2852.61431,0.10870
2850.68556,0.11150
2848.75682,0.11491
2846.82807,0.11933
2844.89933,0.12465
2842.97058,0.13057
2841.04184,0.13694
2839.11309,0.14360
2837.18435,0.15010
2835.25560,0.15605
2833.32686,0.16145
2831.39811,0.16642
2829.46937,0.17084
2827.54062,0.17466
2825.61188,0.17826
2823.68313,0.18184
2821.75438,0.18522
2819.82564,0.18821
2817.89689,0.19077
2815.96815,0.19315
2814.03940,0.19551
2812.11066,0.19771
2810.18191,0.19965
2808.25317,0.20139
2806.32442,0.20312
2804.39568,0.20475
2802.46693,0.20613
2800.53819,0.20739
2798.60944,0.20876
2796.68070,0.21030
2794.75195,0.21209
2792.82320,0.21395
2790.89446,0.21555
2788.96571,0.21672
2787.03697,0.21764
2785.10822,0.21863
2783.17948,0.21987
2781.25073,0.22119
2779.32199,0.22235
2777.39324,0.22343
2775.46450,0.22449
2773.53575,0.22543
2771.60701,0.22641
2769.67826,0.22735
2767.74952,0.22790
2765.82077,0.22813
2763.89203,0.22846
2761.96328,0.22907
2760.03453,0.22970
2758.10579,0.23011
2756.17704,0.23036
2754.24830,0.23060
2752.31955,0.23090
2750.39081,0.23119
2748.46206,0.23138
2746.53332,0.23146
2744.60457,0.23158
2742.67583,0.23178
2740.74708,0.23189
2738.81834,0.23176
2736.88959,0.23159
2734.96085,0.23171
2733.03210,0.23213
2731.10336,0.23274
2729.17461,0.23343
2727.24586,0.23413
2725.31712,0.23490
2723.38837,0.23566
2721.45963,0.23613
2719.53088,0.23655
2717.60214,0.23716
2715.67339,0.23787
2713.74465,0.23851
2711.81590,0.23914
2709.88716,0.23984
2707.95841,0.24064
2706.02967,0.24131
2704.10092,0.24177
2702.17218,0.24241
2700.24343,0.24340
2698.31468,0.24441
2696.38594,0.24517
2694.45719,0.24568
2692.52845,0.24614
2690.59970,0.24676
2688.67096,0.24741
2686.74221,0.24793
2684.81347,0.24848
2682.88472,0.24919
2680.95598,0.24979
2679.02723,0.25004
2677.09849,0.25010
2675.16974,0.25024
2673.24100,0.25045
2671.31225,0.25071
2669.38351,0.25099
2667.45476,0.25120
2665.52601,0.25145
2663.59727,0.25169
2661.66852,0.25173
2659.73978,0.25161
2657.81103,0.25149
2655.88229,0.25157
2653.95354,0.25169
2652.02480,0.25154
2650.09605,0.25113
2648.16731,0.25062
2646.23856,0.25004
2644.30982,0.24927
2642.38107,0.24813
2640.45233,0.24671
2638.52358,0.24497
2636.59484,0.24275
2634.66609,0.24013
2632.73734,0.23719
2630.80860,0.23405
2628.87985,0.23100
2626.95111,0.22821
2625.02236,0.22558
2623.09362,0.22303
2621.16487,0.22049
2619.23613,0.21790
2617.30738,0.21534
2615.37864,0.21276
2613.44989,0.20983
2611.52115,0.20651
2609.59240,0.20311
2607.66366,0.19979
2605.73491,0.19679
2603.80616,0.19451
2601.87742,0.19283
2599.94867,0.19137
2598.01993,0.19013
2596.09118,0.18899
2594.16244,0.18776
2592.23369,0.18662
2590.30495,0.18575
2588.37620,0.18511
2586.44746,0.18461
2584.51871,0.18409
2582.58997,0.18357
2580.66122,0.18328
2578.73248,0.18311
2576.80373,0.18289
2574.87499,0.18259
2572.94624,0.18206
2571.01749,0.18127
2569.08875,0.18039
2567.16000,0.17951
2565.23126,0.17862
2563.30251,0.17764
2561.37377,0.17651
2559.44502,0.17526
2557.51628,0.17404
2555.58753,0.17278
2553.65879,0.17116
2551.73004,0.16922
2549.80130,0.16738
2547.87255,0.16562
2545.94381,0.16377
2544.01506,0.16191
2542.08631,0.15973
2540.15757,0.15629
2538.22882,0.15093
2536.30008,0.14404
2534.37133,0.13671
2532.44259,0.12957
2530.51384,0.12271
2528.58510,0.11648
2526.65635,0.11125
2524.72761,0.10690
2522.79886,0.10342
2520.87012,0.10091
2518.94137,0.09918
2517.01263,0.09798
2515.08388,0.09714
2513.15514,0.09687
2511.22639,0.09765
2509.29764,0.09975
2507.36890,0.10325
2505.44015,0.10803
2503.51141,0.11396
2501.58266,0.12109
2499.65392,0.12925
2497.72517,0.13820
2495.79643,0.14789
2493.86768,0.15806
2491.93894,0.16807
2490.01019,0.17737
2488.08145,0.18592
2486.15270,0.19396
2484.22396,0.20154
2482.29521,0.20875
2480.36647,0.21596
2478.43772,0.22316
2476.50897,0.23002
2474.58023,0.23670
2472.65148,0.24322
2470.72274,0.24905
2468.79399,0.25392
2466.86525,0.25794
2464.93650,0.26120
2463.00776,0.26397
2461.07901,0.26654
2459.15027,0.26886
2457.22152,0.27088
2455.29278,0.27287
2453.36403,0.27490
2451.43529,0.27675
2449.50654,0.27837
2447.57779,0.27987
2445.64905,0.28130
2443.72030,0.28267
2441.79156,0.28389
2439.86281,0.28498
2437.93407,0.28605
2436.00532,0.28712
2434.07658,0.28811
2432.14783,0.28907
2430.21909,0.29016
2428.29034,0.29124
2426.36160,0.29219
2424.43285,0.29312
2422.50411,0.29413
2420.57536,0.29517
2418.64662,0.29620
2416.71787,0.29714
2414.78912,0.29795
2412.86038,0.29875
2410.93163,0.29949
2409.00289,0.30006
2407.07414,0.30054
2405.14540,0.30114
2403.21665,0.30189
2401.28791,0.30256
2399.35916,0.30302
2397.43042,0.30347
2395.50167,0.30409
2393.57293,0.30469
2391.64418,0.30522
2389.71544,0.30580
2387.78669,0.30625
2385.85795,0.30659
2383.92920,0.30707
2382.00045,0.30761
2380.07171,0.30799
2378.14296,0.30834
2376.21422,0.30886
2374.28547,0.30940
2372.35673,0.30982
2370.42798,0.31011
2368.49924,0.31024
2366.57049,0.31024
2364.64175,0.31021
2362.71300,0.31025
2360.78426,0.31044
2358.85551,0.31064
2356.92677,0.31066
2354.99802,0.31058
2353.06927,0.31062
2351.14053,0.31067
2349.21178,0.31049
2347.28304,0.31023
2345.35429,0.30996
2343.42555,0.30955
2341.49680,0.30915
2339.56806,0.30908
2337.63931,0.30929
2335.71057,0.30960
2333.78182,0.30996
2331.85308,0.31029
2329.92433,0.31062
2327.99559,0.31106
2326.06684,0.31140
2324.13810,0.31133
2322.20935,0.31092
2320.28060,0.31050
2318.35186,0.31028
2316.42311,0.31012
2314.49437,0.30988
2312.56562,0.30966
2310.63688,0.30953
2308.70813,0.30944
2306.77939,0.30944
2304.85064,0.30953
2302.92190,0.30962
2300.99315,0.30961
2299.06441,0.30943
2297.13566,0.30923
2295.20692,0.30915
2293.27817,0.30914
2291.34943,0.30906
2289.42068,0.30897
2287.49193,0.30889
2285.56319,0.30883
2283.63444,0.30885
2281.70570,0.30881
2279.77695,0.30847
2277.84821,0.30791
2275.91946,0.30732
2273.99072,0.30669
2272.06197,0.30600
2270.13323,0.30526
2268.20448,0.30443
2266.27574,0.30355
2264.34699,0.30269
2262.41825,0.30186
2260.48950,0.30109
2258.56075,0.30034
2256.63201,0.29962
2254.70326,0.29898
2252.77452,0.29835
2250.84577,0.29768
2248.91703,0.29698
2246.98828,0.29625
2245.05954,0.29561
2243.13079,0.29511
2241.20205,0.29458
2239.27330,0.29384
2237.34456,0.29288
2235.41581,0.29189
2233.48707,0.29099
2231.55832,0.29010
2229.62958,0.28917
2227.70083,0.28819
2225.77208,0.28734
2223.84334,0.28684
2221.91459,0.28665
2219.98585,0.28650
2218.05710,0.28631
2216.12836,0.28623
2214.19961,0.28630
2212.27087,0.28635
2210.34212,0.28624
2208.41338,0.28604
2206.48463,0.28575
2204.55589,0.28534
2202.62714,0.28485
2200.69840,0.28433
2198.76965,0.28368
2196.84090,0.28281
2194.91216,0.28183
2192.98341,0.28085
2191.05467,0.27981
2189.12592,0.27865
2187.19718,0.27749
2185.26843,0.27645
2183.33969,0.27546
2181.41094,0.27441
2179.48220,0.27333
2177.55345,0.27227
2175.62471,0.27113
2173.69596,0.26987
2171.76722,0.26851
2169.83847,0.26714
2167.90973,0.26581
2165.98098,0.26444
2164.05223,0.26291
2162.12349,0.26126
2160.19474,0.25965
2158.26600,0.25810
2156.33725,0.25644
2154.40851,0.25450
2152.47976,0.25228
2150.55102,0.25008
2148.62227,0.24826
2146.69353,0.24681
2144.76478,0.24568
2142.83604,0.24485
2140.90729,0.24430
2138.97855,0.24397
2137.04980,0.24392
2135.12106,0.24424
2133.19231,0.24484
2131.26356,0.24567
2129.33482,0.24683
2127.40607,0.24818
2125.47733,0.24958
2123.54858,0.25119
2121.61984,0.25286
2119.69109,0.25431
2117.76235,0.25538
2115.83360,0.25617
2113.90486,0.25696
2111.97611,0.25781
2110.04737,0.25838
2108.11862,0.25863
2106.18988,0.25885
2104.26113,0.25920
2102.33238,0.25978
2100.40364,0.26037
2098.47489,0.26061
2096.54615,0.26053
2094.61740,0.26036
2092.68866,0.26030
2090.75991,0.26034
2088.83117,0.26017
2086.90242,0.25974
2084.97368,0.25938
2083.04493,0.25909
2081.11619,0.25862
2079.18744,0.25801
2077.25870,0.25744
2075.32995,0.25689
2073.40121,0.25623
2071.47246,0.25554
2069.54371,0.25494
2067.61497,0.25433
2065.68622,0.25357
2063.75748,0.25284
2061.82873,0.25230
2059.89999,0.25175
2057.97124,0.25103
2056.04250,0.25032
2054.11375,0.24963
2052.18501,0.24887
2050.25626,0.24823
2048.32752,0.24785
2046.39877,0.24749
2044.47003,0.24696
2042.54128,0.24624
2040.61254,0.24548
2038.68379,0.24479
2036.75504,0.24419
2034.82630,0.24370
2032.89755,0.24332
2030.96881,0.24313
2029.04006,0.24319
2027.11132,0.24326
2025.18257,0.24320
2023.25383,0.24314
2021.32508,0.24310
2019.39634,0.24299
2017.46759,0.24280
2015.53885,0.24244
2013.61010,0.24180
2011.68136,0.24093
2009.75261,0.23998
2007.82386,0.23924
2005.89512,0.23883
2003.96637,0.23840
2002.03763,0.23782
2000.10888,0.23734
1998.18014,0.23703
1996.25139,0.23681
1994.32265,0.23665
1992.39390,0.23642
1990.46516,0.23614
1988.53641,0.23598
1986.60767,0.23585
1984.67892,0.23567
1982.75018,0.23547
1980.82143,0.23526
1978.89269,0.23491
1976.96394,0.23446
1975.03519,0.23390
1973.10645,0.23321
1971.17770,0.23253
1969.24896,0.23190
1967.32021,0.23098
1965.39147,0.22962
1963.46272,0.22811
1961.53398,0.22701
1959.60523,0.22683
1957.67649,0.22737
1955.74774,0.22787
1953.81900,0.22795
1951.89025,0.22776
1949.96151,0.22750
1948.03276,0.22732
1946.10402,0.22728
1944.17527,0.22741
1942.24652,0.22766
1940.31778,0.22812
1938.38903,0.22899
1936.46029,0.23013
1934.53154,0.23117
1932.60280,0.23198
1930.67405,0.23264
1928.74531,0.23324
1926.81656,0.23359
1924.88782,0.23353
1922.95907,0.23327
1921.03033,0.23309
1919.10158,0.23279
1917.17284,0.23204
1915.24409,0.23101
1913.31534,0.22991
1911.38660,0.22863
1909.45785,0.22706
1907.52911,0.22529
1905.60036,0.22343
1903.67162,0.22147
1901.74287,0.21936
1899.81413,0.21718
1897.88538,0.21507
1895.95664,0.21313
1894.02789,0.21130
1892.09915,0.20938
1890.17040,0.20741
1888.24166,0.20565
1886.31291,0.20423
1884.38417,0.20306
1882.45542,0.20200
1880.52667,0.20080
1878.59793,0.19946
1876.66918,0.19823
1874.74044,0.19722
1872.81169,0.19634
1870.88295,0.19567
1868.95420,0.19537
1867.02546,0.19557
1865.09671,0.19612
1863.16797,0.19691
1861.23922,0.19788
1859.31048,0.19889
1857.38173,0.19989
1855.45299,0.20080
1853.52424,0.20146
1851.59549,0.20178
1849.66675,0.20179
1847.73800,0.20152
1845.80926,0.20082
1843.88051,0.19958
1841.95177,0.19794
1840.02302,0.19609
1838.09428,0.19402
1836.16553,0.19154
1834.23679,0.18853
1832.30804,0.18505
1830.37930,0.18116
1828.45055,0.17708
1826.52181,0.17291
1824.59306,0.16872
1822.66432,0.16488
1820.73557,0.16147
1818.80682,0.15808
1816.87808,0.15442
1814.94933,0.15027
1813.02059,0.14536
1811.09184,0.13905
1809.16310,0.13059
1807.23435,0.11940
1805.30561,0.10541
1803.37686,0.08973
1801.44812,0.07488
1799.51937,0.06412
1797.59063,0.05883
1795.66188,0.05741
1793.73314,0.05863
1791.80439,0.06384
1789.87565,0.07363
1787.94690,0.08559
1786.01815,0.09730
1784.08941,0.10694
1782.16066,0.11378
1780.23192,0.11821
1778.30317,0.12050
1776.37443,0.12101
1774.44568,0.12029
1772.51694,0.11842
1770.58819,0.11547
1768.65945,0.11169
1766.73070,0.10728
1764.80196,0.10266
1762.87321,0.09759
1760.94447,0.09198
1759.01572,0.08652
1757.08697,0.08090
1755.15823,0.07495
1753.22948,0.06917
1751.30074,0.06339
1749.37199,0.05778
1747.44325,0.05295
1745.51450,0.04894
1743.58576,0.04545
1741.65701,0.04234
1739.72827,0.03972
1737.79952,0.03800
1735.87078,0.03727
1733.94203,0.03725
1732.01329,0.03776
1730.08454,0.03878
1728.15580,0.04029
1726.22705,0.04229
1724.29830,0.04487
1722.36956,0.04796
1720.44081,0.05158
1718.51207,0.05588
1716.58332,0.06041
1714.65458,0.06426
1712.72583,0.06732
1710.79709,0.06981
1708.86834,0.07184
1706.93960,0.07347
1705.01085,0.07473
1703.08211,0.07560
1701.15336,0.07622
1699.22462,0.07668
1697.29587,0.07682
1695.36713,0.07654
1693.43838,0.07596
1691.50963,0.07514
1689.58089,0.07418
1687.65214,0.07347
1685.72340,0.07299
1683.79465,0.07230
1681.86591,0.07125
1679.93716,0.07010
1678.00842,0.06907
1676.07967,0.06809
1674.15093,0.06717
1672.22218,0.06652
1670.29344,0.06590
1668.36469,0.06516
1666.43595,0.06469
1664.50720,0.06444
1662.57845,0.06415
1660.64971,0.06391
1658.72096,0.06375
1656.79222,0.06372
1654.86347,0.06374
1652.93473,0.06349
1651.00598,0.06313
1649.07724,0.06296
1647.14849,0.06281
1645.21975,0.06271
1643.29100,0.06257
1641.36226,0.06219
1639.43351,0.06177
1637.50477,0.06144
1635.57602,0.06107
1633.64728,0.06072
1631.71853,0.06036
1629.78978,0.05989
1627.86104,0.05938
1625.93229,0.05891
1624.00355,0.05848
1622.07480,0.05809
1620.14606,0.05778
1618.21731,0.05750
1616.28857,0.05715
1614.35982,0.05678
1612.43108,0.05647
1610.50233,0.05622
1608.57359,0.05607
1606.64484,0.05581
1604.71610,0.05538
1602.78735,0.05515
1600.85861,0.05546
1598.92986,0.05629
1597.00111,0.05736
1595.07237,0.05832
1593.14362,0.05911
1591.21488,0.05971
1589.28613,0.06022
1587.35739,0.06101
1585.42864,0.06232
1583.49990,0.06408
1581.57115,0.06625
1579.64241,0.06876
1577.71366,0.07156
1575.78492,0.07470
1573.85617,0.07762
1571.92743,0.08024
1569.99868,0.08291
1568.06993,0.08547
1566.14119,0.08776
1564.21244,0.08993
1562.28370,0.09205
1560.35495,0.09456
1558.42621,0.09763
1556.49746,0.10016
1554.56872,0.10201
1552.63997,0.10333
1550.71123,0.10392
1548.78248,0.10397
1546.85374,0.10370
1544.92499,0.10334
1542.99625,0.10302
1541.06750,0.10259
1539.13876,0.10186
1537.21001,0.10124
1535.28126,0.10075
1533.35252,0.10023
1531.42377,0.09985
1529.49503,0.09963
1527.56628,0.09927
1525.63754,0.09869
1523.70879,0.09810
1521.78005,0.09746
1519.85130,0.09675
1517.92256,0.09611
1515.99381,0.09549
1514.06507,0.09489
1512.13632,0.09440
1510.20758,0.09400
1508.27883,0.09362
1506.35008,0.09324
1504.42134,0.09308
1502.49259,0.09311
1500.56385,0.09317
1498.63510,0.09306
1496.70636,0.09263
1494.77761,0.09222
1492.84887,0.09224
1490.92012,0.09265
1488.99138,0.09310
1487.06263,0.09318
1485.13389,0.09305
1483.20514,0.09309
1481.27640,0.09331
1479.34765,0.09351
1477.41891,0.09375
1475.49016,0.09407
1473.56141,0.09422
1471.63267,0.09428
1469.70392,0.09452
1467.77518,0.09479
1465.84643,0.09488
1463.91769,0.09483
1461.98894,0.09493
1460.06020,0.09522
1458.13145,0.09547
1456.20271,0.09561
1454.27396,0.09574
1452.34522,0.09590
1450.41647,0.09618
1448.48773,0.09658
1446.55898,0.09691
1444.63024,0.09715
1442.70149,0.09735
1440.77274,0.09760
1438.84400,0.09803
1436.91525,0.09854
1434.98651,0.09910
1433.05776,0.09983
1431.12902,0.10069
1429.20027,0.10140
1427.27153,0.10191
1425.34278,0.10252
1423.41404,0.10338
1421.48529,0.10425
1419.55655,0.10487
1417.62780,0.10536
1415.69906,0.10588
1413.77031,0.10628
1411.84156,0.10641
1409.91282,0.10616
1407.98407,0.10524
1406.05533,0.10344
1404.12658,0.10097
1402.19784,0.09858
1400.26909,0.09686
1398.34035,0.09578
1396.41160,0.09498
1394.48286,0.09421
1392.55411,0.09350
1390.62537,0.09294
1388.69662,0.09245
1386.76788,0.09205
1384.83913,0.09191
1382.91039,0.09199
1380.98164,0.09211
1379.05289,0.09225
1377.12415,0.09242
1375.19540,0.09275
1373.26666,0.09341
1371.33791,0.09443
1369.40917,0.09569
1367.48042,0.09710
1365.55168,0.09865
1363.62293,0.10043
1361.69419,0.10230
1359.76544,0.10397
1357.83670,0.10540
1355.90795,0.10685
1353.97921,0.10842
1352.05046,0.10985
1350.12172,0.11103
1348.19297,0.11212
1346.26422,0.11311
1344.33548,0.11406
1342.40673,0.11514
1340.47799,0.11630
1338.54924,0.11720
1336.62050,0.11768
1334.69175,0.11804
1332.76301,0.11842
1330.83426,0.11868
1328.90552,0.11874
1326.97677,0.11872
1325.04803,0.11875
1323.11928,0.11882
1321.19054,0.11894
1319.26179,0.11923
1317.33304,0.11973
1315.40430,0.12032
1313.47555,0.12088
1311.54681,0.12142
1309.61806,0.12203
1307.68932,0.12286
1305.76057,0.12403
1303.83183,0.12528
1301.90308,0.12616
1299.97434,0.12668
1298.04559,0.12714
1296.11685,0.12756
1294.18810,0.12765
1292.25936,0.12728
1290.33061,0.12657
1288.40187,0.12554
1286.47312,0.12407
1284.54437,0.12228
1282.61563,0.12052
1280.68688,0.11899
1278.75814,0.11759
1276.82939,0.11612
1274.90065,0.11447
1272.97190,0.11271
1271.04316,0.11103
1269.11441,0.10948
1267.18567,0.10796
1265.25692,0.10658
1263.32818,0.10563
1261.39943,0.10493
1259.47069,0.10410
1257.54194,0.10324
1255.61320,0.10249
1253.68445,0.10172
1251.75570,0.10085
1249.82696,0.09995
1247.89821,0.09914
1245.96947,0.09842
1244.04072,0.09778
1242.11198,0.09740
1240.18323,0.09739
1238.25449,0.09765
1236.32574,0.09802
1234.39700,0.09846
1232.46825,0.09904
1230.53951,0.09973
1228.61076,0.10046
1226.68202,0.10121
1224.75327,0.10197
1222.82452,0.10262
1220.89578,0.10288
1218.96703,0.10268
1217.03829,0.10231
1215.10954,0.10189
1213.18080,0.10147
1211.25205,0.10104
1209.32331,0.10033
1207.39456,0.09916
1205.46582,0.09777
1203.53707,0.09642
1201.60833,0.09521
1199.67958,0.09415
1197.75084,0.09310
1195.82209,0.09185
1193.89335,0.09043
1191.96460,0.08891
1190.03585,0.08738
1188.10711,0.08606
1186.17836,0.08487
1184.24962,0.08356
1182.32087,0.08228
1180.39213,0.08111
1178.46338,0.07989
1176.53464,0.07872
1174.60589,0.07765
1172.67715,0.07650
1170.74840,0.07538
1168.81966,0.07456
1166.89091,0.07401
1164.96217,0.07349
1163.03342,0.07292
1161.10467,0.07258
1159.17593,0.07284
1157.24718,0.07374
1155.31844,0.07502
1153.38969,0.07636
1151.46095,0.07755
1149.53220,0.07856
1147.60346,0.07953
1145.67471,0.08078
1143.74597,0.08224
1141.81722,0.08350
1139.88848,0.08444
1137.95973,0.08508
1136.03099,0.08529
1134.10224,0.08521
1132.17350,0.08500
1130.24475,0.08446
1128.31600,0.08352
1126.38726,0.08243
1124.45851,0.08109
1122.52977,0.07933
1120.60102,0.07723
1118.67228,0.07517
1116.74353,0.07360
1114.81479,0.07267
1112.88604,0.07241
1110.95730,0.07284
1109.02855,0.07370
1107.09981,0.07464
1105.17106,0.07548
1103.24232,0.07625
1101.31357,0.07699
1099.38483,0.07757
1097.45608,0.07816
1095.52733,0.07893
1093.59859,0.07967
1091.66984,0.08023
1089.74110,0.08072
1087.81235,0.08126
1085.88361,0.08176
1083.95486,0.08223
1082.02612,0.08298
1080.09737,0.08406
1078.16863,0.08501
1076.23988,0.08529
1074.31114,0.08488
1072.38239,0.08430
1070.45365,0.08373
1068.52490,0.08274
1066.59615,0.08133
1064.66741,0.08020
1062.73866,0.07962
1060.80992,0.07915
1058.88117,0.07848
1056.95243,0.07787
1055.02368,0.07778
1053.09494,0.07805
1051.16619,0.07816
1049.23745,0.07794
1047.30870,0.07752
1045.37996,0.07716
1043.45121,0.07732
1041.52247,0.07802
1039.59372,0.07863
1037.66498,0.07880
1035.73623,0.07868
1033.80748,0.07840
1031.87874,0.07802
1029.94999,0.07734
1028.02125,0.07634
1026.09250,0.07558
1024.16376,0.07530
1022.23501,0.07483
1020.30627,0.07402
1018.37752,0.07369
1016.44878,0.07417
1014.52003,0.07476
1012.59129,0.07511
1010.66254,0.07558
1008.73380,0.07610
1006.80505,0.07634
1004.87631,0.07620
1002.94756,0.07562
1001.01881,0.07473
999.09007,0.07371
997.16132,0.07263
995.23258,0.07177
993.30383,0.07141
991.37509,0.07127
989.44634,0.07099
987.51760,0.07051
985.58885,0.07001
983.66011,0.06964
981.73136,0.06920
979.80262,0.06860
977.87387,0.06795
975.94513,0.06740
974.01638,0.06709
972.08763,0.06685
970.15889,0.06651
968.23014,0.06613
966.30140,0.06573
964.37265,0.06530
962.44391,0.06498
960.51516,0.06477
958.58642,0.06438
956.65767,0.06383
954.72893,0.06321
952.80018,0.06255
950.87144,0.06214
948.94269,0.06199
947.01395,0.06167
945.08520,0.06102
943.15646,0.06025
941.22771,0.05972
939.29896,0.05971
937.37022,0.05997
935.44147,0.06016
933.51273,0.06014
931.58398,0.05983
929.65524,0.05923
927.72649,0.05860
925.79775,0.05825
923.86900,0.05824
921.94026,0.05836
920.01151,0.05833
918.08277,0.05818
916.15402,0.05823
914.22528,0.05858
912.29653,0.05918
910.36779,0.05978
908.43904,0.06001
906.51029,0.06000
904.58155,0.06029
902.65280,0.06102
900.72406,0.06164
898.79531,0.06203
896.86657,0.06264
894.93782,0.06364
893.00908,0.06506
891.08033,0.06659
889.15159,0.06735
887.22284,0.06641
885.29410,0.06426
883.36535,0.06284
881.43661,0.06316
879.50786,0.06473
877.57911,0.06679
875.65037,0.06854
873.72162,0.06926
871.79288,0.06869
869.86413,0.06756
867.93539,0.06669
866.00664,0.06613
864.07790,0.06557
862.14915,0.06493
860.22041,0.06415
858.29166,0.06308
856.36292,0.06172
854.43417,0.06030
852.50543,0.05890
850.57668,0.05724
848.64794,0.05574
846.71919,0.05534
844.79044,0.05560
842.86170,0.05551
840.93295,0.05485
839.00421,0.05393
837.07546,0.05305
835.14672,0.05246
833.21797,0.05193
831.28923,0.05110
829.36048,0.05014
827.43174,0.04935
825.50299,0.04870
823.57425,0.04822
821.64550,0.04774
819.71676,0.04692
817.78801,0.04592
815.85926,0.04516
813.93052,0.04466
812.00177,0.04421
810.07303,0.04402
808.14428,0.04437
806.21554,0.04474
804.28679,0.04445
802.35805,0.04380
800.42930,0.04355
798.50056,0.04376
796.57181,0.04380
794.64307,0.04364
792.71432,0.04366
790.78558,0.04361
788.85683,0.04316
786.92809,0.04273
784.99934,0.04269
783.07059,0.04294
781.14185,0.04327
779.21310,0.04331
777.28436,0.04295
775.35561,0.04251
773.42687,0.04200
771.49812,0.04125
769.56938,0.04065
767.64063,0.04062
765.71189,0.04086
763.78314,0.04086
761.85440,0.04084
759.92565,0.04116
757.99691,0.04134
756.06816,0.04080
754.13942,0.04008
752.21067,0.03978
750.28192,0.03951
748.35318,0.03915
746.42443,0.03926
744.49569,0.03976
742.56694,0.03989
740.63820,0.03950
738.70945,0.03914
736.78071,0.03902
734.85196,0.03885
732.92322,0.03843
730.99447,0.03821
729.06573,0.03845
727.13698,0.03850
725.20824,0.03787
723.27949,0.03703
721.35074,0.03646
719.42200,0.03603
717.49325,0.03621
715.56451,0.03821
713.63576,0.04177
711.70702,0.04449
709.77827,0.04492
707.84953,0.04414
705.92078,0.04347
703.99204,0.04315
702.06329,0.04323
700.13455,0.04367
698.20580,0.04385
696.27706,0.04388
694.34831,0.04462
692.41957,0.04568
690.49082,0.04590
688.56207,0.04524
686.63333,0.04489
684.70458,0.04528
682.77584,0.04536
680.84709,0.04484
678.91835,0.04446
676.98960,0.04430
675.06086,0.04416
673.13211,0.04418
671.20337,0.04467
669.27462,0.04533
667.34588,0.04538
665.41713,0.04514
663.48839,0.04552
661.55964,0.04609
659.63090,0.04599
657.70215,0.04533
655.77340,0.04463
653.84466,0.04433
651.91591,0.04468
649.98717,0.04509
648.05842,0.04504
646.12968,0.04496
644.20093,0.04504
642.27219,0.04486
640.34344,0.04429
638.41470,0.04362
636.48595,0.04327
634.55721,0.04372
632.62846,0.04499
630.69972,0.04591
628.77097,0.04603
626.84222,0.04635
624.91348,0.04682
622.98473,0.04631
621.05599,0.04515
619.12724,0.04435
617.19850,0.04411
615.26975,0.04410
613.34101,0.04388
611.41226,0.04393
609.48352,0.04444
607.55477,0.04478
605.62603,0.04618
603.69728,0.04861
601.76854,0.04945
599.83979,0.04828
