7497.03301,0.82943
7495.10426,0.83292
7493.17552,0.83258
7491.24677,0.83506
7489.31803,0.83722
7487.38928,0.83297
7485.46054,0.82960
7483.53179,0.83152
7481.60305,0.83228
7479.67430,0.83045
7477.74556,0.82945
7475.81681,0.82830
7473.88807,0.82603
7471.95932,0.82416
7470.03057,0.82335
7468.10183,0.82430
7466.17308,0.82756
7464.24434,0.82882
7462.31559,0.82414
7460.38685,0.81799
7458.45810,0.81600
7456.52936,0.81816
7454.60061,0.82234
7452.67187,0.82697
7450.74312,0.82885
7448.81438,0.82586
7446.88563,0.82150
7444.95689,0.81866
7443.02814,0.81627
7441.09940,0.81465
7439.17065,0.81551
7437.24190,0.81825
7435.31316,0.82089
7433.38441,0.82179
7431.45567,0.81845
7429.52692,0.81151
7427.59818,0.80837
7425.66943,0.81200
7423.74069,0.81572
7421.81194,0.81617
7419.88320,0.81449
7417.95445,0.81071
7416.02571,0.80769
7414.09696,0.80714
7412.16822,0.80588
7410.23947,0.80269
7408.31073,0.80097
7406.38198,0.80314
7404.45323,0.80616
7402.52449,0.80696
7400.59574,0.80810
7398.66700,0.80969
7396.73825,0.80616
7394.80951,0.79925
7392.88076,0.79672
7390.95202,0.79806
7389.02327,0.79919
7387.09453,0.80070
7385.16578,0.80354
7383.23704,0.80608
7381.30829,0.80673
7379.37955,0.80745
7377.45080,0.81042
7375.52205,0.81181
7373.59331,0.80768
7371.66456,0.80259
7369.73582,0.80127
7367.80707,0.80202
7365.87833,0.80178
7363.94958,0.80023
7362.02084,0.80048
7360.09209,0.80342
7358.16335,0.80544
7356.23460,0.80539
7354.30586,0.80497
7352.37711,0.80550
7350.44837,0.80596
7348.51962,0.80449
7346.59088,0.80266
7344.66213,0.80249
7342.73338,0.80320
7340.80464,0.80334
7338.87589,0.80343
7336.94715,0.80430
7335.01840,0.80406
7333.08966,0.80131
7331.16091,0.79794
7329.23217,0.79566
7327.30342,0.79347
7325.37468,0.79161
7323.44593,0.79222
7321.51719,0.79484
7319.58844,0.79728
7317.65970,0.79715
7315.73095,0.79473
7313.80221,0.79415
7311.87346,0.79647
7309.94471,0.79768
7308.01597,0.79495
7306.08722,0.79182
7304.15848,0.79229
7302.22973,0.79300
7300.30099,0.79186
7298.37224,0.79178
7296.44350,0.79275
7294.51475,0.79218
7292.58601,0.79066
7290.65726,0.79180
7288.72852,0.79551
7286.79977,0.79631
7284.87103,0.79181
7282.94228,0.78813
7281.01353,0.78980
7279.08479,0.79191
7277.15604,0.79050
7275.22730,0.78789
7273.29855,0.78661
7271.36981,0.78833
7269.44106,0.79270
7267.51232,0.79544
7265.58357,0.79452
7263.65483,0.79373
7261.72608,0.79539
7259.79734,0.79744
7257.86859,0.79781
7255.93985,0.79619
7254.01110,0.79327
7252.08236,0.78849
7250.15361,0.78274
7248.22486,0.78194
7246.29612,0.78703
7244.36737,0.79138
7242.43863,0.79194
7240.50988,0.79040
7238.58114,0.78975
7236.65239,0.79129
7234.72365,0.79163
7232.79490,0.78903
7230.86616,0.78708
7228.93741,0.78777
7227.00867,0.78802
7225.07992,0.78539
7223.15118,0.78219
7221.22243,0.78171
7219.29369,0.78438
7217.36494,0.78772
7215.43619,0.78909
7213.50745,0.78716
7211.57870,0.78190
7209.64996,0.77741
7207.72121,0.77759
7205.79247,0.77941
7203.86372,0.77777
7201.93498,0.77358
7200.00623,0.77137
7198.07749,0.77210
7196.14874,0.77363
7194.22000,0.77478
7192.29125,0.77462
7190.36251,0.77283
7188.43376,0.76970
7186.50501,0.76457
7184.57627,0.75871
7182.64752,0.75523
7180.71878,0.75624
7178.79003,0.76066
7176.86129,0.76320
7174.93254,0.76148
7173.00380,0.75953
7171.07505,0.75956
7169.14631,0.76002
7167.21756,0.76147
7165.28882,0.76353
7163.36007,0.76370
7161.43133,0.76498
7159.50258,0.76861
7157.57384,0.76898
7155.64509,0.76665
7153.71634,0.76616
7151.78760,0.76697
7149.85885,0.76767
7147.93011,0.76711
7146.00136,0.76420
7144.07262,0.76142
7142.14387,0.76057
7140.21513,0.76039
7138.28638,0.76087
7136.35764,0.76102
7134.42889,0.75918
7132.50015,0.75623
7130.57140,0.75345
7128.64266,0.75252
7126.71391,0.75374
7124.78516,0.75490
7122.85642,0.75545
7120.92767,0.75603
7118.99893,0.75554
7117.07018,0.75402
7115.14144,0.75331
7113.21269,0.75317
7111.28395,0.75397
7109.35520,0.75714
7107.42646,0.75998
7105.49771,0.75948
7103.56897,0.75682
7101.64022,0.75391
7099.71148,0.75247
7097.78273,0.75336
7095.85399,0.75476
7093.92524,0.75482
7091.99649,0.75454
7090.06775,0.75644
7088.13900,0.75915
7086.21026,0.75796
7084.28151,0.75290
7082.35277,0.74780
7080.42402,0.74467
7078.49528,0.74266
7076.56653,0.73896
7074.63779,0.73333
7072.70904,0.72874
7070.78030,0.72545
7068.85155,0.72189
7066.92281,0.71948
7064.99406,0.72021
7063.06532,0.72312
7061.13657,0.72574
7059.20782,0.72828
7057.27908,0.73200
7055.35033,0.73460
7053.42159,0.73456
7051.49284,0.73373
7049.56410,0.73429
7047.63535,0.73682
7045.70661,0.73865
7043.77786,0.73796
7041.84912,0.73671
7039.92037,0.73823
7037.99163,0.74153
7036.06288,0.74073
7034.13414,0.73687
7032.20539,0.73693
7030.27664,0.74150
7028.34790,0.74415
7026.41915,0.74119
7024.49041,0.73812
7022.56166,0.73989
7020.63292,0.74206
7018.70417,0.74069
7016.77543,0.73914
7014.84668,0.73946
7012.91794,0.73966
7010.98919,0.73990
7009.06045,0.74057
7007.13170,0.73953
7005.20296,0.73623
7003.27421,0.73278
7001.34547,0.73118
6999.41672,0.73274
6997.48797,0.73523
6995.55923,0.73456
6993.63048,0.73236
6991.70174,0.73230
6989.77299,0.73403
6987.84425,0.73468
6985.91550,0.73265
6983.98676,0.73060
6982.05801,0.73098
6980.12927,0.73232
6978.20052,0.73258
6976.27178,0.73240
6974.34303,0.73334
6972.41429,0.73424
6970.48554,0.73333
6968.55680,0.73079
6966.62805,0.72963
6964.69930,0.73134
6962.77056,0.73156
6960.84181,0.72967
6958.91307,0.73074
6956.98432,0.73385
6955.05558,0.73397
6953.12683,0.73063
6951.19809,0.72687
6949.26934,0.72491
6947.34060,0.72391
6945.41185,0.72276
6943.48311,0.72339
6941.55436,0.72695
6939.62562,0.73084
6937.69687,0.73206
6935.76812,0.73094
6933.83938,0.72921
6931.91063,0.72758
6929.98189,0.72708
6928.05314,0.72809
6926.12440,0.73026
6924.19565,0.73280
6922.26691,0.73306
6920.33816,0.73066
6918.40942,0.73005
6916.48067,0.73330
6914.55193,0.73603
6912.62318,0.73567
6910.69444,0.73486
6908.76569,0.73437
6906.83695,0.73347
6904.90820,0.73324
6902.97945,0.73368
6901.05071,0.73196
6899.12196,0.72846
6897.19322,0.72734
6895.26447,0.72719
6893.33573,0.72479
6891.40698,0.72301
6889.47824,0.72437
6887.54949,0.72698
6885.62075,0.72876
6883.69200,0.72968
6881.76326,0.73083
6879.83451,0.73144
6877.90577,0.73025
6875.97702,0.72922
6874.04828,0.73000
6872.11953,0.73062
6870.19078,0.73018
6868.26204,0.73070
6866.33329,0.73119
6864.40455,0.72910
6862.47580,0.72727
6860.54706,0.72707
6858.61831,0.72566
6856.68957,0.72466
6854.76082,0.72595
6852.83208,0.72736
6850.90333,0.72945
6848.97459,0.73341
6847.04584,0.73517
6845.11710,0.73250
6843.18835,0.73086
6841.25960,0.73354
6839.33086,0.73670
6837.40211,0.73765
6835.47337,0.73576
6833.54462,0.73086
6831.61588,0.72696
6829.68713,0.72655
6827.75839,0.72662
6825.82964,0.72551
6823.90090,0.72400
6821.97215,0.72310
6820.04341,0.72427
6818.11466,0.72675
6816.18592,0.72814
6814.25717,0.72877
6812.32843,0.73018
6810.39968,0.73172
6808.47093,0.73257
6806.54219,0.73226
6804.61344,0.73126
6802.68470,0.73120
6800.75595,0.73146
6798.82721,0.73005
6796.89846,0.72663
6794.96972,0.72396
6793.04097,0.72509
6791.11223,0.72815
6789.18348,0.72960
6787.25474,0.72896
6785.32599,0.72830
6783.39725,0.72982
6781.46850,0.73151
6779.53975,0.73032
6777.61101,0.72784
6775.68226,0.72622
6773.75352,0.72596
6771.82477,0.72794
6769.89603,0.73021
6767.96728,0.72957
6766.03854,0.72816
6764.10979,0.72882
6762.18105,0.73003
6760.25230,0.73055
6758.32356,0.73030
6756.39481,0.72860
6754.46607,0.72644
6752.53732,0.72618
6750.60858,0.72875
6748.67983,0.73191
6746.75108,0.73259
6744.82234,0.73092
6742.89359,0.72946
6740.96485,0.72912
6739.03610,0.72944
6737.10736,0.73062
6735.17861,0.73104
6733.24987,0.72892
6731.32112,0.72711
6729.39238,0.72792
6727.46363,0.72916
6725.53489,0.72905
6723.60614,0.72859
6721.67740,0.72851
6719.74865,0.72846
6717.81991,0.72868
6715.89116,0.72941
6713.96241,0.72974
6712.03367,0.72877
6710.10492,0.72798
6708.17618,0.72818
6706.24743,0.72819
6704.31869,0.72938
6702.38994,0.73194
6700.46120,0.73259
6698.53245,0.73094
6696.60371,0.72995
6694.67496,0.73131
6692.74622,0.73322
6690.81747,0.73384
6688.88873,0.73447
6686.95998,0.73558
6685.03123,0.73580
6683.10249,0.73539
6681.17374,0.73480
6679.24500,0.73325
6677.31625,0.73108
6675.38751,0.72910
6673.45876,0.72739
6671.53002,0.72748
6669.60127,0.73014
6667.67253,0.73231
6665.74378,0.73167
6663.81504,0.73054
6661.88629,0.73175
6659.95755,0.73447
6658.02880,0.73523
6656.10006,0.73304
6654.17131,0.73088
6652.24256,0.73111
6650.31382,0.73256
6648.38507,0.73282
6646.45633,0.73211
6644.52758,0.73219
6642.59884,0.73291
6640.67009,0.73316
6638.74135,0.73222
6636.81260,0.73054
6634.88386,0.73049
6632.95511,0.73299
6631.02637,0.73577
6629.09762,0.73702
6627.16888,0.73700
6625.24013,0.73601
6623.31139,0.73424
6621.38264,0.73347
6619.45389,0.73425
6617.52515,0.73425
6615.59640,0.73382
6613.66766,0.73492
6611.73891,0.73572
6609.81017,0.73507
6607.88142,0.73436
6605.95268,0.73438
6604.02393,0.73556
6602.09519,0.73708
6600.16644,0.73717
6598.23770,0.73606
6596.30895,0.73528
6594.38021,0.73547
6592.45146,0.73612
6590.52271,0.73586
6588.59397,0.73493
6586.66522,0.73663
6584.73648,0.73984
6582.80773,0.73884
6580.87899,0.73530
6578.95024,0.73480
6577.02150,0.73657
6575.09275,0.73815
6573.16401,0.73951
6571.23526,0.74034
6569.30652,0.74005
6567.37777,0.73847
6565.44903,0.73536
6563.52028,0.73271
6561.59154,0.73317
6559.66279,0.73533
6557.73404,0.73733
6555.80530,0.73913
6553.87655,0.73994
6551.94781,0.73919
6550.01906,0.73751
6548.09032,0.73650
6546.16157,0.73722
6544.23283,0.73866
6542.30408,0.74015
6540.37534,0.74170
6538.44659,0.74207
6536.51785,0.74126
6534.58910,0.74060
6532.66036,0.73980
6530.73161,0.73883
6528.80287,0.73792
6526.87412,0.73629
6524.94537,0.73502
6523.01663,0.73577
6521.08788,0.73785
6519.15914,0.73913
6517.23039,0.73843
6515.30165,0.73683
6513.37290,0.73613
6511.44416,0.73750
6509.51541,0.73912
6507.58667,0.73791
6505.65792,0.73578
6503.72918,0.73629
6501.80043,0.73874
6499.87169,0.74101
6497.94294,0.74243
6496.01419,0.74270
6494.08545,0.74181
6492.15670,0.74088
6490.22796,0.74001
6488.29921,0.73782
6486.37047,0.73520
6484.44172,0.73430
6482.51298,0.73547
6480.58423,0.73763
6478.65549,0.73929
6476.72674,0.73949
6474.79800,0.73825
6472.86925,0.73692
6470.94051,0.73640
6469.01176,0.73573
6467.08302,0.73428
6465.15427,0.73343
6463.22552,0.73504
6461.29678,0.73762
6459.36803,0.73848
6457.43929,0.73816
6455.51054,0.73794
6453.58180,0.73818
6451.65305,0.73911
6449.72431,0.74098
6447.79556,0.74299
6445.86682,0.74277
6443.93807,0.74059
6442.00933,0.73906
6440.08058,0.73792
6438.15184,0.73715
6436.22309,0.73907
6434.29434,0.74202
6432.36560,0.74184
6430.43685,0.73930
6428.50811,0.73771
6426.57936,0.73807
6424.65062,0.73990
6422.72187,0.74236
6420.79313,0.74329
6418.86438,0.74151
6416.93564,0.73887
6415.00689,0.73743
6413.07815,0.73702
6411.14940,0.73668
6409.22066,0.73672
6407.29191,0.73781
6405.36317,0.73966
6403.43442,0.74133
6401.50567,0.74140
6399.57693,0.74041
6397.64818,0.73977
6395.71944,0.73919
6393.79069,0.73946
6391.86195,0.74106
6389.93320,0.74162
6388.00446,0.73998
6386.07571,0.73839
6384.14697,0.73955
6382.21822,0.74231
6380.28948,0.74344
6378.36073,0.74341
6376.43199,0.74399
6374.50324,0.74380
6372.57450,0.74217
6370.64575,0.74076
6368.71700,0.74009
6366.78826,0.73972
6364.85951,0.74023
6362.93077,0.74141
6361.00202,0.74180
6359.07328,0.74093
6357.14453,0.73978
6355.21579,0.73932
6353.28704,0.73955
6351.35830,0.74009
6349.42955,0.74054
6347.50081,0.74041
6345.57206,0.74021
6343.64332,0.74045
6341.71457,0.74083
6339.78582,0.74206
6337.85708,0.74420
6335.92833,0.74515
6333.99959,0.74365
6332.07084,0.74129
6330.14210,0.74040
6328.21335,0.74129
6326.28461,0.74243
6324.35586,0.74210
6322.42712,0.74084
6320.49837,0.74048
6318.56963,0.74005
6316.64088,0.73812
6314.71214,0.73641
6312.78339,0.73741
6310.85465,0.74030
6308.92590,0.74159
6306.99715,0.74126
6305.06841,0.74188
6303.13966,0.74303
6301.21092,0.74337
6299.28217,0.74319
6297.35343,0.74316
6295.42468,0.74326
6293.49594,0.74284
6291.56719,0.74195
6289.63845,0.74153
6287.70970,0.74253
6285.78096,0.74419
6283.85221,0.74454
6281.92347,0.74393
6279.99472,0.74339
6278.06598,0.74199
6276.13723,0.73962
6274.20848,0.73840
6272.27974,0.73983
6270.35099,0.74238
6268.42225,0.74396
6266.49350,0.74460
6264.56476,0.74503
6262.63601,0.74557
6260.70727,0.74600
6258.77852,0.74554
6256.84978,0.74435
6254.92103,0.74427
6252.99229,0.74586
6251.06354,0.74741
6249.13480,0.74769
6247.20605,0.74686
6245.27730,0.74630
6243.34856,0.74638
6241.41981,0.74600
6239.49107,0.74628
6237.56232,0.74802
6235.63358,0.74969
6233.70483,0.75040
6231.77609,0.74972
6229.84734,0.74851
6227.91860,0.74899
6225.98985,0.75044
6224.06111,0.74986
6222.13236,0.74796
6220.20362,0.74793
6218.27487,0.74989
6216.34613,0.75205
6214.41738,0.75348
6212.48863,0.75430
6210.55989,0.75470
6208.63114,0.75402
6206.70240,0.75228
6204.77365,0.75101
6202.84491,0.75124
6200.91616,0.75243
6198.98742,0.75335
6197.05867,0.75376
6195.12993,0.75433
6193.20118,0.75488
6191.27244,0.75476
6189.34369,0.75379
6187.41495,0.75257
6185.48620,0.75248
6183.55746,0.75380
6181.62871,0.75501
6179.69996,0.75478
6177.77122,0.75407
6175.84247,0.75478
6173.91373,0.75594
6171.98498,0.75551
6170.05624,0.75436
6168.12749,0.75465
6166.19875,0.75609
6164.27000,0.75672
6162.34126,0.75628
6160.41251,0.75547
6158.48377,0.75516
6156.55502,0.75633
6154.62628,0.75746
6152.69753,0.75667
6150.76878,0.75567
6148.84004,0.75612
6146.91129,0.75695
6144.98255,0.75763
6143.05380,0.75793
6141.12506,0.75743
6139.19631,0.75741
6137.26757,0.75776
6135.33882,0.75717
6133.41008,0.75665
6131.48133,0.75732
6129.55259,0.75799
6127.62384,0.75729
6125.69510,0.75608
6123.76635,0.75581
6121.83761,0.75586
6119.90886,0.75518
6117.98011,0.75463
6116.05137,0.75494
6114.12262,0.75535
6112.19388,0.75616
6110.26513,0.75746
6108.33639,0.75782
6106.40764,0.75778
6104.47890,0.75886
6102.55015,0.75944
6100.62141,0.75787
6098.69266,0.75667
6096.76392,0.75727
6094.83517,0.75766
6092.90643,0.75806
6090.97768,0.75925
6089.04893,0.75926
6087.12019,0.75782
6085.19144,0.75737
6083.26270,0.75817
6081.33395,0.75856
6079.40521,0.75845
6077.47646,0.75871
6075.54772,0.75861
6073.61897,0.75712
6071.69023,0.75587
6069.76148,0.75656
6067.83274,0.75785
6065.90399,0.75804
6063.97525,0.75709
6062.04650,0.75594
6060.11776,0.75534
6058.18901,0.75512
6056.26026,0.75508
6054.33152,0.75534
6052.40277,0.75569
6050.47403,0.75582
6048.54528,0.75575
6046.61654,0.75558
6044.68779,0.75513
6042.75905,0.75467
6040.83030,0.75495
6038.90156,0.75567
6036.97281,0.75657
6035.04407,0.75727
6033.11532,0.75679
6031.18658,0.75581
6029.25783,0.75528
6027.32909,0.75428
6025.40034,0.75271
6023.47159,0.75176
6021.54285,0.75117
6019.61410,0.74970
6017.68536,0.74844
6015.75661,0.74883
6013.82787,0.74951
6011.89912,0.74904
6009.97038,0.74789
6008.04163,0.74664
6006.11289,0.74544
6004.18414,0.74448
6002.25540,0.74429
6000.32665,0.74531
5998.39791,0.74667
5996.46916,0.74680
5994.54041,0.74501
5992.61167,0.74220
5990.68292,0.74033
5988.75418,0.73961
5986.82543,0.73888
5984.89669,0.73810
5982.96794,0.73731
5981.03920,0.73671
5979.11045,0.73736
5977.18171,0.73905
5975.25296,0.73991
5973.32422,0.73931
5971.39547,0.73863
5969.46673,0.73908
5967.53798,0.74028
5965.60924,0.74040
5963.68049,0.73898
5961.75174,0.73814
5959.82300,0.73819
5957.89425,0.73751
5955.96551,0.73685
5954.03676,0.73727
5952.10802,0.73798
5950.17927,0.73786
5948.25053,0.73648
5946.32178,0.73516
5944.39304,0.73533
5942.46429,0.73649
5940.53555,0.73766
5938.60680,0.73828
5936.67806,0.73812
5934.74931,0.73800
5932.82057,0.73856
5930.89182,0.73878
5928.96307,0.73838
5927.03433,0.73807
5925.10558,0.73760
5923.17684,0.73734
5921.24809,0.73763
5919.31935,0.73723
5917.39060,0.73577
5915.46186,0.73429
5913.53311,0.73398
5911.60437,0.73506
5909.67562,0.73648
5907.74688,0.73743
5905.81813,0.73746
5903.88939,0.73644
5901.96064,0.73574
5900.03189,0.73621
5898.10315,0.73701
5896.17440,0.73694
5894.24566,0.73529
5892.31691,0.73385
5890.38817,0.73448
5888.45942,0.73506
5886.53068,0.73382
5884.60193,0.73261
5882.67319,0.73260
5880.74444,0.73335
5878.81570,0.73414
5876.88695,0.73397
5874.95821,0.73354
5873.02946,0.73330
5871.10072,0.73168
5869.17197,0.72972
5867.24322,0.73002
5865.31448,0.73194
5863.38573,0.73313
5861.45699,0.73347
5859.52824,0.73416
5857.59950,0.73525
5855.67075,0.73622
5853.74201,0.73631
5851.81326,0.73563
5849.88452,0.73537
5847.95577,0.73560
5846.02703,0.73554
5844.09828,0.73479
5842.16954,0.73387
5840.24079,0.73377
5838.31205,0.73395
5836.38330,0.73349
5834.45455,0.73313
5832.52581,0.73329
5830.59706,0.73356
5828.66832,0.73367
5826.73957,0.73368
5824.81083,0.73393
5822.88208,0.73384
5820.95334,0.73279
5819.02459,0.73147
5817.09585,0.73070
5815.16710,0.73120
5813.23836,0.73243
5811.30961,0.73302
5809.38087,0.73283
5807.45212,0.73226
5805.52337,0.73171
5803.59463,0.73124
5801.66588,0.73090
5799.73714,0.73085
5797.80839,0.73080
5795.87965,0.73078
5793.95090,0.73142
5792.02216,0.73233
5790.09341,0.73236
5788.16467,0.73188
5786.23592,0.73214
5784.30718,0.73313
5782.37843,0.73378
5780.44969,0.73335
5778.52094,0.73251
5776.59220,0.73266
5774.66345,0.73382
5772.73470,0.73442
5770.80596,0.73400
5768.87721,0.73339
5766.94847,0.73308
5765.01972,0.73391
5763.09098,0.73555
5761.16223,0.73593
5759.23349,0.73504
5757.30474,0.73478
5755.37600,0.73502
5753.44725,0.73465
5751.51851,0.73378
5749.58976,0.73318
5747.66102,0.73350
5745.73227,0.73431
5743.80352,0.73468
5741.87478,0.73434
5739.94603,0.73379
5738.01729,0.73376
5736.08854,0.73350
5734.15980,0.73256
5732.23105,0.73212
5730.30231,0.73239
5728.37356,0.73271
5726.44482,0.73289
5724.51607,0.73289
5722.58733,0.73287
5720.65858,0.73295
5718.72984,0.73270
5716.80109,0.73196
5714.87235,0.73115
5712.94360,0.73113
5711.01485,0.73258
5709.08611,0.73412
5707.15736,0.73400
5705.22862,0.73274
5703.29987,0.73169
5701.37113,0.73144
5699.44238,0.73197
5697.51364,0.73283
5695.58489,0.73347
5693.65615,0.73353
5691.72740,0.73319
5689.79866,0.73282
5687.86991,0.73239
5685.94117,0.73197
5684.01242,0.73144
5682.08368,0.73061
5680.15493,0.73065
5678.22618,0.73187
5676.29744,0.73274
5674.36869,0.73249
5672.43995,0.73164
5670.51120,0.73147
5668.58246,0.73225
5666.65371,0.73294
5664.72497,0.73336
5662.79622,0.73359
5660.86748,0.73323
5658.93873,0.73270
5657.00999,0.73261
5655.08124,0.73273
5653.15250,0.73272
5651.22375,0.73251
5649.29500,0.73263
5647.36626,0.73333
5645.43751,0.73376
5643.50877,0.73386
5641.58002,0.73377
5639.65128,0.73305
5637.72253,0.73273
5635.79379,0.73365
5633.86504,0.73441
5631.93630,0.73405
5630.00755,0.73373
5628.07881,0.73380
5626.15006,0.73342
5624.22132,0.73316
5622.29257,0.73352
5620.36383,0.73344
5618.43508,0.73260
5616.50633,0.73184
5614.57759,0.73173
5612.64884,0.73238
5610.72010,0.73306
5608.79135,0.73303
5606.86261,0.73308
5604.93386,0.73340
5603.00512,0.73326
5601.07637,0.73314
5599.14763,0.73277
5597.21888,0.73163
5595.29014,0.73084
5593.36139,0.73081
5591.43265,0.73097
5589.50390,0.73140
5587.57516,0.73215
5585.64641,0.73319
5583.71766,0.73426
5581.78892,0.73384
5579.86017,0.73231
5577.93143,0.73238
5576.00268,0.73369
5574.07394,0.73447
5572.14519,0.73468
5570.21645,0.73425
5568.28770,0.73338
5566.35896,0.73249
5564.43021,0.73145
5562.50147,0.73094
5560.57272,0.73188
5558.64398,0.73360
5556.71523,0.73502
5554.78648,0.73581
5552.85774,0.73558
5550.92899,0.73442
5549.00025,0.73350
5547.07150,0.73341
5545.14276,0.73351
5543.21401,0.73359
5541.28527,0.73393
5539.35652,0.73411
5537.42778,0.73413
5535.49903,0.73430
5533.57029,0.73463
5531.64154,0.73542
5529.71280,0.73627
5527.78405,0.73606
5525.85531,0.73472
5523.92656,0.73360
5521.99781,0.73365
5520.06907,0.73468
5518.14032,0.73570
5516.21158,0.73555
5514.28283,0.73486
5512.35409,0.73493
5510.42534,0.73562
5508.49660,0.73613
5506.56785,0.73598
5504.63911,0.73533
5502.71036,0.73462
5500.78162,0.73373
5498.85287,0.73307
5496.92413,0.73346
5494.99538,0.73431
5493.06664,0.73484
5491.13789,0.73517
5489.20914,0.73548
5487.28040,0.73621
5485.35165,0.73721
5483.42291,0.73743
5481.49416,0.73669
5479.56542,0.73566
5477.63667,0.73513
5475.70793,0.73541
5473.77918,0.73574
5471.85044,0.73579
5469.92169,0.73618
5467.99295,0.73628
5466.06420,0.73543
5464.13546,0.73521
5462.20671,0.73632
5460.27796,0.73684
5458.34922,0.73585
5456.42047,0.73529
5454.49173,0.73641
5452.56298,0.73777
5450.63424,0.73809
5448.70549,0.73803
5446.77675,0.73797
5444.84800,0.73731
5442.91926,0.73664
5440.99051,0.73701
5439.06177,0.73760
5437.13302,0.73779
5435.20428,0.73845
5433.27553,0.73900
5431.34679,0.73808
5429.41804,0.73686
5427.48929,0.73742
5425.56055,0.73900
5423.63180,0.73972
5421.70306,0.73957
5419.77431,0.73955
5417.84557,0.74014
5415.91682,0.74116
5413.98808,0.74215
5412.05933,0.74244
5410.13059,0.74196
5408.20184,0.74145
5406.27310,0.74085
5404.34435,0.74007
5402.41561,0.73983
5400.48686,0.74021
5398.55811,0.74073
5396.62937,0.74101
5394.70062,0.74111
5392.77188,0.74142
5390.84313,0.74161
5388.91439,0.74151
5386.98564,0.74192
5385.05690,0.74239
5383.12815,0.74150
5381.19941,0.73989
5379.27066,0.73921
5377.34192,0.73946
5375.41317,0.74000
5373.48443,0.74090
5371.55568,0.74136
5369.62694,0.74075
5367.69819,0.74049
5365.76944,0.74130
5363.84070,0.74197
5361.91195,0.74190
5359.98321,0.74159
5358.05446,0.74116
5356.12572,0.74052
5354.19697,0.73986
5352.26823,0.73887
5350.33948,0.73768
5348.41074,0.73724
5346.48199,0.73767
5344.55325,0.73822
5342.62450,0.73841
5340.69576,0.73824
5338.76701,0.73777
5336.83827,0.73669
5334.90952,0.73518
5332.98077,0.73437
5331.05203,0.73451
5329.12328,0.73429
5327.19454,0.73301
5325.26579,0.73142
5323.33705,0.73078
5321.40830,0.73103
5319.47956,0.73097
5317.55081,0.73051
5315.62207,0.72986
5313.69332,0.72888
5311.76458,0.72805
5309.83583,0.72724
5307.90709,0.72617
5305.97834,0.72529
5304.04959,0.72419
5302.12085,0.72237
5300.19210,0.72070
5298.26336,0.71987
5296.33461,0.71888
5294.40587,0.71694
5292.47712,0.71482
5290.54838,0.71337
5288.61963,0.71212
5286.69089,0.71022
5284.76214,0.70778
5282.83340,0.70558
5280.90465,0.70380
5278.97591,0.70203
5277.04716,0.70011
5275.11842,0.69815
5273.18967,0.69622
5271.26092,0.69410
5269.33218,0.69133
5267.40343,0.68830
5265.47469,0.68607
5263.54594,0.68467
5261.61720,0.68334
5259.68845,0.68193
5257.75971,0.68031
5255.83096,0.67807
5253.90222,0.67567
5251.97347,0.67363
5250.04473,0.67165
5248.11598,0.66999
5246.18724,0.66900
5244.25849,0.66795
5242.32975,0.66647
5240.40100,0.66521
5238.47225,0.66430
5236.54351,0.66322
5234.61476,0.66191
5232.68602,0.66066
5230.75727,0.65944
5228.82853,0.65817
5226.89978,0.65722
5224.97104,0.65676
5223.04229,0.65633
5221.11355,0.65574
5219.18480,0.65514
5217.25606,0.65424
5215.32731,0.65319
5213.39857,0.65260
5211.46982,0.65204
5209.54107,0.65122
5207.61233,0.65090
5205.68358,0.65102
5203.75484,0.65109
5201.82609,0.65121
5199.89735,0.65133
5197.96860,0.65095
5196.03986,0.64998
5194.11111,0.64877
5192.18237,0.64806
5190.25362,0.64860
5188.32488,0.64964
5186.39613,0.65003
5184.46739,0.65002
5182.53864,0.65024
5180.60990,0.65079
5178.68115,0.65130
5176.75240,0.65157
5174.82366,0.65170
5172.89491,0.65153
5170.96617,0.65089
5169.03742,0.65031
5167.10868,0.65068
5165.17993,0.65208
5163.25119,0.65322
5161.32244,0.65326
5159.39370,0.65288
5157.46495,0.65273
5155.53621,0.65284
5153.60746,0.65318
5151.67872,0.65325
5149.74997,0.65310
5147.82123,0.65356
5145.89248,0.65454
5143.96373,0.65536
5142.03499,0.65586
5140.10624,0.65621
5138.17750,0.65688
5136.24875,0.65796
5134.32001,0.65867
5132.39126,0.65870
5130.46252,0.65869
5128.53377,0.65885
5126.60503,0.65897
5124.67628,0.65922
5122.74754,0.65965
5120.81879,0.66024
5118.89005,0.66111
5116.96130,0.66228
5115.03255,0.66370
5113.10381,0.66465
5111.17506,0.66450
5109.24632,0.66442
5107.31757,0.66524
5105.38883,0.66620
5103.46008,0.66691
5101.53134,0.66738
5099.60259,0.66759
5097.67385,0.66770
5095.74510,0.66777
5093.81636,0.66814
5091.88761,0.66917
5089.95887,0.66979
5088.03012,0.66916
5086.10138,0.66844
5084.17263,0.66845
5082.24388,0.66901
5080.31514,0.67015
5078.38639,0.67140
5076.45765,0.67178
5074.52890,0.67142
5072.60016,0.67130
5070.67141,0.67169
5068.74267,0.67265
5066.81392,0.67408
5064.88518,0.67502
5062.95643,0.67496
5061.02769,0.67475
5059.09894,0.67493
5057.17020,0.67531
5055.24145,0.67578
5053.31270,0.67622
5051.38396,0.67632
5049.45521,0.67618
5047.52647,0.67647
5045.59772,0.67716
5043.66898,0.67746
5041.74023,0.67744
5039.81149,0.67773
5037.88274,0.67818
5035.95400,0.67828
5034.02525,0.67824
5032.09651,0.67847
5030.16776,0.67903
5028.23902,0.67974
5026.31027,0.68008
5024.38153,0.68012
5022.45278,0.68074
5020.52403,0.68156
5018.59529,0.68147
5016.66654,0.68055
5014.73780,0.68003
5012.80905,0.68069
5010.88031,0.68153
5008.95156,0.68152
5007.02282,0.68130
5005.09407,0.68147
5003.16533,0.68167
5001.23658,0.68194
4999.30784,0.68227
4997.37909,0.68232
4995.45035,0.68232
4993.52160,0.68232
4991.59286,0.68198
4989.66411,0.68142
4987.73536,0.68119
4985.80662,0.68139
4983.87787,0.68162
4981.94913,0.68202
4980.02038,0.68258
4978.09164,0.68254
4976.16289,0.68166
4974.23415,0.68061
4972.30540,0.68028
4970.37666,0.68030
4968.44791,0.67977
4966.51917,0.67942
4964.59042,0.67972
4962.66168,0.67980
4960.73293,0.67948
4958.80418,0.67874
4956.87544,0.67743
4954.94669,0.67638
4953.01795,0.67594
4951.08920,0.67561
4949.16046,0.67521
4947.23171,0.67457
4945.30297,0.67358
4943.37422,0.67256
4941.44548,0.67184
4939.51673,0.67125
4937.58799,0.67005
4935.65924,0.66820
4933.73050,0.66679
4931.80175,0.66634
4929.87301,0.66641
4927.94426,0.66628
4926.01551,0.66573
4924.08677,0.66521
4922.15802,0.66464
4920.22928,0.66361
4918.30053,0.66260
4916.37179,0.66188
4914.44304,0.66090
4912.51430,0.65968
4910.58555,0.65893
4908.65681,0.65852
4906.72806,0.65787
4904.79932,0.65698
4902.87057,0.65608
4900.94183,0.65524
4899.01308,0.65450
4897.08434,0.65373
4895.15559,0.65265
4893.22684,0.65139
4891.29810,0.65013
4889.36935,0.64887
4887.44061,0.64812
4885.51186,0.64788
4883.58312,0.64744
4881.65437,0.64689
4879.72563,0.64646
4877.79688,0.64577
4875.86814,0.64500
4873.93939,0.64449
4872.01065,0.64381
4870.08190,0.64287
4868.15316,0.64224
4866.22441,0.64164
4864.29566,0.64024
4862.36692,0.63831
4860.43817,0.63697
4858.50943,0.63668
4856.58068,0.63647
4854.65194,0.63544
4852.72319,0.63403
4850.79445,0.63287
4848.86570,0.63211
4846.93696,0.63197
4845.00821,0.63222
4843.07947,0.63208
4841.15072,0.63132
4839.22198,0.63035
4837.29323,0.62968
4835.36449,0.62945
4833.43574,0.62919
4831.50699,0.62859
4829.57825,0.62763
4827.64950,0.62645
4825.72076,0.62531
4823.79201,0.62441
4821.86327,0.62413
4819.93452,0.62441
4818.00578,0.62447
4816.07703,0.62384
4814.14829,0.62278
4812.21954,0.62198
4810.29080,0.62172
4808.36205,0.62147
4806.43331,0.62099
4804.50456,0.62068
4802.57582,0.62039
4800.64707,0.61979
4798.71832,0.61925
4796.78958,0.61902
4794.86083,0.61903
4792.93209,0.61918
4791.00334,0.61908
4789.07460,0.61854
4787.14585,0.61798
4785.21711,0.61759
4783.28836,0.61733
4781.35962,0.61712
4779.43087,0.61683
4777.50213,0.61669
4775.57338,0.61672
4773.64464,0.61641
4771.71589,0.61576
4769.78714,0.61516
4767.85840,0.61476
4765.92965,0.61448
4764.00091,0.61423
4762.07216,0.61412
4760.14342,0.61397
4758.21467,0.61359
4756.28593,0.61368
4754.35718,0.61440
4752.42844,0.61456
4750.49969,0.61385
4748.57095,0.61326
4746.64220,0.61313
4744.71346,0.61313
4742.78471,0.61318
4740.85597,0.61308
4738.92722,0.61288
4736.99847,0.61300
4735.06973,0.61317
4733.14098,0.61283
4731.21224,0.61230
4729.28349,0.61234
4727.35475,0.61295
4725.42600,0.61321
4723.49726,0.61287
4721.56851,0.61258
4719.63977,0.61257
4717.71102,0.61250
4715.78228,0.61233
4713.85353,0.61243
4711.92479,0.61275
4709.99604,0.61277
4708.06729,0.61232
4706.13855,0.61173
4704.20980,0.61134
4702.28106,0.61138
4700.35231,0.61178
4698.42357,0.61199
4696.49482,0.61183
4694.56608,0.61161
4692.63733,0.61118
4690.70859,0.61020
4688.77984,0.60924
4686.85110,0.60907
4684.92235,0.60947
4682.99361,0.60956
4681.06486,0.60884
4679.13612,0.60752
4677.20737,0.60625
4675.27862,0.60525
4673.34988,0.60434
4671.42113,0.60368
4669.49239,0.60342
4667.56364,0.60329
4665.63490,0.60326
4663.70615,0.60364
4661.77741,0.60428
4659.84866,0.60474
4657.91992,0.60492
4655.99117,0.60506
4654.06243,0.60541
4652.13368,0.60577
4650.20494,0.60589
4648.27619,0.60565
4646.34745,0.60505
4644.41870,0.60451
4642.48995,0.60432
4640.56121,0.60422
4638.63246,0.60364
4636.70372,0.60266
4634.77497,0.60194
4632.84623,0.60139
4630.91748,0.60077
4628.98874,0.60021
4627.05999,0.59950
4625.13125,0.59897
4623.20250,0.59891
4621.27376,0.59878
4619.34501,0.59856
4617.41627,0.59873
4615.48752,0.59906
4613.55877,0.59919
4611.63003,0.59957
4609.70128,0.60031
4607.77254,0.60109
4605.84379,0.60200
4603.91505,0.60340
4601.98630,0.60513
4600.05756,0.60651
4598.12881,0.60735
4596.20007,0.60807
4594.27132,0.60895
4592.34258,0.60992
4590.41383,0.61057
4588.48509,0.61091
4586.55634,0.61142
4584.62760,0.61193
4582.69885,0.61203
4580.77010,0.61181
4578.84136,0.61126
4576.91261,0.61042
4574.98387,0.60967
4573.05512,0.60915
4571.12638,0.60903
4569.19763,0.60949
4567.26889,0.61012
4565.34014,0.61066
4563.41140,0.61100
4561.48265,0.61083
4559.55391,0.61044
4557.62516,0.61055
4555.69642,0.61124
4553.76767,0.61184
4551.83893,0.61179
4549.91018,0.61143
4547.98143,0.61137
4546.05269,0.61117
4544.12394,0.61031
4542.19520,0.60901
4540.26645,0.60737
4538.33771,0.60524
4536.40896,0.60296
4534.48022,0.60071
4532.55147,0.59789
4530.62273,0.59484
4528.69398,0.59299
4526.76524,0.59307
4524.83649,0.59517
4522.90775,0.59902
4520.97900,0.60355
4519.05025,0.60765
4517.12151,0.61108
4515.19276,0.61392
4513.26402,0.61637
4511.33527,0.61835
4509.40653,0.61950
4507.47778,0.62000
4505.54904,0.62049
4503.62029,0.62117
4501.69155,0.62174
4499.76280,0.62207
4497.83406,0.62202
4495.90531,0.62158
4493.97657,0.62102
4492.04782,0.62039
4490.11908,0.61968
4488.19033,0.61904
4486.26158,0.61839
4484.33284,0.61747
4482.40409,0.61625
4480.47535,0.61509
4478.54660,0.61434
4476.61786,0.61376
4474.68911,0.61293
4472.76037,0.61172
4470.83162,0.61008
4468.90288,0.60816
4466.97413,0.60635
4465.04539,0.60472
4463.11664,0.60322
4461.18790,0.60171
4459.25915,0.59968
4457.33041,0.59716
4455.40166,0.59496
4453.47291,0.59341
4451.54417,0.59196
4449.61542,0.59035
4447.68668,0.58864
4445.75793,0.58659
4443.82919,0.58439
4441.90044,0.58259
4439.97170,0.58114
4438.04295,0.57959
4436.11421,0.57779
4434.18546,0.57588
4432.25672,0.57410
4430.32797,0.57238
4428.39923,0.57040
4426.47048,0.56811
4424.54173,0.56590
4422.61299,0.56397
4420.68424,0.56213
4418.75550,0.56059
4416.82675,0.55936
4414.89801,0.55779
4412.96926,0.55580
4411.04052,0.55417
4409.11177,0.55289
4407.18303,0.55153
4405.25428,0.55043
4403.32554,0.54980
4401.39679,0.54932
4399.46805,0.54879
4397.53930,0.54815
4395.61056,0.54752
4393.68181,0.54714
4391.75306,0.54682
4389.82432,0.54628
4387.89557,0.54557
4385.96683,0.54491
4384.03808,0.54433
4382.10934,0.54363
4380.18059,0.54294
4378.25185,0.54247
4376.32310,0.54226
4374.39436,0.54237
4372.46561,0.54266
4370.53687,0.54274
4368.60812,0.54222
4366.67938,0.54127
4364.75063,0.54049
4362.82189,0.54006
4360.89314,0.53955
4358.96439,0.53874
4357.03565,0.53773
4355.10690,0.53650
4353.17816,0.53501
4351.24941,0.53363
4349.32067,0.53289
4347.39192,0.53286
4345.46318,0.53299
4343.53443,0.53288
4341.60569,0.53245
4339.67694,0.53175
4337.74820,0.53109
4335.81945,0.53075
4333.89071,0.53052
4331.96196,0.53031
4330.03321,0.53025
4328.10447,0.53025
4326.17572,0.53021
4324.24698,0.53020
4322.31823,0.53014
4320.38949,0.53005
4318.46074,0.53008
4316.53200,0.52989
4314.60325,0.52915
4312.67451,0.52844
4310.74576,0.52822
4308.81702,0.52804
4306.88827,0.52751
4304.95953,0.52676
4303.03078,0.52581
4301.10204,0.52467
4299.17329,0.52369
4297.24454,0.52312
4295.31580,0.52267
4293.38705,0.52213
4291.45831,0.52153
4289.52956,0.52074
4287.60082,0.51991
4285.67207,0.51923
4283.74333,0.51862
4281.81458,0.51818
4279.88584,0.51793
4277.95709,0.51760
4276.02835,0.51717
4274.09960,0.51687
4272.17086,0.51676
4270.24211,0.51659
4268.31336,0.51625
4266.38462,0.51574
4264.45587,0.51500
4262.52713,0.51442
4260.59838,0.51437
4258.66964,0.51467
4256.74089,0.51473
4254.81215,0.51470
4252.88340,0.51521
4250.95466,0.51592
4249.02591,0.51642
4247.09717,0.51715
4245.16842,0.51815
4243.23968,0.51899
4241.31093,0.51958
4239.38219,0.52011
4237.45344,0.52080
4235.52469,0.52165
4233.59595,0.52244
4231.66720,0.52290
4229.73846,0.52319
4227.80971,0.52367
4225.88097,0.52411
4223.95222,0.52421
4222.02348,0.52433
4220.09473,0.52478
4218.16599,0.52495
4216.23724,0.52435
4214.30850,0.52360
4212.37975,0.52331
4210.45101,0.52356
4208.52226,0.52421
4206.59352,0.52472
4204.66477,0.52461
4202.73602,0.52409
4200.80728,0.52364
4198.87853,0.52336
4196.94979,0.52314
4195.02104,0.52315
4193.09230,0.52348
4191.16355,0.52384
4189.23481,0.52396
4187.30606,0.52405
4185.37732,0.52435
4183.44857,0.52474
4181.51983,0.52496
4179.59108,0.52524
4177.66234,0.52578
4175.73359,0.52625
4173.80484,0.52654
4171.87610,0.52696
4169.94735,0.52762
4168.01861,0.52826
4166.08986,0.52849
4164.16112,0.52848
4162.23237,0.52879
4160.30363,0.52936
4158.37488,0.52967
4156.44614,0.52952
4154.51739,0.52903
4152.58865,0.52850
4150.65990,0.52828
4148.73116,0.52840
4146.80241,0.52836
4144.87367,0.52788
4142.94492,0.52705
4141.01617,0.52606
4139.08743,0.52512
4137.15868,0.52424
4135.22994,0.52331
4133.30119,0.52224
4131.37245,0.52112
4129.44370,0.51989
4127.51496,0.51833
4125.58621,0.51674
4123.65747,0.51572
4121.72872,0.51512
4119.79998,0.51436
4117.87123,0.51325
4115.94249,0.51181
4114.01374,0.51014
4112.08500,0.50847
4110.15625,0.50689
4108.22750,0.50530
4106.29876,0.50378
4104.37001,0.50256
4102.44127,0.50148
4100.51252,0.50006
4098.58378,0.49837
4096.65503,0.49696
4094.72629,0.49573
4092.79754,0.49424
4090.86880,0.49271
4088.94005,0.49132
4087.01131,0.48984
4085.08256,0.48828
4083.15382,0.48664
4081.22507,0.48495
4079.29632,0.48338
4077.36758,0.48189
4075.43883,0.48019
4073.51009,0.47832
4071.58134,0.47661
4069.65260,0.47489
4067.72385,0.47280
4065.79511,0.47080
4063.86636,0.46942
4061.93762,0.46829
4060.00887,0.46703
4058.08013,0.46581
4056.15138,0.46467
4054.22264,0.46341
4052.29389,0.46219
4050.36515,0.46120
4048.43640,0.46035
4046.50765,0.45930
4044.57891,0.45793
4042.65016,0.45673
4040.72142,0.45597
4038.79267,0.45531
4036.86393,0.45465
4034.93518,0.45422
4033.00644,0.45387
4031.07769,0.45342
4029.14895,0.45319
4027.22020,0.45348
4025.29146,0.45413
4023.36271,0.45454
4021.43397,0.45440
4019.50522,0.45410
4017.57648,0.45419
4015.64773,0.45452
4013.71898,0.45481
4011.79024,0.45501
4009.86149,0.45501
4007.93275,0.45477
4006.00400,0.45451
4004.07526,0.45443
4002.14651,0.45472
4000.21777,0.45526
3998.28902,0.45554
3996.36028,0.45554
3994.43153,0.45562
3992.50279,0.45578
3990.57404,0.45590
3988.64530,0.45602
3986.71655,0.45627
3984.78780,0.45658
3982.85906,0.45655
3980.93031,0.45617
3979.00157,0.45595
3977.07282,0.45608
3975.14408,0.45630
3973.21533,0.45651
3971.28659,0.45669
3969.35784,0.45681
3967.42910,0.45685
3965.50035,0.45676
3963.57161,0.45662
3961.64286,0.45661
3959.71412,0.45683
3957.78537,0.45714
3955.85663,0.45718
3953.92788,0.45703
3951.99913,0.45704
3950.07039,0.45702
3948.14164,0.45674
3946.21290,0.45669
3944.28415,0.45716
3942.35541,0.45767
3940.42666,0.45786
3938.49792,0.45802
3936.56917,0.45842
3934.64043,0.45907
3932.71168,0.45996
3930.78294,0.46101
3928.85419,0.46194
3926.92545,0.46275
3924.99670,0.46386
3923.06795,0.46530
3921.13921,0.46655
3919.21046,0.46746
3917.28172,0.46835
3915.35297,0.46952
3913.42423,0.47080
3911.49548,0.47179
3909.56674,0.47238
3907.63799,0.47283
3905.70925,0.47334
3903.78050,0.47375
3901.85176,0.47400
3899.92301,0.47423
3897.99427,0.47452
3896.06552,0.47489
3894.13678,0.47544
3892.20803,0.47609
3890.27928,0.47644
3888.35054,0.47644
3886.42179,0.47647
3884.49305,0.47663
3882.56430,0.47677
3880.63556,0.47691
3878.70681,0.47722
3876.77807,0.47772
3874.84932,0.47809
3872.92058,0.47801
3870.99183,0.47778
3869.06309,0.47789
3867.13434,0.47799
3865.20560,0.47806
3863.27685,0.47869
3861.34811,0.47965
3859.41936,0.48023
3857.49061,0.48035
3855.56187,0.48027
3853.63312,0.48015
3851.70438,0.48001
3849.77563,0.47996
3847.84689,0.48017
3845.91814,0.48060
3843.98940,0.48094
3842.06065,0.48090
3840.13191,0.48051
3838.20316,0.48015
3836.27442,0.48015
3834.34567,0.48027
3832.41693,0.48024
3830.48818,0.48017
3828.55943,0.48016
3826.63069,0.48017
3824.70194,0.48000
3822.77320,0.47961
3820.84445,0.47927
3818.91571,0.47920
3816.98696,0.47927
3815.05822,0.47914
3813.12947,0.47851
3811.20073,0.47774
3809.27198,0.47722
3807.34324,0.47676
3805.41449,0.47593
3803.48575,0.47477
3801.55700,0.47366
3799.62826,0.47283
3797.69951,0.47221
3795.77076,0.47158
3793.84202,0.47069
3791.91327,0.46954
3789.98453,0.46840
3788.05578,0.46735
3786.12704,0.46618
3784.19829,0.46484
3782.26955,0.46357
3780.34080,0.46242
3778.41206,0.46116
3776.48331,0.45969
3774.55457,0.45821
3772.62582,0.45659
3770.69708,0.45465
3768.76833,0.45265
3766.83959,0.45084
3764.91084,0.44902
3762.98209,0.44711
3761.05335,0.44481
3759.12460,0.44187
3757.19586,0.43897
3755.26711,0.43628
3753.33837,0.43314
3751.40962,0.42922
3749.48088,0.42501
3747.55213,0.42132
3745.62339,0.41718
3743.69464,0.41167
3741.76590,0.40651
3739.83715,0.40195
3737.90841,0.39649
3735.97966,0.38971
3734.05091,0.38207
3732.12217,0.37355
3730.19342,0.36470
3728.26468,0.35565
3726.33593,0.34515
3724.40719,0.33300
3722.47844,0.31961
3720.54970,0.30448
3718.62095,0.28751
3716.69221,0.26961
3714.76346,0.25156
3712.83472,0.23246
3710.90597,0.21265
3708.97723,0.19453
3707.04848,0.17787
3705.11974,0.16151
3703.19099,0.14497
3701.26224,0.12882
3699.33350,0.11493
3697.40475,0.10475
3695.47601,0.09813
3693.54726,0.09466
3691.61852,0.09416
3689.68977,0.09604
3687.76103,0.09979
3685.83228,0.10463
3683.90354,0.10987
3681.97479,0.11451
3680.04605,0.11744
3678.11730,0.11795
3676.18856,0.11587
3674.25981,0.11316
3672.33107,0.11152
3670.40232,0.11041
3668.47357,0.10992
3666.54483,0.11065
3664.61608,0.11210
3662.68734,0.11290
3660.75859,0.11199
3658.82985,0.10931
3656.90110,0.10536
3654.97236,0.10133
3653.04361,0.09905
3651.11487,0.09916
3649.18612,0.10117
3647.25738,0.10438
3645.32863,0.10766
3643.39989,0.11049
3641.47114,0.11284
3639.54239,0.11459
3637.61365,0.11546
3635.68490,0.11528
3633.75616,0.11415
3631.82741,0.11205
3629.89867,0.10845
3627.96992,0.10294
3626.04118,0.09668
3624.11243,0.09046
3622.18369,0.08499
3620.25494,0.08306
3618.32620,0.08752
3616.39745,0.09646
3614.46871,0.10542
3612.53996,0.11225
3610.61122,0.11688
3608.68247,0.12005
3606.75372,0.12226
3604.82498,0.12374
3602.89623,0.12478
3600.96749,0.12551
3599.03874,0.12595
3597.11000,0.12610
3595.18125,0.12592
3593.25251,0.12549
3591.32376,0.12503
3589.39502,0.12474
3587.46627,0.12447
3585.53753,0.12409
3583.60878,0.12365
3581.68004,0.12319
3579.75129,0.12282
3577.82254,0.12258
3575.89380,0.12232
3573.96505,0.12194
3572.03631,0.12149
3570.10756,0.12102
3568.17882,0.12071
3566.25007,0.12054
3564.32133,0.12028
3562.39258,0.12004
3560.46384,0.11998
3558.53509,0.11986
3556.60635,0.11957
3554.67760,0.11942
3552.74886,0.11952
3550.82011,0.11970
3548.89137,0.11972
3546.96262,0.11945
3545.03387,0.11909
3543.10513,0.11873
3541.17638,0.11830
3539.24764,0.11799
3537.31889,0.11801
3535.39015,0.11821
3533.46140,0.11828
3531.53266,0.11808
3529.60391,0.11775
3527.67517,0.11747
3525.74642,0.11713
3523.81768,0.11673
3521.88893,0.11644
3519.96019,0.11622
3518.03144,0.11598
3516.10270,0.11567
3514.17395,0.11537
3512.24520,0.11505
3510.31646,0.11441
3508.38771,0.11373
3506.45897,0.11355
3504.53022,0.11360
3502.60148,0.11336
3500.67273,0.11289
3498.74399,0.11252
3496.81524,0.11234
3494.88650,0.11221
3492.95775,0.11187
3491.02901,0.11110
3489.10026,0.11013
3487.17152,0.10926
3485.24277,0.10846
3483.31402,0.10771
3481.38528,0.10718
3479.45653,0.10692
3477.52779,0.10682
3475.59904,0.10690
3473.67030,0.10718
3471.74155,0.10734
3469.81281,0.10711
3467.88406,0.10655
3465.95532,0.10596
3464.02657,0.10558
3462.09783,0.10532
3460.16908,0.10507
3458.24034,0.10482
3456.31159,0.10438
3454.38285,0.10386
3452.45410,0.10370
3450.52535,0.10359
3448.59661,0.10304
3446.66786,0.10226
3444.73912,0.10174
3442.81037,0.10155
3440.88163,0.10149
3438.95288,0.10143
3437.02414,0.10135
3435.09539,0.10134
3433.16665,0.10146
3431.23790,0.10148
3429.30916,0.10136
3427.38041,0.10132
3425.45167,0.10134
3423.52292,0.10115
3421.59418,0.10087
3419.66543,0.10081
3417.73668,0.10088
3415.80794,0.10113
3413.87919,0.10167
3411.95045,0.10215
3410.02170,0.10229
3408.09296,0.10200
3406.16421,0.10164
3404.23547,0.10185
3402.30672,0.10250
3400.37798,0.10284
3398.44923,0.10269
3396.52049,0.10248
3394.59174,0.10265
3392.66300,0.10303
3390.73425,0.10315
3388.80550,0.10294
3386.87676,0.10291
3384.94801,0.10330
3383.01927,0.10366
3381.09052,0.10367
3379.16178,0.10364
3377.23303,0.10387
3375.30429,0.10414
3373.37554,0.10425
3371.44680,0.10445
3369.51805,0.10491
3367.58931,0.10541
3365.66056,0.10564
3363.73182,0.10583
3361.80307,0.10625
3359.87433,0.10650
3357.94558,0.10648
3356.01683,0.10676
3354.08809,0.10740
3352.15934,0.10788
3350.23060,0.10796
3348.30185,0.10779
3346.37311,0.10773
3344.44436,0.10800
3342.51562,0.10829
3340.58687,0.10831
3338.65813,0.10828
3336.72938,0.10851
3334.80064,0.10891
3332.87189,0.10918
3330.94315,0.10949
3329.01440,0.11025
3327.08566,0.11106
3325.15691,0.11134
3323.22816,0.11119
3321.29942,0.11111
3319.37067,0.11137
3317.44193,0.11187
3315.51318,0.11228
3313.58444,0.11249
3311.65569,0.11275
3309.72695,0.11315
3307.79820,0.11364
3305.86946,0.11416
3303.94071,0.11448
3302.01197,0.11461
3300.08322,0.11498
3298.15448,0.11548
3296.22573,0.11565
3294.29698,0.11555
3292.36824,0.11553
3290.43949,0.11576
3288.51075,0.11634
3286.58200,0.11721
3284.65326,0.11788
3282.72451,0.11810
3280.79577,0.11830
3278.86702,0.11885
3276.93828,0.11957
3275.00953,0.12015
3273.08079,0.12047
3271.15204,0.12064
3269.22330,0.12081
3267.29455,0.12117
3265.36581,0.12208
3263.43706,0.12319
3261.50831,0.12386
3259.57957,0.12430
3257.65082,0.12488
3255.72208,0.12540
3253.79333,0.12555
3251.86459,0.12558
3249.93584,0.12600
3248.00710,0.12673
3246.07835,0.12722
3244.14961,0.12718
3242.22086,0.12721
3240.29212,0.12788
3238.36337,0.12870
3236.43463,0.12916
3234.50588,0.12955
3232.57713,0.13005
3230.64839,0.13050
3228.71964,0.13089
3226.79090,0.13134
3224.86215,0.13184
3222.93341,0.13227
3221.00466,0.13262
3219.07592,0.13301
3217.14717,0.13351
3215.21843,0.13420
3213.28968,0.13490
3211.36094,0.13540
3209.43219,0.13576
3207.50345,0.13624
3205.57470,0.13683
3203.64596,0.13741
3201.71721,0.13799
3199.78846,0.13855
3197.85972,0.13913
3195.93097,0.13979
3194.00223,0.14033
3192.07348,0.14059
3190.14474,0.14085
3188.21599,0.14156
3186.28725,0.14261
3184.35850,0.14350
3182.42976,0.14414
3180.50101,0.14462
3178.57227,0.14493
3176.64352,0.14506
3174.71478,0.14523
3172.78603,0.14594
3170.85729,0.14702
3168.92854,0.14770
3166.99979,0.14781
3165.07105,0.14802
3163.14230,0.14884
3161.21356,0.14992
3159.28481,0.15063
3157.35607,0.15092
3155.42732,0.15127
3153.49858,0.15200
3151.56983,0.15295
3149.64109,0.15391
3147.71234,0.15490
3145.78360,0.15567
3143.85485,0.15602
3141.92611,0.15628
3139.99736,0.15674
3138.06861,0.15717
3136.13987,0.15751
3134.21112,0.15806
3132.28238,0.15874
3130.35363,0.15926
3128.42489,0.15984
3126.49614,0.16057
3124.56740,0.16114
3122.63865,0.16142
3120.70991,0.16167
3118.78116,0.16217
3116.85242,0.16265
3114.92367,0.16267
3112.99493,0.16250
3111.06618,0.16240
3109.13744,0.16211
3107.20869,0.16176
3105.27994,0.16190
3103.35120,0.16252
3101.42245,0.16327
3099.49371,0.16380
3097.56496,0.16402
3095.63622,0.16403
3093.70747,0.16373
3091.77873,0.16296
3089.84998,0.16167
3087.92124,0.16006
3085.99249,0.15866
3084.06375,0.15814
3082.13500,0.15884
3080.20626,0.16041
3078.27751,0.16204
3076.34877,0.16316
3074.42002,0.16362
3072.49127,0.16321
3070.56253,0.16199
3068.63378,0.16036
3066.70504,0.15848
3064.77629,0.15644
3062.84755,0.15494
3060.91880,0.15462
3058.99006,0.15560
3057.06131,0.15773
3055.13257,0.16045
3053.20382,0.16298
3051.27508,0.16493
3049.34633,0.16637
3047.41759,0.16730
3045.48884,0.16762
3043.56009,0.16735
3041.63135,0.16628
3039.70260,0.16410
3037.77386,0.16083
3035.84511,0.15658
3033.91637,0.15141
3031.98762,0.14597
3030.05888,0.14154
3028.13013,0.13923
3026.20139,0.13962
3024.27264,0.14277
3022.34390,0.14781
3020.41515,0.15303
3018.48641,0.15727
3016.55766,0.16028
3014.62892,0.16197
3012.70017,0.16231
3010.77142,0.16146
3008.84268,0.15966
3006.91393,0.15724
3004.98519,0.15453
3003.05644,0.15190
3001.12770,0.14959
2999.19895,0.14735
2997.27021,0.14451
2995.34146,0.14070
2993.41272,0.13598
2991.48397,0.13067
2989.55523,0.12544
2987.62648,0.12082
2985.69774,0.11688
2983.76899,0.11361
2981.84025,0.11082
2979.91150,0.10813
2977.98275,0.10533
2976.05401,0.10241
2974.12526,0.09943
2972.19652,0.09624
2970.26777,0.09274
2968.33903,0.08934
2966.41028,0.08636
2964.48154,0.08355
2962.55279,0.08108
2960.62405,0.07945
2958.69530,0.07879
2956.76656,0.07897
2954.83781,0.07978
2952.90907,0.08097
2950.98032,0.08218
2949.05157,0.08313
2947.12283,0.08374
2945.19408,0.08403
2943.26534,0.08389
2941.33659,0.08334
2939.40785,0.08255
2937.47910,0.08150
2935.55036,0.08034
2933.62161,0.07950
2931.69287,0.07923
2929.76412,0.07942
2927.83538,0.08000
2925.90663,0.08102
2923.97789,0.08231
2922.04914,0.08357
2920.12040,0.08473
2918.19165,0.08612
2916.26290,0.08792
2914.33416,0.08980
2912.40541,0.09158
2910.47667,0.09345
2908.54792,0.09529
2906.61918,0.09683
2904.69043,0.09810
2902.76169,0.09932
2900.83294,0.10040
2898.90420,0.10130
2896.97545,0.10204
2895.04671,0.10255
2893.11796,0.10300
2891.18922,0.10351
2889.26047,0.10369
2887.33172,0.10311
2885.40298,0.10166
2883.47423,0.09944
2881.54549,0.09675
2879.61674,0.09398
2877.68800,0.09146
2875.75925,0.08962
2873.83051,0.08892
2871.90176,0.08952
2869.97302,0.09093
2868.04427,0.09266
2866.11553,0.09464
2864.18678,0.09682
2862.25804,0.09894
2860.32929,0.10088
2858.40055,0.10278
2856.47180,0.10470
2854.54305,0.10658
2852.61431,0.10865
2850.68556,0.11138
2848.75682,0.11503
2846.82807,0.11955
2844.89933,0.12486
2842.97058,0.13085
2841.04184,0.13728
2839.11309,0.14384
2837.18435,0.15010
2835.25560,0.15589
2833.32686,0.16133
2831.39811,0.16651
2829.46937,0.17137
2827.54062,0.17571
2825.61188,0.17939
2823.68313,0.18262
2821.75438,0.18572
2819.82564,0.18869
2817.89689,0.19127
2815.96815,0.19347
2814.03940,0.19563
2812.11066,0.19776
2810.18191,0.19975
2808.25317,0.20176
2806.32442,0.20371
2804.39568,0.20533
2802.46693,0.20658
2800.53819,0.20778
2798.60944,0.20917
2796.68070,0.21069
2794.75195,0.21241
2792.82320,0.21435
2790.89446,0.21601
2788.96571,0.21711
2787.03697,0.21822
2785.10822,0.21960
2783.17948,0.22078
2781.25073,0.22167
2779.32199,0.22270
2777.39324,0.22390
2775.46450,0.22502
2773.53575,0.22594
2771.60701,0.22659
2769.67826,0.22702
2767.74952,0.22750
2765.82077,0.22820
2763.89203,0.22907
2761.96328,0.22985
2760.03453,0.23043
2758.10579,0.23094
2756.17704,0.23137
2754.24830,0.23158
2752.31955,0.23154
2750.39081,0.23154
2748.46206,0.23171
2746.53332,0.23188
2744.60457,0.23200
2742.67583,0.23209
2740.74708,0.23216
2738.81834,0.23221
2736.88959,0.23234
2734.96085,0.23262
2733.03210,0.23303
2731.10336,0.23354
2729.17461,0.23416
2727.24586,0.23489
2725.31712,0.23567
2723.38837,0.23635
2721.45963,0.23690
2719.53088,0.23737
2717.60214,0.23787
2715.67339,0.23839
2713.74465,0.23886
2711.81590,0.23944
2709.88716,0.24027
2707.95841,0.24113
2706.02967,0.24185
2704.10092,0.24255
2702.17218,0.24337
2700.24343,0.24425
2698.31468,0.24502
2696.38594,0.24567
2694.45719,0.24629
2692.52845,0.24695
2690.59970,0.24765
2688.67096,0.24825
2686.74221,0.24877
2684.81347,0.24932
2682.88472,0.24985
2680.95598,0.25036
2679.02723,0.25078
2677.09849,0.25118
2675.16974,0.25160
2673.24100,0.25167
2671.31225,0.25142
2669.38351,0.25133
2667.45476,0.25164
2665.52601,0.25201
2663.59727,0.25208
2661.66852,0.25204
2659.73978,0.25216
2657.81103,0.25233
2655.88229,0.25236
2653.95354,0.25231
2652.02480,0.25229
2650.09605,0.25211
2648.16731,0.25159
2646.23856,0.25085
2644.30982,0.25001
2642.38107,0.24899
2640.45233,0.24767
2638.52358,0.24600
2636.59484,0.24385
2634.66609,0.24117
2632.73734,0.23811
2630.80860,0.23497
2628.87985,0.23192
2626.95111,0.22896
2625.02236,0.22622
2623.09362,0.22376
2621.16487,0.22143
2619.23613,0.21895
2617.30738,0.21614
2615.37864,0.21318
2613.44989,0.21020
2611.52115,0.20698
2609.59240,0.20350
2607.66366,0.20025
2605.73491,0.19752
2603.80616,0.19522
2601.87742,0.19327
2599.94867,0.19160
2598.01993,0.19014
2596.09118,0.18889
2594.16244,0.18788
2592.23369,0.18705
2590.30495,0.18620
2588.37620,0.18529
2586.44746,0.18460
2584.51871,0.18424
2582.58997,0.18407
2580.66122,0.18384
2578.73248,0.18339
2576.80373,0.18280
2574.87499,0.18227
2572.94624,0.18193
2571.01749,0.18147
2569.08875,0.18076
2567.16000,0.17996
2565.23126,0.17916
2563.30251,0.17828
2561.37377,0.17722
2559.44502,0.17592
2557.51628,0.17454
2555.58753,0.17302
2553.65879,0.17124
2551.73004,0.16932
2549.80130,0.16737
2547.87255,0.16541
2545.94381,0.16362
2544.01506,0.16186
2542.08631,0.15962
2540.15757,0.15632
2538.22882,0.15139
2536.30008,0.14474
2534.37133,0.13721
2532.44259,0.12970
2530.51384,0.12257
2528.58510,0.11612
2526.65635,0.11088
2524.72761,0.10684
2522.79886,0.10358
2520.87012,0.10101
2518.94137,0.09917
2517.01263,0.09795
2515.08388,0.09729
2513.15514,0.09729
2511.22639,0.09807
2509.29764,0.09989
2507.36890,0.10313
2505.44015,0.10788
2503.51141,0.11406
2501.58266,0.12152
2499.65392,0.13003
2497.72517,0.13931
2495.79643,0.14894
2493.86768,0.15865
2491.93894,0.16830
2490.01019,0.17766
2488.08145,0.18639
2486.15270,0.19438
2484.22396,0.20184
2482.29521,0.20911
2480.36647,0.21637
2478.43772,0.22354
2476.50897,0.23052
2474.58023,0.23729
2472.65148,0.24362
2470.72274,0.24925
2468.79399,0.25410
2466.86525,0.25825
2464.93650,0.26181
2463.00776,0.26484
2461.07901,0.26735
2459.15027,0.26948
2457.22152,0.27157
2455.29278,0.27378
2453.36403,0.27595
2451.43529,0.27778
2449.50654,0.27927
2447.57779,0.28067
2445.64905,0.28210
2443.72030,0.28346
2441.79156,0.28464
2439.86281,0.28566
2437.93407,0.28665
2436.00532,0.28767
2434.07658,0.28875
2432.14783,0.28988
2430.21909,0.29106
2428.29034,0.29213
2426.36160,0.29300
2424.43285,0.29385
2422.50411,0.29478
2420.57536,0.29577
2418.64662,0.29670
2416.71787,0.29757
2414.78912,0.29847
2412.86038,0.29939
2410.93163,0.30023
2409.00289,0.30098
2407.07414,0.30170
2405.14540,0.30240
2403.21665,0.30301
2401.28791,0.30353
2399.35916,0.30402
2397.43042,0.30451
2395.50167,0.30500
2393.57293,0.30549
2391.64418,0.30607
2389.71544,0.30672
2387.78669,0.30728
2385.85795,0.30770
2383.92920,0.30805
2382.00045,0.30846
2380.07171,0.30901
2378.14296,0.30954
2376.21422,0.30990
2374.28547,0.31017
2372.35673,0.31050
2370.42798,0.31092
2368.49924,0.31130
2366.57049,0.31155
2364.64175,0.31164
2362.71300,0.31170
2360.78426,0.31174
2358.85551,0.31173
2356.92677,0.31179
2354.99802,0.31196
2353.06927,0.31207
2351.14053,0.31197
2349.21178,0.31169
2347.28304,0.31136
2345.35429,0.31111
2343.42555,0.31090
2341.49680,0.31067
2339.56806,0.31047
2337.63931,0.31043
2335.71057,0.31072
2333.78182,0.31135
2331.85308,0.31196
2329.92433,0.31233
2327.99559,0.31246
2326.06684,0.31235
2324.13810,0.31214
2322.20935,0.31197
2320.28060,0.31175
2318.35186,0.31143
2316.42311,0.31107
2314.49437,0.31081
2312.56562,0.31070
2310.63688,0.31073
2308.70813,0.31092
2306.77939,0.31114
2304.85064,0.31114
2302.92190,0.31093
2300.99315,0.31073
2299.06441,0.31056
2297.13566,0.31048
2295.20692,0.31061
2293.27817,0.31077
2291.34943,0.31079
2289.42068,0.31071
2287.49193,0.31058
2285.56319,0.31034
2283.63444,0.31000
2281.70570,0.30957
2279.77695,0.30905
2277.84821,0.30853
2275.91946,0.30811
2273.99072,0.30769
2272.06197,0.30718
2270.13323,0.30658
2268.20448,0.30592
2266.27574,0.30523
2264.34699,0.30445
2262.41825,0.30353
2260.48950,0.30255
2258.56075,0.30163
2256.63201,0.30086
2254.70326,0.30022
2252.77452,0.29955
2250.84577,0.29877
2248.91703,0.29804
2246.98828,0.29753
2245.05954,0.29702
2243.13079,0.29633
2241.20205,0.29569
2239.27330,0.29515
2237.34456,0.29444
2235.41581,0.29344
2233.48707,0.29227
2231.55832,0.29118
2229.62958,0.29020
2227.70083,0.28931
2225.77208,0.28852
2223.84334,0.28789
2221.91459,0.28752
2219.98585,0.28742
2218.05710,0.28744
2216.12836,0.28753
2214.19961,0.28765
2212.27087,0.28769
2210.34212,0.28766
2208.41338,0.28755
2206.48463,0.28724
2204.55589,0.28679
2202.62714,0.28643
2200.69840,0.28602
2198.76965,0.28532
2196.84090,0.28446
2194.91216,0.28359
2192.98341,0.28263
2191.05467,0.28162
2189.12592,0.28060
2187.19718,0.27948
2185.26843,0.27822
2183.33969,0.27704
2181.41094,0.27594
2179.48220,0.27467
2177.55345,0.27332
2175.62471,0.27207
2173.69596,0.27092
2171.76722,0.26975
2169.83847,0.26849
2167.90973,0.26717
2165.98098,0.26582
2164.05223,0.26439
2162.12349,0.26289
2160.19474,0.26137
2158.26600,0.25977
2156.33725,0.25793
2154.40851,0.25590
2152.47976,0.25378
2150.55102,0.25171
2148.62227,0.24990
2146.69353,0.24832
2144.76478,0.24695
2142.83604,0.24589
2140.90729,0.24521
2138.97855,0.24496
2137.04980,0.24511
2135.12106,0.24544
2133.19231,0.24593
2131.26356,0.24677
2129.33482,0.24800
2127.40607,0.24943
2125.47733,0.25088
2123.54858,0.25239
2121.61984,0.25396
2119.69109,0.25541
2117.76235,0.25670
2115.83360,0.25786
2113.90486,0.25878
2111.97611,0.25946
2110.04737,0.25999
2108.11862,0.26038
2106.18988,0.26069
2104.26113,0.26105
2102.33238,0.26137
2100.40364,0.26152
2098.47489,0.26154
2096.54615,0.26161
2094.61740,0.26179
2092.68866,0.26197
2090.75991,0.26200
2088.83117,0.26184
2086.90242,0.26158
2084.97368,0.26133
2083.04493,0.26103
2081.11619,0.26047
2079.18744,0.25979
2077.25870,0.25915
2075.32995,0.25844
2073.40121,0.25754
2071.47246,0.25659
2069.54371,0.25582
2067.61497,0.25527
2065.68622,0.25474
2063.75748,0.25413
2061.82873,0.25345
2059.89999,0.25273
2057.97124,0.25212
2056.04250,0.25164
2054.11375,0.25106
2052.18501,0.25029
2050.25626,0.24965
2048.32752,0.24930
2046.39877,0.24905
2044.47003,0.24862
2042.54128,0.24795
2040.61254,0.24715
2038.68379,0.24638
2036.75504,0.24577
2034.82630,0.24545
2032.89755,0.24535
2030.96881,0.24507
2029.04006,0.24460
2027.11132,0.24437
2025.18257,0.24446
2023.25383,0.24456
2021.32508,0.24452
2019.39634,0.24441
2017.46759,0.24413
2015.53885,0.24356
2013.61010,0.24279
2011.68136,0.24202
2009.75261,0.24134
2007.82386,0.24069
2005.89512,0.24000
2003.96637,0.23935
2002.03763,0.23893
2000.10888,0.23877
1998.18014,0.23852
1996.25139,0.23809
1994.32265,0.23776
1992.39390,0.23758
1990.46516,0.23729
1988.53641,0.23693
1986.60767,0.23676
1984.67892,0.23686
1982.75018,0.23689
1980.82143,0.23654
1978.89269,0.23592
1976.96394,0.23522
1975.03519,0.23465
1973.10645,0.23424
1971.17770,0.23378
1969.24896,0.23320
1967.32021,0.23237
1965.39147,0.23098
1963.46272,0.22929
1961.53398,0.22803
1959.60523,0.22770
1957.67649,0.22806
1955.74774,0.22848
1953.81900,0.22867
1951.89025,0.22857
1949.96151,0.22825
1948.03276,0.22796
1946.10402,0.22788
1944.17527,0.22807
1942.24652,0.22858
1940.31778,0.22925
1938.38903,0.22997
1936.46029,0.23087
1934.53154,0.23191
1932.60280,0.23281
1930.67405,0.23344
1928.74531,0.23395
1926.81656,0.23439
1924.88782,0.23467
1922.95907,0.23473
1921.03033,0.23453
1919.10158,0.23399
1917.17284,0.23308
1915.24409,0.23203
1913.31534,0.23087
1911.38660,0.22946
1909.45785,0.22787
1907.52911,0.22625
1905.60036,0.22452
1903.67162,0.22256
1901.74287,0.22047
1899.81413,0.21835
1897.88538,0.21624
1895.95664,0.21418
1894.02789,0.21219
1892.09915,0.21032
1890.17040,0.20854
1888.24166,0.20684
1886.31291,0.20527
1884.38417,0.20392
1882.45542,0.20271
1880.52667,0.20161
1878.59793,0.20061
1876.66918,0.19959
1874.74044,0.19852
1872.81169,0.19751
1870.88295,0.19674
1868.95420,0.19637
1867.02546,0.19645
1865.09671,0.19698
1863.16797,0.19779
1861.23922,0.19875
1859.31048,0.19981
1857.38173,0.20090
1855.45299,0.20182
1853.52424,0.20237
1851.59549,0.20250
1849.66675,0.20236
1847.73800,0.20203
1845.80926,0.20143
1843.88051,0.20042
1841.95177,0.19899
1840.02302,0.19728
1838.09428,0.19519
1836.16553,0.19251
1834.23679,0.18929
1832.30804,0.18573
1830.37930,0.18180
1828.45055,0.17764
1826.52181,0.17358
1824.59306,0.16955
1822.66432,0.16574
1820.73557,0.16226
1818.80682,0.15873
1816.87808,0.15490
1814.94933,0.15069
1813.02059,0.14583
1811.09184,0.13954
1809.16310,0.13099
1807.23435,0.11974
1805.30561,0.10584
1803.37686,0.09014
1801.44812,0.07512
1799.51937,0.06436
1797.59063,0.05915
1795.66188,0.05768
1793.73314,0.05883
1791.80439,0.06407
1789.87565,0.07399
1787.94690,0.08618
1786.01815,0.09806
1784.08941,0.10762
1782.16066,0.11422
1780.23192,0.11839
1778.30317,0.12064
1776.37443,0.12136
1774.44568,0.12077
1772.51694,0.11886
1770.58819,0.11583
1768.65945,0.11194
1766.73070,0.10744
1764.80196,0.10288
1762.87321,0.09795
1760.94447,0.09231
1759.01572,0.08656
1757.08697,0.08068
1755.15823,0.07484
1753.22948,0.06931
1751.30074,0.06361
1749.37199,0.05801
1747.44325,0.05323
1745.51450,0.04916
1743.58576,0.04555
1741.65701,0.04239
1739.72827,0.03982
1737.79952,0.03811
1735.87078,0.03713
1733.94203,0.03663
1732.01329,0.03703
1730.08454,0.03830
1728.15580,0.03999
1726.22705,0.04196
1724.29830,0.04457
1722.36956,0.04787
1720.44081,0.05152
1718.51207,0.05584
1716.58332,0.06066
1714.65458,0.06466
1712.72583,0.06765
1710.79709,0.07014
1708.86834,0.07209
1706.93960,0.07344
1705.01085,0.07443
1703.08211,0.07532
1701.15336,0.07619
1699.22462,0.07682
1697.29587,0.07694
1695.36713,0.07659
1693.43838,0.07611
1691.50963,0.07560
1689.58089,0.07490
1687.65214,0.07412
1685.72340,0.07328
1683.79465,0.07211
1681.86591,0.07106
1679.93716,0.07031
1678.00842,0.06944
1676.07967,0.06840
1674.15093,0.06755
1672.22218,0.06703
1670.29344,0.06647
1668.36469,0.06580
1666.43595,0.06539
1664.50720,0.06508
1662.57845,0.06459
1660.64971,0.06417
1658.72096,0.06410
1656.79222,0.06427
1654.86347,0.06438
1652.93473,0.06410
1651.00598,0.06379
1649.07724,0.06377
1647.14849,0.06364
1645.21975,0.06320
1643.29100,0.06275
1641.36226,0.06238
1639.43351,0.06209
1637.50477,0.06188
1635.57602,0.06153
1633.64728,0.06102
1631.71853,0.06064
1629.78978,0.06034
1627.86104,0.05992
1625.93229,0.05934
1624.00355,0.05874
1622.07480,0.05828
1620.14606,0.05799
1618.21731,0.05778
1616.28857,0.05746
1614.35982,0.05708
1612.43108,0.05672
1610.50233,0.05638
1608.57359,0.05612
1606.64484,0.05591
1604.71610,0.05564
1602.78735,0.05557
1600.85861,0.05593
1598.92986,0.05666
1597.00111,0.05757
1595.07237,0.05841
1593.14362,0.05912
1591.21488,0.05972
1589.28613,0.06031
1587.35739,0.06112
1585.42864,0.06236
1583.49990,0.06404
1581.57115,0.06611
1579.64241,0.06854
1577.71366,0.07151
1575.78492,0.07507
1573.85617,0.07816
1571.92743,0.08055
1569.99868,0.08302
1568.06993,0.08552
1566.14119,0.08781
1564.21244,0.09000
1562.28370,0.09206
1560.35495,0.09449
1558.42621,0.09773
1556.49746,0.10037
1554.56872,0.10216
1552.63997,0.10363
1550.71123,0.10443
1548.78248,0.10453
1546.85374,0.10435
1544.92499,0.10407
1542.99625,0.10378
1541.06750,0.10339
1539.13876,0.10245
1537.21001,0.10139
1535.28126,0.10072
1533.35252,0.10027
1531.42377,0.09995
1529.49503,0.09978
1527.56628,0.09958
1525.63754,0.09911
1523.70879,0.09841
1521.78005,0.09763
1519.85130,0.09687
1517.92256,0.09615
1515.99381,0.09547
1514.06507,0.09499
1512.13632,0.09466
1510.20758,0.09429
1508.27883,0.09386
1506.35008,0.09344
1504.42134,0.09320
1502.49259,0.09320
1500.56385,0.09332
1498.63510,0.09328
1496.70636,0.09289
1494.77761,0.09251
1492.84887,0.09254
1490.92012,0.09279
1488.99138,0.09297
1487.06263,0.09307
1485.13389,0.09311
1483.20514,0.09307
1481.27640,0.09310
1479.34765,0.09333
1477.41891,0.09364
1475.49016,0.09382
1473.56141,0.09393
1471.63267,0.09407
1469.70392,0.09411
1467.77518,0.09412
1465.84643,0.09440
1463.91769,0.09495
1461.98894,0.09527
1460.06020,0.09539
1458.13145,0.09558
1456.20271,0.09585
1454.27396,0.09607
1452.34522,0.09620
1450.41647,0.09624
1448.48773,0.09631
1446.55898,0.09648
1444.63024,0.09680
1442.70149,0.09723
1440.77274,0.09774
1438.84400,0.09832
1436.91525,0.09890
1434.98651,0.09955
1433.05776,0.10034
1431.12902,0.10104
1429.20027,0.10155
1427.27153,0.10211
1425.34278,0.10293
1423.41404,0.10387
1421.48529,0.10461
1419.55655,0.10507
1417.62780,0.10557
1415.69906,0.10615
1413.77031,0.10662
1411.84156,0.10681
1409.91282,0.10649
1407.98407,0.10551
1406.05533,0.10372
1404.12658,0.10121
1402.19784,0.09880
1400.26909,0.09704
1398.34035,0.09596
1396.41160,0.09525
1394.48286,0.09453
1392.55411,0.09381
1390.62537,0.09324
1388.69662,0.09274
1386.76788,0.09231
1384.83913,0.09207
1382.91039,0.09206
1380.98164,0.09217
1379.05289,0.09223
1377.12415,0.09236
1375.19540,0.09286
1373.26666,0.09376
1371.33791,0.09490
1369.40917,0.09615
1367.48042,0.09755
1365.55168,0.09910
1363.62293,0.10078
1361.69419,0.10262
1359.76544,0.10444
1357.83670,0.10600
1355.90795,0.10730
1353.97921,0.10854
1352.05046,0.10983
1350.12172,0.11112
1348.19297,0.11234
1346.26422,0.11340
1344.33548,0.11437
1342.40673,0.11535
1340.47799,0.11633
1338.54924,0.11722
1336.62050,0.11793
1334.69175,0.11835
1332.76301,0.11849
1330.83426,0.11860
1328.90552,0.11883
1326.97677,0.11898
1325.04803,0.11900
1323.11928,0.11910
1321.19054,0.11937
1319.26179,0.11981
1317.33304,0.12020
1315.40430,0.12041
1313.47555,0.12074
1311.54681,0.12143
1309.61806,0.12231
1307.68932,0.12328
1305.76057,0.12426
1303.83183,0.12512
1301.90308,0.12598
1299.97434,0.12684
1298.04559,0.12745
1296.11685,0.12769
1294.18810,0.12756
1292.25936,0.12709
1290.33061,0.12635
1288.40187,0.12532
1286.47312,0.12401
1284.54437,0.12241
1282.61563,0.12063
1280.68688,0.11891
1278.75814,0.11734
1276.82939,0.11584
1274.90065,0.11428
1272.97190,0.11266
1271.04316,0.11108
1269.11441,0.10954
1267.18567,0.10807
1265.25692,0.10684
1263.32818,0.10587
1261.39943,0.10503
1259.47069,0.10426
1257.54194,0.10362
1255.61320,0.10294
1253.68445,0.10196
1251.75570,0.10086
1249.82696,0.09989
1247.89821,0.09904
1245.96947,0.09829
1244.04072,0.09760
1242.11198,0.09710
1240.18323,0.09697
1238.25449,0.09720
1236.32574,0.09770
1234.39700,0.09848
1232.46825,0.09934
1230.53951,0.10016
1228.61076,0.10104
1226.68202,0.10187
1224.75327,0.10242
1222.82452,0.10269
1220.89578,0.10280
1218.96703,0.10294
1217.03829,0.10294
1215.10954,0.10244
1213.18080,0.10164
1211.25205,0.10090
1209.32331,0.10009
1207.39456,0.09899
1205.46582,0.09760
1203.53707,0.09627
1201.60833,0.09519
1199.67958,0.09419
1197.75084,0.09304
1195.82209,0.09168
1193.89335,0.09027
1191.96460,0.08905
1190.03585,0.08797
1188.10711,0.08674
1186.17836,0.08527
1184.24962,0.08372
1182.32087,0.08222
1180.39213,0.08083
1178.46338,0.07959
1176.53464,0.07841
1174.60589,0.07740
1172.67715,0.07674
1170.74840,0.07625
1168.81966,0.07551
1166.89091,0.07446
1164.96217,0.07335
1163.03342,0.07242
1161.10467,0.07201
1159.17593,0.07245
1157.24718,0.07351
1155.31844,0.07470
1153.38969,0.07597
1151.46095,0.07743
1149.53220,0.07898
1147.60346,0.08055
1145.67471,0.08201
1143.74597,0.08311
1141.81722,0.08399
1139.88848,0.08475
1137.95973,0.08524
1136.03099,0.08546
1134.10224,0.08546
1132.17350,0.08524
1130.24475,0.08465
1128.31600,0.08377
1126.38726,0.08289
1124.45851,0.08184
1122.52977,0.08009
1120.60102,0.07778
1118.67228,0.07563
1116.74353,0.07409
1114.81479,0.07330
1112.88604,0.07313
1110.95730,0.07330
1109.02855,0.07369
1107.09981,0.07424
1105.17106,0.07496
1103.24232,0.07577
1101.31357,0.07653
1099.38483,0.07733
1097.45608,0.07825
1095.52733,0.07926
1093.59859,0.08020
1091.66984,0.08075
1089.74110,0.08090
1087.81235,0.08132
1085.88361,0.08237
1083.95486,0.08353
1082.02612,0.08433
1080.09737,0.08477
1078.16863,0.08505
1076.23988,0.08533
1074.31114,0.08533
1072.38239,0.08474
1070.45365,0.08366
1068.52490,0.08256
1066.59615,0.08164
1064.66741,0.08075
1062.73866,0.07992
1060.80992,0.07938
1058.88117,0.07886
1056.95243,0.07813
1055.02368,0.07761
1053.09494,0.07758
1051.16619,0.07768
1049.23745,0.07764
1047.30870,0.07752
1045.37996,0.07760
1043.45121,0.07794
1041.52247,0.07824
1039.59372,0.07842
1037.66498,0.07875
1035.73623,0.07916
1033.80748,0.07918
1031.87874,0.07869
1029.94999,0.07784
1028.02125,0.07681
1026.09250,0.07575
1024.16376,0.07503
1022.23501,0.07467
1020.30627,0.07444
1018.37752,0.07438
1016.44878,0.07452
1014.52003,0.07475
1012.59129,0.07511
1010.66254,0.07556
1008.73380,0.07595
1006.80505,0.07604
1004.87631,0.07556
1002.94756,0.07475
1001.01881,0.07411
999.09007,0.07364
997.16132,0.07304
995.23258,0.07237
993.30383,0.07172
991.37509,0.07107
989.44634,0.07040
987.51760,0.06986
985.58885,0.06955
983.66011,0.06932
981.73136,0.06900
979.80262,0.06860
977.87387,0.06815
975.94513,0.06757
974.01638,0.06689
972.08763,0.06639
970.15889,0.06622
968.23014,0.06619
966.30140,0.06601
964.37265,0.06565
962.44391,0.06532
960.51516,0.06494
958.58642,0.06433
956.65767,0.06373
954.72893,0.06329
952.80018,0.06296
950.87144,0.06243
948.94269,0.06173
947.01395,0.06130
945.08520,0.06100
943.15646,0.06052
941.22771,0.06031
939.29896,0.06056
937.37022,0.06073
935.44147,0.06053
933.51273,0.06002
931.58398,0.05949
929.65524,0.05915
927.72649,0.05872
925.79775,0.05804
923.86900,0.05761
921.94026,0.05780
920.01151,0.05817
918.08277,0.05835
916.15402,0.05849
914.22528,0.05863
912.29653,0.05884
910.36779,0.05944
908.43904,0.06024
906.51029,0.06079
904.58155,0.06101
902.65280,0.06126
900.72406,0.06184
898.79531,0.06264
896.86657,0.06349
894.93782,0.06437
893.00908,0.06531
891.08033,0.06656
889.15159,0.06753
887.22284,0.06659
885.29410,0.06396
883.36535,0.06217
881.43661,0.06266
879.50786,0.06451
877.57911,0.06649
875.65037,0.06808
873.72162,0.06904
871.79288,0.06920
869.86413,0.06869
867.93539,0.06802
866.00664,0.06749
864.07790,0.06681
862.14915,0.06559
860.22041,0.06402
858.29166,0.06273
856.36292,0.06182
854.43417,0.06084
852.50543,0.05927
850.57668,0.05701
848.64794,0.05538
846.71919,0.05548
844.79044,0.05616
842.86170,0.05585
840.93295,0.05463
839.00421,0.05346
837.07546,0.05284
835.14672,0.05242
833.21797,0.05195
831.28923,0.05147
829.36048,0.05089
827.43174,0.05025
825.50299,0.04956
823.57425,0.04853
821.64550,0.04720
819.71676,0.04615
817.78801,0.04572
815.85926,0.04536
813.93052,0.04481
812.00177,0.04437
810.07303,0.04408
808.14428,0.04386
806.21554,0.04380
804.28679,0.04385
802.35805,0.04398
800.42930,0.04432
798.50056,0.04460
796.57181,0.04441
794.64307,0.04407
792.71432,0.04376
790.78558,0.04325
788.85683,0.04288
786.92809,0.04293
784.99934,0.04314
783.07059,0.04324
781.14185,0.04310
779.21310,0.04292
777.28436,0.04288
775.35561,0.04244
773.42687,0.04161
771.49812,0.04114
769.56938,0.04098
767.64063,0.04069
765.71189,0.04037
763.78314,0.04019
761.85440,0.04016
759.92565,0.04016
757.99691,0.04003
756.06816,0.03986
754.13942,0.03982
752.21067,0.03981
750.28192,0.03975
748.35318,0.03959
746.42443,0.03940
744.49569,0.03939
742.56694,0.03961
740.63820,0.03978
738.70945,0.03962
736.78071,0.03921
734.85196,0.03885
732.92322,0.03879
730.99447,0.03888
729.06573,0.03879
727.13698,0.03853
725.20824,0.03807
723.27949,0.03751
721.35074,0.03714
719.42200,0.03679
717.49325,0.03671
715.56451,0.03823
713.63576,0.04163
711.70702,0.04446
709.77827,0.04481
707.84953,0.04392
705.92078,0.04363
703.99204,0.04370
702.06329,0.04353
700.13455,0.04378
698.20580,0.04459
696.27706,0.04552
694.34831,0.04622
692.41957,0.04615
690.49082,0.04546
688.56207,0.04480
686.63333,0.04457
684.70458,0.04458
682.77584,0.04443
680.84709,0.04450
678.91835,0.04491
676.98960,0.04503
675.06086,0.04487
673.13211,0.04512
671.20337,0.04605
669.27462,0.04704
667.34588,0.04701
665.41713,0.04648
663.48839,0.04663
661.55964,0.04673
659.63090,0.04614
657.70215,0.04557
655.77340,0.04538
653.84466,0.04555
651.91591,0.04619
649.98717,0.04703
648.05842,0.04725
646.12968,0.04622
644.20093,0.04477
642.27219,0.04453
640.34344,0.04494
638.41470,0.04433
636.48595,0.04365
634.55721,0.04446
632.62846,0.04575
630.69972,0.04555
628.77097,0.04388
626.84222,0.04245
624.91348,0.04226
622.98473,0.04282
621.05599,0.04355
619.12724,0.04411
617.19850,0.04420
615.26975,0.04400
613.34101,0.04408
611.41226,0.04449
609.48352,0.04479
607.55477,0.04438
605.62603,0.04341
603.69728,0.04278
601.76854,0.04303
599.83979,0.04363
