7497.03301,0.83156
7495.10426,0.82615
7493.17552,0.82592
7491.24677,0.82921
7489.31803,0.83154
7487.38928,0.83018
7485.46054,0.82581
7483.53179,0.82240
7481.60305,0.82080
7479.67430,0.81842
7477.74556,0.81706
7475.81681,0.81900
7473.88807,0.82219
7471.95932,0.82482
7470.03057,0.82630
7468.10183,0.82662
7466.17308,0.82751
7464.24434,0.82713
7462.31559,0.82246
7460.38685,0.81980
7458.45810,0.82299
7456.52936,0.82505
7454.60061,0.82482
7452.67187,0.82636
7450.74312,0.82761
7448.81438,0.82706
7446.88563,0.82533
7444.95689,0.82177
7443.02814,0.81776
7441.09940,0.81452
7439.17065,0.81273
7437.24190,0.81343
7435.31316,0.81275
7433.38441,0.80856
7431.45567,0.80676
7429.52692,0.80974
7427.59818,0.81433
7425.66943,0.81861
7423.74069,0.81845
7421.81194,0.81323
7419.88320,0.80981
7417.95445,0.80803
7416.02571,0.80471
7414.09696,0.80592
7412.16822,0.81066
7410.23947,0.80867
7408.31073,0.80277
7406.38198,0.80285
7404.45323,0.80620
7402.52449,0.80566
7400.59574,0.80346
7398.66700,0.80268
7396.73825,0.80199
7394.80951,0.80341
7392.88076,0.80741
7390.95202,0.80998
7389.02327,0.80999
7387.09453,0.80730
7385.16578,0.80277
7383.23704,0.80098
7381.30829,0.80346
7379.37955,0.80641
7377.45080,0.80680
7375.52205,0.80508
7373.59331,0.80269
7371.66456,0.80017
7369.73582,0.79818
7367.80707,0.79773
7365.87833,0.79675
7363.94958,0.79408
7362.02084,0.79246
7360.09209,0.79135
7358.16335,0.79044
7356.23460,0.79383
7354.30586,0.80051
7352.37711,0.80340
7350.44837,0.79946
7348.51962,0.79520
7346.59088,0.79781
7344.66213,0.80342
7342.73338,0.80367
7340.80464,0.79851
7338.87589,0.79475
7336.94715,0.79491
7335.01840,0.79682
7333.08966,0.79864
7331.16091,0.79823
7329.23217,0.79622
7327.30342,0.79421
7325.37468,0.79166
7323.44593,0.79009
7321.51719,0.79006
7319.58844,0.78960
7317.65970,0.78905
7315.73095,0.78978
7313.80221,0.79035
7311.87346,0.78950
7309.94471,0.79020
7308.01597,0.79258
7306.08722,0.79245
7304.15848,0.79095
7302.22973,0.79217
7300.30099,0.79527
7298.37224,0.79460
7296.44350,0.78948
7294.51475,0.78755
7292.58601,0.79099
7290.65726,0.79373
7288.72852,0.79307
7286.79977,0.79152
7284.87103,0.79298
7282.94228,0.79721
7281.01353,0.79773
7279.08479,0.79338
7277.15604,0.79124
7275.22730,0.79377
7273.29855,0.79611
7271.36981,0.79455
7269.44106,0.79050
7267.51232,0.78711
7265.58357,0.78569
7263.65483,0.78557
7261.72608,0.78610
7259.79734,0.78724
7257.86859,0.78849
7255.93985,0.78924
7254.01110,0.78970
7252.08236,0.79252
7250.15361,0.79719
7248.22486,0.79600
7246.29612,0.78907
7244.36737,0.78572
7242.43863,0.78659
7240.50988,0.78691
7238.58114,0.78678
7236.65239,0.78617
7234.72365,0.78435
7232.79490,0.78388
7230.86616,0.78620
7228.93741,0.78789
7227.00867,0.78619
7225.07992,0.78358
7223.15118,0.78340
7221.22243,0.78533
7219.29369,0.78740
7217.36494,0.78765
7215.43619,0.78546
7213.50745,0.78155
7211.57870,0.77693
7209.64996,0.77438
7207.72121,0.77553
7205.79247,0.77683
7203.86372,0.77539
7201.93498,0.77434
7200.00623,0.77575
7198.07749,0.77719
7196.14874,0.77703
7194.22000,0.77466
7192.29125,0.76947
7190.36251,0.76362
7188.43376,0.76091
7186.50501,0.76133
7184.57627,0.76138
7182.64752,0.76124
7180.71878,0.76356
7178.79003,0.76617
7176.86129,0.76503
7174.93254,0.76156
7173.00380,0.76041
7171.07505,0.76135
7169.14631,0.76079
7167.21756,0.75862
7165.28882,0.75635
7163.36007,0.75471
7161.43133,0.75469
7159.50258,0.75520
7157.57384,0.75596
7155.64509,0.75920
7153.71634,0.76243
7151.78760,0.76204
7149.85885,0.75902
7147.93011,0.75510
7146.00136,0.75254
7144.07262,0.75334
7142.14387,0.75680
7140.21513,0.76087
7138.28638,0.76324
7136.35764,0.76261
7134.42889,0.75989
7132.50015,0.75774
7130.57140,0.75736
7128.64266,0.75743
7126.71391,0.75710
7124.78516,0.75665
7122.85642,0.75483
7120.92767,0.75057
7118.99893,0.74737
7117.07018,0.74850
7115.14144,0.75102
7113.21269,0.75085
7111.28395,0.74863
7109.35520,0.74696
7107.42646,0.74522
7105.49771,0.74363
7103.56897,0.74670
7101.64022,0.75272
7099.71148,0.75438
7097.78273,0.75196
7095.85399,0.74977
7093.92524,0.74885
7091.99649,0.74927
7090.06775,0.75030
7088.13900,0.75017
7086.21026,0.74872
7084.28151,0.74667
7082.35277,0.74378
7080.42402,0.74073
7078.49528,0.73770
7076.56653,0.73296
7074.63779,0.72724
7072.70904,0.72252
7070.78030,0.71937
7068.85155,0.71736
7066.92281,0.71555
7064.99406,0.71505
7063.06532,0.71722
7061.13657,0.72129
7059.20782,0.72653
7057.27908,0.73243
7055.35033,0.73626
7053.42159,0.73550
7051.49284,0.73332
7049.56410,0.73415
7047.63535,0.73640
7045.70661,0.73604
7043.77786,0.73437
7041.84912,0.73480
7039.92037,0.73586
7037.99163,0.73571
7036.06288,0.73560
7034.13414,0.73576
7032.20539,0.73390
7030.27664,0.73004
7028.34790,0.72930
7026.41915,0.73312
7024.49041,0.73670
7022.56166,0.73672
7020.63292,0.73379
7018.70417,0.73132
7016.77543,0.73200
7014.84668,0.73436
7012.91794,0.73477
7010.98919,0.73205
7009.06045,0.73002
7007.13170,0.73282
7005.20296,0.73656
7003.27421,0.73463
7001.34547,0.72955
6999.41672,0.72722
6997.48797,0.72681
6995.55923,0.72528
6993.63048,0.72512
6991.70174,0.72893
6989.77299,0.73262
6987.84425,0.73212
6985.91550,0.72867
6983.98676,0.72605
6982.05801,0.72615
6980.12927,0.72707
6978.20052,0.72779
6976.27178,0.72871
6974.34303,0.72912
6972.41429,0.72817
6970.48554,0.72697
6968.55680,0.72795
6966.62805,0.73102
6964.69930,0.73267
6962.77056,0.73057
6960.84181,0.72743
6958.91307,0.72661
6956.98432,0.72799
6955.05558,0.72985
6953.12683,0.73012
6951.19809,0.72905
6949.26934,0.72807
6947.34060,0.72731
6945.41185,0.72638
6943.48311,0.72471
6941.55436,0.72406
6939.62562,0.72571
6937.69687,0.72692
6935.76812,0.72760
6933.83938,0.72851
6931.91063,0.72696
6929.98189,0.72452
6928.05314,0.72475
6926.12440,0.72575
6924.19565,0.72499
6922.26691,0.72272
6920.33816,0.72104
6918.40942,0.72219
6916.48067,0.72439
6914.55193,0.72582
6912.62318,0.72892
6910.69444,0.73311
6908.76569,0.73264
6906.83695,0.72718
6904.90820,0.72313
6902.97945,0.72387
6901.05071,0.72668
6899.12196,0.72702
6897.19322,0.72467
6895.26447,0.72306
6893.33573,0.72293
6891.40698,0.72326
6889.47824,0.72368
6887.54949,0.72353
6885.62075,0.72301
6883.69200,0.72303
6881.76326,0.72368
6879.83451,0.72485
6877.90577,0.72546
6875.97702,0.72460
6874.04828,0.72456
6872.11953,0.72537
6870.19078,0.72525
6868.26204,0.72600
6866.33329,0.72702
6864.40455,0.72576
6862.47580,0.72337
6860.54706,0.72142
6858.61831,0.72125
6856.68957,0.72365
6854.76082,0.72625
6852.83208,0.72767
6850.90333,0.72836
6848.97459,0.72657
6847.04584,0.72281
6845.11710,0.72171
6843.18835,0.72325
6841.25960,0.72303
6839.33086,0.72212
6837.40211,0.72381
6835.47337,0.72540
6833.54462,0.72479
6831.61588,0.72463
6829.68713,0.72620
6827.75839,0.72807
6825.82964,0.72824
6823.90090,0.72607
6821.97215,0.72285
6820.04341,0.72115
6818.11466,0.72232
6816.18592,0.72490
6814.25717,0.72736
6812.32843,0.72813
6810.39968,0.72688
6808.47093,0.72583
6806.54219,0.72572
6804.61344,0.72669
6802.68470,0.72836
6800.75595,0.72823
6798.82721,0.72545
6796.89846,0.72190
6794.96972,0.72003
6793.04097,0.72149
6791.11223,0.72531
6789.18348,0.72813
6787.25474,0.72743
6785.32599,0.72472
6783.39725,0.72259
6781.46850,0.72084
6779.53975,0.71999
6777.61101,0.72158
6775.68226,0.72369
6773.75352,0.72468
6771.82477,0.72486
6769.89603,0.72364
6767.96728,0.72265
6766.03854,0.72465
6764.10979,0.72752
6762.18105,0.72743
6760.25230,0.72536
6758.32356,0.72400
6756.39481,0.72294
6754.46607,0.72159
6752.53732,0.72191
6750.60858,0.72482
6748.67983,0.72820
6746.75108,0.73050
6744.82234,0.73148
6742.89359,0.73060
6740.96485,0.72803
6739.03610,0.72498
6737.10736,0.72305
6735.17861,0.72286
6733.24987,0.72269
6731.32112,0.72178
6729.39238,0.72270
6727.46363,0.72573
6725.53489,0.72780
6723.60614,0.72812
6721.67740,0.72806
6719.74865,0.72841
6717.81991,0.72936
6715.89116,0.73034
6713.96241,0.72993
6712.03367,0.72765
6710.10492,0.72600
6708.17618,0.72727
6706.24743,0.72964
6704.31869,0.73037
6702.38994,0.72974
6700.46120,0.72888
6698.53245,0.72754
6696.60371,0.72531
6694.67496,0.72327
6692.74622,0.72314
6690.81747,0.72443
6688.88873,0.72540
6686.95998,0.72543
6685.03123,0.72528
6683.10249,0.72598
6681.17374,0.72630
6679.24500,0.72564
6677.31625,0.72669
6675.38751,0.72989
6673.45876,0.73181
6671.53002,0.73084
6669.60127,0.72838
6667.67253,0.72643
6665.74378,0.72686
6663.81504,0.72850
6661.88629,0.72828
6659.95755,0.72691
6658.02880,0.72631
6656.10006,0.72592
6654.17131,0.72521
6652.24256,0.72508
6650.31382,0.72608
6648.38507,0.72725
6646.45633,0.72790
6644.52758,0.72826
6642.59884,0.72875
6640.67009,0.72957
6638.74135,0.72959
6636.81260,0.72798
6634.88386,0.72693
6632.95511,0.72752
6631.02637,0.72783
6629.09762,0.72814
6627.16888,0.72974
6625.24013,0.73129
6623.31139,0.73157
6621.38264,0.73122
6619.45389,0.73119
6617.52515,0.73090
6615.59640,0.72972
6613.66766,0.72843
6611.73891,0.72761
6609.81017,0.72784
6607.88142,0.72877
6605.95268,0.72796
6604.02393,0.72590
6602.09519,0.72652
6600.16644,0.72894
6598.23770,0.72882
6596.30895,0.72793
6594.38021,0.73060
6592.45146,0.73427
6590.52271,0.73448
6588.59397,0.73298
6586.66522,0.73260
6584.73648,0.73260
6582.80773,0.73226
6580.87899,0.73136
6578.95024,0.72967
6577.02150,0.72891
6575.09275,0.73033
6573.16401,0.73132
6571.23526,0.72948
6569.30652,0.72797
6567.37777,0.73005
6565.44903,0.73321
6563.52028,0.73477
6561.59154,0.73528
6559.66279,0.73504
6557.73404,0.73401
6555.80530,0.73240
6553.87655,0.73085
6551.94781,0.73140
6550.01906,0.73398
6548.09032,0.73472
6546.16157,0.73269
6544.23283,0.73151
6542.30408,0.73213
6540.37534,0.73202
6538.44659,0.73129
6536.51785,0.73217
6534.58910,0.73395
6532.66036,0.73424
6530.73161,0.73383
6528.80287,0.73499
6526.87412,0.73661
6524.94537,0.73655
6523.01663,0.73531
6521.08788,0.73395
6519.15914,0.73351
6517.23039,0.73479
6515.30165,0.73660
6513.37290,0.73733
6511.44416,0.73686
6509.51541,0.73638
6507.58667,0.73700
6505.65792,0.73744
6503.72918,0.73591
6501.80043,0.73462
6499.87169,0.73547
6497.94294,0.73531
6496.01419,0.73346
6494.08545,0.73321
6492.15670,0.73419
6490.22796,0.73457
6488.29921,0.73483
6486.37047,0.73516
6484.44172,0.73483
6482.51298,0.73384
6480.58423,0.73297
6478.65549,0.73227
6476.72674,0.73201
6474.79800,0.73252
6472.86925,0.73301
6470.94051,0.73321
6469.01176,0.73294
6467.08302,0.73185
6465.15427,0.73070
6463.22552,0.73079
6461.29678,0.73272
6459.36803,0.73446
6457.43929,0.73383
6455.51054,0.73239
6453.58180,0.73152
6451.65305,0.73093
6449.72431,0.73164
6447.79556,0.73329
6445.86682,0.73296
6443.93807,0.73077
6442.00933,0.73028
6440.08058,0.73152
6438.15184,0.73243
6436.22309,0.73428
6434.29434,0.73729
6432.36560,0.73873
6430.43685,0.73803
6428.50811,0.73614
6426.57936,0.73369
6424.65062,0.73226
6422.72187,0.73262
6420.79313,0.73377
6418.86438,0.73466
6416.93564,0.73485
6415.00689,0.73526
6413.07815,0.73691
6411.14940,0.73853
6409.22066,0.73811
6407.29191,0.73625
6405.36317,0.73528
6403.43442,0.73586
6401.50567,0.73655
6399.57693,0.73596
6397.64818,0.73487
6395.71944,0.73505
6393.79069,0.73674
6391.86195,0.73870
6389.93320,0.73905
6388.00446,0.73775
6386.07571,0.73696
6384.14697,0.73651
6382.21822,0.73508
6380.28948,0.73428
6378.36073,0.73486
6376.43199,0.73496
6374.50324,0.73430
6372.57450,0.73439
6370.64575,0.73519
6368.71700,0.73566
6366.78826,0.73601
6364.85951,0.73663
6362.93077,0.73687
6361.00202,0.73666
6359.07328,0.73650
6357.14453,0.73661
6355.21579,0.73657
6353.28704,0.73608
6351.35830,0.73618
6349.42955,0.73682
6347.50081,0.73655
6345.57206,0.73561
6343.64332,0.73534
6341.71457,0.73584
6339.78582,0.73615
6337.85708,0.73613
6335.92833,0.73672
6333.99959,0.73770
6332.07084,0.73836
6330.14210,0.73924
6328.21335,0.73995
6326.28461,0.73925
6324.35586,0.73775
6322.42712,0.73672
6320.49837,0.73574
6318.56963,0.73389
6316.64088,0.73254
6314.71214,0.73422
6312.78339,0.73769
6310.85465,0.73896
6308.92590,0.73799
6306.99715,0.73766
6305.06841,0.73768
6303.13966,0.73702
6301.21092,0.73660
6299.28217,0.73673
6297.35343,0.73790
6295.42468,0.73987
6293.49594,0.74042
6291.56719,0.73933
6289.63845,0.73820
6287.70970,0.73767
6285.78096,0.73785
6283.85221,0.73837
6281.92347,0.73855
6279.99472,0.73860
6278.06598,0.73922
6276.13723,0.73976
6274.20848,0.73888
6272.27974,0.73760
6270.35099,0.73775
6268.42225,0.73851
6266.49350,0.73848
6264.56476,0.73762
6262.63601,0.73636
6260.70727,0.73602
6258.77852,0.73697
6256.84978,0.73782
6254.92103,0.73882
6252.99229,0.74061
6251.06354,0.74178
6249.13480,0.74228
6247.20605,0.74401
6245.27730,0.74644
6243.34856,0.74676
6241.41981,0.74388
6239.49107,0.74037
6237.56232,0.73951
6235.63358,0.74088
6233.70483,0.74231
6231.77609,0.74340
6229.84734,0.74428
6227.91860,0.74525
6225.98985,0.74669
6224.06111,0.74721
6222.13236,0.74653
6220.20362,0.74654
6218.27487,0.74683
6216.34613,0.74587
6214.41738,0.74423
6212.48863,0.74337
6210.55989,0.74386
6208.63114,0.74472
6206.70240,0.74458
6204.77365,0.74368
6202.84491,0.74341
6200.91616,0.74407
6198.98742,0.74553
6197.05867,0.74829
6195.12993,0.75130
6193.20118,0.75187
6191.27244,0.74987
6189.34369,0.74850
6187.41495,0.74891
6185.48620,0.74914
6183.55746,0.74878
6181.62871,0.74878
6179.69996,0.74912
6177.77122,0.74946
6175.84247,0.75003
6173.91373,0.75089
6171.98498,0.75147
6170.05624,0.75120
6168.12749,0.75011
6166.19875,0.74862
6164.27000,0.74733
6162.34126,0.74704
6160.41251,0.74812
6158.48377,0.74988
6156.55502,0.75150
6154.62628,0.75222
6152.69753,0.75152
6150.76878,0.75056
6148.84004,0.75082
6146.91129,0.75163
6144.98255,0.75147
6143.05380,0.75052
6141.12506,0.74986
6139.19631,0.75027
6137.26757,0.75158
6135.33882,0.75155
6133.41008,0.74961
6131.48133,0.74847
6129.55259,0.74924
6127.62384,0.75064
6125.69510,0.75150
6123.76635,0.75130
6121.83761,0.75130
6119.90886,0.75309
6117.98011,0.75533
6116.05137,0.75569
6114.12262,0.75470
6112.19388,0.75349
6110.26513,0.75197
6108.33639,0.75125
6106.40764,0.75210
6104.47890,0.75341
6102.55015,0.75401
6100.62141,0.75359
6098.69266,0.75262
6096.76392,0.75181
6094.83517,0.75200
6092.90643,0.75323
6090.97768,0.75405
6089.04893,0.75329
6087.12019,0.75183
6085.19144,0.75134
6083.26270,0.75148
6081.33395,0.75091
6079.40521,0.75012
6077.47646,0.74989
6075.54772,0.74993
6073.61897,0.75008
6071.69023,0.75034
6069.76148,0.75045
6067.83274,0.75034
6065.90399,0.75137
6063.97525,0.75404
6062.04650,0.75511
6060.11776,0.75320
6058.18901,0.75207
6056.26026,0.75324
6054.33152,0.75415
6052.40277,0.75361
6050.47403,0.75250
6048.54528,0.75177
6046.61654,0.75125
6044.68779,0.75041
6042.75905,0.74982
6040.83030,0.75015
6038.90156,0.75103
6036.97281,0.75196
6035.04407,0.75208
6033.11532,0.75021
6031.18658,0.74725
6029.25783,0.74562
6027.32909,0.74522
6025.40034,0.74435
6023.47159,0.74357
6021.54285,0.74404
6019.61410,0.74493
6017.68536,0.74532
6015.75661,0.74586
6013.82787,0.74663
6011.89912,0.74635
6009.97038,0.74492
6008.04163,0.74364
6006.11289,0.74226
6004.18414,0.74042
6002.25540,0.73950
6000.32665,0.74048
5998.39791,0.74224
5996.46916,0.74209
5994.54041,0.73946
5992.61167,0.73728
5990.68292,0.73707
5988.75418,0.73782
5986.82543,0.73803
5984.89669,0.73648
5982.96794,0.73399
5981.03920,0.73236
5979.11045,0.73237
5977.18171,0.73302
5975.25296,0.73283
5973.32422,0.73295
5971.39547,0.73439
5969.46673,0.73502
5967.53798,0.73411
5965.60924,0.73322
5963.68049,0.73260
5961.75174,0.73197
5959.82300,0.73236
5957.89425,0.73387
5955.96551,0.73495
5954.03676,0.73487
5952.10802,0.73422
5950.17927,0.73423
5948.25053,0.73498
5946.32178,0.73473
5944.39304,0.73341
5942.46429,0.73247
5940.53555,0.73231
5938.60680,0.73264
5936.67806,0.73246
5934.74931,0.73153
5932.82057,0.73144
5930.89182,0.73253
5928.96307,0.73326
5927.03433,0.73305
5925.10558,0.73249
5923.17684,0.73197
5921.24809,0.73154
5919.31935,0.73088
5917.39060,0.73029
5915.46186,0.73067
5913.53311,0.73091
5911.60437,0.72969
5909.67562,0.72854
5907.74688,0.72912
5905.81813,0.72990
5903.88939,0.72909
5901.96064,0.72801
5900.03189,0.72850
5898.10315,0.73006
5896.17440,0.73074
5894.24566,0.72980
5892.31691,0.72828
5890.38817,0.72733
5888.45942,0.72775
5886.53068,0.72890
5884.60193,0.72922
5882.67319,0.72917
5880.74444,0.72982
5878.81570,0.73033
5876.88695,0.73011
5874.95821,0.72995
5873.02946,0.73041
5871.10072,0.73117
5869.17197,0.73161
5867.24322,0.73203
5865.31448,0.73254
5863.38573,0.73202
5861.45699,0.73065
5859.52824,0.72983
5857.59950,0.72988
5855.67075,0.72994
5853.74201,0.72960
5851.81326,0.72941
5849.88452,0.72944
5847.95577,0.72941
5846.02703,0.72935
5844.09828,0.72909
5842.16954,0.72917
5840.24079,0.73014
5838.31205,0.73107
5836.38330,0.73118
5834.45455,0.73057
5832.52581,0.72948
5830.59706,0.72907
5828.66832,0.72987
5826.73957,0.73057
5824.81083,0.73015
5822.88208,0.72904
5820.95334,0.72842
5819.02459,0.72821
5817.09585,0.72750
5815.16710,0.72624
5813.23836,0.72479
5811.30961,0.72438
5809.38087,0.72581
5807.45212,0.72729
5805.52337,0.72761
5803.59463,0.72785
5801.66588,0.72824
5799.73714,0.72808
5797.80839,0.72733
5795.87965,0.72656
5793.95090,0.72640
5792.02216,0.72634
5790.09341,0.72566
5788.16467,0.72523
5786.23592,0.72572
5784.30718,0.72704
5782.37843,0.72897
5780.44969,0.73028
5778.52094,0.73002
5776.59220,0.72931
5774.66345,0.72943
5772.73470,0.72982
5770.80596,0.72945
5768.87721,0.72857
5766.94847,0.72841
5765.01972,0.72899
5763.09098,0.72931
5761.16223,0.72948
5759.23349,0.72976
5757.30474,0.73006
5755.37600,0.73024
5753.44725,0.72939
5751.51851,0.72788
5749.58976,0.72781
5747.66102,0.72933
5745.73227,0.73079
5743.80352,0.73132
5741.87478,0.73051
5739.94603,0.72892
5738.01729,0.72791
5736.08854,0.72725
5734.15980,0.72691
5732.23105,0.72791
5730.30231,0.72917
5728.37356,0.72894
5726.44482,0.72794
5724.51607,0.72768
5722.58733,0.72741
5720.65858,0.72654
5718.72984,0.72628
5716.80109,0.72614
5714.87235,0.72539
5712.94360,0.72561
5711.01485,0.72714
5709.08611,0.72796
5707.15736,0.72738
5705.22862,0.72670
5703.29987,0.72663
5701.37113,0.72661
5699.44238,0.72601
5697.51364,0.72526
5695.58489,0.72528
5693.65615,0.72582
5691.72740,0.72676
5689.79866,0.72854
5687.86991,0.72966
5685.94117,0.72917
5684.01242,0.72887
5682.08368,0.72915
5680.15493,0.72850
5678.22618,0.72705
5676.29744,0.72608
5674.36869,0.72578
5672.43995,0.72591
5670.51120,0.72666
5668.58246,0.72746
5666.65371,0.72723
5664.72497,0.72647
5662.79622,0.72619
5660.86748,0.72605
5658.93873,0.72583
5657.00999,0.72605
5655.08124,0.72610
5653.15250,0.72578
5651.22375,0.72652
5649.29500,0.72791
5647.36626,0.72785
5645.43751,0.72677
5643.50877,0.72650
5641.58002,0.72693
5639.65128,0.72727
5637.72253,0.72730
5635.79379,0.72674
5633.86504,0.72648
5631.93630,0.72714
5630.00755,0.72739
5628.07881,0.72712
5626.15006,0.72717
5624.22132,0.72661
5622.29257,0.72543
5620.36383,0.72569
5618.43508,0.72745
5616.50633,0.72845
5614.57759,0.72803
5612.64884,0.72771
5610.72010,0.72815
5608.79135,0.72820
5606.86261,0.72758
5604.93386,0.72763
5603.00512,0.72832
5601.07637,0.72824
5599.14763,0.72729
5597.21888,0.72650
5595.29014,0.72622
5593.36139,0.72613
5591.43265,0.72590
5589.50390,0.72564
5587.57516,0.72608
5585.64641,0.72710
5583.71766,0.72771
5581.78892,0.72736
5579.86017,0.72647
5577.93143,0.72613
5576.00268,0.72655
5574.07394,0.72701
5572.14519,0.72708
5570.21645,0.72676
5568.28770,0.72651
5566.35896,0.72676
5564.43021,0.72776
5562.50147,0.72912
5560.57272,0.72972
5558.64398,0.72945
5556.71523,0.72879
5554.78648,0.72822
5552.85774,0.72866
5550.92899,0.72947
5549.00025,0.72890
5547.07150,0.72763
5545.14276,0.72769
5543.21401,0.72866
5541.28527,0.72868
5539.35652,0.72777
5537.42778,0.72746
5535.49903,0.72811
5533.57029,0.72908
5531.64154,0.73008
5529.71280,0.73033
5527.78405,0.72954
5525.85531,0.72921
5523.92656,0.72969
5521.99781,0.72980
5520.06907,0.72967
5518.14032,0.72982
5516.21158,0.72961
5514.28283,0.72904
5512.35409,0.72916
5510.42534,0.72956
5508.49660,0.72923
5506.56785,0.72900
5504.63911,0.72961
5502.71036,0.72999
5500.78162,0.72942
5498.85287,0.72887
5496.92413,0.72909
5494.99538,0.72953
5493.06664,0.72957
5491.13789,0.72944
5489.20914,0.72948
5487.28040,0.72952
5485.35165,0.72982
5483.42291,0.73037
5481.49416,0.73076
5479.56542,0.73104
5477.63667,0.73092
5475.70793,0.73017
5473.77918,0.72946
5471.85044,0.72913
5469.92169,0.72891
5467.99295,0.72908
5466.06420,0.72966
5464.13546,0.73007
5462.20671,0.73016
5460.27796,0.72981
5458.34922,0.72951
5456.42047,0.73021
5454.49173,0.73114
5452.56298,0.73104
5450.63424,0.73025
5448.70549,0.72987
5446.77675,0.73041
5444.84800,0.73160
5442.91926,0.73266
5440.99051,0.73311
5439.06177,0.73349
5437.13302,0.73358
5435.20428,0.73310
5433.27553,0.73340
5431.34679,0.73427
5429.41804,0.73393
5427.48929,0.73285
5425.56055,0.73231
5423.63180,0.73242
5421.70306,0.73342
5419.77431,0.73480
5417.84557,0.73549
5415.91682,0.73536
5413.98808,0.73477
5412.05933,0.73417
5410.13059,0.73404
5408.20184,0.73471
5406.27310,0.73571
5404.34435,0.73592
5402.41561,0.73552
5400.48686,0.73568
5398.55811,0.73628
5396.62937,0.73624
5394.70062,0.73538
5392.77188,0.73472
5390.84313,0.73496
5388.91439,0.73528
5386.98564,0.73486
5385.05690,0.73409
5383.12815,0.73382
5381.19941,0.73398
5379.27066,0.73392
5377.34192,0.73367
5375.41317,0.73384
5373.48443,0.73441
5371.55568,0.73455
5369.62694,0.73466
5367.69819,0.73541
5365.76944,0.73615
5363.84070,0.73671
5361.91195,0.73691
5359.98321,0.73602
5358.05446,0.73456
5356.12572,0.73310
5354.19697,0.73190
5352.26823,0.73134
5350.33948,0.73122
5348.41074,0.73112
5346.48199,0.73092
5344.55325,0.73056
5342.62450,0.72989
5340.69576,0.72904
5338.76701,0.72829
5336.83827,0.72790
5334.90952,0.72770
5332.98077,0.72732
5331.05203,0.72650
5329.12328,0.72536
5327.19454,0.72413
5325.26579,0.72343
5323.33705,0.72376
5321.40830,0.72426
5319.47956,0.72354
5317.55081,0.72176
5315.62207,0.72038
5313.69332,0.71953
5311.76458,0.71817
5309.83583,0.71698
5307.90709,0.71667
5305.97834,0.71604
5304.04959,0.71469
5302.12085,0.71298
5300.19210,0.71086
5298.26336,0.70890
5296.33461,0.70789
5294.40587,0.70719
5292.47712,0.70554
5290.54838,0.70316
5288.61963,0.70088
5286.69089,0.69873
5284.76214,0.69708
5282.83340,0.69639
5280.90465,0.69539
5278.97591,0.69301
5277.04716,0.69034
5275.11842,0.68765
5273.18967,0.68439
5271.26092,0.68164
5269.33218,0.67975
5267.40343,0.67766
5265.47469,0.67519
5263.54594,0.67246
5261.61720,0.66997
5259.68845,0.66859
5257.75971,0.66780
5255.83096,0.66654
5253.90222,0.66448
5251.97347,0.66191
5250.04473,0.65933
5248.11598,0.65698
5246.18724,0.65476
5244.25849,0.65284
5242.32975,0.65208
5240.40100,0.65198
5238.47225,0.65045
5236.54351,0.64779
5234.61476,0.64618
5232.68602,0.64584
5230.75727,0.64557
5228.82853,0.64478
5226.89978,0.64327
5224.97104,0.64139
5223.04229,0.63998
5221.11355,0.63919
5219.18480,0.63884
5217.25606,0.63868
5215.32731,0.63813
5213.39857,0.63728
5211.46982,0.63690
5209.54107,0.63695
5207.61233,0.63702
5205.68358,0.63703
5203.75484,0.63663
5201.82609,0.63573
5199.89735,0.63494
5197.96860,0.63458
5196.03986,0.63430
5194.11111,0.63379
5192.18237,0.63333
5190.25362,0.63345
5188.32488,0.63385
5186.39613,0.63369
5184.46739,0.63330
5182.53864,0.63362
5180.60990,0.63433
5178.68115,0.63453
5176.75240,0.63438
5174.82366,0.63427
5172.89491,0.63429
5170.96617,0.63475
5169.03742,0.63511
5167.10868,0.63472
5165.17993,0.63455
5163.25119,0.63539
5161.32244,0.63644
5159.39370,0.63696
5157.46495,0.63720
5155.53621,0.63787
5153.60746,0.63914
5151.67872,0.64013
5149.74997,0.64031
5147.82123,0.64030
5145.89248,0.64043
5143.96373,0.64066
5142.03499,0.64108
5140.10624,0.64138
5138.17750,0.64131
5136.24875,0.64137
5134.32001,0.64182
5132.39126,0.64224
5130.46252,0.64252
5128.53377,0.64303
5126.60503,0.64399
5124.67628,0.64521
5122.74754,0.64614
5120.81879,0.64654
5118.89005,0.64659
5116.96130,0.64673
5115.03255,0.64718
5113.10381,0.64747
5111.17506,0.64764
5109.24632,0.64816
5107.31757,0.64894
5105.38883,0.64961
5103.46008,0.65008
5101.53134,0.65066
5099.60259,0.65135
5097.67385,0.65193
5095.74510,0.65262
5093.81636,0.65347
5091.88761,0.65420
5089.95887,0.65488
5088.03012,0.65537
5086.10138,0.65530
5084.17263,0.65505
5082.24388,0.65523
5080.31514,0.65589
5078.38639,0.65671
5076.45765,0.65747
5074.52890,0.65805
5072.60016,0.65822
5070.67141,0.65841
5068.74267,0.65920
5066.81392,0.65991
5064.88518,0.66003
5062.95643,0.65996
5061.02769,0.65993
5059.09894,0.66030
5057.17020,0.66102
5055.24145,0.66148
5053.31270,0.66191
5051.38396,0.66271
5049.45521,0.66333
5047.52647,0.66308
5045.59772,0.66241
5043.66898,0.66254
5041.74023,0.66329
5039.81149,0.66393
5037.88274,0.66455
5035.95400,0.66499
5034.02525,0.66512
5032.09651,0.66559
5030.16776,0.66620
5028.23902,0.66631
5026.31027,0.66645
5024.38153,0.66708
5022.45278,0.66766
5020.52403,0.66798
5018.59529,0.66834
5016.66654,0.66841
5014.73780,0.66809
5012.80905,0.66807
5010.88031,0.66836
5008.95156,0.66860
5007.02282,0.66887
5005.09407,0.66917
5003.16533,0.66946
5001.23658,0.66994
4999.30784,0.67056
4997.37909,0.67090
4995.45035,0.67098
4993.52160,0.67123
4991.59286,0.67135
4989.66411,0.67077
4987.73536,0.67015
4985.80662,0.67029
4983.87787,0.67069
4981.94913,0.67045
4980.02038,0.66981
4978.09164,0.66984
4976.16289,0.67021
4974.23415,0.67011
4972.30540,0.67005
4970.37666,0.67016
4968.44791,0.67002
4966.51917,0.66983
4964.59042,0.66990
4962.66168,0.66994
4960.73293,0.66945
4958.80418,0.66870
4956.87544,0.66842
4954.94669,0.66844
4953.01795,0.66793
4951.08920,0.66689
4949.16046,0.66590
4947.23171,0.66498
4945.30297,0.66423
4943.37422,0.66381
4941.44548,0.66349
4939.51673,0.66302
4937.58799,0.66232
4935.65924,0.66159
4933.73050,0.66067
4931.80175,0.65938
4929.87301,0.65849
4927.94426,0.65842
4926.01551,0.65881
4924.08677,0.65914
4922.15802,0.65852
4920.22928,0.65688
4918.30053,0.65534
4916.37179,0.65442
4914.44304,0.65385
4912.51430,0.65345
4910.58555,0.65312
4908.65681,0.65281
4906.72806,0.65246
4904.79932,0.65201
4902.87057,0.65137
4900.94183,0.65025
4899.01308,0.64868
4897.08434,0.64723
4895.15559,0.64620
4893.22684,0.64532
4891.29810,0.64449
4889.36935,0.64381
4887.44061,0.64315
4885.51186,0.64232
4883.58312,0.64126
4881.65437,0.64024
4879.72563,0.63972
4877.79688,0.63945
4875.86814,0.63883
4873.93939,0.63805
4872.01065,0.63760
4870.08190,0.63703
4868.15316,0.63579
4866.22441,0.63444
4864.29566,0.63349
4862.36692,0.63279
4860.43817,0.63221
4858.50943,0.63166
4856.58068,0.63111
4854.65194,0.63062
4852.72319,0.62985
4850.79445,0.62873
4848.86570,0.62781
4846.93696,0.62745
4845.00821,0.62735
4843.07947,0.62706
4841.15072,0.62669
4839.22198,0.62644
4837.29323,0.62583
4835.36449,0.62478
4833.43574,0.62372
4831.50699,0.62251
4829.57825,0.62132
4827.64950,0.62083
4825.72076,0.62084
4823.79201,0.62064
4821.86327,0.62004
4819.93452,0.61949
4818.00578,0.61917
4816.07703,0.61846
4814.14829,0.61735
4812.21954,0.61667
4810.29080,0.61631
4808.36205,0.61604
4806.43331,0.61621
4804.50456,0.61635
4802.57582,0.61575
4800.64707,0.61483
4798.71832,0.61434
4796.78958,0.61434
4794.86083,0.61461
4792.93209,0.61469
4791.00334,0.61415
4789.07460,0.61325
4787.14585,0.61256
4785.21711,0.61232
4783.28836,0.61204
4781.35962,0.61152
4779.43087,0.61114
4777.50213,0.61100
4775.57338,0.61096
4773.64464,0.61073
4771.71589,0.61033
4769.78714,0.61040
4767.85840,0.61095
4765.92965,0.61128
4764.00091,0.61098
4762.07216,0.61034
4760.14342,0.60988
4758.21467,0.60964
4756.28593,0.60933
4754.35718,0.60886
4752.42844,0.60844
4750.49969,0.60864
4748.57095,0.60946
4746.64220,0.60994
4744.71346,0.60956
4742.78471,0.60892
4740.85597,0.60882
4738.92722,0.60891
4736.99847,0.60840
4735.06973,0.60795
4733.14098,0.60839
4731.21224,0.60888
4729.28349,0.60851
4727.35475,0.60766
4725.42600,0.60699
4723.49726,0.60673
4721.56851,0.60690
4719.63977,0.60716
4717.71102,0.60737
4715.78228,0.60774
4713.85353,0.60818
4711.92479,0.60858
4709.99604,0.60873
4708.06729,0.60826
4706.13855,0.60745
4704.20980,0.60685
4702.28106,0.60655
4700.35231,0.60660
4698.42357,0.60682
4696.49482,0.60677
4694.56608,0.60628
4692.63733,0.60571
4690.70859,0.60529
4688.77984,0.60492
4686.85110,0.60450
4684.92235,0.60393
4682.99361,0.60334
4681.06486,0.60300
4679.13612,0.60269
4677.20737,0.60206
4675.27862,0.60118
4673.34988,0.60025
4671.42113,0.59950
4669.49239,0.59929
4667.56364,0.59956
4665.63490,0.59988
4663.70615,0.59998
4661.77741,0.59987
4659.84866,0.59976
4657.91992,0.59964
4655.99117,0.59929
4654.06243,0.59905
4652.13368,0.59936
4650.20494,0.60005
4648.27619,0.60057
4646.34745,0.60038
4644.41870,0.59928
4642.48995,0.59774
4640.56121,0.59690
4638.63246,0.59723
4636.70372,0.59785
4634.77497,0.59798
4632.84623,0.59782
4630.91748,0.59747
4628.98874,0.59663
4627.05999,0.59550
4625.13125,0.59484
4623.20250,0.59505
4621.27376,0.59548
4619.34501,0.59542
4617.41627,0.59498
4615.48752,0.59464
4613.55877,0.59481
4611.63003,0.59558
4609.70128,0.59662
4607.77254,0.59759
4605.84379,0.59850
4603.91505,0.59959
4601.98630,0.60076
4600.05756,0.60186
4598.12881,0.60286
4596.20007,0.60373
4594.27132,0.60463
4592.34258,0.60542
4590.41383,0.60589
4588.48509,0.60620
4586.55634,0.60630
4584.62760,0.60585
4582.69885,0.60520
4580.77010,0.60498
4578.84136,0.60503
4576.91261,0.60500
4574.98387,0.60491
4573.05512,0.60470
4571.12638,0.60443
4569.19763,0.60444
4567.26889,0.60465
4565.34014,0.60477
4563.41140,0.60504
4561.48265,0.60566
4559.55391,0.60618
4557.62516,0.60629
4555.69642,0.60606
4553.76767,0.60571
4551.83893,0.60551
4549.91018,0.60552
4547.98143,0.60595
4546.05269,0.60662
4544.12394,0.60660
4542.19520,0.60544
4540.26645,0.60357
4538.33771,0.60127
4536.40896,0.59879
4534.48022,0.59627
4532.55147,0.59353
4530.62273,0.59082
4528.69398,0.58899
4526.76524,0.58904
4524.83649,0.59138
4522.90775,0.59520
4520.97900,0.59926
4519.05025,0.60296
4517.12151,0.60623
4515.19276,0.60894
4513.26402,0.61083
4511.33527,0.61205
4509.40653,0.61315
4507.47778,0.61437
4505.54904,0.61531
4503.62029,0.61578
4501.69155,0.61620
4499.76280,0.61657
4497.83406,0.61639
4495.90531,0.61580
4493.97657,0.61552
4492.04782,0.61563
4490.11908,0.61561
4488.19033,0.61517
4486.26158,0.61443
4484.33284,0.61376
4482.40409,0.61314
4480.47535,0.61202
4478.54660,0.61045
4476.61786,0.60917
4474.68911,0.60824
4472.76037,0.60715
4470.83162,0.60573
4468.90288,0.60411
4466.97413,0.60241
4465.04539,0.60067
4463.11664,0.59880
4461.18790,0.59686
4459.25915,0.59501
4457.33041,0.59325
4455.40166,0.59142
4453.47291,0.58942
4451.54417,0.58735
4449.61542,0.58554
4447.68668,0.58387
4445.75793,0.58201
4443.82919,0.58021
4441.90044,0.57863
4439.97170,0.57691
4438.04295,0.57497
4436.11421,0.57319
4434.18546,0.57180
4432.25672,0.57046
4430.32797,0.56872
4428.39923,0.56669
4426.47048,0.56473
4424.54173,0.56295
4422.61299,0.56125
4420.68424,0.55942
4418.75550,0.55753
4416.82675,0.55589
4414.89801,0.55438
4412.96926,0.55266
4411.04052,0.55082
4409.11177,0.54913
4407.18303,0.54778
4405.25428,0.54683
4403.32554,0.54624
4401.39679,0.54585
4399.46805,0.54521
4397.53930,0.54418
4395.61056,0.54330
4393.68181,0.54267
4391.75306,0.54191
4389.82432,0.54122
4387.89557,0.54086
4385.96683,0.54061
4384.03808,0.54041
4382.10934,0.54048
4380.18059,0.54065
4378.25185,0.54043
4376.32310,0.53975
4374.39436,0.53900
4372.46561,0.53848
4370.53687,0.53823
4368.60812,0.53808
4366.67938,0.53785
4364.75063,0.53742
4362.82189,0.53658
4360.89314,0.53541
4358.96439,0.53439
4357.03565,0.53354
4355.10690,0.53258
4353.17816,0.53163
4351.24941,0.53087
4349.32067,0.53010
4347.39192,0.52932
4345.46318,0.52875
4343.53443,0.52829
4341.60569,0.52779
4339.67694,0.52734
4337.74820,0.52707
4335.81945,0.52682
4333.89071,0.52647
4331.96196,0.52637
4330.03321,0.52652
4328.10447,0.52641
4326.17572,0.52627
4324.24698,0.52647
4322.31823,0.52668
4320.38949,0.52649
4318.46074,0.52595
4316.53200,0.52549
4314.60325,0.52535
4312.67451,0.52520
4310.74576,0.52473
4308.81702,0.52387
4306.88827,0.52277
4304.95953,0.52178
4303.03078,0.52128
4301.10204,0.52105
4299.17329,0.52058
4297.24454,0.51999
4295.31580,0.51970
4293.38705,0.51957
4291.45831,0.51905
4289.52956,0.51803
4287.60082,0.51672
4285.67207,0.51552
4283.74333,0.51491
4281.81458,0.51464
4279.88584,0.51427
4277.95709,0.51412
4276.02835,0.51417
4274.09960,0.51388
4272.17086,0.51331
4270.24211,0.51280
4268.31336,0.51240
4266.38462,0.51200
4264.45587,0.51164
4262.52713,0.51160
4260.59838,0.51177
4258.66964,0.51184
4256.74089,0.51183
4254.81215,0.51184
4252.88340,0.51193
4250.95466,0.51213
4249.02591,0.51262
4247.09717,0.51348
4245.16842,0.51446
4243.23968,0.51539
4241.31093,0.51629
4239.38219,0.51697
4237.45344,0.51735
4235.52469,0.51751
4233.59595,0.51773
4231.66720,0.51834
4229.73846,0.51922
4227.80971,0.51989
4225.88097,0.52016
4223.95222,0.52009
4222.02348,0.51979
4220.09473,0.51946
4218.16599,0.51927
4216.23724,0.51930
4214.30850,0.51934
4212.37975,0.51931
4210.45101,0.51922
4208.52226,0.51899
4206.59352,0.51881
4204.66477,0.51881
4202.73602,0.51864
4200.80728,0.51826
4198.87853,0.51809
4196.94979,0.51839
4195.02104,0.51896
4193.09230,0.51937
4191.16355,0.51938
4189.23481,0.51931
4187.30606,0.51959
4185.37732,0.52012
4183.44857,0.52052
4181.51983,0.52073
4179.59108,0.52107
4177.66234,0.52167
4175.73359,0.52216
4173.80484,0.52234
4171.87610,0.52250
4169.94735,0.52293
4168.01861,0.52353
4166.08986,0.52394
4164.16112,0.52403
4162.23237,0.52418
4160.30363,0.52454
4158.37488,0.52456
4156.44614,0.52409
4154.51739,0.52359
4152.58865,0.52340
4150.65990,0.52343
4148.73116,0.52325
4146.80241,0.52263
4144.87367,0.52178
4142.94492,0.52100
4141.01617,0.52019
4139.08743,0.51937
4137.15868,0.51878
4135.22994,0.51819
4133.30119,0.51715
4131.37245,0.51585
4129.44370,0.51452
4127.51496,0.51323
4125.58621,0.51210
4123.65747,0.51105
4121.72872,0.50990
4119.79998,0.50872
4117.87123,0.50759
4115.94249,0.50634
4114.01374,0.50504
4112.08500,0.50371
4110.15625,0.50212
4108.22750,0.50055
4106.29876,0.49916
4104.37001,0.49760
4102.44127,0.49584
4100.51252,0.49439
4098.58378,0.49335
4096.65503,0.49228
4094.72629,0.49093
4092.79754,0.48943
4090.86880,0.48793
4088.94005,0.48653
4087.01131,0.48518
4085.08256,0.48380
4083.15382,0.48234
4081.22507,0.48069
4079.29632,0.47887
4077.36758,0.47706
4075.43883,0.47531
4073.51009,0.47350
4071.58134,0.47184
4069.65260,0.47052
4067.72385,0.46924
4065.79511,0.46771
4063.86636,0.46594
4061.93762,0.46417
4060.00887,0.46274
4058.08013,0.46158
4056.15138,0.46037
4054.22264,0.45912
4052.29389,0.45798
4050.36515,0.45702
4048.43640,0.45624
4046.50765,0.45545
4044.57891,0.45445
4042.65016,0.45326
4040.72142,0.45209
4038.79267,0.45107
4036.86393,0.45034
4034.93518,0.45013
4033.00644,0.45024
4031.07769,0.45016
4029.14895,0.44986
4027.22020,0.44968
4025.29146,0.44976
4023.36271,0.44994
4021.43397,0.44993
4019.50522,0.44970
4017.57648,0.44958
4015.64773,0.44971
4013.71898,0.45004
4011.79024,0.45053
4009.86149,0.45088
4007.93275,0.45090
4006.00400,0.45061
4004.07526,0.45019
4002.14651,0.45002
4000.21777,0.45026
3998.28902,0.45081
3996.36028,0.45121
3994.43153,0.45126
3992.50279,0.45124
3990.57404,0.45132
3988.64530,0.45149
3986.71655,0.45165
3984.78780,0.45170
3982.85906,0.45171
3980.93031,0.45174
3979.00157,0.45173
3977.07282,0.45170
3975.14408,0.45177
3973.21533,0.45189
3971.28659,0.45189
3969.35784,0.45187
3967.42910,0.45209
3965.50035,0.45238
3963.57161,0.45256
3961.64286,0.45265
3959.71412,0.45258
3957.78537,0.45236
3955.85663,0.45225
3953.92788,0.45219
3951.99913,0.45190
3950.07039,0.45161
3948.14164,0.45164
3946.21290,0.45180
3944.28415,0.45190
3942.35541,0.45206
3940.42666,0.45250
3938.49792,0.45328
3936.56917,0.45403
3934.64043,0.45443
3932.71168,0.45481
3930.78294,0.45575
3928.85419,0.45711
3926.92545,0.45831
3924.99670,0.45938
3923.06795,0.46065
3921.13921,0.46207
3919.21046,0.46332
3917.28172,0.46426
3915.35297,0.46494
3913.42423,0.46549
3911.49548,0.46599
3909.56674,0.46657
3907.63799,0.46737
3905.70925,0.46819
3903.78050,0.46865
3901.85176,0.46886
3899.92301,0.46913
3897.99427,0.46952
3896.06552,0.46980
3894.13678,0.47000
3892.20803,0.47028
3890.27928,0.47047
3888.35054,0.47048
3886.42179,0.47055
3884.49305,0.47074
3882.56430,0.47087
3880.63556,0.47098
3878.70681,0.47111
3876.77807,0.47127
3874.84932,0.47155
3872.92058,0.47185
3870.99183,0.47213
3869.06309,0.47250
3867.13434,0.47284
3865.20560,0.47304
3863.27685,0.47314
3861.34811,0.47317
3859.41936,0.47316
3857.49061,0.47321
3855.56187,0.47333
3853.63312,0.47341
3851.70438,0.47355
3849.77563,0.47378
3847.84689,0.47399
3845.91814,0.47403
3843.98940,0.47384
3842.06065,0.47371
3840.13191,0.47378
3838.20316,0.47393
3836.27442,0.47413
3834.34567,0.47416
3832.41693,0.47375
3830.48818,0.47317
3828.55943,0.47299
3826.63069,0.47330
3824.70194,0.47354
3822.77320,0.47323
3820.84445,0.47261
3818.91571,0.47220
3816.98696,0.47199
3815.05822,0.47193
3813.12947,0.47176
3811.20073,0.47123
3809.27198,0.47044
3807.34324,0.46943
3805.41449,0.46824
3803.48575,0.46723
3801.55700,0.46670
3799.62826,0.46645
3797.69951,0.46593
3795.77076,0.46503
3793.84202,0.46399
3791.91327,0.46286
3789.98453,0.46157
3788.05578,0.46026
3786.12704,0.45909
3784.19829,0.45779
3782.26955,0.45615
3780.34080,0.45447
3778.41206,0.45315
3776.48331,0.45203
3774.55457,0.45081
3772.62582,0.44944
3770.69708,0.44800
3768.76833,0.44631
3766.83959,0.44399
3764.91084,0.44115
3762.98209,0.43862
3761.05335,0.43672
3759.12460,0.43476
3757.19586,0.43238
3755.26711,0.42971
3753.33837,0.42669
3751.40962,0.42289
3749.48088,0.41822
3747.55213,0.41364
3745.62339,0.40925
3743.69464,0.40462
3741.76590,0.40011
3739.83715,0.39545
3737.90841,0.38978
3735.97966,0.38297
3734.05091,0.37562
3732.12217,0.36769
3730.19342,0.35917
3728.26468,0.35017
3726.33593,0.34001
3724.40719,0.32818
3722.47844,0.31486
3720.54970,0.30014
3718.62095,0.28398
3716.69221,0.26651
3714.76346,0.24820
3712.83472,0.22877
3710.90597,0.20923
3708.97723,0.19176
3707.04848,0.17567
3705.11974,0.15968
3703.19099,0.14349
3701.26224,0.12799
3699.33350,0.11496
3697.40475,0.10517
3695.47601,0.09846
3693.54726,0.09480
3691.61852,0.09395
3689.68977,0.09561
3687.76103,0.09959
3685.83228,0.10436
3683.90354,0.10908
3681.97479,0.11331
3680.04605,0.11611
3678.11730,0.11680
3676.18856,0.11517
3674.25981,0.11272
3672.33107,0.11118
3670.40232,0.11017
3668.47357,0.10945
3666.54483,0.10978
3664.61608,0.11085
3662.68734,0.11148
3660.75859,0.11096
3658.82985,0.10888
3656.90110,0.10514
3654.97236,0.10112
3653.04361,0.09878
3651.11487,0.09842
3649.18612,0.09984
3647.25738,0.10283
3645.32863,0.10630
3643.39989,0.10949
3641.47114,0.11209
3639.54239,0.11390
3637.61365,0.11474
3635.68490,0.11440
3633.75616,0.11303
3631.82741,0.11092
3629.89867,0.10751
3627.96992,0.10186
3626.04118,0.09527
3624.11243,0.08900
3622.18369,0.08383
3620.25494,0.08250
3618.32620,0.08727
3616.39745,0.09570
3614.46871,0.10378
3612.53996,0.11020
3610.61122,0.11502
3608.68247,0.11833
3606.75372,0.12048
3604.82498,0.12199
3602.89623,0.12312
3600.96749,0.12391
3599.03874,0.12423
3597.11000,0.12408
3595.18125,0.12386
3593.25251,0.12364
3591.32376,0.12319
3589.39502,0.12277
3587.46627,0.12258
3585.53753,0.12244
3583.60878,0.12198
3581.68004,0.12125
3579.75129,0.12067
3577.82254,0.12034
3575.89380,0.12007
3573.96505,0.11993
3572.03631,0.11991
3570.10756,0.11962
3568.17882,0.11900
3566.25007,0.11852
3564.32133,0.11819
3562.39258,0.11780
3560.46384,0.11755
3558.53509,0.11742
3556.60635,0.11712
3554.67760,0.11677
3552.74886,0.11657
3550.82011,0.11656
3548.89137,0.11676
3546.96262,0.11692
3545.03387,0.11682
3543.10513,0.11661
3541.17638,0.11639
3539.24764,0.11618
3537.31889,0.11603
3535.39015,0.11596
3533.46140,0.11591
3531.53266,0.11586
3529.60391,0.11578
3527.67517,0.11568
3525.74642,0.11549
3523.81768,0.11501
3521.88893,0.11433
3519.96019,0.11375
3518.03144,0.11311
3516.10270,0.11235
3514.17395,0.11188
3512.24520,0.11185
3510.31646,0.11201
3508.38771,0.11208
3506.45897,0.11193
3504.53022,0.11173
3502.60148,0.11144
3500.67273,0.11092
3498.74399,0.11044
3496.81524,0.11028
3494.88650,0.11017
3492.95775,0.10964
3491.02901,0.10882
3489.10026,0.10818
3487.17152,0.10782
3485.24277,0.10734
3483.31402,0.10654
3481.38528,0.10583
3479.45653,0.10554
3477.52779,0.10547
3475.59904,0.10537
3473.67030,0.10529
3471.74155,0.10529
3469.81281,0.10517
3467.88406,0.10473
3465.95532,0.10425
3464.02657,0.10408
3462.09783,0.10403
3460.16908,0.10373
3458.24034,0.10320
3456.31159,0.10263
3454.38285,0.10205
3452.45410,0.10144
3450.52535,0.10096
3448.59661,0.10069
3446.66786,0.10056
3444.73912,0.10050
3442.81037,0.10054
3440.88163,0.10061
3438.95288,0.10048
3437.02414,0.10028
3435.09539,0.10021
3433.16665,0.10008
3431.23790,0.09996
3429.30916,0.10008
3427.38041,0.09997
3425.45167,0.09954
3423.52292,0.09955
3421.59418,0.10007
3419.66543,0.10023
3417.73668,0.09979
3415.80794,0.09953
3413.87919,0.09980
3411.95045,0.10020
3410.02170,0.10047
3408.09296,0.10062
3406.16421,0.10056
3404.23547,0.10042
3402.30672,0.10046
3400.37798,0.10069
3398.44923,0.10094
3396.52049,0.10126
3394.59174,0.10160
3392.66300,0.10167
3390.73425,0.10163
3388.80550,0.10182
3386.87676,0.10207
3384.94801,0.10221
3383.01927,0.10229
3381.09052,0.10226
3379.16178,0.10222
3377.23303,0.10228
3375.30429,0.10253
3373.37554,0.10294
3371.44680,0.10335
3369.51805,0.10367
3367.58931,0.10385
3365.66056,0.10378
3363.73182,0.10381
3361.80307,0.10421
3359.87433,0.10459
3357.94558,0.10474
3356.01683,0.10497
3354.08809,0.10522
3352.15934,0.10520
3350.23060,0.10525
3348.30185,0.10571
3346.37311,0.10624
3344.44436,0.10652
3342.51562,0.10664
3340.58687,0.10679
3338.65813,0.10696
3336.72938,0.10708
3334.80064,0.10724
3332.87189,0.10760
3330.94315,0.10809
3329.01440,0.10847
3327.08566,0.10873
3325.15691,0.10890
3323.22816,0.10878
3321.29942,0.10847
3319.37067,0.10853
3317.44193,0.10904
3315.51318,0.10986
3313.58444,0.11090
3311.65569,0.11177
3309.72695,0.11209
3307.79820,0.11221
3305.86946,0.11246
3303.94071,0.11261
3302.01197,0.11280
3300.08322,0.11318
3298.15448,0.11341
3296.22573,0.11357
3294.29698,0.11392
3292.36824,0.11421
3290.43949,0.11446
3288.51075,0.11501
3286.58200,0.11569
3284.65326,0.11617
3282.72451,0.11657
3280.79577,0.11683
3278.86702,0.11679
3276.93828,0.11682
3275.00953,0.11742
3273.08079,0.11837
3271.15204,0.11908
3269.22330,0.11940
3267.29455,0.11948
3265.36581,0.11947
3263.43706,0.11979
3261.50831,0.12057
3259.57957,0.12126
3257.65082,0.12147
3255.72208,0.12166
3253.79333,0.12221
3251.86459,0.12281
3249.93584,0.12341
3248.00710,0.12416
3246.07835,0.12479
3244.14961,0.12509
3242.22086,0.12527
3240.29212,0.12554
3238.36337,0.12587
3236.43463,0.12623
3234.50588,0.12665
3232.57713,0.12725
3230.64839,0.12779
3228.71964,0.12792
3226.79090,0.12805
3224.86215,0.12844
3222.93341,0.12875
3221.00466,0.12899
3219.07592,0.12945
3217.14717,0.13002
3215.21843,0.13062
3213.28968,0.13133
3211.36094,0.13184
3209.43219,0.13192
3207.50345,0.13197
3205.57470,0.13246
3203.64596,0.13322
3201.71721,0.13392
3199.78846,0.13463
3197.85972,0.13556
3195.93097,0.13654
3194.00223,0.13711
3192.07348,0.13724
3190.14474,0.13742
3188.21599,0.13789
3186.28725,0.13853
3184.35850,0.13911
3182.42976,0.13966
3180.50101,0.14028
3178.57227,0.14081
3176.64352,0.14118
3174.71478,0.14162
3172.78603,0.14217
3170.85729,0.14268
3168.92854,0.14323
3166.99979,0.14394
3165.07105,0.14458
3163.14230,0.14506
3161.21356,0.14560
3159.28481,0.14627
3157.35607,0.14693
3155.42732,0.14763
3153.49858,0.14837
3151.56983,0.14897
3149.64109,0.14942
3147.71234,0.14991
3145.78360,0.15046
3143.85485,0.15089
3141.92611,0.15121
3139.99736,0.15175
3138.06861,0.15256
3136.13987,0.15351
3134.21112,0.15437
3132.28238,0.15479
3130.35363,0.15480
3128.42489,0.15497
3126.49614,0.15574
3124.56740,0.15672
3122.63865,0.15720
3120.70991,0.15731
3118.78116,0.15760
3116.85242,0.15796
3114.92367,0.15807
3112.99493,0.15807
3111.06618,0.15803
3109.13744,0.15785
3107.20869,0.15759
3105.27994,0.15752
3103.35120,0.15782
3101.42245,0.15848
3099.49371,0.15931
3097.56496,0.15993
3095.63622,0.16001
3093.70747,0.15956
3091.77873,0.15863
3089.84998,0.15710
3087.92124,0.15531
3085.99249,0.15399
3084.06375,0.15355
3082.13500,0.15421
3080.20626,0.15576
3078.27751,0.15734
3076.34877,0.15845
3074.42002,0.15900
3072.49127,0.15899
3070.56253,0.15838
3068.63378,0.15693
3066.70504,0.15473
3064.77629,0.15241
3062.84755,0.15079
3060.91880,0.15053
3058.99006,0.15191
3057.06131,0.15448
3055.13257,0.15734
3053.20382,0.15978
3051.27508,0.16161
3049.34633,0.16290
3047.41759,0.16358
3045.48884,0.16359
3043.56009,0.16299
3041.63135,0.16174
3039.70260,0.15979
3037.77386,0.15709
3035.84511,0.15335
3033.91637,0.14855
3031.98762,0.14325
3030.05888,0.13866
3028.13013,0.13626
3026.20139,0.13697
3024.27264,0.14041
3022.34390,0.14512
3020.41515,0.14979
3018.48641,0.15369
3016.55766,0.15652
3014.62892,0.15828
3012.70017,0.15884
3010.77142,0.15803
3008.84268,0.15636
3006.91393,0.15453
3004.98519,0.15247
3003.05644,0.15003
3001.12770,0.14757
2999.19895,0.14524
2997.27021,0.14250
2995.34146,0.13879
2993.41272,0.13410
2991.48397,0.12882
2989.55523,0.12358
2987.62648,0.11899
2985.69774,0.11521
2983.76899,0.11207
2981.84025,0.10941
2979.91150,0.10689
2977.98275,0.10430
2976.05401,0.10179
2974.12526,0.09907
2972.19652,0.09563
2970.26777,0.09181
2968.33903,0.08830
2966.41028,0.08526
2964.48154,0.08269
2962.55279,0.08062
2960.62405,0.07902
2958.69530,0.07805
2956.76656,0.07802
2954.83781,0.07885
2952.90907,0.08027
2950.98032,0.08186
2949.05157,0.08306
2947.12283,0.08353
2945.19408,0.08362
2943.26534,0.08354
2941.33659,0.08298
2939.40785,0.08195
2937.47910,0.08082
2935.55036,0.07979
2933.62161,0.07910
2931.69287,0.07905
2929.76412,0.07961
2927.83538,0.08040
2925.90663,0.08113
2923.97789,0.08191
2922.04914,0.08297
2920.12040,0.08435
2918.19165,0.08585
2916.26290,0.08731
2914.33416,0.08895
2912.40541,0.09088
2910.47667,0.09277
2908.54792,0.09452
2906.61918,0.09627
2904.69043,0.09770
2902.76169,0.09867
2900.83294,0.09949
2898.90420,0.10031
2896.97545,0.10116
2895.04671,0.10197
2893.11796,0.10260
2891.18922,0.10296
2889.26047,0.10293
2887.33172,0.10231
2885.40298,0.10108
2883.47423,0.09922
2881.54549,0.09670
2879.61674,0.09379
2877.68800,0.09113
2875.75925,0.08938
2873.83051,0.08894
2871.90176,0.08965
2869.97302,0.09109
2868.04427,0.09294
2866.11553,0.09476
2864.18678,0.09625
2862.25804,0.09778
2860.32929,0.09972
2858.40055,0.10191
2856.47180,0.10405
2854.54305,0.10620
2852.61431,0.10853
2850.68556,0.11125
2848.75682,0.11468
2846.82807,0.11902
2844.89933,0.12421
2842.97058,0.13002
2841.04184,0.13626
2839.11309,0.14265
2837.18435,0.14882
2835.25560,0.15460
2833.32686,0.16002
2831.39811,0.16508
2829.46937,0.16960
2827.54062,0.17356
2825.61188,0.17719
2823.68313,0.18053
2821.75438,0.18352
2819.82564,0.18632
2817.89689,0.18900
2815.96815,0.19141
2814.03940,0.19357
2812.11066,0.19559
2810.18191,0.19750
2808.25317,0.19925
2806.32442,0.20086
2804.39568,0.20242
2802.46693,0.20380
2800.53819,0.20507
2798.60944,0.20659
2796.68070,0.20838
2794.75195,0.21004
2792.82320,0.21147
2790.89446,0.21292
2788.96571,0.21431
2787.03697,0.21548
2785.10822,0.21665
2783.17948,0.21796
2781.25073,0.21914
2779.32199,0.22007
2777.39324,0.22095
2775.46450,0.22180
2773.53575,0.22255
2771.60701,0.22329
2769.67826,0.22413
2767.74952,0.22487
2765.82077,0.22547
2763.89203,0.22611
2761.96328,0.22674
2760.03453,0.22722
2758.10579,0.22755
2756.17704,0.22788
2754.24830,0.22823
2752.31955,0.22850
2750.39081,0.22871
2748.46206,0.22896
2746.53332,0.22918
2744.60457,0.22918
2742.67583,0.22900
2740.74708,0.22897
2738.81834,0.22916
2736.88959,0.22935
2734.96085,0.22945
2733.03210,0.22957
2731.10336,0.22993
2729.17461,0.23068
2727.24586,0.23162
2725.31712,0.23257
2723.38837,0.23356
2721.45963,0.23439
2719.53088,0.23488
2717.60214,0.23532
2715.67339,0.23584
2713.74465,0.23623
2711.81590,0.23663
2709.88716,0.23734
2707.95841,0.23824
2706.02967,0.23906
2704.10092,0.23967
2702.17218,0.24020
2700.24343,0.24086
2698.31468,0.24154
2696.38594,0.24209
2694.45719,0.24262
2692.52845,0.24325
2690.59970,0.24399
2688.67096,0.24478
2686.74221,0.24551
2684.81347,0.24603
2682.88472,0.24629
2680.95598,0.24655
2679.02723,0.24702
2677.09849,0.24758
2675.16974,0.24796
2673.24100,0.24826
2671.31225,0.24862
2669.38351,0.24892
2667.45476,0.24902
2665.52601,0.24896
2663.59727,0.24884
2661.66852,0.24882
2659.73978,0.24893
2657.81103,0.24902
2655.88229,0.24908
2653.95354,0.24904
2652.02480,0.24881
2650.09605,0.24856
2648.16731,0.24833
2646.23856,0.24793
2644.30982,0.24708
2642.38107,0.24582
2640.45233,0.24441
2638.52358,0.24278
2636.59484,0.24059
2634.66609,0.23791
2632.73734,0.23506
2630.80860,0.23205
2628.87985,0.22905
2626.95111,0.22630
2625.02236,0.22360
2623.09362,0.22090
2621.16487,0.21844
2619.23613,0.21609
2617.30738,0.21342
2615.37864,0.21049
2613.44989,0.20754
2611.52115,0.20455
2609.59240,0.20143
2607.66366,0.19828
2605.73491,0.19533
2603.80616,0.19276
2601.87742,0.19069
2599.94867,0.18912
2598.01993,0.18797
2596.09118,0.18714
2594.16244,0.18630
2592.23369,0.18535
2590.30495,0.18458
2588.37620,0.18400
2586.44746,0.18341
2584.51871,0.18282
2582.58997,0.18235
2580.66122,0.18193
2578.73248,0.18153
2576.80373,0.18111
2574.87499,0.18061
2572.94624,0.18005
2571.01749,0.17958
2569.08875,0.17919
2567.16000,0.17859
2565.23126,0.17765
2563.30251,0.17657
2561.37377,0.17555
2559.44502,0.17446
2557.51628,0.17309
2555.58753,0.17156
2553.65879,0.17003
2551.73004,0.16841
2549.80130,0.16661
2547.87255,0.16471
2545.94381,0.16268
2544.01506,0.16052
2542.08631,0.15813
2540.15757,0.15479
2538.22882,0.14966
2536.30008,0.14298
2534.37133,0.13574
2532.44259,0.12873
2530.51384,0.12211
2528.58510,0.11592
2526.65635,0.11056
2524.72761,0.10622
2522.79886,0.10267
2520.87012,0.09996
2518.94137,0.09828
2517.01263,0.09739
2515.08388,0.09689
2513.15514,0.09677
2511.22639,0.09747
2509.29764,0.09937
2507.36890,0.10254
2505.44015,0.10721
2503.51141,0.11342
2501.58266,0.12064
2499.65392,0.12859
2497.72517,0.13746
2495.79643,0.14710
2493.86768,0.15712
2491.93894,0.16704
2490.01019,0.17630
2488.08145,0.18467
2486.15270,0.19247
2484.22396,0.19996
2482.29521,0.20723
2480.36647,0.21420
2478.43772,0.22086
2476.50897,0.22760
2474.58023,0.23453
2472.65148,0.24110
2470.72274,0.24681
2468.79399,0.25160
2466.86525,0.25557
2464.93650,0.25887
2463.00776,0.26168
2461.07901,0.26413
2459.15027,0.26634
2457.22152,0.26835
2455.29278,0.27026
2453.36403,0.27223
2451.43529,0.27413
2449.50654,0.27574
2447.57779,0.27712
2445.64905,0.27842
2443.72030,0.27964
2441.79156,0.28083
2439.86281,0.28211
2437.93407,0.28333
2436.00532,0.28435
2434.07658,0.28530
2432.14783,0.28626
2430.21909,0.28727
2428.29034,0.28837
2426.36160,0.28945
2424.43285,0.29042
2422.50411,0.29135
2420.57536,0.29228
2418.64662,0.29326
2416.71787,0.29428
2414.78912,0.29512
2412.86038,0.29566
2410.93163,0.29609
2409.00289,0.29665
2407.07414,0.29737
2405.14540,0.29812
2403.21665,0.29879
2401.28791,0.29939
2399.35916,0.29994
2397.43042,0.30040
2395.50167,0.30072
2393.57293,0.30106
2391.64418,0.30160
2389.71544,0.30223
2387.78669,0.30271
2385.85795,0.30303
2383.92920,0.30340
2382.00045,0.30380
2380.07171,0.30410
2378.14296,0.30446
2376.21422,0.30490
2374.28547,0.30519
2372.35673,0.30533
2370.42798,0.30553
2368.49924,0.30574
2366.57049,0.30572
2364.64175,0.30565
2362.71300,0.30579
2360.78426,0.30605
2358.85551,0.30638
2356.92677,0.30669
2354.99802,0.30663
2353.06927,0.30625
2351.14053,0.30596
2349.21178,0.30573
2347.28304,0.30547
2345.35429,0.30530
2343.42555,0.30506
2341.49680,0.30472
2339.56806,0.30461
2337.63931,0.30473
2335.71057,0.30496
2333.78182,0.30536
2331.85308,0.30575
2329.92433,0.30598
2327.99559,0.30620
2326.06684,0.30637
2324.13810,0.30631
2322.20935,0.30608
2320.28060,0.30575
2318.35186,0.30536
2316.42311,0.30504
2314.49437,0.30480
2312.56562,0.30462
2310.63688,0.30454
2308.70813,0.30461
2306.77939,0.30463
2304.85064,0.30444
2302.92190,0.30432
2300.99315,0.30434
2299.06441,0.30426
2297.13566,0.30401
2295.20692,0.30378
2293.27817,0.30367
2291.34943,0.30371
2289.42068,0.30388
2287.49193,0.30389
2285.56319,0.30356
2283.63444,0.30309
2281.70570,0.30275
2279.77695,0.30257
2277.84821,0.30229
2275.91946,0.30176
2273.99072,0.30108
2272.06197,0.30038
2270.13323,0.29967
2268.20448,0.29879
2266.27574,0.29777
2264.34699,0.29691
2262.41825,0.29611
2260.48950,0.29517
2258.56075,0.29434
2256.63201,0.29371
2254.70326,0.29308
2252.77452,0.29241
2250.84577,0.29182
2248.91703,0.29124
2246.98828,0.29059
2245.05954,0.28991
2243.13079,0.28917
2241.20205,0.28835
2239.27330,0.28751
2237.34456,0.28674
2235.41581,0.28602
2233.48707,0.28524
2231.55832,0.28433
2229.62958,0.28328
2227.70083,0.28222
2225.77208,0.28128
2223.84334,0.28046
2221.91459,0.27989
2219.98585,0.27968
2218.05710,0.27967
2216.12836,0.27971
2214.19961,0.27977
2212.27087,0.27979
2210.34212,0.27970
2208.41338,0.27944
2206.48463,0.27905
2204.55589,0.27865
2202.62714,0.27817
2200.69840,0.27755
2198.76965,0.27683
2196.84090,0.27617
2194.91216,0.27560
2192.98341,0.27488
2191.05467,0.27391
2189.12592,0.27282
2187.19718,0.27171
2185.26843,0.27050
2183.33969,0.26918
2181.41094,0.26792
2179.48220,0.26681
2177.55345,0.26578
2175.62471,0.26466
2173.69596,0.26351
2171.76722,0.26234
2169.83847,0.26102
2167.90973,0.25953
2165.98098,0.25810
2164.05223,0.25682
2162.12349,0.25555
2160.19474,0.25415
2158.26600,0.25254
2156.33725,0.25067
2154.40851,0.24856
2152.47976,0.24643
2150.55102,0.24452
2148.62227,0.24282
2146.69353,0.24123
2144.76478,0.23993
2142.83604,0.23912
2140.90729,0.23867
2138.97855,0.23830
2137.04980,0.23818
2135.12106,0.23850
2133.19231,0.23904
2131.26356,0.23977
2129.33482,0.24091
2127.40607,0.24237
2125.47733,0.24380
2123.54858,0.24514
2121.61984,0.24652
2119.69109,0.24791
2117.76235,0.24906
2115.83360,0.24986
2113.90486,0.25060
2111.97611,0.25140
2110.04737,0.25208
2108.11862,0.25256
2106.18988,0.25298
2104.26113,0.25331
2102.33238,0.25345
2100.40364,0.25354
2098.47489,0.25369
2096.54615,0.25385
2094.61740,0.25388
2092.68866,0.25379
2090.75991,0.25367
2088.83117,0.25352
2086.90242,0.25333
2084.97368,0.25309
2083.04493,0.25286
2081.11619,0.25257
2079.18744,0.25199
2077.25870,0.25121
2075.32995,0.25064
2073.40121,0.25029
2071.47246,0.24976
2069.54371,0.24893
2067.61497,0.24803
2065.68622,0.24729
2063.75748,0.24675
2061.82873,0.24625
2059.89999,0.24566
2057.97124,0.24498
2056.04250,0.24436
2054.11375,0.24390
2052.18501,0.24345
2050.25626,0.24287
2048.32752,0.24225
2046.39877,0.24167
2044.47003,0.24110
2042.54128,0.24047
2040.61254,0.23984
2038.68379,0.23931
2036.75504,0.23884
2034.82630,0.23835
2032.89755,0.23798
2030.96881,0.23782
2029.04006,0.23781
2027.11132,0.23791
2025.18257,0.23799
2023.25383,0.23794
2021.32508,0.23784
2019.39634,0.23767
2017.46759,0.23734
2015.53885,0.23693
2013.61010,0.23645
2011.68136,0.23579
2009.75261,0.23497
2007.82386,0.23415
2005.89512,0.23352
2003.96637,0.23303
2002.03763,0.23257
2000.10888,0.23219
1998.18014,0.23207
1996.25139,0.23208
1994.32265,0.23199
1992.39390,0.23169
1990.46516,0.23133
1988.53641,0.23109
1986.60767,0.23092
1984.67892,0.23071
1982.75018,0.23052
1980.82143,0.23029
1978.89269,0.22989
1976.96394,0.22934
1975.03519,0.22887
1973.10645,0.22849
1971.17770,0.22797
1969.24896,0.22728
1967.32021,0.22644
1965.39147,0.22531
1963.46272,0.22388
1961.53398,0.22258
1959.60523,0.22213
1957.67649,0.22248
1955.74774,0.22285
1953.81900,0.22291
1951.89025,0.22291
1949.96151,0.22291
1948.03276,0.22283
1946.10402,0.22276
1944.17527,0.22281
1942.24652,0.22302
1940.31778,0.22349
1938.38903,0.22425
1936.46029,0.22518
1934.53154,0.22613
1932.60280,0.22703
1930.67405,0.22780
1928.74531,0.22833
1926.81656,0.22863
1924.88782,0.22879
1922.95907,0.22884
1921.03033,0.22872
1919.10158,0.22827
1917.17284,0.22742
1915.24409,0.22639
1913.31534,0.22530
1911.38660,0.22396
1909.45785,0.22227
1907.52911,0.22042
1905.60036,0.21860
1903.67162,0.21685
1901.74287,0.21502
1899.81413,0.21299
1897.88538,0.21088
1895.95664,0.20883
1894.02789,0.20691
1892.09915,0.20515
1890.17040,0.20353
1888.24166,0.20210
1886.31291,0.20081
1884.38417,0.19954
1882.45542,0.19824
1880.52667,0.19688
1878.59793,0.19561
1876.66918,0.19463
1874.74044,0.19379
1872.81169,0.19288
1870.88295,0.19212
1868.95420,0.19174
1867.02546,0.19180
1865.09671,0.19229
1863.16797,0.19312
1861.23922,0.19414
1859.31048,0.19520
1857.38173,0.19611
1855.45299,0.19674
1853.52424,0.19724
1851.59549,0.19774
1849.66675,0.19804
1847.73800,0.19794
1845.80926,0.19730
1843.88051,0.19612
1841.95177,0.19456
1840.02302,0.19273
1838.09428,0.19043
1836.16553,0.18773
1834.23679,0.18485
1832.30804,0.18173
1830.37930,0.17800
1828.45055,0.17378
1826.52181,0.16962
1824.59306,0.16567
1822.66432,0.16209
1820.73557,0.15875
1818.80682,0.15529
1816.87808,0.15161
1814.94933,0.14761
1813.02059,0.14293
1811.09184,0.13689
1809.16310,0.12862
1807.23435,0.11761
1805.30561,0.10388
1803.37686,0.08841
1801.44812,0.07382
1799.51937,0.06356
1797.59063,0.05872
1795.66188,0.05745
1793.73314,0.05858
1791.80439,0.06363
1789.87565,0.07331
1787.94690,0.08512
1786.01815,0.09662
1784.08941,0.10615
1782.16066,0.11292
1780.23192,0.11708
1778.30317,0.11904
1776.37443,0.11941
1774.44568,0.11864
1772.51694,0.11677
1770.58819,0.11402
1768.65945,0.11059
1766.73070,0.10652
1764.80196,0.10211
1762.87321,0.09730
1760.94447,0.09196
1759.01572,0.08648
1757.08697,0.08084
1755.15823,0.07518
1753.22948,0.06961
1751.30074,0.06367
1749.37199,0.05784
1747.44325,0.05304
1745.51450,0.04906
1743.58576,0.04557
1741.65701,0.04253
1739.72827,0.03991
1737.79952,0.03801
1735.87078,0.03705
1733.94203,0.03695
1732.01329,0.03756
1730.08454,0.03865
1728.15580,0.04014
1726.22705,0.04190
1724.29830,0.04424
1722.36956,0.04745
1720.44081,0.05130
1718.51207,0.05576
1716.58332,0.06041
1714.65458,0.06411
1712.72583,0.06679
1710.79709,0.06888
1708.86834,0.07051
1706.93960,0.07182
1705.01085,0.07300
1703.08211,0.07406
1701.15336,0.07486
1699.22462,0.07528
1697.29587,0.07536
1695.36713,0.07514
1693.43838,0.07462
1691.50963,0.07388
1689.58089,0.07293
1687.65214,0.07201
1685.72340,0.07126
1683.79465,0.07044
1681.86591,0.06951
1679.93716,0.06870
1678.00842,0.06802
1676.07967,0.06725
1674.15093,0.06645
1672.22218,0.06584
1670.29344,0.06518
1668.36469,0.06431
1666.43595,0.06361
1664.50720,0.06319
1662.57845,0.06284
1660.64971,0.06255
1658.72096,0.06237
1656.79222,0.06231
1654.86347,0.06226
1652.93473,0.06200
1651.00598,0.06184
1649.07724,0.06193
1647.14849,0.06185
1645.21975,0.06139
1643.29100,0.06086
1641.36226,0.06054
1639.43351,0.06044
1637.50477,0.06025
1635.57602,0.05984
1633.64728,0.05959
1631.71853,0.05952
1629.78978,0.05937
1627.86104,0.05904
1625.93229,0.05872
1624.00355,0.05840
1622.07480,0.05802
1620.14606,0.05770
1618.21731,0.05742
1616.28857,0.05698
1614.35982,0.05647
1612.43108,0.05605
1610.50233,0.05575
1608.57359,0.05555
1606.64484,0.05539
1604.71610,0.05530
1602.78735,0.05545
1600.85861,0.05589
1598.92986,0.05663
1597.00111,0.05758
1595.07237,0.05844
1593.14362,0.05904
1591.21488,0.05955
1589.28613,0.06010
1587.35739,0.06078
1585.42864,0.06189
1583.49990,0.06365
1581.57115,0.06598
1579.64241,0.06855
1577.71366,0.07131
1575.78492,0.07451
1573.85617,0.07751
1571.92743,0.08001
1569.99868,0.08256
1568.06993,0.08516
1566.14119,0.08743
1564.21244,0.08954
1562.28370,0.09176
1560.35495,0.09443
1558.42621,0.09761
1556.49746,0.10014
1554.56872,0.10189
1552.63997,0.10316
1550.71123,0.10381
1548.78248,0.10382
1546.85374,0.10342
1544.92499,0.10291
1542.99625,0.10248
1541.06750,0.10208
1539.13876,0.10145
1537.21001,0.10087
1535.28126,0.10059
1533.35252,0.10037
1531.42377,0.09996
1529.49503,0.09942
1527.56628,0.09889
1525.63754,0.09844
1523.70879,0.09799
1521.78005,0.09719
1519.85130,0.09618
1517.92256,0.09541
1515.99381,0.09486
1514.06507,0.09443
1512.13632,0.09409
1510.20758,0.09383
1508.27883,0.09362
1506.35008,0.09332
1504.42134,0.09299
1502.49259,0.09288
1500.56385,0.09296
1498.63510,0.09298
1496.70636,0.09274
1494.77761,0.09260
1492.84887,0.09281
1490.92012,0.09309
1488.99138,0.09315
1487.06263,0.09312
1485.13389,0.09310
1483.20514,0.09300
1481.27640,0.09297
1479.34765,0.09315
1477.41891,0.09347
1475.49016,0.09377
1473.56141,0.09385
1471.63267,0.09378
1469.70392,0.09384
1467.77518,0.09409
1465.84643,0.09452
1463.91769,0.09488
1461.98894,0.09495
1460.06020,0.09496
1458.13145,0.09514
1456.20271,0.09536
1454.27396,0.09556
1452.34522,0.09572
1450.41647,0.09576
1448.48773,0.09581
1446.55898,0.09603
1444.63024,0.09629
1442.70149,0.09657
1440.77274,0.09709
1438.84400,0.09780
1436.91525,0.09854
1434.98651,0.09935
1433.05776,0.10015
1431.12902,0.10076
1429.20027,0.10132
1427.27153,0.10206
1425.34278,0.10293
1423.41404,0.10384
1421.48529,0.10463
1419.55655,0.10520
1417.62780,0.10566
1415.69906,0.10610
1413.77031,0.10643
1411.84156,0.10653
1409.91282,0.10623
1407.98407,0.10515
1406.05533,0.10321
1404.12658,0.10084
1402.19784,0.09857
1400.26909,0.09680
1398.34035,0.09574
1396.41160,0.09510
1394.48286,0.09426
1392.55411,0.09329
1390.62537,0.09260
1388.69662,0.09221
1386.76788,0.09191
1384.83913,0.09168
1382.91039,0.09159
1380.98164,0.09166
1379.05289,0.09180
1377.12415,0.09197
1375.19540,0.09241
1373.26666,0.09328
1371.33791,0.09442
1369.40917,0.09568
1367.48042,0.09702
1365.55168,0.09857
1363.62293,0.10038
1361.69419,0.10226
1359.76544,0.10400
1357.83670,0.10562
1355.90795,0.10711
1353.97921,0.10843
1352.05046,0.10960
1350.12172,0.11071
1348.19297,0.11182
1346.26422,0.11298
1344.33548,0.11407
1342.40673,0.11504
1340.47799,0.11599
1338.54924,0.11694
1336.62050,0.11770
1334.69175,0.11805
1332.76301,0.11805
1330.83426,0.11803
1328.90552,0.11822
1326.97677,0.11852
1325.04803,0.11874
1323.11928,0.11885
1321.19054,0.11893
1319.26179,0.11912
1317.33304,0.11950
1315.40430,0.11997
1313.47555,0.12042
1311.54681,0.12088
1309.61806,0.12156
1307.68932,0.12244
1305.76057,0.12349
1303.83183,0.12468
1301.90308,0.12573
1299.97434,0.12647
1298.04559,0.12702
1296.11685,0.12734
1294.18810,0.12727
1292.25936,0.12684
1290.33061,0.12605
1288.40187,0.12491
1286.47312,0.12355
1284.54437,0.12210
1282.61563,0.12056
1280.68688,0.11895
1278.75814,0.11736
1276.82939,0.11570
1274.90065,0.11398
1272.97190,0.11235
1271.04316,0.11073
1269.11441,0.10908
1267.18567,0.10761
1265.25692,0.10646
1263.32818,0.10545
1261.39943,0.10446
1259.47069,0.10369
1257.54194,0.10318
1255.61320,0.10253
1253.68445,0.10154
1251.75570,0.10059
1249.82696,0.09990
1247.89821,0.09924
1245.96947,0.09848
1244.04072,0.09775
1242.11198,0.09717
1240.18323,0.09698
1238.25449,0.09735
1236.32574,0.09798
1234.39700,0.09841
1232.46825,0.09890
1230.53951,0.09980
1228.61076,0.10085
1226.68202,0.10180
1224.75327,0.10247
1222.82452,0.10270
1220.89578,0.10276
1218.96703,0.10282
1217.03829,0.10250
1215.10954,0.10179
1213.18080,0.10112
1211.25205,0.10057
1209.32331,0.09986
1207.39456,0.09886
1205.46582,0.09769
1203.53707,0.09650
1201.60833,0.09533
1199.67958,0.09411
1197.75084,0.09270
1195.82209,0.09124
1193.89335,0.08991
1191.96460,0.08870
1190.03585,0.08746
1188.10711,0.08604
1186.17836,0.08465
1184.24962,0.08360
1182.32087,0.08261
1180.39213,0.08136
1178.46338,0.08001
1176.53464,0.07880
1174.60589,0.07778
1172.67715,0.07700
1170.74840,0.07628
1168.81966,0.07533
1166.89091,0.07428
1164.96217,0.07341
1163.03342,0.07273
1161.10467,0.07227
1159.17593,0.07228
1157.24718,0.07320
1155.31844,0.07493
1153.38969,0.07655
1151.46095,0.07766
1149.53220,0.07879
1147.60346,0.08023
1145.67471,0.08160
1143.74597,0.08281
1141.81722,0.08392
1139.88848,0.08469
1137.95973,0.08495
1136.03099,0.08492
1134.10224,0.08492
1132.17350,0.08491
1130.24475,0.08455
1128.31600,0.08374
1126.38726,0.08253
1124.45851,0.08102
1122.52977,0.07935
1120.60102,0.07752
1118.67228,0.07550
1116.74353,0.07365
1114.81479,0.07269
1112.88604,0.07287
1110.95730,0.07364
1109.02855,0.07442
1107.09981,0.07502
1105.17106,0.07554
1103.24232,0.07618
1101.31357,0.07704
1099.38483,0.07789
1097.45608,0.07843
1095.52733,0.07883
1093.59859,0.07934
1091.66984,0.08006
1089.74110,0.08107
1087.81235,0.08220
1085.88361,0.08318
1083.95486,0.08390
1082.02612,0.08435
1080.09737,0.08453
1078.16863,0.08454
1076.23988,0.08468
1074.31114,0.08494
1072.38239,0.08487
1070.45365,0.08424
1068.52490,0.08326
1066.59615,0.08199
1064.66741,0.08059
1062.73866,0.07946
1060.80992,0.07884
1058.88117,0.07866
1056.95243,0.07838
1055.02368,0.07782
1053.09494,0.07743
1051.16619,0.07737
1049.23745,0.07753
1047.30870,0.07772
1045.37996,0.07770
1043.45121,0.07765
1041.52247,0.07793
1039.59372,0.07847
1037.66498,0.07889
1035.73623,0.07885
1033.80748,0.07846
1031.87874,0.07815
1029.94999,0.07785
1028.02125,0.07709
1026.09250,0.07605
1024.16376,0.07517
1022.23501,0.07460
1020.30627,0.07438
1018.37752,0.07435
1016.44878,0.07441
1014.52003,0.07465
1012.59129,0.07506
1010.66254,0.07561
1008.73380,0.07613
1006.80505,0.07637
1004.87631,0.07622
1002.94756,0.07559
1001.01881,0.07467
999.09007,0.07372
997.16132,0.07289
995.23258,0.07243
993.30383,0.07204
991.37509,0.07129
989.44634,0.07055
987.51760,0.07007
985.58885,0.06949
983.66011,0.06887
981.73136,0.06860
979.80262,0.06857
977.87387,0.06841
975.94513,0.06799
974.01638,0.06731
972.08763,0.06660
970.15889,0.06604
968.23014,0.06559
966.30140,0.06527
964.37265,0.06502
962.44391,0.06452
960.51516,0.06385
958.58642,0.06348
956.65767,0.06338
954.72893,0.06319
952.80018,0.06280
950.87144,0.06223
948.94269,0.06169
947.01395,0.06134
945.08520,0.06115
943.15646,0.06101
941.22771,0.06082
939.29896,0.06065
937.37022,0.06043
935.44147,0.06007
933.51273,0.05966
931.58398,0.05939
929.65524,0.05936
927.72649,0.05925
925.79775,0.05887
923.86900,0.05862
921.94026,0.05877
920.01151,0.05881
918.08277,0.05848
916.15402,0.05833
914.22528,0.05868
912.29653,0.05926
910.36779,0.05975
908.43904,0.05998
906.51029,0.06010
904.58155,0.06053
902.65280,0.06126
900.72406,0.06195
898.79531,0.06255
896.86657,0.06315
894.93782,0.06381
893.00908,0.06481
891.08033,0.06639
889.15159,0.06758
887.22284,0.06675
885.29410,0.06441
883.36535,0.06296
881.43661,0.06348
879.50786,0.06538
877.57911,0.06757
875.65037,0.06919
873.72162,0.06995
871.79288,0.06960
869.86413,0.06849
867.93539,0.06758
866.00664,0.06693
864.07790,0.06595
862.14915,0.06478
860.22041,0.06380
858.29166,0.06278
856.36292,0.06152
854.43417,0.06024
852.50543,0.05886
850.57668,0.05713
848.64794,0.05564
846.71919,0.05529
844.79044,0.05554
842.86170,0.05532
840.93295,0.05453
839.00421,0.05352
837.07546,0.05267
835.14672,0.05218
833.21797,0.05194
831.28923,0.05158
829.36048,0.05093
827.43174,0.05033
825.50299,0.04996
823.57425,0.04918
821.64550,0.04779
819.71676,0.04658
817.78801,0.04604
815.85926,0.04583
813.93052,0.04551
812.00177,0.04492
810.07303,0.04419
808.14428,0.04359
806.21554,0.04349
804.28679,0.04394
802.35805,0.04448
800.42930,0.04470
798.50056,0.04452
796.57181,0.04417
794.64307,0.04402
792.71432,0.04408
790.78558,0.04386
788.85683,0.04334
786.92809,0.04320
784.99934,0.04336
783.07059,0.04329
781.14185,0.04316
779.21310,0.04328
777.28436,0.04339
775.35561,0.04301
773.42687,0.04223
771.49812,0.04153
769.56938,0.04099
767.64063,0.04062
765.71189,0.04058
763.78314,0.04066
761.85440,0.04052
759.92565,0.04025
757.99691,0.04013
756.06816,0.04018
754.13942,0.04026
752.21067,0.04028
750.28192,0.04010
748.35318,0.03953
746.42443,0.03887
744.49569,0.03859
742.56694,0.03862
740.63820,0.03852
738.70945,0.03807
736.78071,0.03787
734.85196,0.03839
732.92322,0.03896
730.99447,0.03906
729.06573,0.03896
727.13698,0.03872
725.20824,0.03809
723.27949,0.03716
721.35074,0.03638
719.42200,0.03621
717.49325,0.03695
715.56451,0.03912
713.63576,0.04242
711.70702,0.04478
709.77827,0.04506
707.84953,0.04458
705.92078,0.04460
703.99204,0.04492
702.06329,0.04519
700.13455,0.04562
698.20580,0.04607
696.27706,0.04600
694.34831,0.04539
692.41957,0.04481
690.49082,0.04496
688.56207,0.04576
686.63333,0.04639
684.70458,0.04640
682.77584,0.04603
680.84709,0.04549
678.91835,0.04504
676.98960,0.04544
675.06086,0.04648
673.13211,0.04684
671.20337,0.04626
669.27462,0.04551
667.34588,0.04512
665.41713,0.04502
663.48839,0.04510
661.55964,0.04542
659.63090,0.04575
657.70215,0.04598
655.77340,0.04635
653.84466,0.04631
651.91591,0.04583
649.98717,0.04575
648.05842,0.04567
646.12968,0.04516
644.20093,0.04460
642.27219,0.04414
640.34344,0.04418
638.41470,0.04465
636.48595,0.04466
634.55721,0.04429
632.62846,0.04433
630.69972,0.04449
628.77097,0.04472
626.84222,0.04509
624.91348,0.04497
622.98473,0.04454
621.05599,0.04415
619.12724,0.04352
617.19850,0.04327
615.26975,0.04407
613.34101,0.04537
611.41226,0.04625
609.48352,0.04633
607.55477,0.04582
605.62603,0.04519
603.69728,0.04485
601.76854,0.04496
599.83979,0.04513
