7497.03301,0.70188
7495.10426,0.70039
7493.17552,0.70506
7491.24677,0.71596
7489.31803,0.72319
7487.38928,0.71962
7485.46054,0.70972
7483.53179,0.70246
7481.60305,0.69952
7479.67430,0.69777
7477.74556,0.69732
7475.81681,0.69676
7473.88807,0.69250
7471.95932,0.68877
7470.03057,0.69079
7468.10183,0.69623
7466.17308,0.70121
7464.24434,0.70143
7462.31559,0.69792
7460.38685,0.69802
7458.45810,0.70161
7456.52936,0.70375
7454.60061,0.70398
7452.67187,0.70250
7450.74312,0.69927
7448.81438,0.69756
7446.88563,0.69977
7444.95689,0.70234
7443.02814,0.70009
7441.09940,0.69356
7439.17065,0.68778
7437.24190,0.68604
7435.31316,0.68744
7433.38441,0.68816
7431.45567,0.68826
7429.52692,0.69125
7427.59818,0.69346
7425.66943,0.68856
7423.74069,0.68211
7421.81194,0.68400
7419.88320,0.68880
7417.95445,0.68765
7416.02571,0.68513
7414.09696,0.68427
7412.16822,0.68431
7410.23947,0.68607
7408.31073,0.68757
7406.38198,0.68765
7404.45323,0.68591
7402.52449,0.68165
7400.59574,0.67602
7398.66700,0.67238
7396.73825,0.67245
7394.80951,0.67200
7392.88076,0.66831
7390.95202,0.66554
7389.02327,0.66709
7387.09453,0.67259
7385.16578,0.68075
7383.23704,0.68634
7381.30829,0.68397
7379.37955,0.67777
7377.45080,0.67354
7375.52205,0.67048
7373.59331,0.66542
7371.66456,0.65902
7369.73582,0.65625
7367.80707,0.65842
7365.87833,0.66122
7363.94958,0.66061
7362.02084,0.65634
7360.09209,0.65336
7358.16335,0.65519
7356.23460,0.65771
7354.30586,0.65826
7352.37711,0.65836
7350.44837,0.65734
7348.51962,0.65600
7346.59088,0.65533
7344.66213,0.65566
7342.73338,0.65814
7340.80464,0.65739
7338.87589,0.65052
7336.94715,0.64355
7335.01840,0.63811
7333.08966,0.63321
7331.16091,0.62932
7329.23217,0.62501
7327.30342,0.62038
7325.37468,0.61698
7323.44593,0.61616
7321.51719,0.61907
7319.58844,0.62318
7317.65970,0.62296
7315.73095,0.61676
7313.80221,0.61038
7311.87346,0.60678
7309.94471,0.60167
7308.01597,0.59421
7306.08722,0.58705
7304.15848,0.58377
7302.22973,0.58718
7300.30099,0.59168
7298.37224,0.58865
7296.44350,0.57920
7294.51475,0.57110
7292.58601,0.56704
7290.65726,0.56571
7288.72852,0.56571
7286.79977,0.56305
7284.87103,0.55700
7282.94228,0.55174
7281.01353,0.54733
7279.08479,0.54224
7277.15604,0.53836
7275.22730,0.53583
7273.29855,0.53307
7271.36981,0.53095
7269.44106,0.52920
7267.51232,0.52484
7265.58357,0.51772
7263.65483,0.51200
7261.72608,0.50885
7259.79734,0.50512
7257.86859,0.49970
7255.93985,0.49475
7254.01110,0.49133
7252.08236,0.48545
7250.15361,0.47693
7248.22486,0.47353
7246.29612,0.47419
7244.36737,0.47081
7242.43863,0.46335
7240.50988,0.45567
7238.58114,0.45054
7236.65239,0.44861
7234.72365,0.44467
7232.79490,0.43496
7230.86616,0.42441
7228.93741,0.41674
7227.00867,0.40939
7225.07992,0.40271
7223.15118,0.40015
7221.22243,0.40064
7219.29369,0.39958
7217.36494,0.39538
7215.43619,0.38904
7213.50745,0.38103
7211.57870,0.37365
7209.64996,0.36744
7207.72121,0.36010
7205.79247,0.35444
7203.86372,0.35346
7201.93498,0.35366
7200.00623,0.35115
7198.07749,0.34521
7196.14874,0.33830
7194.22000,0.33276
7192.29125,0.32733
7190.36251,0.31981
7188.43376,0.30951
7186.50501,0.29900
7184.57627,0.29125
7182.64752,0.28468
7180.71878,0.27718
7178.79003,0.26942
7176.86129,0.26254
7174.93254,0.25894
7173.00380,0.26041
7171.07505,0.26503
7169.14631,0.27036
7167.21756,0.27569
7165.28882,0.28126
7163.36007,0.28920
7161.43133,0.30088
7159.50258,0.31428
7157.57384,0.32573
7155.64509,0.33409
7153.71634,0.34132
7151.78760,0.34746
7149.85885,0.35115
7147.93011,0.35364
7146.00136,0.35699
7144.07262,0.36102
7142.14387,0.36280
7140.21513,0.36244
7138.28638,0.36333
7136.35764,0.36381
7134.42889,0.36208
7132.50015,0.36249
7130.57140,0.36698
7128.64266,0.37166
7126.71391,0.37443
7124.78516,0.37584
7122.85642,0.37337
7120.92767,0.36644
7118.99893,0.36106
7117.07018,0.35911
7115.14144,0.35623
7113.21269,0.35269
7111.28395,0.34892
7109.35520,0.34212
7107.42646,0.33638
7105.49771,0.33736
7103.56897,0.34149
7101.64022,0.34209
7099.71148,0.33849
7097.78273,0.33487
7095.85399,0.33223
7093.92524,0.32909
7091.99649,0.32659
7090.06775,0.32416
7088.13900,0.32086
7086.21026,0.32019
7084.28151,0.32221
7082.35277,0.32254
7080.42402,0.32041
7078.49528,0.31611
7076.56653,0.30888
7074.63779,0.30133
7072.70904,0.29720
7070.78030,0.29531
7068.85155,0.29153
7066.92281,0.28714
7064.99406,0.28516
7063.06532,0.28378
7061.13657,0.28344
7059.20782,0.28664
7057.27908,0.29062
7055.35033,0.29215
7053.42159,0.29265
7051.49284,0.29502
7049.56410,0.29981
7047.63535,0.30409
7045.70661,0.30507
7043.77786,0.30435
7041.84912,0.30399
7039.92037,0.30368
7037.99163,0.30413
7036.06288,0.30555
7034.13414,0.30574
7032.20539,0.30420
7030.27664,0.30390
7028.34790,0.30539
7026.41915,0.30508
7024.49041,0.30284
7022.56166,0.30121
7020.63292,0.30075
7018.70417,0.30303
7016.77543,0.30841
7014.84668,0.31201
7012.91794,0.31112
7010.98919,0.30962
7009.06045,0.30965
7007.13170,0.30961
7005.20296,0.31091
7003.27421,0.31307
7001.34547,0.31191
6999.41672,0.31024
6997.48797,0.31242
6995.55923,0.31487
6993.63048,0.31610
6991.70174,0.31869
6989.77299,0.32085
6987.84425,0.32050
6985.91550,0.31966
6983.98676,0.31991
6982.05801,0.32043
6980.12927,0.32133
6978.20052,0.32332
6976.27178,0.32416
6974.34303,0.32293
6972.41429,0.32253
6970.48554,0.32429
6968.55680,0.32600
6966.62805,0.32510
6964.69930,0.32225
6962.77056,0.31949
6960.84181,0.31694
6958.91307,0.31530
6956.98432,0.31483
6955.05558,0.31489
6953.12683,0.31652
6951.19809,0.31873
6949.26934,0.31952
6947.34060,0.32037
6945.41185,0.32125
6943.48311,0.31996
6941.55436,0.31917
6939.62562,0.32248
6937.69687,0.32679
6935.76812,0.32974
6933.83938,0.33419
6931.91063,0.34021
6929.98189,0.34508
6928.05314,0.34761
6926.12440,0.34827
6924.19565,0.34919
6922.26691,0.35164
6920.33816,0.35412
6918.40942,0.35486
6916.48067,0.35502
6914.55193,0.35568
6912.62318,0.35510
6910.69444,0.35353
6908.76569,0.35271
6906.83695,0.35245
6904.90820,0.35400
6902.97945,0.35765
6901.05071,0.36082
6899.12196,0.36416
6897.19322,0.36731
6895.26447,0.36644
6893.33573,0.36294
6891.40698,0.36203
6889.47824,0.36552
6887.54949,0.37041
6885.62075,0.37219
6883.69200,0.37174
6881.76326,0.37312
6879.83451,0.37546
6877.90577,0.37626
6875.97702,0.37709
6874.04828,0.37996
6872.11953,0.38258
6870.19078,0.38327
6868.26204,0.38416
6866.33329,0.38524
6864.40455,0.38521
6862.47580,0.38522
6860.54706,0.38579
6858.61831,0.38743
6856.68957,0.39085
6854.76082,0.39308
6852.83208,0.39198
6850.90333,0.39125
6848.97459,0.39297
6847.04584,0.39460
6845.11710,0.39549
6843.18835,0.39724
6841.25960,0.39924
6839.33086,0.39939
6837.40211,0.39844
6835.47337,0.39827
6833.54462,0.39787
6831.61588,0.39712
6829.68713,0.39949
6827.75839,0.40554
6825.82964,0.41055
6823.90090,0.41299
6821.97215,0.41523
6820.04341,0.41722
6818.11466,0.41886
6816.18592,0.42042
6814.25717,0.42235
6812.32843,0.42615
6810.39968,0.42998
6808.47093,0.43132
6806.54219,0.43204
6804.61344,0.43394
6802.68470,0.43563
6800.75595,0.43652
6798.82721,0.43836
6796.89846,0.44116
6794.96972,0.44339
6793.04097,0.44511
6791.11223,0.44732
6789.18348,0.45063
6787.25474,0.45432
6785.32599,0.45669
6783.39725,0.45669
6781.46850,0.45476
6779.53975,0.45342
6777.61101,0.45477
6775.68226,0.45735
6773.75352,0.45975
6771.82477,0.46251
6769.89603,0.46463
6767.96728,0.46579
6766.03854,0.46752
6764.10979,0.46960
6762.18105,0.47221
6760.25230,0.47590
6758.32356,0.47875
6756.39481,0.47992
6754.46607,0.48055
6752.53732,0.48080
6750.60858,0.48049
6748.67983,0.48144
6746.75108,0.48428
6744.82234,0.48478
6742.89359,0.48164
6740.96485,0.47989
6739.03610,0.48105
6737.10736,0.48183
6735.17861,0.48112
6733.24987,0.48040
6731.32112,0.48154
6729.39238,0.48494
6727.46363,0.48801
6725.53489,0.48914
6723.60614,0.48996
6721.67740,0.49009
6719.74865,0.48770
6717.81991,0.48494
6715.89116,0.48637
6713.96241,0.49161
6712.03367,0.49483
6710.10492,0.49508
6708.17618,0.49695
6706.24743,0.50086
6704.31869,0.50386
6702.38994,0.50461
6700.46120,0.50395
6698.53245,0.50268
6696.60371,0.50097
6694.67496,0.50079
6692.74622,0.50276
6690.81747,0.50405
6688.88873,0.50363
6686.95998,0.50304
6685.03123,0.50379
6683.10249,0.50514
6681.17374,0.50519
6679.24500,0.50550
6677.31625,0.50804
6675.38751,0.51135
6673.45876,0.51380
6671.53002,0.51521
6669.60127,0.51579
6667.67253,0.51510
6665.74378,0.51418
6663.81504,0.51464
6661.88629,0.51389
6659.95755,0.51103
6658.02880,0.51021
6656.10006,0.51282
6654.17131,0.51688
6652.24256,0.52003
6650.31382,0.52049
6648.38507,0.51836
6646.45633,0.51616
6644.52758,0.51714
6642.59884,0.52014
6640.67009,0.52211
6638.74135,0.52355
6636.81260,0.52438
6634.88386,0.52280
6632.95511,0.52080
6631.02637,0.52186
6629.09762,0.52451
6627.16888,0.52514
6625.24013,0.52413
6623.31139,0.52357
6621.38264,0.52294
6619.45389,0.52169
6617.52515,0.52067
6615.59640,0.51973
6613.66766,0.51972
6611.73891,0.52157
6609.81017,0.52292
6607.88142,0.52259
6605.95268,0.52243
6604.02393,0.52345
6602.09519,0.52506
6600.16644,0.52681
6598.23770,0.52779
6596.30895,0.52624
6594.38021,0.52354
6592.45146,0.52312
6590.52271,0.52449
6588.59397,0.52475
6586.66522,0.52338
6584.73648,0.52206
6582.80773,0.52214
6580.87899,0.52313
6578.95024,0.52320
6577.02150,0.52140
6575.09275,0.51830
6573.16401,0.51556
6571.23526,0.51526
6569.30652,0.51644
6567.37777,0.51647
6565.44903,0.51567
6563.52028,0.51486
6561.59154,0.51441
6559.66279,0.51604
6557.73404,0.51902
6555.80530,0.51942
6553.87655,0.51625
6551.94781,0.51282
6550.01906,0.51130
6548.09032,0.51127
6546.16157,0.51159
6544.23283,0.51054
6542.30408,0.50886
6540.37534,0.50980
6538.44659,0.51215
6536.51785,0.51194
6534.58910,0.51058
6532.66036,0.51016
6530.73161,0.50812
6528.80287,0.50397
6526.87412,0.50198
6524.94537,0.50374
6523.01663,0.50488
6521.08788,0.50215
6519.15914,0.49891
6517.23039,0.49859
6515.30165,0.49888
6513.37290,0.49768
6511.44416,0.49627
6509.51541,0.49520
6507.58667,0.49336
6505.65792,0.49064
6503.72918,0.48776
6501.80043,0.48440
6499.87169,0.48122
6497.94294,0.48012
6496.01419,0.48002
6494.08545,0.47874
6492.15670,0.47572
6490.22796,0.47142
6488.29921,0.46823
6486.37047,0.46807
6484.44172,0.46951
6482.51298,0.47000
6480.58423,0.47012
6478.65549,0.47288
6476.72674,0.47812
6474.79800,0.48331
6472.86925,0.48863
6470.94051,0.49432
6469.01176,0.49962
6467.08302,0.50572
6465.15427,0.51156
6463.22552,0.51459
6461.29678,0.51665
6459.36803,0.52016
6457.43929,0.52450
6455.51054,0.52752
6453.58180,0.52835
6451.65305,0.52928
6449.72431,0.53211
6447.79556,0.53526
6445.86682,0.53580
6443.93807,0.53456
6442.00933,0.53536
6440.08058,0.53805
6438.15184,0.54006
6436.22309,0.54135
6434.29434,0.54278
6432.36560,0.54393
6430.43685,0.54370
6428.50811,0.54226
6426.57936,0.54238
6424.65062,0.54520
6422.72187,0.54772
6420.79313,0.54842
6418.86438,0.54920
6416.93564,0.55111
6415.00689,0.55363
6413.07815,0.55540
6411.14940,0.55534
6409.22066,0.55525
6407.29191,0.55561
6405.36317,0.55426
6403.43442,0.55352
6401.50567,0.55544
6399.57693,0.55665
6397.64818,0.55642
6395.71944,0.55695
6393.79069,0.55775
6391.86195,0.55785
6389.93320,0.55847
6388.00446,0.56062
6386.07571,0.56289
6384.14697,0.56363
6382.21822,0.56303
6380.28948,0.56201
6378.36073,0.56100
6376.43199,0.56009
6374.50324,0.56025
6372.57450,0.56249
6370.64575,0.56508
6368.71700,0.56609
6366.78826,0.56714
6364.85951,0.56928
6362.93077,0.57119
6361.00202,0.57169
6359.07328,0.57043
6357.14453,0.56949
6355.21579,0.57070
6353.28704,0.57315
6351.35830,0.57502
6349.42955,0.57496
6347.50081,0.57435
6345.57206,0.57495
6343.64332,0.57561
6341.71457,0.57553
6339.78582,0.57546
6337.85708,0.57589
6335.92833,0.57651
6333.99959,0.57713
6332.07084,0.57744
6330.14210,0.57581
6328.21335,0.57317
6326.28461,0.57240
6324.35586,0.57314
6322.42712,0.57394
6320.49837,0.57411
6318.56963,0.57386
6316.64088,0.57522
6314.71214,0.57829
6312.78339,0.58017
6310.85465,0.57963
6308.92590,0.57876
6306.99715,0.57956
6305.06841,0.58037
6303.13966,0.57860
6301.21092,0.57579
6299.28217,0.57483
6297.35343,0.57603
6295.42468,0.57835
6293.49594,0.58065
6291.56719,0.58168
6289.63845,0.58017
6287.70970,0.57710
6285.78096,0.57513
6283.85221,0.57480
6281.92347,0.57559
6279.99472,0.57663
6278.06598,0.57642
6276.13723,0.57578
6274.20848,0.57594
6272.27974,0.57582
6270.35099,0.57467
6268.42225,0.57436
6266.49350,0.57631
6264.56476,0.57876
6262.63601,0.57927
6260.70727,0.57787
6258.77852,0.57693
6256.84978,0.57735
6254.92103,0.57760
6252.99229,0.57710
6251.06354,0.57696
6249.13480,0.57751
6247.20605,0.57785
6245.27730,0.57768
6243.34856,0.57691
6241.41981,0.57624
6239.49107,0.57699
6237.56232,0.57786
6235.63358,0.57740
6233.70483,0.57660
6231.77609,0.57593
6229.84734,0.57538
6227.91860,0.57513
6225.98985,0.57560
6224.06111,0.57746
6222.13236,0.57895
6220.20362,0.57785
6218.27487,0.57574
6216.34613,0.57503
6214.41738,0.57546
6212.48863,0.57598
6210.55989,0.57621
6208.63114,0.57616
6206.70240,0.57628
6204.77365,0.57644
6202.84491,0.57558
6200.91616,0.57394
6198.98742,0.57295
6197.05867,0.57303
6195.12993,0.57360
6193.20118,0.57345
6191.27244,0.57182
6189.34369,0.57043
6187.41495,0.57091
6185.48620,0.57121
6183.55746,0.57017
6181.62871,0.56965
6179.69996,0.56930
6177.77122,0.56820
6175.84247,0.56727
6173.91373,0.56668
6171.98498,0.56662
6170.05624,0.56711
6168.12749,0.56673
6166.19875,0.56510
6164.27000,0.56428
6162.34126,0.56514
6160.41251,0.56555
6158.48377,0.56426
6156.55502,0.56294
6154.62628,0.56357
6152.69753,0.56528
6150.76878,0.56522
6148.84004,0.56345
6146.91129,0.56247
6144.98255,0.56199
6143.05380,0.56070
6141.12506,0.55954
6139.19631,0.55906
6137.26757,0.55922
6135.33882,0.55978
6133.41008,0.55843
6131.48133,0.55538
6129.55259,0.55406
6127.62384,0.55430
6125.69510,0.55434
6123.76635,0.55357
6121.83761,0.55119
6119.90886,0.54879
6117.98011,0.54884
6116.05137,0.55084
6114.12262,0.55242
6112.19388,0.55231
6110.26513,0.55100
6108.33639,0.54947
6106.40764,0.54871
6104.47890,0.54822
6102.55015,0.54690
6100.62141,0.54571
6098.69266,0.54530
6096.76392,0.54466
6094.83517,0.54300
6092.90643,0.54080
6090.97768,0.53935
6089.04893,0.53883
6087.12019,0.53835
6085.19144,0.53756
6083.26270,0.53623
6081.33395,0.53369
6079.40521,0.53086
6077.47646,0.52964
6075.54772,0.52970
6073.61897,0.53033
6071.69023,0.53172
6069.76148,0.53257
6067.83274,0.53130
6065.90399,0.52886
6063.97525,0.52711
6062.04650,0.52622
6060.11776,0.52615
6058.18901,0.52739
6056.26026,0.52840
6054.33152,0.52735
6052.40277,0.52496
6050.47403,0.52199
6048.54528,0.51863
6046.61654,0.51592
6044.68779,0.51403
6042.75905,0.51174
6040.83030,0.50909
6038.90156,0.50764
6036.97281,0.50657
6035.04407,0.50437
6033.11532,0.50324
6031.18658,0.50383
6029.25783,0.50259
6027.32909,0.49897
6025.40034,0.49597
6023.47159,0.49445
6021.54285,0.49283
6019.61410,0.49008
6017.68536,0.48663
6015.75661,0.48330
6013.82787,0.48039
6011.89912,0.47730
6009.97038,0.47348
6008.04163,0.46990
6006.11289,0.46714
6004.18414,0.46434
6002.25540,0.46214
6000.32665,0.46144
5998.39791,0.46030
5996.46916,0.45651
5994.54041,0.45120
5992.61167,0.44729
5990.68292,0.44556
5988.75418,0.44381
5986.82543,0.44043
5984.89669,0.43680
5982.96794,0.43363
5981.03920,0.42975
5979.11045,0.42538
5977.18171,0.42144
5975.25296,0.41807
5973.32422,0.41495
5971.39547,0.41117
5969.46673,0.40601
5967.53798,0.40023
5965.60924,0.39525
5963.68049,0.39079
5961.75174,0.38598
5959.82300,0.38139
5957.89425,0.37774
5955.96551,0.37501
5954.03676,0.37262
5952.10802,0.37002
5950.17927,0.36691
5948.25053,0.36338
5946.32178,0.36006
5944.39304,0.35636
5942.46429,0.35181
5940.53555,0.34846
5938.60680,0.34697
5936.67806,0.34474
5934.74931,0.34033
5932.82057,0.33539
5930.89182,0.33149
5928.96307,0.32745
5927.03433,0.32274
5925.10558,0.31940
5923.17684,0.31783
5921.24809,0.31541
5919.31935,0.31096
5917.39060,0.30635
5915.46186,0.30315
5913.53311,0.30109
5911.60437,0.29886
5909.67562,0.29505
5907.74688,0.28999
5905.81813,0.28543
5903.88939,0.28262
5901.96064,0.28110
5900.03189,0.27919
5898.10315,0.27598
5896.17440,0.27189
5894.24566,0.26784
5892.31691,0.26390
5890.38817,0.25963
5888.45942,0.25559
5886.53068,0.25122
5884.60193,0.24489
5882.67319,0.23757
5880.74444,0.23139
5878.81570,0.22653
5876.88695,0.22180
5874.95821,0.21617
5873.02946,0.20938
5871.10072,0.20207
5869.17197,0.19507
5867.24322,0.18877
5865.31448,0.18292
5863.38573,0.17745
5861.45699,0.17248
5859.52824,0.16623
5857.59950,0.15746
5855.67075,0.14922
5853.74201,0.14356
5851.81326,0.13883
5849.88452,0.13518
5847.95577,0.13350
5846.02703,0.13164
5844.09828,0.12835
5842.16954,0.12517
5840.24079,0.12268
5838.31205,0.12062
5836.38330,0.11874
5834.45455,0.11591
5832.52581,0.11279
5830.59706,0.11102
5828.66832,0.11003
5826.73957,0.10869
5824.81083,0.10717
5822.88208,0.10590
5820.95334,0.10407
5819.02459,0.10166
5817.09585,0.09990
5815.16710,0.09886
5813.23836,0.09770
5811.30961,0.09581
5809.38087,0.09380
5807.45212,0.09246
5805.52337,0.09109
5803.59463,0.09011
5801.66588,0.09053
5799.73714,0.09055
5797.80839,0.08864
5795.87965,0.08628
5793.95090,0.08479
5792.02216,0.08366
5790.09341,0.08166
5788.16467,0.07913
5786.23592,0.07760
5784.30718,0.07646
5782.37843,0.07468
5780.44969,0.07294
5778.52094,0.07157
5776.59220,0.07088
5774.66345,0.07142
5772.73470,0.07283
5770.80596,0.07419
5768.87721,0.07533
5766.94847,0.07698
5765.01972,0.07906
5763.09098,0.08124
5761.16223,0.08356
5759.23349,0.08577
5757.30474,0.08800
5755.37600,0.09056
5753.44725,0.09330
5751.51851,0.09598
5749.58976,0.09865
5747.66102,0.10138
5745.73227,0.10407
5743.80352,0.10652
5741.87478,0.10788
5739.94603,0.10801
5738.01729,0.10821
5736.08854,0.10912
5734.15980,0.10995
5732.23105,0.11030
5730.30231,0.11168
5728.37356,0.11598
5726.44482,0.12196
5724.51607,0.12674
5722.58733,0.12970
5720.65858,0.13151
5718.72984,0.13258
5716.80109,0.13333
5714.87235,0.13365
5712.94360,0.13310
5711.01485,0.13198
5709.08611,0.13097
5707.15736,0.12985
5705.22862,0.12828
5703.29987,0.12672
5701.37113,0.12498
5699.44238,0.12286
5697.51364,0.12088
5695.58489,0.11892
5693.65615,0.11675
5691.72740,0.11461
5689.79866,0.11286
5687.86991,0.11176
5685.94117,0.11065
5684.01242,0.10927
5682.08368,0.10804
5680.15493,0.10662
5678.22618,0.10502
5676.29744,0.10306
5674.36869,0.09977
5672.43995,0.09585
5670.51120,0.09311
5668.58246,0.09206
5666.65371,0.09175
5664.72497,0.09163
5662.79622,0.09195
5660.86748,0.09293
5658.93873,0.09496
5657.00999,0.09822
5655.08124,0.10215
5653.15250,0.10603
5651.22375,0.10953
5649.29500,0.11237
5647.36626,0.11460
5645.43751,0.11724
5643.50877,0.12050
5641.58002,0.12277
5639.65128,0.12361
5637.72253,0.12469
5635.79379,0.12700
5633.86504,0.12975
5631.93630,0.13149
5630.00755,0.13147
5628.07881,0.13115
5626.15006,0.13218
5624.22132,0.13412
5622.29257,0.13589
5620.36383,0.13681
5618.43508,0.13668
5616.50633,0.13665
5614.57759,0.13814
5612.64884,0.14065
5610.72010,0.14269
5608.79135,0.14394
5606.86261,0.14453
5604.93386,0.14482
5603.00512,0.14550
5601.07637,0.14628
5599.14763,0.14658
5597.21888,0.14701
5595.29014,0.14786
5593.36139,0.14800
5591.43265,0.14722
5589.50390,0.14693
5587.57516,0.14757
5585.64641,0.14809
5583.71766,0.14819
5581.78892,0.14795
5579.86017,0.14666
5577.93143,0.14489
5576.00268,0.14401
5574.07394,0.14343
5572.14519,0.14181
5570.21645,0.13961
5568.28770,0.13836
5566.35896,0.13805
5564.43021,0.13743
5562.50147,0.13627
5560.57272,0.13535
5558.64398,0.13519
5556.71523,0.13548
5554.78648,0.13521
5552.85774,0.13427
5550.92899,0.13381
5549.00025,0.13414
5547.07150,0.13470
5545.14276,0.13533
5543.21401,0.13589
5541.28527,0.13609
5539.35652,0.13587
5537.42778,0.13552
5535.49903,0.13525
5533.57029,0.13531
5531.64154,0.13612
5529.71280,0.13684
5527.78405,0.13649
5525.85531,0.13564
5523.92656,0.13514
5521.99781,0.13494
5520.06907,0.13504
5518.14032,0.13579
5516.21158,0.13676
5514.28283,0.13705
5512.35409,0.13640
5510.42534,0.13511
5508.49660,0.13425
5506.56785,0.13468
5504.63911,0.13498
5502.71036,0.13391
5500.78162,0.13266
5498.85287,0.13203
5496.92413,0.13163
5494.99538,0.13133
5493.06664,0.13107
5491.13789,0.13110
5489.20914,0.13155
5487.28040,0.13232
5485.35165,0.13341
5483.42291,0.13452
5481.49416,0.13527
5479.56542,0.13562
5477.63667,0.13612
5475.70793,0.13681
5473.77918,0.13726
5471.85044,0.13761
5469.92169,0.13802
5467.99295,0.13862
5466.06420,0.13964
5464.13546,0.14080
5462.20671,0.14147
5460.27796,0.14156
5458.34922,0.14161
5456.42047,0.14164
5454.49173,0.14141
5452.56298,0.14135
5450.63424,0.14202
5448.70549,0.14303
5446.77675,0.14308
5444.84800,0.14186
5442.91926,0.14102
5440.99051,0.14162
5439.06177,0.14270
5437.13302,0.14344
5435.20428,0.14413
5433.27553,0.14455
5431.34679,0.14403
5429.41804,0.14315
5427.48929,0.14331
5425.56055,0.14435
5423.63180,0.14514
5421.70306,0.14561
5419.77431,0.14660
5417.84557,0.14817
5415.91682,0.14962
5413.98808,0.15094
5412.05933,0.15266
5410.13059,0.15425
5408.20184,0.15512
5406.27310,0.15608
5404.34435,0.15803
5402.41561,0.16018
5400.48686,0.16088
5398.55811,0.16083
5396.62937,0.16170
5394.70062,0.16279
5392.77188,0.16346
5390.84313,0.16427
5388.91439,0.16520
5386.98564,0.16623
5385.05690,0.16738
5383.12815,0.16837
5381.19941,0.16875
5379.27066,0.16816
5377.34192,0.16754
5375.41317,0.16813
5373.48443,0.16897
5371.55568,0.16890
5369.62694,0.16858
5367.69819,0.16886
5365.76944,0.16986
5363.84070,0.17176
5361.91195,0.17423
5359.98321,0.17595
5358.05446,0.17655
5356.12572,0.17705
5354.19697,0.17781
5352.26823,0.17860
5350.33948,0.17972
5348.41074,0.18134
5346.48199,0.18297
5344.55325,0.18406
5342.62450,0.18519
5340.69576,0.18698
5338.76701,0.18868
5336.83827,0.18943
5334.90952,0.18952
5332.98077,0.18982
5331.05203,0.19040
5329.12328,0.19052
5327.19454,0.18989
5325.26579,0.18920
5323.33705,0.18898
5321.40830,0.18849
5319.47956,0.18729
5317.55081,0.18601
5315.62207,0.18454
5313.69332,0.18234
5311.76458,0.18058
5309.83583,0.18042
5307.90709,0.18112
5305.97834,0.18188
5304.04959,0.18239
5302.12085,0.18252
5300.19210,0.18263
5298.26336,0.18261
5296.33461,0.18267
5294.40587,0.18334
5292.47712,0.18408
5290.54838,0.18441
5288.61963,0.18460
5286.69089,0.18465
5284.76214,0.18413
5282.83340,0.18352
5280.90465,0.18356
5278.97591,0.18343
5277.04716,0.18275
5275.11842,0.18243
5273.18967,0.18228
5271.26092,0.18181
5269.33218,0.18163
5267.40343,0.18200
5265.47469,0.18229
5263.54594,0.18221
5261.61720,0.18190
5259.68845,0.18143
5257.75971,0.18089
5255.83096,0.18092
5253.90222,0.18149
5251.97347,0.18153
5250.04473,0.18073
5248.11598,0.17946
5246.18724,0.17840
5244.25849,0.17829
5242.32975,0.17873
5240.40100,0.17923
5238.47225,0.17940
5236.54351,0.17871
5234.61476,0.17768
5232.68602,0.17751
5230.75727,0.17784
5228.82853,0.17721
5226.89978,0.17580
5224.97104,0.17503
5223.04229,0.17514
5221.11355,0.17508
5219.18480,0.17427
5217.25606,0.17339
5215.32731,0.17308
5213.39857,0.17310
5211.46982,0.17345
5209.54107,0.17422
5207.61233,0.17499
5205.68358,0.17530
5203.75484,0.17508
5201.82609,0.17427
5199.89735,0.17324
5197.96860,0.17281
5196.03986,0.17292
5194.11111,0.17287
5192.18237,0.17282
5190.25362,0.17317
5188.32488,0.17352
5186.39613,0.17344
5184.46739,0.17302
5182.53864,0.17285
5180.60990,0.17340
5178.68115,0.17382
5176.75240,0.17327
5174.82366,0.17254
5172.89491,0.17234
5170.96617,0.17235
5169.03742,0.17254
5167.10868,0.17279
5165.17993,0.17244
5163.25119,0.17185
5161.32244,0.17176
5159.39370,0.17204
5157.46495,0.17223
5155.53621,0.17233
5153.60746,0.17285
5151.67872,0.17386
5149.74997,0.17513
5147.82123,0.17645
5145.89248,0.17721
5143.96373,0.17701
5142.03499,0.17653
5140.10624,0.17661
5138.17750,0.17715
5136.24875,0.17743
5134.32001,0.17718
5132.39126,0.17685
5130.46252,0.17672
5128.53377,0.17678
5126.60503,0.17668
5124.67628,0.17612
5122.74754,0.17587
5120.81879,0.17632
5118.89005,0.17677
5116.96130,0.17686
5115.03255,0.17641
5113.10381,0.17542
5111.17506,0.17463
5109.24632,0.17443
5107.31757,0.17440
5105.38883,0.17417
5103.46008,0.17382
5101.53134,0.17361
5099.60259,0.17389
5097.67385,0.17448
5095.74510,0.17503
5093.81636,0.17554
5091.88761,0.17581
5089.95887,0.17573
5088.03012,0.17567
5086.10138,0.17566
5084.17263,0.17572
5082.24388,0.17616
5080.31514,0.17679
5078.38639,0.17707
5076.45765,0.17695
5074.52890,0.17660
5072.60016,0.17612
5070.67141,0.17566
5068.74267,0.17541
5066.81392,0.17530
5064.88518,0.17505
5062.95643,0.17506
5061.02769,0.17596
5059.09894,0.17751
5057.17020,0.17880
5055.24145,0.17930
5053.31270,0.17931
5051.38396,0.17983
5049.45521,0.18106
5047.52647,0.18173
5045.59772,0.18142
5043.66898,0.18085
5041.74023,0.18040
5039.81149,0.18028
5037.88274,0.18050
5035.95400,0.18058
5034.02525,0.18015
5032.09651,0.17929
5030.16776,0.17844
5028.23902,0.17820
5026.31027,0.17859
5024.38153,0.17858
5022.45278,0.17772
5020.52403,0.17674
5018.59529,0.17609
5016.66654,0.17573
5014.73780,0.17574
5012.80905,0.17599
5010.88031,0.17610
5008.95156,0.17615
5007.02282,0.17619
5005.09407,0.17584
5003.16533,0.17515
5001.23658,0.17410
4999.30784,0.17239
4997.37909,0.17028
4995.45035,0.16847
4993.52160,0.16727
4991.59286,0.16643
4989.66411,0.16560
4987.73536,0.16464
4985.80662,0.16373
4983.87787,0.16289
4981.94913,0.16213
4980.02038,0.16149
4978.09164,0.16085
4976.16289,0.16022
4974.23415,0.15960
4972.30540,0.15898
4970.37666,0.15808
4968.44791,0.15662
4966.51917,0.15524
4964.59042,0.15469
4962.66168,0.15514
4960.73293,0.15659
4958.80418,0.15876
4956.87544,0.16092
4954.94669,0.16266
4953.01795,0.16456
4951.08920,0.16660
4949.16046,0.16787
4947.23171,0.16832
4945.30297,0.16880
4943.37422,0.16991
4941.44548,0.17136
4939.51673,0.17237
4937.58799,0.17274
4935.65924,0.17262
4933.73050,0.17214
4931.80175,0.17169
4929.87301,0.17142
4927.94426,0.17123
4926.01551,0.17115
4924.08677,0.17124
4922.15802,0.17163
4920.22928,0.17213
4918.30053,0.17236
4916.37179,0.17217
4914.44304,0.17132
4912.51430,0.17028
4910.58555,0.16982
4908.65681,0.16980
4906.72806,0.16981
4904.79932,0.16939
4902.87057,0.16843
4900.94183,0.16778
4899.01308,0.16778
4897.08434,0.16757
4895.15559,0.16689
4893.22684,0.16631
4891.29810,0.16602
4889.36935,0.16584
4887.44061,0.16543
4885.51186,0.16476
4883.58312,0.16435
4881.65437,0.16405
4879.72563,0.16341
4877.79688,0.16290
4875.86814,0.16268
4873.93939,0.16219
4872.01065,0.16184
4870.08190,0.16220
4868.15316,0.16264
4866.22441,0.16279
4864.29566,0.16286
4862.36692,0.16292
4860.43817,0.16315
4858.50943,0.16341
4856.58068,0.16357
4854.65194,0.16435
4852.72319,0.16575
4850.79445,0.16695
4848.86570,0.16797
4846.93696,0.16902
4845.00821,0.16997
4843.07947,0.17114
4841.15072,0.17239
4839.22198,0.17307
4837.29323,0.17341
4835.36449,0.17403
4833.43574,0.17495
4831.50699,0.17587
4829.57825,0.17650
4827.64950,0.17678
4825.72076,0.17706
4823.79201,0.17735
4821.86327,0.17755
4819.93452,0.17797
4818.00578,0.17873
4816.07703,0.17948
4814.14829,0.18011
4812.21954,0.18084
4810.29080,0.18166
4808.36205,0.18257
4806.43331,0.18352
4804.50456,0.18430
4802.57582,0.18487
4800.64707,0.18518
4798.71832,0.18505
4796.78958,0.18495
4794.86083,0.18560
4792.93209,0.18665
4791.00334,0.18734
4789.07460,0.18788
4787.14585,0.18843
4785.21711,0.18836
4783.28836,0.18771
4781.35962,0.18741
4779.43087,0.18769
4777.50213,0.18816
4775.57338,0.18889
4773.64464,0.18994
4771.71589,0.19105
4769.78714,0.19217
4767.85840,0.19314
4765.92965,0.19390
4764.00091,0.19484
4762.07216,0.19614
4760.14342,0.19716
4758.21467,0.19755
4756.28593,0.19794
4754.35718,0.19862
4752.42844,0.19918
4750.49969,0.19952
4748.57095,0.19989
4746.64220,0.20056
4744.71346,0.20155
4742.78471,0.20243
4740.85597,0.20279
4738.92722,0.20249
4736.99847,0.20189
4735.06973,0.20177
4733.14098,0.20240
4731.21224,0.20344
4729.28349,0.20451
4727.35475,0.20527
4725.42600,0.20592
4723.49726,0.20674
4721.56851,0.20744
4719.63977,0.20797
4717.71102,0.20847
4715.78228,0.20884
4713.85353,0.20916
4711.92479,0.20961
4709.99604,0.21034
4708.06729,0.21107
4706.13855,0.21110
4704.20980,0.21068
4702.28106,0.21079
4700.35231,0.21134
4698.42357,0.21146
4696.49482,0.21096
4694.56608,0.21051
4692.63733,0.21050
4690.70859,0.21037
4688.77984,0.20977
4686.85110,0.20921
4684.92235,0.20881
4682.99361,0.20816
4681.06486,0.20724
4679.13612,0.20599
4677.20737,0.20413
4675.27862,0.20190
4673.34988,0.19988
4671.42113,0.19841
4669.49239,0.19750
4667.56364,0.19699
4665.63490,0.19712
4663.70615,0.19807
4661.77741,0.19936
4659.84866,0.20066
4657.91992,0.20221
4655.99117,0.20404
4654.06243,0.20592
4652.13368,0.20740
4650.20494,0.20807
4648.27619,0.20808
4646.34745,0.20815
4644.41870,0.20859
4642.48995,0.20895
4640.56121,0.20900
4638.63246,0.20911
4636.70372,0.20921
4634.77497,0.20917
4632.84623,0.20926
4630.91748,0.20925
4628.98874,0.20873
4627.05999,0.20796
4625.13125,0.20736
4623.20250,0.20693
4621.27376,0.20647
4619.34501,0.20608
4617.41627,0.20607
4615.48752,0.20624
4613.55877,0.20611
4611.63003,0.20541
4609.70128,0.20448
4607.77254,0.20388
4605.84379,0.20346
4603.91505,0.20300
4601.98630,0.20279
4600.05756,0.20286
4598.12881,0.20286
4596.20007,0.20262
4594.27132,0.20231
4592.34258,0.20193
4590.41383,0.20120
4588.48509,0.20036
4586.55634,0.19976
4584.62760,0.19934
4582.69885,0.19893
4580.77010,0.19852
4578.84136,0.19812
4576.91261,0.19740
4574.98387,0.19627
4573.05512,0.19513
4571.12638,0.19406
4569.19763,0.19314
4567.26889,0.19260
4565.34014,0.19210
4563.41140,0.19123
4561.48265,0.19008
4559.55391,0.18858
4557.62516,0.18680
4555.69642,0.18528
4553.76767,0.18401
4551.83893,0.18257
4549.91018,0.18085
4547.98143,0.17905
4546.05269,0.17765
4544.12394,0.17666
4542.19520,0.17558
4540.26645,0.17435
4538.33771,0.17329
4536.40896,0.17225
4534.48022,0.17091
4532.55147,0.16980
4530.62273,0.16911
4528.69398,0.16803
4526.76524,0.16671
4524.83649,0.16591
4522.90775,0.16508
4520.97900,0.16382
4519.05025,0.16254
4517.12151,0.16129
4515.19276,0.15986
4513.26402,0.15819
4511.33527,0.15643
4509.40653,0.15496
4507.47778,0.15369
4505.54904,0.15227
4503.62029,0.15082
4501.69155,0.14954
4499.76280,0.14820
4497.83406,0.14672
4495.90531,0.14537
4493.97657,0.14418
4492.04782,0.14296
4490.11908,0.14155
4488.19033,0.13994
4486.26158,0.13834
4484.33284,0.13700
4482.40409,0.13577
4480.47535,0.13433
4478.54660,0.13266
4476.61786,0.13095
4474.68911,0.12960
4472.76037,0.12881
4470.83162,0.12803
4468.90288,0.12664
4466.97413,0.12490
4465.04539,0.12329
4463.11664,0.12161
4461.18790,0.11999
4459.25915,0.11881
4457.33041,0.11771
4455.40166,0.11603
4453.47291,0.11390
4451.54417,0.11193
4449.61542,0.11015
4447.68668,0.10847
4445.75793,0.10703
4443.82919,0.10550
4441.90044,0.10376
4439.97170,0.10234
4438.04295,0.10135
4436.11421,0.10048
4434.18546,0.09939
4432.25672,0.09807
4430.32797,0.09688
4428.39923,0.09574
4426.47048,0.09426
4424.54173,0.09272
4422.61299,0.09139
4420.68424,0.09018
4418.75550,0.08889
4416.82675,0.08741
4414.89801,0.08575
4412.96926,0.08403
4411.04052,0.08249
4409.11177,0.08103
4407.18303,0.07955
4405.25428,0.07813
4403.32554,0.07678
4401.39679,0.07562
4399.46805,0.07471
4397.53930,0.07389
4395.61056,0.07292
4393.68181,0.07153
4391.75306,0.06978
4389.82432,0.06823
4387.89557,0.06709
4385.96683,0.06636
4384.03808,0.06616
4382.10934,0.06619
4380.18059,0.06593
4378.25185,0.06524
4376.32310,0.06444
4374.39436,0.06401
4372.46561,0.06389
4370.53687,0.06369
4368.60812,0.06327
4366.67938,0.06261
4364.75063,0.06176
4362.82189,0.06087
4360.89314,0.06019
4358.96439,0.05979
4357.03565,0.05954
4355.10690,0.05938
4353.17816,0.05900
4351.24941,0.05838
4349.32067,0.05786
4347.39192,0.05739
4345.46318,0.05677
4343.53443,0.05600
4341.60569,0.05536
4339.67694,0.05517
4337.74820,0.05528
4335.81945,0.05529
4333.89071,0.05503
4331.96196,0.05467
4330.03321,0.05432
4328.10447,0.05368
4326.17572,0.05294
4324.24698,0.05255
4322.31823,0.05243
4320.38949,0.05262
4318.46074,0.05334
4316.53200,0.05418
4314.60325,0.05474
4312.67451,0.05522
4310.74576,0.05597
4308.81702,0.05693
4306.88827,0.05779
4304.95953,0.05846
4303.03078,0.05907
4301.10204,0.05969
4299.17329,0.06006
4297.24454,0.05993
4295.31580,0.05958
4293.38705,0.05936
4291.45831,0.05931
4289.52956,0.05936
4287.60082,0.05947
4285.67207,0.05946
4283.74333,0.05921
4281.81458,0.05888
4279.88584,0.05850
4277.95709,0.05808
4276.02835,0.05775
4274.09960,0.05761
4272.17086,0.05760
4270.24211,0.05750
4268.31336,0.05718
4266.38462,0.05694
4264.45587,0.05680
4262.52713,0.05652
4260.59838,0.05615
4258.66964,0.05576
4256.74089,0.05507
4254.81215,0.05414
4252.88340,0.05353
4250.95466,0.05364
4249.02591,0.05428
4247.09717,0.05481
4245.16842,0.05502
4243.23968,0.05539
4241.31093,0.05628
4239.38219,0.05703
4237.45344,0.05701
4235.52469,0.05663
4233.59595,0.05645
4231.66720,0.05647
4229.73846,0.05658
4227.80971,0.05683
4225.88097,0.05704
4223.95222,0.05682
4222.02348,0.05631
4220.09473,0.05598
4218.16599,0.05598
4216.23724,0.05612
4214.30850,0.05623
4212.37975,0.05632
4210.45101,0.05634
4208.52226,0.05630
4206.59352,0.05619
4204.66477,0.05604
4202.73602,0.05594
4200.80728,0.05564
4198.87853,0.05513
4196.94979,0.05489
4195.02104,0.05495
4193.09230,0.05510
4191.16355,0.05521
4189.23481,0.05523
4187.30606,0.05533
4185.37732,0.05535
4183.44857,0.05500
4181.51983,0.05477
4179.59108,0.05509
4177.66234,0.05563
4175.73359,0.05596
4173.80484,0.05590
4171.87610,0.05557
4169.94735,0.05525
4168.01861,0.05521
4166.08986,0.05537
4164.16112,0.05531
4162.23237,0.05502
4160.30363,0.05493
4158.37488,0.05505
4156.44614,0.05517
4154.51739,0.05533
4152.58865,0.05556
4150.65990,0.05567
4148.73116,0.05565
4146.80241,0.05564
4144.87367,0.05562
4142.94492,0.05556
4141.01617,0.05560
4139.08743,0.05579
4137.15868,0.05592
4135.22994,0.05589
4133.30119,0.05580
4131.37245,0.05573
4129.44370,0.05577
4127.51496,0.05588
4125.58621,0.05595
4123.65747,0.05583
4121.72872,0.05548
4119.79998,0.05518
4117.87123,0.05513
4115.94249,0.05527
4114.01374,0.05539
4112.08500,0.05534
4110.15625,0.05535
4108.22750,0.05563
4106.29876,0.05596
4104.37001,0.05601
4102.44127,0.05585
4100.51252,0.05575
4098.58378,0.05569
4096.65503,0.05560
4094.72629,0.05548
4092.79754,0.05526
4090.86880,0.05507
4088.94005,0.05507
4087.01131,0.05529
4085.08256,0.05578
4083.15382,0.05625
4081.22507,0.05644
4079.29632,0.05644
4077.36758,0.05636
4075.43883,0.05654
4073.51009,0.05694
4071.58134,0.05700
4069.65260,0.05679
4067.72385,0.05688
4065.79511,0.05722
4063.86636,0.05745
4061.93762,0.05776
4060.00887,0.05817
4058.08013,0.05822
4056.15138,0.05790
4054.22264,0.05758
4052.29389,0.05737
4050.36515,0.05740
4048.43640,0.05778
4046.50765,0.05830
4044.57891,0.05862
4042.65016,0.05881
4040.72142,0.05907
4038.79267,0.05920
4036.86393,0.05900
4034.93518,0.05881
4033.00644,0.05874
4031.07769,0.05864
4029.14895,0.05856
4027.22020,0.05831
4025.29146,0.05785
4023.36271,0.05770
4021.43397,0.05813
4019.50522,0.05884
4017.57648,0.05937
4015.64773,0.05963
4013.71898,0.05980
4011.79024,0.06006
4009.86149,0.06051
4007.93275,0.06097
4006.00400,0.06118
4004.07526,0.06134
4002.14651,0.06169
4000.21777,0.06193
3998.28902,0.06187
3996.36028,0.06181
3994.43153,0.06167
3992.50279,0.06118
3990.57404,0.06082
3988.64530,0.06097
3986.71655,0.06116
3984.78780,0.06096
3982.85906,0.06044
3980.93031,0.06013
3979.00157,0.06034
3977.07282,0.06081
3975.14408,0.06111
3973.21533,0.06108
3971.28659,0.06102
3969.35784,0.06127
3967.42910,0.06149
3965.50035,0.06126
3963.57161,0.06097
3961.64286,0.06100
3959.71412,0.06087
3957.78537,0.06060
3955.85663,0.06068
3953.92788,0.06082
3951.99913,0.06064
3950.07039,0.06042
3948.14164,0.06052
3946.21290,0.06073
3944.28415,0.06071
3942.35541,0.06064
3940.42666,0.06059
3938.49792,0.06044
3936.56917,0.06043
3934.64043,0.06049
3932.71168,0.06039
3930.78294,0.06027
3928.85419,0.06018
3926.92545,0.06006
3924.99670,0.05999
3923.06795,0.06015
3921.13921,0.06031
3919.21046,0.06005
3917.28172,0.05952
3915.35297,0.05918
3913.42423,0.05902
3911.49548,0.05899
3909.56674,0.05916
3907.63799,0.05955
3905.70925,0.05987
3903.78050,0.05980
3901.85176,0.05949
3899.92301,0.05930
3897.99427,0.05918
3896.06552,0.05900
3894.13678,0.05887
3892.20803,0.05894
3890.27928,0.05911
3888.35054,0.05914
3886.42179,0.05899
3884.49305,0.05882
3882.56430,0.05868
3880.63556,0.05846
3878.70681,0.05849
3876.77807,0.05899
3874.84932,0.05953
3872.92058,0.05967
3870.99183,0.05947
3869.06309,0.05944
3867.13434,0.05993
3865.20560,0.06043
3863.27685,0.06045
3861.34811,0.06005
3859.41936,0.05973
3857.49061,0.05996
3855.56187,0.06043
3853.63312,0.06068
3851.70438,0.06083
3849.77563,0.06077
3847.84689,0.06061
3845.91814,0.06068
3843.98940,0.06083
3842.06065,0.06073
3840.13191,0.06051
3838.20316,0.06041
3836.27442,0.06027
3834.34567,0.05991
3832.41693,0.05961
3830.48818,0.05961
3828.55943,0.05981
3826.63069,0.06001
3824.70194,0.06006
3822.77320,0.05995
3820.84445,0.05980
3818.91571,0.05984
3816.98696,0.06009
3815.05822,0.06029
3813.12947,0.06012
3811.20073,0.05983
3809.27198,0.05987
3807.34324,0.06029
3805.41449,0.06098
3803.48575,0.06172
3801.55700,0.06202
3799.62826,0.06186
3797.69951,0.06156
3795.77076,0.06111
3793.84202,0.06087
3791.91327,0.06126
3789.98453,0.06190
3788.05578,0.06218
3786.12704,0.06213
3784.19829,0.06202
3782.26955,0.06206
3780.34080,0.06228
3778.41206,0.06236
3776.48331,0.06215
3774.55457,0.06190
3772.62582,0.06185
3770.69708,0.06218
3768.76833,0.06273
3766.83959,0.06299
3764.91084,0.06298
3762.98209,0.06317
3761.05335,0.06355
3759.12460,0.06393
3757.19586,0.06414
3755.26711,0.06422
3753.33837,0.06419
3751.40962,0.06382
3749.48088,0.06341
3747.55213,0.06343
3745.62339,0.06351
3743.69464,0.06333
3741.76590,0.06326
3739.83715,0.06341
3737.90841,0.06358
3735.97966,0.06373
3734.05091,0.06377
3732.12217,0.06345
3730.19342,0.06302
3728.26468,0.06284
3726.33593,0.06286
3724.40719,0.06281
3722.47844,0.06266
3720.54970,0.06256
3718.62095,0.06259
3716.69221,0.06256
3714.76346,0.06239
3712.83472,0.06221
3710.90597,0.06181
3708.97723,0.06111
3707.04848,0.06054
3705.11974,0.06019
3703.19099,0.05987
3701.26224,0.05946
3699.33350,0.05903
3697.40475,0.05867
3695.47601,0.05831
3693.54726,0.05797
3691.61852,0.05792
3689.68977,0.05823
3687.76103,0.05861
3685.83228,0.05891
3683.90354,0.05908
3681.97479,0.05910
3680.04605,0.05927
3678.11730,0.05967
3676.18856,0.05982
3674.25981,0.05957
3672.33107,0.05931
3670.40232,0.05893
3668.47357,0.05855
3666.54483,0.05851
3664.61608,0.05859
3662.68734,0.05869
3660.75859,0.05886
3658.82985,0.05882
3656.90110,0.05836
3654.97236,0.05782
3653.04361,0.05737
3651.11487,0.05700
3649.18612,0.05689
3647.25738,0.05679
3645.32863,0.05642
3643.39989,0.05621
3641.47114,0.05643
3639.54239,0.05683
3637.61365,0.05720
3635.68490,0.05749
3633.75616,0.05771
3631.82741,0.05790
3629.89867,0.05814
3627.96992,0.05846
3626.04118,0.05863
3624.11243,0.05856
3622.18369,0.05838
3620.25494,0.05808
3618.32620,0.05748
3616.39745,0.05674
3614.46871,0.05619
3612.53996,0.05605
3610.61122,0.05599
3608.68247,0.05540
3606.75372,0.05456
3604.82498,0.05415
3602.89623,0.05421
3600.96749,0.05458
3599.03874,0.05539
3597.11000,0.05653
3595.18125,0.05761
3593.25251,0.05840
3591.32376,0.05892
3589.39502,0.05936
3587.46627,0.05984
3585.53753,0.06033
3583.60878,0.06090
3581.68004,0.06157
3579.75129,0.06213
3577.82254,0.06242
3575.89380,0.06254
3573.96505,0.06258
3572.03631,0.06257
3570.10756,0.06270
3568.17882,0.06307
3566.25007,0.06352
3564.32133,0.06378
3562.39258,0.06399
3560.46384,0.06453
3558.53509,0.06523
3556.60635,0.06551
3554.67760,0.06540
3552.74886,0.06544
3550.82011,0.06579
3548.89137,0.06613
3546.96262,0.06615
3545.03387,0.06596
3543.10513,0.06594
3541.17638,0.06611
3539.24764,0.06617
3537.31889,0.06593
3535.39015,0.06551
3533.46140,0.06535
3531.53266,0.06560
3529.60391,0.06592
3527.67517,0.06597
3525.74642,0.06591
3523.81768,0.06596
3521.88893,0.06613
3519.96019,0.06623
3518.03144,0.06608
3516.10270,0.06563
3514.17395,0.06512
3512.24520,0.06482
3510.31646,0.06476
3508.38771,0.06480
3506.45897,0.06489
3504.53022,0.06487
3502.60148,0.06460
3500.67273,0.06448
3498.74399,0.06460
3496.81524,0.06454
3494.88650,0.06432
3492.95775,0.06421
3491.02901,0.06414
3489.10026,0.06391
3487.17152,0.06356
3485.24277,0.06335
3483.31402,0.06335
3481.38528,0.06325
3479.45653,0.06314
3477.52779,0.06315
3475.59904,0.06291
3473.67030,0.06268
3471.74155,0.06288
3469.81281,0.06286
3467.88406,0.06223
3465.95532,0.06168
3464.02657,0.06156
3462.09783,0.06155
3460.16908,0.06147
3458.24034,0.06140
3456.31159,0.06158
3454.38285,0.06188
3452.45410,0.06169
3450.52535,0.06089
3448.59661,0.06028
3446.66786,0.06033
3444.73912,0.06066
3442.81037,0.06084
3440.88163,0.06070
3438.95288,0.06020
3437.02414,0.05972
3435.09539,0.05961
3433.16665,0.05990
3431.23790,0.06027
3429.30916,0.06026
3427.38041,0.06001
3425.45167,0.06002
3423.52292,0.06034
3421.59418,0.06058
3419.66543,0.06057
3417.73668,0.06039
3415.80794,0.06025
3413.87919,0.06037
3411.95045,0.06060
3410.02170,0.06077
3408.09296,0.06081
3406.16421,0.06060
3404.23547,0.06015
3402.30672,0.05990
3400.37798,0.06004
3398.44923,0.06015
3396.52049,0.06007
3394.59174,0.05992
3392.66300,0.05965
3390.73425,0.05929
3388.80550,0.05902
3386.87676,0.05903
3384.94801,0.05932
3383.01927,0.05949
3381.09052,0.05928
3379.16178,0.05882
3377.23303,0.05840
3375.30429,0.05821
3373.37554,0.05814
3371.44680,0.05806
3369.51805,0.05810
3367.58931,0.05843
3365.66056,0.05888
3363.73182,0.05912
3361.80307,0.05915
3359.87433,0.05924
3357.94558,0.05931
3356.01683,0.05926
3354.08809,0.05942
3352.15934,0.05988
3350.23060,0.06034
3348.30185,0.06070
3346.37311,0.06084
3344.44436,0.06068
3342.51562,0.06059
3340.58687,0.06076
3338.65813,0.06100
3336.72938,0.06114
3334.80064,0.06121
3332.87189,0.06128
3330.94315,0.06133
3329.01440,0.06139
3327.08566,0.06148
3325.15691,0.06147
3323.22816,0.06135
3321.29942,0.06127
3319.37067,0.06133
3317.44193,0.06143
3315.51318,0.06157
3313.58444,0.06183
3311.65569,0.06191
3309.72695,0.06161
3307.79820,0.06137
3305.86946,0.06165
3303.94071,0.06220
3302.01197,0.06253
3300.08322,0.06248
3298.15448,0.06236
3296.22573,0.06230
3294.29698,0.06218
3292.36824,0.06222
3290.43949,0.06236
3288.51075,0.06232
3286.58200,0.06230
3284.65326,0.06246
3282.72451,0.06243
3280.79577,0.06213
3278.86702,0.06188
3276.93828,0.06173
3275.00953,0.06171
3273.08079,0.06204
3271.15204,0.06259
3269.22330,0.06305
3267.29455,0.06314
3265.36581,0.06270
3263.43706,0.06224
3261.50831,0.06239
3259.57957,0.06277
3257.65082,0.06282
3255.72208,0.06279
3253.79333,0.06287
3251.86459,0.06290
3249.93584,0.06286
3248.00710,0.06272
3246.07835,0.06264
3244.14961,0.06275
3242.22086,0.06275
3240.29212,0.06250
3238.36337,0.06219
3236.43463,0.06217
3234.50588,0.06250
3232.57713,0.06271
3230.64839,0.06242
3228.71964,0.06210
3226.79090,0.06213
3224.86215,0.06202
3222.93341,0.06149
3221.00466,0.06117
3219.07592,0.06149
3217.14717,0.06176
3215.21843,0.06151
3213.28968,0.06134
3211.36094,0.06149
3209.43219,0.06142
3207.50345,0.06099
3205.57470,0.06050
3203.64596,0.06010
3201.71721,0.05985
3199.78846,0.05973
3197.85972,0.05970
3195.93097,0.05986
3194.00223,0.06002
3192.07348,0.05978
3190.14474,0.05940
3188.21599,0.05937
3186.28725,0.05953
3184.35850,0.05957
3182.42976,0.05938
3180.50101,0.05881
3178.57227,0.05823
3176.64352,0.05809
3174.71478,0.05820
3172.78603,0.05825
3170.85729,0.05844
3168.92854,0.05888
3166.99979,0.05920
3165.07105,0.05903
3163.14230,0.05855
3161.21356,0.05804
3159.28481,0.05777
3157.35607,0.05795
3155.42732,0.05817
3153.49858,0.05800
3151.56983,0.05760
3149.64109,0.05729
3147.71234,0.05715
3145.78360,0.05715
3143.85485,0.05714
3141.92611,0.05683
3139.99736,0.05633
3138.06861,0.05611
3136.13987,0.05624
3134.21112,0.05642
3132.28238,0.05635
3130.35363,0.05612
3128.42489,0.05594
3126.49614,0.05563
3124.56740,0.05500
3122.63865,0.05434
3120.70991,0.05394
3118.78116,0.05373
3116.85242,0.05359
3114.92367,0.05349
3112.99493,0.05343
3111.06618,0.05338
3109.13744,0.05323
3107.20869,0.05297
3105.27994,0.05279
3103.35120,0.05264
3101.42245,0.05235
3099.49371,0.05211
3097.56496,0.05208
3095.63622,0.05197
3093.70747,0.05169
3091.77873,0.05138
3089.84998,0.05113
3087.92124,0.05096
3085.99249,0.05070
3084.06375,0.05034
3082.13500,0.05030
3080.20626,0.05051
3078.27751,0.05041
3076.34877,0.05020
3074.42002,0.05020
3072.49127,0.05017
3070.56253,0.04998
3068.63378,0.04985
3066.70504,0.04984
3064.77629,0.04985
3062.84755,0.04978
3060.91880,0.04953
3058.99006,0.04919
3057.06131,0.04893
3055.13257,0.04891
3053.20382,0.04907
3051.27508,0.04909
3049.34633,0.04906
3047.41759,0.04933
3045.48884,0.04952
3043.56009,0.04917
3041.63135,0.04878
3039.70260,0.04872
3037.77386,0.04879
3035.84511,0.04881
3033.91637,0.04882
3031.98762,0.04887
3030.05888,0.04876
3028.13013,0.04835
3026.20139,0.04791
3024.27264,0.04764
3022.34390,0.04765
3020.41515,0.04800
3018.48641,0.04828
3016.55766,0.04813
3014.62892,0.04784
3012.70017,0.04774
3010.77142,0.04769
3008.84268,0.04754
3006.91393,0.04738
3004.98519,0.04739
3003.05644,0.04751
3001.12770,0.04748
2999.19895,0.04725
2997.27021,0.04686
2995.34146,0.04648
2993.41272,0.04624
2991.48397,0.04612
2989.55523,0.04620
2987.62648,0.04632
2985.69774,0.04626
2983.76899,0.04594
2981.84025,0.04547
2979.91150,0.04510
2977.98275,0.04492
2976.05401,0.04481
2974.12526,0.04464
2972.19652,0.04425
2970.26777,0.04366
2968.33903,0.04321
2966.41028,0.04295
2964.48154,0.04269
2962.55279,0.04246
2960.62405,0.04236
2958.69530,0.04233
2956.76656,0.04211
2954.83781,0.04149
2952.90907,0.04080
2950.98032,0.04021
2949.05157,0.03952
2947.12283,0.03865
2945.19408,0.03773
2943.26534,0.03674
2941.33659,0.03578
2939.40785,0.03501
2937.47910,0.03437
2935.55036,0.03380
2933.62161,0.03333
2931.69287,0.03309
2929.76412,0.03347
2927.83538,0.03496
2925.90663,0.03794
2923.97789,0.04291
2922.04914,0.05052
2920.12040,0.06054
2918.19165,0.07093
2916.26290,0.07840
2914.33416,0.08063
2912.40541,0.07827
2910.47667,0.07387
2908.54792,0.06958
2906.61918,0.06651
2904.69043,0.06461
2902.76169,0.06319
2900.83294,0.06214
2898.90420,0.06139
2896.97545,0.06060
2895.04671,0.05966
2893.11796,0.05876
2891.18922,0.05816
2889.26047,0.05792
2887.33172,0.05781
2885.40298,0.05747
2883.47423,0.05690
2881.54549,0.05641
2879.61674,0.05593
2877.68800,0.05525
2875.75925,0.05454
2873.83051,0.05400
2871.90176,0.05350
2869.97302,0.05284
2868.04427,0.05191
2866.11553,0.05083
2864.18678,0.04970
2862.25804,0.04848
2860.32929,0.04716
2858.40055,0.04603
2856.47180,0.04551
2854.54305,0.04626
2852.61431,0.04970
2850.68556,0.05664
2848.75682,0.06484
2846.82807,0.07014
2844.89933,0.07114
2842.97058,0.06969
2841.04184,0.06759
2839.11309,0.06558
2837.18435,0.06405
2835.25560,0.06297
2833.32686,0.06219
2831.39811,0.06151
2829.46937,0.06071
2827.54062,0.05994
2825.61188,0.05945
2823.68313,0.05917
2821.75438,0.05903
2819.82564,0.05899
2817.89689,0.05885
2815.96815,0.05848
2814.03940,0.05791
2812.11066,0.05739
2810.18191,0.05713
2808.25317,0.05707
2806.32442,0.05712
2804.39568,0.05714
2802.46693,0.05701
2800.53819,0.05692
2798.60944,0.05689
2796.68070,0.05680
2794.75195,0.05667
2792.82320,0.05652
2790.89446,0.05634
2788.96571,0.05623
2787.03697,0.05632
2785.10822,0.05641
2783.17948,0.05632
2781.25073,0.05619
2779.32199,0.05608
2777.39324,0.05592
2775.46450,0.05574
2773.53575,0.05563
2771.60701,0.05557
2769.67826,0.05542
2767.74952,0.05526
2765.82077,0.05529
2763.89203,0.05550
2761.96328,0.05573
2760.03453,0.05580
2758.10579,0.05562
2756.17704,0.05540
2754.24830,0.05530
2752.31955,0.05532
2750.39081,0.05539
2748.46206,0.05533
2746.53332,0.05509
2744.60457,0.05491
2742.67583,0.05491
2740.74708,0.05499
2738.81834,0.05510
2736.88959,0.05517
2734.96085,0.05510
2733.03210,0.05497
2731.10336,0.05485
2729.17461,0.05474
2727.24586,0.05471
2725.31712,0.05477
2723.38837,0.05481
2721.45963,0.05487
2719.53088,0.05495
2717.60214,0.05494
2715.67339,0.05488
2713.74465,0.05481
2711.81590,0.05474
2709.88716,0.05480
2707.95841,0.05499
2706.02967,0.05509
2704.10092,0.05492
2702.17218,0.05457
2700.24343,0.05438
2698.31468,0.05456
2696.38594,0.05474
2694.45719,0.05461
2692.52845,0.05445
2690.59970,0.05447
2688.67096,0.05448
2686.74221,0.05432
2684.81347,0.05413
2682.88472,0.05416
2680.95598,0.05433
2679.02723,0.05443
2677.09849,0.05438
2675.16974,0.05416
2673.24100,0.05399
2671.31225,0.05403
2669.38351,0.05411
2667.45476,0.05410
2665.52601,0.05400
2663.59727,0.05395
2661.66852,0.05397
2659.73978,0.05399
2657.81103,0.05399
2655.88229,0.05401
2653.95354,0.05410
2652.02480,0.05430
2650.09605,0.05443
2648.16731,0.05437
2646.23856,0.05428
2644.30982,0.05429
2642.38107,0.05430
2640.45233,0.05411
2638.52358,0.05380
2636.59484,0.05374
2634.66609,0.05393
2632.73734,0.05408
2630.80860,0.05422
2628.87985,0.05439
2626.95111,0.05429
2625.02236,0.05397
2623.09362,0.05382
2621.16487,0.05387
2619.23613,0.05390
2617.30738,0.05386
2615.37864,0.05379
2613.44989,0.05370
2611.52115,0.05370
2609.59240,0.05381
2607.66366,0.05397
2605.73491,0.05408
2603.80616,0.05410
2601.87742,0.05403
2599.94867,0.05398
2598.01993,0.05401
2596.09118,0.05410
2594.16244,0.05415
2592.23369,0.05416
2590.30495,0.05424
2588.37620,0.05442
2586.44746,0.05453
2584.51871,0.05453
2582.58997,0.05454
2580.66122,0.05449
2578.73248,0.05425
2576.80373,0.05392
2574.87499,0.05379
2572.94624,0.05390
2571.01749,0.05407
2569.08875,0.05413
2567.16000,0.05412
2565.23126,0.05412
2563.30251,0.05413
2561.37377,0.05417
2559.44502,0.05435
2557.51628,0.05457
2555.58753,0.05472
2553.65879,0.05477
2551.73004,0.05466
2549.80130,0.05445
2547.87255,0.05435
2545.94381,0.05444
2544.01506,0.05453
2542.08631,0.05461
2540.15757,0.05478
2538.22882,0.05490
2536.30008,0.05488
2534.37133,0.05481
2532.44259,0.05468
2530.51384,0.05452
2528.58510,0.05448
2526.65635,0.05451
2524.72761,0.05455
2522.79886,0.05466
2520.87012,0.05474
2518.94137,0.05476
2517.01263,0.05473
2515.08388,0.05473
2513.15514,0.05489
2511.22639,0.05518
2509.29764,0.05537
2507.36890,0.05544
2505.44015,0.05546
2503.51141,0.05540
2501.58266,0.05538
2499.65392,0.05556
2497.72517,0.05566
2495.79643,0.05552
2493.86768,0.05547
2491.93894,0.05566
2490.01019,0.05581
2488.08145,0.05581
2486.15270,0.05577
2484.22396,0.05586
2482.29521,0.05608
2480.36647,0.05617
2478.43772,0.05603
2476.50897,0.05580
2474.58023,0.05561
2472.65148,0.05571
2470.72274,0.05633
2468.79399,0.05704
2466.86525,0.05748
2464.93650,0.05792
2463.00776,0.05850
2461.07901,0.05906
2459.15027,0.05937
2457.22152,0.05949
2455.29278,0.05967
2453.36403,0.05984
2451.43529,0.05985
2449.50654,0.05977
2447.57779,0.05964
2445.64905,0.05947
2443.72030,0.05939
2441.79156,0.05931
2439.86281,0.05912
2437.93407,0.05899
2436.00532,0.05890
2434.07658,0.05867
2432.14783,0.05830
2430.21909,0.05799
2428.29034,0.05773
2426.36160,0.05743
2424.43285,0.05703
2422.50411,0.05654
2420.57536,0.05612
2418.64662,0.05588
2416.71787,0.05574
2414.78912,0.05568
2412.86038,0.05582
2410.93163,0.05611
2409.00289,0.05642
2407.07414,0.05677
2405.14540,0.05711
2403.21665,0.05738
2401.28791,0.05768
2399.35916,0.05789
2397.43042,0.05789
2395.50167,0.05781
2393.57293,0.05783
2391.64418,0.05808
2389.71544,0.05839
2387.78669,0.05839
2385.85795,0.05810
2383.92920,0.05793
2382.00045,0.05803
2380.07171,0.05820
2378.14296,0.05828
2376.21422,0.05815
2374.28547,0.05782
2372.35673,0.05747
2370.42798,0.05727
2368.49924,0.05716
2366.57049,0.05699
2364.64175,0.05673
2362.71300,0.05650
2360.78426,0.05619
2358.85551,0.05562
2356.92677,0.05493
2354.99802,0.05443
2353.06927,0.05422
2351.14053,0.05412
2349.21178,0.05397
2347.28304,0.05383
2345.35429,0.05382
2343.42555,0.05384
2341.49680,0.05369
2339.56806,0.05358
2337.63931,0.05376
2335.71057,0.05402
2333.78182,0.05412
2331.85308,0.05407
2329.92433,0.05394
2327.99559,0.05372
2326.06684,0.05352
2324.13810,0.05358
2322.20935,0.05380
2320.28060,0.05381
2318.35186,0.05378
2316.42311,0.05394
2314.49437,0.05408
2312.56562,0.05412
2310.63688,0.05415
2308.70813,0.05420
2306.77939,0.05427
2304.85064,0.05434
2302.92190,0.05446
2300.99315,0.05467
2299.06441,0.05485
2297.13566,0.05487
2295.20692,0.05481
2293.27817,0.05485
2291.34943,0.05499
2289.42068,0.05513
2287.49193,0.05522
2285.56319,0.05529
2283.63444,0.05541
2281.70570,0.05551
2279.77695,0.05549
2277.84821,0.05533
2275.91946,0.05522
2273.99072,0.05533
2272.06197,0.05571
2270.13323,0.05639
2268.20448,0.05717
2266.27574,0.05769
2264.34699,0.05800
2262.41825,0.05842
2260.48950,0.05882
2258.56075,0.05896
2256.63201,0.05891
2254.70326,0.05888
2252.77452,0.05878
2250.84577,0.05855
2248.91703,0.05830
2246.98828,0.05803
2245.05954,0.05768
2243.13079,0.05747
2241.20205,0.05783
2239.27330,0.05901
2237.34456,0.06088
2235.41581,0.06295
2233.48707,0.06464
2231.55832,0.06552
2229.62958,0.06561
2227.70083,0.06523
2225.77208,0.06463
2223.84334,0.06394
2221.91459,0.06355
2219.98585,0.06375
2218.05710,0.06451
2216.12836,0.06545
2214.19961,0.06614
2212.27087,0.06643
2210.34212,0.06649
2208.41338,0.06660
2206.48463,0.06677
2204.55589,0.06674
2202.62714,0.06648
2200.69840,0.06620
2198.76965,0.06592
2196.84090,0.06562
2194.91216,0.06541
2192.98341,0.06526
2191.05467,0.06511
2189.12592,0.06495
2187.19718,0.06495
2185.26843,0.06502
2183.33969,0.06489
2181.41094,0.06465
2179.48220,0.06457
2177.55345,0.06465
2175.62471,0.06472
2173.69596,0.06462
2171.76722,0.06439
2169.83847,0.06414
2167.90973,0.06373
2165.98098,0.06315
2164.05223,0.06256
2162.12349,0.06188
2160.19474,0.06100
2158.26600,0.06016
2156.33725,0.05961
2154.40851,0.05936
2152.47976,0.05929
2150.55102,0.05927
2148.62227,0.05922
2146.69353,0.05916
2144.76478,0.05930
2142.83604,0.05987
2140.90729,0.06073
2138.97855,0.06164
2137.04980,0.06274
2135.12106,0.06417
2133.19231,0.06569
2131.26356,0.06704
2129.33482,0.06834
2127.40607,0.06964
2125.47733,0.07082
2123.54858,0.07177
2121.61984,0.07227
2119.69109,0.07241
2117.76235,0.07260
2115.83360,0.07279
2113.90486,0.07285
2111.97611,0.07290
2110.04737,0.07297
2108.11862,0.07303
2106.18988,0.07307
2104.26113,0.07299
2102.33238,0.07296
2100.40364,0.07307
2098.47489,0.07311
2096.54615,0.07301
2094.61740,0.07286
2092.68866,0.07258
2090.75991,0.07209
2088.83117,0.07149
2086.90242,0.07093
2084.97368,0.07045
2083.04493,0.07005
2081.11619,0.06968
2079.18744,0.06924
2077.25870,0.06871
2075.32995,0.06817
2073.40121,0.06755
2071.47246,0.06683
2069.54371,0.06603
2067.61497,0.06525
2065.68622,0.06456
2063.75748,0.06400
2061.82873,0.06357
2059.89999,0.06308
2057.97124,0.06239
2056.04250,0.06161
2054.11375,0.06089
2052.18501,0.06023
2050.25626,0.05960
2048.32752,0.05897
2046.39877,0.05830
2044.47003,0.05756
2042.54128,0.05694
2040.61254,0.05652
2038.68379,0.05610
2036.75504,0.05568
2034.82630,0.05543
2032.89755,0.05526
2030.96881,0.05505
2029.04006,0.05473
2027.11132,0.05433
2025.18257,0.05405
2023.25383,0.05391
2021.32508,0.05377
2019.39634,0.05367
2017.46759,0.05366
2015.53885,0.05378
2013.61010,0.05432
2011.68136,0.05539
2009.75261,0.05678
2007.82386,0.05847
2005.89512,0.06049
2003.96637,0.06256
2002.03763,0.06455
2000.10888,0.06651
1998.18014,0.06825
1996.25139,0.06960
1994.32265,0.07074
1992.39390,0.07167
1990.46516,0.07227
1988.53641,0.07277
1986.60767,0.07323
1984.67892,0.07347
1982.75018,0.07349
1980.82143,0.07348
1978.89269,0.07346
1976.96394,0.07339
1975.03519,0.07323
1973.10645,0.07291
1971.17770,0.07232
1969.24896,0.07153
1967.32021,0.07057
1965.39147,0.06948
1963.46272,0.06852
1961.53398,0.06784
1959.60523,0.06746
1957.67649,0.06746
1955.74774,0.06777
1953.81900,0.06810
1951.89025,0.06829
1949.96151,0.06831
1948.03276,0.06823
1946.10402,0.06814
1944.17527,0.06801
1942.24652,0.06770
1940.31778,0.06732
1938.38903,0.06701
1936.46029,0.06661
1934.53154,0.06610
1932.60280,0.06567
1930.67405,0.06538
1928.74531,0.06510
1926.81656,0.06463
1924.88782,0.06399
1922.95907,0.06337
1921.03033,0.06275
1919.10158,0.06200
1917.17284,0.06117
1915.24409,0.06037
1913.31534,0.05956
1911.38660,0.05874
1909.45785,0.05797
1907.52911,0.05721
1905.60036,0.05637
1903.67162,0.05556
1901.74287,0.05499
1899.81413,0.05463
1897.88538,0.05438
1895.95664,0.05439
1894.02789,0.05481
1892.09915,0.05575
1890.17040,0.05731
1888.24166,0.05972
1886.31291,0.06288
1884.38417,0.06627
1882.45542,0.06938
1880.52667,0.07205
1878.59793,0.07445
1876.66918,0.07666
1874.74044,0.07867
1872.81169,0.08055
1870.88295,0.08228
1868.95420,0.08378
1867.02546,0.08513
1865.09671,0.08648
1863.16797,0.08774
1861.23922,0.08881
1859.31048,0.08977
1857.38173,0.09068
1855.45299,0.09144
1853.52424,0.09207
1851.59549,0.09262
1849.66675,0.09305
1847.73800,0.09329
1845.80926,0.09321
1843.88051,0.09276
1841.95177,0.09202
1840.02302,0.09110
1838.09428,0.09008
1836.16553,0.08910
1834.23679,0.08819
1832.30804,0.08709
1830.37930,0.08510
1828.45055,0.08181
1826.52181,0.07751
1824.59306,0.07282
1822.66432,0.06908
1820.73557,0.06712
1818.80682,0.06667
1816.87808,0.06715
1814.94933,0.06814
1813.02059,0.06940
1811.09184,0.07071
1809.16310,0.07175
1807.23435,0.07236
1805.30561,0.07276
1803.37686,0.07304
1801.44812,0.07299
1799.51937,0.07266
1797.59063,0.07250
1795.66188,0.07264
1793.73314,0.07298
1791.80439,0.07359
1789.87565,0.07440
1787.94690,0.07517
1786.01815,0.07573
1784.08941,0.07606
1782.16066,0.07623
1780.23192,0.07616
1778.30317,0.07579
1776.37443,0.07534
1774.44568,0.07483
1772.51694,0.07409
1770.58819,0.07319
1768.65945,0.07233
1766.73070,0.07147
1764.80196,0.07059
1762.87321,0.06955
1760.94447,0.06822
1759.01572,0.06669
1757.08697,0.06487
1755.15823,0.06295
1753.22948,0.06116
1751.30074,0.05943
1749.37199,0.05804
1747.44325,0.05714
1745.51450,0.05648
1743.58576,0.05596
1741.65701,0.05562
1739.72827,0.05569
1737.79952,0.05653
1735.87078,0.05774
1733.94203,0.05877
1732.01329,0.05940
1730.08454,0.05975
1728.15580,0.05997
1726.22705,0.06020
1724.29830,0.06042
1722.36956,0.06060
1720.44081,0.06076
1718.51207,0.06079
1716.58332,0.06062
1714.65458,0.06054
1712.72583,0.06074
1710.79709,0.06105
1708.86834,0.06123
1706.93960,0.06133
1705.01085,0.06154
1703.08211,0.06190
1701.15336,0.06205
1699.22462,0.06172
1697.29587,0.06137
1695.36713,0.06127
1693.43838,0.06138
1691.50963,0.06145
1689.58089,0.06133
1687.65214,0.06123
1685.72340,0.06124
1683.79465,0.06097
1681.86591,0.06059
1679.93716,0.06047
1678.00842,0.06032
1676.07967,0.05990
1674.15093,0.05939
1672.22218,0.05906
1670.29344,0.05878
1668.36469,0.05846
1666.43595,0.05813
1664.50720,0.05788
1662.57845,0.05772
1660.64971,0.05754
1658.72096,0.05733
1656.79222,0.05728
1654.86347,0.05723
1652.93473,0.05659
1651.00598,0.05598
1649.07724,0.05600
1647.14849,0.05591
1645.21975,0.05533
1643.29100,0.05482
1641.36226,0.05448
1639.43351,0.05419
1637.50477,0.05403
1635.57602,0.05387
1633.64728,0.05370
1631.71853,0.05372
1629.78978,0.05387
1627.86104,0.05406
1625.93229,0.05427
1624.00355,0.05419
1622.07480,0.05383
1620.14606,0.05378
1618.21731,0.05397
1616.28857,0.05399
1614.35982,0.05388
1612.43108,0.05371
1610.50233,0.05356
1608.57359,0.05350
1606.64484,0.05339
1604.71610,0.05330
1602.78735,0.05344
1600.85861,0.05352
1598.92986,0.05337
1597.00111,0.05333
1595.07237,0.05344
1593.14362,0.05340
1591.21488,0.05321
1589.28613,0.05308
1587.35739,0.05308
1585.42864,0.05310
1583.49990,0.05312
1581.57115,0.05320
1579.64241,0.05332
1577.71366,0.05345
1575.78492,0.05360
1573.85617,0.05378
1571.92743,0.05399
1569.99868,0.05408
1568.06993,0.05391
1566.14119,0.05366
1564.21244,0.05348
1562.28370,0.05333
1560.35495,0.05310
1558.42621,0.05259
1556.49746,0.05219
1554.56872,0.05211
1552.63997,0.05219
1550.71123,0.05239
1548.78248,0.05250
1546.85374,0.05239
1544.92499,0.05234
1542.99625,0.05254
1541.06750,0.05259
1539.13876,0.05219
1537.21001,0.05183
1535.28126,0.05177
1533.35252,0.05196
1531.42377,0.05221
1529.49503,0.05228
1527.56628,0.05224
1525.63754,0.05209
1523.70879,0.05181
1521.78005,0.05153
1519.85130,0.05148
1517.92256,0.05157
1515.99381,0.05162
1514.06507,0.05161
1512.13632,0.05145
1510.20758,0.05138
1508.27883,0.05169
1506.35008,0.05187
1504.42134,0.05163
1502.49259,0.05150
1500.56385,0.05152
1498.63510,0.05147
1496.70636,0.05128
1494.77761,0.05118
1492.84887,0.05125
1490.92012,0.05130
1488.99138,0.05105
1487.06263,0.05061
1485.13389,0.05020
1483.20514,0.04976
1481.27640,0.04917
1479.34765,0.04838
1477.41891,0.04747
1475.49016,0.04736
1473.56141,0.04934
1471.63267,0.05205
1469.70392,0.05305
1467.77518,0.05285
1465.84643,0.05264
1463.91769,0.05330
1461.98894,0.05493
1460.06020,0.05624
1458.13145,0.05643
1456.20271,0.05597
1454.27396,0.05564
1452.34522,0.05531
1450.41647,0.05492
1448.48773,0.05467
1446.55898,0.05453
1444.63024,0.05433
1442.70149,0.05420
1440.77274,0.05430
1438.84400,0.05447
1436.91525,0.05435
1434.98651,0.05397
1433.05776,0.05385
1431.12902,0.05404
1429.20027,0.05421
1427.27153,0.05423
1425.34278,0.05424
1423.41404,0.05430
1421.48529,0.05446
1419.55655,0.05459
1417.62780,0.05446
1415.69906,0.05426
1413.77031,0.05418
1411.84156,0.05418
1409.91282,0.05416
1407.98407,0.05402
1406.05533,0.05380
1404.12658,0.05372
1402.19784,0.05371
1400.26909,0.05371
1398.34035,0.05379
1396.41160,0.05381
1394.48286,0.05373
1392.55411,0.05372
1390.62537,0.05374
1388.69662,0.05360
1386.76788,0.05329
1384.83913,0.05302
1382.91039,0.05285
1380.98164,0.05277
1379.05289,0.05278
1377.12415,0.05292
1375.19540,0.05315
1373.26666,0.05329
1371.33791,0.05331
1369.40917,0.05339
1367.48042,0.05355
1365.55168,0.05363
1363.62293,0.05363
1361.69419,0.05359
1359.76544,0.05339
1357.83670,0.05312
1355.90795,0.05305
1353.97921,0.05318
1352.05046,0.05337
1350.12172,0.05344
1348.19297,0.05337
1346.26422,0.05332
1344.33548,0.05335
1342.40673,0.05333
1340.47799,0.05328
1338.54924,0.05324
1336.62050,0.05308
1334.69175,0.05295
1332.76301,0.05300
1330.83426,0.05305
1328.90552,0.05306
1326.97677,0.05316
1325.04803,0.05328
1323.11928,0.05326
1321.19054,0.05308
1319.26179,0.05299
1317.33304,0.05301
1315.40430,0.05291
1313.47555,0.05276
1311.54681,0.05273
1309.61806,0.05284
1307.68932,0.05296
1305.76057,0.05307
1303.83183,0.05318
1301.90308,0.05317
1299.97434,0.05301
1298.04559,0.05290
1296.11685,0.05296
1294.18810,0.05313
1292.25936,0.05324
1290.33061,0.05315
1288.40187,0.05300
1286.47312,0.05296
1284.54437,0.05299
1282.61563,0.05292
1280.68688,0.05278
1278.75814,0.05280
1276.82939,0.05307
1274.90065,0.05338
1272.97190,0.05350
1271.04316,0.05344
1269.11441,0.05337
1267.18567,0.05334
1265.25692,0.05339
1263.32818,0.05345
1261.39943,0.05334
1259.47069,0.05308
1257.54194,0.05303
1255.61320,0.05328
1253.68445,0.05348
1251.75570,0.05352
1249.82696,0.05349
1247.89821,0.05344
1245.96947,0.05333
1244.04072,0.05324
1242.11198,0.05326
1240.18323,0.05332
1238.25449,0.05348
1236.32574,0.05363
1234.39700,0.05355
1232.46825,0.05332
1230.53951,0.05304
1228.61076,0.05286
1226.68202,0.05298
1224.75327,0.05311
1222.82452,0.05309
1220.89578,0.05315
1218.96703,0.05324
1217.03829,0.05316
1215.10954,0.05306
1213.18080,0.05327
1211.25205,0.05361
1209.32331,0.05359
1207.39456,0.05324
1205.46582,0.05298
1203.53707,0.05292
1201.60833,0.05295
1199.67958,0.05303
1197.75084,0.05303
1195.82209,0.05292
1193.89335,0.05281
1191.96460,0.05285
1190.03585,0.05292
1188.10711,0.05289
1186.17836,0.05285
1184.24962,0.05279
1182.32087,0.05265
1180.39213,0.05263
1178.46338,0.05277
1176.53464,0.05283
1174.60589,0.05269
1172.67715,0.05265
1170.74840,0.05288
1168.81966,0.05302
1166.89091,0.05298
1164.96217,0.05306
1163.03342,0.05323
1161.10467,0.05325
1159.17593,0.05319
1157.24718,0.05320
1155.31844,0.05315
1153.38969,0.05300
1151.46095,0.05280
1149.53220,0.05259
1147.60346,0.05248
1145.67471,0.05242
1143.74597,0.05246
1141.81722,0.05265
1139.88848,0.05270
1137.95973,0.05266
1136.03099,0.05281
1134.10224,0.05297
1132.17350,0.05283
1130.24475,0.05259
1128.31600,0.05264
1126.38726,0.05288
1124.45851,0.05294
1122.52977,0.05273
1120.60102,0.05253
1118.67228,0.05259
1116.74353,0.05280
1114.81479,0.05283
1112.88604,0.05263
1110.95730,0.05257
1109.02855,0.05271
1107.09981,0.05256
1105.17106,0.05220
1103.24232,0.05213
1101.31357,0.05220
1099.38483,0.05205
1097.45608,0.05191
1095.52733,0.05225
1093.59859,0.05290
1091.66984,0.05328
1089.74110,0.05318
1087.81235,0.05279
1085.88361,0.05257
1083.95486,0.05268
1082.02612,0.05283
1080.09737,0.05289
1078.16863,0.05271
1076.23988,0.05245
1074.31114,0.05254
1072.38239,0.05284
1070.45365,0.05305
1068.52490,0.05315
1066.59615,0.05304
1064.66741,0.05277
1062.73866,0.05262
1060.80992,0.05267
1058.88117,0.05289
1056.95243,0.05315
1055.02368,0.05328
1053.09494,0.05352
1051.16619,0.05386
1049.23745,0.05386
1047.30870,0.05359
1045.37996,0.05338
1043.45121,0.05337
1041.52247,0.05338
1039.59372,0.05321
1037.66498,0.05298
1035.73623,0.05284
1033.80748,0.05287
1031.87874,0.05310
1029.94999,0.05334
1028.02125,0.05342
1026.09250,0.05352
1024.16376,0.05368
1022.23501,0.05377
1020.30627,0.05391
1018.37752,0.05424
1016.44878,0.05458
1014.52003,0.05454
1012.59129,0.05420
1010.66254,0.05388
1008.73380,0.05372
1006.80505,0.05371
1004.87631,0.05356
1002.94756,0.05322
1001.01881,0.05301
999.09007,0.05310
997.16132,0.05330
995.23258,0.05348
993.30383,0.05368
991.37509,0.05392
989.44634,0.05392
987.51760,0.05360
985.58885,0.05333
983.66011,0.05327
981.73136,0.05320
979.80262,0.05320
977.87387,0.05336
975.94513,0.05348
974.01638,0.05345
972.08763,0.05329
970.15889,0.05321
968.23014,0.05335
966.30140,0.05350
964.37265,0.05356
962.44391,0.05369
960.51516,0.05370
958.58642,0.05361
956.65767,0.05375
954.72893,0.05402
952.80018,0.05405
950.87144,0.05381
948.94269,0.05361
947.01395,0.05376
945.08520,0.05407
943.15646,0.05407
941.22771,0.05380
939.29896,0.05370
937.37022,0.05392
935.44147,0.05406
933.51273,0.05375
931.58398,0.05320
929.65524,0.05296
927.72649,0.05324
925.79775,0.05352
923.86900,0.05329
921.94026,0.05291
920.01151,0.05298
918.08277,0.05327
916.15402,0.05319
914.22528,0.05293
912.29653,0.05292
910.36779,0.05295
908.43904,0.05284
906.51029,0.05266
904.58155,0.05235
902.65280,0.05224
900.72406,0.05276
898.79531,0.05349
896.86657,0.05358
894.93782,0.05296
893.00908,0.05230
891.08033,0.05227
889.15159,0.05291
887.22284,0.05351
885.29410,0.05349
883.36535,0.05312
881.43661,0.05292
879.50786,0.05290
877.57911,0.05283
875.65037,0.05295
873.72162,0.05330
871.79288,0.05343
869.86413,0.05325
867.93539,0.05300
866.00664,0.05273
864.07790,0.05259
862.14915,0.05269
860.22041,0.05280
858.29166,0.05267
856.36292,0.05247
854.43417,0.05243
852.50543,0.05254
850.57668,0.05263
848.64794,0.05270
846.71919,0.05269
844.79044,0.05252
842.86170,0.05249
840.93295,0.05275
839.00421,0.05297
837.07546,0.05297
835.14672,0.05289
833.21797,0.05281
831.28923,0.05272
829.36048,0.05269
827.43174,0.05268
825.50299,0.05259
823.57425,0.05240
821.64550,0.05237
819.71676,0.05256
817.78801,0.05257
815.85926,0.05219
813.93052,0.05185
812.00177,0.05206
810.07303,0.05266
808.14428,0.05291
806.21554,0.05257
804.28679,0.05240
802.35805,0.05273
800.42930,0.05294
798.50056,0.05289
796.57181,0.05276
794.64307,0.05244
792.71432,0.05220
790.78558,0.05228
788.85683,0.05241
786.92809,0.05275
784.99934,0.05324
783.07059,0.05322
781.14185,0.05293
779.21310,0.05274
777.28436,0.05243
775.35561,0.05233
773.42687,0.05254
771.49812,0.05241
769.56938,0.05203
767.64063,0.05200
765.71189,0.05220
763.78314,0.05209
761.85440,0.05174
759.92565,0.05150
757.99691,0.05136
756.06816,0.05126
754.13942,0.05119
752.21067,0.05124
750.28192,0.05148
748.35318,0.05157
746.42443,0.05125
744.49569,0.05086
742.56694,0.05078
740.63820,0.05060
738.70945,0.04971
736.78071,0.04854
734.85196,0.04752
732.92322,0.04729
730.99447,0.04893
729.06573,0.05123
727.13698,0.05202
725.20824,0.05145
723.27949,0.05070
721.35074,0.05154
719.42200,0.05491
717.49325,0.05823
715.56451,0.05883
713.63576,0.05766
711.70702,0.05679
709.77827,0.05642
707.84953,0.05590
705.92078,0.05538
703.99204,0.05520
702.06329,0.05500
700.13455,0.05478
698.20580,0.05491
696.27706,0.05524
694.34831,0.05520
692.41957,0.05457
690.49082,0.05375
688.56207,0.05344
686.63333,0.05373
684.70458,0.05393
682.77584,0.05393
680.84709,0.05413
678.91835,0.05431
676.98960,0.05408
675.06086,0.05360
673.13211,0.05341
671.20337,0.05357
669.27462,0.05353
667.34588,0.05327
665.41713,0.05337
663.48839,0.05362
661.55964,0.05357
659.63090,0.05346
657.70215,0.05336
655.77340,0.05337
653.84466,0.05367
651.91591,0.05376
649.98717,0.05366
648.05842,0.05382
646.12968,0.05411
644.20093,0.05432
642.27219,0.05417
640.34344,0.05380
638.41470,0.05385
636.48595,0.05410
634.55721,0.05377
632.62846,0.05277
630.69972,0.05165
628.77097,0.05164
626.84222,0.05280
624.91348,0.05356
622.98473,0.05348
621.05599,0.05326
619.12724,0.05303
617.19850,0.05282
615.26975,0.05270
613.34101,0.05224
611.41226,0.05135
609.48352,0.05077
607.55477,0.05088
605.62603,0.05158
603.69728,0.05254
601.76854,0.05296
599.83979,0.05248
