7497.03301,1.00132
7495.10426,0.99661
7493.17552,1.00234
7491.24677,1.01161
7489.31803,1.01452
7487.38928,1.01188
7485.46054,1.00688
7483.53179,1.00180
7481.60305,0.99934
7479.67430,1.00061
7477.74556,1.00339
7475.81681,1.00472
7473.88807,1.00607
7471.95932,1.00809
7470.03057,1.00996
7468.10183,1.01085
7466.17308,1.00819
7464.24434,1.00268
7462.31559,0.99862
7460.38685,0.99856
7458.45810,1.00016
7456.52936,1.00082
7454.60061,1.00058
7452.67187,0.99973
7450.74312,1.00041
7448.81438,1.00282
7446.88563,1.00485
7444.95689,1.00680
7443.02814,1.00802
7441.09940,1.00557
7439.17065,1.00091
7437.24190,0.99957
7435.31316,1.00111
7433.38441,1.00153
7431.45567,1.00031
7429.52692,0.99766
7427.59818,0.99681
7425.66943,1.00187
7423.74069,1.00747
7421.81194,1.00745
7419.88320,1.00758
7417.95445,1.01071
7416.02571,1.00971
7414.09696,1.00351
7412.16822,0.99862
7410.23947,0.99900
7408.31073,1.00261
7406.38198,1.00492
7404.45323,1.00419
7402.52449,1.00313
7400.59574,1.00296
7398.66700,0.99970
7396.73825,0.99304
7394.80951,0.98756
7392.88076,0.98642
7390.95202,0.99001
7389.02327,0.99593
7387.09453,1.00203
7385.16578,1.00603
7383.23704,1.00515
7381.30829,1.00028
7379.37955,0.99683
7377.45080,0.99907
7375.52205,1.00481
7373.59331,1.00930
7371.66456,1.01073
7369.73582,1.00935
7367.80707,1.00652
7365.87833,1.00531
7363.94958,1.00670
7362.02084,1.00729
7360.09209,1.00487
7358.16335,1.00058
7356.23460,0.99643
7354.30586,0.99466
7352.37711,0.99711
7350.44837,1.00229
7348.51962,1.00539
7346.59088,1.00405
7344.66213,0.99977
7342.73338,0.99802
7340.80464,1.00268
7338.87589,1.00581
7336.94715,1.00210
7335.01840,1.00093
7333.08966,1.00623
7331.16091,1.00995
7329.23217,1.00857
7327.30342,1.00325
7325.37468,0.99675
7323.44593,0.99698
7321.51719,1.00191
7319.58844,1.00222
7317.65970,0.99921
7315.73095,0.99561
7313.80221,0.99158
7311.87346,0.99159
7309.94471,0.99625
7308.01597,1.00108
7306.08722,1.00523
7304.15848,1.01030
7302.22973,1.01379
7300.30099,1.00930
7298.37224,0.99997
7296.44350,0.99641
7294.51475,0.99828
7292.58601,0.99841
7290.65726,0.99440
7288.72852,0.99064
7286.79977,0.99160
7284.87103,0.99468
7282.94228,0.99592
7281.01353,0.99335
7279.08479,0.99120
7277.15604,0.99566
7275.22730,1.00084
7273.29855,0.99965
7271.36981,0.99604
7269.44106,0.99603
7267.51232,0.99967
7265.58357,1.00382
7263.65483,1.00695
7261.72608,1.00773
7259.79734,1.00753
7257.86859,1.00818
7255.93985,1.00554
7254.01110,0.99935
7252.08236,0.99575
7250.15361,0.99552
7248.22486,0.99639
7246.29612,0.99733
7244.36737,0.99639
7242.43863,0.99378
7240.50988,0.99146
7238.58114,0.99049
7236.65239,0.99063
7234.72365,0.99067
7232.79490,0.99087
7230.86616,0.99168
7228.93741,0.99231
7227.00867,0.99354
7225.07992,0.99843
7223.15118,1.00742
7221.22243,1.01440
7219.29369,1.01429
7217.36494,1.01070
7215.43619,1.00882
7213.50745,1.00836
7211.57870,1.00822
7209.64996,1.00810
7207.72121,1.00705
7205.79247,1.00395
7203.86372,0.99875
7201.93498,0.99696
7200.00623,1.00262
7198.07749,1.00984
7196.14874,1.01149
7194.22000,1.00715
7192.29125,0.99972
7190.36251,0.99227
7188.43376,0.99129
7186.50501,0.99943
7184.57627,1.00808
7182.64752,1.00969
7180.71878,1.00586
7178.79003,1.00291
7176.86129,1.00406
7174.93254,1.00351
7173.00380,0.99807
7171.07505,0.99434
7169.14631,0.99493
7167.21756,0.99608
7165.28882,0.99786
7163.36007,1.00144
7161.43133,1.00318
7159.50258,1.00112
7157.57384,0.99907
7155.64509,0.99791
7153.71634,0.99648
7151.78760,0.99787
7149.85885,1.00271
7147.93011,1.00733
7146.00136,1.00925
7144.07262,1.00934
7142.14387,1.00878
7140.21513,1.00696
7138.28638,1.00400
7136.35764,0.99924
7134.42889,0.99558
7132.50015,0.99695
7130.57140,0.99799
7128.64266,0.99477
7126.71391,0.99115
7124.78516,0.99017
7122.85642,0.99343
7120.92767,0.99979
7118.99893,1.00271
7117.07018,1.00075
7115.14144,1.00109
7113.21269,1.00326
7111.28395,1.00160
7109.35520,0.99825
7107.42646,0.99698
7105.49771,0.99766
7103.56897,0.99824
7101.64022,0.99809
7099.71148,0.99871
7097.78273,0.99991
7095.85399,1.00180
7093.92524,1.00550
7091.99649,1.00676
7090.06775,1.00049
7088.13900,0.99201
7086.21026,0.98965
7084.28151,0.99326
7082.35277,0.99868
7080.42402,1.00297
7078.49528,1.00483
7076.56653,1.00475
7074.63779,1.00326
7072.70904,1.00059
7070.78030,0.99745
7068.85155,0.99484
7066.92281,0.99447
7064.99406,0.99696
7063.06532,1.00080
7061.13657,1.00499
7059.20782,1.00769
7057.27908,1.00654
7055.35033,1.00264
7053.42159,0.99897
7051.49284,0.99774
7049.56410,0.99946
7047.63535,1.00051
7045.70661,0.99666
7043.77786,0.99290
7041.84912,0.99529
7039.92037,0.99835
7037.99163,0.99744
7036.06288,0.99533
7034.13414,0.99262
7032.20539,0.98898
7030.27664,0.99005
7028.34790,0.99884
7026.41915,1.00554
7024.49041,1.00365
7022.56166,1.00097
7020.63292,1.00323
7018.70417,1.00786
7016.77543,1.01112
7014.84668,1.01218
7012.91794,1.01252
7010.98919,1.01097
7009.06045,1.00600
7007.13170,1.00215
7005.20296,1.00384
7003.27421,1.00819
7001.34547,1.00922
6999.41672,1.00428
6997.48797,0.99643
6995.55923,0.99165
6993.63048,0.99272
6991.70174,0.99692
6989.77299,1.00155
6987.84425,1.00496
6985.91550,1.00416
6983.98676,0.99991
6982.05801,0.99665
6980.12927,0.99807
6978.20052,1.00227
6976.27178,1.00400
6974.34303,1.00351
6972.41429,1.00200
6970.48554,0.99881
6968.55680,0.99595
6966.62805,0.99602
6964.69930,0.99865
6962.77056,1.00075
6960.84181,1.00155
6958.91307,1.00240
6956.98432,1.00215
6955.05558,0.99882
6953.12683,0.99489
6951.19809,0.99509
6949.26934,0.99768
6947.34060,0.99887
6945.41185,1.00011
6943.48311,1.00182
6941.55436,1.00229
6939.62562,1.00364
6937.69687,1.00540
6935.76812,1.00263
6933.83938,0.99812
6931.91063,0.99847
6929.98189,1.00239
6928.05314,1.00486
6926.12440,1.00530
6924.19565,1.00552
6922.26691,1.00364
6920.33816,0.99948
6918.40942,0.99676
6916.48067,0.99605
6914.55193,0.99589
6912.62318,0.99535
6910.69444,0.99456
6908.76569,0.99546
6906.83695,0.99753
6904.90820,0.99810
6902.97945,0.99848
6901.05071,1.00192
6899.12196,1.00646
6897.19322,1.00621
6895.26447,1.00123
6893.33573,0.99926
6891.40698,1.00374
6889.47824,1.00847
6887.54949,1.00709
6885.62075,1.00195
6883.69200,0.99848
6881.76326,0.99660
6879.83451,0.99548
6877.90577,0.99561
6875.97702,0.99561
6874.04828,0.99551
6872.11953,0.99660
6870.19078,0.99912
6868.26204,1.00156
6866.33329,1.00313
6864.40455,1.00490
6862.47580,1.00401
6860.54706,1.00027
6858.61831,0.99947
6856.68957,0.99959
6854.76082,0.99654
6852.83208,0.99480
6850.90333,0.99668
6848.97459,0.99939
6847.04584,1.00121
6845.11710,1.00186
6843.18835,1.00337
6841.25960,1.00614
6839.33086,1.00700
6837.40211,1.00565
6835.47337,1.00398
6833.54462,1.00189
6831.61588,0.99978
6829.68713,1.00122
6827.75839,1.00596
6825.82964,1.00703
6823.90090,1.00456
6821.97215,1.00445
6820.04341,1.00587
6818.11466,1.00675
6816.18592,1.00679
6814.25717,1.00487
6812.32843,1.00286
6810.39968,1.00320
6808.47093,1.00376
6806.54219,1.00183
6804.61344,0.99798
6802.68470,0.99474
6800.75595,0.99393
6798.82721,0.99457
6796.89846,0.99623
6794.96972,0.99937
6793.04097,1.00063
6791.11223,0.99814
6789.18348,0.99548
6787.25474,0.99561
6785.32599,0.99801
6783.39725,1.00015
6781.46850,1.00008
6779.53975,0.99920
6777.61101,1.00199
6775.68226,1.00768
6773.75352,1.00834
6771.82477,1.00247
6769.89603,0.99724
6767.96728,0.99675
6766.03854,0.99907
6764.10979,1.00026
6762.18105,0.99998
6760.25230,1.00115
6758.32356,1.00323
6756.39481,1.00202
6754.46607,0.99743
6752.53732,0.99545
6750.60858,0.99801
6748.67983,1.00245
6746.75108,1.00844
6744.82234,1.01230
6742.89359,1.00938
6740.96485,1.00391
6739.03610,1.00249
6737.10736,1.00367
6735.17861,1.00165
6733.24987,0.99672
6731.32112,0.99298
6729.39238,0.99271
6727.46363,0.99633
6725.53489,1.00085
6723.60614,1.00335
6721.67740,1.00335
6719.74865,1.00150
6717.81991,1.00109
6715.89116,1.00356
6713.96241,1.00465
6712.03367,1.00220
6710.10492,1.00013
6708.17618,1.00022
6706.24743,1.00093
6704.31869,1.00200
6702.38994,1.00285
6700.46120,1.00230
6698.53245,0.99971
6696.60371,0.99593
6694.67496,0.99484
6692.74622,0.99702
6690.81747,0.99840
6688.88873,0.99855
6686.95998,0.99961
6685.03123,1.00163
6683.10249,1.00303
6681.17374,1.00318
6679.24500,1.00432
6677.31625,1.00602
6675.38751,1.00525
6673.45876,1.00236
6671.53002,0.99997
6669.60127,1.00048
6667.67253,1.00243
6665.74378,1.00210
6663.81504,1.00087
6661.88629,1.00142
6659.95755,1.00213
6658.02880,1.00152
6656.10006,1.00030
6654.17131,0.99821
6652.24256,0.99529
6650.31382,0.99296
6648.38507,0.99255
6646.45633,0.99483
6644.52758,0.99726
6642.59884,0.99683
6640.67009,0.99652
6638.74135,0.99867
6636.81260,0.99903
6634.88386,0.99747
6632.95511,0.99866
6631.02637,1.00133
6629.09762,1.00248
6627.16888,1.00144
6625.24013,0.99884
6623.31139,0.99804
6621.38264,0.99928
6619.45389,0.99931
6617.52515,0.99827
6615.59640,0.99710
6613.66766,0.99584
6611.73891,0.99602
6609.81017,0.99722
6607.88142,0.99683
6605.95268,0.99613
6604.02393,0.99789
6602.09519,1.00051
6600.16644,1.00143
6598.23770,1.00094
6596.30895,0.99935
6594.38021,0.99727
6592.45146,0.99766
6590.52271,1.00069
6588.59397,1.00181
6586.66522,1.00070
6584.73648,1.00087
6582.80773,1.00021
6580.87899,0.99718
6578.95024,0.99716
6577.02150,1.00131
6575.09275,1.00388
6573.16401,1.00248
6571.23526,1.00001
6569.30652,0.99966
6567.37777,1.00104
6565.44903,1.00149
6563.52028,1.00041
6561.59154,0.99861
6559.66279,0.99766
6557.73404,0.99929
6555.80530,1.00111
6553.87655,0.99964
6551.94781,0.99636
6550.01906,0.99491
6548.09032,0.99603
6546.16157,0.99897
6544.23283,1.00265
6542.30408,1.00371
6540.37534,1.00215
6538.44659,1.00193
6536.51785,1.00224
6534.58910,1.00109
6532.66036,1.00077
6530.73161,1.00275
6528.80287,1.00415
6526.87412,1.00191
6524.94537,0.99759
6523.01663,0.99441
6521.08788,0.99373
6519.15914,0.99611
6517.23039,0.99957
6515.30165,1.00085
6513.37290,1.00117
6511.44416,1.00274
6509.51541,1.00398
6507.58667,1.00298
6505.65792,0.99973
6503.72918,0.99796
6501.80043,1.00219
6499.87169,1.00766
6497.94294,1.00711
6496.01419,1.00468
6494.08545,1.00496
6492.15670,1.00478
6490.22796,1.00340
6488.29921,1.00254
6486.37047,1.00293
6484.44172,1.00451
6482.51298,1.00454
6480.58423,1.00264
6478.65549,1.00068
6476.72674,0.99933
6474.79800,0.99943
6472.86925,1.00077
6470.94051,1.00208
6469.01176,1.00224
6467.08302,1.00223
6465.15427,1.00439
6463.22552,1.00696
6461.29678,1.00620
6459.36803,1.00227
6457.43929,0.99850
6455.51054,0.99774
6453.58180,0.99962
6451.65305,1.00106
6449.72431,1.00089
6447.79556,1.00049
6445.86682,1.00023
6443.93807,1.00021
6442.00933,1.00061
6440.08058,1.00098
6438.15184,1.00037
6436.22309,0.99857
6434.29434,0.99775
6432.36560,0.99887
6430.43685,1.00093
6428.50811,1.00338
6426.57936,1.00486
6424.65062,1.00414
6422.72187,1.00181
6420.79313,0.99915
6418.86438,0.99695
6416.93564,0.99649
6415.00689,0.99837
6413.07815,1.00043
6411.14940,1.00108
6409.22066,0.99990
6407.29191,0.99643
6405.36317,0.99393
6403.43442,0.99611
6401.50567,0.99965
6399.57693,0.99984
6397.64818,0.99820
6395.71944,0.99752
6393.79069,0.99810
6391.86195,0.99937
6389.93320,1.00084
6388.00446,1.00196
6386.07571,1.00164
6384.14697,1.00054
6382.21822,1.00016
6380.28948,1.00023
6378.36073,1.00045
6376.43199,1.00046
6374.50324,1.00021
6372.57450,1.00046
6370.64575,1.00087
6368.71700,1.00067
6366.78826,1.00015
6364.85951,1.00032
6362.93077,1.00189
6361.00202,1.00355
6359.07328,1.00424
6357.14453,1.00425
6355.21579,1.00291
6353.28704,1.00068
6351.35830,1.00048
6349.42955,1.00209
6347.50081,1.00245
6345.57206,1.00209
6343.64332,1.00194
6341.71457,1.00019
6339.78582,0.99789
6337.85708,0.99734
6335.92833,0.99777
6333.99959,0.99856
6332.07084,0.99985
6330.14210,1.00028
6328.21335,0.99953
6326.28461,0.99955
6324.35586,1.00074
6322.42712,1.00172
6320.49837,1.00217
6318.56963,1.00277
6316.64088,1.00289
6314.71214,1.00102
6312.78339,0.99860
6310.85465,0.99898
6308.92590,1.00199
6306.99715,1.00372
6305.06841,1.00220
6303.13966,1.00001
6301.21092,0.99970
6299.28217,1.00060
6297.35343,1.00102
6295.42468,1.00111
6293.49594,1.00154
6291.56719,1.00078
6289.63845,0.99845
6287.70970,0.99641
6285.78096,0.99579
6283.85221,0.99682
6281.92347,0.99817
6279.99472,0.99839
6278.06598,0.99856
6276.13723,0.99949
6274.20848,1.00117
6272.27974,1.00404
6270.35099,1.00602
6268.42225,1.00447
6266.49350,1.00119
6264.56476,0.99875
6262.63601,0.99717
6260.70727,0.99745
6258.77852,1.00017
6256.84978,1.00234
6254.92103,1.00218
6252.99229,1.00051
6251.06354,0.99849
6249.13480,0.99811
6247.20605,0.99970
6245.27730,1.00039
6243.34856,1.00019
6241.41981,1.00258
6239.49107,1.00567
6237.56232,1.00501
6235.63358,1.00209
6233.70483,0.99984
6231.77609,0.99859
6229.84734,0.99787
6227.91860,0.99776
6225.98985,0.99802
6224.06111,0.99833
6222.13236,0.99924
6220.20362,1.00007
6218.27487,1.00007
6216.34613,0.99941
6214.41738,0.99784
6212.48863,0.99606
6210.55989,0.99578
6208.63114,0.99801
6206.70240,1.00050
6204.77365,1.00090
6202.84491,1.00027
6200.91616,0.99981
6198.98742,1.00090
6197.05867,1.00288
6195.12993,1.00201
6193.20118,0.99882
6191.27244,0.99720
6189.34369,0.99751
6187.41495,0.99816
6185.48620,0.99834
6183.55746,0.99691
6181.62871,0.99504
6179.69996,0.99624
6177.77122,0.99968
6175.84247,1.00112
6173.91373,1.00040
6171.98498,1.00045
6170.05624,1.00169
6168.12749,1.00229
6166.19875,1.00141
6164.27000,1.00021
6162.34126,0.99919
6160.41251,0.99797
6158.48377,0.99758
6156.55502,0.99771
6154.62628,0.99804
6152.69753,0.99956
6150.76878,1.00000
6148.84004,0.99802
6146.91129,0.99668
6144.98255,0.99781
6143.05380,1.00036
6141.12506,1.00205
6139.19631,1.00140
6137.26757,0.99988
6135.33882,0.99945
6133.41008,0.99957
6131.48133,0.99969
6129.55259,1.00022
6127.62384,1.00086
6125.69510,1.00131
6123.76635,1.00133
6121.83761,1.00089
6119.90886,1.00100
6117.98011,1.00164
6116.05137,1.00155
6114.12262,1.00005
6112.19388,0.99795
6110.26513,0.99671
6108.33639,0.99617
6106.40764,0.99613
6104.47890,0.99767
6102.55015,0.99995
6100.62141,1.00089
6098.69266,1.00026
6096.76392,0.99952
6094.83517,0.99981
6092.90643,1.00078
6090.97768,1.00138
6089.04893,1.00153
6087.12019,1.00242
6085.19144,1.00363
6083.26270,1.00307
6081.33395,1.00200
6079.40521,1.00313
6077.47646,1.00447
6075.54772,1.00294
6073.61897,1.00062
6071.69023,1.00053
6069.76148,1.00179
6067.83274,1.00306
6065.90399,1.00390
6063.97525,1.00348
6062.04650,1.00221
6060.11776,1.00135
6058.18901,1.00117
6056.26026,1.00139
6054.33152,1.00145
6052.40277,1.00046
6050.47403,0.99879
6048.54528,0.99782
6046.61654,0.99772
6044.68779,0.99917
6042.75905,1.00259
6040.83030,1.00521
6038.90156,1.00563
6036.97281,1.00600
6035.04407,1.00649
6033.11532,1.00508
6031.18658,1.00205
6029.25783,1.00004
6027.32909,0.99990
6025.40034,1.00041
6023.47159,1.00148
6021.54285,1.00310
6019.61410,1.00348
6017.68536,1.00195
6015.75661,1.00059
6013.82787,1.00115
6011.89912,1.00298
6009.97038,1.00369
6008.04163,1.00152
6006.11289,0.99837
6004.18414,0.99758
6002.25540,0.99912
6000.32665,1.00109
5998.39791,1.00256
5996.46916,1.00241
5994.54041,1.00048
5992.61167,0.99968
5990.68292,1.00232
5988.75418,1.00640
5986.82543,1.00730
5984.89669,1.00385
5982.96794,1.00000
5981.03920,0.99891
5979.11045,0.99964
5977.18171,0.99986
5975.25296,0.99984
5973.32422,1.00114
5971.39547,1.00273
5969.46673,1.00250
5967.53798,1.00081
5965.60924,0.99998
5963.68049,1.00061
5961.75174,1.00120
5959.82300,1.00160
5957.89425,1.00147
5955.96551,0.99951
5954.03676,0.99716
5952.10802,0.99652
5950.17927,0.99733
5948.25053,0.99883
5946.32178,1.00008
5944.39304,1.00076
5942.46429,1.00192
5940.53555,1.00328
5938.60680,1.00394
5936.67806,1.00409
5934.74931,1.00325
5932.82057,1.00170
5930.89182,1.00130
5928.96307,1.00166
5927.03433,1.00117
5925.10558,1.00065
5923.17684,1.00098
5921.24809,1.00111
5919.31935,1.00088
5917.39060,1.00095
5915.46186,1.00120
5913.53311,1.00140
5911.60437,1.00114
5909.67562,1.00073
5907.74688,1.00096
5905.81813,1.00135
5903.88939,1.00153
5901.96064,1.00193
5900.03189,1.00246
5898.10315,1.00216
5896.17440,1.00021
5894.24566,0.99820
5892.31691,0.99772
5890.38817,0.99741
5888.45942,0.99723
5886.53068,0.99870
5884.60193,1.00001
5882.67319,0.99919
5880.74444,0.99811
5878.81570,0.99845
5876.88695,0.99945
5874.95821,1.00026
5873.02946,1.00050
5871.10072,0.99994
5869.17197,0.99942
5867.24322,0.99981
5865.31448,0.99957
5863.38573,0.99801
5861.45699,0.99757
5859.52824,0.99899
5857.59950,1.00037
5855.67075,1.00037
5853.74201,0.99959
5851.81326,0.99927
5849.88452,0.99923
5847.95577,0.99905
5846.02703,0.99964
5844.09828,1.00152
5842.16954,1.00264
5840.24079,1.00169
5838.31205,1.00085
5836.38330,1.00127
5834.45455,1.00097
5832.52581,0.99841
5830.59706,0.99639
5828.66832,0.99837
5826.73957,1.00156
5824.81083,1.00211
5822.88208,1.00189
5820.95334,1.00315
5819.02459,1.00372
5817.09585,1.00261
5815.16710,1.00199
5813.23836,1.00157
5811.30961,1.00000
5809.38087,0.99811
5807.45212,0.99690
5805.52337,0.99712
5803.59463,0.99918
5801.66588,1.00176
5799.73714,1.00324
5797.80839,1.00330
5795.87965,1.00205
5793.95090,1.00059
5792.02216,1.00016
5790.09341,1.00006
5788.16467,0.99902
5786.23592,0.99797
5784.30718,0.99919
5782.37843,1.00148
5780.44969,1.00170
5778.52094,1.00064
5776.59220,1.00048
5774.66345,1.00144
5772.73470,1.00246
5770.80596,1.00237
5768.87721,1.00130
5766.94847,1.00001
5765.01972,0.99917
5763.09098,0.99920
5761.16223,0.99928
5759.23349,0.99888
5757.30474,0.99905
5755.37600,0.99964
5753.44725,0.99946
5751.51851,0.99911
5749.58976,0.99985
5747.66102,1.00132
5745.73227,1.00204
5743.80352,1.00177
5741.87478,1.00175
5739.94603,1.00227
5738.01729,1.00240
5736.08854,1.00200
5734.15980,1.00173
5732.23105,1.00194
5730.30231,1.00266
5728.37356,1.00272
5726.44482,1.00206
5724.51607,1.00203
5722.58733,1.00161
5720.65858,1.00057
5718.72984,0.99998
5716.80109,0.99895
5714.87235,0.99800
5712.94360,0.99869
5711.01485,1.00033
5709.08611,1.00140
5707.15736,1.00111
5705.22862,0.99971
5703.29987,0.99859
5701.37113,0.99826
5699.44238,0.99793
5697.51364,0.99790
5695.58489,0.99904
5693.65615,1.00031
5691.72740,1.00055
5689.79866,1.00061
5687.86991,1.00071
5685.94117,1.00015
5684.01242,0.99978
5682.08368,1.00018
5680.15493,1.00038
5678.22618,0.99997
5676.29744,1.00005
5674.36869,1.00138
5672.43995,1.00270
5670.51120,1.00307
5668.58246,1.00267
5666.65371,1.00191
5664.72497,1.00119
5662.79622,1.00019
5660.86748,0.99900
5658.93873,0.99878
5657.00999,0.99979
5655.08124,1.00111
5653.15250,1.00165
5651.22375,1.00109
5649.29500,1.00074
5647.36626,1.00110
5645.43751,1.00050
5643.50877,0.99964
5641.58002,1.00114
5639.65128,1.00369
5637.72253,1.00398
5635.79379,1.00253
5633.86504,1.00160
5631.93630,1.00096
5630.00755,1.00043
5628.07881,1.00078
5626.15006,1.00056
5624.22132,0.99892
5622.29257,0.99809
5620.36383,0.99887
5618.43508,1.00017
5616.50633,1.00110
5614.57759,1.00045
5612.64884,0.99907
5610.72010,0.99937
5608.79135,1.00058
5606.86261,1.00015
5604.93386,0.99867
5603.00512,0.99848
5601.07637,0.99917
5599.14763,0.99972
5597.21888,1.00076
5595.29014,1.00177
5593.36139,1.00190
5591.43265,1.00156
5589.50390,1.00106
5587.57516,1.00034
5585.64641,0.99967
5583.71766,0.99975
5581.78892,1.00044
5579.86017,1.00099
5577.93143,1.00159
5576.00268,1.00203
5574.07394,1.00168
5572.14519,1.00135
5570.21645,1.00214
5568.28770,1.00344
5566.35896,1.00371
5564.43021,1.00255
5562.50147,1.00108
5560.57272,1.00056
5558.64398,1.00086
5556.71523,1.00089
5554.78648,1.00045
5552.85774,1.00086
5550.92899,1.00204
5549.00025,1.00210
5547.07150,1.00135
5545.14276,1.00072
5543.21401,0.99927
5541.28527,0.99790
5539.35652,0.99883
5537.42778,1.00123
5535.49903,1.00202
5533.57029,1.00028
5531.64154,0.99852
5529.71280,0.99889
5527.78405,1.00069
5525.85531,1.00191
5523.92656,1.00183
5521.99781,1.00101
5520.06907,0.99950
5518.14032,0.99817
5516.21158,0.99856
5514.28283,0.99966
5512.35409,0.99996
5510.42534,1.00037
5508.49660,1.00140
5506.56785,1.00227
5504.63911,1.00250
5502.71036,1.00223
5500.78162,1.00218
5498.85287,1.00234
5496.92413,1.00181
5494.99538,1.00105
5493.06664,1.00142
5491.13789,1.00251
5489.20914,1.00299
5487.28040,1.00242
5485.35165,1.00115
5483.42291,1.00049
5481.49416,1.00065
5479.56542,1.00016
5477.63667,0.99985
5475.70793,1.00075
5473.77918,1.00111
5471.85044,1.00102
5469.92169,1.00170
5467.99295,1.00203
5466.06420,1.00104
5464.13546,0.99967
5462.20671,0.99962
5460.27796,1.00098
5458.34922,1.00176
5456.42047,1.00177
5454.49173,1.00230
5452.56298,1.00278
5450.63424,1.00171
5448.70549,0.99983
5446.77675,0.99962
5444.84800,1.00101
5442.91926,1.00105
5440.99051,0.99890
5439.06177,0.99700
5437.13302,0.99724
5435.20428,0.99847
5433.27553,0.99877
5431.34679,0.99852
5429.41804,0.99927
5427.48929,1.00086
5425.56055,1.00172
5423.63180,1.00150
5421.70306,1.00096
5419.77431,1.00045
5417.84557,1.00021
5415.91682,1.00032
5413.98808,1.00061
5412.05933,1.00077
5410.13059,1.00061
5408.20184,1.00051
5406.27310,1.00057
5404.34435,1.00090
5402.41561,1.00153
5400.48686,1.00170
5398.55811,1.00156
5396.62937,1.00190
5394.70062,1.00210
5392.77188,1.00164
5390.84313,1.00150
5388.91439,1.00166
5386.98564,1.00089
5385.05690,0.99961
5383.12815,0.99892
5381.19941,0.99876
5379.27066,0.99939
5377.34192,1.00064
5375.41317,1.00076
5373.48443,1.00009
5371.55568,1.00099
5369.62694,1.00333
5367.69819,1.00473
5365.76944,1.00430
5363.84070,1.00342
5361.91195,1.00302
5359.98321,1.00242
5358.05446,1.00103
5356.12572,0.99953
5354.19697,0.99877
5352.26823,0.99838
5350.33948,0.99816
5348.41074,0.99881
5346.48199,0.99989
5344.55325,1.00074
5342.62450,1.00134
5340.69576,1.00163
5338.76701,1.00140
5336.83827,1.00084
5334.90952,1.00078
5332.98077,1.00128
5331.05203,1.00130
5329.12328,1.00064
5327.19454,1.00002
5325.26579,0.99978
5323.33705,1.00023
5321.40830,1.00145
5319.47956,1.00259
5317.55081,1.00283
5315.62207,1.00244
5313.69332,1.00138
5311.76458,0.99946
5309.83583,0.99878
5307.90709,1.00026
5305.97834,1.00112
5304.04959,1.00076
5302.12085,1.00072
5300.19210,1.00074
5298.26336,1.00036
5296.33461,1.00018
5294.40587,1.00030
5292.47712,0.99981
5290.54838,0.99861
5288.61963,0.99779
5286.69089,0.99808
5284.76214,0.99854
5282.83340,0.99817
5280.90465,0.99799
5278.97591,0.99879
5277.04716,0.99997
5275.11842,1.00105
5273.18967,1.00165
5271.26092,1.00181
5269.33218,1.00178
5267.40343,1.00158
5265.47469,1.00140
5263.54594,1.00088
5261.61720,1.00001
5259.68845,0.99975
5257.75971,1.00007
5255.83096,1.00056
5253.90222,1.00097
5251.97347,1.00080
5250.04473,1.00058
5248.11598,1.00088
5246.18724,1.00104
5244.25849,1.00052
5242.32975,0.99995
5240.40100,0.99982
5238.47225,0.99958
5236.54351,0.99917
5234.61476,0.99932
5232.68602,0.99989
5230.75727,1.00010
5228.82853,1.00015
5226.89978,1.00052
5224.97104,1.00004
5223.04229,0.99832
5221.11355,0.99737
5219.18480,0.99800
5217.25606,0.99920
5215.32731,1.00042
5213.39857,1.00090
5211.46982,1.00055
5209.54107,1.00053
5207.61233,1.00044
5205.68358,0.99979
5203.75484,0.99944
5201.82609,0.99933
5199.89735,0.99933
5197.96860,0.99950
5196.03986,0.99928
5194.11111,0.99909
5192.18237,0.99969
5190.25362,1.00042
5188.32488,1.00069
5186.39613,1.00077
5184.46739,1.00083
5182.53864,1.00126
5180.60990,1.00199
5178.68115,1.00198
5176.75240,1.00082
5174.82366,0.99922
5172.89491,0.99845
5170.96617,0.99893
5169.03742,0.99960
5167.10868,0.99982
5165.17993,0.99994
5163.25119,1.00016
5161.32244,1.00023
5159.39370,1.00003
5157.46495,1.00019
5155.53621,1.00066
5153.60746,1.00055
5151.67872,0.99997
5149.74997,0.99936
5147.82123,0.99920
5145.89248,0.99967
5143.96373,1.00003
5142.03499,0.99999
5140.10624,0.99992
5138.17750,0.99974
5136.24875,0.99937
5134.32001,0.99942
5132.39126,0.99995
5130.46252,1.00024
5128.53377,1.00022
5126.60503,1.00020
5124.67628,1.00037
5122.74754,1.00070
5120.81879,1.00090
5118.89005,1.00109
5116.96130,1.00137
5115.03255,1.00141
5113.10381,1.00106
5111.17506,1.00043
5109.24632,0.99982
5107.31757,0.99945
5105.38883,0.99916
5103.46008,0.99918
5101.53134,1.00008
5099.60259,1.00104
5097.67385,1.00087
5095.74510,1.00009
5093.81636,0.99972
5091.88761,0.99999
5089.95887,1.00035
5088.03012,1.00050
5086.10138,1.00091
5084.17263,1.00116
5082.24388,1.00076
5080.31514,1.00082
5078.38639,1.00118
5076.45765,1.00054
5074.52890,0.99973
5072.60016,1.00003
5070.67141,1.00107
5068.74267,1.00179
5066.81392,1.00166
5064.88518,1.00128
5062.95643,1.00104
5061.02769,1.00099
5059.09894,1.00092
5057.17020,1.00004
5055.24145,0.99892
5053.31270,0.99880
5051.38396,0.99934
5049.45521,0.99995
5047.52647,1.00039
5045.59772,0.99995
5043.66898,0.99891
5041.74023,0.99849
5039.81149,0.99879
5037.88274,0.99900
5035.95400,0.99894
5034.02525,0.99900
5032.09651,0.99936
5030.16776,1.00002
5028.23902,1.00098
5026.31027,1.00150
5024.38153,1.00091
5022.45278,0.99966
5020.52403,0.99900
5018.59529,0.99920
5016.66654,0.99966
5014.73780,1.00041
5012.80905,1.00078
5010.88031,1.00038
5008.95156,1.00083
5007.02282,1.00216
5005.09407,1.00197
5003.16533,1.00022
5001.23658,0.99950
4999.30784,1.00015
4997.37909,1.00030
4995.45035,0.99967
4993.52160,0.99907
4991.59286,0.99902
4989.66411,0.99963
4987.73536,1.00056
4985.80662,1.00135
4983.87787,1.00119
4981.94913,0.99980
4980.02038,0.99851
4978.09164,0.99888
4976.16289,1.00090
4974.23415,1.00248
4972.30540,1.00167
4970.37666,0.99983
4968.44791,0.99947
4966.51917,1.00038
4964.59042,1.00066
4962.66168,0.99966
4960.73293,0.99846
4958.80418,0.99778
4956.87544,0.99757
4954.94669,0.99822
4953.01795,0.99919
4951.08920,0.99954
4949.16046,1.00018
4947.23171,1.00158
4945.30297,1.00232
4943.37422,1.00217
4941.44548,1.00177
4939.51673,1.00118
4937.58799,1.00100
4935.65924,1.00140
4933.73050,1.00146
4931.80175,1.00061
4929.87301,0.99911
4927.94426,0.99813
4926.01551,0.99881
4924.08677,1.00035
4922.15802,1.00107
4920.22928,1.00114
4918.30053,1.00141
4916.37179,1.00141
4914.44304,1.00070
4912.51430,0.99994
4910.58555,0.99981
4908.65681,1.00010
4906.72806,1.00005
4904.79932,0.99980
4902.87057,0.99989
4900.94183,1.00042
4899.01308,1.00120
4897.08434,1.00171
4895.15559,1.00174
4893.22684,1.00151
4891.29810,1.00127
4889.36935,1.00135
4887.44061,1.00164
4885.51186,1.00194
4883.58312,1.00213
4881.65437,1.00171
4879.72563,1.00047
4877.79688,0.99907
4875.86814,0.99850
4873.93939,0.99879
4872.01065,0.99914
4870.08190,0.99942
4868.15316,0.99984
4866.22441,0.99997
4864.29566,0.99953
4862.36692,0.99894
4860.43817,0.99877
4858.50943,0.99938
4856.58068,1.00035
4854.65194,1.00073
4852.72319,1.00043
4850.79445,1.00003
4848.86570,1.00029
4846.93696,1.00113
4845.00821,1.00108
4843.07947,1.00001
4841.15072,0.99950
4839.22198,0.99951
4837.29323,0.99901
4835.36449,0.99885
4833.43574,0.99987
4831.50699,1.00100
4829.57825,1.00117
4827.64950,1.00067
4825.72076,1.00012
4823.79201,0.99967
4821.86327,0.99947
4819.93452,0.99921
4818.00578,0.99860
4816.07703,0.99846
4814.14829,0.99926
4812.21954,1.00014
4810.29080,1.00047
4808.36205,1.00046
4806.43331,1.00059
4804.50456,1.00100
4802.57582,1.00125
4800.64707,1.00122
4798.71832,1.00126
4796.78958,1.00113
4794.86083,1.00062
4792.93209,1.00021
4791.00334,1.00035
4789.07460,1.00120
4787.14585,1.00188
4785.21711,1.00149
4783.28836,1.00081
4781.35962,1.00069
4779.43087,1.00056
4777.50213,1.00005
4775.57338,0.99952
4773.64464,0.99907
4771.71589,0.99910
4769.78714,0.99969
4767.85840,0.99976
4765.92965,0.99937
4764.00091,0.99946
4762.07216,0.99985
4760.14342,0.99983
4758.21467,0.99951
4756.28593,0.99944
4754.35718,0.99991
4752.42844,1.00078
4750.49969,1.00119
4748.57095,1.00096
4746.64220,1.00092
4744.71346,1.00122
4742.78471,1.00104
4740.85597,1.00016
4738.92722,0.99959
4736.99847,0.99960
4735.06973,0.99962
4733.14098,0.99993
4731.21224,1.00070
4729.28349,1.00112
4727.35475,1.00098
4725.42600,1.00106
4723.49726,1.00133
4721.56851,1.00127
4719.63977,1.00101
4717.71102,1.00059
4715.78228,1.00028
4713.85353,1.00052
4711.92479,1.00107
4709.99604,1.00128
4708.06729,1.00079
4706.13855,1.00007
4704.20980,0.99956
4702.28106,0.99928
4700.35231,0.99949
4698.42357,1.00011
4696.49482,1.00055
4694.56608,1.00087
4692.63733,1.00125
4690.70859,1.00139
4688.77984,1.00098
4686.85110,0.99996
4684.92235,0.99946
4682.99361,1.00007
4681.06486,1.00034
4679.13612,0.99972
4677.20737,0.99957
4675.27862,1.00026
4673.34988,1.00049
4671.42113,1.00013
4669.49239,1.00031
4667.56364,1.00077
4665.63490,1.00033
4663.70615,0.99935
4661.77741,0.99894
4659.84866,0.99946
4657.91992,1.00051
4655.99117,1.00146
4654.06243,1.00183
4652.13368,1.00140
4650.20494,1.00067
4648.27619,1.00036
4646.34745,1.00041
4644.41870,1.00062
4642.48995,1.00113
4640.56121,1.00180
4638.63246,1.00201
4636.70372,1.00135
4634.77497,1.00041
4632.84623,0.99998
4630.91748,1.00023
4628.98874,1.00080
4627.05999,1.00105
4625.13125,1.00067
4623.20250,0.99997
4621.27376,0.99962
4619.34501,0.99983
4617.41627,1.00014
4615.48752,1.00017
4613.55877,0.99994
4611.63003,0.99974
4609.70128,1.00005
4607.77254,1.00052
4605.84379,1.00049
4603.91505,1.00047
4601.98630,1.00088
4600.05756,1.00095
4598.12881,1.00036
4596.20007,0.99983
4594.27132,0.99952
4592.34258,0.99900
4590.41383,0.99883
4588.48509,0.99925
4586.55634,0.99944
4584.62760,0.99949
4582.69885,0.99983
4580.77010,1.00035
4578.84136,1.00081
4576.91261,1.00098
4574.98387,1.00091
4573.05512,1.00079
4571.12638,1.00070
4569.19763,1.00072
4567.26889,1.00073
4565.34014,1.00045
4563.41140,0.99985
4561.48265,0.99937
4559.55391,0.99937
4557.62516,0.99977
4555.69642,1.00049
4553.76767,1.00100
4551.83893,1.00080
4549.91018,1.00037
4547.98143,1.00011
4546.05269,0.99999
4544.12394,1.00021
4542.19520,1.00053
4540.26645,1.00044
4538.33771,1.00002
4536.40896,0.99986
4534.48022,1.00024
4532.55147,1.00060
4530.62273,1.00055
4528.69398,1.00051
4526.76524,1.00061
4524.83649,1.00051
4522.90775,1.00024
4520.97900,0.99984
4519.05025,0.99947
4517.12151,0.99969
4515.19276,1.00035
4513.26402,1.00063
4511.33527,1.00064
4509.40653,1.00095
4507.47778,1.00100
4505.54904,1.00048
4503.62029,1.00026
4501.69155,1.00033
4499.76280,0.99993
4497.83406,0.99941
4495.90531,0.99917
4493.97657,0.99891
4492.04782,0.99896
4490.11908,0.99957
4488.19033,1.00045
4486.26158,1.00130
4484.33284,1.00153
4482.40409,1.00105
4480.47535,1.00066
4478.54660,1.00077
4476.61786,1.00108
4474.68911,1.00121
4472.76037,1.00087
4470.83162,1.00034
4468.90288,1.00022
4466.97413,1.00050
4465.04539,1.00069
4463.11664,1.00072
4461.18790,1.00084
4459.25915,1.00113
4457.33041,1.00118
4455.40166,1.00062
4453.47291,1.00000
4451.54417,0.99989
4449.61542,0.99986
4447.68668,0.99981
4445.75793,1.00030
4443.82919,1.00088
4441.90044,1.00070
4439.97170,1.00015
4438.04295,0.99978
4436.11421,0.99971
4434.18546,1.00006
4432.25672,1.00023
4430.32797,0.99981
4428.39923,0.99954
4426.47048,0.99977
4424.54173,0.99979
4422.61299,0.99931
4420.68424,0.99920
4418.75550,0.99985
4416.82675,1.00019
4414.89801,1.00002
4412.96926,1.00011
4411.04052,1.00026
4409.11177,1.00031
4407.18303,1.00051
4405.25428,1.00077
4403.32554,1.00096
4401.39679,1.00104
4399.46805,1.00101
4397.53930,1.00084
4395.61056,1.00052
4393.68181,1.00037
4391.75306,1.00067
4389.82432,1.00088
4387.89557,1.00063
4385.96683,1.00034
4384.03808,1.00035
4382.10934,1.00036
4380.18059,0.99995
4378.25185,0.99943
4376.32310,0.99945
4374.39436,1.00000
4372.46561,1.00050
4370.53687,1.00050
4368.60812,1.00016
4366.67938,0.99981
4364.75063,0.99960
4362.82189,0.99954
4360.89314,0.99948
4358.96439,0.99952
4357.03565,0.99960
4355.10690,0.99951
4353.17816,0.99977
4351.24941,1.00053
4349.32067,1.00069
4347.39192,0.99993
4345.46318,0.99921
4343.53443,0.99936
4341.60569,1.00024
4339.67694,1.00081
4337.74820,1.00077
4335.81945,1.00057
4333.89071,1.00020
4331.96196,0.99957
4330.03321,0.99918
4328.10447,0.99934
4326.17572,0.99943
4324.24698,0.99922
4322.31823,0.99959
4320.38949,1.00045
4318.46074,1.00067
4316.53200,1.00017
4314.60325,0.99978
4312.67451,0.99990
4310.74576,0.99995
4308.81702,0.99962
4306.88827,0.99942
4304.95953,0.99950
4303.03078,0.99979
4301.10204,1.00009
4299.17329,0.99973
4297.24454,0.99904
4295.31580,0.99895
4293.38705,0.99945
4291.45831,0.99992
4289.52956,1.00022
4287.60082,1.00082
4285.67207,1.00156
4283.74333,1.00159
4281.81458,1.00049
4279.88584,0.99935
4277.95709,0.99939
4276.02835,1.00007
4274.09960,1.00041
4272.17086,1.00042
4270.24211,1.00034
4268.31336,1.00010
4266.38462,0.99989
4264.45587,0.99997
4262.52713,0.99999
4260.59838,0.99976
4258.66964,0.99981
4256.74089,1.00025
4254.81215,1.00055
4252.88340,1.00052
4250.95466,1.00029
4249.02591,1.00009
4247.09717,1.00009
4245.16842,1.00024
4243.23968,1.00030
4241.31093,1.00010
4239.38219,0.99993
4237.45344,0.99997
4235.52469,1.00002
4233.59595,1.00020
4231.66720,1.00067
4229.73846,1.00103
4227.80971,1.00081
4225.88097,1.00024
4223.95222,0.99980
4222.02348,0.99946
4220.09473,0.99920
4218.16599,0.99935
4216.23724,0.99983
4214.30850,1.00026
4212.37975,1.00041
4210.45101,1.00035
4208.52226,1.00026
4206.59352,1.00018
4204.66477,1.00021
4202.73602,1.00046
4200.80728,1.00068
4198.87853,1.00051
4196.94979,1.00027
4195.02104,1.00032
4193.09230,1.00033
4191.16355,1.00035
4189.23481,1.00071
4187.30606,1.00109
4185.37732,1.00124
4183.44857,1.00124
4181.51983,1.00109
4179.59108,1.00094
4177.66234,1.00085
4175.73359,1.00077
4173.80484,1.00082
4171.87610,1.00100
4169.94735,1.00090
4168.01861,1.00067
4166.08986,1.00097
4164.16112,1.00123
4162.23237,1.00071
4160.30363,0.99998
4158.37488,0.99983
4156.44614,1.00008
4154.51739,1.00004
4152.58865,0.99977
4150.65990,1.00002
4148.73116,1.00070
4146.80241,1.00078
4144.87367,0.99997
4142.94492,0.99928
4141.01617,0.99948
4139.08743,0.99987
4137.15868,0.99982
4135.22994,0.99953
4133.30119,0.99927
4131.37245,0.99928
4129.44370,0.99958
4127.51496,0.99984
4125.58621,1.00002
4123.65747,1.00051
4121.72872,1.00089
4119.79998,1.00049
4117.87123,0.99972
4115.94249,0.99927
4114.01374,0.99920
4112.08500,0.99924
4110.15625,0.99921
4108.22750,0.99936
4106.29876,0.99960
4104.37001,0.99950
4102.44127,0.99916
4100.51252,0.99931
4098.58378,0.99996
4096.65503,1.00020
4094.72629,0.99982
4092.79754,0.99950
4090.86880,0.99952
4088.94005,0.99950
4087.01131,0.99922
4085.08256,0.99904
4083.15382,0.99926
4081.22507,0.99971
4079.29632,0.99997
4077.36758,1.00008
4075.43883,1.00041
4073.51009,1.00075
4071.58134,1.00078
4069.65260,1.00064
4067.72385,1.00057
4065.79511,1.00054
4063.86636,1.00039
4061.93762,1.00020
4060.00887,1.00004
4058.08013,0.99981
4056.15138,0.99971
4054.22264,0.99986
4052.29389,0.99987
4050.36515,0.99968
4048.43640,0.99960
4046.50765,0.99979
4044.57891,1.00023
4042.65016,1.00060
4040.72142,1.00069
4038.79267,1.00067
4036.86393,1.00034
4034.93518,0.99992
4033.00644,1.00016
4031.07769,1.00082
4029.14895,1.00083
4027.22020,1.00007
4025.29146,0.99944
4023.36271,0.99947
4021.43397,0.99975
4019.50522,0.99985
4017.57648,0.99994
4015.64773,1.00010
4013.71898,1.00022
4011.79024,1.00029
4009.86149,1.00021
4007.93275,0.99991
4006.00400,0.99979
4004.07526,1.00018
4002.14651,1.00064
4000.21777,1.00069
3998.28902,1.00060
3996.36028,1.00030
3994.43153,0.99960
3992.50279,0.99924
3990.57404,0.99974
3988.64530,1.00034
3986.71655,1.00037
3984.78780,1.00002
3982.85906,0.99963
3980.93031,0.99947
3979.00157,0.99959
3977.07282,0.99978
3975.14408,0.99991
3973.21533,0.99979
3971.28659,0.99950
3969.35784,0.99945
3967.42910,0.99956
3965.50035,0.99966
3963.57161,0.99989
3961.64286,1.00031
3959.71412,1.00071
3957.78537,1.00081
3955.85663,1.00066
3953.92788,1.00059
3951.99913,1.00069
3950.07039,1.00071
3948.14164,1.00052
3946.21290,1.00028
3944.28415,1.00006
3942.35541,0.99984
3940.42666,0.99956
3938.49792,0.99928
3936.56917,0.99948
3934.64043,1.00013
3932.71168,1.00053
3930.78294,1.00050
3928.85419,1.00045
3926.92545,1.00039
3924.99670,1.00007
3923.06795,0.99970
3921.13921,0.99949
3919.21046,0.99948
3917.28172,0.99976
3915.35297,1.00002
3913.42423,0.99992
3911.49548,0.99969
3909.56674,0.99977
3907.63799,1.00011
3905.70925,1.00040
3903.78050,1.00068
3901.85176,1.00084
3899.92301,1.00056
3897.99427,1.00027
3896.06552,1.00036
3894.13678,1.00046
3892.20803,1.00033
3890.27928,1.00046
3888.35054,1.00113
3886.42179,1.00161
3884.49305,1.00153
3882.56430,1.00133
3880.63556,1.00103
3878.70681,1.00038
3876.77807,0.99978
3874.84932,0.99979
3872.92058,1.00017
3870.99183,1.00032
3869.06309,1.00021
3867.13434,0.99998
3865.20560,0.99975
3863.27685,0.99995
3861.34811,1.00031
3859.41936,1.00033
3857.49061,1.00018
3855.56187,1.00004
3853.63312,1.00000
3851.70438,1.00021
3849.77563,1.00017
3847.84689,0.99974
3845.91814,0.99954
3843.98940,0.99972
3842.06065,0.99976
3840.13191,0.99967
3838.20316,0.99992
3836.27442,1.00040
3834.34567,1.00045
3832.41693,1.00009
3830.48818,0.99998
3828.55943,1.00030
3826.63069,1.00059
3824.70194,1.00077
3822.77320,1.00093
3820.84445,1.00070
3818.91571,1.00015
3816.98696,0.99986
3815.05822,0.99984
3813.12947,0.99993
3811.20073,1.00016
3809.27198,1.00057
3807.34324,1.00107
3805.41449,1.00125
3803.48575,1.00094
3801.55700,1.00074
3799.62826,1.00094
3797.69951,1.00094
3795.77076,1.00055
3793.84202,1.00026
3791.91327,1.00025
3789.98453,1.00026
3788.05578,1.00013
3786.12704,0.99999
3784.19829,1.00001
3782.26955,1.00037
3780.34080,1.00089
3778.41206,1.00102
3776.48331,1.00056
3774.55457,1.00006
3772.62582,1.00018
3770.69708,1.00069
3768.76833,1.00072
3766.83959,1.00054
3764.91084,1.00071
3762.98209,1.00088
3761.05335,1.00072
3759.12460,1.00049
3757.19586,1.00038
3755.26711,1.00032
3753.33837,1.00014
3751.40962,0.99973
3749.48088,0.99954
3747.55213,0.99989
3745.62339,1.00048
3743.69464,1.00087
3741.76590,1.00076
3739.83715,1.00056
3737.90841,1.00047
3735.97966,1.00032
3734.05091,1.00000
3732.12217,0.99968
3730.19342,0.99974
3728.26468,1.00011
3726.33593,1.00022
3724.40719,1.00013
3722.47844,1.00030
3720.54970,1.00048
3718.62095,1.00050
3716.69221,1.00073
3714.76346,1.00097
3712.83472,1.00085
3710.90597,1.00085
3708.97723,1.00119
3707.04848,1.00130
3705.11974,1.00099
3703.19099,1.00062
3701.26224,1.00061
3699.33350,1.00080
3697.40475,1.00066
3695.47601,1.00020
3693.54726,0.99999
3691.61852,1.00013
3689.68977,1.00013
3687.76103,0.99983
3685.83228,0.99956
3683.90354,0.99956
3681.97479,0.99980
3680.04605,1.00010
3678.11730,1.00024
3676.18856,1.00000
3674.25981,0.99961
3672.33107,0.99972
3670.40232,1.00020
3668.47357,1.00042
3666.54483,1.00027
3664.61608,0.99985
3662.68734,0.99942
3660.75859,0.99948
3658.82985,0.99970
3656.90110,0.99966
3654.97236,0.99990
3653.04361,1.00059
3651.11487,1.00113
3649.18612,1.00100
3647.25738,1.00030
3645.32863,0.99970
3643.39989,0.99961
3641.47114,0.99990
3639.54239,1.00034
3637.61365,1.00076
3635.68490,1.00081
3633.75616,1.00060
3631.82741,1.00066
3629.89867,1.00084
3627.96992,1.00058
3626.04118,1.00047
3624.11243,1.00091
3622.18369,1.00114
3620.25494,1.00079
3618.32620,1.00051
3616.39745,1.00059
3614.46871,1.00072
3612.53996,1.00065
3610.61122,1.00022
3608.68247,0.99973
3606.75372,0.99951
3604.82498,0.99944
3602.89623,0.99955
3600.96749,1.00011
3599.03874,1.00082
3597.11000,1.00110
3595.18125,1.00084
3593.25251,1.00045
3591.32376,1.00039
3589.39502,1.00056
3587.46627,1.00052
3585.53753,1.00045
3583.60878,1.00051
3581.68004,1.00048
3579.75129,1.00040
3577.82254,1.00034
3575.89380,1.00036
3573.96505,1.00037
3572.03631,1.00013
3570.10756,1.00006
3568.17882,1.00061
3566.25007,1.00092
3564.32133,1.00063
3562.39258,1.00071
3560.46384,1.00124
3558.53509,1.00154
3556.60635,1.00118
3554.67760,1.00059
3552.74886,1.00045
3550.82011,1.00064
3548.89137,1.00087
3546.96262,1.00106
3545.03387,1.00103
3543.10513,1.00089
3541.17638,1.00080
3539.24764,1.00082
3537.31889,1.00073
3535.39015,1.00020
3533.46140,0.99956
3531.53266,0.99957
3529.60391,1.00014
3527.67517,1.00038
3525.74642,1.00009
3523.81768,0.99985
3521.88893,1.00005
3519.96019,1.00036
3518.03144,1.00048
3516.10270,1.00054
3514.17395,1.00047
3512.24520,1.00022
3510.31646,1.00008
3508.38771,0.99994
3506.45897,0.99959
3504.53022,0.99954
3502.60148,0.99993
3500.67273,1.00008
3498.74399,0.99987
3496.81524,0.99972
3494.88650,0.99965
3492.95775,0.99970
3491.02901,0.99996
3489.10026,1.00009
3487.17152,0.99991
3485.24277,0.99976
3483.31402,0.99993
3481.38528,1.00018
3479.45653,1.00027
3477.52779,1.00018
3475.59904,1.00009
3473.67030,1.00008
3471.74155,0.99999
3469.81281,0.99979
3467.88406,0.99954
3465.95532,0.99948
3464.02657,0.99995
3462.09783,1.00053
3460.16908,1.00069
3458.24034,1.00069
3456.31159,1.00084
3454.38285,1.00087
3452.45410,1.00050
3450.52535,1.00029
3448.59661,1.00077
3446.66786,1.00136
3444.73912,1.00127
3442.81037,1.00078
3440.88163,1.00052
3438.95288,1.00034
3437.02414,0.99986
3435.09539,0.99945
3433.16665,0.99948
3431.23790,0.99941
3429.30916,0.99909
3427.38041,0.99915
3425.45167,0.99952
3423.52292,0.99980
3421.59418,1.00009
3419.66543,1.00026
3417.73668,1.00007
3415.80794,0.99994
3413.87919,1.00017
3411.95045,1.00020
3410.02170,1.00005
3408.09296,1.00023
3406.16421,1.00062
3404.23547,1.00108
3402.30672,1.00152
3400.37798,1.00159
3398.44923,1.00138
3396.52049,1.00124
3394.59174,1.00095
3392.66300,1.00022
3390.73425,0.99953
3388.80550,0.99939
3386.87676,0.99942
3384.94801,0.99947
3383.01927,0.99987
3381.09052,1.00020
3379.16178,1.00000
3377.23303,0.99974
3375.30429,0.99994
3373.37554,1.00031
3371.44680,1.00047
3369.51805,1.00065
3367.58931,1.00080
3365.66056,1.00066
3363.73182,1.00054
3361.80307,1.00067
3359.87433,1.00075
3357.94558,1.00061
3356.01683,1.00035
3354.08809,1.00022
3352.15934,1.00040
3350.23060,1.00054
3348.30185,1.00031
3346.37311,1.00002
3344.44436,0.99984
3342.51562,0.99978
3340.58687,1.00012
3338.65813,1.00086
3336.72938,1.00131
3334.80064,1.00115
3332.87189,1.00077
3330.94315,1.00043
3329.01440,1.00014
3327.08566,1.00036
3325.15691,1.00089
3323.22816,1.00090
3321.29942,1.00034
3319.37067,0.99964
3317.44193,0.99947
3315.51318,1.00003
3313.58444,1.00039
3311.65569,1.00037
3309.72695,1.00048
3307.79820,1.00072
3305.86946,1.00110
3303.94071,1.00127
3302.01197,1.00073
3300.08322,0.99982
3298.15448,0.99926
3296.22573,0.99917
3294.29698,0.99919
3292.36824,0.99933
3290.43949,0.99980
3288.51075,1.00022
3286.58200,0.99993
3284.65326,0.99923
3282.72451,0.99912
3280.79577,0.99972
3278.86702,1.00031
3276.93828,1.00012
3275.00953,0.99939
3273.08079,0.99916
3271.15204,0.99972
3269.22330,1.00029
3267.29455,1.00019
3265.36581,0.99968
3263.43706,0.99952
3261.50831,0.99977
3259.57957,0.99993
3257.65082,0.99993
3255.72208,0.99991
3253.79333,0.99966
3251.86459,0.99944
3249.93584,0.99983
3248.00710,1.00049
3246.07835,1.00071
3244.14961,1.00084
3242.22086,1.00099
3240.29212,1.00048
3238.36337,0.99951
3236.43463,0.99905
3234.50588,0.99963
3232.57713,1.00073
3230.64839,1.00114
3228.71964,1.00072
3226.79090,1.00037
3224.86215,1.00043
3222.93341,1.00057
3221.00466,1.00066
3219.07592,1.00058
3217.14717,1.00027
3215.21843,1.00003
3213.28968,0.99994
3211.36094,1.00001
3209.43219,1.00017
3207.50345,1.00010
3205.57470,1.00012
3203.64596,1.00056
3201.71721,1.00103
3199.78846,1.00106
3197.85972,1.00072
3195.93097,1.00061
3194.00223,1.00075
3192.07348,1.00058
3190.14474,1.00045
3188.21599,1.00064
3186.28725,1.00061
3184.35850,1.00020
3182.42976,0.99961
3180.50101,0.99908
3178.57227,0.99888
3176.64352,0.99893
3174.71478,0.99929
3172.78603,1.00010
3170.85729,1.00098
3168.92854,1.00130
3166.99979,1.00102
3165.07105,1.00071
3163.14230,1.00055
3161.21356,1.00016
3159.28481,0.99974
3157.35607,0.99983
3155.42732,1.00030
3153.49858,1.00045
3151.56983,1.00019
3149.64109,1.00018
3147.71234,1.00053
3145.78360,1.00062
3143.85485,1.00016
3141.92611,0.99968
3139.99736,0.99956
3138.06861,0.99947
3136.13987,0.99923
3134.21112,0.99926
3132.28238,0.99958
3130.35363,0.99985
3128.42489,0.99989
3126.49614,0.99966
3124.56740,0.99944
3122.63865,0.99955
3120.70991,0.99979
3118.78116,0.99988
3116.85242,0.99991
3114.92367,1.00003
3112.99493,1.00027
3111.06618,1.00045
3109.13744,1.00033
3107.20869,1.00015
3105.27994,1.00009
3103.35120,1.00007
3101.42245,1.00006
3099.49371,1.00008
3097.56496,1.00021
3095.63622,1.00043
3093.70747,1.00048
3091.77873,1.00040
3089.84998,1.00038
3087.92124,1.00058
3085.99249,1.00076
3084.06375,1.00049
3082.13500,1.00008
3080.20626,0.99993
3078.27751,0.99988
3076.34877,0.99983
3074.42002,0.99990
3072.49127,0.99998
3070.56253,0.99992
3068.63378,0.99980
3066.70504,0.99984
3064.77629,0.99998
3062.84755,1.00004
3060.91880,1.00012
3058.99006,1.00007
3057.06131,0.99987
3055.13257,1.00001
3053.20382,1.00037
3051.27508,1.00040
3049.34633,1.00029
3047.41759,1.00036
3045.48884,1.00033
3043.56009,0.99996
3041.63135,0.99954
3039.70260,0.99947
3037.77386,0.99974
3035.84511,0.99993
3033.91637,0.99974
3031.98762,0.99947
3030.05888,0.99952
3028.13013,0.99977
3026.20139,1.00003
3024.27264,1.00024
3022.34390,1.00033
3020.41515,1.00022
3018.48641,1.00008
3016.55766,1.00002
3014.62892,0.99996
3012.70017,0.99992
3010.77142,0.99993
3008.84268,0.99993
3006.91393,1.00008
3004.98519,1.00043
3003.05644,1.00058
3001.12770,1.00047
2999.19895,1.00053
2997.27021,1.00085
2995.34146,1.00091
2993.41272,1.00054
2991.48397,1.00016
2989.55523,1.00007
2987.62648,1.00012
2985.69774,1.00006
2983.76899,0.99983
2981.84025,0.99967
2979.91150,0.99962
2977.98275,0.99958
2976.05401,0.99959
2974.12526,0.99974
2972.19652,0.99986
2970.26777,0.99992
2968.33903,1.00009
2966.41028,1.00028
2964.48154,1.00017
2962.55279,0.99993
2960.62405,1.00001
2958.69530,1.00024
2956.76656,1.00028
2954.83781,1.00026
2952.90907,1.00029
2950.98032,1.00021
2949.05157,1.00002
2947.12283,0.99993
2945.19408,0.99993
2943.26534,0.99987
2941.33659,0.99976
2939.40785,0.99971
2937.47910,0.99985
2935.55036,1.00007
2933.62161,1.00013
2931.69287,0.99992
2929.76412,0.99960
2927.83538,0.99960
2925.90663,1.00002
2923.97789,1.00026
2922.04914,1.00000
2920.12040,0.99981
2918.19165,1.00011
2916.26290,1.00031
2914.33416,0.99992
2912.40541,0.99949
2910.47667,0.99959
2908.54792,0.99998
2906.61918,1.00016
2904.69043,0.99998
2902.76169,0.99966
2900.83294,0.99953
2898.90420,0.99979
2896.97545,1.00014
2895.04671,1.00028
2893.11796,1.00041
2891.18922,1.00051
2889.26047,1.00046
2887.33172,1.00045
2885.40298,1.00036
2883.47423,1.00019
2881.54549,1.00041
2879.61674,1.00080
2877.68800,1.00070
2875.75925,1.00036
2873.83051,1.00024
2871.90176,1.00012
2869.97302,0.99989
2868.04427,0.99973
2866.11553,0.99973
2864.18678,0.99985
2862.25804,0.99994
2860.32929,0.99992
2858.40055,0.99995
2856.47180,1.00011
2854.54305,1.00028
2852.61431,1.00037
2850.68556,1.00032
2848.75682,1.00014
2846.82807,0.99991
2844.89933,0.99978
2842.97058,0.99994
2841.04184,1.00022
2839.11309,1.00028
2837.18435,1.00022
2835.25560,1.00032
2833.32686,1.00047
2831.39811,1.00039
2829.46937,1.00025
2827.54062,1.00029
2825.61188,1.00044
2823.68313,1.00052
2821.75438,1.00045
2819.82564,1.00034
2817.89689,1.00038
2815.96815,1.00062
2814.03940,1.00086
2812.11066,1.00088
2810.18191,1.00076
2808.25317,1.00063
2806.32442,1.00051
2804.39568,1.00047
2802.46693,1.00057
2800.53819,1.00063
2798.60944,1.00053
2796.68070,1.00028
2794.75195,0.99996
2792.82320,1.00004
2790.89446,1.00062
2788.96571,1.00080
2787.03697,1.00017
2785.10822,0.99959
2783.17948,0.99962
2781.25073,0.99987
2779.32199,1.00004
2777.39324,1.00022
2775.46450,1.00039
2773.53575,1.00031
2771.60701,0.99993
2769.67826,0.99968
2767.74952,0.99976
2765.82077,0.99996
2763.89203,1.00015
2761.96328,1.00026
2760.03453,1.00027
2758.10579,1.00018
2756.17704,1.00001
2754.24830,1.00012
2752.31955,1.00044
2750.39081,1.00047
2748.46206,1.00040
2746.53332,1.00052
2744.60457,1.00058
2742.67583,1.00045
2740.74708,1.00037
2738.81834,1.00042
2736.88959,1.00036
2734.96085,1.00010
2733.03210,0.99989
2731.10336,0.99981
2729.17461,0.99969
2727.24586,0.99958
2725.31712,0.99963
2723.38837,0.99974
2721.45963,0.99984
2719.53088,0.99998
2717.60214,1.00004
2715.67339,1.00000
2713.74465,0.99996
2711.81590,1.00001
2709.88716,1.00021
2707.95841,1.00054
2706.02967,1.00088
2704.10092,1.00107
2702.17218,1.00090
2700.24343,1.00057
2698.31468,1.00043
2696.38594,1.00035
2694.45719,1.00013
2692.52845,0.99996
2690.59970,1.00008
2688.67096,1.00031
2686.74221,1.00032
2684.81347,1.00015
2682.88472,1.00000
2680.95598,0.99988
2679.02723,0.99982
2677.09849,0.99998
2675.16974,1.00032
2673.24100,1.00055
2671.31225,1.00042
2669.38351,1.00004
2667.45476,0.99975
2665.52601,0.99976
2663.59727,0.99990
2661.66852,0.99984
2659.73978,0.99969
2657.81103,0.99982
2655.88229,1.00014
2653.95354,1.00030
2652.02480,1.00023
2650.09605,1.00009
2648.16731,1.00006
2646.23856,1.00021
2644.30982,1.00038
2642.38107,1.00039
2640.45233,1.00032
2638.52358,1.00018
2636.59484,0.99996
2634.66609,0.99984
2632.73734,0.99981
2630.80860,0.99975
2628.87985,0.99979
2626.95111,0.99992
2625.02236,1.00001
2623.09362,1.00011
2621.16487,1.00019
2619.23613,1.00019
2617.30738,1.00023
2615.37864,1.00025
2613.44989,1.00020
2611.52115,1.00026
2609.59240,1.00034
2607.66366,1.00021
2605.73491,1.00020
2603.80616,1.00026
2601.87742,0.99999
2599.94867,0.99973
2598.01993,0.99987
2596.09118,1.00011
2594.16244,1.00024
2592.23369,1.00031
2590.30495,1.00040
2588.37620,1.00048
2586.44746,1.00045
2584.51871,1.00022
2582.58997,0.99988
2580.66122,0.99970
2578.73248,0.99991
2576.80373,1.00031
2574.87499,1.00053
2572.94624,1.00044
2571.01749,1.00020
2569.08875,0.99996
2567.16000,0.99993
2565.23126,1.00011
2563.30251,1.00013
2561.37377,1.00002
2559.44502,1.00010
2557.51628,1.00025
2555.58753,1.00022
2553.65879,1.00010
2551.73004,1.00010
2549.80130,1.00037
2547.87255,1.00073
2545.94381,1.00090
2544.01506,1.00083
2542.08631,1.00066
2540.15757,1.00047
2538.22882,1.00041
2536.30008,1.00043
2534.37133,1.00049
2532.44259,1.00055
2530.51384,1.00032
2528.58510,0.99985
2526.65635,0.99970
2524.72761,0.99996
2522.79886,1.00035
2520.87012,1.00075
2518.94137,1.00110
2517.01263,1.00135
2515.08388,1.00147
2513.15514,1.00127
2511.22639,1.00082
2509.29764,1.00051
2507.36890,1.00030
2505.44015,1.00007
2503.51141,1.00002
2501.58266,1.00023
2499.65392,1.00058
2497.72517,1.00089
2495.79643,1.00088
2493.86768,1.00056
2491.93894,1.00028
2490.01019,1.00026
2488.08145,1.00046
2486.15270,1.00069
2484.22396,1.00071
2482.29521,1.00041
2480.36647,0.99988
2478.43772,0.99949
2476.50897,0.99948
2474.58023,0.99962
2472.65148,0.99978
2470.72274,0.99995
2468.79399,1.00007
2466.86525,1.00020
2464.93650,1.00032
2463.00776,1.00016
2461.07901,0.99983
2459.15027,0.99972
2457.22152,0.99989
2455.29278,1.00005
2453.36403,1.00007
2451.43529,1.00015
2449.50654,1.00024
2447.57779,1.00027
2445.64905,1.00030
2443.72030,1.00027
2441.79156,1.00009
2439.86281,0.99998
2437.93407,1.00010
2436.00532,1.00028
2434.07658,1.00028
2432.14783,1.00018
2430.21909,1.00012
2428.29034,1.00009
2426.36160,1.00021
2424.43285,1.00048
2422.50411,1.00074
2420.57536,1.00072
2418.64662,1.00032
2416.71787,0.99985
2414.78912,0.99975
2412.86038,1.00000
2410.93163,1.00025
2409.00289,1.00039
2407.07414,1.00050
2405.14540,1.00051
2403.21665,1.00039
2401.28791,1.00028
2399.35916,1.00016
2397.43042,1.00002
2395.50167,0.99999
2393.57293,1.00005
2391.64418,1.00011
2389.71544,1.00003
2387.78669,0.99978
2385.85795,0.99973
2383.92920,1.00004
2382.00045,1.00041
2380.07171,1.00063
2378.14296,1.00069
2376.21422,1.00062
2374.28547,1.00060
2372.35673,1.00071
2370.42798,1.00085
2368.49924,1.00089
2366.57049,1.00086
2364.64175,1.00083
2362.71300,1.00068
2360.78426,1.00053
2358.85551,1.00054
2356.92677,1.00066
2354.99802,1.00074
2353.06927,1.00055
2351.14053,1.00024
2349.21178,1.00013
2347.28304,1.00020
2345.35429,1.00039
2343.42555,1.00063
2341.49680,1.00075
2339.56806,1.00071
2337.63931,1.00068
2335.71057,1.00068
2333.78182,1.00061
2331.85308,1.00042
2329.92433,1.00030
2327.99559,1.00050
2326.06684,1.00086
2324.13810,1.00101
2322.20935,1.00099
2320.28060,1.00093
2318.35186,1.00069
2316.42311,1.00037
2314.49437,1.00026
2312.56562,1.00030
2310.63688,1.00038
2308.70813,1.00055
2306.77939,1.00071
2304.85064,1.00087
2302.92190,1.00089
2300.99315,1.00039
2299.06441,0.99971
2297.13566,0.99955
2295.20692,0.99978
2293.27817,0.99992
2291.34943,0.99992
2289.42068,1.00000
2287.49193,1.00009
2285.56319,0.99994
2283.63444,0.99975
2281.70570,0.99979
2279.77695,0.99997
2277.84821,1.00007
2275.91946,0.99996
2273.99072,0.99987
2272.06197,1.00004
2270.13323,1.00021
2268.20448,1.00013
2266.27574,1.00002
2264.34699,1.00011
2262.41825,1.00019
2260.48950,1.00004
2258.56075,0.99979
2256.63201,0.99973
2254.70326,1.00002
2252.77452,1.00036
2250.84577,1.00045
2248.91703,1.00039
2246.98828,1.00035
2245.05954,1.00030
2243.13079,1.00031
2241.20205,1.00048
2239.27330,1.00051
2237.34456,1.00027
2235.41581,1.00017
2233.48707,1.00036
2231.55832,1.00051
2229.62958,1.00040
2227.70083,1.00012
2225.77208,1.00000
2223.84334,1.00008
2221.91459,1.00009
2219.98585,1.00005
2218.05710,1.00016
2216.12836,1.00042
2214.19961,1.00056
2212.27087,1.00044
2210.34212,1.00026
2208.41338,1.00024
2206.48463,1.00031
2204.55589,1.00031
2202.62714,1.00019
2200.69840,1.00002
2198.76965,1.00000
2196.84090,1.00007
2194.91216,1.00011
2192.98341,1.00018
2191.05467,1.00021
2189.12592,1.00015
2187.19718,1.00013
2185.26843,1.00014
2183.33969,1.00002
2181.41094,0.99986
2179.48220,0.99990
2177.55345,1.00017
2175.62471,1.00035
2173.69596,1.00025
2171.76722,1.00009
2169.83847,1.00007
2167.90973,1.00015
2165.98098,1.00018
2164.05223,1.00007
2162.12349,0.99994
2160.19474,0.99984
2158.26600,0.99984
2156.33725,0.99994
2154.40851,1.00006
2152.47976,1.00023
2150.55102,1.00038
2148.62227,1.00043
2146.69353,1.00050
2144.76478,1.00071
2142.83604,1.00076
2140.90729,1.00051
2138.97855,1.00020
2137.04980,1.00000
2135.12106,0.99998
2133.19231,1.00003
2131.26356,0.99996
2129.33482,0.99978
2127.40607,0.99968
2125.47733,0.99972
2123.54858,0.99980
2121.61984,0.99986
2119.69109,0.99990
2117.76235,0.99999
2115.83360,1.00006
2113.90486,1.00010
2111.97611,1.00020
2110.04737,1.00030
2108.11862,1.00033
2106.18988,1.00034
2104.26113,1.00033
2102.33238,1.00028
2100.40364,1.00014
2098.47489,0.99996
2096.54615,0.99992
2094.61740,1.00015
2092.68866,1.00034
2090.75991,1.00035
2088.83117,1.00027
2086.90242,1.00024
2084.97368,1.00027
2083.04493,1.00033
2081.11619,1.00038
2079.18744,1.00033
2077.25870,1.00015
2075.32995,1.00008
2073.40121,1.00018
2071.47246,1.00031
2069.54371,1.00036
2067.61497,1.00031
2065.68622,1.00029
2063.75748,1.00042
2061.82873,1.00054
2059.89999,1.00043
2057.97124,1.00025
2056.04250,1.00020
2054.11375,1.00020
2052.18501,1.00020
2050.25626,1.00026
2048.32752,1.00026
2046.39877,1.00011
2044.47003,1.00001
2042.54128,1.00005
2040.61254,1.00008
2038.68379,1.00004
2036.75504,0.99994
2034.82630,0.99972
2032.89755,0.99951
2030.96881,0.99952
2029.04006,0.99968
2027.11132,0.99982
2025.18257,0.99999
2023.25383,1.00009
2021.32508,1.00011
2019.39634,1.00026
2017.46759,1.00039
2015.53885,1.00019
2013.61010,0.99982
2011.68136,0.99961
2009.75261,0.99973
2007.82386,1.00009
2005.89512,1.00035
2003.96637,1.00028
2002.03763,1.00018
2000.10888,1.00046
1998.18014,1.00079
1996.25139,1.00084
1994.32265,1.00076
1992.39390,1.00062
1990.46516,1.00041
1988.53641,1.00017
1986.60767,0.99987
1984.67892,0.99974
1982.75018,1.00006
1980.82143,1.00046
1978.89269,1.00038
1976.96394,1.00001
1975.03519,0.99983
1973.10645,0.99996
1971.17770,1.00022
1969.24896,1.00036
1967.32021,1.00025
1965.39147,1.00002
1963.46272,0.99982
1961.53398,0.99978
1959.60523,0.99993
1957.67649,1.00013
1955.74774,1.00013
1953.81900,1.00003
1951.89025,1.00004
1949.96151,1.00017
1948.03276,1.00033
1946.10402,1.00050
1944.17527,1.00066
1942.24652,1.00077
1940.31778,1.00074
1938.38903,1.00057
1936.46029,1.00041
1934.53154,1.00029
1932.60280,1.00019
1930.67405,1.00024
1928.74531,1.00042
1926.81656,1.00058
1924.88782,1.00062
1922.95907,1.00040
1921.03033,1.00013
1919.10158,1.00016
1917.17284,1.00022
1915.24409,1.00002
1913.31534,0.99989
1911.38660,1.00008
1909.45785,1.00037
1907.52911,1.00045
1905.60036,1.00031
1903.67162,1.00019
1901.74287,1.00015
1899.81413,1.00014
1897.88538,1.00016
1895.95664,1.00012
1894.02789,1.00002
1892.09915,1.00001
1890.17040,1.00008
1888.24166,1.00014
1886.31291,1.00016
1884.38417,1.00024
1882.45542,1.00043
1880.52667,1.00061
1878.59793,1.00058
1876.66918,1.00040
1874.74044,1.00031
1872.81169,1.00039
1870.88295,1.00035
1868.95420,1.00013
1867.02546,1.00010
1865.09671,1.00031
1863.16797,1.00052
1861.23922,1.00055
1859.31048,1.00036
1857.38173,1.00014
1855.45299,1.00002
1853.52424,0.99989
1851.59549,0.99978
1849.66675,0.99984
1847.73800,0.99999
1845.80926,1.00001
1843.88051,0.99987
1841.95177,0.99984
1840.02302,1.00002
1838.09428,1.00019
1836.16553,1.00020
1834.23679,1.00015
1832.30804,1.00019
1830.37930,1.00020
1828.45055,1.00011
1826.52181,1.00016
1824.59306,1.00034
1822.66432,1.00041
1820.73557,1.00033
1818.80682,1.00016
1816.87808,1.00002
1814.94933,1.00009
1813.02059,1.00026
1811.09184,1.00038
1809.16310,1.00029
1807.23435,0.99997
1805.30561,0.99977
1803.37686,0.99993
1801.44812,1.00027
1799.51937,1.00045
1797.59063,1.00036
1795.66188,1.00023
1793.73314,1.00017
1791.80439,1.00004
1789.87565,0.99989
1787.94690,0.99988
1786.01815,1.00002
1784.08941,1.00027
1782.16066,1.00044
1780.23192,1.00048
1778.30317,1.00050
1776.37443,1.00055
1774.44568,1.00058
1772.51694,1.00043
1770.58819,1.00012
1768.65945,0.99991
1766.73070,0.99991
1764.80196,1.00013
1762.87321,1.00041
1760.94447,1.00053
1759.01572,1.00058
1757.08697,1.00066
1755.15823,1.00061
1753.22948,1.00039
1751.30074,1.00018
1749.37199,1.00007
1747.44325,1.00006
1745.51450,1.00013
1743.58576,1.00023
1741.65701,1.00022
1739.72827,1.00022
1737.79952,1.00040
1735.87078,1.00069
1733.94203,1.00091
1732.01329,1.00079
1730.08454,1.00050
1728.15580,1.00028
1726.22705,1.00021
1724.29830,1.00020
1722.36956,1.00009
1720.44081,0.99993
1718.51207,0.99994
1716.58332,1.00011
1714.65458,1.00024
1712.72583,1.00028
1710.79709,1.00019
1708.86834,1.00014
1706.93960,1.00027
1705.01085,1.00038
1703.08211,1.00038
1701.15336,1.00045
1699.22462,1.00065
1697.29587,1.00066
1695.36713,1.00020
1693.43838,0.99967
1691.50963,0.99959
1689.58089,0.99979
1687.65214,1.00014
1685.72340,1.00070
1683.79465,1.00107
1681.86591,1.00078
1679.93716,1.00032
1678.00842,1.00014
1676.07967,1.00030
1674.15093,1.00043
1672.22218,1.00027
1670.29344,1.00005
1668.36469,1.00003
1666.43595,1.00018
1664.50720,1.00018
1662.57845,0.99989
1660.64971,0.99978
1658.72096,1.00009
1656.79222,1.00049
1654.86347,1.00060
1652.93473,1.00025
1651.00598,1.00007
1649.07724,1.00015
1647.14849,1.00023
1645.21975,1.00030
1643.29100,1.00025
1641.36226,1.00012
1639.43351,1.00018
1637.50477,1.00048
1635.57602,1.00059
1633.64728,1.00035
1631.71853,1.00023
1629.78978,1.00018
1627.86104,1.00005
1625.93229,1.00009
1624.00355,1.00026
1622.07480,1.00027
1620.14606,1.00030
1618.21731,1.00050
1616.28857,1.00057
1614.35982,1.00045
1612.43108,1.00040
1610.50233,1.00026
1608.57359,0.99987
1606.64484,0.99957
1604.71610,0.99968
1602.78735,0.99996
1600.85861,1.00021
1598.92986,1.00044
1597.00111,1.00060
1595.07237,1.00064
1593.14362,1.00060
1591.21488,1.00041
1589.28613,0.99997
1587.35739,0.99959
1585.42864,0.99953
1583.49990,0.99976
1581.57115,1.00001
1579.64241,1.00010
1577.71366,1.00009
1575.78492,1.00006
1573.85617,1.00006
1571.92743,1.00023
1569.99868,1.00035
1568.06993,1.00021
1566.14119,1.00017
1564.21244,1.00044
1562.28370,1.00069
1560.35495,1.00076
1558.42621,1.00080
1556.49746,1.00098
1554.56872,1.00111
1552.63997,1.00089
1550.71123,1.00042
1548.78248,1.00001
1546.85374,0.99976
1544.92499,0.99963
1542.99625,0.99968
1541.06750,1.00006
1539.13876,1.00061
1537.21001,1.00072
1535.28126,1.00041
1533.35252,1.00008
1531.42377,0.99997
1529.49503,0.99996
1527.56628,1.00005
1525.63754,1.00029
1523.70879,1.00042
1521.78005,1.00035
1519.85130,1.00021
1517.92256,1.00025
1515.99381,1.00049
1514.06507,1.00071
1512.13632,1.00077
1510.20758,1.00077
1508.27883,1.00080
1506.35008,1.00067
1504.42134,1.00047
1502.49259,1.00050
1500.56385,1.00063
1498.63510,1.00057
1496.70636,1.00035
1494.77761,1.00020
1492.84887,1.00021
1490.92012,1.00031
1488.99138,1.00035
1487.06263,1.00024
1485.13389,1.00007
1483.20514,1.00006
1481.27640,1.00024
1479.34765,1.00031
1477.41891,1.00013
1475.49016,0.99993
1473.56141,0.99979
1471.63267,0.99977
1469.70392,1.00002
1467.77518,1.00026
1465.84643,1.00027
1463.91769,1.00018
1461.98894,1.00016
1460.06020,1.00023
1458.13145,1.00039
1456.20271,1.00051
1454.27396,1.00051
1452.34522,1.00047
1450.41647,1.00034
1448.48773,1.00005
1446.55898,0.99985
1444.63024,0.99988
1442.70149,0.99991
1440.77274,0.99982
1438.84400,0.99967
1436.91525,0.99960
1434.98651,0.99964
1433.05776,0.99979
1431.12902,1.00004
1429.20027,1.00017
1427.27153,1.00009
1425.34278,1.00005
1423.41404,1.00010
1421.48529,1.00014
1419.55655,1.00018
1417.62780,1.00018
1415.69906,1.00018
1413.77031,1.00038
1411.84156,1.00057
1409.91282,1.00044
1407.98407,1.00024
1406.05533,1.00022
1404.12658,1.00013
1402.19784,0.99990
1400.26909,0.99969
1398.34035,0.99956
1396.41160,0.99948
1394.48286,0.99944
1392.55411,0.99954
1390.62537,0.99978
1388.69662,1.00002
1386.76788,1.00015
1384.83913,1.00008
1382.91039,0.99996
1380.98164,1.00001
1379.05289,1.00012
1377.12415,1.00021
1375.19540,1.00030
1373.26666,1.00024
1371.33791,0.99995
1369.40917,0.99978
1367.48042,0.99990
1365.55168,0.99996
1363.62293,0.99987
1361.69419,0.99989
1359.76544,1.00000
1357.83670,1.00007
1355.90795,1.00014
1353.97921,1.00015
1352.05046,1.00012
1350.12172,1.00009
1348.19297,1.00013
1346.26422,1.00019
1344.33548,1.00016
1342.40673,1.00007
1340.47799,1.00003
1338.54924,0.99997
1336.62050,0.99992
1334.69175,1.00011
1332.76301,1.00038
1330.83426,1.00037
1328.90552,1.00017
1326.97677,1.00006
1325.04803,1.00016
1323.11928,1.00036
1321.19054,1.00044
1319.26179,1.00055
1317.33304,1.00092
1315.40430,1.00104
1313.47555,1.00069
1311.54681,1.00023
1309.61806,0.99982
1307.68932,0.99957
1305.76057,0.99950
1303.83183,0.99953
1301.90308,0.99957
1299.97434,0.99952
1298.04559,0.99949
1296.11685,0.99969
1294.18810,0.99991
1292.25936,0.99987
1290.33061,0.99971
1288.40187,0.99990
1286.47312,1.00044
1284.54437,1.00078
1282.61563,1.00061
1280.68688,1.00029
1278.75814,1.00018
1276.82939,1.00012
1274.90065,1.00002
1272.97190,1.00009
1271.04316,1.00030
1269.11441,1.00045
1267.18567,1.00049
1265.25692,1.00042
1263.32818,1.00026
1261.39943,1.00013
1259.47069,1.00012
1257.54194,1.00015
1255.61320,1.00003
1253.68445,0.99982
1251.75570,0.99986
1249.82696,1.00012
1247.89821,1.00029
1245.96947,1.00041
1244.04072,1.00049
1242.11198,1.00037
1240.18323,1.00031
1238.25449,1.00040
1236.32574,1.00039
1234.39700,1.00028
1232.46825,1.00029
1230.53951,1.00050
1228.61076,1.00073
1226.68202,1.00069
1224.75327,1.00043
1222.82452,1.00030
1220.89578,1.00028
1218.96703,1.00014
1217.03829,1.00019
1215.10954,1.00049
1213.18080,1.00043
1211.25205,1.00000
1209.32331,0.99962
1207.39456,0.99945
1205.46582,0.99951
1203.53707,0.99958
1201.60833,0.99956
1199.67958,0.99956
1197.75084,0.99958
1195.82209,0.99973
1193.89335,1.00015
1191.96460,1.00052
1190.03585,1.00068
1188.10711,1.00074
1186.17836,1.00057
1184.24962,1.00012
1182.32087,0.99981
1180.39213,0.99978
1178.46338,0.99989
1176.53464,1.00021
1174.60589,1.00069
1172.67715,1.00097
1170.74840,1.00072
1168.81966,1.00015
1166.89091,0.99977
1164.96217,0.99971
1163.03342,0.99977
1161.10467,0.99983
1159.17593,0.99992
1157.24718,1.00012
1155.31844,1.00032
1153.38969,1.00020
1151.46095,0.99984
1149.53220,0.99977
1147.60346,0.99983
1145.67471,0.99946
1143.74597,0.99919
1141.81722,0.99961
1139.88848,1.00012
1137.95973,1.00016
1136.03099,0.99986
1134.10224,0.99977
1132.17350,1.00004
1130.24475,1.00017
1128.31600,1.00001
1126.38726,0.99995
1124.45851,0.99995
1122.52977,1.00000
1120.60102,1.00020
1118.67228,1.00023
1116.74353,1.00006
1114.81479,0.99992
1112.88604,0.99985
1110.95730,0.99977
1109.02855,0.99981
1107.09981,1.00016
1105.17106,1.00051
1103.24232,1.00041
1101.31357,1.00024
1099.38483,1.00032
1097.45608,1.00035
1095.52733,1.00018
1093.59859,1.00010
1091.66984,1.00032
1089.74110,1.00052
1087.81235,1.00063
1085.88361,1.00082
1083.95486,1.00081
1082.02612,1.00057
1080.09737,1.00047
1078.16863,1.00066
1076.23988,1.00078
1074.31114,1.00032
1072.38239,0.99963
1070.45365,0.99932
1068.52490,0.99933
1066.59615,0.99971
1064.66741,1.00026
1062.73866,1.00031
1060.80992,1.00001
1058.88117,1.00004
1056.95243,1.00050
1055.02368,1.00085
1053.09494,1.00060
1051.16619,1.00009
1049.23745,0.99991
1047.30870,0.99996
1045.37996,1.00004
1043.45121,1.00017
1041.52247,1.00034
1039.59372,1.00054
1037.66498,1.00065
1035.73623,1.00055
1033.80748,1.00044
1031.87874,1.00056
1029.94999,1.00073
1028.02125,1.00062
1026.09250,1.00026
1024.16376,0.99981
1022.23501,0.99952
1020.30627,0.99978
1018.37752,1.00038
1016.44878,1.00059
1014.52003,1.00030
1012.59129,1.00020
1010.66254,1.00062
1008.73380,1.00088
1006.80505,1.00060
1004.87631,1.00044
1002.94756,1.00064
1001.01881,1.00066
999.09007,1.00042
997.16132,1.00027
995.23258,1.00028
993.30383,1.00037
991.37509,1.00040
989.44634,1.00032
987.51760,1.00015
985.58885,0.99994
983.66011,0.99986
981.73136,1.00005
979.80262,1.00025
977.87387,1.00029
975.94513,1.00023
974.01638,1.00004
972.08763,0.99990
970.15889,1.00003
968.23014,1.00014
966.30140,0.99999
964.37265,0.99998
962.44391,1.00035
960.51516,1.00073
958.58642,1.00075
956.65767,1.00069
954.72893,1.00098
952.80018,1.00119
950.87144,1.00079
948.94269,1.00017
947.01395,0.99971
945.08520,0.99954
943.15646,0.99988
941.22771,1.00046
939.29896,1.00079
937.37022,1.00082
935.44147,1.00073
933.51273,1.00063
931.58398,1.00061
929.65524,1.00070
927.72649,1.00073
925.79775,1.00063
923.86900,1.00072
921.94026,1.00099
920.01151,1.00099
918.08277,1.00062
916.15402,1.00031
914.22528,1.00020
912.29653,1.00006
910.36779,0.99998
908.43904,1.00019
906.51029,1.00049
904.58155,1.00056
902.65280,1.00064
900.72406,1.00078
898.79531,1.00065
896.86657,1.00037
894.93782,1.00014
893.00908,0.99983
891.08033,0.99957
889.15159,0.99969
887.22284,0.99988
885.29410,0.99964
883.36535,0.99935
881.43661,0.99957
879.50786,1.00009
877.57911,1.00038
875.65037,1.00028
873.72162,0.99997
871.79288,0.99973
869.86413,0.99979
867.93539,0.99992
866.00664,0.99983
864.07790,0.99994
862.14915,1.00033
860.22041,1.00044
858.29166,1.00020
856.36292,0.99993
854.43417,0.99965
852.50543,0.99939
850.57668,0.99943
848.64794,0.99989
846.71919,1.00018
844.79044,1.00000
842.86170,1.00000
840.93295,1.00024
839.00421,1.00011
837.07546,0.99976
835.14672,0.99967
833.21797,0.99986
831.28923,1.00020
829.36048,1.00053
827.43174,1.00083
825.50299,1.00107
823.57425,1.00116
821.64550,1.00112
819.71676,1.00082
817.78801,1.00040
815.85926,1.00036
813.93052,1.00052
812.00177,1.00023
810.07303,0.99982
808.14428,1.00010
806.21554,1.00101
804.28679,1.00172
802.35805,1.00159
800.42930,1.00073
798.50056,0.99999
796.57181,0.99977
794.64307,0.99955
792.71432,0.99910
790.78558,0.99903
788.85683,0.99930
786.92809,0.99942
784.99934,0.99933
783.07059,0.99934
781.14185,0.99967
779.21310,1.00004
777.28436,1.00008
775.35561,1.00002
773.42687,0.99997
771.49812,0.99970
769.56938,0.99950
767.64063,0.99967
765.71189,1.00006
763.78314,1.00046
761.85440,1.00057
759.92565,1.00034
757.99691,1.00038
756.06816,1.00098
754.13942,1.00146
752.21067,1.00124
750.28192,1.00060
748.35318,1.00002
746.42443,0.99984
744.49569,0.99989
742.56694,0.99961
740.63820,0.99921
738.70945,0.99919
736.78071,0.99938
734.85196,0.99958
732.92322,0.99984
730.99447,1.00022
729.06573,1.00067
727.13698,1.00123
725.20824,1.00155
723.27949,1.00100
721.35074,1.00030
719.42200,1.00048
717.49325,1.00051
715.56451,0.99972
713.63576,0.99924
711.70702,0.99947
709.77827,0.99990
707.84953,1.00060
705.92078,1.00111
703.99204,1.00063
702.06329,0.99986
700.13455,0.99996
698.20580,1.00054
696.27706,1.00092
694.34831,1.00127
692.41957,1.00162
690.49082,1.00165
688.56207,1.00112
686.63333,1.00037
684.70458,1.00028
682.77584,1.00091
680.84709,1.00108
678.91835,1.00041
676.98960,0.99974
675.06086,0.99982
673.13211,1.00038
671.20337,1.00059
669.27462,1.00027
667.34588,0.99989
665.41713,0.99999
663.48839,0.99991
661.55964,0.99920
659.63090,0.99885
657.70215,0.99895
655.77340,0.99871
653.84466,0.99884
651.91591,1.00007
649.98717,1.00105
648.05842,1.00049
646.12968,0.99929
644.20093,0.99852
642.27219,0.99820
640.34344,0.99809
638.41470,0.99827
636.48595,0.99912
634.55721,0.99997
632.62846,1.00008
630.69972,1.00069
628.77097,1.00272
626.84222,1.00438
624.91348,1.00347
622.98473,1.00121
621.05599,1.00022
619.12724,1.00033
617.19850,0.99967
615.26975,0.99801
613.34101,0.99720
611.41226,0.99836
609.48352,1.00001
607.55477,1.00098
605.62603,1.00179
603.69728,1.00242
601.76854,1.00271
599.83979,1.00296
