7497.03301,0.69855
7495.10426,0.70143
7493.17552,0.70422
7491.24677,0.70620
7489.31803,0.70691
7487.38928,0.70387
7485.46054,0.69966
7483.53179,0.69753
7481.60305,0.69442
7479.67430,0.69065
7477.74556,0.69108
7475.81681,0.69372
7473.88807,0.69519
7471.95932,0.69897
7470.03057,0.70607
7468.10183,0.71225
7466.17308,0.71458
7464.24434,0.71005
7462.31559,0.69920
7460.38685,0.69391
7458.45810,0.70079
7456.52936,0.70833
7454.60061,0.70722
7452.67187,0.70242
7450.74312,0.69836
7448.81438,0.69447
7446.88563,0.69446
7444.95689,0.70173
7443.02814,0.70912
7441.09940,0.70763
7439.17065,0.70137
7437.24190,0.69923
7435.31316,0.69897
7433.38441,0.69571
7431.45567,0.69304
7429.52692,0.69554
7427.59818,0.70087
7425.66943,0.70373
7423.74069,0.69996
7421.81194,0.68977
7419.88320,0.68362
7417.95445,0.68817
7416.02571,0.69419
7414.09696,0.69436
7412.16822,0.68983
7410.23947,0.68245
7408.31073,0.67656
7406.38198,0.67700
7404.45323,0.68115
7402.52449,0.68060
7400.59574,0.67497
7398.66700,0.67110
7396.73825,0.67077
7394.80951,0.67355
7392.88076,0.67788
7390.95202,0.67824
7389.02327,0.67430
7387.09453,0.67220
7385.16578,0.67449
7383.23704,0.67878
7381.30829,0.68224
7379.37955,0.68283
7377.45080,0.67958
7375.52205,0.67398
7373.59331,0.66872
7371.66456,0.66577
7369.73582,0.66719
7367.80707,0.67185
7365.87833,0.67202
7363.94958,0.66334
7362.02084,0.65704
7360.09209,0.66245
7358.16335,0.66904
7356.23460,0.66840
7354.30586,0.66656
7352.37711,0.66636
7350.44837,0.66475
7348.51962,0.66101
7346.59088,0.65700
7344.66213,0.65592
7342.73338,0.65802
7340.80464,0.65676
7338.87589,0.64849
7336.94715,0.64049
7335.01840,0.63767
7333.08966,0.63678
7331.16091,0.63755
7329.23217,0.64182
7327.30342,0.64298
7325.37468,0.63325
7323.44593,0.61829
7321.51719,0.60953
7319.58844,0.60834
7317.65970,0.60792
7315.73095,0.60602
7313.80221,0.60718
7311.87346,0.61255
7309.94471,0.61545
7308.01597,0.61212
7306.08722,0.60650
7304.15848,0.60072
7302.22973,0.59418
7300.30099,0.58843
7298.37224,0.58577
7296.44350,0.58485
7294.51475,0.57885
7292.58601,0.56755
7290.65726,0.56032
7288.72852,0.55931
7286.79977,0.55926
7284.87103,0.55781
7282.94228,0.55556
7281.01353,0.55258
7279.08479,0.54889
7277.15604,0.54566
7275.22730,0.54188
7273.29855,0.53654
7271.36981,0.53202
7269.44106,0.52978
7267.51232,0.52722
7265.58357,0.51966
7263.65483,0.50885
7261.72608,0.50358
7259.79734,0.50375
7257.86859,0.50065
7255.93985,0.49453
7254.01110,0.48933
7252.08236,0.48385
7250.15361,0.47924
7248.22486,0.47702
7246.29612,0.47467
7244.36737,0.46928
7242.43863,0.46153
7240.50988,0.45407
7238.58114,0.44630
7236.65239,0.43855
7234.72365,0.43253
7232.79490,0.42819
7230.86616,0.42541
7228.93741,0.42138
7227.00867,0.41524
7225.07992,0.40991
7223.15118,0.40541
7221.22243,0.40168
7219.29369,0.39787
7217.36494,0.39217
7215.43619,0.38765
7213.50745,0.38689
7211.57870,0.38634
7209.64996,0.38146
7207.72121,0.37362
7205.79247,0.36593
7203.86372,0.35748
7201.93498,0.34858
7200.00623,0.34120
7198.07749,0.33625
7196.14874,0.33300
7194.22000,0.32815
7192.29125,0.31932
7190.36251,0.30846
7188.43376,0.30114
7186.50501,0.29888
7184.57627,0.29584
7182.64752,0.28773
7180.71878,0.27692
7178.79003,0.27057
7176.86129,0.27029
7174.93254,0.26937
7173.00380,0.26642
7171.07505,0.26640
7169.14631,0.26939
7167.21756,0.27343
7165.28882,0.28150
7163.36007,0.29419
7161.43133,0.30624
7159.50258,0.31655
7157.57384,0.32791
7155.64509,0.33819
7153.71634,0.34372
7151.78760,0.34597
7149.85885,0.34809
7147.93011,0.35273
7146.00136,0.36012
7144.07262,0.36440
7142.14387,0.36312
7140.21513,0.36256
7138.28638,0.36484
7136.35764,0.36449
7134.42889,0.36041
7132.50015,0.35955
7130.57140,0.36506
7128.64266,0.37001
7126.71391,0.36878
7124.78516,0.36538
7122.85642,0.36305
7120.92767,0.35967
7118.99893,0.35419
7117.07018,0.34917
7115.14144,0.34909
7113.21269,0.35253
7111.28395,0.35222
7109.35520,0.34747
7107.42646,0.34452
7105.49771,0.34567
7103.56897,0.34697
7101.64022,0.34546
7099.71148,0.34358
7097.78273,0.34387
7095.85399,0.34273
7093.92524,0.33694
7091.99649,0.33056
7090.06775,0.32761
7088.13900,0.32630
7086.21026,0.32332
7084.28151,0.32048
7082.35277,0.32065
7080.42402,0.32007
7078.49528,0.31605
7076.56653,0.31094
7074.63779,0.30488
7072.70904,0.29857
7070.78030,0.29566
7068.85155,0.29556
7066.92281,0.29425
7064.99406,0.29086
7063.06532,0.28803
7061.13657,0.28807
7059.20782,0.29051
7057.27908,0.29383
7055.35033,0.29611
7053.42159,0.29720
7051.49284,0.29977
7049.56410,0.30328
7047.63535,0.30621
7045.70661,0.30803
7043.77786,0.30710
7041.84912,0.30521
7039.92037,0.30585
7037.99163,0.30838
7036.06288,0.30976
7034.13414,0.30807
7032.20539,0.30386
7030.27664,0.30111
7028.34790,0.30263
7026.41915,0.30417
7024.49041,0.30273
7022.56166,0.30149
7020.63292,0.30248
7018.70417,0.30554
7016.77543,0.30893
7014.84668,0.30910
7012.91794,0.30710
7010.98919,0.30798
7009.06045,0.31197
7007.13170,0.31509
7005.20296,0.31618
7003.27421,0.31639
7001.34547,0.31683
6999.41672,0.31908
6997.48797,0.32219
6995.55923,0.32215
6993.63048,0.31961
6991.70174,0.31798
6989.77299,0.31751
6987.84425,0.31776
6985.91550,0.31808
6983.98676,0.31924
6982.05801,0.32202
6980.12927,0.32319
6978.20052,0.32182
6976.27178,0.32104
6974.34303,0.32204
6972.41429,0.32248
6970.48554,0.32079
6968.55680,0.31951
6966.62805,0.32040
6964.69930,0.32105
6962.77056,0.31950
6960.84181,0.31783
6958.91307,0.31772
6956.98432,0.31784
6955.05558,0.31915
6953.12683,0.32279
6951.19809,0.32526
6949.26934,0.32466
6947.34060,0.32418
6945.41185,0.32594
6943.48311,0.32852
6941.55436,0.33064
6939.62562,0.33217
6937.69687,0.33285
6935.76812,0.33368
6933.83938,0.33711
6931.91063,0.34206
6929.98189,0.34430
6928.05314,0.34403
6926.12440,0.34483
6924.19565,0.34731
6922.26691,0.34897
6920.33816,0.34896
6918.40942,0.35050
6916.48067,0.35550
6914.55193,0.36102
6912.62318,0.36413
6910.69444,0.36510
6908.76569,0.36455
6906.83695,0.36219
6904.90820,0.35898
6902.97945,0.35673
6901.05071,0.35692
6899.12196,0.35869
6897.19322,0.35914
6895.26447,0.35963
6893.33573,0.36321
6891.40698,0.36772
6889.47824,0.37087
6887.54949,0.37346
6885.62075,0.37560
6883.69200,0.37654
6881.76326,0.37687
6879.83451,0.37791
6877.90577,0.37930
6875.97702,0.38044
6874.04828,0.38126
6872.11953,0.38152
6870.19078,0.38293
6868.26204,0.38688
6866.33329,0.39047
6864.40455,0.39100
6862.47580,0.39012
6860.54706,0.38927
6858.61831,0.38906
6856.68957,0.39070
6854.76082,0.39188
6852.83208,0.39059
6850.90333,0.39011
6848.97459,0.39164
6847.04584,0.39254
6845.11710,0.39216
6843.18835,0.39241
6841.25960,0.39502
6839.33086,0.39847
6837.40211,0.39927
6835.47337,0.39812
6833.54462,0.39937
6831.61588,0.40338
6829.68713,0.40578
6827.75839,0.40493
6825.82964,0.40384
6823.90090,0.40544
6821.97215,0.40965
6820.04341,0.41536
6818.11466,0.42187
6816.18592,0.42600
6814.25717,0.42556
6812.32843,0.42502
6810.39968,0.42802
6808.47093,0.43197
6806.54219,0.43337
6804.61344,0.43220
6802.68470,0.43247
6800.75595,0.43530
6798.82721,0.43716
6796.89846,0.43811
6794.96972,0.44018
6793.04097,0.44234
6791.11223,0.44407
6789.18348,0.44606
6787.25474,0.44839
6785.32599,0.45165
6783.39725,0.45574
6781.46850,0.45906
6779.53975,0.46082
6777.61101,0.46171
6775.68226,0.46286
6773.75352,0.46416
6771.82477,0.46564
6769.89603,0.46750
6767.96728,0.46826
6766.03854,0.46923
6764.10979,0.47217
6762.18105,0.47427
6760.25230,0.47437
6758.32356,0.47424
6756.39481,0.47472
6754.46607,0.47639
6752.53732,0.47964
6750.60858,0.48187
6748.67983,0.48026
6746.75108,0.47715
6744.82234,0.47641
6742.89359,0.47904
6740.96485,0.48303
6739.03610,0.48598
6737.10736,0.48796
6735.17861,0.48863
6733.24987,0.48749
6731.32112,0.48565
6729.39238,0.48506
6727.46363,0.48701
6725.53489,0.48984
6723.60614,0.49182
6721.67740,0.49437
6719.74865,0.49803
6717.81991,0.49905
6715.89116,0.49608
6713.96241,0.49370
6712.03367,0.49406
6710.10492,0.49591
6708.17618,0.49778
6706.24743,0.49776
6704.31869,0.49701
6702.38994,0.49792
6700.46120,0.49948
6698.53245,0.50028
6696.60371,0.50151
6694.67496,0.50424
6692.74622,0.50652
6690.81747,0.50621
6688.88873,0.50585
6686.95998,0.50742
6685.03123,0.50834
6683.10249,0.50898
6681.17374,0.51093
6679.24500,0.51246
6677.31625,0.51284
6675.38751,0.51380
6673.45876,0.51607
6671.53002,0.51738
6669.60127,0.51618
6667.67253,0.51339
6665.74378,0.51117
6663.81504,0.51249
6661.88629,0.51679
6659.95755,0.52049
6658.02880,0.52199
6656.10006,0.52211
6654.17131,0.52255
6652.24256,0.52374
6650.31382,0.52351
6648.38507,0.52185
6646.45633,0.52241
6644.52758,0.52478
6642.59884,0.52491
6640.67009,0.52310
6638.74135,0.52361
6636.81260,0.52718
6634.88386,0.52981
6632.95511,0.52929
6631.02637,0.52600
6629.09762,0.52209
6627.16888,0.52098
6625.24013,0.52252
6623.31139,0.52376
6621.38264,0.52328
6619.45389,0.52171
6617.52515,0.52047
6615.59640,0.52115
6613.66766,0.52296
6611.73891,0.52316
6609.81017,0.52363
6607.88142,0.52714
6605.95268,0.53048
6604.02393,0.53067
6602.09519,0.52904
6600.16644,0.52662
6598.23770,0.52380
6596.30895,0.52344
6594.38021,0.52560
6592.45146,0.52579
6590.52271,0.52362
6588.59397,0.52232
6586.66522,0.52260
6584.73648,0.52406
6582.80773,0.52550
6580.87899,0.52452
6578.95024,0.52162
6577.02150,0.51991
6575.09275,0.51993
6573.16401,0.52005
6571.23526,0.51974
6569.30652,0.51904
6567.37777,0.51758
6565.44903,0.51569
6563.52028,0.51533
6561.59154,0.51689
6559.66279,0.51759
6557.73404,0.51668
6555.80530,0.51628
6553.87655,0.51671
6551.94781,0.51694
6550.01906,0.51636
6548.09032,0.51472
6546.16157,0.51237
6544.23283,0.51160
6542.30408,0.51244
6540.37534,0.51062
6538.44659,0.50676
6536.51785,0.50521
6534.58910,0.50553
6532.66036,0.50670
6530.73161,0.50816
6528.80287,0.50793
6526.87412,0.50637
6524.94537,0.50486
6523.01663,0.50452
6521.08788,0.50555
6519.15914,0.50531
6517.23039,0.50186
6515.30165,0.49696
6513.37290,0.49424
6511.44416,0.49493
6509.51541,0.49509
6507.58667,0.49137
6505.65792,0.48631
6503.72918,0.48348
6501.80043,0.48359
6499.87169,0.48523
6497.94294,0.48563
6496.01419,0.48386
6494.08545,0.48086
6492.15670,0.47704
6490.22796,0.47361
6488.29921,0.47153
6486.37047,0.47048
6484.44172,0.46997
6482.51298,0.46939
6480.58423,0.47014
6478.65549,0.47379
6476.72674,0.47890
6474.79800,0.48436
6472.86925,0.49116
6470.94051,0.49882
6469.01176,0.50539
6467.08302,0.51049
6465.15427,0.51522
6463.22552,0.51955
6461.29678,0.52197
6459.36803,0.52350
6457.43929,0.52615
6455.51054,0.52828
6453.58180,0.52946
6451.65305,0.53201
6449.72431,0.53495
6447.79556,0.53567
6445.86682,0.53613
6443.93807,0.53917
6442.00933,0.54218
6440.08058,0.54312
6438.15184,0.54404
6436.22309,0.54517
6434.29434,0.54534
6432.36560,0.54457
6430.43685,0.54371
6428.50811,0.54383
6426.57936,0.54500
6424.65062,0.54607
6422.72187,0.54646
6420.79313,0.54746
6418.86438,0.54991
6416.93564,0.55230
6415.00689,0.55323
6413.07815,0.55375
6411.14940,0.55562
6409.22066,0.55769
6407.29191,0.55778
6405.36317,0.55766
6403.43442,0.55918
6401.50567,0.56112
6399.57693,0.56349
6397.64818,0.56589
6395.71944,0.56653
6393.79069,0.56586
6391.86195,0.56447
6389.93320,0.56246
6388.00446,0.56135
6386.07571,0.56152
6384.14697,0.56141
6382.21822,0.56082
6380.28948,0.56047
6378.36073,0.55996
6376.43199,0.55960
6374.50324,0.56053
6372.57450,0.56328
6370.64575,0.56689
6368.71700,0.56905
6366.78826,0.56913
6364.85951,0.56853
6362.93077,0.56852
6361.00202,0.56978
6359.07328,0.57249
6357.14453,0.57486
6355.21579,0.57450
6353.28704,0.57341
6351.35830,0.57432
6349.42955,0.57547
6347.50081,0.57549
6345.57206,0.57517
6343.64332,0.57438
6341.71457,0.57361
6339.78582,0.57447
6337.85708,0.57609
6335.92833,0.57625
6333.99959,0.57601
6332.07084,0.57790
6330.14210,0.58136
6328.21335,0.58364
6326.28461,0.58389
6324.35586,0.58295
6322.42712,0.58111
6320.49837,0.57932
6318.56963,0.57859
6316.64088,0.57817
6314.71214,0.57794
6312.78339,0.57930
6310.85465,0.58199
6308.92590,0.58364
6306.99715,0.58306
6305.06841,0.58062
6303.13966,0.57776
6301.21092,0.57680
6299.28217,0.57801
6297.35343,0.57888
6295.42468,0.57803
6293.49594,0.57741
6291.56719,0.57834
6289.63845,0.57971
6287.70970,0.58119
6285.78096,0.58286
6283.85221,0.58389
6281.92347,0.58307
6279.99472,0.58055
6278.06598,0.57837
6276.13723,0.57829
6274.20848,0.58111
6272.27974,0.58371
6270.35099,0.58249
6268.42225,0.58039
6266.49350,0.58030
6264.56476,0.58050
6262.63601,0.58069
6260.70727,0.58136
6258.77852,0.57986
6256.84978,0.57630
6254.92103,0.57579
6252.99229,0.57883
6251.06354,0.58099
6249.13480,0.58149
6247.20605,0.58201
6245.27730,0.58231
6243.34856,0.58211
6241.41981,0.58230
6239.49107,0.58273
6237.56232,0.58245
6235.63358,0.58132
6233.70483,0.57995
6231.77609,0.57943
6229.84734,0.57991
6227.91860,0.58000
6225.98985,0.57936
6224.06111,0.57896
6222.13236,0.57821
6220.20362,0.57683
6218.27487,0.57655
6216.34613,0.57770
6214.41738,0.57868
6212.48863,0.57840
6210.55989,0.57728
6208.63114,0.57673
6206.70240,0.57718
6204.77365,0.57785
6202.84491,0.57880
6200.91616,0.57967
6198.98742,0.57901
6197.05867,0.57771
6195.12993,0.57660
6193.20118,0.57488
6191.27244,0.57374
6189.34369,0.57417
6187.41495,0.57490
6185.48620,0.57520
6183.55746,0.57510
6181.62871,0.57417
6179.69996,0.57252
6177.77122,0.57161
6175.84247,0.57204
6173.91373,0.57253
6171.98498,0.57181
6170.05624,0.57029
6168.12749,0.56953
6166.19875,0.57005
6164.27000,0.57058
6162.34126,0.57048
6160.41251,0.57006
6158.48377,0.56912
6156.55502,0.56771
6154.62628,0.56578
6152.69753,0.56446
6150.76878,0.56540
6148.84004,0.56662
6146.91129,0.56599
6144.98255,0.56500
6143.05380,0.56505
6141.12506,0.56546
6139.19631,0.56509
6137.26757,0.56412
6135.33882,0.56349
6133.41008,0.56292
6131.48133,0.56170
6129.55259,0.56000
6127.62384,0.55881
6125.69510,0.55948
6123.76635,0.56106
6121.83761,0.56089
6119.90886,0.55898
6117.98011,0.55716
6116.05137,0.55600
6114.12262,0.55530
6112.19388,0.55499
6110.26513,0.55447
6108.33639,0.55367
6106.40764,0.55302
6104.47890,0.55196
6102.55015,0.55085
6100.62141,0.55056
6098.69266,0.54986
6096.76392,0.54785
6094.83517,0.54600
6092.90643,0.54492
6090.97768,0.54345
6089.04893,0.54169
6087.12019,0.53997
6085.19144,0.53814
6083.26270,0.53769
6081.33395,0.53848
6079.40521,0.53815
6077.47646,0.53663
6075.54772,0.53493
6073.61897,0.53291
6071.69023,0.53110
6069.76148,0.53013
6067.83274,0.52985
6065.90399,0.53028
6063.97525,0.53059
6062.04650,0.52960
6060.11776,0.52811
6058.18901,0.52746
6056.26026,0.52684
6054.33152,0.52505
6052.40277,0.52296
6050.47403,0.52144
6048.54528,0.52040
6046.61654,0.52019
6044.68779,0.52021
6042.75905,0.51849
6040.83030,0.51488
6038.90156,0.51178
6036.97281,0.50994
6035.04407,0.50740
6033.11532,0.50457
6031.18658,0.50307
6029.25783,0.50173
6027.32909,0.49961
6025.40034,0.49716
6023.47159,0.49497
6021.54285,0.49370
6019.61410,0.49250
6017.68536,0.49035
6015.75661,0.48793
6013.82787,0.48578
6011.89912,0.48299
6009.97038,0.47937
6008.04163,0.47617
6006.11289,0.47343
6004.18414,0.47028
6002.25540,0.46755
6000.32665,0.46607
5998.39791,0.46465
5996.46916,0.46171
5994.54041,0.45738
5992.61167,0.45302
5990.68292,0.44953
5988.75418,0.44631
5986.82543,0.44251
5984.89669,0.43828
5982.96794,0.43361
5981.03920,0.42859
5979.11045,0.42497
5977.18171,0.42338
5975.25296,0.42121
5973.32422,0.41671
5971.39547,0.41117
5969.46673,0.40609
5967.53798,0.40200
5965.60924,0.39880
5963.68049,0.39520
5961.75174,0.39045
5959.82300,0.38556
5957.89425,0.38131
5955.96551,0.37748
5954.03676,0.37369
5952.10802,0.37043
5950.17927,0.36771
5948.25053,0.36419
5946.32178,0.36000
5944.39304,0.35648
5942.46429,0.35396
5940.53555,0.35182
5938.60680,0.34876
5936.67806,0.34417
5934.74931,0.33936
5932.82057,0.33593
5930.89182,0.33359
5928.96307,0.33090
5927.03433,0.32762
5925.10558,0.32427
5923.17684,0.32037
5921.24809,0.31546
5919.31935,0.31073
5917.39060,0.30742
5915.46186,0.30460
5913.53311,0.30133
5911.60437,0.29880
5909.67562,0.29718
5907.74688,0.29444
5905.81813,0.29029
5903.88939,0.28635
5901.96064,0.28271
5900.03189,0.27898
5898.10315,0.27606
5896.17440,0.27328
5894.24566,0.26890
5892.31691,0.26399
5890.38817,0.26032
5888.45942,0.25702
5886.53068,0.25243
5884.60193,0.24596
5882.67319,0.23845
5880.74444,0.23141
5878.81570,0.22538
5876.88695,0.21992
5874.95821,0.21452
5873.02946,0.20875
5871.10072,0.20287
5869.17197,0.19712
5867.24322,0.19106
5865.31448,0.18453
5863.38573,0.17795
5861.45699,0.17157
5859.52824,0.16566
5857.59950,0.15998
5855.67075,0.15341
5853.74201,0.14643
5851.81326,0.14078
5849.88452,0.13617
5847.95577,0.13180
5846.02703,0.12809
5844.09828,0.12506
5842.16954,0.12240
5840.24079,0.12022
5838.31205,0.11873
5836.38330,0.11779
5834.45455,0.11681
5832.52581,0.11539
5830.59706,0.11305
5828.66832,0.11010
5826.73957,0.10801
5824.81083,0.10697
5822.88208,0.10560
5820.95334,0.10335
5819.02459,0.10118
5817.09585,0.09996
5815.16710,0.09912
5813.23836,0.09794
5811.30961,0.09679
5809.38087,0.09631
5807.45212,0.09591
5805.52337,0.09428
5803.59463,0.09137
5801.66588,0.08871
5799.73714,0.08716
5797.80839,0.08573
5795.87965,0.08414
5793.95090,0.08306
5792.02216,0.08214
5790.09341,0.08135
5788.16467,0.08050
5786.23592,0.07898
5784.30718,0.07747
5782.37843,0.07657
5780.44969,0.07589
5778.52094,0.07506
5776.59220,0.07390
5774.66345,0.07270
5772.73470,0.07241
5770.80596,0.07341
5768.87721,0.07508
5766.94847,0.07674
5765.01972,0.07861
5763.09098,0.08134
5761.16223,0.08391
5759.23349,0.08528
5757.30474,0.08701
5755.37600,0.09016
5753.44725,0.09344
5751.51851,0.09565
5749.58976,0.09783
5747.66102,0.10171
5745.73227,0.10562
5743.80352,0.10696
5741.87478,0.10697
5739.94603,0.10765
5738.01729,0.10867
5736.08854,0.10976
5734.15980,0.11109
5732.23105,0.11242
5730.30231,0.11410
5728.37356,0.11692
5726.44482,0.12075
5724.51607,0.12437
5722.58733,0.12725
5720.65858,0.12980
5718.72984,0.13181
5716.80109,0.13312
5714.87235,0.13473
5712.94360,0.13664
5711.01485,0.13697
5709.08611,0.13475
5707.15736,0.13105
5705.22862,0.12779
5703.29987,0.12571
5701.37113,0.12387
5699.44238,0.12203
5697.51364,0.12058
5695.58489,0.11967
5693.65615,0.11883
5691.72740,0.11658
5689.79866,0.11354
5687.86991,0.11166
5685.94117,0.11003
5684.01242,0.10752
5682.08368,0.10524
5680.15493,0.10389
5678.22618,0.10276
5676.29744,0.10118
5674.36869,0.09893
5672.43995,0.09637
5670.51120,0.09391
5668.58246,0.09124
5666.65371,0.08931
5664.72497,0.08964
5662.79622,0.09140
5660.86748,0.09319
5658.93873,0.09529
5657.00999,0.09804
5655.08124,0.10131
5653.15250,0.10514
5651.22375,0.10906
5649.29500,0.11251
5647.36626,0.11566
5645.43751,0.11833
5643.50877,0.12053
5641.58002,0.12291
5639.65128,0.12534
5637.72253,0.12691
5635.79379,0.12765
5633.86504,0.12865
5631.93630,0.13006
5630.00755,0.13135
5628.07881,0.13221
5626.15006,0.13232
5624.22132,0.13261
5622.29257,0.13413
5620.36383,0.13583
5618.43508,0.13721
5616.50633,0.13877
5614.57759,0.13999
5612.64884,0.14075
5610.72010,0.14175
5608.79135,0.14329
5606.86261,0.14529
5604.93386,0.14702
5603.00512,0.14809
5601.07637,0.14884
5599.14763,0.14915
5597.21888,0.14881
5595.29014,0.14800
5593.36139,0.14750
5591.43265,0.14786
5589.50390,0.14838
5587.57516,0.14849
5585.64641,0.14869
5583.71766,0.14894
5581.78892,0.14810
5579.86017,0.14571
5577.93143,0.14341
5576.00268,0.14249
5574.07394,0.14191
5572.14519,0.14053
5570.21645,0.13881
5568.28770,0.13772
5566.35896,0.13722
5564.43021,0.13666
5562.50147,0.13620
5560.57272,0.13625
5558.64398,0.13644
5556.71523,0.13613
5554.78648,0.13562
5552.85774,0.13548
5550.92899,0.13503
5549.00025,0.13388
5547.07150,0.13343
5545.14276,0.13395
5543.21401,0.13429
5541.28527,0.13462
5539.35652,0.13527
5537.42778,0.13548
5535.49903,0.13505
5533.57029,0.13529
5531.64154,0.13691
5529.71280,0.13820
5527.78405,0.13809
5525.85531,0.13780
5523.92656,0.13773
5521.99781,0.13715
5520.06907,0.13641
5518.14032,0.13621
5516.21158,0.13615
5514.28283,0.13560
5512.35409,0.13498
5510.42534,0.13492
5508.49660,0.13502
5506.56785,0.13493
5504.63911,0.13494
5502.71036,0.13473
5500.78162,0.13426
5498.85287,0.13407
5496.92413,0.13390
5494.99538,0.13337
5493.06664,0.13269
5491.13789,0.13256
5489.20914,0.13313
5487.28040,0.13348
5485.35165,0.13357
5483.42291,0.13418
5481.49416,0.13541
5479.56542,0.13672
5477.63667,0.13750
5475.70793,0.13797
5473.77918,0.13887
5471.85044,0.13978
5469.92169,0.13997
5467.99295,0.13990
5466.06420,0.14026
5464.13546,0.14067
5462.20671,0.14085
5460.27796,0.14140
5458.34922,0.14222
5456.42047,0.14220
5454.49173,0.14149
5452.56298,0.14119
5450.63424,0.14144
5448.70549,0.14178
5446.77675,0.14216
5444.84800,0.14294
5442.91926,0.14394
5440.99051,0.14433
5439.06177,0.14434
5437.13302,0.14443
5435.20428,0.14398
5433.27553,0.14331
5431.34679,0.14365
5429.41804,0.14484
5427.48929,0.14541
5425.56055,0.14451
5423.63180,0.14358
5421.70306,0.14408
5419.77431,0.14536
5417.84557,0.14670
5415.91682,0.14789
5413.98808,0.14913
5412.05933,0.15092
5410.13059,0.15267
5408.20184,0.15429
5406.27310,0.15635
5404.34435,0.15876
5402.41561,0.16103
5400.48686,0.16238
5398.55811,0.16287
5396.62937,0.16330
5394.70062,0.16360
5392.77188,0.16366
5390.84313,0.16418
5388.91439,0.16560
5386.98564,0.16739
5385.05690,0.16849
5383.12815,0.16850
5381.19941,0.16836
5379.27066,0.16878
5377.34192,0.16911
5375.41317,0.16890
5373.48443,0.16889
5371.55568,0.16985
5369.62694,0.17141
5367.69819,0.17255
5365.76944,0.17318
5363.84070,0.17378
5361.91195,0.17436
5359.98321,0.17509
5358.05446,0.17649
5356.12572,0.17801
5354.19697,0.17862
5352.26823,0.17872
5350.33948,0.17909
5348.41074,0.18007
5346.48199,0.18206
5344.55325,0.18440
5342.62450,0.18562
5340.69576,0.18601
5338.76701,0.18677
5336.83827,0.18775
5334.90952,0.18821
5332.98077,0.18835
5331.05203,0.18877
5329.12328,0.18959
5327.19454,0.19038
5325.26579,0.19083
5323.33705,0.19093
5321.40830,0.19017
5319.47956,0.18792
5317.55081,0.18507
5315.62207,0.18356
5313.69332,0.18343
5311.76458,0.18286
5309.83583,0.18176
5307.90709,0.18133
5305.97834,0.18164
5304.04959,0.18219
5302.12085,0.18266
5300.19210,0.18294
5298.26336,0.18328
5296.33461,0.18413
5294.40587,0.18537
5292.47712,0.18642
5290.54838,0.18698
5288.61963,0.18683
5286.69089,0.18603
5284.76214,0.18516
5282.83340,0.18420
5280.90465,0.18334
5278.97591,0.18335
5277.04716,0.18383
5275.11842,0.18427
5273.18967,0.18499
5271.26092,0.18538
5269.33218,0.18488
5267.40343,0.18404
5265.47469,0.18329
5263.54594,0.18259
5261.61720,0.18197
5259.68845,0.18186
5257.75971,0.18246
5255.83096,0.18304
5253.90222,0.18286
5251.97347,0.18227
5250.04473,0.18200
5248.11598,0.18193
5246.18724,0.18150
5244.25849,0.18083
5242.32975,0.18017
5240.40100,0.17915
5238.47225,0.17780
5236.54351,0.17690
5234.61476,0.17686
5232.68602,0.17752
5230.75727,0.17824
5228.82853,0.17826
5226.89978,0.17765
5224.97104,0.17694
5223.04229,0.17630
5221.11355,0.17585
5219.18480,0.17581
5217.25606,0.17546
5215.32731,0.17453
5213.39857,0.17385
5211.46982,0.17357
5209.54107,0.17362
5207.61233,0.17457
5205.68358,0.17601
5203.75484,0.17636
5201.82609,0.17555
5199.89735,0.17499
5197.96860,0.17502
5196.03986,0.17493
5194.11111,0.17446
5192.18237,0.17399
5190.25362,0.17409
5188.32488,0.17463
5186.39613,0.17460
5184.46739,0.17366
5182.53864,0.17287
5180.60990,0.17274
5178.68115,0.17272
5176.75240,0.17310
5174.82366,0.17378
5172.89491,0.17402
5170.96617,0.17409
5169.03742,0.17410
5167.10868,0.17407
5165.17993,0.17459
5163.25119,0.17518
5161.32244,0.17489
5159.39370,0.17418
5157.46495,0.17399
5155.53621,0.17419
5153.60746,0.17419
5151.67872,0.17426
5149.74997,0.17466
5147.82123,0.17521
5145.89248,0.17612
5143.96373,0.17696
5142.03499,0.17720
5140.10624,0.17774
5138.17750,0.17862
5136.24875,0.17862
5134.32001,0.17810
5132.39126,0.17834
5130.46252,0.17901
5128.53377,0.17895
5126.60503,0.17825
5124.67628,0.17804
5122.74754,0.17830
5120.81879,0.17774
5118.89005,0.17651
5116.96130,0.17608
5115.03255,0.17646
5113.10381,0.17679
5111.17506,0.17685
5109.24632,0.17663
5107.31757,0.17639
5105.38883,0.17645
5103.46008,0.17627
5101.53134,0.17578
5099.60259,0.17565
5097.67385,0.17576
5095.74510,0.17574
5093.81636,0.17575
5091.88761,0.17564
5089.95887,0.17581
5088.03012,0.17671
5086.10138,0.17729
5084.17263,0.17694
5082.24388,0.17660
5080.31514,0.17674
5078.38639,0.17709
5076.45765,0.17730
5074.52890,0.17739
5072.60016,0.17781
5070.67141,0.17806
5068.74267,0.17781
5066.81392,0.17772
5064.88518,0.17778
5062.95643,0.17786
5061.02769,0.17839
5059.09894,0.17927
5057.17020,0.18025
5055.24145,0.18098
5053.31270,0.18120
5051.38396,0.18141
5049.45521,0.18200
5047.52647,0.18241
5045.59772,0.18207
5043.66898,0.18157
5041.74023,0.18158
5039.81149,0.18170
5037.88274,0.18177
5035.95400,0.18210
5034.02525,0.18203
5032.09651,0.18117
5030.16776,0.18036
5028.23902,0.18000
5026.31027,0.17952
5024.38153,0.17874
5022.45278,0.17823
5020.52403,0.17810
5018.59529,0.17783
5016.66654,0.17742
5014.73780,0.17729
5012.80905,0.17725
5010.88031,0.17700
5008.95156,0.17668
5007.02282,0.17630
5005.09407,0.17578
5003.16533,0.17505
5001.23658,0.17364
4999.30784,0.17180
4997.37909,0.17068
4995.45035,0.17029
4993.52160,0.16979
4991.59286,0.16894
4989.66411,0.16792
4987.73536,0.16660
4985.80662,0.16483
4983.87787,0.16338
4981.94913,0.16324
4980.02038,0.16359
4978.09164,0.16278
4976.16289,0.16126
4974.23415,0.16040
4972.30540,0.16004
4970.37666,0.15899
4968.44791,0.15718
4966.51917,0.15584
4964.59042,0.15568
4962.66168,0.15633
4960.73293,0.15755
4958.80418,0.15941
4956.87544,0.16158
4954.94669,0.16350
4953.01795,0.16516
4951.08920,0.16705
4949.16046,0.16909
4947.23171,0.17051
4945.30297,0.17111
4943.37422,0.17133
4941.44548,0.17145
4939.51673,0.17137
4937.58799,0.17121
4935.65924,0.17128
4933.73050,0.17150
4931.80175,0.17172
4929.87301,0.17204
4927.94426,0.17230
4926.01551,0.17203
4924.08677,0.17129
4922.15802,0.17100
4920.22928,0.17155
4918.30053,0.17212
4916.37179,0.17225
4914.44304,0.17205
4912.51430,0.17193
4910.58555,0.17214
4908.65681,0.17188
4906.72806,0.17079
4904.79932,0.16954
4902.87057,0.16879
4900.94183,0.16879
4899.01308,0.16909
4897.08434,0.16917
4895.15559,0.16895
4893.22684,0.16847
4891.29810,0.16779
4889.36935,0.16703
4887.44061,0.16626
4885.51186,0.16555
4883.58312,0.16488
4881.65437,0.16430
4879.72563,0.16398
4877.79688,0.16395
4875.86814,0.16406
4873.93939,0.16398
4872.01065,0.16356
4870.08190,0.16321
4868.15316,0.16306
4866.22441,0.16288
4864.29566,0.16273
4862.36692,0.16265
4860.43817,0.16282
4858.50943,0.16340
4856.58068,0.16432
4854.65194,0.16567
4852.72319,0.16711
4850.79445,0.16805
4848.86570,0.16895
4846.93696,0.17038
4845.00821,0.17190
4843.07947,0.17281
4841.15072,0.17309
4839.22198,0.17340
4837.29323,0.17411
4835.36449,0.17477
4833.43574,0.17512
4831.50699,0.17541
4829.57825,0.17577
4827.64950,0.17607
4825.72076,0.17633
4823.79201,0.17657
4821.86327,0.17689
4819.93452,0.17744
4818.00578,0.17847
4816.07703,0.17985
4814.14829,0.18094
4812.21954,0.18159
4810.29080,0.18246
4808.36205,0.18375
4806.43331,0.18496
4804.50456,0.18565
4802.57582,0.18595
4800.64707,0.18627
4798.71832,0.18660
4796.78958,0.18686
4794.86083,0.18720
4792.93209,0.18745
4791.00334,0.18770
4789.07460,0.18820
4787.14585,0.18840
4785.21711,0.18806
4783.28836,0.18781
4781.35962,0.18808
4779.43087,0.18866
4777.50213,0.18907
4775.57338,0.18939
4773.64464,0.19027
4771.71589,0.19173
4769.78714,0.19301
4767.85840,0.19378
4765.92965,0.19452
4764.00091,0.19571
4762.07216,0.19717
4760.14342,0.19818
4758.21467,0.19868
4756.28593,0.19936
4754.35718,0.20004
4752.42844,0.20027
4750.49969,0.20040
4748.57095,0.20047
4746.64220,0.20018
4744.71346,0.19998
4742.78471,0.20027
4740.85597,0.20084
4738.92722,0.20150
4736.99847,0.20199
4735.06973,0.20243
4733.14098,0.20312
4731.21224,0.20392
4729.28349,0.20473
4727.35475,0.20549
4725.42600,0.20609
4723.49726,0.20667
4721.56851,0.20760
4719.63977,0.20868
4717.71102,0.20941
4715.78228,0.21009
4713.85353,0.21112
4711.92479,0.21186
4709.99604,0.21192
4708.06729,0.21196
4706.13855,0.21219
4704.20980,0.21222
4702.28106,0.21204
4700.35231,0.21195
4698.42357,0.21184
4696.49482,0.21162
4694.56608,0.21168
4692.63733,0.21210
4690.70859,0.21240
4688.77984,0.21195
4686.85110,0.21062
4684.92235,0.20936
4682.99361,0.20888
4681.06486,0.20849
4679.13612,0.20731
4677.20737,0.20558
4675.27862,0.20364
4673.34988,0.20150
4671.42113,0.19954
4669.49239,0.19824
4667.56364,0.19771
4665.63490,0.19796
4663.70615,0.19893
4661.77741,0.20015
4659.84866,0.20150
4657.91992,0.20344
4655.99117,0.20535
4654.06243,0.20629
4652.13368,0.20704
4650.20494,0.20840
4648.27619,0.20976
4646.34745,0.21043
4644.41870,0.21065
4642.48995,0.21053
4640.56121,0.20999
4638.63246,0.20958
4636.70372,0.20950
4634.77497,0.20941
4632.84623,0.20933
4630.91748,0.20953
4628.98874,0.20988
4627.05999,0.20965
4625.13125,0.20867
4623.20250,0.20752
4621.27376,0.20661
4619.34501,0.20623
4617.41627,0.20640
4615.48752,0.20652
4613.55877,0.20645
4611.63003,0.20651
4609.70128,0.20647
4607.77254,0.20595
4605.84379,0.20542
4603.91505,0.20549
4601.98630,0.20574
4600.05756,0.20532
4598.12881,0.20422
4596.20007,0.20325
4594.27132,0.20291
4592.34258,0.20290
4590.41383,0.20249
4588.48509,0.20147
4586.55634,0.20040
4584.62760,0.19987
4582.69885,0.19993
4580.77010,0.20007
4578.84136,0.19970
4576.91261,0.19873
4574.98387,0.19765
4573.05512,0.19676
4571.12638,0.19597
4569.19763,0.19526
4567.26889,0.19455
4565.34014,0.19366
4563.41140,0.19264
4561.48265,0.19104
4559.55391,0.18869
4557.62516,0.18655
4555.69642,0.18526
4553.76767,0.18439
4551.83893,0.18362
4549.91018,0.18284
4547.98143,0.18162
4546.05269,0.17974
4544.12394,0.17772
4542.19520,0.17623
4540.26645,0.17531
4538.33771,0.17440
4536.40896,0.17337
4534.48022,0.17250
4532.55147,0.17160
4530.62273,0.17039
4528.69398,0.16889
4526.76524,0.16730
4524.83649,0.16598
4522.90775,0.16503
4520.97900,0.16409
4519.05025,0.16271
4517.12151,0.16113
4515.19276,0.15965
4513.26402,0.15812
4511.33527,0.15661
4509.40653,0.15540
4507.47778,0.15421
4505.54904,0.15246
4503.62029,0.15048
4501.69155,0.14915
4499.76280,0.14823
4497.83406,0.14674
4495.90531,0.14492
4493.97657,0.14365
4492.04782,0.14270
4490.11908,0.14142
4488.19033,0.13991
4486.26158,0.13853
4484.33284,0.13720
4482.40409,0.13561
4480.47535,0.13395
4478.54660,0.13281
4476.61786,0.13220
4474.68911,0.13149
4472.76037,0.13020
4470.83162,0.12857
4468.90288,0.12710
4466.97413,0.12550
4465.04539,0.12349
4463.11664,0.12152
4461.18790,0.11980
4459.25915,0.11810
4457.33041,0.11659
4455.40166,0.11543
4453.47291,0.11420
4451.54417,0.11264
4449.61542,0.11092
4447.68668,0.10930
4445.75793,0.10789
4443.82919,0.10656
4441.90044,0.10498
4439.97170,0.10320
4438.04295,0.10190
4436.11421,0.10118
4434.18546,0.10032
4432.25672,0.09903
4430.32797,0.09748
4428.39923,0.09591
4426.47048,0.09460
4424.54173,0.09354
4422.61299,0.09230
4420.68424,0.09074
4418.75550,0.08903
4416.82675,0.08728
4414.89801,0.08583
4412.96926,0.08467
4411.04052,0.08336
4409.11177,0.08177
4407.18303,0.08009
4405.25428,0.07853
4403.32554,0.07706
4401.39679,0.07560
4399.46805,0.07432
4397.53930,0.07314
4395.61056,0.07196
4393.68181,0.07092
4391.75306,0.06994
4389.82432,0.06881
4387.89557,0.06757
4385.96683,0.06652
4384.03808,0.06582
4382.10934,0.06540
4380.18059,0.06508
4378.25185,0.06489
4376.32310,0.06469
4374.39436,0.06427
4372.46561,0.06376
4370.53687,0.06336
4368.60812,0.06306
4366.67938,0.06267
4364.75063,0.06188
4362.82189,0.06096
4360.89314,0.06038
4358.96439,0.06000
4357.03565,0.05959
4355.10690,0.05922
4353.17816,0.05890
4351.24941,0.05839
4349.32067,0.05754
4347.39192,0.05662
4345.46318,0.05594
4343.53443,0.05568
4341.60569,0.05557
4339.67694,0.05525
4337.74820,0.05507
4335.81945,0.05533
4333.89071,0.05552
4331.96196,0.05514
4330.03321,0.05430
4328.10447,0.05336
4326.17572,0.05280
4324.24698,0.05275
4322.31823,0.05282
4320.38949,0.05304
4318.46074,0.05398
4316.53200,0.05528
4314.60325,0.05600
4312.67451,0.05636
4310.74576,0.05706
4308.81702,0.05804
4306.88827,0.05887
4304.95953,0.05940
4303.03078,0.05956
4301.10204,0.05937
4299.17329,0.05904
4297.24454,0.05878
4295.31580,0.05873
4293.38705,0.05897
4291.45831,0.05937
4289.52956,0.05963
4287.60082,0.05962
4285.67207,0.05945
4283.74333,0.05933
4281.81458,0.05931
4279.88584,0.05919
4277.95709,0.05882
4276.02835,0.05855
4274.09960,0.05872
4272.17086,0.05890
4270.24211,0.05842
4268.31336,0.05773
4266.38462,0.05751
4264.45587,0.05737
4262.52713,0.05673
4260.59838,0.05573
4258.66964,0.05480
4256.74089,0.05430
4254.81215,0.05430
4252.88340,0.05436
4250.95466,0.05415
4249.02591,0.05416
4247.09717,0.05455
4245.16842,0.05493
4243.23968,0.05547
4241.31093,0.05632
4239.38219,0.05693
4237.45344,0.05696
4235.52469,0.05674
4233.59595,0.05677
4231.66720,0.05707
4229.73846,0.05714
4227.80971,0.05679
4225.88097,0.05630
4223.95222,0.05595
4222.02348,0.05589
4220.09473,0.05611
4218.16599,0.05652
4216.23724,0.05689
4214.30850,0.05679
4212.37975,0.05622
4210.45101,0.05594
4208.52226,0.05618
4206.59352,0.05625
4204.66477,0.05599
4202.73602,0.05576
4200.80728,0.05545
4198.87853,0.05510
4196.94979,0.05511
4195.02104,0.05524
4193.09230,0.05510
4191.16355,0.05497
4189.23481,0.05515
4187.30606,0.05537
4185.37732,0.05540
4183.44857,0.05528
4181.51983,0.05501
4179.59108,0.05481
4177.66234,0.05496
4175.73359,0.05520
4173.80484,0.05530
4171.87610,0.05532
4169.94735,0.05522
4168.01861,0.05498
4166.08986,0.05500
4164.16112,0.05545
4162.23237,0.05582
4160.30363,0.05570
4158.37488,0.05538
4156.44614,0.05521
4154.51739,0.05522
4152.58865,0.05547
4150.65990,0.05577
4148.73116,0.05576
4146.80241,0.05557
4144.87367,0.05552
4142.94492,0.05552
4141.01617,0.05537
4139.08743,0.05528
4137.15868,0.05551
4135.22994,0.05585
4133.30119,0.05591
4131.37245,0.05558
4129.44370,0.05517
4127.51496,0.05498
4125.58621,0.05492
4123.65747,0.05492
4121.72872,0.05512
4119.79998,0.05531
4117.87123,0.05519
4115.94249,0.05527
4114.01374,0.05576
4112.08500,0.05597
4110.15625,0.05575
4108.22750,0.05573
4106.29876,0.05596
4104.37001,0.05594
4102.44127,0.05573
4100.51252,0.05563
4098.58378,0.05562
4096.65503,0.05563
4094.72629,0.05567
4092.79754,0.05575
4090.86880,0.05587
4088.94005,0.05593
4087.01131,0.05595
4085.08256,0.05614
4083.15382,0.05640
4081.22507,0.05648
4079.29632,0.05657
4077.36758,0.05686
4075.43883,0.05711
4073.51009,0.05704
4071.58134,0.05693
4069.65260,0.05716
4067.72385,0.05766
4065.79511,0.05809
4063.86636,0.05821
4061.93762,0.05832
4060.00887,0.05858
4058.08013,0.05865
4056.15138,0.05851
4054.22264,0.05834
4052.29389,0.05812
4050.36515,0.05779
4048.43640,0.05751
4046.50765,0.05758
4044.57891,0.05773
4042.65016,0.05785
4040.72142,0.05833
4038.79267,0.05895
4036.86393,0.05903
4034.93518,0.05875
4033.00644,0.05870
4031.07769,0.05882
4029.14895,0.05895
4027.22020,0.05914
4025.29146,0.05922
4023.36271,0.05889
4021.43397,0.05829
4019.50522,0.05799
4017.57648,0.05833
4015.64773,0.05916
4013.71898,0.06013
4011.79024,0.06092
4009.86149,0.06137
4007.93275,0.06148
4006.00400,0.06143
4004.07526,0.06152
4002.14651,0.06174
4000.21777,0.06192
3998.28902,0.06183
3996.36028,0.06162
3994.43153,0.06165
3992.50279,0.06165
3990.57404,0.06132
3988.64530,0.06092
3986.71655,0.06075
3984.78780,0.06085
3982.85906,0.06088
3980.93031,0.06063
3979.00157,0.06037
3977.07282,0.06022
3975.14408,0.06001
3973.21533,0.06000
3971.28659,0.06046
3969.35784,0.06099
3967.42910,0.06111
3965.50035,0.06080
3963.57161,0.06060
3961.64286,0.06104
3959.71412,0.06159
3957.78537,0.06173
3955.85663,0.06181
3953.92788,0.06187
3951.99913,0.06161
3950.07039,0.06115
3948.14164,0.06077
3946.21290,0.06064
3944.28415,0.06070
3942.35541,0.06069
3940.42666,0.06058
3938.49792,0.06051
3936.56917,0.06054
3934.64043,0.06057
3932.71168,0.06028
3930.78294,0.05977
3928.85419,0.05964
3926.92545,0.05978
3924.99670,0.05979
3923.06795,0.05964
3921.13921,0.05952
3919.21046,0.05960
3917.28172,0.05975
3915.35297,0.05976
3913.42423,0.05963
3911.49548,0.05950
3909.56674,0.05960
3907.63799,0.05990
3905.70925,0.06010
3903.78050,0.06012
3901.85176,0.06005
3899.92301,0.05994
3897.99427,0.05976
3896.06552,0.05960
3894.13678,0.05955
3892.20803,0.05947
3890.27928,0.05943
3888.35054,0.05962
3886.42179,0.05983
3884.49305,0.05981
3882.56430,0.05965
3880.63556,0.05945
3878.70681,0.05944
3876.77807,0.05951
3874.84932,0.05924
3872.92058,0.05894
3870.99183,0.05914
3869.06309,0.05959
3867.13434,0.06003
3865.20560,0.06055
3863.27685,0.06086
3861.34811,0.06079
3859.41936,0.06075
3857.49061,0.06097
3855.56187,0.06110
3853.63312,0.06090
3851.70438,0.06085
3849.77563,0.06089
3847.84689,0.06075
3845.91814,0.06072
3843.98940,0.06086
3842.06065,0.06086
3840.13191,0.06066
3838.20316,0.06041
3836.27442,0.06021
3834.34567,0.06028
3832.41693,0.06057
3830.48818,0.06070
3828.55943,0.06055
3826.63069,0.06013
3824.70194,0.05962
3822.77320,0.05942
3820.84445,0.05958
3818.91571,0.05989
3816.98696,0.06006
3815.05822,0.06008
3813.12947,0.06017
3811.20073,0.06023
3809.27198,0.06017
3807.34324,0.06040
3805.41449,0.06114
3803.48575,0.06192
3801.55700,0.06217
3799.62826,0.06188
3797.69951,0.06169
3795.77076,0.06182
3793.84202,0.06201
3791.91327,0.06205
3789.98453,0.06193
3788.05578,0.06184
3786.12704,0.06215
3784.19829,0.06270
3782.26955,0.06303
3780.34080,0.06295
3778.41206,0.06270
3776.48331,0.06266
3774.55457,0.06268
3772.62582,0.06259
3770.69708,0.06264
3768.76833,0.06295
3766.83959,0.06307
3764.91084,0.06284
3762.98209,0.06275
3761.05335,0.06294
3759.12460,0.06310
3757.19586,0.06314
3755.26711,0.06318
3753.33837,0.06334
3751.40962,0.06335
3749.48088,0.06322
3747.55213,0.06355
3745.62339,0.06421
3743.69464,0.06447
3741.76590,0.06422
3739.83715,0.06394
3737.90841,0.06384
3735.97966,0.06374
3734.05091,0.06340
3732.12217,0.06307
3730.19342,0.06312
3728.26468,0.06337
3726.33593,0.06348
3724.40719,0.06332
3722.47844,0.06296
3720.54970,0.06258
3718.62095,0.06239
3716.69221,0.06240
3714.76346,0.06243
3712.83472,0.06231
3710.90597,0.06198
3708.97723,0.06163
3707.04848,0.06144
3705.11974,0.06127
3703.19099,0.06072
3701.26224,0.05979
3699.33350,0.05910
3697.40475,0.05879
3695.47601,0.05874
3693.54726,0.05905
3691.61852,0.05934
3689.68977,0.05908
3687.76103,0.05867
3685.83228,0.05879
3683.90354,0.05919
3681.97479,0.05941
3680.04605,0.05943
3678.11730,0.05945
3676.18856,0.05956
3674.25981,0.05967
3672.33107,0.05983
3670.40232,0.05991
3668.47357,0.05971
3666.54483,0.05939
3664.61608,0.05917
3662.68734,0.05892
3660.75859,0.05857
3658.82985,0.05827
3656.90110,0.05813
3654.97236,0.05816
3653.04361,0.05819
3651.11487,0.05810
3649.18612,0.05779
3647.25738,0.05727
3645.32863,0.05674
3643.39989,0.05657
3641.47114,0.05693
3639.54239,0.05744
3637.61365,0.05777
3635.68490,0.05814
3633.75616,0.05860
3631.82741,0.05882
3629.89867,0.05863
3627.96992,0.05825
3626.04118,0.05796
3624.11243,0.05769
3622.18369,0.05740
3620.25494,0.05709
3618.32620,0.05698
3616.39745,0.05700
3614.46871,0.05686
3612.53996,0.05659
3610.61122,0.05615
3608.68247,0.05552
3606.75372,0.05514
3604.82498,0.05503
3602.89623,0.05498
3600.96749,0.05519
3599.03874,0.05583
3597.11000,0.05671
3595.18125,0.05770
3593.25251,0.05858
3591.32376,0.05917
3589.39502,0.05958
3587.46627,0.06010
3585.53753,0.06078
3583.60878,0.06128
3581.68004,0.06145
3579.75129,0.06164
3577.82254,0.06202
3575.89380,0.06247
3573.96505,0.06290
3572.03631,0.06326
3570.10756,0.06364
3568.17882,0.06405
3566.25007,0.06426
3564.32133,0.06434
3562.39258,0.06447
3560.46384,0.06456
3558.53509,0.06463
3556.60635,0.06485
3554.67760,0.06519
3552.74886,0.06544
3550.82011,0.06562
3548.89137,0.06589
3546.96262,0.06622
3545.03387,0.06639
3543.10513,0.06632
3541.17638,0.06623
3539.24764,0.06634
3537.31889,0.06635
3535.39015,0.06617
3533.46140,0.06614
3531.53266,0.06615
3529.60391,0.06599
3527.67517,0.06585
3525.74642,0.06579
3523.81768,0.06566
3521.88893,0.06560
3519.96019,0.06561
3518.03144,0.06535
3516.10270,0.06493
3514.17395,0.06476
3512.24520,0.06488
3510.31646,0.06507
3508.38771,0.06501
3506.45897,0.06471
3504.53022,0.06466
3502.60148,0.06497
3500.67273,0.06502
3498.74399,0.06464
3496.81524,0.06443
3494.88650,0.06469
3492.95775,0.06505
3491.02901,0.06488
3489.10026,0.06426
3487.17152,0.06393
3485.24277,0.06398
3483.31402,0.06394
3481.38528,0.06378
3479.45653,0.06358
3477.52779,0.06326
3475.59904,0.06284
3473.67030,0.06238
3471.74155,0.06220
3469.81281,0.06239
3467.88406,0.06240
3465.95532,0.06201
3464.02657,0.06170
3462.09783,0.06179
3460.16908,0.06197
3458.24034,0.06174
3456.31159,0.06123
3454.38285,0.06109
3452.45410,0.06131
3450.52535,0.06147
3448.59661,0.06144
3446.66786,0.06106
3444.73912,0.06048
3442.81037,0.06030
3440.88163,0.06051
3438.95288,0.06034
3437.02414,0.05979
3435.09539,0.05955
3433.16665,0.05986
3431.23790,0.06047
3429.30916,0.06083
3427.38041,0.06059
3425.45167,0.06002
3423.52292,0.05971
3421.59418,0.05995
3419.66543,0.06037
3417.73668,0.06065
3415.80794,0.06083
3413.87919,0.06095
3411.95045,0.06103
3410.02170,0.06109
3408.09296,0.06103
3406.16421,0.06083
3404.23547,0.06058
3402.30672,0.06042
3400.37798,0.06046
3398.44923,0.06042
3396.52049,0.06016
3394.59174,0.05992
3392.66300,0.05976
3390.73425,0.05961
3388.80550,0.05949
3386.87676,0.05940
3384.94801,0.05921
3383.01927,0.05900
3381.09052,0.05889
3379.16178,0.05874
3377.23303,0.05828
3375.30429,0.05777
3373.37554,0.05767
3371.44680,0.05794
3369.51805,0.05820
3367.58931,0.05844
3365.66056,0.05873
3363.73182,0.05898
3361.80307,0.05905
3359.87433,0.05908
3357.94558,0.05941
3356.01683,0.05991
3354.08809,0.06025
3352.15934,0.06061
3350.23060,0.06100
3348.30185,0.06113
3346.37311,0.06099
3344.44436,0.06066
3342.51562,0.06051
3340.58687,0.06084
3338.65813,0.06128
3336.72938,0.06145
3334.80064,0.06146
3332.87189,0.06145
3330.94315,0.06124
3329.01440,0.06095
3327.08566,0.06100
3325.15691,0.06127
3323.22816,0.06154
3321.29942,0.06193
3319.37067,0.06225
3317.44193,0.06233
3315.51318,0.06237
3313.58444,0.06246
3311.65569,0.06253
3309.72695,0.06252
3307.79820,0.06238
3305.86946,0.06232
3303.94071,0.06228
3302.01197,0.06208
3300.08322,0.06195
3298.15448,0.06222
3296.22573,0.06273
3294.29698,0.06300
3292.36824,0.06279
3290.43949,0.06237
3288.51075,0.06227
3286.58200,0.06242
3284.65326,0.06244
3282.72451,0.06246
3280.79577,0.06241
3278.86702,0.06198
3276.93828,0.06154
3275.00953,0.06145
3273.08079,0.06158
3271.15204,0.06186
3269.22330,0.06213
3267.29455,0.06209
3265.36581,0.06190
3263.43706,0.06190
3261.50831,0.06223
3259.57957,0.06279
3257.65082,0.06325
3255.72208,0.06318
3253.79333,0.06260
3251.86459,0.06221
3249.93584,0.06227
3248.00710,0.06243
3246.07835,0.06244
3244.14961,0.06216
3242.22086,0.06185
3240.29212,0.06210
3238.36337,0.06276
3236.43463,0.06312
3234.50588,0.06308
3232.57713,0.06307
3230.64839,0.06295
3228.71964,0.06235
3226.79090,0.06157
3224.86215,0.06116
3222.93341,0.06127
3221.00466,0.06167
3219.07592,0.06190
3217.14717,0.06176
3215.21843,0.06146
3213.28968,0.06124
3211.36094,0.06123
3209.43219,0.06129
3207.50345,0.06114
3205.57470,0.06098
3203.64596,0.06093
3201.71721,0.06079
3199.78846,0.06063
3197.85972,0.06064
3195.93097,0.06053
3194.00223,0.06026
3192.07348,0.05994
3190.14474,0.05951
3188.21599,0.05930
3186.28725,0.05966
3184.35850,0.05997
3182.42976,0.05982
3180.50101,0.05949
3178.57227,0.05926
3176.64352,0.05921
3174.71478,0.05917
3172.78603,0.05902
3170.85729,0.05886
3168.92854,0.05871
3166.99979,0.05861
3165.07105,0.05853
3163.14230,0.05834
3161.21356,0.05812
3159.28481,0.05790
3157.35607,0.05770
3155.42732,0.05759
3153.49858,0.05755
3151.56983,0.05762
3149.64109,0.05765
3147.71234,0.05749
3145.78360,0.05719
3143.85485,0.05683
3141.92611,0.05657
3139.99736,0.05643
3138.06861,0.05638
3136.13987,0.05655
3134.21112,0.05682
3132.28238,0.05677
3130.35363,0.05628
3128.42489,0.05578
3126.49614,0.05563
3124.56740,0.05576
3122.63865,0.05568
3120.70991,0.05521
3118.78116,0.05456
3116.85242,0.05407
3114.92367,0.05396
3112.99493,0.05408
3111.06618,0.05409
3109.13744,0.05400
3107.20869,0.05393
3105.27994,0.05377
3103.35120,0.05338
3101.42245,0.05287
3099.49371,0.05238
3097.56496,0.05200
3095.63622,0.05168
3093.70747,0.05144
3091.77873,0.05132
3089.84998,0.05109
3087.92124,0.05065
3085.99249,0.05034
3084.06375,0.05037
3082.13500,0.05057
3080.20626,0.05067
3078.27751,0.05061
3076.34877,0.05044
3074.42002,0.05028
3072.49127,0.05016
3070.56253,0.05002
3068.63378,0.05003
3066.70504,0.05020
3064.77629,0.05026
3062.84755,0.05004
3060.91880,0.04973
3058.99006,0.04955
3057.06131,0.04940
3055.13257,0.04934
3053.20382,0.04951
3051.27508,0.04963
3049.34633,0.04954
3047.41759,0.04947
3045.48884,0.04937
3043.56009,0.04919
3041.63135,0.04909
3039.70260,0.04907
3037.77386,0.04898
3035.84511,0.04870
3033.91637,0.04831
3031.98762,0.04809
3030.05888,0.04814
3028.13013,0.04811
3026.20139,0.04784
3024.27264,0.04768
3022.34390,0.04776
3020.41515,0.04779
3018.48641,0.04761
3016.55766,0.04746
3014.62892,0.04760
3012.70017,0.04772
3010.77142,0.04755
3008.84268,0.04749
3006.91393,0.04770
3004.98519,0.04775
3003.05644,0.04740
3001.12770,0.04707
2999.19895,0.04706
2997.27021,0.04711
2995.34146,0.04692
2993.41272,0.04655
2991.48397,0.04623
2989.55523,0.04612
2987.62648,0.04610
2985.69774,0.04572
2983.76899,0.04508
2981.84025,0.04477
2979.91150,0.04479
2977.98275,0.04472
2976.05401,0.04452
2974.12526,0.04432
2972.19652,0.04410
2970.26777,0.04374
2968.33903,0.04325
2966.41028,0.04280
2964.48154,0.04247
2962.55279,0.04225
2960.62405,0.04198
2958.69530,0.04152
2956.76656,0.04103
2954.83781,0.04070
2952.90907,0.04050
2950.98032,0.04022
2949.05157,0.03955
2947.12283,0.03853
2945.19408,0.03764
2943.26534,0.03691
2941.33659,0.03611
2939.40785,0.03535
2937.47910,0.03475
2935.55036,0.03405
2933.62161,0.03325
2931.69287,0.03286
2929.76412,0.03323
2927.83538,0.03476
2925.90663,0.03810
2923.97789,0.04351
2922.04914,0.05128
2920.12040,0.06127
2918.19165,0.07157
2916.26290,0.07886
2914.33416,0.08102
2912.40541,0.07868
2910.47667,0.07426
2908.54792,0.07005
2906.61918,0.06694
2904.69043,0.06478
2902.76169,0.06324
2900.83294,0.06207
2898.90420,0.06114
2896.97545,0.06049
2895.04671,0.06012
2893.11796,0.05974
2891.18922,0.05925
2889.26047,0.05884
2887.33172,0.05845
2885.40298,0.05798
2883.47423,0.05744
2881.54549,0.05679
2879.61674,0.05617
2877.68800,0.05567
2875.75925,0.05502
2873.83051,0.05416
2871.90176,0.05332
2869.97302,0.05254
2868.04427,0.05178
2866.11553,0.05092
2864.18678,0.04983
2862.25804,0.04848
2860.32929,0.04697
2858.40055,0.04573
2856.47180,0.04519
2854.54305,0.04587
2852.61431,0.04935
2850.68556,0.05673
2848.75682,0.06547
2846.82807,0.07107
2844.89933,0.07190
2842.97058,0.06997
2841.04184,0.06771
2839.11309,0.06593
2837.18435,0.06435
2835.25560,0.06297
2833.32686,0.06201
2831.39811,0.06143
2829.46937,0.06098
2827.54062,0.06041
2825.61188,0.05976
2823.68313,0.05944
2821.75438,0.05948
2819.82564,0.05944
2817.89689,0.05916
2815.96815,0.05878
2814.03940,0.05843
2812.11066,0.05821
2810.18191,0.05820
2808.25317,0.05830
2806.32442,0.05829
2804.39568,0.05809
2802.46693,0.05769
2800.53819,0.05725
2798.60944,0.05694
2796.68070,0.05667
2794.75195,0.05643
2792.82320,0.05639
2790.89446,0.05645
2788.96571,0.05642
2787.03697,0.05634
2785.10822,0.05632
2783.17948,0.05635
2781.25073,0.05644
2779.32199,0.05646
2777.39324,0.05629
2775.46450,0.05611
2773.53575,0.05611
2771.60701,0.05610
2769.67826,0.05589
2767.74952,0.05579
2765.82077,0.05604
2763.89203,0.05625
2761.96328,0.05619
2760.03453,0.05607
2758.10579,0.05590
2756.17704,0.05559
2754.24830,0.05529
2752.31955,0.05528
2750.39081,0.05543
2748.46206,0.05534
2746.53332,0.05514
2744.60457,0.05522
2742.67583,0.05540
2740.74708,0.05539
2738.81834,0.05529
2736.88959,0.05510
2734.96085,0.05485
2733.03210,0.05484
2731.10336,0.05503
2729.17461,0.05507
2727.24586,0.05494
2725.31712,0.05481
2723.38837,0.05475
2721.45963,0.05467
2719.53088,0.05455
2717.60214,0.05457
2715.67339,0.05485
2713.74465,0.05513
2711.81590,0.05521
2709.88716,0.05526
2707.95841,0.05526
2706.02967,0.05494
2704.10092,0.05447
2702.17218,0.05421
2700.24343,0.05430
2698.31468,0.05459
2696.38594,0.05478
2694.45719,0.05481
2692.52845,0.05486
2690.59970,0.05501
2688.67096,0.05515
2686.74221,0.05509
2684.81347,0.05492
2682.88472,0.05484
2680.95598,0.05478
2679.02723,0.05467
2677.09849,0.05457
2675.16974,0.05453
2673.24100,0.05456
2671.31225,0.05455
2669.38351,0.05448
2667.45476,0.05444
2665.52601,0.05446
2663.59727,0.05452
2661.66852,0.05457
2659.73978,0.05453
2657.81103,0.05444
2655.88229,0.05438
2653.95354,0.05438
2652.02480,0.05432
2650.09605,0.05411
2648.16731,0.05389
2646.23856,0.05388
2644.30982,0.05408
2642.38107,0.05431
2640.45233,0.05441
2638.52358,0.05437
2636.59484,0.05429
2634.66609,0.05413
2632.73734,0.05398
2630.80860,0.05392
2628.87985,0.05395
2626.95111,0.05409
2625.02236,0.05432
2623.09362,0.05443
2621.16487,0.05432
2619.23613,0.05421
2617.30738,0.05429
2615.37864,0.05439
2613.44989,0.05432
2611.52115,0.05419
2609.59240,0.05414
2607.66366,0.05416
2605.73491,0.05423
2603.80616,0.05421
2601.87742,0.05416
2599.94867,0.05426
2598.01993,0.05444
2596.09118,0.05455
2594.16244,0.05461
2592.23369,0.05458
2590.30495,0.05446
2588.37620,0.05431
2586.44746,0.05418
2584.51871,0.05417
2582.58997,0.05434
2580.66122,0.05463
2578.73248,0.05486
2576.80373,0.05490
2574.87499,0.05486
2572.94624,0.05481
2571.01749,0.05467
2569.08875,0.05450
2567.16000,0.05445
2565.23126,0.05453
2563.30251,0.05458
2561.37377,0.05454
2559.44502,0.05446
2557.51628,0.05441
2555.58753,0.05443
2553.65879,0.05451
2551.73004,0.05465
2549.80130,0.05482
2547.87255,0.05493
2545.94381,0.05499
2544.01506,0.05503
2542.08631,0.05510
2540.15757,0.05509
2538.22882,0.05495
2536.30008,0.05493
2534.37133,0.05488
2532.44259,0.05460
2530.51384,0.05446
2528.58510,0.05459
2526.65635,0.05468
2524.72761,0.05469
2522.79886,0.05479
2520.87012,0.05500
2518.94137,0.05527
2517.01263,0.05551
2515.08388,0.05561
2513.15514,0.05555
2511.22639,0.05550
2509.29764,0.05555
2507.36890,0.05554
2505.44015,0.05547
2503.51141,0.05552
2501.58266,0.05547
2499.65392,0.05533
2497.72517,0.05541
2495.79643,0.05559
2493.86768,0.05567
2491.93894,0.05589
2490.01019,0.05624
2488.08145,0.05644
2486.15270,0.05645
2484.22396,0.05647
2482.29521,0.05665
2480.36647,0.05680
2478.43772,0.05655
2476.50897,0.05601
2474.58023,0.05570
2472.65148,0.05588
2470.72274,0.05646
2468.79399,0.05723
2466.86525,0.05794
2464.93650,0.05842
2463.00776,0.05871
2461.07901,0.05894
2459.15027,0.05917
2457.22152,0.05935
2455.29278,0.05951
2453.36403,0.05970
2451.43529,0.05985
2449.50654,0.05990
2447.57779,0.05993
2445.64905,0.05996
2443.72030,0.05994
2441.79156,0.05982
2439.86281,0.05964
2437.93407,0.05952
2436.00532,0.05934
2434.07658,0.05891
2432.14783,0.05836
2430.21909,0.05796
2428.29034,0.05766
2426.36160,0.05724
2424.43285,0.05667
2422.50411,0.05619
2420.57536,0.05596
2418.64662,0.05585
2416.71787,0.05580
2414.78912,0.05597
2412.86038,0.05635
2410.93163,0.05672
2409.00289,0.05701
2407.07414,0.05728
2405.14540,0.05755
2403.21665,0.05771
2401.28791,0.05768
2399.35916,0.05774
2397.43042,0.05802
2395.50167,0.05811
2393.57293,0.05798
2391.64418,0.05799
2389.71544,0.05809
2387.78669,0.05810
2385.85795,0.05811
2383.92920,0.05812
2382.00045,0.05814
2380.07171,0.05824
2378.14296,0.05822
2376.21422,0.05805
2374.28547,0.05792
2372.35673,0.05785
2370.42798,0.05767
2368.49924,0.05749
2366.57049,0.05738
2364.64175,0.05714
2362.71300,0.05669
2360.78426,0.05616
2358.85551,0.05571
2356.92677,0.05528
2354.99802,0.05484
2353.06927,0.05449
2351.14053,0.05433
2349.21178,0.05432
2347.28304,0.05427
2345.35429,0.05416
2343.42555,0.05419
2341.49680,0.05429
2339.56806,0.05421
2337.63931,0.05397
2335.71057,0.05384
2333.78182,0.05396
2331.85308,0.05407
2329.92433,0.05409
2327.99559,0.05417
2326.06684,0.05430
2324.13810,0.05433
2322.20935,0.05422
2320.28060,0.05414
2318.35186,0.05418
2316.42311,0.05418
2314.49437,0.05409
2312.56562,0.05418
2310.63688,0.05451
2308.70813,0.05480
2306.77939,0.05490
2304.85064,0.05490
2302.92190,0.05485
2300.99315,0.05478
2299.06441,0.05475
2297.13566,0.05477
2295.20692,0.05494
2293.27817,0.05515
2291.34943,0.05516
2289.42068,0.05513
2287.49193,0.05527
2285.56319,0.05545
2283.63444,0.05548
2281.70570,0.05539
2279.77695,0.05522
2277.84821,0.05504
2275.91946,0.05505
2273.99072,0.05540
2272.06197,0.05600
2270.13323,0.05656
2268.20448,0.05697
2266.27574,0.05745
2264.34699,0.05816
2262.41825,0.05877
2260.48950,0.05901
2258.56075,0.05903
2256.63201,0.05905
2254.70326,0.05905
2252.77452,0.05889
2250.84577,0.05856
2248.91703,0.05823
2246.98828,0.05799
2245.05954,0.05780
2243.13079,0.05777
2241.20205,0.05817
2239.27330,0.05922
2237.34456,0.06090
2235.41581,0.06293
2233.48707,0.06474
2231.55832,0.06585
2229.62958,0.06616
2227.70083,0.06593
2225.77208,0.06535
2223.84334,0.06465
2221.91459,0.06423
2219.98585,0.06436
2218.05710,0.06500
2216.12836,0.06579
2214.19961,0.06644
2212.27087,0.06686
2210.34212,0.06701
2208.41338,0.06699
2206.48463,0.06703
2204.55589,0.06709
2202.62714,0.06697
2200.69840,0.06668
2198.76965,0.06635
2196.84090,0.06607
2194.91216,0.06583
2192.98341,0.06556
2191.05467,0.06532
2189.12592,0.06520
2187.19718,0.06511
2185.26843,0.06499
2183.33969,0.06490
2181.41094,0.06490
2179.48220,0.06503
2177.55345,0.06521
2175.62471,0.06522
2173.69596,0.06503
2171.76722,0.06475
2169.83847,0.06445
2167.90973,0.06417
2165.98098,0.06370
2164.05223,0.06287
2162.12349,0.06208
2160.19474,0.06164
2158.26600,0.06127
2156.33725,0.06060
2154.40851,0.05977
2152.47976,0.05920
2150.55102,0.05909
2148.62227,0.05929
2146.69353,0.05952
2144.76478,0.05975
2142.83604,0.06023
2140.90729,0.06106
2138.97855,0.06214
2137.04980,0.06333
2135.12106,0.06458
2133.19231,0.06596
2131.26356,0.06746
2129.33482,0.06889
2127.40607,0.06998
2125.47733,0.07074
2123.54858,0.07149
2121.61984,0.07228
2119.69109,0.07289
2117.76235,0.07324
2115.83360,0.07351
2113.90486,0.07386
2111.97611,0.07405
2110.04737,0.07397
2108.11862,0.07389
2106.18988,0.07387
2104.26113,0.07377
2102.33238,0.07376
2100.40364,0.07392
2098.47489,0.07399
2096.54615,0.07377
2094.61740,0.07324
2092.68866,0.07267
2090.75991,0.07224
2088.83117,0.07173
2086.90242,0.07114
2084.97368,0.07069
2083.04493,0.07048
2081.11619,0.07030
2079.18744,0.06992
2077.25870,0.06931
2075.32995,0.06856
2073.40121,0.06777
2071.47246,0.06707
2069.54371,0.06640
2067.61497,0.06575
2065.68622,0.06514
2063.75748,0.06458
2061.82873,0.06398
2059.89999,0.06333
2057.97124,0.06264
2056.04250,0.06190
2054.11375,0.06115
2052.18501,0.06046
2050.25626,0.05981
2048.32752,0.05918
2046.39877,0.05862
2044.47003,0.05815
2042.54128,0.05758
2040.61254,0.05690
2038.68379,0.05633
2036.75504,0.05599
2034.82630,0.05575
2032.89755,0.05543
2030.96881,0.05508
2029.04006,0.05477
2027.11132,0.05452
2025.18257,0.05430
2023.25383,0.05417
2021.32508,0.05411
2019.39634,0.05398
2017.46759,0.05384
2015.53885,0.05394
2013.61010,0.05451
2011.68136,0.05559
2009.75261,0.05701
2007.82386,0.05860
2005.89512,0.06045
2003.96637,0.06249
2002.03763,0.06456
2000.10888,0.06654
1998.18014,0.06820
1996.25139,0.06947
1994.32265,0.07067
1992.39390,0.07189
1990.46516,0.07298
1988.53641,0.07373
1986.60767,0.07399
1984.67892,0.07392
1982.75018,0.07394
1980.82143,0.07413
1978.89269,0.07424
1976.96394,0.07410
1975.03519,0.07370
1973.10645,0.07317
1971.17770,0.07257
1969.24896,0.07176
1967.32021,0.07078
1965.39147,0.06985
1963.46272,0.06906
1961.53398,0.06849
1959.60523,0.06814
1957.67649,0.06791
1955.74774,0.06785
1953.81900,0.06800
1951.89025,0.06820
1949.96151,0.06835
1948.03276,0.06845
1946.10402,0.06844
1944.17527,0.06821
1942.24652,0.06788
1940.31778,0.06766
1938.38903,0.06751
1936.46029,0.06719
1934.53154,0.06667
1932.60280,0.06623
1930.67405,0.06591
1928.74531,0.06549
1926.81656,0.06488
1924.88782,0.06421
1922.95907,0.06362
1921.03033,0.06312
1919.10158,0.06257
1917.17284,0.06183
1915.24409,0.06096
1913.31534,0.06017
1911.38660,0.05948
1909.45785,0.05862
1907.52911,0.05755
1905.60036,0.05655
1903.67162,0.05575
1901.74287,0.05514
1899.81413,0.05468
1897.88538,0.05446
1895.95664,0.05454
1894.02789,0.05494
1892.09915,0.05582
1890.17040,0.05742
1888.24166,0.05990
1886.31291,0.06312
1884.38417,0.06663
1882.45542,0.06994
1880.52667,0.07277
1878.59793,0.07516
1876.66918,0.07724
1874.74044,0.07910
1872.81169,0.08082
1870.88295,0.08250
1868.95420,0.08419
1867.02546,0.08578
1865.09671,0.08723
1863.16797,0.08855
1861.23922,0.08971
1859.31048,0.09068
1857.38173,0.09143
1855.45299,0.09210
1853.52424,0.09280
1851.59549,0.09341
1849.66675,0.09383
1847.73800,0.09408
1845.80926,0.09406
1843.88051,0.09358
1841.95177,0.09269
1840.02302,0.09166
1838.09428,0.09065
1836.16553,0.08979
1834.23679,0.08895
1832.30804,0.08775
1830.37930,0.08567
1828.45055,0.08249
1826.52181,0.07836
1824.59306,0.07364
1822.66432,0.06958
1820.73557,0.06733
1818.80682,0.06694
1816.87808,0.06770
1814.94933,0.06883
1813.02059,0.06998
1811.09184,0.07111
1809.16310,0.07216
1807.23435,0.07291
1805.30561,0.07317
1803.37686,0.07311
1801.44812,0.07302
1799.51937,0.07301
1797.59063,0.07308
1795.66188,0.07327
1793.73314,0.07364
1791.80439,0.07422
1789.87565,0.07491
1787.94690,0.07563
1786.01815,0.07623
1784.08941,0.07653
1782.16066,0.07667
1780.23192,0.07682
1778.30317,0.07673
1776.37443,0.07617
1774.44568,0.07526
1772.51694,0.07431
1770.58819,0.07357
1768.65945,0.07288
1766.73070,0.07210
1764.80196,0.07134
1762.87321,0.07038
1760.94447,0.06889
1759.01572,0.06719
1757.08697,0.06536
1755.15823,0.06335
1753.22948,0.06141
1751.30074,0.05955
1749.37199,0.05785
1747.44325,0.05661
1745.51450,0.05596
1743.58576,0.05581
1741.65701,0.05603
1739.72827,0.05652
1737.79952,0.05717
1735.87078,0.05795
1733.94203,0.05883
1732.01329,0.05953
1730.08454,0.06002
1728.15580,0.06045
1726.22705,0.06083
1724.29830,0.06109
1722.36956,0.06110
1720.44081,0.06089
1718.51207,0.06077
1716.58332,0.06085
1714.65458,0.06096
1712.72583,0.06113
1710.79709,0.06133
1708.86834,0.06154
1706.93960,0.06179
1705.01085,0.06205
1703.08211,0.06229
1701.15336,0.06234
1699.22462,0.06208
1697.29587,0.06187
1695.36713,0.06182
1693.43838,0.06185
1691.50963,0.06183
1689.58089,0.06166
1687.65214,0.06153
1685.72340,0.06145
1683.79465,0.06108
1681.86591,0.06055
1679.93716,0.06027
1678.00842,0.06022
1676.07967,0.06012
1674.15093,0.05979
1672.22218,0.05939
1670.29344,0.05901
1668.36469,0.05862
1666.43595,0.05831
1664.50720,0.05811
1662.57845,0.05799
1660.64971,0.05782
1658.72096,0.05757
1656.79222,0.05742
1654.86347,0.05733
1652.93473,0.05693
1651.00598,0.05654
1649.07724,0.05647
1647.14849,0.05620
1645.21975,0.05560
1643.29100,0.05507
1641.36226,0.05472
1639.43351,0.05463
1637.50477,0.05478
1635.57602,0.05486
1633.64728,0.05466
1631.71853,0.05444
1629.78978,0.05431
1627.86104,0.05428
1625.93229,0.05435
1624.00355,0.05433
1622.07480,0.05415
1620.14606,0.05405
1618.21731,0.05406
1616.28857,0.05395
1614.35982,0.05373
1612.43108,0.05360
1610.50233,0.05353
1608.57359,0.05355
1606.64484,0.05369
1604.71610,0.05383
1602.78735,0.05390
1600.85861,0.05388
1598.92986,0.05368
1597.00111,0.05339
1595.07237,0.05324
1593.14362,0.05324
1591.21488,0.05320
1589.28613,0.05305
1587.35739,0.05296
1585.42864,0.05308
1583.49990,0.05330
1581.57115,0.05348
1579.64241,0.05354
1577.71366,0.05338
1575.78492,0.05321
1573.85617,0.05344
1571.92743,0.05381
1569.99868,0.05385
1568.06993,0.05365
1566.14119,0.05357
1564.21244,0.05358
1562.28370,0.05349
1560.35495,0.05340
1558.42621,0.05344
1556.49746,0.05335
1554.56872,0.05304
1552.63997,0.05272
1550.71123,0.05248
1548.78248,0.05239
1546.85374,0.05243
1544.92499,0.05236
1542.99625,0.05231
1541.06750,0.05255
1539.13876,0.05265
1537.21001,0.05252
1535.28126,0.05246
1533.35252,0.05233
1531.42377,0.05220
1529.49503,0.05230
1527.56628,0.05240
1525.63754,0.05227
1523.70879,0.05212
1521.78005,0.05205
1519.85130,0.05201
1517.92256,0.05191
1515.99381,0.05171
1514.06507,0.05168
1512.13632,0.05174
1510.20758,0.05163
1508.27883,0.05137
1506.35008,0.05107
1504.42134,0.05094
1502.49259,0.05102
1500.56385,0.05117
1498.63510,0.05136
1496.70636,0.05146
1494.77761,0.05131
1492.84887,0.05113
1490.92012,0.05108
1488.99138,0.05106
1487.06263,0.05083
1485.13389,0.05035
1483.20514,0.04981
1481.27640,0.04914
1479.34765,0.04817
1477.41891,0.04711
1475.49016,0.04694
1473.56141,0.04887
1471.63267,0.05171
1469.70392,0.05298
1467.77518,0.05290
1465.84643,0.05267
1463.91769,0.05330
1461.98894,0.05491
1460.06020,0.05636
1458.13145,0.05675
1456.20271,0.05615
1454.27396,0.05556
1452.34522,0.05536
1450.41647,0.05525
1448.48773,0.05494
1446.55898,0.05464
1444.63024,0.05461
1442.70149,0.05461
1440.77274,0.05451
1438.84400,0.05443
1436.91525,0.05441
1434.98651,0.05446
1433.05776,0.05451
1431.12902,0.05442
1429.20027,0.05426
1427.27153,0.05431
1425.34278,0.05458
1423.41404,0.05476
1421.48529,0.05463
1419.55655,0.05428
1417.62780,0.05407
1415.69906,0.05406
1413.77031,0.05410
1411.84156,0.05423
1409.91282,0.05424
1407.98407,0.05398
1406.05533,0.05373
1404.12658,0.05366
1402.19784,0.05362
1400.26909,0.05353
1398.34035,0.05349
1396.41160,0.05353
1394.48286,0.05346
1392.55411,0.05327
1390.62537,0.05327
1388.69662,0.05340
1386.76788,0.05332
1384.83913,0.05315
1382.91039,0.05310
1380.98164,0.05312
1379.05289,0.05323
1377.12415,0.05341
1375.19540,0.05347
1373.26666,0.05330
1371.33791,0.05306
1369.40917,0.05303
1367.48042,0.05322
1365.55168,0.05349
1363.62293,0.05372
1361.69419,0.05388
1359.76544,0.05393
1357.83670,0.05382
1355.90795,0.05369
1353.97921,0.05366
1352.05046,0.05361
1350.12172,0.05344
1348.19297,0.05337
1346.26422,0.05352
1344.33548,0.05363
1342.40673,0.05364
1340.47799,0.05360
1338.54924,0.05345
1336.62050,0.05334
1334.69175,0.05339
1332.76301,0.05343
1330.83426,0.05336
1328.90552,0.05321
1326.97677,0.05306
1325.04803,0.05304
1323.11928,0.05323
1321.19054,0.05353
1319.26179,0.05367
1317.33304,0.05355
1315.40430,0.05328
1313.47555,0.05304
1311.54681,0.05306
1309.61806,0.05331
1307.68932,0.05335
1305.76057,0.05306
1303.83183,0.05286
1301.90308,0.05291
1299.97434,0.05303
1298.04559,0.05313
1296.11685,0.05322
1294.18810,0.05325
1292.25936,0.05313
1290.33061,0.05302
1288.40187,0.05313
1286.47312,0.05325
1284.54437,0.05327
1282.61563,0.05331
1280.68688,0.05327
1278.75814,0.05304
1276.82939,0.05288
1274.90065,0.05300
1272.97190,0.05320
1271.04316,0.05328
1269.11441,0.05338
1267.18567,0.05352
1265.25692,0.05351
1263.32818,0.05346
1261.39943,0.05351
1259.47069,0.05354
1257.54194,0.05353
1255.61320,0.05360
1253.68445,0.05370
1251.75570,0.05373
1249.82696,0.05363
1247.89821,0.05341
1245.96947,0.05315
1244.04072,0.05311
1242.11198,0.05324
1240.18323,0.05328
1238.25449,0.05332
1236.32574,0.05348
1234.39700,0.05370
1232.46825,0.05377
1230.53951,0.05353
1228.61076,0.05318
1226.68202,0.05301
1224.75327,0.05307
1222.82452,0.05326
1220.89578,0.05335
1218.96703,0.05322
1217.03829,0.05313
1215.10954,0.05322
1213.18080,0.05329
1211.25205,0.05323
1209.32331,0.05307
1207.39456,0.05288
1205.46582,0.05277
1203.53707,0.05278
1201.60833,0.05288
1199.67958,0.05298
1197.75084,0.05297
1195.82209,0.05292
1193.89335,0.05294
1191.96460,0.05289
1190.03585,0.05262
1188.10711,0.05240
1186.17836,0.05255
1184.24962,0.05287
1182.32087,0.05305
1180.39213,0.05304
1178.46338,0.05293
1176.53464,0.05286
1174.60589,0.05289
1172.67715,0.05299
1170.74840,0.05309
1168.81966,0.05313
1166.89091,0.05311
1164.96217,0.05309
1163.03342,0.05314
1161.10467,0.05326
1159.17593,0.05338
1157.24718,0.05336
1155.31844,0.05310
1153.38969,0.05291
1151.46095,0.05297
1149.53220,0.05295
1147.60346,0.05271
1145.67471,0.05255
1143.74597,0.05256
1141.81722,0.05272
1139.88848,0.05295
1137.95973,0.05299
1136.03099,0.05285
1134.10224,0.05273
1132.17350,0.05268
1130.24475,0.05278
1128.31600,0.05304
1126.38726,0.05316
1124.45851,0.05304
1122.52977,0.05303
1120.60102,0.05320
1118.67228,0.05317
1116.74353,0.05284
1114.81479,0.05266
1112.88604,0.05287
1110.95730,0.05318
1109.02855,0.05317
1107.09981,0.05280
1105.17106,0.05252
1103.24232,0.05270
1101.31357,0.05322
1099.38483,0.05361
1097.45608,0.05356
1095.52733,0.05310
1093.59859,0.05269
1091.66984,0.05265
1089.74110,0.05273
1087.81235,0.05260
1085.88361,0.05248
1083.95486,0.05255
1082.02612,0.05277
1080.09737,0.05312
1078.16863,0.05331
1076.23988,0.05326
1074.31114,0.05332
1072.38239,0.05347
1070.45365,0.05344
1068.52490,0.05333
1066.59615,0.05322
1064.66741,0.05324
1062.73866,0.05340
1060.80992,0.05334
1058.88117,0.05314
1056.95243,0.05310
1055.02368,0.05320
1053.09494,0.05338
1051.16619,0.05357
1049.23745,0.05370
1047.30870,0.05388
1045.37996,0.05412
1043.45121,0.05411
1041.52247,0.05383
1039.59372,0.05372
1037.66498,0.05383
1035.73623,0.05382
1033.80748,0.05375
1031.87874,0.05371
1029.94999,0.05366
1028.02125,0.05382
1026.09250,0.05410
1024.16376,0.05416
1022.23501,0.05405
1020.30627,0.05397
1018.37752,0.05403
1016.44878,0.05434
1014.52003,0.05461
1012.59129,0.05449
1010.66254,0.05433
1008.73380,0.05434
1006.80505,0.05419
1004.87631,0.05398
1002.94756,0.05400
1001.01881,0.05402
999.09007,0.05387
997.16132,0.05382
995.23258,0.05390
993.30383,0.05378
991.37509,0.05354
989.44634,0.05356
987.51760,0.05377
985.58885,0.05399
983.66011,0.05405
981.73136,0.05385
979.80262,0.05365
977.87387,0.05355
975.94513,0.05330
974.01638,0.05300
972.08763,0.05302
970.15889,0.05323
968.23014,0.05335
966.30140,0.05348
964.37265,0.05375
962.44391,0.05398
960.51516,0.05401
958.58642,0.05408
956.65767,0.05425
954.72893,0.05427
952.80018,0.05420
950.87144,0.05422
948.94269,0.05427
947.01395,0.05428
945.08520,0.05432
943.15646,0.05423
941.22771,0.05408
939.29896,0.05398
937.37022,0.05377
935.44147,0.05354
933.51273,0.05340
931.58398,0.05330
929.65524,0.05327
927.72649,0.05340
925.79775,0.05365
923.86900,0.05396
921.94026,0.05417
920.01151,0.05398
918.08277,0.05342
916.15402,0.05299
914.22528,0.05299
912.29653,0.05304
910.36779,0.05290
908.43904,0.05279
906.51029,0.05271
904.58155,0.05255
902.65280,0.05244
900.72406,0.05276
898.79531,0.05342
896.86657,0.05373
894.93782,0.05353
893.00908,0.05326
891.08033,0.05322
889.15159,0.05332
887.22284,0.05350
885.29410,0.05365
883.36535,0.05357
881.43661,0.05340
879.50786,0.05324
877.57911,0.05309
875.65037,0.05312
873.72162,0.05329
871.79288,0.05340
869.86413,0.05343
867.93539,0.05335
866.00664,0.05337
864.07790,0.05361
862.14915,0.05368
860.22041,0.05337
858.29166,0.05297
856.36292,0.05282
854.43417,0.05298
852.50543,0.05312
850.57668,0.05308
848.64794,0.05301
846.71919,0.05287
844.79044,0.05261
842.86170,0.05251
840.93295,0.05260
839.00421,0.05261
837.07546,0.05256
835.14672,0.05274
833.21797,0.05293
831.28923,0.05270
829.36048,0.05227
827.43174,0.05215
825.50299,0.05229
823.57425,0.05252
821.64550,0.05274
819.71676,0.05277
817.78801,0.05265
815.85926,0.05264
813.93052,0.05282
812.00177,0.05299
810.07303,0.05322
808.14428,0.05355
806.21554,0.05340
804.28679,0.05273
802.35805,0.05252
800.42930,0.05289
798.50056,0.05309
796.57181,0.05281
794.64307,0.05220
792.71432,0.05201
790.78558,0.05274
788.85683,0.05346
786.92809,0.05326
784.99934,0.05247
783.07059,0.05205
781.14185,0.05218
779.21310,0.05228
777.28436,0.05233
775.35561,0.05258
773.42687,0.05272
771.49812,0.05255
769.56938,0.05236
767.64063,0.05214
765.71189,0.05174
763.78314,0.05148
761.85440,0.05145
759.92565,0.05126
757.99691,0.05080
756.06816,0.05062
754.13942,0.05095
752.21067,0.05125
750.28192,0.05095
748.35318,0.05026
746.42443,0.04974
744.49569,0.04949
742.56694,0.04927
740.63820,0.04915
738.70945,0.04896
736.78071,0.04829
734.85196,0.04734
732.92322,0.04720
730.99447,0.04875
729.06573,0.05103
727.13698,0.05205
725.20824,0.05141
723.27949,0.05044
721.35074,0.05108
719.42200,0.05409
717.49325,0.05734
715.56451,0.05850
713.63576,0.05795
711.70702,0.05694
709.77827,0.05612
707.84953,0.05588
705.92078,0.05603
703.99204,0.05593
702.06329,0.05548
700.13455,0.05498
698.20580,0.05453
696.27706,0.05427
694.34831,0.05422
692.41957,0.05408
690.49082,0.05392
688.56207,0.05416
686.63333,0.05466
684.70458,0.05486
682.77584,0.05473
680.84709,0.05439
678.91835,0.05384
676.98960,0.05344
675.06086,0.05376
673.13211,0.05463
671.20337,0.05510
669.27462,0.05480
667.34588,0.05434
665.41713,0.05410
663.48839,0.05403
661.55964,0.05407
659.63090,0.05425
657.70215,0.05452
655.77340,0.05462
653.84466,0.05468
651.91591,0.05498
649.98717,0.05480
648.05842,0.05400
646.12968,0.05355
644.20093,0.05357
642.27219,0.05362
640.34344,0.05329
638.41470,0.05291
636.48595,0.05338
634.55721,0.05461
632.62846,0.05515
630.69972,0.05414
628.77097,0.05294
626.84222,0.05273
624.91348,0.05280
622.98473,0.05300
621.05599,0.05367
619.12724,0.05404
617.19850,0.05371
615.26975,0.05306
613.34101,0.05216
611.41226,0.05125
609.48352,0.05103
607.55477,0.05155
605.62603,0.05229
603.69728,0.05259
601.76854,0.05236
599.83979,0.05235
