7497.03301,0.39078
7495.10426,0.39228
7493.17552,0.39156
7491.24677,0.38940
7489.31803,0.38525
7487.38928,0.38015
7485.46054,0.38065
7483.53179,0.39027
7481.60305,0.39951
7479.67430,0.39970
7477.74556,0.39756
7475.81681,0.39949
7473.88807,0.40060
7471.95932,0.39724
7470.03057,0.39302
7468.10183,0.39052
7466.17308,0.39066
7464.24434,0.39463
7462.31559,0.39941
7460.38685,0.40181
7458.45810,0.40144
7456.52936,0.39783
7454.60061,0.39182
7452.67187,0.38699
7450.74312,0.38723
7448.81438,0.39017
7446.88563,0.39025
7444.95689,0.38860
7443.02814,0.38878
7441.09940,0.39041
7439.17065,0.39176
7437.24190,0.39302
7435.31316,0.39432
7433.38441,0.39287
7431.45567,0.38886
7429.52692,0.38632
7427.59818,0.38573
7425.66943,0.38658
7423.74069,0.38867
7421.81194,0.39103
7419.88320,0.39407
7417.95445,0.39691
7416.02571,0.39690
7414.09696,0.39639
7412.16822,0.39851
7410.23947,0.39866
7408.31073,0.39446
7406.38198,0.39157
7404.45323,0.39280
7402.52449,0.39628
7400.59574,0.39811
7398.66700,0.39674
7396.73825,0.39599
7394.80951,0.39608
7392.88076,0.39358
7390.95202,0.39086
7389.02327,0.39093
7387.09453,0.39181
7385.16578,0.39239
7383.23704,0.39258
7381.30829,0.39154
7379.37955,0.39135
7377.45080,0.39275
7375.52205,0.39347
7373.59331,0.39393
7371.66456,0.39413
7369.73582,0.39192
7367.80707,0.38764
7365.87833,0.38482
7363.94958,0.38714
7362.02084,0.39297
7360.09209,0.39582
7358.16335,0.39346
7356.23460,0.39011
7354.30586,0.39024
7352.37711,0.39281
7350.44837,0.39184
7348.51962,0.38690
7346.59088,0.38458
7344.66213,0.38740
7342.73338,0.39106
7340.80464,0.38947
7338.87589,0.38360
7336.94715,0.38327
7335.01840,0.38946
7333.08966,0.39342
7331.16091,0.39435
7329.23217,0.39569
7327.30342,0.39565
7325.37468,0.39439
7323.44593,0.39438
7321.51719,0.39478
7319.58844,0.39511
7317.65970,0.39583
7315.73095,0.39599
7313.80221,0.39643
7311.87346,0.39792
7309.94471,0.39789
7308.01597,0.39480
7306.08722,0.39219
7304.15848,0.39340
7302.22973,0.39456
7300.30099,0.39123
7298.37224,0.38754
7296.44350,0.39049
7294.51475,0.39731
7292.58601,0.39867
7290.65726,0.39391
7288.72852,0.38999
7286.79977,0.38995
7284.87103,0.39195
7282.94228,0.39448
7281.01353,0.39730
7279.08479,0.39801
7277.15604,0.39671
7275.22730,0.39763
7273.29855,0.39874
7271.36981,0.39485
7269.44106,0.38790
7267.51232,0.38376
7265.58357,0.38630
7263.65483,0.39402
7261.72608,0.40048
7259.79734,0.40109
7257.86859,0.39770
7255.93985,0.39484
7254.01110,0.39394
7252.08236,0.39448
7250.15361,0.39512
7248.22486,0.39490
7246.29612,0.39516
7244.36737,0.39471
7242.43863,0.39364
7240.50988,0.39423
7238.58114,0.39261
7236.65239,0.38920
7234.72365,0.38942
7232.79490,0.39185
7230.86616,0.39216
7228.93741,0.39011
7227.00867,0.38995
7225.07992,0.39372
7223.15118,0.39585
7221.22243,0.39364
7219.29369,0.39184
7217.36494,0.39165
7215.43619,0.39164
7213.50745,0.39288
7211.57870,0.39465
7209.64996,0.39559
7207.72121,0.39515
7205.79247,0.39300
7203.86372,0.39120
7201.93498,0.39251
7200.00623,0.39688
7198.07749,0.40078
7196.14874,0.40178
7194.22000,0.40072
7192.29125,0.39821
7190.36251,0.39552
7188.43376,0.39517
7186.50501,0.39706
7184.57627,0.39968
7182.64752,0.40085
7180.71878,0.39731
7178.79003,0.39215
7176.86129,0.39057
7174.93254,0.39145
7173.00380,0.39279
7171.07505,0.39301
7169.14631,0.39166
7167.21756,0.39032
7165.28882,0.38850
7163.36007,0.38703
7161.43133,0.38989
7159.50258,0.39775
7157.57384,0.40367
7155.64509,0.40140
7153.71634,0.39494
7151.78760,0.39093
7149.85885,0.39025
7147.93011,0.39024
7146.00136,0.38917
7144.07262,0.38877
7142.14387,0.39067
7140.21513,0.39286
7138.28638,0.39316
7136.35764,0.39234
7134.42889,0.39239
7132.50015,0.39376
7130.57140,0.39441
7128.64266,0.39302
7126.71391,0.39163
7124.78516,0.39221
7122.85642,0.39310
7120.92767,0.39275
7118.99893,0.39294
7117.07018,0.39395
7115.14144,0.39420
7113.21269,0.39513
7111.28395,0.39585
7109.35520,0.39405
7107.42646,0.39393
7105.49771,0.39725
7103.56897,0.39929
7101.64022,0.39842
7099.71148,0.39460
7097.78273,0.38894
7095.85399,0.38697
7093.92524,0.39093
7091.99649,0.39571
7090.06775,0.39604
7088.13900,0.39181
7086.21026,0.38816
7084.28151,0.38935
7082.35277,0.39256
7080.42402,0.39361
7078.49528,0.39336
7076.56653,0.39294
7074.63779,0.39246
7072.70904,0.39273
7070.78030,0.39218
7068.85155,0.38790
7066.92281,0.38252
7064.99406,0.38269
7063.06532,0.38868
7061.13657,0.39411
7059.20782,0.39573
7057.27908,0.39495
7055.35033,0.39453
7053.42159,0.39595
7051.49284,0.39612
7049.56410,0.39418
7047.63535,0.39422
7045.70661,0.39466
7043.77786,0.39266
7041.84912,0.39210
7039.92037,0.39403
7037.99163,0.39546
7036.06288,0.39701
7034.13414,0.39847
7032.20539,0.39660
7030.27664,0.39196
7028.34790,0.38840
7026.41915,0.38787
7024.49041,0.38951
7022.56166,0.39169
7020.63292,0.39316
7018.70417,0.39345
7016.77543,0.39317
7014.84668,0.39271
7012.91794,0.39323
7010.98919,0.39647
7009.06045,0.40049
7007.13170,0.40079
7005.20296,0.39711
7003.27421,0.39285
7001.34547,0.39020
6999.41672,0.38939
6997.48797,0.38890
6995.55923,0.38926
6993.63048,0.39187
6991.70174,0.39317
6989.77299,0.39174
6987.84425,0.39111
6985.91550,0.39284
6983.98676,0.39507
6982.05801,0.39392
6980.12927,0.38980
6978.20052,0.38740
6976.27178,0.38741
6974.34303,0.38883
6972.41429,0.39126
6970.48554,0.39183
6968.55680,0.39013
6966.62805,0.38986
6964.69930,0.39159
6962.77056,0.39186
6960.84181,0.38926
6958.91307,0.38714
6956.98432,0.38771
6955.05558,0.38854
6953.12683,0.38856
6951.19809,0.38927
6949.26934,0.38946
6947.34060,0.38726
6945.41185,0.38507
6943.48311,0.38486
6941.55436,0.38464
6939.62562,0.38417
6937.69687,0.38498
6935.76812,0.38724
6933.83938,0.39047
6931.91063,0.39245
6929.98189,0.39176
6928.05314,0.39126
6926.12440,0.39247
6924.19565,0.39275
6922.26691,0.39212
6920.33816,0.39199
6918.40942,0.39037
6916.48067,0.38848
6914.55193,0.38920
6912.62318,0.39099
6910.69444,0.39229
6908.76569,0.39212
6906.83695,0.39058
6904.90820,0.38973
6902.97945,0.38840
6901.05071,0.38558
6899.12196,0.38406
6897.19322,0.38532
6895.26447,0.38740
6893.33573,0.38878
6891.40698,0.39005
6889.47824,0.39087
6887.54949,0.39109
6885.62075,0.39134
6883.69200,0.39019
6881.76326,0.38788
6879.83451,0.38793
6877.90577,0.39028
6875.97702,0.39171
6874.04828,0.39170
6872.11953,0.39085
6870.19078,0.39057
6868.26204,0.39181
6866.33329,0.39160
6864.40455,0.38980
6862.47580,0.38982
6860.54706,0.39113
6858.61831,0.39070
6856.68957,0.38828
6854.76082,0.38723
6852.83208,0.38935
6850.90333,0.39102
6848.97459,0.38925
6847.04584,0.38765
6845.11710,0.38899
6843.18835,0.39005
6841.25960,0.39012
6839.33086,0.39104
6837.40211,0.39178
6835.47337,0.39197
6833.54462,0.39173
6831.61588,0.39001
6829.68713,0.38886
6827.75839,0.38972
6825.82964,0.38980
6823.90090,0.38862
6821.97215,0.38777
6820.04341,0.38750
6818.11466,0.38857
6816.18592,0.39045
6814.25717,0.39203
6812.32843,0.39358
6810.39968,0.39406
6808.47093,0.39269
6806.54219,0.39124
6804.61344,0.39054
6802.68470,0.39049
6800.75595,0.39095
6798.82721,0.39024
6796.89846,0.38944
6794.96972,0.39170
6793.04097,0.39455
6791.11223,0.39366
6789.18348,0.39078
6787.25474,0.38969
6785.32599,0.39036
6783.39725,0.39118
6781.46850,0.39159
6779.53975,0.39185
6777.61101,0.39100
6775.68226,0.38874
6773.75352,0.38854
6771.82477,0.39091
6769.89603,0.39350
6767.96728,0.39595
6766.03854,0.39680
6764.10979,0.39583
6762.18105,0.39482
6760.25230,0.39331
6758.32356,0.39212
6756.39481,0.39313
6754.46607,0.39454
6752.53732,0.39479
6750.60858,0.39393
6748.67983,0.39132
6746.75108,0.38930
6744.82234,0.38982
6742.89359,0.39071
6740.96485,0.39136
6739.03610,0.39177
6737.10736,0.39112
6735.17861,0.39092
6733.24987,0.39243
6731.32112,0.39421
6729.39238,0.39382
6727.46363,0.39086
6725.53489,0.38809
6723.60614,0.38696
6721.67740,0.38647
6719.74865,0.38715
6717.81991,0.39032
6715.89116,0.39416
6713.96241,0.39470
6712.03367,0.39270
6710.10492,0.39262
6708.17618,0.39359
6706.24743,0.39320
6704.31869,0.39227
6702.38994,0.39039
6700.46120,0.38760
6698.53245,0.38685
6696.60371,0.38929
6694.67496,0.39145
6692.74622,0.39163
6690.81747,0.39238
6688.88873,0.39287
6686.95998,0.39142
6685.03123,0.39022
6683.10249,0.38938
6681.17374,0.38669
6679.24500,0.38385
6677.31625,0.38418
6675.38751,0.38675
6673.45876,0.38948
6671.53002,0.39188
6669.60127,0.39165
6667.67253,0.38899
6665.74378,0.38896
6663.81504,0.39201
6661.88629,0.39296
6659.95755,0.39142
6658.02880,0.39157
6656.10006,0.39305
6654.17131,0.39294
6652.24256,0.39204
6650.31382,0.39146
6648.38507,0.39111
6646.45633,0.39138
6644.52758,0.39190
6642.59884,0.39153
6640.67009,0.39010
6638.74135,0.38899
6636.81260,0.38846
6634.88386,0.38746
6632.95511,0.38714
6631.02637,0.38861
6629.09762,0.39034
6627.16888,0.39065
6625.24013,0.39018
6623.31139,0.39049
6621.38264,0.39094
6619.45389,0.39082
6617.52515,0.39100
6615.59640,0.39072
6613.66766,0.38963
6611.73891,0.39024
6609.81017,0.39259
6607.88142,0.39337
6605.95268,0.39167
6604.02393,0.38944
6602.09519,0.38751
6600.16644,0.38553
6598.23770,0.38517
6596.30895,0.38812
6594.38021,0.39170
6592.45146,0.39241
6590.52271,0.39049
6588.59397,0.38827
6586.66522,0.38645
6584.73648,0.38439
6582.80773,0.38349
6580.87899,0.38541
6578.95024,0.38859
6577.02150,0.39014
6575.09275,0.38964
6573.16401,0.38956
6571.23526,0.39053
6569.30652,0.39026
6567.37777,0.38933
6565.44903,0.39022
6563.52028,0.39212
6561.59154,0.39271
6559.66279,0.39155
6557.73404,0.39016
6555.80530,0.39009
6553.87655,0.39180
6551.94781,0.39406
6550.01906,0.39441
6548.09032,0.39265
6546.16157,0.39054
6544.23283,0.38820
6542.30408,0.38540
6540.37534,0.38390
6538.44659,0.38550
6536.51785,0.38889
6534.58910,0.39152
6532.66036,0.39307
6530.73161,0.39442
6528.80287,0.39527
6526.87412,0.39445
6524.94537,0.39238
6523.01663,0.39064
6521.08788,0.38956
6519.15914,0.38980
6517.23039,0.39210
6515.30165,0.39411
6513.37290,0.39321
6511.44416,0.39056
6509.51541,0.38795
6507.58667,0.38587
6505.65792,0.38631
6503.72918,0.38950
6501.80043,0.39156
6499.87169,0.39111
6497.94294,0.39073
6496.01419,0.39177
6494.08545,0.39309
6492.15670,0.39298
6490.22796,0.39152
6488.29921,0.39080
6486.37047,0.39112
6484.44172,0.39098
6482.51298,0.39100
6480.58423,0.39125
6478.65549,0.38996
6476.72674,0.38814
6474.79800,0.38762
6472.86925,0.38901
6470.94051,0.39168
6469.01176,0.39245
6467.08302,0.39064
6465.15427,0.38975
6463.22552,0.39055
6461.29678,0.39095
6459.36803,0.39065
6457.43929,0.39017
6455.51054,0.39005
6453.58180,0.39067
6451.65305,0.39080
6449.72431,0.39055
6447.79556,0.39143
6445.86682,0.39203
6443.93807,0.39098
6442.00933,0.38995
6440.08058,0.39005
6438.15184,0.39082
6436.22309,0.39193
6434.29434,0.39226
6432.36560,0.39091
6430.43685,0.38928
6428.50811,0.38932
6426.57936,0.39091
6424.65062,0.39161
6422.72187,0.39051
6420.79313,0.38987
6418.86438,0.39132
6416.93564,0.39312
6415.00689,0.39277
6413.07815,0.39173
6411.14940,0.39183
6409.22066,0.39132
6407.29191,0.38968
6405.36317,0.38935
6403.43442,0.39143
6401.50567,0.39380
6399.57693,0.39431
6397.64818,0.39416
6395.71944,0.39471
6393.79069,0.39454
6391.86195,0.39336
6389.93320,0.39283
6388.00446,0.39241
6386.07571,0.39181
6384.14697,0.39240
6382.21822,0.39285
6380.28948,0.39161
6378.36073,0.39024
6376.43199,0.38993
6374.50324,0.38979
6372.57450,0.38905
6370.64575,0.38827
6368.71700,0.38876
6366.78826,0.39090
6364.85951,0.39324
6362.93077,0.39403
6361.00202,0.39289
6359.07328,0.39090
6357.14453,0.38975
6355.21579,0.38990
6353.28704,0.39011
6351.35830,0.38980
6349.42955,0.39026
6347.50081,0.39205
6345.57206,0.39276
6343.64332,0.39018
6341.71457,0.38659
6339.78582,0.38625
6337.85708,0.38911
6335.92833,0.39159
6333.99959,0.39185
6332.07084,0.39063
6330.14210,0.38906
6328.21335,0.38807
6326.28461,0.38863
6324.35586,0.38977
6322.42712,0.38969
6320.49837,0.38956
6318.56963,0.39053
6316.64088,0.39125
6314.71214,0.39160
6312.78339,0.39229
6310.85465,0.39252
6308.92590,0.39159
6306.99715,0.38974
6305.06841,0.38823
6303.13966,0.38888
6301.21092,0.39103
6299.28217,0.39206
6297.35343,0.39092
6295.42468,0.38823
6293.49594,0.38551
6291.56719,0.38469
6289.63845,0.38595
6287.70970,0.38776
6285.78096,0.38900
6283.85221,0.38958
6281.92347,0.39039
6279.99472,0.39214
6278.06598,0.39280
6276.13723,0.39098
6274.20848,0.38940
6272.27974,0.38923
6270.35099,0.38872
6268.42225,0.38809
6266.49350,0.38814
6264.56476,0.38872
6262.63601,0.38960
6260.70727,0.39018
6258.77852,0.39056
6256.84978,0.39068
6254.92103,0.38964
6252.99229,0.38834
6251.06354,0.38873
6249.13480,0.39048
6247.20605,0.39099
6245.27730,0.38915
6243.34856,0.38683
6241.41981,0.38634
6239.49107,0.38774
6237.56232,0.38872
6235.63358,0.38829
6233.70483,0.38833
6231.77609,0.38936
6229.84734,0.38973
6227.91860,0.38900
6225.98985,0.38763
6224.06111,0.38572
6222.13236,0.38447
6220.20362,0.38514
6218.27487,0.38735
6216.34613,0.38960
6214.41738,0.39034
6212.48863,0.38964
6210.55989,0.38905
6208.63114,0.38911
6206.70240,0.38962
6204.77365,0.38991
6202.84491,0.38907
6200.91616,0.38809
6198.98742,0.38795
6197.05867,0.38757
6195.12993,0.38636
6193.20118,0.38581
6191.27244,0.38674
6189.34369,0.38744
6187.41495,0.38746
6185.48620,0.38769
6183.55746,0.38726
6181.62871,0.38644
6179.69996,0.38617
6177.77122,0.38559
6175.84247,0.38468
6173.91373,0.38470
6171.98498,0.38579
6170.05624,0.38729
6168.12749,0.38831
6166.19875,0.38769
6164.27000,0.38645
6162.34126,0.38631
6160.41251,0.38593
6158.48377,0.38364
6156.55502,0.38103
6154.62628,0.38058
6152.69753,0.38191
6150.76878,0.38309
6148.84004,0.38362
6146.91129,0.38418
6144.98255,0.38502
6143.05380,0.38538
6141.12506,0.38505
6139.19631,0.38434
6137.26757,0.38363
6135.33882,0.38405
6133.41008,0.38543
6131.48133,0.38603
6129.55259,0.38541
6127.62384,0.38438
6125.69510,0.38356
6123.76635,0.38318
6121.83761,0.38300
6119.90886,0.38283
6117.98011,0.38357
6116.05137,0.38482
6114.12262,0.38478
6112.19388,0.38370
6110.26513,0.38267
6108.33639,0.38268
6106.40764,0.38416
6104.47890,0.38565
6102.55015,0.38607
6100.62141,0.38579
6098.69266,0.38527
6096.76392,0.38399
6094.83517,0.38151
6092.90643,0.37952
6090.97768,0.37950
6089.04893,0.38048
6087.12019,0.38122
6085.19144,0.38234
6083.26270,0.38385
6081.33395,0.38388
6079.40521,0.38192
6077.47646,0.37965
6075.54772,0.37907
6073.61897,0.38036
6071.69023,0.38160
6069.76148,0.38150
6067.83274,0.38032
6065.90399,0.37949
6063.97525,0.38014
6062.04650,0.38114
6060.11776,0.38171
6058.18901,0.38324
6056.26026,0.38524
6054.33152,0.38497
6052.40277,0.38321
6050.47403,0.38302
6048.54528,0.38422
6046.61654,0.38483
6044.68779,0.38446
6042.75905,0.38380
6040.83030,0.38280
6038.90156,0.38161
6036.97281,0.38147
6035.04407,0.38221
6033.11532,0.38248
6031.18658,0.38188
6029.25783,0.38074
6027.32909,0.38013
6025.40034,0.38037
6023.47159,0.38005
6021.54285,0.37865
6019.61410,0.37734
6017.68536,0.37677
6015.75661,0.37644
6013.82787,0.37583
6011.89912,0.37503
6009.97038,0.37429
6008.04163,0.37382
6006.11289,0.37395
6004.18414,0.37441
6002.25540,0.37434
6000.32665,0.37355
5998.39791,0.37269
5996.46916,0.37214
5994.54041,0.37163
5992.61167,0.37078
5990.68292,0.36931
5988.75418,0.36731
5986.82543,0.36535
5984.89669,0.36400
5982.96794,0.36306
5981.03920,0.36165
5979.11045,0.35988
5977.18171,0.35892
5975.25296,0.35895
5973.32422,0.35908
5971.39547,0.35845
5969.46673,0.35783
5967.53798,0.35830
5965.60924,0.35882
5963.68049,0.35841
5961.75174,0.35745
5959.82300,0.35635
5957.89425,0.35566
5955.96551,0.35548
5954.03676,0.35550
5952.10802,0.35559
5950.17927,0.35569
5948.25053,0.35588
5946.32178,0.35605
5944.39304,0.35598
5942.46429,0.35619
5940.53555,0.35720
5938.60680,0.35855
5936.67806,0.35980
5934.74931,0.36082
5932.82057,0.36100
5930.89182,0.36059
5928.96307,0.36055
5927.03433,0.36045
5925.10558,0.35997
5923.17684,0.35978
5921.24809,0.35986
5919.31935,0.36004
5917.39060,0.36045
5915.46186,0.36103
5913.53311,0.36145
5911.60437,0.36158
5909.67562,0.36166
5907.74688,0.36199
5905.81813,0.36291
5903.88939,0.36378
5901.96064,0.36447
5900.03189,0.36570
5898.10315,0.36624
5896.17440,0.36536
5894.24566,0.36490
5892.31691,0.36520
5890.38817,0.36514
5888.45942,0.36495
5886.53068,0.36563
5884.60193,0.36751
5882.67319,0.36993
5880.74444,0.37159
5878.81570,0.37227
5876.88695,0.37295
5874.95821,0.37338
5873.02946,0.37305
5871.10072,0.37307
5869.17197,0.37420
5867.24322,0.37598
5865.31448,0.37744
5863.38573,0.37785
5861.45699,0.37711
5859.52824,0.37593
5857.59950,0.37587
5855.67075,0.37727
5853.74201,0.37862
5851.81326,0.37887
5849.88452,0.37847
5847.95577,0.37835
5846.02703,0.37835
5844.09828,0.37789
5842.16954,0.37765
5840.24079,0.37793
5838.31205,0.37836
5836.38330,0.37907
5834.45455,0.37979
5832.52581,0.38006
5830.59706,0.37987
5828.66832,0.37937
5826.73957,0.37901
5824.81083,0.37897
5822.88208,0.37892
5820.95334,0.37880
5819.02459,0.37838
5817.09585,0.37805
5815.16710,0.37897
5813.23836,0.38021
5811.30961,0.37997
5809.38087,0.37875
5807.45212,0.37763
5805.52337,0.37733
5803.59463,0.37847
5801.66588,0.37984
5799.73714,0.37951
5797.80839,0.37826
5795.87965,0.37801
5793.95090,0.37832
5792.02216,0.37839
5790.09341,0.37823
5788.16467,0.37772
5786.23592,0.37752
5784.30718,0.37816
5782.37843,0.37904
5780.44969,0.37957
5778.52094,0.38013
5776.59220,0.38113
5774.66345,0.38188
5772.73470,0.38210
5770.80596,0.38203
5768.87721,0.38155
5766.94847,0.38113
5765.01972,0.38133
5763.09098,0.38206
5761.16223,0.38286
5759.23349,0.38310
5757.30474,0.38305
5755.37600,0.38358
5753.44725,0.38439
5751.51851,0.38503
5749.58976,0.38579
5747.66102,0.38594
5745.73227,0.38457
5743.80352,0.38256
5741.87478,0.38141
5739.94603,0.38171
5738.01729,0.38294
5736.08854,0.38371
5734.15980,0.38375
5732.23105,0.38393
5730.30231,0.38379
5728.37356,0.38343
5726.44482,0.38384
5724.51607,0.38377
5722.58733,0.38223
5720.65858,0.38075
5718.72984,0.38053
5716.80109,0.38146
5714.87235,0.38241
5712.94360,0.38175
5711.01485,0.38002
5709.08611,0.37946
5707.15736,0.38045
5705.22862,0.38156
5703.29987,0.38177
5701.37113,0.38136
5699.44238,0.38077
5697.51364,0.38036
5695.58489,0.38078
5693.65615,0.38155
5691.72740,0.38200
5689.79866,0.38273
5687.86991,0.38333
5685.94117,0.38292
5684.01242,0.38233
5682.08368,0.38238
5680.15493,0.38259
5678.22618,0.38273
5676.29744,0.38271
5674.36869,0.38229
5672.43995,0.38183
5670.51120,0.38115
5668.58246,0.38036
5666.65371,0.38038
5664.72497,0.38040
5662.79622,0.38003
5660.86748,0.38094
5658.93873,0.38252
5657.00999,0.38263
5655.08124,0.38194
5653.15250,0.38172
5651.22375,0.38198
5649.29500,0.38279
5647.36626,0.38404
5645.43751,0.38467
5643.50877,0.38425
5641.58002,0.38375
5639.65128,0.38363
5637.72253,0.38358
5635.79379,0.38382
5633.86504,0.38426
5631.93630,0.38434
5630.00755,0.38436
5628.07881,0.38482
5626.15006,0.38489
5624.22132,0.38468
5622.29257,0.38516
5620.36383,0.38576
5618.43508,0.38606
5616.50633,0.38633
5614.57759,0.38581
5612.64884,0.38444
5610.72010,0.38333
5608.79135,0.38316
5606.86261,0.38407
5604.93386,0.38551
5603.00512,0.38623
5601.07637,0.38601
5599.14763,0.38558
5597.21888,0.38500
5595.29014,0.38395
5593.36139,0.38299
5591.43265,0.38286
5589.50390,0.38340
5587.57516,0.38427
5585.64641,0.38463
5583.71766,0.38362
5581.78892,0.38262
5579.86017,0.38335
5577.93143,0.38469
5576.00268,0.38507
5574.07394,0.38460
5572.14519,0.38401
5570.21645,0.38397
5568.28770,0.38440
5566.35896,0.38452
5564.43021,0.38438
5562.50147,0.38408
5560.57272,0.38355
5558.64398,0.38325
5556.71523,0.38333
5554.78648,0.38369
5552.85774,0.38400
5550.92899,0.38395
5549.00025,0.38411
5547.07150,0.38475
5545.14276,0.38527
5543.21401,0.38537
5541.28527,0.38520
5539.35652,0.38523
5537.42778,0.38595
5535.49903,0.38694
5533.57029,0.38730
5531.64154,0.38668
5529.71280,0.38527
5527.78405,0.38405
5525.85531,0.38392
5523.92656,0.38456
5521.99781,0.38566
5520.06907,0.38646
5518.14032,0.38580
5516.21158,0.38474
5514.28283,0.38437
5512.35409,0.38391
5510.42534,0.38356
5508.49660,0.38415
5506.56785,0.38519
5504.63911,0.38586
5502.71036,0.38567
5500.78162,0.38478
5498.85287,0.38418
5496.92413,0.38438
5494.99538,0.38495
5493.06664,0.38508
5491.13789,0.38427
5489.20914,0.38336
5487.28040,0.38317
5485.35165,0.38321
5483.42291,0.38354
5481.49416,0.38426
5479.56542,0.38454
5477.63667,0.38423
5475.70793,0.38376
5473.77918,0.38387
5471.85044,0.38486
5469.92169,0.38562
5467.99295,0.38553
5466.06420,0.38528
5464.13546,0.38529
5462.20671,0.38571
5460.27796,0.38624
5458.34922,0.38644
5456.42047,0.38664
5454.49173,0.38660
5452.56298,0.38591
5450.63424,0.38533
5448.70549,0.38551
5446.77675,0.38605
5444.84800,0.38621
5442.91926,0.38602
5440.99051,0.38577
5439.06177,0.38550
5437.13302,0.38564
5435.20428,0.38593
5433.27553,0.38554
5431.34679,0.38490
5429.41804,0.38485
5427.48929,0.38555
5425.56055,0.38612
5423.63180,0.38603
5421.70306,0.38568
5419.77431,0.38529
5417.84557,0.38502
5415.91682,0.38490
5413.98808,0.38475
5412.05933,0.38445
5410.13059,0.38417
5408.20184,0.38439
5406.27310,0.38475
5404.34435,0.38460
5402.41561,0.38436
5400.48686,0.38493
5398.55811,0.38632
5396.62937,0.38709
5394.70062,0.38663
5392.77188,0.38620
5390.84313,0.38596
5388.91439,0.38571
5386.98564,0.38606
5385.05690,0.38654
5383.12815,0.38608
5381.19941,0.38497
5379.27066,0.38443
5377.34192,0.38485
5375.41317,0.38545
5373.48443,0.38550
5371.55568,0.38509
5369.62694,0.38495
5367.69819,0.38494
5365.76944,0.38431
5363.84070,0.38376
5361.91195,0.38419
5359.98321,0.38495
5358.05446,0.38539
5356.12572,0.38564
5354.19697,0.38582
5352.26823,0.38594
5350.33948,0.38608
5348.41074,0.38587
5346.48199,0.38510
5344.55325,0.38442
5342.62450,0.38440
5340.69576,0.38519
5338.76701,0.38620
5336.83827,0.38637
5334.90952,0.38587
5332.98077,0.38553
5331.05203,0.38537
5329.12328,0.38512
5327.19454,0.38499
5325.26579,0.38518
5323.33705,0.38549
5321.40830,0.38581
5319.47956,0.38631
5317.55081,0.38696
5315.62207,0.38730
5313.69332,0.38690
5311.76458,0.38574
5309.83583,0.38489
5307.90709,0.38515
5305.97834,0.38564
5304.04959,0.38567
5302.12085,0.38567
5300.19210,0.38575
5298.26336,0.38539
5296.33461,0.38478
5294.40587,0.38475
5292.47712,0.38504
5290.54838,0.38544
5288.61963,0.38654
5286.69089,0.38769
5284.76214,0.38790
5282.83340,0.38762
5280.90465,0.38747
5278.97591,0.38737
5277.04716,0.38734
5275.11842,0.38736
5273.18967,0.38749
5271.26092,0.38754
5269.33218,0.38689
5267.40343,0.38590
5265.47469,0.38597
5263.54594,0.38695
5261.61720,0.38741
5259.68845,0.38734
5257.75971,0.38751
5255.83096,0.38769
5253.90222,0.38724
5251.97347,0.38677
5250.04473,0.38702
5248.11598,0.38732
5246.18724,0.38714
5244.25849,0.38677
5242.32975,0.38653
5240.40100,0.38661
5238.47225,0.38683
5236.54351,0.38671
5234.61476,0.38622
5232.68602,0.38588
5230.75727,0.38608
5228.82853,0.38681
5226.89978,0.38759
5224.97104,0.38749
5223.04229,0.38660
5221.11355,0.38578
5219.18480,0.38510
5217.25606,0.38472
5215.32731,0.38506
5213.39857,0.38572
5211.46982,0.38628
5209.54107,0.38721
5207.61233,0.38831
5205.68358,0.38850
5203.75484,0.38785
5201.82609,0.38737
5199.89735,0.38754
5197.96860,0.38774
5196.03986,0.38722
5194.11111,0.38655
5192.18237,0.38649
5190.25362,0.38701
5188.32488,0.38758
5186.39613,0.38764
5184.46739,0.38758
5182.53864,0.38765
5180.60990,0.38717
5178.68115,0.38659
5176.75240,0.38699
5174.82366,0.38791
5172.89491,0.38822
5170.96617,0.38789
5169.03742,0.38734
5167.10868,0.38676
5165.17993,0.38642
5163.25119,0.38666
5161.32244,0.38707
5159.39370,0.38695
5157.46495,0.38656
5155.53621,0.38662
5153.60746,0.38691
5151.67872,0.38730
5149.74997,0.38779
5147.82123,0.38800
5145.89248,0.38821
5143.96373,0.38848
5142.03499,0.38836
5140.10624,0.38800
5138.17750,0.38765
5136.24875,0.38746
5134.32001,0.38731
5132.39126,0.38721
5130.46252,0.38747
5128.53377,0.38772
5126.60503,0.38755
5124.67628,0.38724
5122.74754,0.38697
5120.81879,0.38695
5118.89005,0.38721
5116.96130,0.38747
5115.03255,0.38763
5113.10381,0.38763
5111.17506,0.38757
5109.24632,0.38777
5107.31757,0.38819
5105.38883,0.38824
5103.46008,0.38800
5101.53134,0.38823
5099.60259,0.38845
5097.67385,0.38777
5095.74510,0.38718
5093.81636,0.38745
5091.88761,0.38782
5089.95887,0.38786
5088.03012,0.38791
5086.10138,0.38821
5084.17263,0.38853
5082.24388,0.38863
5080.31514,0.38855
5078.38639,0.38816
5076.45765,0.38747
5074.52890,0.38681
5072.60016,0.38642
5070.67141,0.38654
5068.74267,0.38722
5066.81392,0.38793
5064.88518,0.38826
5062.95643,0.38826
5061.02769,0.38786
5059.09894,0.38720
5057.17020,0.38667
5055.24145,0.38648
5053.31270,0.38659
5051.38396,0.38691
5049.45521,0.38762
5047.52647,0.38842
5045.59772,0.38856
5043.66898,0.38810
5041.74023,0.38759
5039.81149,0.38726
5037.88274,0.38726
5035.95400,0.38757
5034.02525,0.38796
5032.09651,0.38816
5030.16776,0.38818
5028.23902,0.38840
5026.31027,0.38871
5024.38153,0.38840
5022.45278,0.38760
5020.52403,0.38712
5018.59529,0.38690
5016.66654,0.38685
5014.73780,0.38743
5012.80905,0.38790
5010.88031,0.38740
5008.95156,0.38693
5007.02282,0.38710
5005.09407,0.38736
5003.16533,0.38767
5001.23658,0.38795
4999.30784,0.38800
4997.37909,0.38790
4995.45035,0.38775
4993.52160,0.38760
4991.59286,0.38761
4989.66411,0.38810
4987.73536,0.38845
4985.80662,0.38783
4983.87787,0.38708
4981.94913,0.38702
4980.02038,0.38715
4978.09164,0.38709
4976.16289,0.38703
4974.23415,0.38720
4972.30540,0.38755
4970.37666,0.38798
4968.44791,0.38813
4966.51917,0.38789
4964.59042,0.38768
4962.66168,0.38751
4960.73293,0.38734
4958.80418,0.38765
4956.87544,0.38841
4954.94669,0.38901
4953.01795,0.38914
4951.08920,0.38874
4949.16046,0.38800
4947.23171,0.38753
4945.30297,0.38788
4943.37422,0.38854
4941.44548,0.38849
4939.51673,0.38782
4937.58799,0.38736
4935.65924,0.38735
4933.73050,0.38733
4931.80175,0.38717
4929.87301,0.38742
4927.94426,0.38820
4926.01551,0.38877
4924.08677,0.38857
4922.15802,0.38768
4920.22928,0.38681
4918.30053,0.38691
4916.37179,0.38758
4914.44304,0.38752
4912.51430,0.38691
4910.58555,0.38693
4908.65681,0.38762
4906.72806,0.38814
4904.79932,0.38813
4902.87057,0.38780
4900.94183,0.38770
4899.01308,0.38795
4897.08434,0.38799
4895.15559,0.38754
4893.22684,0.38710
4891.29810,0.38725
4889.36935,0.38754
4887.44061,0.38741
4885.51186,0.38731
4883.58312,0.38748
4881.65437,0.38738
4879.72563,0.38672
4877.79688,0.38616
4875.86814,0.38655
4873.93939,0.38749
4872.01065,0.38774
4870.08190,0.38743
4868.15316,0.38755
4866.22441,0.38796
4864.29566,0.38821
4862.36692,0.38840
4860.43817,0.38844
4858.50943,0.38814
4856.58068,0.38767
4854.65194,0.38741
4852.72319,0.38735
4850.79445,0.38735
4848.86570,0.38766
4846.93696,0.38800
4845.00821,0.38765
4843.07947,0.38706
4841.15072,0.38693
4839.22198,0.38688
4837.29323,0.38663
4835.36449,0.38664
4833.43574,0.38691
4831.50699,0.38681
4829.57825,0.38653
4827.64950,0.38671
4825.72076,0.38677
4823.79201,0.38632
4821.86327,0.38601
4819.93452,0.38604
4818.00578,0.38628
4816.07703,0.38661
4814.14829,0.38692
4812.21954,0.38722
4810.29080,0.38726
4808.36205,0.38712
4806.43331,0.38722
4804.50456,0.38730
4802.57582,0.38709
4800.64707,0.38692
4798.71832,0.38704
4796.78958,0.38733
4794.86083,0.38761
4792.93209,0.38792
4791.00334,0.38831
4789.07460,0.38840
4787.14585,0.38824
4785.21711,0.38811
4783.28836,0.38760
4781.35962,0.38690
4779.43087,0.38670
4777.50213,0.38669
4775.57338,0.38642
4773.64464,0.38624
4771.71589,0.38632
4769.78714,0.38630
4767.85840,0.38615
4765.92965,0.38598
4764.00091,0.38590
4762.07216,0.38626
4760.14342,0.38666
4758.21467,0.38649
4756.28593,0.38640
4754.35718,0.38689
4752.42844,0.38706
4750.49969,0.38653
4748.57095,0.38593
4746.64220,0.38573
4744.71346,0.38597
4742.78471,0.38610
4740.85597,0.38584
4738.92722,0.38562
4736.99847,0.38563
4735.06973,0.38573
4733.14098,0.38585
4731.21224,0.38599
4729.28349,0.38595
4727.35475,0.38572
4725.42600,0.38542
4723.49726,0.38496
4721.56851,0.38439
4719.63977,0.38403
4717.71102,0.38400
4715.78228,0.38407
4713.85353,0.38389
4711.92479,0.38351
4709.99604,0.38300
4708.06729,0.38243
4706.13855,0.38212
4704.20980,0.38204
4702.28106,0.38181
4700.35231,0.38137
4698.42357,0.38089
4696.49482,0.38045
4694.56608,0.38015
4692.63733,0.38000
4690.70859,0.37958
4688.77984,0.37865
4686.85110,0.37733
4684.92235,0.37560
4682.99361,0.37339
4681.06486,0.37093
4679.13612,0.36851
4677.20737,0.36614
4675.27862,0.36350
4673.34988,0.36040
4671.42113,0.35737
4669.49239,0.35499
4667.56364,0.35315
4665.63490,0.35178
4663.70615,0.35126
4661.77741,0.35158
4659.84866,0.35248
4657.91992,0.35401
4655.99117,0.35606
4654.06243,0.35805
4652.13368,0.35960
4650.20494,0.36094
4648.27619,0.36226
4646.34745,0.36324
4644.41870,0.36360
4642.48995,0.36355
4640.56121,0.36319
4638.63246,0.36246
4636.70372,0.36125
4634.77497,0.35944
4632.84623,0.35741
4630.91748,0.35578
4628.98874,0.35453
4627.05999,0.35372
4625.13125,0.35347
4623.20250,0.35336
4621.27376,0.35304
4619.34501,0.35259
4617.41627,0.35221
4615.48752,0.35188
4613.55877,0.35138
4611.63003,0.35092
4609.70128,0.35068
4607.77254,0.35047
4605.84379,0.35037
4603.91505,0.35083
4601.98630,0.35224
4600.05756,0.35460
4598.12881,0.35740
4596.20007,0.35998
4594.27132,0.36212
4592.34258,0.36396
4590.41383,0.36563
4588.48509,0.36711
4586.55634,0.36799
4584.62760,0.36813
4582.69885,0.36780
4580.77010,0.36693
4578.84136,0.36536
4576.91261,0.36321
4574.98387,0.36097
4573.05512,0.35938
4571.12638,0.35889
4569.19763,0.35953
4567.26889,0.36117
4565.34014,0.36346
4563.41140,0.36612
4561.48265,0.36864
4559.55391,0.37026
4557.62516,0.37131
4555.69642,0.37266
4553.76767,0.37385
4551.83893,0.37444
4549.91018,0.37491
4547.98143,0.37546
4546.05269,0.37612
4544.12394,0.37700
4542.19520,0.37794
4540.26645,0.37860
4538.33771,0.37902
4536.40896,0.37934
4534.48022,0.37939
4532.55147,0.37924
4530.62273,0.37922
4528.69398,0.37915
4526.76524,0.37887
4524.83649,0.37873
4522.90775,0.37899
4520.97900,0.37930
4519.05025,0.37942
4517.12151,0.37946
4515.19276,0.37934
4513.26402,0.37906
4511.33527,0.37877
4509.40653,0.37845
4507.47778,0.37826
4505.54904,0.37821
4503.62029,0.37830
4501.69155,0.37869
4499.76280,0.37912
4497.83406,0.37944
4495.90531,0.38006
4493.97657,0.38073
4492.04782,0.38066
4490.11908,0.38017
4488.19033,0.38033
4486.26158,0.38112
4484.33284,0.38162
4482.40409,0.38165
4480.47535,0.38160
4478.54660,0.38156
4476.61786,0.38149
4474.68911,0.38146
4472.76037,0.38172
4470.83162,0.38205
4468.90288,0.38181
4466.97413,0.38135
4465.04539,0.38155
4463.11664,0.38224
4461.18790,0.38260
4459.25915,0.38249
4457.33041,0.38246
4455.40166,0.38235
4453.47291,0.38170
4451.54417,0.38094
4449.61542,0.38071
4447.68668,0.38079
4445.75793,0.38067
4443.82919,0.38021
4441.90044,0.37983
4439.97170,0.37992
4438.04295,0.37995
4436.11421,0.37971
4434.18546,0.37996
4432.25672,0.38065
4430.32797,0.38090
4428.39923,0.38064
4426.47048,0.38050
4424.54173,0.38061
4422.61299,0.38047
4420.68424,0.38017
4418.75550,0.38008
4416.82675,0.38000
4414.89801,0.37964
4412.96926,0.37914
4411.04052,0.37889
4409.11177,0.37913
4407.18303,0.37959
4405.25428,0.37953
4403.32554,0.37877
4401.39679,0.37810
4399.46805,0.37785
4397.53930,0.37747
4395.61056,0.37676
4393.68181,0.37606
4391.75306,0.37554
4389.82432,0.37539
4387.89557,0.37518
4385.96683,0.37461
4384.03808,0.37419
4382.10934,0.37390
4380.18059,0.37344
4378.25185,0.37279
4376.32310,0.37196
4374.39436,0.37130
4372.46561,0.37097
4370.53687,0.37051
4368.60812,0.36967
4366.67938,0.36881
4364.75063,0.36809
4362.82189,0.36730
4360.89314,0.36643
4358.96439,0.36543
4357.03565,0.36441
4355.10690,0.36380
4353.17816,0.36348
4351.24941,0.36301
4349.32067,0.36249
4347.39192,0.36210
4345.46318,0.36148
4343.53443,0.36066
4341.60569,0.36007
4339.67694,0.35969
4337.74820,0.35955
4335.81945,0.35987
4333.89071,0.36020
4331.96196,0.36005
4330.03321,0.35987
4328.10447,0.36015
4326.17572,0.36071
4324.24698,0.36140
4322.31823,0.36230
4320.38949,0.36340
4318.46074,0.36446
4316.53200,0.36526
4314.60325,0.36600
4312.67451,0.36696
4310.74576,0.36790
4308.81702,0.36855
4306.88827,0.36910
4304.95953,0.36948
4303.03078,0.36946
4301.10204,0.36917
4299.17329,0.36897
4297.24454,0.36890
4295.31580,0.36879
4293.38705,0.36843
4291.45831,0.36767
4289.52956,0.36647
4287.60082,0.36498
4285.67207,0.36366
4283.74333,0.36286
4281.81458,0.36235
4279.88584,0.36171
4277.95709,0.36088
4276.02835,0.36012
4274.09960,0.35937
4272.17086,0.35831
4270.24211,0.35696
4268.31336,0.35559
4266.38462,0.35429
4264.45587,0.35319
4262.52713,0.35237
4260.59838,0.35154
4258.66964,0.35051
4256.74089,0.34958
4254.81215,0.34887
4252.88340,0.34814
4250.95466,0.34748
4249.02591,0.34734
4247.09717,0.34757
4245.16842,0.34790
4243.23968,0.34851
4241.31093,0.34907
4239.38219,0.34912
4237.45344,0.34913
4235.52469,0.34962
4233.59595,0.35037
4231.66720,0.35091
4229.73846,0.35097
4227.80971,0.35088
4225.88097,0.35096
4223.95222,0.35102
4222.02348,0.35101
4220.09473,0.35101
4218.16599,0.35095
4216.23724,0.35098
4214.30850,0.35112
4212.37975,0.35116
4210.45101,0.35104
4208.52226,0.35115
4206.59352,0.35169
4204.66477,0.35230
4202.73602,0.35272
4200.80728,0.35310
4198.87853,0.35363
4196.94979,0.35455
4195.02104,0.35556
4193.09230,0.35629
4191.16355,0.35693
4189.23481,0.35749
4187.30606,0.35790
4185.37732,0.35823
4183.44857,0.35839
4181.51983,0.35850
4179.59108,0.35877
4177.66234,0.35906
4175.73359,0.35939
4173.80484,0.35982
4171.87610,0.36031
4169.94735,0.36084
4168.01861,0.36137
4166.08986,0.36173
4164.16112,0.36182
4162.23237,0.36171
4160.30363,0.36162
4158.37488,0.36189
4156.44614,0.36234
4154.51739,0.36256
4152.58865,0.36268
4150.65990,0.36268
4148.73116,0.36245
4146.80241,0.36221
4144.87367,0.36199
4142.94492,0.36177
4141.01617,0.36157
4139.08743,0.36123
4137.15868,0.36066
4135.22994,0.36017
4133.30119,0.35972
4131.37245,0.35901
4129.44370,0.35828
4127.51496,0.35789
4125.58621,0.35753
4123.65747,0.35706
4121.72872,0.35666
4119.79998,0.35640
4117.87123,0.35609
4115.94249,0.35547
4114.01374,0.35474
4112.08500,0.35413
4110.15625,0.35344
4108.22750,0.35257
4106.29876,0.35184
4104.37001,0.35152
4102.44127,0.35150
4100.51252,0.35137
4098.58378,0.35096
4096.65503,0.35032
4094.72629,0.34947
4092.79754,0.34846
4090.86880,0.34725
4088.94005,0.34580
4087.01131,0.34437
4085.08256,0.34313
4083.15382,0.34172
4081.22507,0.33992
4079.29632,0.33782
4077.36758,0.33539
4075.43883,0.33285
4073.51009,0.33029
4071.58134,0.32723
4069.65260,0.32361
4067.72385,0.32004
4065.79511,0.31693
4063.86636,0.31445
4061.93762,0.31255
4060.00887,0.31099
4058.08013,0.30978
4056.15138,0.30880
4054.22264,0.30811
4052.29389,0.30801
4050.36515,0.30826
4048.43640,0.30859
4046.50765,0.30907
4044.57891,0.30937
4042.65016,0.30878
4040.72142,0.30720
4038.79267,0.30562
4036.86393,0.30529
4034.93518,0.30658
4033.00644,0.30918
4031.07769,0.31270
4029.14895,0.31656
4027.22020,0.32013
4025.29146,0.32348
4023.36271,0.32718
4021.43397,0.33162
4019.50522,0.33663
4017.57648,0.34126
4015.64773,0.34495
4013.71898,0.34781
4011.79024,0.34971
4009.86149,0.35066
4007.93275,0.35117
4006.00400,0.35149
4004.07526,0.35168
4002.14651,0.35186
4000.21777,0.35211
3998.28902,0.35256
3996.36028,0.35344
3994.43153,0.35490
3992.50279,0.35676
3990.57404,0.35840
3988.64530,0.35927
3986.71655,0.35962
3984.78780,0.35998
3982.85906,0.36028
3980.93031,0.36028
3979.00157,0.36007
3977.07282,0.35986
3975.14408,0.35976
3973.21533,0.35976
3971.28659,0.35993
3969.35784,0.36045
3967.42910,0.36118
3965.50035,0.36165
3963.57161,0.36171
3961.64286,0.36171
3959.71412,0.36193
3957.78537,0.36238
3955.85663,0.36277
3953.92788,0.36284
3951.99913,0.36274
3950.07039,0.36262
3948.14164,0.36241
3946.21290,0.36210
3944.28415,0.36178
3942.35541,0.36141
3940.42666,0.36105
3938.49792,0.36096
3936.56917,0.36118
3934.64043,0.36142
3932.71168,0.36138
3930.78294,0.36127
3928.85419,0.36153
3926.92545,0.36201
3924.99670,0.36238
3923.06795,0.36266
3921.13921,0.36293
3919.21046,0.36305
3917.28172,0.36321
3915.35297,0.36367
3913.42423,0.36423
3911.49548,0.36460
3909.56674,0.36470
3907.63799,0.36484
3905.70925,0.36518
3903.78050,0.36539
3901.85176,0.36524
3899.92301,0.36496
3897.99427,0.36473
3896.06552,0.36443
3894.13678,0.36423
3892.20803,0.36450
3890.27928,0.36513
3888.35054,0.36567
3886.42179,0.36617
3884.49305,0.36653
3882.56430,0.36661
3880.63556,0.36645
3878.70681,0.36610
3876.77807,0.36602
3874.84932,0.36632
3872.92058,0.36652
3870.99183,0.36647
3869.06309,0.36628
3867.13434,0.36600
3865.20560,0.36587
3863.27685,0.36602
3861.34811,0.36601
3859.41936,0.36564
3857.49061,0.36552
3855.56187,0.36611
3853.63312,0.36691
3851.70438,0.36700
3849.77563,0.36668
3847.84689,0.36638
3845.91814,0.36621
3843.98940,0.36602
3842.06065,0.36551
3840.13191,0.36493
3838.20316,0.36468
3836.27442,0.36459
3834.34567,0.36443
3832.41693,0.36427
3830.48818,0.36405
3828.55943,0.36366
3826.63069,0.36318
3824.70194,0.36282
3822.77320,0.36281
3820.84445,0.36296
3818.91571,0.36276
3816.98696,0.36246
3815.05822,0.36243
3813.12947,0.36229
3811.20073,0.36191
3809.27198,0.36178
3807.34324,0.36204
3805.41449,0.36234
3803.48575,0.36265
3801.55700,0.36303
3799.62826,0.36328
3797.69951,0.36347
3795.77076,0.36359
3793.84202,0.36371
3791.91327,0.36414
3789.98453,0.36485
3788.05578,0.36554
3786.12704,0.36610
3784.19829,0.36652
3782.26955,0.36689
3780.34080,0.36714
3778.41206,0.36705
3776.48331,0.36664
3774.55457,0.36626
3772.62582,0.36625
3770.69708,0.36640
3768.76833,0.36628
3766.83959,0.36608
3764.91084,0.36611
3762.98209,0.36624
3761.05335,0.36641
3759.12460,0.36671
3757.19586,0.36700
3755.26711,0.36725
3753.33837,0.36773
3751.40962,0.36829
3749.48088,0.36845
3747.55213,0.36850
3745.62339,0.36890
3743.69464,0.36918
3741.76590,0.36897
3739.83715,0.36881
3737.90841,0.36890
3735.97966,0.36908
3734.05091,0.36911
3732.12217,0.36876
3730.19342,0.36811
3728.26468,0.36734
3726.33593,0.36655
3724.40719,0.36589
3722.47844,0.36531
3720.54970,0.36474
3718.62095,0.36463
3716.69221,0.36535
3714.76346,0.36645
3712.83472,0.36729
3710.90597,0.36750
3708.97723,0.36689
3707.04848,0.36585
3705.11974,0.36480
3703.19099,0.36385
3701.26224,0.36325
3699.33350,0.36320
3697.40475,0.36343
3695.47601,0.36387
3693.54726,0.36479
3691.61852,0.36600
3689.68977,0.36673
3687.76103,0.36658
3685.83228,0.36593
3683.90354,0.36526
3681.97479,0.36486
3680.04605,0.36458
3678.11730,0.36419
3676.18856,0.36403
3674.25981,0.36429
3672.33107,0.36450
3670.40232,0.36446
3668.47357,0.36430
3666.54483,0.36404
3664.61608,0.36352
3662.68734,0.36255
3660.75859,0.36109
3658.82985,0.35940
3656.90110,0.35759
3654.97236,0.35569
3653.04361,0.35393
3651.11487,0.35234
3649.18612,0.35072
3647.25738,0.34937
3645.32863,0.34911
3643.39989,0.35043
3641.47114,0.35303
3639.54239,0.35603
3637.61365,0.35864
3635.68490,0.36051
3633.75616,0.36159
3631.82741,0.36215
3629.89867,0.36215
3627.96992,0.36103
3626.04118,0.35924
3624.11243,0.35760
3622.18369,0.35635
3620.25494,0.35579
3618.32620,0.35614
3616.39745,0.35748
3614.46871,0.35964
3612.53996,0.36204
3610.61122,0.36408
3608.68247,0.36540
3606.75372,0.36617
3604.82498,0.36668
3602.89623,0.36677
3600.96749,0.36667
3599.03874,0.36678
3597.11000,0.36681
3595.18125,0.36665
3593.25251,0.36658
3591.32376,0.36668
3589.39502,0.36700
3587.46627,0.36749
3585.53753,0.36778
3583.60878,0.36780
3581.68004,0.36779
3579.75129,0.36778
3577.82254,0.36777
3575.89380,0.36768
3573.96505,0.36744
3572.03631,0.36736
3570.10756,0.36746
3568.17882,0.36735
3566.25007,0.36703
3564.32133,0.36683
3562.39258,0.36669
3560.46384,0.36644
3558.53509,0.36618
3556.60635,0.36591
3554.67760,0.36541
3552.74886,0.36491
3550.82011,0.36495
3548.89137,0.36544
3546.96262,0.36565
3545.03387,0.36522
3543.10513,0.36462
3541.17638,0.36437
3539.24764,0.36445
3537.31889,0.36452
3535.39015,0.36427
3533.46140,0.36372
3531.53266,0.36327
3529.60391,0.36315
3527.67517,0.36320
3525.74642,0.36321
3523.81768,0.36311
3521.88893,0.36283
3519.96019,0.36246
3518.03144,0.36210
3516.10270,0.36163
3514.17395,0.36125
3512.24520,0.36119
3510.31646,0.36120
3508.38771,0.36111
3506.45897,0.36108
3504.53022,0.36106
3502.60148,0.36086
3500.67273,0.36056
3498.74399,0.36030
3496.81524,0.36012
3494.88650,0.35995
3492.95775,0.35956
3491.02901,0.35902
3489.10026,0.35867
3487.17152,0.35840
3485.24277,0.35782
3483.31402,0.35705
3481.38528,0.35663
3479.45653,0.35658
3477.52779,0.35659
3475.59904,0.35653
3473.67030,0.35627
3471.74155,0.35591
3469.81281,0.35563
3467.88406,0.35545
3465.95532,0.35549
3464.02657,0.35566
3462.09783,0.35558
3460.16908,0.35515
3458.24034,0.35454
3456.31159,0.35407
3454.38285,0.35402
3452.45410,0.35416
3450.52535,0.35405
3448.59661,0.35368
3446.66786,0.35336
3444.73912,0.35312
3442.81037,0.35280
3440.88163,0.35269
3438.95288,0.35323
3437.02414,0.35409
3435.09539,0.35461
3433.16665,0.35470
3431.23790,0.35474
3429.30916,0.35511
3427.38041,0.35575
3425.45167,0.35622
3423.52292,0.35639
3421.59418,0.35673
3419.66543,0.35753
3417.73668,0.35816
3415.80794,0.35807
3413.87919,0.35774
3411.95045,0.35759
3410.02170,0.35749
3408.09296,0.35747
3406.16421,0.35755
3404.23547,0.35759
3402.30672,0.35760
3400.37798,0.35751
3398.44923,0.35731
3396.52049,0.35738
3394.59174,0.35778
3392.66300,0.35803
3390.73425,0.35789
3388.80550,0.35764
3386.87676,0.35752
3384.94801,0.35758
3383.01927,0.35780
3381.09052,0.35800
3379.16178,0.35798
3377.23303,0.35794
3375.30429,0.35811
3373.37554,0.35844
3371.44680,0.35885
3369.51805,0.35923
3367.58931,0.35933
3365.66056,0.35911
3363.73182,0.35889
3361.80307,0.35881
3359.87433,0.35885
3357.94558,0.35905
3356.01683,0.35925
3354.08809,0.35929
3352.15934,0.35913
3350.23060,0.35896
3348.30185,0.35891
3346.37311,0.35888
3344.44436,0.35886
3342.51562,0.35882
3340.58687,0.35885
3338.65813,0.35910
3336.72938,0.35921
3334.80064,0.35890
3332.87189,0.35855
3330.94315,0.35839
3329.01440,0.35838
3327.08566,0.35849
3325.15691,0.35858
3323.22816,0.35852
3321.29942,0.35828
3319.37067,0.35812
3317.44193,0.35842
3315.51318,0.35894
3313.58444,0.35917
3311.65569,0.35915
3309.72695,0.35918
3307.79820,0.35925
3305.86946,0.35907
3303.94071,0.35864
3302.01197,0.35839
3300.08322,0.35839
3298.15448,0.35841
3296.22573,0.35847
3294.29698,0.35875
3292.36824,0.35903
3290.43949,0.35887
3288.51075,0.35817
3286.58200,0.35732
3284.65326,0.35703
3282.72451,0.35741
3280.79577,0.35773
3278.86702,0.35772
3276.93828,0.35770
3275.00953,0.35779
3273.08079,0.35787
3271.15204,0.35789
3269.22330,0.35780
3267.29455,0.35761
3265.36581,0.35739
3263.43706,0.35718
3261.50831,0.35702
3259.57957,0.35689
3257.65082,0.35672
3255.72208,0.35658
3253.79333,0.35647
3251.86459,0.35642
3249.93584,0.35645
3248.00710,0.35642
3246.07835,0.35630
3244.14961,0.35629
3242.22086,0.35643
3240.29212,0.35651
3238.36337,0.35634
3236.43463,0.35602
3234.50588,0.35588
3232.57713,0.35603
3230.64839,0.35616
3228.71964,0.35598
3226.79090,0.35554
3224.86215,0.35503
3222.93341,0.35450
3221.00466,0.35395
3219.07592,0.35346
3217.14717,0.35310
3215.21843,0.35296
3213.28968,0.35287
3211.36094,0.35241
3209.43219,0.35163
3207.50345,0.35076
3205.57470,0.34992
3203.64596,0.34921
3201.71721,0.34862
3199.78846,0.34822
3197.85972,0.34797
3195.93097,0.34769
3194.00223,0.34749
3192.07348,0.34758
3190.14474,0.34762
3188.21599,0.34733
3186.28725,0.34686
3184.35850,0.34649
3182.42976,0.34635
3180.50101,0.34616
3178.57227,0.34564
3176.64352,0.34496
3174.71478,0.34408
3172.78603,0.34281
3170.85729,0.34098
3168.92854,0.33827
3166.99979,0.33472
3165.07105,0.33131
3163.14230,0.32911
3161.21356,0.32864
3159.28481,0.32986
3157.35607,0.33203
3155.42732,0.33421
3153.49858,0.33584
3151.56983,0.33669
3149.64109,0.33675
3147.71234,0.33628
3145.78360,0.33571
3143.85485,0.33543
3141.92611,0.33534
3139.99736,0.33496
3138.06861,0.33419
3136.13987,0.33332
3134.21112,0.33236
3132.28238,0.33109
3130.35363,0.32941
3128.42489,0.32735
3126.49614,0.32500
3124.56740,0.32226
3122.63865,0.31885
3120.70991,0.31466
3118.78116,0.30966
3116.85242,0.30325
3114.92367,0.29484
3112.99493,0.28446
3111.06618,0.27242
3109.13744,0.25951
3107.20869,0.24739
3105.27994,0.23814
3103.35120,0.23336
3101.42245,0.23297
3099.49371,0.23516
3097.56496,0.23748
3095.63622,0.23744
3093.70747,0.23311
3091.77873,0.22414
3089.84998,0.21163
3087.92124,0.19738
3085.99249,0.18403
3084.06375,0.17474
3082.13500,0.17178
3080.20626,0.17505
3078.27751,0.18191
3076.34877,0.18856
3074.42002,0.19230
3072.49127,0.19248
3070.56253,0.18937
3068.63378,0.18319
3066.70504,0.17478
3064.77629,0.16587
3062.84755,0.15858
3060.91880,0.15473
3058.99006,0.15543
3057.06131,0.16077
3055.13257,0.16927
3053.20382,0.17852
3051.27508,0.18670
3049.34633,0.19306
3047.41759,0.19731
3045.48884,0.19891
3043.56009,0.19736
3041.63135,0.19275
3039.70260,0.18567
3037.77386,0.17672
3035.84511,0.16621
3033.91637,0.15454
3031.98762,0.14268
3030.05888,0.13237
3028.13013,0.12571
3026.20139,0.12422
3024.27264,0.12848
3022.34390,0.13811
3020.41515,0.15183
3018.48641,0.16777
3016.55766,0.18390
3014.62892,0.19842
3012.70017,0.20994
3010.77142,0.21732
3008.84268,0.21995
3006.91393,0.21814
3004.98519,0.21338
3003.05644,0.20865
3001.12770,0.20742
2999.19895,0.21184
2997.27021,0.22154
2995.34146,0.23400
2993.41272,0.24605
2991.48397,0.25549
2989.55523,0.26171
2987.62648,0.26523
2985.69774,0.26679
2983.76899,0.26679
2981.84025,0.26542
2979.91150,0.26297
2977.98275,0.26012
2976.05401,0.25748
2974.12526,0.25501
2972.19652,0.25246
2970.26777,0.24952
2968.33903,0.24573
2966.41028,0.24096
2964.48154,0.23542
2962.55279,0.22926
2960.62405,0.22272
2958.69530,0.21612
2956.76656,0.20936
2954.83781,0.20215
2952.90907,0.19458
2950.98032,0.18696
2949.05157,0.17933
2947.12283,0.17153
2945.19408,0.16378
2943.26534,0.15634
2941.33659,0.14926
2939.40785,0.14270
2937.47910,0.13672
2935.55036,0.13120
2933.62161,0.12617
2931.69287,0.12192
2929.76412,0.11887
2927.83538,0.11728
2925.90663,0.11686
2923.97789,0.11723
2922.04914,0.11850
2920.12040,0.12055
2918.19165,0.12305
2916.26290,0.12617
2914.33416,0.13012
2912.40541,0.13467
2910.47667,0.13945
2908.54792,0.14411
2906.61918,0.14866
2904.69043,0.15339
2902.76169,0.15860
2900.83294,0.16448
2898.90420,0.17070
2896.97545,0.17661
2895.04671,0.18175
2893.11796,0.18606
2891.18922,0.18990
2889.26047,0.19344
2887.33172,0.19671
2885.40298,0.19997
2883.47423,0.20341
2881.54549,0.20689
2879.61674,0.21032
2877.68800,0.21364
2875.75925,0.21672
2873.83051,0.21925
2871.90176,0.22077
2869.97302,0.22095
2868.04427,0.21961
2866.11553,0.21647
2864.18678,0.21151
2862.25804,0.20516
2860.32929,0.19821
2858.40055,0.19138
2856.47180,0.18508
2854.54305,0.17973
2852.61431,0.17598
2850.68556,0.17453
2848.75682,0.17583
2846.82807,0.18002
2844.89933,0.18724
2842.97058,0.19776
2841.04184,0.21124
2839.11309,0.22668
2837.18435,0.24287
2835.25560,0.25851
2833.32686,0.27221
2831.39811,0.28305
2829.46937,0.29126
2827.54062,0.29741
2825.61188,0.30182
2823.68313,0.30486
2821.75438,0.30715
2819.82564,0.30906
2817.89689,0.31052
2815.96815,0.31140
2814.03940,0.31182
2812.11066,0.31210
2810.18191,0.31265
2808.25317,0.31371
2806.32442,0.31530
2804.39568,0.31709
2802.46693,0.31867
2800.53819,0.32032
2798.60944,0.32216
2796.68070,0.32360
2794.75195,0.32467
2792.82320,0.32581
2790.89446,0.32689
2788.96571,0.32773
2787.03697,0.32830
2785.10822,0.32849
2783.17948,0.32835
2781.25073,0.32839
2779.32199,0.32896
2777.39324,0.32990
2775.46450,0.33113
2773.53575,0.33277
2771.60701,0.33444
2769.67826,0.33586
2767.74952,0.33715
2765.82077,0.33821
2763.89203,0.33899
2761.96328,0.33970
2760.03453,0.34038
2758.10579,0.34096
2756.17704,0.34152
2754.24830,0.34209
2752.31955,0.34250
2750.39081,0.34269
2748.46206,0.34290
2746.53332,0.34314
2744.60457,0.34318
2742.67583,0.34292
2740.74708,0.34245
2738.81834,0.34184
2736.88959,0.34107
2734.96085,0.34027
2733.03210,0.33967
2731.10336,0.33916
2729.17461,0.33860
2727.24586,0.33824
2725.31712,0.33818
2723.38837,0.33806
2721.45963,0.33776
2719.53088,0.33747
2717.60214,0.33732
2715.67339,0.33732
2713.74465,0.33739
2711.81590,0.33758
2709.88716,0.33795
2707.95841,0.33841
2706.02967,0.33863
2704.10092,0.33855
2702.17218,0.33844
2700.24343,0.33833
2698.31468,0.33815
2696.38594,0.33795
2694.45719,0.33779
2692.52845,0.33768
2690.59970,0.33752
2688.67096,0.33729
2686.74221,0.33726
2684.81347,0.33751
2682.88472,0.33777
2680.95598,0.33788
2679.02723,0.33800
2677.09849,0.33825
2675.16974,0.33844
2673.24100,0.33841
2671.31225,0.33827
2669.38351,0.33833
2667.45476,0.33871
2665.52601,0.33917
2663.59727,0.33937
2661.66852,0.33928
2659.73978,0.33913
2657.81103,0.33906
2655.88229,0.33906
2653.95354,0.33903
2652.02480,0.33885
2650.09605,0.33860
2648.16731,0.33840
2646.23856,0.33825
2644.30982,0.33803
2642.38107,0.33776
2640.45233,0.33740
2638.52358,0.33649
2636.59484,0.33477
2634.66609,0.33275
2632.73734,0.33132
2630.80860,0.33120
2628.87985,0.33250
2626.95111,0.33465
2625.02236,0.33688
2623.09362,0.33876
2621.16487,0.34016
2619.23613,0.34111
2617.30738,0.34157
2615.37864,0.34146
2613.44989,0.34080
2611.52115,0.33959
2609.59240,0.33791
2607.66366,0.33614
2605.73491,0.33468
2603.80616,0.33372
2601.87742,0.33356
2599.94867,0.33455
2598.01993,0.33650
2596.09118,0.33867
2594.16244,0.34055
2592.23369,0.34205
2590.30495,0.34293
2588.37620,0.34277
2586.44746,0.34163
2584.51871,0.34009
2582.58997,0.33883
2580.66122,0.33846
2578.73248,0.33928
2576.80373,0.34093
2574.87499,0.34267
2572.94624,0.34391
2571.01749,0.34442
2569.08875,0.34453
2567.16000,0.34463
2565.23126,0.34466
2563.30251,0.34462
2561.37377,0.34468
2559.44502,0.34484
2557.51628,0.34494
2555.58753,0.34491
2553.65879,0.34464
2551.73004,0.34413
2549.80130,0.34367
2547.87255,0.34346
2545.94381,0.34342
2544.01506,0.34358
2542.08631,0.34416
2540.15757,0.34502
2538.22882,0.34569
2536.30008,0.34593
2534.37133,0.34593
2532.44259,0.34578
2530.51384,0.34537
2528.58510,0.34490
2526.65635,0.34465
2524.72761,0.34452
2522.79886,0.34432
2520.87012,0.34414
2518.94137,0.34403
2517.01263,0.34372
2515.08388,0.34320
2513.15514,0.34287
2511.22639,0.34296
2509.29764,0.34327
2507.36890,0.34363
2505.44015,0.34411
2503.51141,0.34467
2501.58266,0.34514
2499.65392,0.34549
2497.72517,0.34580
2495.79643,0.34613
2493.86768,0.34656
2491.93894,0.34710
2490.01019,0.34748
2488.08145,0.34765
2486.15270,0.34790
2484.22396,0.34830
2482.29521,0.34881
2480.36647,0.34939
2478.43772,0.35003
2476.50897,0.35076
2474.58023,0.35159
2472.65148,0.35244
2470.72274,0.35321
2468.79399,0.35392
2466.86525,0.35457
2464.93650,0.35515
2463.00776,0.35574
2461.07901,0.35612
2459.15027,0.35611
2457.22152,0.35598
2455.29278,0.35591
2453.36403,0.35588
2451.43529,0.35592
2449.50654,0.35597
2447.57779,0.35592
2445.64905,0.35586
2443.72030,0.35588
2441.79156,0.35600
2439.86281,0.35621
2437.93407,0.35639
2436.00532,0.35652
2434.07658,0.35678
2432.14783,0.35724
2430.21909,0.35771
2428.29034,0.35811
2426.36160,0.35848
2424.43285,0.35876
2422.50411,0.35886
2420.57536,0.35886
2418.64662,0.35875
2416.71787,0.35844
2414.78912,0.35809
2412.86038,0.35790
2410.93163,0.35767
2409.00289,0.35734
2407.07414,0.35709
2405.14540,0.35688
2403.21665,0.35663
2401.28791,0.35650
2399.35916,0.35640
2397.43042,0.35608
2395.50167,0.35571
2393.57293,0.35561
2391.64418,0.35573
2389.71544,0.35565
2387.78669,0.35532
2385.85795,0.35513
2383.92920,0.35517
2382.00045,0.35519
2380.07171,0.35518
2378.14296,0.35517
2376.21422,0.35511
2374.28547,0.35497
2372.35673,0.35469
2370.42798,0.35417
2368.49924,0.35339
2366.57049,0.35232
2364.64175,0.35114
2362.71300,0.35018
2360.78426,0.34967
2358.85551,0.34961
2356.92677,0.34977
2354.99802,0.34993
2353.06927,0.34985
2351.14053,0.34928
2349.21178,0.34827
2347.28304,0.34698
2345.35429,0.34516
2343.42555,0.34227
2341.49680,0.33855
2339.56806,0.33502
2337.63931,0.33305
2335.71057,0.33358
2333.78182,0.33647
2331.85308,0.34068
2329.92433,0.34506
2327.99559,0.34882
2326.06684,0.35151
2324.13810,0.35295
2322.20935,0.35309
2320.28060,0.35200
2318.35186,0.34992
2316.42311,0.34728
2314.49437,0.34480
2312.56562,0.34321
2310.63688,0.34311
2308.70813,0.34478
2306.77939,0.34772
2304.85064,0.35080
2302.92190,0.35313
2300.99315,0.35444
2299.06441,0.35487
2297.13566,0.35486
2295.20692,0.35473
2293.27817,0.35470
2291.34943,0.35509
2289.42068,0.35585
2287.49193,0.35666
2285.56319,0.35736
2283.63444,0.35800
2281.70570,0.35860
2279.77695,0.35906
2277.84821,0.35931
2275.91946,0.35940
2273.99072,0.35925
2272.06197,0.35892
2270.13323,0.35850
2268.20448,0.35793
2266.27574,0.35732
2264.34699,0.35676
2262.41825,0.35617
2260.48950,0.35562
2258.56075,0.35513
2256.63201,0.35469
2254.70326,0.35453
2252.77452,0.35484
2250.84577,0.35546
2248.91703,0.35618
2246.98828,0.35692
2245.05954,0.35765
2243.13079,0.35838
2241.20205,0.35919
2239.27330,0.35989
2237.34456,0.36021
2235.41581,0.36026
2233.48707,0.36036
2231.55832,0.36053
2229.62958,0.36058
2227.70083,0.36054
2225.77208,0.36061
2223.84334,0.36076
2221.91459,0.36087
2219.98585,0.36095
2218.05710,0.36103
2216.12836,0.36107
2214.19961,0.36102
2212.27087,0.36087
2210.34212,0.36065
2208.41338,0.36058
2206.48463,0.36084
2204.55589,0.36140
2202.62714,0.36216
2200.69840,0.36292
2198.76965,0.36335
2196.84090,0.36336
2194.91216,0.36313
2192.98341,0.36278
2191.05467,0.36236
2189.12592,0.36180
2187.19718,0.36119
2185.26843,0.36088
2183.33969,0.36111
2181.41094,0.36175
2179.48220,0.36254
2177.55345,0.36331
2175.62471,0.36387
2173.69596,0.36422
2171.76722,0.36459
2169.83847,0.36498
2167.90973,0.36521
2165.98098,0.36532
2164.05223,0.36544
2162.12349,0.36561
2160.19474,0.36575
2158.26600,0.36578
2156.33725,0.36570
2154.40851,0.36557
2152.47976,0.36549
2150.55102,0.36553
2148.62227,0.36569
2146.69353,0.36573
2144.76478,0.36562
2142.83604,0.36569
2140.90729,0.36604
2138.97855,0.36641
2137.04980,0.36660
2135.12106,0.36667
2133.19231,0.36692
2131.26356,0.36732
2129.33482,0.36748
2127.40607,0.36742
2125.47733,0.36745
2123.54858,0.36756
2121.61984,0.36750
2119.69109,0.36730
2117.76235,0.36723
2115.83360,0.36738
2113.90486,0.36755
2111.97611,0.36755
2110.04737,0.36754
2108.11862,0.36780
2106.18988,0.36825
2104.26113,0.36852
2102.33238,0.36862
2100.40364,0.36879
2098.47489,0.36902
2096.54615,0.36917
2094.61740,0.36924
2092.68866,0.36922
2090.75991,0.36913
2088.83117,0.36912
2086.90242,0.36918
2084.97368,0.36918
2083.04493,0.36912
2081.11619,0.36910
2079.18744,0.36909
2077.25870,0.36895
2075.32995,0.36854
2073.40121,0.36808
2071.47246,0.36790
2069.54371,0.36804
2067.61497,0.36815
2065.68622,0.36802
2063.75748,0.36778
2061.82873,0.36764
2059.89999,0.36764
2057.97124,0.36772
2056.04250,0.36776
2054.11375,0.36778
2052.18501,0.36785
2050.25626,0.36794
2048.32752,0.36794
2046.39877,0.36788
2044.47003,0.36781
2042.54128,0.36765
2040.61254,0.36740
2038.68379,0.36716
2036.75504,0.36688
2034.82630,0.36643
2032.89755,0.36586
2030.96881,0.36537
2029.04006,0.36520
2027.11132,0.36522
2025.18257,0.36515
2023.25383,0.36498
2021.32508,0.36485
2019.39634,0.36468
2017.46759,0.36434
2015.53885,0.36390
2013.61010,0.36334
2011.68136,0.36259
2009.75261,0.36176
2007.82386,0.36111
2005.89512,0.36080
2003.96637,0.36069
2002.03763,0.36045
2000.10888,0.35982
1998.18014,0.35876
1996.25139,0.35733
1994.32265,0.35556
1992.39390,0.35331
1990.46516,0.35041
1988.53641,0.34731
1986.60767,0.34493
1984.67892,0.34373
1982.75018,0.34344
1980.82143,0.34335
1978.89269,0.34292
1976.96394,0.34191
1975.03519,0.33981
1973.10645,0.33594
1971.17770,0.33021
1969.24896,0.32308
1967.32021,0.31531
1965.39147,0.30784
1963.46272,0.30132
1961.53398,0.29583
1959.60523,0.29143
1957.67649,0.28807
1955.74774,0.28530
1953.81900,0.28242
1951.89025,0.27895
1949.96151,0.27481
1948.03276,0.27035
1946.10402,0.26650
1944.17527,0.26424
1942.24652,0.26426
1940.31778,0.26692
1938.38903,0.27226
1936.46029,0.27997
1934.53154,0.28923
1932.60280,0.29888
1930.67405,0.30776
1928.74531,0.31517
1926.81656,0.32116
1924.88782,0.32612
1922.95907,0.33047
1921.03033,0.33451
1919.10158,0.33816
1917.17284,0.34105
1915.24409,0.34305
1913.31534,0.34436
1911.38660,0.34509
1909.45785,0.34512
1907.52911,0.34424
1905.60036,0.34253
1903.67162,0.34020
1901.74287,0.33712
1899.81413,0.33303
1897.88538,0.32800
1895.95664,0.32232
1894.02789,0.31630
1892.09915,0.31023
1890.17040,0.30424
1888.24166,0.29885
1886.31291,0.29460
1884.38417,0.29136
1882.45542,0.28886
1880.52667,0.28679
1878.59793,0.28483
1876.66918,0.28294
1874.74044,0.28124
1872.81169,0.27984
1870.88295,0.27924
1868.95420,0.28009
1867.02546,0.28270
1865.09671,0.28708
1863.16797,0.29323
1861.23922,0.30088
1859.31048,0.30928
1857.38173,0.31756
1855.45299,0.32516
1853.52424,0.33166
1851.59549,0.33676
1849.66675,0.34065
1847.73800,0.34367
1845.80926,0.34596
1843.88051,0.34736
1841.95177,0.34783
1840.02302,0.34773
1838.09428,0.34703
1836.16553,0.34540
1834.23679,0.34295
1832.30804,0.33994
1830.37930,0.33610
1828.45055,0.33138
1826.52181,0.32629
1824.59306,0.32100
1822.66432,0.31567
1820.73557,0.31058
1818.80682,0.30563
1816.87808,0.30079
1814.94933,0.29619
1813.02059,0.29183
1811.09184,0.28764
1809.16310,0.28371
1807.23435,0.28028
1805.30561,0.27772
1803.37686,0.27646
1801.44812,0.27693
1799.51937,0.27949
1797.59063,0.28424
1795.66188,0.29095
1793.73314,0.29960
1791.80439,0.30937
1789.87565,0.31792
1787.94690,0.32442
1786.01815,0.32941
1784.08941,0.33273
1782.16066,0.33415
1780.23192,0.33389
1778.30317,0.33260
1776.37443,0.33142
1774.44568,0.33135
1772.51694,0.33246
1770.58819,0.33362
1768.65945,0.33366
1766.73070,0.33236
1764.80196,0.32996
1762.87321,0.32640
1760.94447,0.32149
1759.01572,0.31601
1757.08697,0.31018
1755.15823,0.30418
1753.22948,0.29871
1751.30074,0.29378
1749.37199,0.28952
1747.44325,0.28635
1745.51450,0.28427
1743.58576,0.28332
1741.65701,0.28378
1739.72827,0.28576
1737.79952,0.28894
1735.87078,0.29337
1733.94203,0.29944
1732.01329,0.30545
1730.08454,0.31033
1728.15580,0.31451
1726.22705,0.31797
1724.29830,0.32107
1722.36956,0.32404
1720.44081,0.32684
1718.51207,0.32954
1716.58332,0.33184
1714.65458,0.33330
1712.72583,0.33414
1710.79709,0.33460
1708.86834,0.33473
1706.93960,0.33450
1705.01085,0.33397
1703.08211,0.33352
1701.15336,0.33323
1699.22462,0.33290
1697.29587,0.33253
1695.36713,0.33167
1693.43838,0.33001
1691.50963,0.32789
1689.58089,0.32558
1687.65214,0.32339
1685.72340,0.32116
1683.79465,0.31819
1681.86591,0.31513
1679.93716,0.31280
1678.00842,0.31111
1676.07967,0.30977
1674.15093,0.30834
1672.22218,0.30695
1670.29344,0.30597
1668.36469,0.30541
1666.43595,0.30542
1664.50720,0.30621
1662.57845,0.30774
1660.64971,0.30985
1658.72096,0.31257
1656.79222,0.31574
1654.86347,0.31936
1652.93473,0.32313
1651.00598,0.32534
1649.07724,0.32660
1647.14849,0.32801
1645.21975,0.32919
1643.29100,0.32993
1641.36226,0.33049
1639.43351,0.33089
1637.50477,0.33093
1635.57602,0.32988
1633.64728,0.32761
1631.71853,0.32524
1629.78978,0.32296
1627.86104,0.32034
1625.93229,0.31738
1624.00355,0.31403
1622.07480,0.31021
1620.14606,0.30628
1618.21731,0.30119
1616.28857,0.29284
1614.35982,0.28199
1612.43108,0.26908
1610.50233,0.25155
1608.57359,0.22859
1606.64484,0.20360
1604.71610,0.18206
1602.78735,0.16904
1600.85861,0.16784
1598.92986,0.17815
1597.00111,0.19566
1595.07237,0.21438
1593.14362,0.23022
1591.21488,0.24187
1589.28613,0.24753
1587.35739,0.24456
1585.42864,0.23502
1583.49990,0.22883
1581.57115,0.23557
1579.64241,0.25300
1577.71366,0.27256
1575.78492,0.28911
1573.85617,0.30032
1571.92743,0.30808
1569.99868,0.31464
1568.06993,0.31932
1566.14119,0.32185
1564.21244,0.32327
1562.28370,0.32412
1560.35495,0.32407
1558.42621,0.32168
1556.49746,0.31746
1554.56872,0.31277
1552.63997,0.30752
1550.71123,0.30191
1548.78248,0.29646
1546.85374,0.29201
1544.92499,0.28891
1542.99625,0.28723
1541.06750,0.28699
1539.13876,0.28814
1537.21001,0.29054
1535.28126,0.29444
1533.35252,0.29968
1531.42377,0.30442
1529.49503,0.30784
1527.56628,0.31040
1525.63754,0.31189
1523.70879,0.31227
1521.78005,0.31150
1519.85130,0.30953
1517.92256,0.30687
1515.99381,0.30347
1514.06507,0.29932
1512.13632,0.29481
1510.20758,0.28998
1508.27883,0.28318
1506.35008,0.27092
1504.42134,0.25475
1502.49259,0.23696
1500.56385,0.21406
1498.63510,0.18354
1496.70636,0.14967
1494.77761,0.12714
1492.84887,0.12622
1490.92012,0.14438
1488.99138,0.17178
1487.06263,0.19718
1485.13389,0.21814
1483.20514,0.23611
1481.27640,0.25069
1479.34765,0.26083
1477.41891,0.26695
1475.49016,0.27007
1473.56141,0.27049
1471.63267,0.26828
1469.70392,0.26451
1467.77518,0.25997
1465.84643,0.25346
1463.91769,0.24365
1461.98894,0.23073
1460.06020,0.21355
1458.13145,0.18609
1456.20271,0.15052
1454.27396,0.12830
1452.34522,0.12626
1450.41647,0.13662
1448.48773,0.15068
1446.55898,0.16342
1444.63024,0.17487
1442.70149,0.18642
1440.77274,0.19803
1438.84400,0.21008
1436.91525,0.22475
1434.98651,0.24094
1433.05776,0.25571
1431.12902,0.26943
1429.20027,0.28158
1427.27153,0.29053
1425.34278,0.29664
1423.41404,0.30099
1421.48529,0.30425
1419.55655,0.30687
1417.62780,0.30858
1415.69906,0.30925
1413.77031,0.30940
1411.84156,0.30929
1409.91282,0.30899
1407.98407,0.30850
1406.05533,0.30763
1404.12658,0.30624
1402.19784,0.30451
1400.26909,0.30219
1398.34035,0.29874
1396.41160,0.29401
1394.48286,0.28769
1392.55411,0.27994
1390.62537,0.27169
1388.69662,0.26316
1386.76788,0.25470
1384.83913,0.24752
1382.91039,0.24194
1380.98164,0.23729
1379.05289,0.23317
1377.12415,0.22953
1375.19540,0.22670
1373.26666,0.22525
1371.33791,0.22527
1369.40917,0.22630
1367.48042,0.22779
1365.55168,0.22947
1363.62293,0.23152
1361.69419,0.23401
1359.76544,0.23652
1357.83670,0.23875
1355.90795,0.24062
1353.97921,0.24190
1352.05046,0.24252
1350.12172,0.24289
1348.19297,0.24389
1346.26422,0.24598
1344.33548,0.24885
1342.40673,0.25189
1340.47799,0.25437
1338.54924,0.25529
1336.62050,0.25402
1334.69175,0.25084
1332.76301,0.24674
1330.83426,0.24330
1328.90552,0.24189
1326.97677,0.24278
1325.04803,0.24514
1323.11928,0.24767
1321.19054,0.24939
1319.26179,0.24983
1317.33304,0.24902
1315.40430,0.24747
1313.47555,0.24613
1311.54681,0.24598
1309.61806,0.24724
1307.68932,0.24942
1305.76057,0.25195
1303.83183,0.25438
1301.90308,0.25662
1299.97434,0.25882
1298.04559,0.26062
1296.11685,0.26162
1294.18810,0.26212
1292.25936,0.26259
1290.33061,0.26330
1288.40187,0.26431
1286.47312,0.26541
1284.54437,0.26662
1282.61563,0.26839
1280.68688,0.27100
1278.75814,0.27443
1276.82939,0.27843
1274.90065,0.28267
1272.97190,0.28691
1271.04316,0.29093
1269.11441,0.29442
1267.18567,0.29728
1265.25692,0.29954
1263.32818,0.30135
1261.39943,0.30283
1259.47069,0.30373
1257.54194,0.30377
1255.61320,0.30310
1253.68445,0.30206
1251.75570,0.30090
1249.82696,0.29984
1247.89821,0.29905
1245.96947,0.29857
1244.04072,0.29848
1242.11198,0.29887
1240.18323,0.29958
1238.25449,0.30044
1236.32574,0.30114
1234.39700,0.30116
1232.46825,0.30047
1230.53951,0.29932
1228.61076,0.29792
1226.68202,0.29661
1224.75327,0.29575
1222.82452,0.29519
1220.89578,0.29449
1218.96703,0.29346
1217.03829,0.29216
1215.10954,0.29049
1213.18080,0.28836
1211.25205,0.28584
1209.32331,0.28282
1207.39456,0.27916
1205.46582,0.27488
1203.53707,0.27009
1201.60833,0.26513
1199.67958,0.26071
1197.75084,0.25746
1195.82209,0.25543
1193.89335,0.25408
1191.96460,0.25310
1190.03585,0.25218
1188.10711,0.25013
1186.17836,0.24583
1184.24962,0.24003
1182.32087,0.23584
1180.39213,0.23699
1178.46338,0.24433
1176.53464,0.25464
1174.60589,0.26380
1172.67715,0.26997
1170.74840,0.27371
1168.81966,0.27610
1166.89091,0.27750
1164.96217,0.27739
1163.03342,0.27481
1161.10467,0.26880
1159.17593,0.25929
1157.24718,0.24890
1155.31844,0.24289
1153.38969,0.24567
1151.46095,0.25692
1149.53220,0.27167
1147.60346,0.28476
1145.67471,0.29453
1143.74597,0.30192
1141.81722,0.30780
1139.88848,0.31220
1137.95973,0.31522
1136.03099,0.31732
1134.10224,0.31876
1132.17350,0.31976
1130.24475,0.32043
1128.31600,0.32047
1126.38726,0.31962
1124.45851,0.31778
1122.52977,0.31470
1120.60102,0.31026
1118.67228,0.30479
1116.74353,0.29919
1114.81479,0.29486
1112.88604,0.29295
1110.95730,0.29324
1109.02855,0.29437
1107.09981,0.29531
1105.17106,0.29601
1103.24232,0.29622
1101.31357,0.29508
1099.38483,0.29256
1097.45608,0.28954
1095.52733,0.28670
1093.59859,0.28404
1091.66984,0.28121
1089.74110,0.27809
1087.81235,0.27456
1085.88361,0.27012
1083.95486,0.26468
1082.02612,0.25897
1080.09737,0.25351
1078.16863,0.24815
1076.23988,0.24238
1074.31114,0.23622
1072.38239,0.23081
1070.45365,0.22756
1068.52490,0.22759
1066.59615,0.23141
1064.66741,0.23800
1062.73866,0.24540
1060.80992,0.25248
1058.88117,0.25886
1056.95243,0.26425
1055.02368,0.26891
1053.09494,0.27322
1051.16619,0.27691
1049.23745,0.27966
1047.30870,0.28155
1045.37996,0.28253
1043.45121,0.28219
1041.52247,0.27972
1039.59372,0.27353
1037.66498,0.26160
1035.73623,0.24358
1033.80748,0.22275
1031.87874,0.20516
1029.94999,0.19557
1028.02125,0.19539
1026.09250,0.20344
1024.16376,0.21577
1022.23501,0.22782
1020.30627,0.23785
1018.37752,0.24620
1016.44878,0.25340
1014.52003,0.25975
1012.59129,0.26493
1010.66254,0.26822
1008.73380,0.26910
1006.80505,0.26759
1004.87631,0.26526
1002.94756,0.26577
1001.01881,0.27169
999.09007,0.28066
997.16132,0.28783
995.23258,0.29121
993.30383,0.29178
991.37509,0.29058
989.44634,0.28809
987.51760,0.28450
985.58885,0.28005
983.66011,0.27559
981.73136,0.27252
979.80262,0.27180
977.87387,0.27322
975.94513,0.27584
974.01638,0.27807
972.08763,0.27782
970.15889,0.27441
968.23014,0.26940
966.30140,0.26527
964.37265,0.26421
962.44391,0.26721
960.51516,0.27364
958.58642,0.28122
956.65767,0.28735
954.72893,0.29083
952.80018,0.29176
950.87144,0.29074
948.94269,0.28860
947.01395,0.28602
945.08520,0.28374
943.15646,0.28306
941.22771,0.28474
939.29896,0.28842
937.37022,0.29354
935.44147,0.29930
933.51273,0.30447
931.58398,0.30818
929.65524,0.31040
927.72649,0.31080
925.79775,0.30878
923.86900,0.30487
921.94026,0.29989
920.01151,0.29365
918.08277,0.28544
916.15402,0.27482
914.22528,0.26198
912.29653,0.24834
910.36779,0.23653
908.43904,0.22911
906.51029,0.22771
904.58155,0.23281
902.65280,0.24383
900.72406,0.25907
898.79531,0.27529
896.86657,0.28921
894.93782,0.29970
893.00908,0.30724
891.08033,0.31256
889.15159,0.31644
887.22284,0.31980
885.29410,0.32319
883.36535,0.32627
881.43661,0.32841
879.50786,0.32981
877.57911,0.33093
875.65037,0.33191
873.72162,0.33275
871.79288,0.33339
869.86413,0.33384
867.93539,0.33423
866.00664,0.33449
864.07790,0.33435
862.14915,0.33370
860.22041,0.33262
858.29166,0.33113
856.36292,0.32876
854.43417,0.32474
852.50543,0.31855
850.57668,0.31002
848.64794,0.29970
846.71919,0.28968
844.79044,0.28220
842.86170,0.27793
840.93295,0.27735
839.00421,0.28154
837.07546,0.29042
835.14672,0.30185
833.21797,0.31268
831.28923,0.32074
829.36048,0.32565
827.43174,0.32814
825.50299,0.32928
823.57425,0.32977
821.64550,0.32986
819.71676,0.32942
817.78801,0.32833
815.85926,0.32660
813.93052,0.32440
812.00177,0.32211
810.07303,0.31998
808.14428,0.31804
806.21554,0.31598
804.28679,0.31308
802.35805,0.30911
800.42930,0.30430
798.50056,0.29858
796.57181,0.29169
794.64307,0.28353
792.71432,0.27426
790.78558,0.26404
788.85683,0.25331
786.92809,0.24279
784.99934,0.23272
783.07059,0.22261
781.14185,0.21174
779.21310,0.19976
777.28436,0.18702
775.35561,0.17426
773.42687,0.16231
771.49812,0.15192
769.56938,0.14370
767.64063,0.13782
765.71189,0.13380
763.78314,0.13112
761.85440,0.12986
759.92565,0.13041
757.99691,0.13303
756.06816,0.13752
754.13942,0.14274
752.21067,0.14756
750.28192,0.15232
748.35318,0.15833
746.42443,0.16649
744.49569,0.17722
742.56694,0.18963
740.63820,0.20218
738.70945,0.21475
736.78071,0.22786
734.85196,0.24136
732.92322,0.25465
730.99447,0.26621
729.06573,0.27387
727.13698,0.27649
725.20824,0.27473
723.27949,0.27000
721.35074,0.26263
719.42200,0.25203
717.49325,0.23771
715.56451,0.21872
713.63576,0.19324
711.70702,0.16116
709.77827,0.12659
707.84953,0.09665
705.92078,0.07861
703.99204,0.07723
702.06329,0.09247
700.13455,0.12053
698.20580,0.15605
696.27706,0.19259
694.34831,0.22526
692.41957,0.25272
690.49082,0.27447
688.56207,0.28971
686.63333,0.29940
684.70458,0.30578
682.77584,0.31039
680.84709,0.31378
678.91835,0.31601
676.98960,0.31730
675.06086,0.31799
673.13211,0.31820
671.20337,0.31838
669.27462,0.31960
667.34588,0.32272
665.41713,0.32707
663.48839,0.33139
661.55964,0.33564
659.63090,0.34024
657.70215,0.34513
655.77340,0.34988
653.84466,0.35413
651.91591,0.35722
649.98717,0.35875
648.05842,0.35952
646.12968,0.36027
644.20093,0.36017
642.27219,0.35831
640.34344,0.35492
638.41470,0.35033
636.48595,0.34399
634.55721,0.33584
632.62846,0.32840
630.69972,0.32386
628.77097,0.32061
626.84222,0.31688
624.91348,0.31338
622.98473,0.31114
621.05599,0.31077
619.12724,0.31258
617.19850,0.31597
615.26975,0.31958
613.34101,0.32159
611.41226,0.32190
609.48352,0.32239
607.55477,0.32322
605.62603,0.32258
603.69728,0.32020
601.76854,0.31749
599.83979,0.31521
