7497.03301,0.39818
7495.10426,0.39773
7493.17552,0.39806
7491.24677,0.39653
7489.31803,0.39229
7487.38928,0.38901
7485.46054,0.39172
7483.53179,0.39819
7481.60305,0.40014
7479.67430,0.39659
7477.74556,0.39421
7475.81681,0.39482
7473.88807,0.39317
7471.95932,0.38842
7470.03057,0.38720
7468.10183,0.39110
7466.17308,0.39559
7464.24434,0.39880
7462.31559,0.40041
7460.38685,0.40074
7458.45810,0.39999
7456.52936,0.39669
7454.60061,0.39184
7452.67187,0.38996
7450.74312,0.39217
7448.81438,0.39374
7446.88563,0.39137
7444.95689,0.38781
7443.02814,0.38739
7441.09940,0.38977
7439.17065,0.39077
7437.24190,0.38990
7435.31316,0.38969
7433.38441,0.39010
7431.45567,0.39027
7429.52692,0.39094
7427.59818,0.39189
7425.66943,0.39217
7423.74069,0.39194
7421.81194,0.39081
7419.88320,0.39023
7417.95445,0.39297
7416.02571,0.39648
7414.09696,0.39706
7412.16822,0.39640
7410.23947,0.39626
7408.31073,0.39542
7406.38198,0.39521
7404.45323,0.39677
7402.52449,0.39867
7400.59574,0.40235
7398.66700,0.40647
7396.73825,0.40508
7394.80951,0.39848
7392.88076,0.39194
7390.95202,0.38761
7389.02327,0.38587
7387.09453,0.38765
7385.16578,0.39127
7383.23704,0.39303
7381.30829,0.39256
7379.37955,0.39098
7377.45080,0.38733
7375.52205,0.38493
7373.59331,0.38748
7371.66456,0.39197
7369.73582,0.39505
7367.80707,0.39402
7365.87833,0.38870
7363.94958,0.38452
7362.02084,0.38399
7360.09209,0.38563
7358.16335,0.38953
7356.23460,0.39453
7354.30586,0.39666
7352.37711,0.39509
7350.44837,0.39303
7348.51962,0.39283
7346.59088,0.39370
7344.66213,0.39487
7342.73338,0.39673
7340.80464,0.39757
7338.87589,0.39706
7336.94715,0.39653
7335.01840,0.39481
7333.08966,0.39174
7331.16091,0.38975
7329.23217,0.39013
7327.30342,0.39168
7325.37468,0.39422
7323.44593,0.39663
7321.51719,0.39595
7319.58844,0.39360
7317.65970,0.39337
7315.73095,0.39619
7313.80221,0.39937
7311.87346,0.39908
7309.94471,0.39599
7308.01597,0.39301
7306.08722,0.39067
7304.15848,0.39022
7302.22973,0.39174
7300.30099,0.39281
7298.37224,0.39460
7296.44350,0.39833
7294.51475,0.40275
7292.58601,0.40578
7290.65726,0.40251
7288.72852,0.39398
7286.79977,0.38780
7284.87103,0.38724
7282.94228,0.39025
7281.01353,0.39367
7279.08479,0.39439
7277.15604,0.39124
7275.22730,0.38780
7273.29855,0.38560
7271.36981,0.38399
7269.44106,0.38665
7267.51232,0.39248
7265.58357,0.39366
7263.65483,0.38891
7261.72608,0.38461
7259.79734,0.38541
7257.86859,0.38946
7255.93985,0.39190
7254.01110,0.39208
7252.08236,0.39295
7250.15361,0.39370
7248.22486,0.39141
7246.29612,0.38708
7244.36737,0.38457
7242.43863,0.38580
7240.50988,0.38860
7238.58114,0.39050
7236.65239,0.39087
7234.72365,0.38954
7232.79490,0.38823
7230.86616,0.38956
7228.93741,0.39124
7227.00867,0.39071
7225.07992,0.39069
7223.15118,0.39147
7221.22243,0.39077
7219.29369,0.38968
7217.36494,0.38921
7215.43619,0.38878
7213.50745,0.38913
7211.57870,0.39062
7209.64996,0.39034
7207.72121,0.38763
7205.79247,0.38888
7203.86372,0.39624
7201.93498,0.40160
7200.00623,0.39989
7198.07749,0.39525
7196.14874,0.39337
7194.22000,0.39360
7192.29125,0.39154
7190.36251,0.38956
7188.43376,0.39084
7186.50501,0.39106
7184.57627,0.38900
7182.64752,0.38975
7180.71878,0.39394
7178.79003,0.39612
7176.86129,0.39438
7174.93254,0.39233
7173.00380,0.39158
7171.07505,0.39064
7169.14631,0.39017
7167.21756,0.39151
7165.28882,0.39302
7163.36007,0.39221
7161.43133,0.38935
7159.50258,0.38760
7157.57384,0.38811
7155.64509,0.38911
7153.71634,0.39012
7151.78760,0.39089
7149.85885,0.39073
7147.93011,0.39162
7146.00136,0.39553
7144.07262,0.39835
7142.14387,0.39616
7140.21513,0.39385
7138.28638,0.39478
7136.35764,0.39568
7134.42889,0.39602
7132.50015,0.39791
7130.57140,0.39954
7128.64266,0.39678
7126.71391,0.39141
7124.78516,0.38899
7122.85642,0.38924
7120.92767,0.38965
7118.99893,0.39176
7117.07018,0.39565
7115.14144,0.39691
7113.21269,0.39378
7111.28395,0.39031
7109.35520,0.38990
7107.42646,0.39075
7105.49771,0.39018
7103.56897,0.38895
7101.64022,0.38842
7099.71148,0.38754
7097.78273,0.38633
7095.85399,0.38748
7093.92524,0.39040
7091.99649,0.39158
7090.06775,0.39159
7088.13900,0.39202
7086.21026,0.39069
7084.28151,0.38714
7082.35277,0.38490
7080.42402,0.38658
7078.49528,0.39087
7076.56653,0.39260
7074.63779,0.39012
7072.70904,0.38777
7070.78030,0.38643
7068.85155,0.38555
7066.92281,0.38698
7064.99406,0.38970
7063.06532,0.39245
7061.13657,0.39446
7059.20782,0.39329
7057.27908,0.39002
7055.35033,0.38792
7053.42159,0.38764
7051.49284,0.38799
7049.56410,0.38841
7047.63535,0.39039
7045.70661,0.39320
7043.77786,0.39363
7041.84912,0.39253
7039.92037,0.39176
7037.99163,0.39004
7036.06288,0.38726
7034.13414,0.38642
7032.20539,0.38906
7030.27664,0.39215
7028.34790,0.39292
7026.41915,0.39266
7024.49041,0.39271
7022.56166,0.39177
7020.63292,0.38932
7018.70417,0.38786
7016.77543,0.38904
7014.84668,0.39161
7012.91794,0.39340
7010.98919,0.39419
7009.06045,0.39705
7007.13170,0.40149
7005.20296,0.40218
7003.27421,0.39853
7001.34547,0.39452
6999.41672,0.39216
6997.48797,0.39135
6995.55923,0.39133
6993.63048,0.39209
6991.70174,0.39345
6989.77299,0.39345
6987.84425,0.39175
6985.91550,0.39160
6983.98676,0.39409
6982.05801,0.39519
6980.12927,0.39137
6978.20052,0.38551
6976.27178,0.38538
6974.34303,0.39195
6972.41429,0.39652
6970.48554,0.39627
6968.55680,0.39495
6966.62805,0.39220
6964.69930,0.39001
6962.77056,0.39141
6960.84181,0.39155
6958.91307,0.38830
6956.98432,0.38741
6955.05558,0.38970
6953.12683,0.39034
6951.19809,0.39013
6949.26934,0.39298
6947.34060,0.39670
6945.41185,0.39776
6943.48311,0.39647
6941.55436,0.39308
6939.62562,0.38908
6937.69687,0.38764
6935.76812,0.38869
6933.83938,0.39022
6931.91063,0.39217
6929.98189,0.39407
6928.05314,0.39415
6926.12440,0.39380
6924.19565,0.39500
6922.26691,0.39542
6920.33816,0.39282
6918.40942,0.38908
6916.48067,0.38774
6914.55193,0.38889
6912.62318,0.38963
6910.69444,0.38983
6908.76569,0.39181
6906.83695,0.39496
6904.90820,0.39532
6902.97945,0.39210
6901.05071,0.38878
6899.12196,0.38791
6897.19322,0.39045
6895.26447,0.39418
6893.33573,0.39535
6891.40698,0.39452
6889.47824,0.39266
6887.54949,0.38973
6885.62075,0.38827
6883.69200,0.38937
6881.76326,0.39078
6879.83451,0.39084
6877.90577,0.39025
6875.97702,0.39019
6874.04828,0.39075
6872.11953,0.39186
6870.19078,0.39320
6868.26204,0.39431
6866.33329,0.39461
6864.40455,0.39364
6862.47580,0.39273
6860.54706,0.39262
6858.61831,0.39195
6856.68957,0.39082
6854.76082,0.39143
6852.83208,0.39416
6850.90333,0.39571
6848.97459,0.39344
6847.04584,0.39034
6845.11710,0.39050
6843.18835,0.39140
6841.25960,0.38975
6839.33086,0.38873
6837.40211,0.39131
6835.47337,0.39394
6833.54462,0.39248
6831.61588,0.38980
6829.68713,0.38975
6827.75839,0.39122
6825.82964,0.39333
6823.90090,0.39499
6821.97215,0.39360
6820.04341,0.39082
6818.11466,0.39039
6816.18592,0.39142
6814.25717,0.39173
6812.32843,0.39274
6810.39968,0.39440
6808.47093,0.39395
6806.54219,0.39195
6804.61344,0.39064
6802.68470,0.39038
6800.75595,0.39040
6798.82721,0.38934
6796.89846,0.38710
6794.96972,0.38597
6793.04097,0.38810
6791.11223,0.39140
6789.18348,0.39195
6787.25474,0.39126
6785.32599,0.39172
6783.39725,0.39213
6781.46850,0.39211
6779.53975,0.39125
6777.61101,0.38908
6775.68226,0.38757
6773.75352,0.38850
6771.82477,0.39027
6769.89603,0.38992
6767.96728,0.38864
6766.03854,0.38902
6764.10979,0.38921
6762.18105,0.38893
6760.25230,0.39106
6758.32356,0.39331
6756.39481,0.39225
6754.46607,0.39084
6752.53732,0.39200
6750.60858,0.39332
6748.67983,0.39231
6746.75108,0.39093
6744.82234,0.39191
6742.89359,0.39423
6740.96485,0.39514
6739.03610,0.39419
6737.10736,0.39262
6735.17861,0.39107
6733.24987,0.38978
6731.32112,0.38901
6729.39238,0.38857
6727.46363,0.38859
6725.53489,0.38960
6723.60614,0.39107
6721.67740,0.39206
6719.74865,0.39211
6717.81991,0.39047
6715.89116,0.38823
6713.96241,0.38733
6712.03367,0.38851
6710.10492,0.39165
6708.17618,0.39343
6706.24743,0.39154
6704.31869,0.38952
6702.38994,0.39050
6700.46120,0.39257
6698.53245,0.39158
6696.60371,0.38857
6694.67496,0.38861
6692.74622,0.39090
6690.81747,0.39202
6688.88873,0.39249
6686.95998,0.39274
6685.03123,0.39244
6683.10249,0.39297
6681.17374,0.39372
6679.24500,0.39240
6677.31625,0.39116
6675.38751,0.39226
6673.45876,0.39309
6671.53002,0.39291
6669.60127,0.39256
6667.67253,0.39149
6665.74378,0.39107
6663.81504,0.39124
6661.88629,0.39002
6659.95755,0.38892
6658.02880,0.38977
6656.10006,0.39145
6654.17131,0.39243
6652.24256,0.39189
6650.31382,0.39004
6648.38507,0.38859
6646.45633,0.38927
6644.52758,0.39172
6642.59884,0.39394
6640.67009,0.39428
6638.74135,0.39304
6636.81260,0.39259
6634.88386,0.39390
6632.95511,0.39494
6631.02637,0.39454
6629.09762,0.39306
6627.16888,0.39108
6625.24013,0.38960
6623.31139,0.38942
6621.38264,0.38998
6619.45389,0.39060
6617.52515,0.39211
6615.59640,0.39446
6613.66766,0.39574
6611.73891,0.39528
6609.81017,0.39394
6607.88142,0.39230
6605.95268,0.39171
6604.02393,0.39339
6602.09519,0.39483
6600.16644,0.39341
6598.23770,0.39164
6596.30895,0.39234
6594.38021,0.39348
6592.45146,0.39245
6590.52271,0.39136
6588.59397,0.39188
6586.66522,0.39254
6584.73648,0.39297
6582.80773,0.39306
6580.87899,0.39183
6578.95024,0.38933
6577.02150,0.38761
6575.09275,0.38873
6573.16401,0.39152
6571.23526,0.39193
6569.30652,0.38836
6567.37777,0.38519
6565.44903,0.38599
6563.52028,0.38828
6561.59154,0.38953
6559.66279,0.39078
6557.73404,0.39220
6555.80530,0.39160
6553.87655,0.38939
6551.94781,0.38890
6550.01906,0.39093
6548.09032,0.39289
6546.16157,0.39290
6544.23283,0.39206
6542.30408,0.39133
6540.37534,0.39024
6538.44659,0.38937
6536.51785,0.38999
6534.58910,0.39136
6532.66036,0.39130
6530.73161,0.38986
6528.80287,0.38852
6526.87412,0.38816
6524.94537,0.38902
6523.01663,0.39019
6521.08788,0.39148
6519.15914,0.39283
6517.23039,0.39286
6515.30165,0.39169
6513.37290,0.39062
6511.44416,0.39044
6509.51541,0.39144
6507.58667,0.39258
6505.65792,0.39280
6503.72918,0.39216
6501.80043,0.39142
6499.87169,0.39135
6497.94294,0.39170
6496.01419,0.39141
6494.08545,0.39034
6492.15670,0.39019
6490.22796,0.39153
6488.29921,0.39209
6486.37047,0.39060
6484.44172,0.38908
6482.51298,0.38972
6480.58423,0.39168
6478.65549,0.39201
6476.72674,0.38992
6474.79800,0.38823
6472.86925,0.38874
6470.94051,0.39016
6469.01176,0.39077
6467.08302,0.39004
6465.15427,0.38886
6463.22552,0.38849
6461.29678,0.39012
6459.36803,0.39286
6457.43929,0.39319
6455.51054,0.39089
6453.58180,0.38906
6451.65305,0.38840
6449.72431,0.38894
6447.79556,0.39054
6445.86682,0.39054
6443.93807,0.38880
6442.00933,0.38886
6440.08058,0.39090
6438.15184,0.39239
6436.22309,0.39275
6434.29434,0.39230
6432.36560,0.39097
6430.43685,0.38959
6428.50811,0.38958
6426.57936,0.39057
6424.65062,0.39123
6422.72187,0.39212
6420.79313,0.39378
6418.86438,0.39431
6416.93564,0.39321
6415.00689,0.39259
6413.07815,0.39318
6411.14940,0.39359
6409.22066,0.39262
6407.29191,0.39091
6405.36317,0.38996
6403.43442,0.39032
6401.50567,0.39148
6399.57693,0.39164
6397.64818,0.38990
6395.71944,0.38883
6393.79069,0.39081
6391.86195,0.39413
6389.93320,0.39562
6388.00446,0.39513
6386.07571,0.39445
6384.14697,0.39347
6382.21822,0.39174
6380.28948,0.39084
6378.36073,0.39119
6376.43199,0.39147
6374.50324,0.39080
6372.57450,0.38955
6370.64575,0.38968
6368.71700,0.39151
6366.78826,0.39259
6364.85951,0.39187
6362.93077,0.39007
6361.00202,0.38782
6359.07328,0.38625
6357.14453,0.38651
6355.21579,0.38802
6353.28704,0.38984
6351.35830,0.39178
6349.42955,0.39258
6347.50081,0.39200
6345.57206,0.39203
6343.64332,0.39139
6341.71457,0.38801
6339.78582,0.38597
6337.85708,0.38801
6335.92833,0.38945
6333.99959,0.38846
6332.07084,0.38857
6330.14210,0.38954
6328.21335,0.38920
6326.28461,0.38822
6324.35586,0.38746
6322.42712,0.38723
6320.49837,0.38809
6318.56963,0.38956
6316.64088,0.38980
6314.71214,0.38870
6312.78339,0.38884
6310.85465,0.38936
6308.92590,0.38805
6306.99715,0.38743
6305.06841,0.38871
6303.13966,0.38929
6301.21092,0.38836
6299.28217,0.38726
6297.35343,0.38726
6295.42468,0.38807
6293.49594,0.38856
6291.56719,0.38892
6289.63845,0.38996
6287.70970,0.39136
6285.78096,0.39239
6283.85221,0.39240
6281.92347,0.39176
6279.99472,0.39138
6278.06598,0.39026
6276.13723,0.38865
6274.20848,0.38879
6272.27974,0.39000
6270.35099,0.39020
6268.42225,0.38884
6266.49350,0.38735
6264.56476,0.38840
6262.63601,0.39106
6260.70727,0.39153
6258.77852,0.39003
6256.84978,0.38920
6254.92103,0.38835
6252.99229,0.38652
6251.06354,0.38585
6249.13480,0.38712
6247.20605,0.38856
6245.27730,0.38924
6243.34856,0.38932
6241.41981,0.38939
6239.49107,0.39002
6237.56232,0.39053
6235.63358,0.39006
6233.70483,0.38925
6231.77609,0.38911
6229.84734,0.38908
6227.91860,0.38871
6225.98985,0.38949
6224.06111,0.39088
6222.13236,0.39036
6220.20362,0.38890
6218.27487,0.38843
6216.34613,0.38857
6214.41738,0.38876
6212.48863,0.38820
6210.55989,0.38716
6208.63114,0.38728
6206.70240,0.38814
6204.77365,0.38824
6202.84491,0.38783
6200.91616,0.38819
6198.98742,0.38979
6197.05867,0.39145
6195.12993,0.39197
6193.20118,0.39076
6191.27244,0.38808
6189.34369,0.38645
6187.41495,0.38724
6185.48620,0.38774
6183.55746,0.38679
6181.62871,0.38651
6179.69996,0.38728
6177.77122,0.38707
6175.84247,0.38508
6173.91373,0.38318
6171.98498,0.38321
6170.05624,0.38459
6168.12749,0.38552
6166.19875,0.38493
6164.27000,0.38392
6162.34126,0.38490
6160.41251,0.38748
6158.48377,0.38813
6156.55502,0.38621
6154.62628,0.38489
6152.69753,0.38530
6150.76878,0.38617
6148.84004,0.38640
6146.91129,0.38499
6144.98255,0.38276
6143.05380,0.38196
6141.12506,0.38322
6139.19631,0.38573
6137.26757,0.38807
6135.33882,0.38859
6133.41008,0.38690
6131.48133,0.38463
6129.55259,0.38373
6127.62384,0.38370
6125.69510,0.38308
6123.76635,0.38280
6121.83761,0.38404
6119.90886,0.38503
6117.98011,0.38404
6116.05137,0.38209
6114.12262,0.38081
6112.19388,0.38117
6110.26513,0.38258
6108.33639,0.38296
6106.40764,0.38265
6104.47890,0.38315
6102.55015,0.38342
6100.62141,0.38298
6098.69266,0.38315
6096.76392,0.38378
6094.83517,0.38348
6092.90643,0.38257
6090.97768,0.38276
6089.04893,0.38346
6087.12019,0.38282
6085.19144,0.38137
6083.26270,0.38033
6081.33395,0.37972
6079.40521,0.37957
6077.47646,0.38016
6075.54772,0.38143
6073.61897,0.38219
6071.69023,0.38167
6069.76148,0.38097
6067.83274,0.38082
6065.90399,0.38098
6063.97525,0.38145
6062.04650,0.38215
6060.11776,0.38285
6058.18901,0.38344
6056.26026,0.38411
6054.33152,0.38506
6052.40277,0.38555
6050.47403,0.38508
6048.54528,0.38508
6046.61654,0.38651
6044.68779,0.38801
6042.75905,0.38808
6040.83030,0.38693
6038.90156,0.38579
6036.97281,0.38542
6035.04407,0.38490
6033.11532,0.38349
6031.18658,0.38250
6029.25783,0.38222
6027.32909,0.38136
6025.40034,0.38017
6023.47159,0.37975
6021.54285,0.37986
6019.61410,0.37956
6017.68536,0.37881
6015.75661,0.37774
6013.82787,0.37613
6011.89912,0.37488
6009.97038,0.37470
6008.04163,0.37434
6006.11289,0.37332
6004.18414,0.37287
6002.25540,0.37311
6000.32665,0.37305
5998.39791,0.37213
5996.46916,0.37037
5994.54041,0.36915
5992.61167,0.36927
5990.68292,0.36965
5988.75418,0.36948
5986.82543,0.36832
5984.89669,0.36648
5982.96794,0.36494
5981.03920,0.36339
5979.11045,0.36169
5977.18171,0.36087
5975.25296,0.36067
5973.32422,0.35991
5971.39547,0.35896
5969.46673,0.35863
5967.53798,0.35844
5965.60924,0.35763
5963.68049,0.35653
5961.75174,0.35667
5959.82300,0.35820
5957.89425,0.35890
5955.96551,0.35795
5954.03676,0.35725
5952.10802,0.35767
5950.17927,0.35756
5948.25053,0.35660
5946.32178,0.35655
5944.39304,0.35759
5942.46429,0.35792
5940.53555,0.35685
5938.60680,0.35609
5936.67806,0.35697
5934.74931,0.35840
5932.82057,0.35899
5930.89182,0.35893
5928.96307,0.35920
5927.03433,0.36068
5925.10558,0.36335
5923.17684,0.36492
5921.24809,0.36395
5919.31935,0.36295
5917.39060,0.36419
5915.46186,0.36581
5913.53311,0.36567
5911.60437,0.36530
5909.67562,0.36591
5907.74688,0.36606
5905.81813,0.36540
5903.88939,0.36456
5901.96064,0.36367
5900.03189,0.36403
5898.10315,0.36616
5896.17440,0.36801
5894.24566,0.36846
5892.31691,0.36840
5890.38817,0.36833
5888.45942,0.36790
5886.53068,0.36794
5884.60193,0.37030
5882.67319,0.37407
5880.74444,0.37610
5878.81570,0.37575
5876.88695,0.37438
5874.95821,0.37309
5873.02946,0.37299
5871.10072,0.37465
5869.17197,0.37644
5867.24322,0.37655
5865.31448,0.37550
5863.38573,0.37478
5861.45699,0.37519
5859.52824,0.37576
5857.59950,0.37546
5855.67075,0.37544
5853.74201,0.37628
5851.81326,0.37697
5849.88452,0.37762
5847.95577,0.37917
5846.02703,0.38064
5844.09828,0.38019
5842.16954,0.37885
5840.24079,0.37905
5838.31205,0.38033
5836.38330,0.38078
5834.45455,0.38065
5832.52581,0.38076
5830.59706,0.38093
5828.66832,0.38114
5826.73957,0.38084
5824.81083,0.37987
5822.88208,0.37982
5820.95334,0.38111
5819.02459,0.38216
5817.09585,0.38215
5815.16710,0.38164
5813.23836,0.38099
5811.30961,0.37982
5809.38087,0.37846
5807.45212,0.37794
5805.52337,0.37824
5803.59463,0.37838
5801.66588,0.37791
5799.73714,0.37725
5797.80839,0.37706
5795.87965,0.37758
5793.95090,0.37808
5792.02216,0.37797
5790.09341,0.37803
5788.16467,0.37853
5786.23592,0.37919
5784.30718,0.38039
5782.37843,0.38146
5780.44969,0.38129
5778.52094,0.38048
5776.59220,0.38037
5774.66345,0.38069
5772.73470,0.38020
5770.80596,0.37961
5768.87721,0.38002
5766.94847,0.38108
5765.01972,0.38264
5763.09098,0.38424
5761.16223,0.38462
5759.23349,0.38430
5757.30474,0.38473
5755.37600,0.38508
5753.44725,0.38452
5751.51851,0.38417
5749.58976,0.38433
5747.66102,0.38406
5745.73227,0.38280
5743.80352,0.38155
5741.87478,0.38144
5739.94603,0.38189
5738.01729,0.38248
5736.08854,0.38352
5734.15980,0.38457
5732.23105,0.38478
5730.30231,0.38443
5728.37356,0.38497
5726.44482,0.38636
5724.51607,0.38674
5722.58733,0.38601
5720.65858,0.38543
5718.72984,0.38496
5716.80109,0.38423
5714.87235,0.38367
5712.94360,0.38325
5711.01485,0.38275
5709.08611,0.38279
5707.15736,0.38374
5705.22862,0.38441
5703.29987,0.38370
5701.37113,0.38259
5699.44238,0.38231
5697.51364,0.38230
5695.58489,0.38206
5693.65615,0.38252
5691.72740,0.38359
5689.79866,0.38367
5687.86991,0.38283
5685.94117,0.38218
5684.01242,0.38169
5682.08368,0.38126
5680.15493,0.38108
5678.22618,0.38134
5676.29744,0.38189
5674.36869,0.38210
5672.43995,0.38170
5670.51120,0.38097
5668.58246,0.38048
5666.65371,0.38014
5664.72497,0.38003
5662.79622,0.38107
5660.86748,0.38252
5658.93873,0.38267
5657.00999,0.38215
5655.08124,0.38242
5653.15250,0.38341
5651.22375,0.38457
5649.29500,0.38543
5647.36626,0.38517
5645.43751,0.38404
5643.50877,0.38354
5641.58002,0.38391
5639.65128,0.38391
5637.72253,0.38344
5635.79379,0.38324
5633.86504,0.38353
5631.93630,0.38415
5630.00755,0.38448
5628.07881,0.38404
5626.15006,0.38353
5624.22132,0.38358
5622.29257,0.38391
5620.36383,0.38450
5618.43508,0.38506
5616.50633,0.38495
5614.57759,0.38474
5612.64884,0.38513
5610.72010,0.38545
5608.79135,0.38533
5606.86261,0.38540
5604.93386,0.38551
5603.00512,0.38510
5601.07637,0.38438
5599.14763,0.38389
5597.21888,0.38363
5595.29014,0.38349
5593.36139,0.38382
5591.43265,0.38441
5589.50390,0.38467
5587.57516,0.38492
5585.64641,0.38521
5583.71766,0.38493
5581.78892,0.38429
5579.86017,0.38402
5577.93143,0.38406
5576.00268,0.38392
5574.07394,0.38361
5572.14519,0.38336
5570.21645,0.38330
5568.28770,0.38329
5566.35896,0.38324
5564.43021,0.38359
5562.50147,0.38427
5560.57272,0.38480
5558.64398,0.38525
5556.71523,0.38541
5554.78648,0.38521
5552.85774,0.38499
5550.92899,0.38453
5549.00025,0.38407
5547.07150,0.38450
5545.14276,0.38552
5543.21401,0.38606
5541.28527,0.38591
5539.35652,0.38573
5537.42778,0.38554
5535.49903,0.38500
5533.57029,0.38423
5531.64154,0.38332
5529.71280,0.38273
5527.78405,0.38307
5525.85531,0.38377
5523.92656,0.38394
5521.99781,0.38374
5520.06907,0.38360
5518.14032,0.38318
5516.21158,0.38286
5514.28283,0.38370
5512.35409,0.38524
5510.42534,0.38609
5508.49660,0.38582
5506.56785,0.38492
5504.63911,0.38442
5502.71036,0.38472
5500.78162,0.38503
5498.85287,0.38525
5496.92413,0.38588
5494.99538,0.38637
5493.06664,0.38617
5491.13789,0.38593
5489.20914,0.38564
5487.28040,0.38514
5485.35165,0.38529
5483.42291,0.38606
5481.49416,0.38665
5479.56542,0.38690
5477.63667,0.38678
5475.70793,0.38622
5473.77918,0.38576
5471.85044,0.38595
5469.92169,0.38616
5467.99295,0.38597
5466.06420,0.38580
5464.13546,0.38595
5462.20671,0.38634
5460.27796,0.38613
5458.34922,0.38553
5456.42047,0.38556
5454.49173,0.38537
5452.56298,0.38456
5450.63424,0.38449
5448.70549,0.38485
5446.77675,0.38445
5444.84800,0.38425
5442.91926,0.38508
5440.99051,0.38588
5439.06177,0.38594
5437.13302,0.38570
5435.20428,0.38587
5433.27553,0.38632
5431.34679,0.38634
5429.41804,0.38602
5427.48929,0.38582
5425.56055,0.38577
5423.63180,0.38579
5421.70306,0.38589
5419.77431,0.38573
5417.84557,0.38530
5415.91682,0.38497
5413.98808,0.38516
5412.05933,0.38605
5410.13059,0.38666
5408.20184,0.38605
5406.27310,0.38539
5404.34435,0.38585
5402.41561,0.38643
5400.48686,0.38621
5398.55811,0.38563
5396.62937,0.38508
5394.70062,0.38499
5392.77188,0.38562
5390.84313,0.38633
5388.91439,0.38664
5386.98564,0.38642
5385.05690,0.38576
5383.12815,0.38542
5381.19941,0.38578
5379.27066,0.38621
5377.34192,0.38625
5375.41317,0.38618
5373.48443,0.38621
5371.55568,0.38589
5369.62694,0.38538
5367.69819,0.38579
5365.76944,0.38685
5363.84070,0.38707
5361.91195,0.38638
5359.98321,0.38605
5358.05446,0.38614
5356.12572,0.38589
5354.19697,0.38547
5352.26823,0.38531
5350.33948,0.38563
5348.41074,0.38626
5346.48199,0.38692
5344.55325,0.38726
5342.62450,0.38713
5340.69576,0.38728
5338.76701,0.38787
5336.83827,0.38805
5334.90952,0.38769
5332.98077,0.38734
5331.05203,0.38723
5329.12328,0.38693
5327.19454,0.38660
5325.26579,0.38660
5323.33705,0.38657
5321.40830,0.38679
5319.47956,0.38781
5317.55081,0.38873
5315.62207,0.38836
5313.69332,0.38721
5311.76458,0.38667
5309.83583,0.38690
5307.90709,0.38696
5305.97834,0.38670
5304.04959,0.38675
5302.12085,0.38687
5300.19210,0.38670
5298.26336,0.38643
5296.33461,0.38627
5294.40587,0.38636
5292.47712,0.38659
5290.54838,0.38702
5288.61963,0.38750
5286.69089,0.38722
5284.76214,0.38639
5282.83340,0.38630
5280.90465,0.38722
5278.97591,0.38810
5277.04716,0.38826
5275.11842,0.38794
5273.18967,0.38755
5271.26092,0.38733
5269.33218,0.38728
5267.40343,0.38741
5265.47469,0.38745
5263.54594,0.38719
5261.61720,0.38680
5259.68845,0.38654
5257.75971,0.38669
5255.83096,0.38709
5253.90222,0.38718
5251.97347,0.38712
5250.04473,0.38708
5248.11598,0.38686
5246.18724,0.38674
5244.25849,0.38682
5242.32975,0.38676
5240.40100,0.38656
5238.47225,0.38641
5236.54351,0.38634
5234.61476,0.38673
5232.68602,0.38734
5230.75727,0.38718
5228.82853,0.38678
5226.89978,0.38696
5224.97104,0.38705
5223.04229,0.38699
5221.11355,0.38689
5219.18480,0.38640
5217.25606,0.38613
5215.32731,0.38637
5213.39857,0.38654
5211.46982,0.38669
5209.54107,0.38708
5207.61233,0.38739
5205.68358,0.38735
5203.75484,0.38732
5201.82609,0.38783
5199.89735,0.38845
5197.96860,0.38817
5196.03986,0.38714
5194.11111,0.38658
5192.18237,0.38704
5190.25362,0.38766
5188.32488,0.38756
5186.39613,0.38717
5184.46739,0.38733
5182.53864,0.38770
5180.60990,0.38743
5178.68115,0.38721
5176.75240,0.38785
5174.82366,0.38819
5172.89491,0.38757
5170.96617,0.38683
5169.03742,0.38667
5167.10868,0.38739
5165.17993,0.38823
5163.25119,0.38816
5161.32244,0.38750
5159.39370,0.38688
5157.46495,0.38630
5155.53621,0.38587
5153.60746,0.38592
5151.67872,0.38649
5149.74997,0.38728
5147.82123,0.38804
5145.89248,0.38859
5143.96373,0.38865
5142.03499,0.38822
5140.10624,0.38785
5138.17750,0.38765
5136.24875,0.38749
5134.32001,0.38746
5132.39126,0.38721
5130.46252,0.38659
5128.53377,0.38629
5126.60503,0.38672
5124.67628,0.38778
5122.74754,0.38890
5120.81879,0.38903
5118.89005,0.38834
5116.96130,0.38782
5115.03255,0.38727
5113.10381,0.38652
5111.17506,0.38623
5109.24632,0.38667
5107.31757,0.38756
5105.38883,0.38828
5103.46008,0.38829
5101.53134,0.38780
5099.60259,0.38736
5097.67385,0.38726
5095.74510,0.38759
5093.81636,0.38802
5091.88761,0.38822
5089.95887,0.38849
5088.03012,0.38884
5086.10138,0.38882
5084.17263,0.38864
5082.24388,0.38848
5080.31514,0.38808
5078.38639,0.38761
5076.45765,0.38741
5074.52890,0.38758
5072.60016,0.38792
5070.67141,0.38797
5068.74267,0.38785
5066.81392,0.38823
5064.88518,0.38871
5062.95643,0.38864
5061.02769,0.38837
5059.09894,0.38816
5057.17020,0.38829
5055.24145,0.38866
5053.31270,0.38834
5051.38396,0.38717
5049.45521,0.38601
5047.52647,0.38567
5045.59772,0.38654
5043.66898,0.38767
5041.74023,0.38794
5039.81149,0.38773
5037.88274,0.38772
5035.95400,0.38778
5034.02525,0.38784
5032.09651,0.38785
5030.16776,0.38763
5028.23902,0.38742
5026.31027,0.38755
5024.38153,0.38779
5022.45278,0.38774
5020.52403,0.38765
5018.59529,0.38787
5016.66654,0.38819
5014.73780,0.38828
5012.80905,0.38807
5010.88031,0.38787
5008.95156,0.38798
5007.02282,0.38817
5005.09407,0.38809
5003.16533,0.38775
5001.23658,0.38738
4999.30784,0.38722
4997.37909,0.38742
4995.45035,0.38783
4993.52160,0.38794
4991.59286,0.38763
4989.66411,0.38754
4987.73536,0.38785
4985.80662,0.38801
4983.87787,0.38815
4981.94913,0.38846
4980.02038,0.38833
4978.09164,0.38782
4976.16289,0.38780
4974.23415,0.38808
4972.30540,0.38817
4970.37666,0.38823
4968.44791,0.38814
4966.51917,0.38793
4964.59042,0.38804
4962.66168,0.38829
4960.73293,0.38816
4958.80418,0.38795
4956.87544,0.38810
4954.94669,0.38826
4953.01795,0.38802
4951.08920,0.38796
4949.16046,0.38852
4947.23171,0.38892
4945.30297,0.38879
4943.37422,0.38878
4941.44548,0.38877
4939.51673,0.38838
4937.58799,0.38801
4935.65924,0.38804
4933.73050,0.38832
4931.80175,0.38835
4929.87301,0.38798
4927.94426,0.38750
4926.01551,0.38727
4924.08677,0.38763
4922.15802,0.38832
4920.22928,0.38866
4918.30053,0.38847
4916.37179,0.38803
4914.44304,0.38777
4912.51430,0.38804
4910.58555,0.38843
4908.65681,0.38849
4906.72806,0.38822
4904.79932,0.38758
4902.87057,0.38709
4900.94183,0.38733
4899.01308,0.38761
4897.08434,0.38730
4895.15559,0.38714
4893.22684,0.38762
4891.29810,0.38816
4889.36935,0.38812
4887.44061,0.38776
4885.51186,0.38790
4883.58312,0.38851
4881.65437,0.38902
4879.72563,0.38898
4877.79688,0.38836
4875.86814,0.38798
4873.93939,0.38831
4872.01065,0.38844
4870.08190,0.38784
4868.15316,0.38732
4866.22441,0.38743
4864.29566,0.38777
4862.36692,0.38809
4860.43817,0.38839
4858.50943,0.38858
4856.58068,0.38859
4854.65194,0.38853
4852.72319,0.38848
4850.79445,0.38830
4848.86570,0.38813
4846.93696,0.38812
4845.00821,0.38779
4843.07947,0.38719
4841.15072,0.38692
4839.22198,0.38714
4837.29323,0.38744
4835.36449,0.38738
4833.43574,0.38724
4831.50699,0.38723
4829.57825,0.38724
4827.64950,0.38746
4825.72076,0.38770
4823.79201,0.38773
4821.86327,0.38744
4819.93452,0.38658
4818.00578,0.38585
4816.07703,0.38604
4814.14829,0.38691
4812.21954,0.38785
4810.29080,0.38835
4808.36205,0.38825
4806.43331,0.38794
4804.50456,0.38778
4802.57582,0.38760
4800.64707,0.38736
4798.71832,0.38711
4796.78958,0.38666
4794.86083,0.38627
4792.93209,0.38649
4791.00334,0.38707
4789.07460,0.38737
4787.14585,0.38720
4785.21711,0.38678
4783.28836,0.38633
4781.35962,0.38609
4779.43087,0.38635
4777.50213,0.38688
4775.57338,0.38675
4773.64464,0.38591
4771.71589,0.38541
4769.78714,0.38586
4767.85840,0.38681
4765.92965,0.38737
4764.00091,0.38729
4762.07216,0.38704
4760.14342,0.38679
4758.21467,0.38669
4756.28593,0.38679
4754.35718,0.38656
4752.42844,0.38614
4750.49969,0.38648
4748.57095,0.38723
4746.64220,0.38702
4744.71346,0.38627
4742.78471,0.38621
4740.85597,0.38645
4738.92722,0.38641
4736.99847,0.38649
4735.06973,0.38691
4733.14098,0.38710
4731.21224,0.38683
4729.28349,0.38653
4727.35475,0.38619
4725.42600,0.38571
4723.49726,0.38556
4721.56851,0.38557
4719.63977,0.38515
4717.71102,0.38449
4715.78228,0.38407
4713.85353,0.38389
4711.92479,0.38378
4709.99604,0.38385
4708.06729,0.38382
4706.13855,0.38341
4704.20980,0.38288
4702.28106,0.38237
4700.35231,0.38188
4698.42357,0.38140
4696.49482,0.38112
4694.56608,0.38116
4692.63733,0.38095
4690.70859,0.38008
4688.77984,0.37881
4686.85110,0.37755
4684.92235,0.37637
4682.99361,0.37491
4681.06486,0.37268
4679.13612,0.36966
4677.20737,0.36632
4675.27862,0.36313
4673.34988,0.36026
4671.42113,0.35761
4669.49239,0.35496
4667.56364,0.35267
4665.63490,0.35148
4663.70615,0.35132
4661.77741,0.35165
4659.84866,0.35242
4657.91992,0.35380
4655.99117,0.35576
4654.06243,0.35783
4652.13368,0.35973
4650.20494,0.36157
4648.27619,0.36314
4646.34745,0.36422
4644.41870,0.36469
4642.48995,0.36436
4640.56121,0.36352
4638.63246,0.36250
4636.70372,0.36110
4634.77497,0.35929
4632.84623,0.35746
4630.91748,0.35586
4628.98874,0.35439
4627.05999,0.35327
4625.13125,0.35292
4623.20250,0.35310
4621.27376,0.35326
4619.34501,0.35323
4617.41627,0.35323
4615.48752,0.35313
4613.55877,0.35260
4611.63003,0.35160
4609.70128,0.35052
4607.77254,0.34997
4605.84379,0.35031
4603.91505,0.35156
4601.98630,0.35346
4600.05756,0.35551
4598.12881,0.35766
4596.20007,0.36000
4594.27132,0.36217
4592.34258,0.36404
4590.41383,0.36583
4588.48509,0.36730
4586.55634,0.36810
4584.62760,0.36848
4582.69885,0.36850
4580.77010,0.36775
4578.84136,0.36612
4576.91261,0.36403
4574.98387,0.36209
4573.05512,0.36059
4571.12638,0.35980
4569.19763,0.36014
4567.26889,0.36168
4565.34014,0.36399
4563.41140,0.36669
4561.48265,0.36930
4559.55391,0.37120
4557.62516,0.37250
4555.69642,0.37362
4553.76767,0.37430
4551.83893,0.37457
4549.91018,0.37509
4547.98143,0.37603
4546.05269,0.37682
4544.12394,0.37724
4542.19520,0.37778
4540.26645,0.37849
4538.33771,0.37906
4536.40896,0.37930
4534.48022,0.37895
4532.55147,0.37845
4530.62273,0.37867
4528.69398,0.37944
4526.76524,0.37985
4524.83649,0.37986
4522.90775,0.37986
4520.97900,0.37983
4519.05025,0.37979
4517.12151,0.37973
4515.19276,0.37956
4513.26402,0.37942
4511.33527,0.37945
4509.40653,0.37942
4507.47778,0.37892
4505.54904,0.37824
4503.62029,0.37802
4501.69155,0.37843
4499.76280,0.37930
4497.83406,0.38047
4495.90531,0.38154
4493.97657,0.38185
4492.04782,0.38155
4490.11908,0.38161
4488.19033,0.38222
4486.26158,0.38268
4484.33284,0.38250
4482.40409,0.38224
4480.47535,0.38243
4478.54660,0.38244
4476.61786,0.38193
4474.68911,0.38163
4472.76037,0.38212
4470.83162,0.38286
4468.90288,0.38284
4466.97413,0.38241
4465.04539,0.38244
4463.11664,0.38268
4461.18790,0.38270
4459.25915,0.38244
4457.33041,0.38214
4455.40166,0.38199
4453.47291,0.38186
4451.54417,0.38158
4449.61542,0.38110
4447.68668,0.38062
4445.75793,0.38026
4443.82919,0.38007
4441.90044,0.38029
4439.97170,0.38089
4438.04295,0.38126
4436.11421,0.38091
4434.18546,0.38033
4432.25672,0.38035
4430.32797,0.38089
4428.39923,0.38122
4426.47048,0.38116
4424.54173,0.38101
4422.61299,0.38077
4420.68424,0.38045
4418.75550,0.38033
4416.82675,0.38036
4414.89801,0.38034
4412.96926,0.38006
4411.04052,0.37969
4409.11177,0.37982
4407.18303,0.38024
4405.25428,0.38011
4403.32554,0.37939
4401.39679,0.37855
4399.46805,0.37795
4397.53930,0.37779
4395.61056,0.37755
4393.68181,0.37673
4391.75306,0.37593
4389.82432,0.37553
4387.89557,0.37493
4385.96683,0.37415
4384.03808,0.37395
4382.10934,0.37407
4380.18059,0.37394
4378.25185,0.37350
4376.32310,0.37272
4374.39436,0.37186
4372.46561,0.37118
4370.53687,0.37064
4368.60812,0.37009
4366.67938,0.36921
4364.75063,0.36815
4362.82189,0.36742
4360.89314,0.36680
4358.96439,0.36584
4357.03565,0.36491
4355.10690,0.36436
4353.17816,0.36397
4351.24941,0.36347
4349.32067,0.36289
4347.39192,0.36246
4345.46318,0.36212
4343.53443,0.36151
4341.60569,0.36063
4339.67694,0.35978
4337.74820,0.35923
4335.81945,0.35912
4333.89071,0.35944
4331.96196,0.35999
4330.03321,0.36046
4328.10447,0.36062
4326.17572,0.36069
4324.24698,0.36120
4322.31823,0.36237
4320.38949,0.36375
4318.46074,0.36492
4316.53200,0.36596
4314.60325,0.36685
4312.67451,0.36748
4310.74576,0.36829
4308.81702,0.36944
4306.88827,0.37032
4304.95953,0.37032
4303.03078,0.36979
4301.10204,0.36950
4299.17329,0.36946
4297.24454,0.36908
4295.31580,0.36843
4293.38705,0.36776
4291.45831,0.36682
4289.52956,0.36582
4287.60082,0.36509
4285.67207,0.36451
4283.74333,0.36390
4281.81458,0.36307
4279.88584,0.36197
4277.95709,0.36101
4276.02835,0.36032
4274.09960,0.35941
4272.17086,0.35798
4270.24211,0.35641
4268.31336,0.35514
4266.38462,0.35396
4264.45587,0.35264
4262.52713,0.35135
4260.59838,0.35044
4258.66964,0.34981
4256.74089,0.34912
4254.81215,0.34834
4252.88340,0.34745
4250.95466,0.34664
4249.02591,0.34653
4247.09717,0.34702
4245.16842,0.34756
4243.23968,0.34813
4241.31093,0.34882
4239.38219,0.34952
4237.45344,0.35035
4235.52469,0.35116
4233.59595,0.35137
4231.66720,0.35114
4229.73846,0.35114
4227.80971,0.35136
4225.88097,0.35150
4223.95222,0.35160
4222.02348,0.35174
4220.09473,0.35166
4218.16599,0.35125
4216.23724,0.35096
4214.30850,0.35092
4212.37975,0.35104
4210.45101,0.35137
4208.52226,0.35171
4206.59352,0.35187
4204.66477,0.35208
4202.73602,0.35243
4200.80728,0.35284
4198.87853,0.35354
4196.94979,0.35458
4195.02104,0.35556
4193.09230,0.35626
4191.16355,0.35689
4189.23481,0.35771
4187.30606,0.35838
4185.37732,0.35836
4183.44857,0.35805
4181.51983,0.35828
4179.59108,0.35920
4177.66234,0.36016
4175.73359,0.36042
4173.80484,0.36019
4171.87610,0.36031
4169.94735,0.36096
4168.01861,0.36158
4166.08986,0.36178
4164.16112,0.36183
4162.23237,0.36206
4160.30363,0.36236
4158.37488,0.36254
4156.44614,0.36248
4154.51739,0.36229
4152.58865,0.36238
4150.65990,0.36271
4148.73116,0.36283
4146.80241,0.36277
4144.87367,0.36284
4142.94492,0.36273
4141.01617,0.36205
4139.08743,0.36136
4137.15868,0.36112
4135.22994,0.36082
4133.30119,0.36011
4131.37245,0.35913
4129.44370,0.35808
4127.51496,0.35734
4125.58621,0.35703
4123.65747,0.35670
4121.72872,0.35605
4119.79998,0.35550
4117.87123,0.35533
4115.94249,0.35510
4114.01374,0.35472
4112.08500,0.35449
4110.15625,0.35433
4108.22750,0.35388
4106.29876,0.35312
4104.37001,0.35240
4102.44127,0.35188
4100.51252,0.35146
4098.58378,0.35115
4096.65503,0.35080
4094.72629,0.34994
4092.79754,0.34867
4090.86880,0.34747
4088.94005,0.34622
4087.01131,0.34471
4085.08256,0.34317
4083.15382,0.34149
4081.22507,0.33932
4079.29632,0.33686
4077.36758,0.33460
4075.43883,0.33246
4073.51009,0.33003
4071.58134,0.32708
4069.65260,0.32391
4067.72385,0.32082
4065.79511,0.31784
4063.86636,0.31507
4061.93762,0.31278
4060.00887,0.31114
4058.08013,0.31019
4056.15138,0.30959
4054.22264,0.30895
4052.29389,0.30840
4050.36515,0.30836
4048.43640,0.30887
4046.50765,0.30914
4044.57891,0.30860
4042.65016,0.30747
4040.72142,0.30612
4038.79267,0.30517
4036.86393,0.30533
4034.93518,0.30670
4033.00644,0.30917
4031.07769,0.31258
4029.14895,0.31625
4027.22020,0.31970
4025.29146,0.32336
4023.36271,0.32730
4021.43397,0.33135
4019.50522,0.33586
4017.57648,0.34044
4015.64773,0.34435
4013.71898,0.34761
4011.79024,0.35023
4009.86149,0.35181
4007.93275,0.35221
4006.00400,0.35193
4004.07526,0.35169
4002.14651,0.35169
4000.21777,0.35176
3998.28902,0.35217
3996.36028,0.35312
3994.43153,0.35447
3992.50279,0.35636
3990.57404,0.35830
3988.64530,0.35929
3986.71655,0.35946
3984.78780,0.35967
3982.85906,0.35997
3980.93031,0.36006
3979.00157,0.35998
3977.07282,0.35986
3975.14408,0.35975
3973.21533,0.35974
3971.28659,0.35998
3969.35784,0.36052
3967.42910,0.36097
3965.50035,0.36119
3963.57161,0.36151
3961.64286,0.36200
3959.71412,0.36234
3957.78537,0.36242
3955.85663,0.36250
3953.92788,0.36269
3951.99913,0.36290
3950.07039,0.36301
3948.14164,0.36297
3946.21290,0.36286
3944.28415,0.36268
3942.35541,0.36234
3940.42666,0.36200
3938.49792,0.36183
3936.56917,0.36184
3934.64043,0.36208
3932.71168,0.36250
3930.78294,0.36290
3928.85419,0.36308
3926.92545,0.36301
3924.99670,0.36286
3923.06795,0.36282
3921.13921,0.36297
3919.21046,0.36337
3917.28172,0.36378
3915.35297,0.36379
3913.42423,0.36353
3911.49548,0.36358
3909.56674,0.36396
3907.63799,0.36433
3905.70925,0.36492
3903.78050,0.36558
3901.85176,0.36557
3899.92301,0.36491
3897.99427,0.36425
3896.06552,0.36409
3894.13678,0.36458
3892.20803,0.36540
3890.27928,0.36597
3888.35054,0.36617
3886.42179,0.36630
3884.49305,0.36626
3882.56430,0.36620
3880.63556,0.36628
3878.70681,0.36637
3876.77807,0.36653
3874.84932,0.36671
3872.92058,0.36678
3870.99183,0.36666
3869.06309,0.36644
3867.13434,0.36647
3865.20560,0.36672
3863.27685,0.36671
3861.34811,0.36652
3859.41936,0.36648
3857.49061,0.36679
3855.56187,0.36765
3853.63312,0.36832
3851.70438,0.36780
3849.77563,0.36703
3847.84689,0.36660
3845.91814,0.36625
3843.98940,0.36592
3842.06065,0.36577
3840.13191,0.36575
3838.20316,0.36570
3836.27442,0.36563
3834.34567,0.36542
3832.41693,0.36489
3830.48818,0.36430
3828.55943,0.36406
3826.63069,0.36397
3824.70194,0.36375
3822.77320,0.36374
3820.84445,0.36374
3818.91571,0.36321
3816.98696,0.36263
3815.05822,0.36245
3813.12947,0.36244
3811.20073,0.36244
3809.27198,0.36257
3807.34324,0.36289
3805.41449,0.36323
3803.48575,0.36349
3801.55700,0.36351
3799.62826,0.36329
3797.69951,0.36343
3795.77076,0.36379
3793.84202,0.36399
3791.91327,0.36425
3789.98453,0.36465
3788.05578,0.36506
3786.12704,0.36541
3784.19829,0.36590
3782.26955,0.36674
3780.34080,0.36749
3778.41206,0.36767
3776.48331,0.36759
3774.55457,0.36743
3772.62582,0.36716
3770.69708,0.36689
3768.76833,0.36651
3766.83959,0.36615
3764.91084,0.36615
3762.98209,0.36634
3761.05335,0.36661
3759.12460,0.36707
3757.19586,0.36769
3755.26711,0.36850
3753.33837,0.36953
3751.40962,0.37035
3749.48088,0.37049
3747.55213,0.37039
3745.62339,0.37048
3743.69464,0.37029
3741.76590,0.36957
3739.83715,0.36892
3737.90841,0.36892
3735.97966,0.36939
3734.05091,0.36940
3732.12217,0.36873
3730.19342,0.36789
3728.26468,0.36709
3726.33593,0.36641
3724.40719,0.36587
3722.47844,0.36553
3720.54970,0.36547
3718.62095,0.36574
3716.69221,0.36627
3714.76346,0.36695
3712.83472,0.36759
3710.90597,0.36768
3708.97723,0.36710
3707.04848,0.36629
3705.11974,0.36557
3703.19099,0.36490
3701.26224,0.36414
3699.33350,0.36371
3697.40475,0.36396
3695.47601,0.36463
3693.54726,0.36552
3691.61852,0.36660
3689.68977,0.36746
3687.76103,0.36743
3685.83228,0.36662
3683.90354,0.36578
3681.97479,0.36527
3680.04605,0.36503
3678.11730,0.36506
3676.18856,0.36532
3674.25981,0.36536
3672.33107,0.36525
3670.40232,0.36526
3668.47357,0.36490
3666.54483,0.36419
3664.61608,0.36347
3662.68734,0.36254
3660.75859,0.36139
3658.82985,0.36015
3656.90110,0.35851
3654.97236,0.35637
3653.04361,0.35433
3651.11487,0.35262
3649.18612,0.35113
3647.25738,0.34998
3645.32863,0.34966
3643.39989,0.35067
3641.47114,0.35273
3639.54239,0.35515
3637.61365,0.35759
3635.68490,0.35973
3633.75616,0.36138
3631.82741,0.36251
3629.89867,0.36272
3627.96992,0.36149
3626.04118,0.35951
3624.11243,0.35774
3622.18369,0.35644
3620.25494,0.35584
3618.32620,0.35636
3616.39745,0.35788
3614.46871,0.35984
3612.53996,0.36200
3610.61122,0.36398
3608.68247,0.36527
3606.75372,0.36588
3604.82498,0.36626
3602.89623,0.36656
3600.96749,0.36676
3599.03874,0.36677
3597.11000,0.36675
3595.18125,0.36694
3593.25251,0.36725
3591.32376,0.36751
3589.39502,0.36768
3587.46627,0.36773
3585.53753,0.36770
3583.60878,0.36768
3581.68004,0.36779
3579.75129,0.36797
3577.82254,0.36796
3575.89380,0.36777
3573.96505,0.36763
3572.03631,0.36758
3570.10756,0.36765
3568.17882,0.36780
3566.25007,0.36781
3564.32133,0.36747
3562.39258,0.36704
3560.46384,0.36676
3558.53509,0.36640
3556.60635,0.36585
3554.67760,0.36563
3552.74886,0.36577
3550.82011,0.36577
3548.89137,0.36559
3546.96262,0.36552
3545.03387,0.36559
3543.10513,0.36559
3541.17638,0.36532
3539.24764,0.36494
3537.31889,0.36464
3535.39015,0.36421
3533.46140,0.36381
3531.53266,0.36387
3529.60391,0.36406
3527.67517,0.36375
3525.74642,0.36310
3523.81768,0.36255
3521.88893,0.36221
3519.96019,0.36211
3518.03144,0.36218
3516.10270,0.36234
3514.17395,0.36242
3512.24520,0.36229
3510.31646,0.36204
3508.38771,0.36169
3506.45897,0.36139
3504.53022,0.36143
3502.60148,0.36157
3500.67273,0.36138
3498.74399,0.36092
3496.81524,0.36038
3494.88650,0.35988
3492.95775,0.35938
3491.02901,0.35891
3489.10026,0.35852
3487.17152,0.35812
3485.24277,0.35772
3483.31402,0.35754
3481.38528,0.35753
3479.45653,0.35736
3477.52779,0.35689
3475.59904,0.35647
3473.67030,0.35641
3471.74155,0.35654
3469.81281,0.35637
3467.88406,0.35583
3465.95532,0.35536
3464.02657,0.35534
3462.09783,0.35558
3460.16908,0.35563
3458.24034,0.35540
3456.31159,0.35497
3454.38285,0.35440
3452.45410,0.35407
3450.52535,0.35419
3448.59661,0.35432
3446.66786,0.35406
3444.73912,0.35339
3442.81037,0.35285
3440.88163,0.35297
3438.95288,0.35355
3437.02414,0.35415
3435.09539,0.35462
3433.16665,0.35500
3431.23790,0.35539
3429.30916,0.35576
3427.38041,0.35608
3425.45167,0.35634
3423.52292,0.35654
3421.59418,0.35697
3419.66543,0.35761
3417.73668,0.35799
3415.80794,0.35802
3413.87919,0.35788
3411.95045,0.35760
3410.02170,0.35733
3408.09296,0.35752
3406.16421,0.35804
3404.23547,0.35822
3402.30672,0.35789
3400.37798,0.35764
3398.44923,0.35761
3396.52049,0.35749
3394.59174,0.35733
3392.66300,0.35742
3390.73425,0.35765
3388.80550,0.35761
3386.87676,0.35729
3384.94801,0.35708
3383.01927,0.35720
3381.09052,0.35754
3379.16178,0.35788
3377.23303,0.35814
3375.30429,0.35834
3373.37554,0.35847
3371.44680,0.35864
3369.51805,0.35885
3367.58931,0.35901
3365.66056,0.35918
3363.73182,0.35938
3361.80307,0.35934
3359.87433,0.35902
3357.94558,0.35892
3356.01683,0.35923
3354.08809,0.35954
3352.15934,0.35962
3350.23060,0.35957
3348.30185,0.35930
3346.37311,0.35883
3344.44436,0.35858
3342.51562,0.35874
3340.58687,0.35899
3338.65813,0.35895
3336.72938,0.35861
3334.80064,0.35833
3332.87189,0.35824
3330.94315,0.35837
3329.01440,0.35883
3327.08566,0.35929
3325.15691,0.35927
3323.22816,0.35896
3321.29942,0.35873
3319.37067,0.35867
3317.44193,0.35883
3315.51318,0.35899
3313.58444,0.35905
3311.65569,0.35912
3309.72695,0.35922
3307.79820,0.35929
3305.86946,0.35925
3303.94071,0.35908
3302.01197,0.35889
3300.08322,0.35885
3298.15448,0.35886
3296.22573,0.35872
3294.29698,0.35874
3292.36824,0.35905
3290.43949,0.35902
3288.51075,0.35852
3286.58200,0.35807
3284.65326,0.35796
3282.72451,0.35808
3280.79577,0.35815
3278.86702,0.35812
3276.93828,0.35802
3275.00953,0.35775
3273.08079,0.35736
3271.15204,0.35719
3269.22330,0.35735
3267.29455,0.35753
3265.36581,0.35759
3263.43706,0.35743
3261.50831,0.35696
3259.57957,0.35642
3257.65082,0.35611
3255.72208,0.35597
3253.79333,0.35579
3251.86459,0.35571
3249.93584,0.35589
3248.00710,0.35619
3246.07835,0.35640
3244.14961,0.35650
3242.22086,0.35648
3240.29212,0.35644
3238.36337,0.35649
3236.43463,0.35655
3234.50588,0.35640
3232.57713,0.35604
3230.64839,0.35578
3228.71964,0.35568
3226.79090,0.35543
3224.86215,0.35502
3222.93341,0.35473
3221.00466,0.35466
3219.07592,0.35447
3217.14717,0.35395
3215.21843,0.35337
3213.28968,0.35282
3211.36094,0.35203
3209.43219,0.35113
3207.50345,0.35037
3205.57470,0.34968
3203.64596,0.34909
3201.71721,0.34863
3199.78846,0.34820
3197.85972,0.34790
3195.93097,0.34798
3194.00223,0.34827
3192.07348,0.34847
3190.14474,0.34845
3188.21599,0.34824
3186.28725,0.34786
3184.35850,0.34734
3182.42976,0.34667
3180.50101,0.34604
3178.57227,0.34556
3176.64352,0.34505
3174.71478,0.34425
3172.78603,0.34290
3170.85729,0.34087
3168.92854,0.33819
3166.99979,0.33501
3165.07105,0.33178
3163.14230,0.32938
3161.21356,0.32882
3159.28481,0.33010
3157.35607,0.33209
3155.42732,0.33392
3153.49858,0.33538
3151.56983,0.33617
3149.64109,0.33637
3147.71234,0.33642
3145.78360,0.33626
3143.85485,0.33573
3141.92611,0.33500
3139.99736,0.33422
3138.06861,0.33346
3136.13987,0.33269
3134.21112,0.33177
3132.28238,0.33058
3130.35363,0.32895
3128.42489,0.32693
3126.49614,0.32493
3124.56740,0.32281
3122.63865,0.31967
3120.70991,0.31517
3118.78116,0.30967
3116.85242,0.30304
3114.92367,0.29470
3112.99493,0.28453
3111.06618,0.27264
3109.13744,0.25963
3107.20869,0.24746
3105.27994,0.23859
3103.35120,0.23420
3101.42245,0.23379
3099.49371,0.23574
3097.56496,0.23778
3095.63622,0.23755
3093.70747,0.23328
3091.77873,0.22438
3089.84998,0.21170
3087.92124,0.19729
3085.99249,0.18407
3084.06375,0.17505
3082.13500,0.17211
3080.20626,0.17521
3078.27751,0.18196
3076.34877,0.18857
3074.42002,0.19223
3072.49127,0.19224
3070.56253,0.18891
3068.63378,0.18273
3066.70504,0.17455
3064.77629,0.16582
3062.84755,0.15860
3060.91880,0.15483
3058.99006,0.15576
3057.06131,0.16132
3055.13257,0.16977
3053.20382,0.17868
3051.27508,0.18653
3049.34633,0.19289
3047.41759,0.19735
3045.48884,0.19907
3043.56009,0.19751
3041.63135,0.19283
3039.70260,0.18556
3037.77386,0.17631
3035.84511,0.16569
3033.91637,0.15426
3031.98762,0.14271
3030.05888,0.13250
3028.13013,0.12581
3026.20139,0.12427
3024.27264,0.12827
3022.34390,0.13755
3020.41515,0.15133
3018.48641,0.16764
3016.55766,0.18387
3014.62892,0.19813
3012.70017,0.20941
3010.77142,0.21687
3008.84268,0.21991
3006.91393,0.21854
3004.98519,0.21386
3003.05644,0.20880
3001.12770,0.20724
2999.19895,0.21179
2997.27021,0.22203
2995.34146,0.23477
2993.41272,0.24653
2991.48397,0.25553
2989.55523,0.26169
2987.62648,0.26534
2985.69774,0.26676
2983.76899,0.26653
2981.84025,0.26524
2979.91150,0.26299
2977.98275,0.26015
2976.05401,0.25745
2974.12526,0.25519
2972.19652,0.25297
2970.26777,0.25009
2968.33903,0.24609
2966.41028,0.24108
2964.48154,0.23544
2962.55279,0.22942
2960.62405,0.22307
2958.69530,0.21640
2956.76656,0.20934
2954.83781,0.20192
2952.90907,0.19436
2950.98032,0.18677
2949.05157,0.17926
2947.12283,0.17183
2945.19408,0.16427
2943.26534,0.15656
2941.33659,0.14928
2939.40785,0.14279
2937.47910,0.13691
2935.55036,0.13145
2933.62161,0.12640
2931.69287,0.12204
2929.76412,0.11887
2927.83538,0.11706
2925.90663,0.11644
2923.97789,0.11696
2922.04914,0.11849
2920.12040,0.12055
2918.19165,0.12289
2916.26290,0.12593
2914.33416,0.12981
2912.40541,0.13412
2910.47667,0.13865
2908.54792,0.14337
2906.61918,0.14834
2904.69043,0.15371
2902.76169,0.15955
2900.83294,0.16552
2898.90420,0.17114
2896.97545,0.17646
2895.04671,0.18167
2893.11796,0.18643
2891.18922,0.19046
2889.26047,0.19399
2887.33172,0.19726
2885.40298,0.20030
2883.47423,0.20331
2881.54549,0.20654
2879.61674,0.20998
2877.68800,0.21341
2875.75925,0.21660
2873.83051,0.21920
2871.90176,0.22062
2869.97302,0.22056
2868.04427,0.21912
2866.11553,0.21621
2864.18678,0.21161
2862.25804,0.20553
2860.32929,0.19850
2858.40055,0.19128
2856.47180,0.18480
2854.54305,0.17958
2852.61431,0.17593
2850.68556,0.17436
2848.75682,0.17543
2846.82807,0.17969
2844.89933,0.18735
2842.97058,0.19814
2841.04184,0.21154
2839.11309,0.22683
2837.18435,0.24289
2835.25560,0.25831
2833.32686,0.27187
2831.39811,0.28288
2829.46937,0.29125
2827.54062,0.29738
2825.61188,0.30196
2823.68313,0.30537
2821.75438,0.30769
2819.82564,0.30921
2817.89689,0.31037
2815.96815,0.31133
2814.03940,0.31199
2812.11066,0.31243
2810.18191,0.31302
2808.25317,0.31409
2806.32442,0.31554
2804.39568,0.31705
2802.46693,0.31865
2800.53819,0.32042
2798.60944,0.32213
2796.68070,0.32355
2794.75195,0.32495
2792.82320,0.32648
2790.89446,0.32768
2788.96571,0.32829
2787.03697,0.32853
2785.10822,0.32864
2783.17948,0.32873
2781.25073,0.32897
2779.32199,0.32949
2777.39324,0.33031
2775.46450,0.33147
2773.53575,0.33302
2771.60701,0.33466
2769.67826,0.33604
2767.74952,0.33716
2765.82077,0.33815
2763.89203,0.33903
2761.96328,0.33982
2760.03453,0.34060
2758.10579,0.34128
2756.17704,0.34172
2754.24830,0.34203
2752.31955,0.34238
2750.39081,0.34272
2748.46206,0.34294
2746.53332,0.34294
2744.60457,0.34276
2742.67583,0.34255
2740.74708,0.34245
2738.81834,0.34232
2736.88959,0.34191
2734.96085,0.34113
2733.03210,0.34024
2731.10336,0.33952
2729.17461,0.33906
2727.24586,0.33878
2725.31712,0.33845
2723.38837,0.33802
2721.45963,0.33769
2719.53088,0.33750
2717.60214,0.33741
2715.67339,0.33743
2713.74465,0.33761
2711.81590,0.33793
2709.88716,0.33830
2707.95841,0.33858
2706.02967,0.33866
2704.10092,0.33854
2702.17218,0.33835
2700.24343,0.33833
2698.31468,0.33827
2696.38594,0.33790
2694.45719,0.33751
2692.52845,0.33739
2690.59970,0.33743
2688.67096,0.33746
2686.74221,0.33750
2684.81347,0.33757
2682.88472,0.33783
2680.95598,0.33826
2679.02723,0.33857
2677.09849,0.33865
2675.16974,0.33856
2673.24100,0.33831
2671.31225,0.33814
2669.38351,0.33835
2667.45476,0.33883
2665.52601,0.33927
2663.59727,0.33962
2661.66852,0.33983
2659.73978,0.33975
2657.81103,0.33935
2655.88229,0.33895
2653.95354,0.33883
2652.02480,0.33907
2650.09605,0.33931
2648.16731,0.33914
2646.23856,0.33868
2644.30982,0.33824
2642.38107,0.33782
2640.45233,0.33715
2638.52358,0.33587
2636.59484,0.33399
2634.66609,0.33202
2632.73734,0.33073
2630.80860,0.33074
2628.87985,0.33209
2626.95111,0.33428
2625.02236,0.33663
2623.09362,0.33865
2621.16487,0.34015
2619.23613,0.34120
2617.30738,0.34185
2615.37864,0.34197
2613.44989,0.34135
2611.52115,0.33999
2609.59240,0.33815
2607.66366,0.33620
2605.73491,0.33443
2603.80616,0.33327
2601.87742,0.33324
2599.94867,0.33444
2598.01993,0.33647
2596.09118,0.33866
2594.16244,0.34053
2592.23369,0.34191
2590.30495,0.34260
2588.37620,0.34232
2586.44746,0.34129
2584.51871,0.33995
2582.58997,0.33881
2580.66122,0.33855
2578.73248,0.33946
2576.80373,0.34111
2574.87499,0.34286
2572.94624,0.34421
2571.01749,0.34492
2569.08875,0.34523
2567.16000,0.34532
2565.23126,0.34519
2563.30251,0.34501
2561.37377,0.34492
2559.44502,0.34492
2557.51628,0.34496
2555.58753,0.34490
2553.65879,0.34475
2551.73004,0.34449
2549.80130,0.34398
2547.87255,0.34347
2545.94381,0.34332
2544.01506,0.34350
2542.08631,0.34390
2540.15757,0.34447
2538.22882,0.34504
2536.30008,0.34550
2534.37133,0.34591
2532.44259,0.34617
2530.51384,0.34606
2528.58510,0.34558
2526.65635,0.34495
2524.72761,0.34452
2522.79886,0.34436
2520.87012,0.34423
2518.94137,0.34403
2517.01263,0.34381
2515.08388,0.34358
2513.15514,0.34336
2511.22639,0.34327
2509.29764,0.34330
2507.36890,0.34344
2505.44015,0.34376
2503.51141,0.34422
2501.58266,0.34475
2499.65392,0.34531
2497.72517,0.34581
2495.79643,0.34630
2493.86768,0.34682
2491.93894,0.34722
2490.01019,0.34756
2488.08145,0.34795
2486.15270,0.34830
2484.22396,0.34874
2482.29521,0.34940
2480.36647,0.35008
2478.43772,0.35070
2476.50897,0.35131
2474.58023,0.35202
2472.65148,0.35286
2470.72274,0.35366
2468.79399,0.35430
2466.86525,0.35482
2464.93650,0.35528
2463.00776,0.35569
2461.07901,0.35597
2459.15027,0.35593
2457.22152,0.35576
2455.29278,0.35578
2453.36403,0.35576
2451.43529,0.35559
2449.50654,0.35561
2447.57779,0.35580
2445.64905,0.35592
2443.72030,0.35605
2441.79156,0.35626
2439.86281,0.35653
2437.93407,0.35672
2436.00532,0.35682
2434.07658,0.35705
2432.14783,0.35757
2430.21909,0.35816
2428.29034,0.35858
2426.36160,0.35881
2424.43285,0.35885
2422.50411,0.35880
2420.57536,0.35882
2418.64662,0.35892
2416.71787,0.35895
2414.78912,0.35872
2412.86038,0.35825
2410.93163,0.35779
2409.00289,0.35745
2407.07414,0.35713
2405.14540,0.35685
2403.21665,0.35664
2401.28791,0.35648
2399.35916,0.35629
2397.43042,0.35598
2395.50167,0.35565
2393.57293,0.35551
2391.64418,0.35561
2389.71544,0.35579
2387.78669,0.35581
2385.85795,0.35571
2383.92920,0.35568
2382.00045,0.35559
2380.07171,0.35536
2378.14296,0.35531
2376.21422,0.35548
2374.28547,0.35550
2372.35673,0.35521
2370.42798,0.35474
2368.49924,0.35419
2366.57049,0.35343
2364.64175,0.35251
2362.71300,0.35164
2360.78426,0.35091
2358.85551,0.35052
2356.92677,0.35058
2354.99802,0.35073
2353.06927,0.35054
2351.14053,0.34983
2349.21178,0.34868
2347.28304,0.34730
2345.35429,0.34555
2343.42555,0.34299
2341.49680,0.33958
2339.56806,0.33626
2337.63931,0.33438
2335.71057,0.33486
2333.78182,0.33754
2331.85308,0.34162
2329.92433,0.34606
2327.99559,0.34975
2326.06684,0.35219
2324.13810,0.35340
2322.20935,0.35350
2320.28060,0.35262
2318.35186,0.35077
2316.42311,0.34811
2314.49437,0.34535
2312.56562,0.34353
2310.63688,0.34337
2308.70813,0.34495
2306.77939,0.34776
2304.85064,0.35088
2302.92190,0.35341
2300.99315,0.35490
2299.06441,0.35540
2297.13566,0.35526
2295.20692,0.35500
2293.27817,0.35497
2291.34943,0.35530
2289.42068,0.35599
2287.49193,0.35686
2285.56319,0.35759
2283.63444,0.35819
2281.70570,0.35882
2279.77695,0.35922
2277.84821,0.35934
2275.91946,0.35950
2273.99072,0.35956
2272.06197,0.35930
2270.13323,0.35887
2268.20448,0.35828
2266.27574,0.35749
2264.34699,0.35673
2262.41825,0.35617
2260.48950,0.35576
2258.56075,0.35543
2256.63201,0.35514
2254.70326,0.35499
2252.77452,0.35515
2250.84577,0.35552
2248.91703,0.35604
2246.98828,0.35676
2245.05954,0.35762
2243.13079,0.35845
2241.20205,0.35923
2239.27330,0.35988
2237.34456,0.36028
2235.41581,0.36045
2233.48707,0.36052
2231.55832,0.36051
2229.62958,0.36054
2227.70083,0.36077
2225.77208,0.36106
2223.84334,0.36121
2221.91459,0.36128
2219.98585,0.36131
2218.05710,0.36132
2216.12836,0.36127
2214.19961,0.36110
2212.27087,0.36080
2210.34212,0.36060
2208.41338,0.36080
2206.48463,0.36135
2204.55589,0.36198
2202.62714,0.36249
2200.69840,0.36292
2198.76965,0.36333
2196.84090,0.36348
2194.91216,0.36323
2192.98341,0.36273
2191.05467,0.36212
2189.12592,0.36155
2187.19718,0.36123
2185.26843,0.36127
2183.33969,0.36156
2181.41094,0.36203
2179.48220,0.36274
2177.55345,0.36355
2175.62471,0.36421
2173.69596,0.36472
2171.76722,0.36514
2169.83847,0.36548
2167.90973,0.36574
2165.98098,0.36593
2164.05223,0.36600
2162.12349,0.36593
2160.19474,0.36587
2158.26600,0.36591
2156.33725,0.36595
2154.40851,0.36589
2152.47976,0.36593
2150.55102,0.36610
2148.62227,0.36614
2146.69353,0.36597
2144.76478,0.36579
2142.83604,0.36582
2140.90729,0.36602
2138.97855,0.36638
2137.04980,0.36687
2135.12106,0.36714
2133.19231,0.36710
2131.26356,0.36708
2129.33482,0.36721
2127.40607,0.36744
2125.47733,0.36772
2123.54858,0.36781
2121.61984,0.36768
2119.69109,0.36759
2117.76235,0.36758
2115.83360,0.36751
2113.90486,0.36750
2111.97611,0.36769
2110.04737,0.36788
2108.11862,0.36803
2106.18988,0.36830
2104.26113,0.36862
2102.33238,0.36882
2100.40364,0.36890
2098.47489,0.36895
2096.54615,0.36905
2094.61740,0.36922
2092.68866,0.36931
2090.75991,0.36927
2088.83117,0.36921
2086.90242,0.36920
2084.97368,0.36925
2083.04493,0.36929
2081.11619,0.36921
2079.18744,0.36910
2077.25870,0.36898
2075.32995,0.36878
2073.40121,0.36858
2071.47246,0.36850
2069.54371,0.36856
2067.61497,0.36863
2065.68622,0.36854
2063.75748,0.36835
2061.82873,0.36819
2059.89999,0.36813
2057.97124,0.36803
2056.04250,0.36789
2054.11375,0.36786
2052.18501,0.36790
2050.25626,0.36791
2048.32752,0.36789
2046.39877,0.36775
2044.47003,0.36752
2042.54128,0.36742
2040.61254,0.36734
2038.68379,0.36704
2036.75504,0.36663
2034.82630,0.36628
2032.89755,0.36594
2030.96881,0.36560
2029.04006,0.36533
2027.11132,0.36520
2025.18257,0.36527
2023.25383,0.36537
2021.32508,0.36521
2019.39634,0.36494
2017.46759,0.36472
2015.53885,0.36434
2013.61010,0.36359
2011.68136,0.36271
2009.75261,0.36206
2007.82386,0.36164
2005.89512,0.36127
2003.96637,0.36084
2002.03763,0.36037
2000.10888,0.35979
1998.18014,0.35894
1996.25139,0.35770
1994.32265,0.35595
1992.39390,0.35353
1990.46516,0.35058
1988.53641,0.34770
1986.60767,0.34546
1984.67892,0.34416
1982.75018,0.34382
1980.82143,0.34382
1978.89269,0.34342
1976.96394,0.34218
1975.03519,0.33968
1973.10645,0.33558
1971.17770,0.32985
1969.24896,0.32284
1967.32021,0.31532
1965.39147,0.30808
1963.46272,0.30168
1961.53398,0.29639
1959.60523,0.29212
1957.67649,0.28868
1955.74774,0.28580
1953.81900,0.28283
1951.89025,0.27914
1949.96151,0.27489
1948.03276,0.27064
1946.10402,0.26699
1944.17527,0.26470
1942.24652,0.26457
1940.31778,0.26724
1938.38903,0.27277
1936.46029,0.28060
1934.53154,0.28970
1932.60280,0.29904
1930.67405,0.30771
1928.74531,0.31522
1926.81656,0.32143
1924.88782,0.32651
1922.95907,0.33080
1921.03033,0.33465
1919.10158,0.33814
1917.17284,0.34105
1915.24409,0.34313
1913.31534,0.34447
1911.38660,0.34517
1909.45785,0.34516
1907.52911,0.34433
1905.60036,0.34264
1903.67162,0.34015
1901.74287,0.33696
1899.81413,0.33298
1897.88538,0.32807
1895.95664,0.32241
1894.02789,0.31642
1892.09915,0.31046
1890.17040,0.30467
1888.24166,0.29935
1886.31291,0.29496
1884.38417,0.29160
1882.45542,0.28901
1880.52667,0.28690
1878.59793,0.28502
1876.66918,0.28318
1874.74044,0.28146
1872.81169,0.28015
1870.88295,0.27966
1868.95420,0.28051
1867.02546,0.28302
1865.09671,0.28725
1863.16797,0.29330
1861.23922,0.30089
1859.31048,0.30913
1857.38173,0.31725
1855.45299,0.32475
1853.52424,0.33128
1851.59549,0.33662
1849.66675,0.34082
1847.73800,0.34398
1845.80926,0.34622
1843.88051,0.34751
1841.95177,0.34782
1840.02302,0.34753
1838.09428,0.34682
1836.16553,0.34542
1834.23679,0.34316
1832.30804,0.34020
1830.37930,0.33639
1828.45055,0.33161
1826.52181,0.32641
1824.59306,0.32112
1822.66432,0.31582
1820.73557,0.31067
1818.80682,0.30574
1816.87808,0.30099
1814.94933,0.29633
1813.02059,0.29186
1811.09184,0.28767
1809.16310,0.28368
1807.23435,0.28013
1805.30561,0.27761
1803.37686,0.27660
1801.44812,0.27736
1799.51937,0.28014
1797.59063,0.28498
1795.66188,0.29168
1793.73314,0.30018
1791.80439,0.30968
1789.87565,0.31810
1787.94690,0.32467
1786.01815,0.32979
1784.08941,0.33319
1782.16066,0.33450
1780.23192,0.33400
1778.30317,0.33249
1776.37443,0.33127
1774.44568,0.33134
1772.51694,0.33263
1770.58819,0.33384
1768.65945,0.33398
1766.73070,0.33277
1764.80196,0.33031
1762.87321,0.32675
1760.94447,0.32191
1759.01572,0.31626
1757.08697,0.31022
1755.15823,0.30420
1753.22948,0.29879
1751.30074,0.29385
1749.37199,0.28956
1747.44325,0.28637
1745.51450,0.28435
1743.58576,0.28347
1741.65701,0.28387
1739.72827,0.28577
1737.79952,0.28901
1735.87078,0.29370
1733.94203,0.29999
1732.01329,0.30588
1730.08454,0.31048
1728.15580,0.31463
1726.22705,0.31834
1724.29830,0.32154
1722.36956,0.32443
1720.44081,0.32739
1718.51207,0.33040
1716.58332,0.33260
1714.65458,0.33365
1712.72583,0.33427
1710.79709,0.33484
1708.86834,0.33519
1706.93960,0.33509
1705.01085,0.33450
1703.08211,0.33405
1701.15336,0.33393
1699.22462,0.33363
1697.29587,0.33318
1695.36713,0.33228
1693.43838,0.33034
1691.50963,0.32796
1689.58089,0.32555
1687.65214,0.32334
1685.72340,0.32138
1683.79465,0.31883
1681.86591,0.31580
1679.93716,0.31333
1678.00842,0.31156
1676.07967,0.31021
1674.15093,0.30889
1672.22218,0.30770
1670.29344,0.30670
1668.36469,0.30578
1666.43595,0.30548
1664.50720,0.30634
1662.57845,0.30828
1660.64971,0.31065
1658.72096,0.31331
1656.79222,0.31656
1654.86347,0.32044
1652.93473,0.32397
1651.00598,0.32559
1649.07724,0.32676
1647.14849,0.32839
1645.21975,0.32974
1643.29100,0.33044
1641.36226,0.33080
1639.43351,0.33111
1637.50477,0.33122
1635.57602,0.33008
1633.64728,0.32753
1631.71853,0.32503
1629.78978,0.32284
1627.86104,0.32039
1625.93229,0.31752
1624.00355,0.31416
1622.07480,0.31038
1620.14606,0.30658
1618.21731,0.30162
1616.28857,0.29334
1614.35982,0.28245
1612.43108,0.26940
1610.50233,0.25177
1608.57359,0.22883
1606.64484,0.20374
1604.71610,0.18197
1602.78735,0.16891
1600.85861,0.16799
1598.92986,0.17865
1597.00111,0.19619
1595.07237,0.21469
1593.14362,0.23027
1591.21488,0.24165
1589.28613,0.24722
1587.35739,0.24438
1585.42864,0.23496
1583.49990,0.22877
1581.57115,0.23548
1579.64241,0.25302
1577.71366,0.27286
1575.78492,0.28962
1573.85617,0.30081
1571.92743,0.30859
1569.99868,0.31523
1568.06993,0.31983
1566.14119,0.32223
1564.21244,0.32353
1562.28370,0.32430
1560.35495,0.32438
1558.42621,0.32207
1556.49746,0.31764
1554.56872,0.31277
1552.63997,0.30751
1550.71123,0.30192
1548.78248,0.29641
1546.85374,0.29195
1544.92499,0.28896
1542.99625,0.28752
1541.06750,0.28773
1539.13876,0.28914
1537.21001,0.29135
1535.28126,0.29487
1533.35252,0.29973
1531.42377,0.30427
1529.49503,0.30767
1527.56628,0.31018
1525.63754,0.31178
1523.70879,0.31251
1521.78005,0.31184
1519.85130,0.30961
1517.92256,0.30678
1515.99381,0.30347
1514.06507,0.29947
1512.13632,0.29494
1510.20758,0.29001
1508.27883,0.28344
1506.35008,0.27150
1504.42134,0.25520
1502.49259,0.23721
1500.56385,0.21424
1498.63510,0.18370
1496.70636,0.14986
1494.77761,0.12738
1492.84887,0.12645
1490.92012,0.14454
1488.99138,0.17199
1487.06263,0.19757
1485.13389,0.21851
1483.20514,0.23631
1481.27640,0.25084
1479.34765,0.26099
1477.41891,0.26708
1475.49016,0.27016
1473.56141,0.27064
1471.63267,0.26858
1469.70392,0.26485
1467.77518,0.26020
1465.84643,0.25358
1463.91769,0.24378
1461.98894,0.23099
1460.06020,0.21390
1458.13145,0.18626
1456.20271,0.15021
1454.27396,0.12775
1452.34522,0.12587
1450.41647,0.13644
1448.48773,0.15071
1446.55898,0.16370
1444.63024,0.17525
1442.70149,0.18675
1440.77274,0.19826
1438.84400,0.21022
1436.91525,0.22472
1434.98651,0.24070
1433.05776,0.25544
1431.12902,0.26929
1429.20027,0.28162
1427.27153,0.29077
1425.34278,0.29708
1423.41404,0.30152
1421.48529,0.30461
1419.55655,0.30689
1417.62780,0.30838
1415.69906,0.30908
1413.77031,0.30936
1411.84156,0.30932
1409.91282,0.30895
1407.98407,0.30839
1406.05533,0.30773
1404.12658,0.30668
1402.19784,0.30506
1400.26909,0.30274
1398.34035,0.29941
1396.41160,0.29484
1394.48286,0.28856
1392.55411,0.28070
1390.62537,0.27231
1388.69662,0.26366
1386.76788,0.25497
1384.83913,0.24754
1382.91039,0.24189
1380.98164,0.23735
1379.05289,0.23331
1377.12415,0.22972
1375.19540,0.22697
1373.26666,0.22554
1371.33791,0.22555
1369.40917,0.22661
1367.48042,0.22812
1365.55168,0.22986
1363.62293,0.23188
1361.69419,0.23408
1359.76544,0.23639
1357.83670,0.23879
1355.90795,0.24085
1353.97921,0.24207
1352.05046,0.24263
1350.12172,0.24312
1348.19297,0.24417
1346.26422,0.24618
1344.33548,0.24893
1342.40673,0.25185
1340.47799,0.25430
1338.54924,0.25530
1336.62050,0.25405
1334.69175,0.25093
1332.76301,0.24700
1330.83426,0.24356
1328.90552,0.24203
1326.97677,0.24291
1325.04803,0.24522
1323.11928,0.24768
1321.19054,0.24950
1319.26179,0.25015
1317.33304,0.24946
1315.40430,0.24790
1313.47555,0.24646
1311.54681,0.24609
1309.61806,0.24719
1307.68932,0.24941
1305.76057,0.25196
1303.83183,0.25437
1301.90308,0.25665
1299.97434,0.25892
1298.04559,0.26082
1296.11685,0.26192
1294.18810,0.26235
1292.25936,0.26267
1290.33061,0.26332
1288.40187,0.26435
1286.47312,0.26554
1284.54437,0.26683
1282.61563,0.26851
1280.68688,0.27088
1278.75814,0.27408
1276.82939,0.27807
1274.90065,0.28251
1272.97190,0.28689
1271.04316,0.29086
1269.11441,0.29431
1267.18567,0.29728
1265.25692,0.29976
1263.32818,0.30172
1261.39943,0.30316
1259.47069,0.30398
1257.54194,0.30402
1255.61320,0.30336
1253.68445,0.30224
1251.75570,0.30093
1249.82696,0.29977
1247.89821,0.29901
1245.96947,0.29864
1244.04072,0.29875
1242.11198,0.29938
1240.18323,0.30033
1238.25449,0.30116
1236.32574,0.30144
1234.39700,0.30105
1232.46825,0.30018
1230.53951,0.29906
1228.61076,0.29782
1226.68202,0.29677
1224.75327,0.29600
1222.82452,0.29523
1220.89578,0.29431
1218.96703,0.29325
1217.03829,0.29188
1215.10954,0.29006
1213.18080,0.28786
1211.25205,0.28546
1209.32331,0.28259
1207.39456,0.27887
1205.46582,0.27444
1203.53707,0.26977
1201.60833,0.26521
1199.67958,0.26108
1197.75084,0.25784
1195.82209,0.25565
1193.89335,0.25422
1191.96460,0.25318
1190.03585,0.25207
1188.10711,0.24969
1186.17836,0.24497
1184.24962,0.23901
1182.32087,0.23530
1180.39213,0.23717
1178.46338,0.24484
1176.53464,0.25515
1174.60589,0.26417
1172.67715,0.27007
1170.74840,0.27358
1168.81966,0.27595
1166.89091,0.27751
1164.96217,0.27753
1163.03342,0.27476
1161.10467,0.26837
1159.17593,0.25864
1157.24718,0.24832
1155.31844,0.24241
1153.38969,0.24507
1151.46095,0.25616
1149.53220,0.27113
1147.60346,0.28463
1145.67471,0.29470
1143.74597,0.30222
1141.81722,0.30802
1139.88848,0.31236
1137.95973,0.31554
1136.03099,0.31773
1134.10224,0.31915
1132.17350,0.32009
1130.24475,0.32067
1128.31600,0.32071
1126.38726,0.31988
1124.45851,0.31791
1122.52977,0.31454
1120.60102,0.30989
1118.67228,0.30454
1116.74353,0.29919
1114.81479,0.29487
1112.88604,0.29281
1110.95730,0.29321
1109.02855,0.29466
1107.09981,0.29558
1105.17106,0.29582
1103.24232,0.29556
1101.31357,0.29437
1099.38483,0.29221
1097.45608,0.28948
1095.52733,0.28658
1093.59859,0.28391
1091.66984,0.28126
1089.74110,0.27815
1087.81235,0.27436
1085.88361,0.26978
1083.95486,0.26459
1082.02612,0.25914
1080.09737,0.25374
1078.16863,0.24842
1076.23988,0.24253
1074.31114,0.23593
1072.38239,0.23018
1070.45365,0.22701
1068.52490,0.22720
1066.59615,0.23080
1064.66741,0.23707
1062.73866,0.24461
1060.80992,0.25195
1058.88117,0.25822
1056.95243,0.26369
1055.02368,0.26878
1053.09494,0.27317
1051.16619,0.27669
1049.23745,0.27936
1047.30870,0.28101
1045.37996,0.28164
1043.45121,0.28112
1041.52247,0.27868
1039.59372,0.27264
1037.66498,0.26093
1035.73623,0.24315
1033.80748,0.22236
1031.87874,0.20462
1029.94999,0.19523
1028.02125,0.19542
1026.09250,0.20329
1024.16376,0.21530
1022.23501,0.22744
1020.30627,0.23767
1018.37752,0.24627
1016.44878,0.25373
1014.52003,0.25992
1012.59129,0.26468
1010.66254,0.26803
1008.73380,0.26946
1006.80505,0.26823
1004.87631,0.26562
1002.94756,0.26578
1001.01881,0.27160
999.09007,0.28049
997.16132,0.28746
995.23258,0.29061
993.30383,0.29114
991.37509,0.29023
989.44634,0.28799
987.51760,0.28443
985.58885,0.27994
983.66011,0.27532
981.73136,0.27206
979.80262,0.27145
977.87387,0.27323
975.94513,0.27615
974.01638,0.27835
972.08763,0.27797
970.15889,0.27463
968.23014,0.26966
966.30140,0.26528
964.37265,0.26388
962.44391,0.26677
960.51516,0.27318
958.58642,0.28065
956.65767,0.28665
954.72893,0.29014
952.80018,0.29146
950.87144,0.29111
948.94269,0.28938
947.01395,0.28664
945.08520,0.28399
943.15646,0.28298
941.22771,0.28442
939.29896,0.28817
937.37022,0.29345
935.44147,0.29906
933.51273,0.30409
931.58398,0.30802
929.65524,0.31016
927.72649,0.31001
925.79775,0.30799
923.86900,0.30480
921.94026,0.30034
920.01151,0.29399
918.08277,0.28550
916.15402,0.27478
914.22528,0.26191
912.29653,0.24836
910.36779,0.23672
908.43904,0.22943
906.51029,0.22807
904.58155,0.23327
902.65280,0.24435
900.72406,0.25940
898.79531,0.27564
896.86657,0.28989
894.93782,0.30014
893.00908,0.30706
891.08033,0.31245
889.15159,0.31706
887.22284,0.32083
885.29410,0.32381
883.36535,0.32614
881.43661,0.32805
879.50786,0.32977
877.57911,0.33140
875.65037,0.33285
873.72162,0.33389
871.79288,0.33442
869.86413,0.33449
867.93539,0.33436
866.00664,0.33423
864.07790,0.33414
862.14915,0.33400
860.22041,0.33323
858.29166,0.33117
856.36292,0.32795
854.43417,0.32385
852.50543,0.31821
850.57668,0.30994
848.64794,0.29962
846.71919,0.28951
844.79044,0.28151
842.86170,0.27688
840.93295,0.27672
839.00421,0.28131
837.07546,0.29003
835.14672,0.30129
833.21797,0.31234
831.28923,0.32078
829.36048,0.32586
827.43174,0.32825
825.50299,0.32931
823.57425,0.33003
821.64550,0.33034
819.71676,0.32996
817.78801,0.32895
815.85926,0.32718
813.93052,0.32472
812.00177,0.32227
810.07303,0.32009
808.14428,0.31789
806.21554,0.31565
804.28679,0.31299
802.35805,0.30914
800.42930,0.30389
798.50056,0.29759
796.57181,0.29054
794.64307,0.28261
792.71432,0.27353
790.78558,0.26340
788.85683,0.25306
786.92809,0.24313
784.99934,0.23317
783.07059,0.22264
781.14185,0.21146
779.21310,0.19944
777.28436,0.18678
775.35561,0.17445
773.42687,0.16301
771.49812,0.15263
769.56938,0.14395
767.64063,0.13756
765.71189,0.13353
763.78314,0.13121
761.85440,0.13003
759.92565,0.13045
757.99691,0.13283
756.06816,0.13696
754.13942,0.14221
752.21067,0.14745
750.28192,0.15238
748.35318,0.15807
746.42443,0.16621
744.49569,0.17755
742.56694,0.19055
740.63820,0.20323
738.70945,0.21534
736.78071,0.22750
734.85196,0.24031
732.92322,0.25348
730.99447,0.26488
729.06573,0.27226
727.13698,0.27517
725.20824,0.27423
723.27949,0.26995
721.35074,0.26267
719.42200,0.25245
717.49325,0.23860
715.56451,0.21939
713.63576,0.19363
711.70702,0.16192
709.77827,0.12738
707.84953,0.09675
705.92078,0.07830
703.99204,0.07692
702.06329,0.09239
700.13455,0.12117
698.20580,0.15725
696.27706,0.19338
694.34831,0.22499
692.41957,0.25145
690.49082,0.27284
688.56207,0.28854
686.63333,0.29904
684.70458,0.30610
682.77584,0.31113
680.84709,0.31447
678.91835,0.31618
676.98960,0.31666
675.06086,0.31670
673.13211,0.31717
671.20337,0.31845
669.27462,0.32053
667.34588,0.32345
665.41713,0.32711
663.48839,0.33125
661.55964,0.33599
659.63090,0.34146
657.70215,0.34665
655.77340,0.35050
653.84466,0.35353
651.91591,0.35610
649.98717,0.35783
648.05842,0.35888
646.12968,0.35926
644.20093,0.35850
642.27219,0.35660
640.34344,0.35413
638.41470,0.35081
636.48595,0.34528
634.55721,0.33767
632.62846,0.33052
630.69972,0.32519
628.77097,0.32084
626.84222,0.31723
624.91348,0.31453
622.98473,0.31254
621.05599,0.31154
619.12724,0.31245
617.19850,0.31551
615.26975,0.31909
613.34101,0.32167
611.41226,0.32353
609.48352,0.32442
607.55477,0.32341
605.62603,0.32119
603.69728,0.31906
601.76854,0.31689
599.83979,0.31424
