7497.03301,0.39032
7495.10426,0.40006
7493.17552,0.40554
7491.24677,0.40404
7489.31803,0.39976
7487.38928,0.39721
7485.46054,0.39466
7483.53179,0.38887
7481.60305,0.38509
7479.67430,0.38714
7477.74556,0.39093
7475.81681,0.39289
7473.88807,0.39212
7471.95932,0.39073
7470.03057,0.39055
7468.10183,0.38786
7466.17308,0.38366
7464.24434,0.38397
7462.31559,0.38768
7460.38685,0.39209
7458.45810,0.39568
7456.52936,0.39430
7454.60061,0.39007
7452.67187,0.38982
7450.74312,0.39299
7448.81438,0.39379
7446.88563,0.38997
7444.95689,0.38591
7443.02814,0.38648
7441.09940,0.38976
7439.17065,0.39201
7437.24190,0.39472
7435.31316,0.39773
7433.38441,0.39710
7431.45567,0.39463
7429.52692,0.39405
7427.59818,0.39350
7425.66943,0.39224
7423.74069,0.39222
7421.81194,0.39280
7419.88320,0.39174
7417.95445,0.38910
7416.02571,0.38731
7414.09696,0.38796
7412.16822,0.38928
7410.23947,0.38813
7408.31073,0.38673
7406.38198,0.38893
7404.45323,0.39053
7402.52449,0.38894
7400.59574,0.38759
7398.66700,0.38659
7396.73825,0.38622
7394.80951,0.38832
7392.88076,0.39042
7390.95202,0.39036
7389.02327,0.38896
7387.09453,0.38766
7385.16578,0.38802
7383.23704,0.38863
7381.30829,0.38805
7379.37955,0.38782
7377.45080,0.38751
7375.52205,0.38664
7373.59331,0.38616
7371.66456,0.38628
7369.73582,0.38956
7367.80707,0.39614
7365.87833,0.39974
7363.94958,0.39794
7362.02084,0.39399
7360.09209,0.38980
7358.16335,0.38784
7356.23460,0.38986
7354.30586,0.39257
7352.37711,0.39303
7350.44837,0.39234
7348.51962,0.39300
7346.59088,0.39566
7344.66213,0.39694
7342.73338,0.39457
7340.80464,0.39167
7338.87589,0.39081
7336.94715,0.39145
7335.01840,0.39140
7333.08966,0.38839
7331.16091,0.38716
7329.23217,0.39292
7327.30342,0.39900
7325.37468,0.39789
7323.44593,0.39147
7321.51719,0.38579
7319.58844,0.38645
7317.65970,0.39225
7315.73095,0.39569
7313.80221,0.39370
7311.87346,0.38883
7309.94471,0.38516
7308.01597,0.38726
7306.08722,0.39311
7304.15848,0.39578
7302.22973,0.39478
7300.30099,0.39213
7298.37224,0.38923
7296.44350,0.38943
7294.51475,0.39192
7292.58601,0.39308
7290.65726,0.39358
7288.72852,0.39369
7286.79977,0.39163
7284.87103,0.38993
7282.94228,0.39172
7281.01353,0.39372
7279.08479,0.39288
7277.15604,0.39191
7275.22730,0.39165
7273.29855,0.38918
7271.36981,0.38654
7269.44106,0.38791
7267.51232,0.39076
7265.58357,0.39201
7263.65483,0.39324
7261.72608,0.39481
7259.79734,0.39504
7257.86859,0.39508
7255.93985,0.39723
7254.01110,0.39988
7252.08236,0.40130
7250.15361,0.40144
7248.22486,0.39912
7246.29612,0.39510
7244.36737,0.39166
7242.43863,0.39131
7240.50988,0.39530
7238.58114,0.40046
7236.65239,0.40363
7234.72365,0.40317
7232.79490,0.39975
7230.86616,0.39745
7228.93741,0.39714
7227.00867,0.39616
7225.07992,0.39443
7223.15118,0.39354
7221.22243,0.39340
7219.29369,0.39299
7217.36494,0.39189
7215.43619,0.39007
7213.50745,0.38899
7211.57870,0.39063
7209.64996,0.39420
7207.72121,0.39665
7205.79247,0.39511
7203.86372,0.39063
7201.93498,0.38822
7200.00623,0.38976
7198.07749,0.39246
7196.14874,0.39391
7194.22000,0.39407
7192.29125,0.39221
7190.36251,0.38845
7188.43376,0.38762
7186.50501,0.39177
7184.57627,0.39645
7182.64752,0.39854
7180.71878,0.39823
7178.79003,0.39724
7176.86129,0.39711
7174.93254,0.39673
7173.00380,0.39593
7171.07505,0.39630
7169.14631,0.39591
7167.21756,0.39373
7165.28882,0.39265
7163.36007,0.39316
7161.43133,0.39244
7159.50258,0.38866
7157.57384,0.38532
7155.64509,0.38674
7153.71634,0.39048
7151.78760,0.39281
7149.85885,0.39311
7147.93011,0.39111
7146.00136,0.38851
7144.07262,0.38887
7142.14387,0.39166
7140.21513,0.39210
7138.28638,0.39017
7136.35764,0.39065
7134.42889,0.39376
7132.50015,0.39673
7130.57140,0.39773
7128.64266,0.39557
7126.71391,0.39195
7124.78516,0.38930
7122.85642,0.38914
7120.92767,0.39130
7118.99893,0.39158
7117.07018,0.38984
7115.14144,0.39046
7113.21269,0.39219
7111.28395,0.39246
7109.35520,0.39207
7107.42646,0.39162
7105.49771,0.39194
7103.56897,0.39308
7101.64022,0.39406
7099.71148,0.39529
7097.78273,0.39506
7095.85399,0.39093
7093.92524,0.38681
7091.99649,0.38722
7090.06775,0.38945
7088.13900,0.38965
7086.21026,0.38926
7084.28151,0.38986
7082.35277,0.39011
7080.42402,0.39061
7078.49528,0.39189
7076.56653,0.39129
7074.63779,0.38833
7072.70904,0.38620
7070.78030,0.38784
7068.85155,0.39247
7066.92281,0.39547
7064.99406,0.39460
7063.06532,0.39209
7061.13657,0.38969
7059.20782,0.38866
7057.27908,0.38885
7055.35033,0.38829
7053.42159,0.38734
7051.49284,0.38708
7049.56410,0.38805
7047.63535,0.39036
7045.70661,0.39137
7043.77786,0.39012
7041.84912,0.38906
7039.92037,0.38819
7037.99163,0.38632
7036.06288,0.38512
7034.13414,0.38480
7032.20539,0.38281
7030.27664,0.38107
7028.34790,0.38428
7026.41915,0.39058
7024.49041,0.39277
7022.56166,0.38942
7020.63292,0.38654
7018.70417,0.38594
7016.77543,0.38532
7014.84668,0.38673
7012.91794,0.39063
7010.98919,0.39268
7009.06045,0.39204
7007.13170,0.39102
7005.20296,0.39040
7003.27421,0.38902
7001.34547,0.38629
6999.41672,0.38498
6997.48797,0.38666
6995.55923,0.38827
6993.63048,0.38810
6991.70174,0.38815
6989.77299,0.39005
6987.84425,0.39242
6985.91550,0.39331
6983.98676,0.39409
6982.05801,0.39482
6980.12927,0.39260
6978.20052,0.39031
6976.27178,0.39191
6974.34303,0.39407
6972.41429,0.39419
6970.48554,0.39352
6968.55680,0.39188
6966.62805,0.38950
6964.69930,0.38883
6962.77056,0.39008
6960.84181,0.39045
6958.91307,0.39100
6956.98432,0.39346
6955.05558,0.39355
6953.12683,0.38968
6951.19809,0.38674
6949.26934,0.38665
6947.34060,0.38750
6945.41185,0.38799
6943.48311,0.38788
6941.55436,0.38679
6939.62562,0.38567
6937.69687,0.38751
6935.76812,0.39235
6933.83938,0.39563
6931.91063,0.39533
6929.98189,0.39304
6928.05314,0.38977
6926.12440,0.38700
6924.19565,0.38660
6922.26691,0.38802
6920.33816,0.38902
6918.40942,0.38896
6916.48067,0.38978
6914.55193,0.39248
6912.62318,0.39500
6910.69444,0.39494
6908.76569,0.39346
6906.83695,0.39310
6904.90820,0.39259
6902.97945,0.39084
6901.05071,0.39014
6899.12196,0.39106
6897.19322,0.39162
6895.26447,0.39147
6893.33573,0.39194
6891.40698,0.39249
6889.47824,0.39144
6887.54949,0.38949
6885.62075,0.38879
6883.69200,0.38952
6881.76326,0.39005
6879.83451,0.38927
6877.90577,0.38766
6875.97702,0.38682
6874.04828,0.38847
6872.11953,0.39193
6870.19078,0.39347
6868.26204,0.39228
6866.33329,0.39191
6864.40455,0.39314
6862.47580,0.39349
6860.54706,0.39171
6858.61831,0.38986
6856.68957,0.39028
6854.76082,0.39183
6852.83208,0.39363
6850.90333,0.39480
6848.97459,0.39359
6847.04584,0.39252
6845.11710,0.39440
6843.18835,0.39685
6841.25960,0.39683
6839.33086,0.39383
6837.40211,0.38964
6835.47337,0.38811
6833.54462,0.39027
6831.61588,0.39223
6829.68713,0.39262
6827.75839,0.39414
6825.82964,0.39717
6823.90090,0.39823
6821.97215,0.39504
6820.04341,0.39082
6818.11466,0.39007
6816.18592,0.39168
6814.25717,0.39206
6812.32843,0.39112
6810.39968,0.39049
6808.47093,0.39143
6806.54219,0.39455
6804.61344,0.39731
6802.68470,0.39634
6800.75595,0.39197
6798.82721,0.38731
6796.89846,0.38559
6794.96972,0.38655
6793.04097,0.38764
6791.11223,0.38875
6789.18348,0.38998
6787.25474,0.38938
6785.32599,0.38768
6783.39725,0.38843
6781.46850,0.39160
6779.53975,0.39416
6777.61101,0.39533
6775.68226,0.39430
6773.75352,0.39168
6771.82477,0.39130
6769.89603,0.39266
6767.96728,0.39337
6766.03854,0.39309
6764.10979,0.39011
6762.18105,0.38793
6760.25230,0.39158
6758.32356,0.39606
6756.39481,0.39571
6754.46607,0.39257
6752.53732,0.39072
6750.60858,0.39204
6748.67983,0.39369
6746.75108,0.39251
6744.82234,0.39066
6742.89359,0.39002
6740.96485,0.38934
6739.03610,0.38861
6737.10736,0.38898
6735.17861,0.38947
6733.24987,0.38799
6731.32112,0.38625
6729.39238,0.38665
6727.46363,0.38700
6725.53489,0.38642
6723.60614,0.38802
6721.67740,0.39195
6719.74865,0.39443
6717.81991,0.39368
6715.89116,0.39131
6713.96241,0.38964
6712.03367,0.38991
6710.10492,0.39127
6708.17618,0.39215
6706.24743,0.39311
6704.31869,0.39444
6702.38994,0.39413
6700.46120,0.39217
6698.53245,0.39095
6696.60371,0.39205
6694.67496,0.39351
6692.74622,0.39136
6690.81747,0.38790
6688.88873,0.38883
6686.95998,0.39193
6685.03123,0.39251
6683.10249,0.39148
6681.17374,0.39141
6679.24500,0.39251
6677.31625,0.39240
6675.38751,0.39074
6673.45876,0.39018
6671.53002,0.39029
6669.60127,0.38916
6667.67253,0.38819
6665.74378,0.38856
6663.81504,0.38830
6661.88629,0.38661
6659.95755,0.38478
6658.02880,0.38333
6656.10006,0.38390
6654.17131,0.38748
6652.24256,0.39046
6650.31382,0.39091
6648.38507,0.39005
6646.45633,0.38765
6644.52758,0.38591
6642.59884,0.38793
6640.67009,0.39071
6638.74135,0.39079
6636.81260,0.38968
6634.88386,0.38917
6632.95511,0.38903
6631.02637,0.38935
6629.09762,0.39079
6627.16888,0.39239
6625.24013,0.39243
6623.31139,0.39098
6621.38264,0.38870
6619.45389,0.38665
6617.52515,0.38579
6615.59640,0.38608
6613.66766,0.38709
6611.73891,0.38788
6609.81017,0.38833
6607.88142,0.38832
6605.95268,0.38715
6604.02393,0.38655
6602.09519,0.38814
6600.16644,0.39118
6598.23770,0.39459
6596.30895,0.39677
6594.38021,0.39732
6592.45146,0.39669
6590.52271,0.39345
6588.59397,0.38892
6586.66522,0.38722
6584.73648,0.38846
6582.80773,0.39098
6580.87899,0.39401
6578.95024,0.39518
6577.02150,0.39342
6575.09275,0.39053
6573.16401,0.38793
6571.23526,0.38685
6569.30652,0.38857
6567.37777,0.39099
6565.44903,0.39123
6563.52028,0.39016
6561.59154,0.38923
6559.66279,0.38861
6557.73404,0.38878
6555.80530,0.38911
6553.87655,0.38924
6551.94781,0.39075
6550.01906,0.39300
6548.09032,0.39330
6546.16157,0.39294
6544.23283,0.39382
6542.30408,0.39420
6540.37534,0.39360
6538.44659,0.39284
6536.51785,0.39161
6534.58910,0.39032
6532.66036,0.38938
6530.73161,0.38882
6528.80287,0.38925
6526.87412,0.39039
6524.94537,0.39098
6523.01663,0.39100
6521.08788,0.39074
6519.15914,0.38921
6517.23039,0.38699
6515.30165,0.38697
6513.37290,0.38928
6511.44416,0.39092
6509.51541,0.39119
6507.58667,0.39131
6505.65792,0.39113
6503.72918,0.39115
6501.80043,0.39257
6499.87169,0.39397
6497.94294,0.39350
6496.01419,0.39194
6494.08545,0.39053
6492.15670,0.38909
6490.22796,0.38781
6488.29921,0.38832
6486.37047,0.39018
6484.44172,0.39068
6482.51298,0.39029
6480.58423,0.39040
6478.65549,0.38959
6476.72674,0.38865
6474.79800,0.39012
6472.86925,0.39213
6470.94051,0.39128
6469.01176,0.38858
6467.08302,0.38719
6465.15427,0.38742
6463.22552,0.38817
6461.29678,0.38927
6459.36803,0.38994
6457.43929,0.38996
6455.51054,0.38988
6453.58180,0.38968
6451.65305,0.39013
6449.72431,0.39110
6447.79556,0.39082
6445.86682,0.38891
6443.93807,0.38708
6442.00933,0.38665
6440.08058,0.38645
6438.15184,0.38647
6436.22309,0.38817
6434.29434,0.39001
6432.36560,0.39043
6430.43685,0.38996
6428.50811,0.38890
6426.57936,0.38811
6424.65062,0.38765
6422.72187,0.38630
6420.79313,0.38536
6418.86438,0.38729
6416.93564,0.39045
6415.00689,0.39049
6413.07815,0.38760
6411.14940,0.38677
6409.22066,0.38932
6407.29191,0.39159
6405.36317,0.39211
6403.43442,0.39182
6401.50567,0.39092
6399.57693,0.39053
6397.64818,0.39144
6395.71944,0.39181
6393.79069,0.39020
6391.86195,0.38810
6389.93320,0.38696
6388.00446,0.38597
6386.07571,0.38509
6384.14697,0.38600
6382.21822,0.38841
6380.28948,0.39032
6378.36073,0.39072
6376.43199,0.38967
6374.50324,0.38834
6372.57450,0.38804
6370.64575,0.38853
6368.71700,0.38925
6366.78826,0.39037
6364.85951,0.39146
6362.93077,0.39191
6361.00202,0.39174
6359.07328,0.39080
6357.14453,0.38995
6355.21579,0.39046
6353.28704,0.39114
6351.35830,0.39083
6349.42955,0.39067
6347.50081,0.39095
6345.57206,0.39100
6343.64332,0.39173
6341.71457,0.39380
6339.78582,0.39529
6337.85708,0.39403
6335.92833,0.39132
6333.99959,0.39022
6332.07084,0.39108
6330.14210,0.39176
6328.21335,0.39082
6326.28461,0.38942
6324.35586,0.38913
6322.42712,0.38944
6320.49837,0.38969
6318.56963,0.38966
6316.64088,0.38943
6314.71214,0.38955
6312.78339,0.38973
6310.85465,0.39004
6308.92590,0.39086
6306.99715,0.39117
6305.06841,0.38988
6303.13966,0.38790
6301.21092,0.38731
6299.28217,0.38864
6297.35343,0.39109
6295.42468,0.39352
6293.49594,0.39376
6291.56719,0.39152
6289.63845,0.38980
6287.70970,0.39032
6285.78096,0.39217
6283.85221,0.39319
6281.92347,0.39132
6279.99472,0.38833
6278.06598,0.38760
6276.13723,0.38871
6274.20848,0.38925
6272.27974,0.38877
6270.35099,0.38837
6268.42225,0.38857
6266.49350,0.38929
6264.56476,0.39034
6262.63601,0.39059
6260.70727,0.38932
6258.77852,0.38806
6256.84978,0.38810
6254.92103,0.38849
6252.99229,0.38853
6251.06354,0.38924
6249.13480,0.39127
6247.20605,0.39316
6245.27730,0.39320
6243.34856,0.39168
6241.41981,0.39007
6239.49107,0.38937
6237.56232,0.38933
6235.63358,0.38893
6233.70483,0.38800
6231.77609,0.38796
6229.84734,0.38952
6227.91860,0.39055
6225.98985,0.38988
6224.06111,0.38944
6222.13236,0.39007
6220.20362,0.39045
6218.27487,0.38957
6216.34613,0.38790
6214.41738,0.38679
6212.48863,0.38734
6210.55989,0.38850
6208.63114,0.38899
6206.70240,0.38947
6204.77365,0.38933
6202.84491,0.38780
6200.91616,0.38686
6198.98742,0.38668
6197.05867,0.38588
6195.12993,0.38612
6193.20118,0.38820
6191.27244,0.38910
6189.34369,0.38802
6187.41495,0.38752
6185.48620,0.38791
6183.55746,0.38761
6181.62871,0.38700
6179.69996,0.38731
6177.77122,0.38817
6175.84247,0.38872
6173.91373,0.38898
6171.98498,0.38838
6170.05624,0.38662
6168.12749,0.38606
6166.19875,0.38779
6164.27000,0.38918
6162.34126,0.38884
6160.41251,0.38741
6158.48377,0.38612
6156.55502,0.38658
6154.62628,0.38819
6152.69753,0.38840
6150.76878,0.38677
6148.84004,0.38483
6146.91129,0.38327
6144.98255,0.38310
6143.05380,0.38471
6141.12506,0.38602
6139.19631,0.38574
6137.26757,0.38431
6135.33882,0.38288
6133.41008,0.38279
6131.48133,0.38350
6129.55259,0.38354
6127.62384,0.38291
6125.69510,0.38242
6123.76635,0.38187
6121.83761,0.38130
6119.90886,0.38159
6117.98011,0.38225
6116.05137,0.38204
6114.12262,0.38178
6112.19388,0.38289
6110.26513,0.38405
6108.33639,0.38301
6106.40764,0.38046
6104.47890,0.37895
6102.55015,0.37914
6100.62141,0.37951
6098.69266,0.37907
6096.76392,0.37875
6094.83517,0.37960
6092.90643,0.38069
6090.97768,0.38078
6089.04893,0.38056
6087.12019,0.38142
6085.19144,0.38294
6083.26270,0.38372
6081.33395,0.38402
6079.40521,0.38458
6077.47646,0.38492
6075.54772,0.38443
6073.61897,0.38357
6071.69023,0.38336
6069.76148,0.38336
6067.83274,0.38297
6065.90399,0.38252
6063.97525,0.38227
6062.04650,0.38255
6060.11776,0.38220
6058.18901,0.38105
6056.26026,0.38130
6054.33152,0.38269
6052.40277,0.38341
6050.47403,0.38339
6048.54528,0.38310
6046.61654,0.38253
6044.68779,0.38119
6042.75905,0.38035
6040.83030,0.38200
6038.90156,0.38436
6036.97281,0.38539
6035.04407,0.38631
6033.11532,0.38688
6031.18658,0.38519
6029.25783,0.38165
6027.32909,0.37871
6025.40034,0.37774
6023.47159,0.37824
6021.54285,0.37968
6019.61410,0.38134
6017.68536,0.38174
6015.75661,0.38012
6013.82787,0.37774
6011.89912,0.37607
6009.97038,0.37466
6008.04163,0.37268
6006.11289,0.37130
6004.18414,0.37142
6002.25540,0.37102
6000.32665,0.36892
5998.39791,0.36693
5996.46916,0.36626
5994.54041,0.36701
5992.61167,0.36849
5990.68292,0.36887
5988.75418,0.36782
5986.82543,0.36649
5984.89669,0.36543
5982.96794,0.36466
5981.03920,0.36364
5979.11045,0.36189
5977.18171,0.36006
5975.25296,0.35939
5973.32422,0.36043
5971.39547,0.36166
5969.46673,0.36143
5967.53798,0.36009
5965.60924,0.35812
5963.68049,0.35672
5961.75174,0.35724
5959.82300,0.35812
5957.89425,0.35738
5955.96551,0.35561
5954.03676,0.35456
5952.10802,0.35533
5950.17927,0.35680
5948.25053,0.35658
5946.32178,0.35493
5944.39304,0.35424
5942.46429,0.35540
5940.53555,0.35797
5938.60680,0.36090
5936.67806,0.36255
5934.74931,0.36207
5932.82057,0.36042
5930.89182,0.35926
5928.96307,0.35934
5927.03433,0.36034
5925.10558,0.36126
5923.17684,0.36129
5921.24809,0.36073
5919.31935,0.36060
5917.39060,0.36127
5915.46186,0.36210
5913.53311,0.36276
5911.60437,0.36314
5909.67562,0.36358
5907.74688,0.36488
5905.81813,0.36630
5903.88939,0.36658
5901.96064,0.36569
5900.03189,0.36494
5898.10315,0.36530
5896.17440,0.36576
5894.24566,0.36607
5892.31691,0.36672
5890.38817,0.36681
5888.45942,0.36631
5886.53068,0.36657
5884.60193,0.36781
5882.67319,0.36911
5880.74444,0.36984
5878.81570,0.36964
5876.88695,0.36886
5874.95821,0.36905
5873.02946,0.37097
5871.10072,0.37331
5869.17197,0.37485
5867.24322,0.37655
5865.31448,0.37844
5863.38573,0.37862
5861.45699,0.37769
5859.52824,0.37796
5857.59950,0.37904
5855.67075,0.37919
5853.74201,0.37832
5851.81326,0.37819
5849.88452,0.37936
5847.95577,0.37960
5846.02703,0.37838
5844.09828,0.37807
5842.16954,0.37821
5840.24079,0.37710
5838.31205,0.37674
5836.38330,0.37843
5834.45455,0.37985
5832.52581,0.37964
5830.59706,0.37926
5828.66832,0.37962
5826.73957,0.37946
5824.81083,0.37856
5822.88208,0.37869
5820.95334,0.38001
5819.02459,0.38044
5817.09585,0.37928
5815.16710,0.37826
5813.23836,0.37809
5811.30961,0.37804
5809.38087,0.37833
5807.45212,0.37927
5805.52337,0.38034
5803.59463,0.38039
5801.66588,0.37901
5799.73714,0.37769
5797.80839,0.37763
5795.87965,0.37825
5793.95090,0.37851
5792.02216,0.37847
5790.09341,0.37881
5788.16467,0.37955
5786.23592,0.38024
5784.30718,0.38083
5782.37843,0.38150
5780.44969,0.38171
5778.52094,0.38075
5776.59220,0.37984
5774.66345,0.38017
5772.73470,0.38108
5770.80596,0.38226
5768.87721,0.38342
5766.94847,0.38356
5765.01972,0.38325
5763.09098,0.38371
5761.16223,0.38454
5759.23349,0.38493
5757.30474,0.38538
5755.37600,0.38605
5753.44725,0.38602
5751.51851,0.38538
5749.58976,0.38470
5747.66102,0.38404
5745.73227,0.38405
5743.80352,0.38490
5741.87478,0.38525
5739.94603,0.38473
5738.01729,0.38467
5736.08854,0.38533
5734.15980,0.38562
5732.23105,0.38501
5730.30231,0.38438
5728.37356,0.38464
5726.44482,0.38499
5724.51607,0.38417
5722.58733,0.38286
5720.65858,0.38239
5718.72984,0.38282
5716.80109,0.38339
5714.87235,0.38368
5712.94360,0.38390
5711.01485,0.38412
5709.08611,0.38364
5707.15736,0.38260
5705.22862,0.38198
5703.29987,0.38194
5701.37113,0.38194
5699.44238,0.38143
5697.51364,0.38047
5695.58489,0.37947
5693.65615,0.37854
5691.72740,0.37794
5689.79866,0.37854
5687.86991,0.38020
5685.94117,0.38117
5684.01242,0.38091
5682.08368,0.38056
5680.15493,0.38062
5678.22618,0.38081
5676.29744,0.38057
5674.36869,0.38015
5672.43995,0.38020
5670.51120,0.38013
5668.58246,0.37982
5666.65371,0.38001
5664.72497,0.38020
5662.79622,0.37956
5660.86748,0.37898
5658.93873,0.37967
5657.00999,0.38081
5655.08124,0.38166
5653.15250,0.38261
5651.22375,0.38352
5649.29500,0.38386
5647.36626,0.38372
5645.43751,0.38378
5643.50877,0.38430
5641.58002,0.38463
5639.65128,0.38423
5637.72253,0.38344
5635.79379,0.38308
5633.86504,0.38320
5631.93630,0.38362
5630.00755,0.38437
5628.07881,0.38492
5626.15006,0.38487
5624.22132,0.38497
5622.29257,0.38554
5620.36383,0.38591
5618.43508,0.38623
5616.50633,0.38650
5614.57759,0.38566
5612.64884,0.38410
5610.72010,0.38378
5608.79135,0.38497
5606.86261,0.38605
5604.93386,0.38651
5603.00512,0.38676
5601.07637,0.38650
5599.14763,0.38576
5597.21888,0.38486
5595.29014,0.38426
5593.36139,0.38451
5591.43265,0.38456
5589.50390,0.38354
5587.57516,0.38292
5585.64641,0.38332
5583.71766,0.38350
5581.78892,0.38326
5579.86017,0.38351
5577.93143,0.38428
5576.00268,0.38508
5574.07394,0.38569
5572.14519,0.38573
5570.21645,0.38531
5568.28770,0.38511
5566.35896,0.38492
5564.43021,0.38412
5562.50147,0.38291
5560.57272,0.38206
5558.64398,0.38219
5556.71523,0.38310
5554.78648,0.38373
5552.85774,0.38355
5550.92899,0.38350
5549.00025,0.38369
5547.07150,0.38354
5545.14276,0.38390
5543.21401,0.38477
5541.28527,0.38464
5539.35652,0.38362
5537.42778,0.38313
5535.49903,0.38342
5533.57029,0.38373
5531.64154,0.38378
5529.71280,0.38364
5527.78405,0.38350
5525.85531,0.38388
5523.92656,0.38459
5521.99781,0.38470
5520.06907,0.38402
5518.14032,0.38355
5516.21158,0.38415
5514.28283,0.38511
5512.35409,0.38556
5510.42534,0.38558
5508.49660,0.38530
5506.56785,0.38525
5504.63911,0.38540
5502.71036,0.38488
5500.78162,0.38427
5498.85287,0.38453
5496.92413,0.38502
5494.99538,0.38499
5493.06664,0.38472
5491.13789,0.38428
5489.20914,0.38392
5487.28040,0.38436
5485.35165,0.38494
5483.42291,0.38472
5481.49416,0.38421
5479.56542,0.38416
5477.63667,0.38481
5475.70793,0.38529
5473.77918,0.38483
5471.85044,0.38450
5469.92169,0.38498
5467.99295,0.38545
5466.06420,0.38562
5464.13546,0.38573
5462.20671,0.38581
5460.27796,0.38591
5458.34922,0.38630
5456.42047,0.38675
5454.49173,0.38642
5452.56298,0.38557
5450.63424,0.38535
5448.70549,0.38579
5446.77675,0.38584
5444.84800,0.38539
5442.91926,0.38517
5440.99051,0.38493
5439.06177,0.38466
5437.13302,0.38506
5435.20428,0.38587
5433.27553,0.38629
5431.34679,0.38606
5429.41804,0.38524
5427.48929,0.38448
5425.56055,0.38465
5423.63180,0.38511
5421.70306,0.38505
5419.77431,0.38495
5417.84557,0.38505
5415.91682,0.38477
5413.98808,0.38408
5412.05933,0.38371
5410.13059,0.38427
5408.20184,0.38540
5406.27310,0.38622
5404.34435,0.38620
5402.41561,0.38585
5400.48686,0.38587
5398.55811,0.38621
5396.62937,0.38662
5394.70062,0.38691
5392.77188,0.38653
5390.84313,0.38533
5388.91439,0.38429
5386.98564,0.38435
5385.05690,0.38494
5383.12815,0.38489
5381.19941,0.38439
5379.27066,0.38405
5377.34192,0.38410
5375.41317,0.38499
5373.48443,0.38613
5371.55568,0.38649
5369.62694,0.38637
5367.69819,0.38608
5365.76944,0.38536
5363.84070,0.38470
5361.91195,0.38437
5359.98321,0.38396
5358.05446,0.38379
5356.12572,0.38436
5354.19697,0.38519
5352.26823,0.38557
5350.33948,0.38586
5348.41074,0.38652
5346.48199,0.38673
5344.55325,0.38596
5342.62450,0.38526
5340.69576,0.38557
5338.76701,0.38639
5336.83827,0.38673
5334.90952,0.38684
5332.98077,0.38720
5331.05203,0.38679
5329.12328,0.38577
5327.19454,0.38568
5325.26579,0.38616
5323.33705,0.38625
5321.40830,0.38626
5319.47956,0.38621
5317.55081,0.38602
5315.62207,0.38601
5313.69332,0.38617
5311.76458,0.38632
5309.83583,0.38630
5307.90709,0.38616
5305.97834,0.38628
5304.04959,0.38684
5302.12085,0.38750
5300.19210,0.38780
5298.26336,0.38751
5296.33461,0.38672
5294.40587,0.38600
5292.47712,0.38563
5290.54838,0.38563
5288.61963,0.38634
5286.69089,0.38745
5284.76214,0.38795
5282.83340,0.38776
5280.90465,0.38754
5278.97591,0.38733
5277.04716,0.38686
5275.11842,0.38649
5273.18967,0.38656
5271.26092,0.38671
5269.33218,0.38662
5267.40343,0.38650
5265.47469,0.38640
5263.54594,0.38591
5261.61720,0.38527
5259.68845,0.38540
5257.75971,0.38608
5255.83096,0.38597
5253.90222,0.38513
5251.97347,0.38511
5250.04473,0.38610
5248.11598,0.38693
5246.18724,0.38725
5244.25849,0.38743
5242.32975,0.38755
5240.40100,0.38758
5238.47225,0.38743
5236.54351,0.38699
5234.61476,0.38702
5232.68602,0.38801
5230.75727,0.38845
5228.82853,0.38758
5226.89978,0.38697
5224.97104,0.38711
5223.04229,0.38692
5221.11355,0.38630
5219.18480,0.38577
5217.25606,0.38548
5215.32731,0.38574
5213.39857,0.38668
5211.46982,0.38770
5209.54107,0.38813
5207.61233,0.38801
5205.68358,0.38744
5203.75484,0.38659
5201.82609,0.38589
5199.89735,0.38535
5197.96860,0.38531
5196.03986,0.38623
5194.11111,0.38693
5192.18237,0.38691
5190.25362,0.38701
5188.32488,0.38713
5186.39613,0.38710
5184.46739,0.38748
5182.53864,0.38828
5180.60990,0.38860
5178.68115,0.38784
5176.75240,0.38727
5174.82366,0.38792
5172.89491,0.38852
5170.96617,0.38791
5169.03742,0.38689
5167.10868,0.38665
5165.17993,0.38697
5163.25119,0.38714
5161.32244,0.38723
5159.39370,0.38779
5157.46495,0.38851
5155.53621,0.38826
5153.60746,0.38729
5151.67872,0.38692
5149.74997,0.38714
5147.82123,0.38708
5145.89248,0.38696
5143.96373,0.38721
5142.03499,0.38714
5140.10624,0.38660
5138.17750,0.38651
5136.24875,0.38697
5134.32001,0.38714
5132.39126,0.38709
5130.46252,0.38728
5128.53377,0.38744
5126.60503,0.38728
5124.67628,0.38729
5122.74754,0.38780
5120.81879,0.38826
5118.89005,0.38810
5116.96130,0.38771
5115.03255,0.38744
5113.10381,0.38717
5111.17506,0.38676
5109.24632,0.38640
5107.31757,0.38642
5105.38883,0.38675
5103.46008,0.38686
5101.53134,0.38660
5099.60259,0.38680
5097.67385,0.38766
5095.74510,0.38799
5093.81636,0.38741
5091.88761,0.38682
5089.95887,0.38681
5088.03012,0.38697
5086.10138,0.38667
5084.17263,0.38632
5082.24388,0.38634
5080.31514,0.38644
5078.38639,0.38663
5076.45765,0.38695
5074.52890,0.38711
5072.60016,0.38731
5070.67141,0.38791
5068.74267,0.38842
5066.81392,0.38821
5064.88518,0.38745
5062.95643,0.38701
5061.02769,0.38737
5059.09894,0.38779
5057.17020,0.38784
5055.24145,0.38786
5053.31270,0.38795
5051.38396,0.38809
5049.45521,0.38788
5047.52647,0.38728
5045.59772,0.38698
5043.66898,0.38704
5041.74023,0.38698
5039.81149,0.38681
5037.88274,0.38692
5035.95400,0.38706
5034.02525,0.38704
5032.09651,0.38724
5030.16776,0.38749
5028.23902,0.38751
5026.31027,0.38765
5024.38153,0.38794
5022.45278,0.38820
5020.52403,0.38825
5018.59529,0.38785
5016.66654,0.38759
5014.73780,0.38791
5012.80905,0.38795
5010.88031,0.38724
5008.95156,0.38654
5007.02282,0.38661
5005.09407,0.38735
5003.16533,0.38793
5001.23658,0.38787
4999.30784,0.38757
4997.37909,0.38756
4995.45035,0.38784
4993.52160,0.38814
4991.59286,0.38843
4989.66411,0.38858
4987.73536,0.38843
4985.80662,0.38805
4983.87787,0.38783
4981.94913,0.38776
4980.02038,0.38714
4978.09164,0.38620
4976.16289,0.38627
4974.23415,0.38733
4972.30540,0.38781
4970.37666,0.38741
4968.44791,0.38744
4966.51917,0.38821
4964.59042,0.38850
4962.66168,0.38798
4960.73293,0.38767
4958.80418,0.38784
4956.87544,0.38792
4954.94669,0.38805
4953.01795,0.38817
4951.08920,0.38796
4949.16046,0.38771
4947.23171,0.38742
4945.30297,0.38705
4943.37422,0.38696
4941.44548,0.38695
4939.51673,0.38693
4937.58799,0.38738
4935.65924,0.38824
4933.73050,0.38892
4931.80175,0.38875
4929.87301,0.38802
4927.94426,0.38770
4926.01551,0.38757
4924.08677,0.38701
4922.15802,0.38657
4920.22928,0.38680
4918.30053,0.38719
4916.37179,0.38720
4914.44304,0.38706
4912.51430,0.38706
4910.58555,0.38718
4908.65681,0.38744
4906.72806,0.38786
4904.79932,0.38815
4902.87057,0.38810
4900.94183,0.38786
4899.01308,0.38767
4897.08434,0.38747
4895.15559,0.38704
4893.22684,0.38676
4891.29810,0.38715
4889.36935,0.38778
4887.44061,0.38807
4885.51186,0.38825
4883.58312,0.38839
4881.65437,0.38802
4879.72563,0.38739
4877.79688,0.38719
4875.86814,0.38722
4873.93939,0.38720
4872.01065,0.38728
4870.08190,0.38754
4868.15316,0.38795
4866.22441,0.38805
4864.29566,0.38757
4862.36692,0.38722
4860.43817,0.38735
4858.50943,0.38750
4856.58068,0.38768
4854.65194,0.38803
4852.72319,0.38810
4850.79445,0.38772
4848.86570,0.38729
4846.93696,0.38716
4845.00821,0.38740
4843.07947,0.38782
4841.15072,0.38788
4839.22198,0.38730
4837.29323,0.38655
4835.36449,0.38608
4833.43574,0.38604
4831.50699,0.38647
4829.57825,0.38723
4827.64950,0.38800
4825.72076,0.38840
4823.79201,0.38824
4821.86327,0.38785
4819.93452,0.38761
4818.00578,0.38734
4816.07703,0.38726
4814.14829,0.38756
4812.21954,0.38758
4810.29080,0.38710
4808.36205,0.38684
4806.43331,0.38707
4804.50456,0.38724
4802.57582,0.38729
4800.64707,0.38755
4798.71832,0.38777
4796.78958,0.38770
4794.86083,0.38741
4792.93209,0.38695
4791.00334,0.38657
4789.07460,0.38666
4787.14585,0.38727
4785.21711,0.38791
4783.28836,0.38824
4781.35962,0.38801
4779.43087,0.38720
4777.50213,0.38668
4775.57338,0.38688
4773.64464,0.38704
4771.71589,0.38686
4769.78714,0.38672
4767.85840,0.38635
4765.92965,0.38570
4764.00091,0.38537
4762.07216,0.38542
4760.14342,0.38582
4758.21467,0.38648
4756.28593,0.38668
4754.35718,0.38622
4752.42844,0.38571
4750.49969,0.38563
4748.57095,0.38590
4746.64220,0.38615
4744.71346,0.38635
4742.78471,0.38675
4740.85597,0.38723
4738.92722,0.38714
4736.99847,0.38643
4735.06973,0.38603
4733.14098,0.38608
4731.21224,0.38594
4729.28349,0.38575
4727.35475,0.38578
4725.42600,0.38565
4723.49726,0.38522
4721.56851,0.38490
4719.63977,0.38474
4717.71102,0.38452
4715.78228,0.38422
4713.85353,0.38359
4711.92479,0.38265
4709.99604,0.38189
4708.06729,0.38181
4706.13855,0.38213
4704.20980,0.38200
4702.28106,0.38158
4700.35231,0.38130
4698.42357,0.38088
4696.49482,0.38048
4694.56608,0.38047
4692.63733,0.38025
4690.70859,0.37922
4688.77984,0.37781
4686.85110,0.37661
4684.92235,0.37544
4682.99361,0.37376
4681.06486,0.37156
4679.13612,0.36902
4677.20737,0.36600
4675.27862,0.36279
4673.34988,0.35974
4671.42113,0.35679
4669.49239,0.35414
4667.56364,0.35227
4665.63490,0.35127
4663.70615,0.35101
4661.77741,0.35150
4659.84866,0.35255
4657.91992,0.35397
4655.99117,0.35583
4654.06243,0.35789
4652.13368,0.35980
4650.20494,0.36144
4648.27619,0.36284
4646.34745,0.36375
4644.41870,0.36403
4642.48995,0.36397
4640.56121,0.36350
4638.63246,0.36247
4636.70372,0.36109
4634.77497,0.35938
4632.84623,0.35741
4630.91748,0.35545
4628.98874,0.35363
4627.05999,0.35234
4625.13125,0.35176
4623.20250,0.35151
4621.27376,0.35148
4619.34501,0.35181
4617.41627,0.35238
4615.48752,0.35277
4613.55877,0.35245
4611.63003,0.35147
4609.70128,0.35058
4607.77254,0.35024
4605.84379,0.35020
4603.91505,0.35068
4601.98630,0.35233
4600.05756,0.35501
4598.12881,0.35790
4596.20007,0.36041
4594.27132,0.36241
4592.34258,0.36411
4590.41383,0.36561
4588.48509,0.36692
4586.55634,0.36792
4584.62760,0.36832
4582.69885,0.36797
4580.77010,0.36695
4578.84136,0.36528
4576.91261,0.36313
4574.98387,0.36095
4573.05512,0.35933
4571.12638,0.35904
4569.19763,0.36027
4567.26889,0.36231
4565.34014,0.36473
4563.41140,0.36736
4561.48265,0.36959
4559.55391,0.37113
4557.62516,0.37237
4555.69642,0.37354
4553.76767,0.37444
4551.83893,0.37512
4549.91018,0.37578
4547.98143,0.37670
4546.05269,0.37800
4544.12394,0.37896
4542.19520,0.37913
4540.26645,0.37912
4538.33771,0.37912
4536.40896,0.37875
4534.48022,0.37816
4532.55147,0.37774
4530.62273,0.37770
4528.69398,0.37787
4526.76524,0.37812
4524.83649,0.37877
4522.90775,0.37949
4520.97900,0.37952
4519.05025,0.37907
4517.12151,0.37879
4515.19276,0.37878
4513.26402,0.37897
4511.33527,0.37918
4509.40653,0.37907
4507.47778,0.37877
4505.54904,0.37875
4503.62029,0.37918
4501.69155,0.37980
4499.76280,0.38020
4497.83406,0.38041
4495.90531,0.38073
4493.97657,0.38101
4492.04782,0.38093
4490.11908,0.38083
4488.19033,0.38103
4486.26158,0.38122
4484.33284,0.38113
4482.40409,0.38087
4480.47535,0.38106
4478.54660,0.38183
4476.61786,0.38225
4474.68911,0.38204
4472.76037,0.38179
4470.83162,0.38169
4468.90288,0.38181
4466.97413,0.38232
4465.04539,0.38296
4463.11664,0.38311
4461.18790,0.38261
4459.25915,0.38211
4457.33041,0.38215
4455.40166,0.38251
4453.47291,0.38245
4451.54417,0.38168
4449.61542,0.38081
4447.68668,0.38030
4445.75793,0.38014
4443.82919,0.38029
4441.90044,0.38039
4439.97170,0.38019
4438.04295,0.38002
4436.11421,0.38014
4434.18546,0.38061
4432.25672,0.38107
4430.32797,0.38100
4428.39923,0.38061
4426.47048,0.38038
4424.54173,0.38041
4422.61299,0.38058
4420.68424,0.38056
4418.75550,0.38040
4416.82675,0.38037
4414.89801,0.38023
4412.96926,0.37975
4411.04052,0.37941
4409.11177,0.37943
4407.18303,0.37935
4405.25428,0.37889
4403.32554,0.37831
4401.39679,0.37801
4399.46805,0.37792
4397.53930,0.37773
4395.61056,0.37729
4393.68181,0.37667
4391.75306,0.37606
4389.82432,0.37546
4387.89557,0.37491
4385.96683,0.37450
4384.03808,0.37414
4382.10934,0.37364
4380.18059,0.37296
4378.25185,0.37216
4376.32310,0.37133
4374.39436,0.37055
4372.46561,0.36991
4370.53687,0.36946
4368.60812,0.36902
4366.67938,0.36832
4364.75063,0.36744
4362.82189,0.36676
4360.89314,0.36634
4358.96439,0.36547
4357.03565,0.36411
4355.10690,0.36326
4353.17816,0.36316
4351.24941,0.36301
4349.32067,0.36242
4347.39192,0.36173
4345.46318,0.36120
4343.53443,0.36077
4341.60569,0.36043
4339.67694,0.36032
4337.74820,0.36020
4335.81945,0.35990
4333.89071,0.35971
4331.96196,0.35978
4330.03321,0.35992
4328.10447,0.36020
4326.17572,0.36082
4324.24698,0.36168
4322.31823,0.36253
4320.38949,0.36348
4318.46074,0.36459
4316.53200,0.36565
4314.60325,0.36657
4312.67451,0.36762
4310.74576,0.36892
4308.81702,0.36993
4306.88827,0.37020
4304.95953,0.37013
4303.03078,0.37001
4301.10204,0.36956
4299.17329,0.36881
4297.24454,0.36834
4295.31580,0.36811
4293.38705,0.36769
4291.45831,0.36727
4289.52956,0.36681
4287.60082,0.36590
4285.67207,0.36473
4283.74333,0.36372
4281.81458,0.36294
4279.88584,0.36222
4277.95709,0.36149
4276.02835,0.36073
4274.09960,0.35966
4272.17086,0.35818
4270.24211,0.35678
4268.31336,0.35577
4266.38462,0.35478
4264.45587,0.35352
4262.52713,0.35220
4260.59838,0.35109
4258.66964,0.35007
4256.74089,0.34911
4254.81215,0.34837
4252.88340,0.34798
4250.95466,0.34784
4249.02591,0.34780
4247.09717,0.34771
4245.16842,0.34765
4243.23968,0.34797
4241.31093,0.34858
4239.38219,0.34910
4237.45344,0.34944
4235.52469,0.34952
4233.59595,0.34950
4231.66720,0.34976
4229.73846,0.35019
4227.80971,0.35066
4225.88097,0.35091
4223.95222,0.35092
4222.02348,0.35114
4220.09473,0.35143
4218.16599,0.35131
4216.23724,0.35098
4214.30850,0.35099
4212.37975,0.35123
4210.45101,0.35129
4208.52226,0.35144
4206.59352,0.35199
4204.66477,0.35243
4202.73602,0.35248
4200.80728,0.35270
4198.87853,0.35343
4196.94979,0.35435
4195.02104,0.35511
4193.09230,0.35577
4191.16355,0.35631
4189.23481,0.35679
4187.30606,0.35731
4185.37732,0.35770
4183.44857,0.35789
4181.51983,0.35808
4179.59108,0.35840
4177.66234,0.35892
4175.73359,0.35972
4173.80484,0.36060
4171.87610,0.36143
4169.94735,0.36212
4168.01861,0.36228
4166.08986,0.36204
4164.16112,0.36193
4162.23237,0.36198
4160.30363,0.36199
4158.37488,0.36198
4156.44614,0.36192
4154.51739,0.36187
4152.58865,0.36202
4150.65990,0.36217
4148.73116,0.36199
4146.80241,0.36150
4144.87367,0.36124
4142.94492,0.36146
4141.01617,0.36152
4139.08743,0.36109
4137.15868,0.36062
4135.22994,0.36030
4133.30119,0.35984
4131.37245,0.35905
4129.44370,0.35820
4127.51496,0.35751
4125.58621,0.35681
4123.65747,0.35595
4121.72872,0.35530
4119.79998,0.35516
4117.87123,0.35512
4115.94249,0.35485
4114.01374,0.35436
4112.08500,0.35361
4110.15625,0.35278
4108.22750,0.35216
4106.29876,0.35170
4104.37001,0.35124
4102.44127,0.35088
4100.51252,0.35066
4098.58378,0.35026
4096.65503,0.34980
4094.72629,0.34937
4092.79754,0.34842
4090.86880,0.34686
4088.94005,0.34518
4087.01131,0.34357
4085.08256,0.34226
4083.15382,0.34104
4081.22507,0.33920
4079.29632,0.33678
4077.36758,0.33439
4075.43883,0.33233
4073.51009,0.33026
4071.58134,0.32748
4069.65260,0.32402
4067.72385,0.32061
4065.79511,0.31765
4063.86636,0.31508
4061.93762,0.31276
4060.00887,0.31095
4058.08013,0.30991
4056.15138,0.30918
4054.22264,0.30847
4052.29389,0.30810
4050.36515,0.30833
4048.43640,0.30910
4046.50765,0.30994
4044.57891,0.31005
4042.65016,0.30889
4040.72142,0.30704
4038.79267,0.30561
4036.86393,0.30511
4034.93518,0.30604
4033.00644,0.30886
4031.07769,0.31274
4029.14895,0.31647
4027.22020,0.31993
4025.29146,0.32351
4023.36271,0.32736
4021.43397,0.33153
4019.50522,0.33598
4017.57648,0.34043
4015.64773,0.34428
4013.71898,0.34729
4011.79024,0.34960
4009.86149,0.35110
4007.93275,0.35190
4006.00400,0.35223
4004.07526,0.35212
4002.14651,0.35184
4000.21777,0.35177
3998.28902,0.35207
3996.36028,0.35299
3994.43153,0.35467
3992.50279,0.35667
3990.57404,0.35817
3988.64530,0.35911
3986.71655,0.35990
3984.78780,0.36050
3982.85906,0.36054
3980.93031,0.35998
3979.00157,0.35943
3977.07282,0.35937
3975.14408,0.35971
3973.21533,0.36015
3971.28659,0.36043
3969.35784,0.36072
3967.42910,0.36106
3965.50035,0.36132
3963.57161,0.36166
3961.64286,0.36202
3959.71412,0.36226
3957.78537,0.36241
3955.85663,0.36244
3953.92788,0.36240
3951.99913,0.36257
3950.07039,0.36291
3948.14164,0.36296
3946.21290,0.36276
3944.28415,0.36259
3942.35541,0.36232
3940.42666,0.36196
3938.49792,0.36163
3936.56917,0.36148
3934.64043,0.36172
3932.71168,0.36225
3930.78294,0.36253
3928.85419,0.36228
3926.92545,0.36202
3924.99670,0.36236
3923.06795,0.36314
3921.13921,0.36383
3919.21046,0.36429
3917.28172,0.36447
3915.35297,0.36431
3913.42423,0.36416
3911.49548,0.36431
3909.56674,0.36455
3907.63799,0.36475
3905.70925,0.36497
3903.78050,0.36492
3901.85176,0.36449
3899.92301,0.36413
3897.99427,0.36409
3896.06552,0.36433
3894.13678,0.36473
3892.20803,0.36497
3890.27928,0.36495
3888.35054,0.36512
3886.42179,0.36570
3884.49305,0.36630
3882.56430,0.36665
3880.63556,0.36679
3878.70681,0.36667
3876.77807,0.36640
3874.84932,0.36610
3872.92058,0.36600
3870.99183,0.36615
3869.06309,0.36617
3867.13434,0.36589
3865.20560,0.36552
3863.27685,0.36536
3861.34811,0.36553
3859.41936,0.36580
3857.49061,0.36616
3855.56187,0.36685
3853.63312,0.36754
3851.70438,0.36714
3849.77563,0.36617
3847.84689,0.36566
3845.91814,0.36576
3843.98940,0.36611
3842.06065,0.36615
3840.13191,0.36580
3838.20316,0.36536
3836.27442,0.36492
3834.34567,0.36455
3832.41693,0.36433
3830.48818,0.36409
3828.55943,0.36372
3826.63069,0.36338
3824.70194,0.36325
3822.77320,0.36323
3820.84445,0.36303
3818.91571,0.36279
3816.98696,0.36284
3815.05822,0.36280
3813.12947,0.36228
3811.20073,0.36176
3809.27198,0.36189
3807.34324,0.36248
3805.41449,0.36278
3803.48575,0.36282
3801.55700,0.36286
3799.62826,0.36283
3797.69951,0.36291
3795.77076,0.36327
3793.84202,0.36372
3791.91327,0.36416
3789.98453,0.36463
3788.05578,0.36524
3786.12704,0.36593
3784.19829,0.36648
3782.26955,0.36678
3780.34080,0.36685
3778.41206,0.36668
3776.48331,0.36641
3774.55457,0.36627
3772.62582,0.36639
3770.69708,0.36673
3768.76833,0.36696
3766.83959,0.36684
3764.91084,0.36652
3762.98209,0.36638
3761.05335,0.36658
3759.12460,0.36688
3757.19586,0.36713
3755.26711,0.36751
3753.33837,0.36827
3751.40962,0.36931
3749.48088,0.36988
3747.55213,0.36973
3745.62339,0.36945
3743.69464,0.36926
3741.76590,0.36904
3739.83715,0.36880
3737.90841,0.36864
3735.97966,0.36873
3734.05091,0.36890
3732.12217,0.36860
3730.19342,0.36787
3728.26468,0.36710
3726.33593,0.36642
3724.40719,0.36587
3722.47844,0.36542
3720.54970,0.36505
3718.62095,0.36513
3716.69221,0.36574
3714.76346,0.36649
3712.83472,0.36714
3710.90597,0.36740
3708.97723,0.36691
3707.04848,0.36578
3705.11974,0.36455
3703.19099,0.36369
3701.26224,0.36326
3699.33350,0.36326
3697.40475,0.36379
3695.47601,0.36465
3693.54726,0.36550
3691.61852,0.36630
3689.68977,0.36689
3687.76103,0.36669
3685.83228,0.36585
3683.90354,0.36507
3681.97479,0.36449
3680.04605,0.36395
3678.11730,0.36384
3676.18856,0.36437
3674.25981,0.36466
3672.33107,0.36456
3670.40232,0.36469
3668.47357,0.36464
3666.54483,0.36412
3664.61608,0.36345
3662.68734,0.36277
3660.75859,0.36186
3658.82985,0.36041
3656.90110,0.35826
3654.97236,0.35582
3653.04361,0.35377
3651.11487,0.35214
3649.18612,0.35049
3647.25738,0.34894
3645.32863,0.34865
3643.39989,0.35009
3641.47114,0.35248
3639.54239,0.35505
3637.61365,0.35763
3635.68490,0.35989
3633.75616,0.36149
3631.82741,0.36255
3629.89867,0.36276
3627.96992,0.36157
3626.04118,0.35964
3624.11243,0.35776
3622.18369,0.35638
3620.25494,0.35602
3618.32620,0.35666
3616.39745,0.35791
3614.46871,0.35964
3612.53996,0.36178
3610.61122,0.36391
3608.68247,0.36552
3606.75372,0.36633
3604.82498,0.36650
3602.89623,0.36653
3600.96749,0.36672
3599.03874,0.36684
3597.11000,0.36663
3595.18125,0.36637
3593.25251,0.36649
3591.32376,0.36699
3589.39502,0.36756
3587.46627,0.36768
3585.53753,0.36736
3583.60878,0.36711
3581.68004,0.36710
3579.75129,0.36717
3577.82254,0.36706
3575.89380,0.36677
3573.96505,0.36663
3572.03631,0.36686
3570.10756,0.36725
3568.17882,0.36740
3566.25007,0.36725
3564.32133,0.36693
3562.39258,0.36651
3560.46384,0.36621
3558.53509,0.36617
3556.60635,0.36616
3554.67760,0.36612
3552.74886,0.36605
3550.82011,0.36582
3548.89137,0.36558
3546.96262,0.36543
3545.03387,0.36510
3543.10513,0.36469
3541.17638,0.36449
3539.24764,0.36431
3537.31889,0.36401
3535.39015,0.36379
3533.46140,0.36359
3531.53266,0.36330
3529.60391,0.36315
3527.67517,0.36319
3525.74642,0.36312
3523.81768,0.36286
3521.88893,0.36251
3519.96019,0.36219
3518.03144,0.36204
3516.10270,0.36194
3514.17395,0.36173
3512.24520,0.36143
3510.31646,0.36112
3508.38771,0.36095
3506.45897,0.36092
3504.53022,0.36092
3502.60148,0.36093
3500.67273,0.36077
3498.74399,0.36029
3496.81524,0.35960
3494.88650,0.35905
3492.95775,0.35880
3491.02901,0.35860
3489.10026,0.35839
3487.17152,0.35804
3485.24277,0.35758
3483.31402,0.35742
3481.38528,0.35747
3479.45653,0.35719
3477.52779,0.35672
3475.59904,0.35649
3473.67030,0.35626
3471.74155,0.35584
3469.81281,0.35554
3467.88406,0.35535
3465.95532,0.35520
3464.02657,0.35517
3462.09783,0.35516
3460.16908,0.35488
3458.24034,0.35438
3456.31159,0.35408
3454.38285,0.35427
3452.45410,0.35464
3450.52535,0.35473
3448.59661,0.35445
3446.66786,0.35394
3444.73912,0.35335
3442.81037,0.35282
3440.88163,0.35270
3438.95288,0.35317
3437.02414,0.35368
3435.09539,0.35378
3433.16665,0.35393
3431.23790,0.35456
3429.30916,0.35542
3427.38041,0.35590
3425.45167,0.35590
3423.52292,0.35608
3421.59418,0.35670
3419.66543,0.35721
3417.73668,0.35730
3415.80794,0.35718
3413.87919,0.35707
3411.95045,0.35694
3410.02170,0.35676
3408.09296,0.35669
3406.16421,0.35688
3404.23547,0.35726
3402.30672,0.35757
3400.37798,0.35769
3398.44923,0.35771
3396.52049,0.35775
3394.59174,0.35783
3392.66300,0.35787
3390.73425,0.35790
3388.80550,0.35797
3386.87676,0.35786
3384.94801,0.35759
3383.01927,0.35750
3381.09052,0.35771
3379.16178,0.35800
3377.23303,0.35820
3375.30429,0.35832
3373.37554,0.35845
3371.44680,0.35875
3369.51805,0.35916
3367.58931,0.35934
3365.66056,0.35917
3363.73182,0.35901
3361.80307,0.35907
3359.87433,0.35917
3357.94558,0.35908
3356.01683,0.35877
3354.08809,0.35869
3352.15934,0.35903
3350.23060,0.35921
3348.30185,0.35884
3346.37311,0.35841
3344.44436,0.35832
3342.51562,0.35837
3340.58687,0.35848
3338.65813,0.35854
3336.72938,0.35847
3334.80064,0.35841
3332.87189,0.35827
3330.94315,0.35807
3329.01440,0.35808
3327.08566,0.35828
3325.15691,0.35849
3323.22816,0.35868
3321.29942,0.35888
3319.37067,0.35898
3317.44193,0.35883
3315.51318,0.35854
3313.58444,0.35844
3311.65569,0.35859
3309.72695,0.35879
3307.79820,0.35886
3305.86946,0.35866
3303.94071,0.35830
3302.01197,0.35816
3300.08322,0.35838
3298.15448,0.35864
3296.22573,0.35876
3294.29698,0.35882
3292.36824,0.35879
3290.43949,0.35858
3288.51075,0.35824
3286.58200,0.35787
3284.65326,0.35776
3282.72451,0.35800
3280.79577,0.35810
3278.86702,0.35788
3276.93828,0.35777
3275.00953,0.35789
3273.08079,0.35807
3271.15204,0.35800
3269.22330,0.35755
3267.29455,0.35712
3265.36581,0.35699
3263.43706,0.35687
3261.50831,0.35661
3259.57957,0.35652
3257.65082,0.35660
3255.72208,0.35652
3253.79333,0.35632
3251.86459,0.35639
3249.93584,0.35678
3248.00710,0.35693
3246.07835,0.35651
3244.14961,0.35607
3242.22086,0.35598
3240.29212,0.35605
3238.36337,0.35626
3236.43463,0.35655
3234.50588,0.35644
3232.57713,0.35585
3230.64839,0.35535
3228.71964,0.35527
3226.79090,0.35521
3224.86215,0.35477
3222.93341,0.35407
3221.00466,0.35342
3219.07592,0.35304
3217.14717,0.35291
3215.21843,0.35286
3213.28968,0.35254
3211.36094,0.35180
3209.43219,0.35101
3207.50345,0.35036
3205.57470,0.34963
3203.64596,0.34889
3201.71721,0.34838
3199.78846,0.34792
3197.85972,0.34743
3195.93097,0.34721
3194.00223,0.34738
3192.07348,0.34751
3190.14474,0.34721
3188.21599,0.34679
3186.28725,0.34672
3184.35850,0.34664
3182.42976,0.34611
3180.50101,0.34548
3178.57227,0.34511
3176.64352,0.34466
3174.71478,0.34369
3172.78603,0.34222
3170.85729,0.34049
3168.92854,0.33826
3166.99979,0.33513
3165.07105,0.33159
3163.14230,0.32901
3161.21356,0.32852
3159.28481,0.32990
3157.35607,0.33190
3155.42732,0.33367
3153.49858,0.33513
3151.56983,0.33612
3149.64109,0.33658
3147.71234,0.33664
3145.78360,0.33626
3143.85485,0.33559
3141.92611,0.33499
3139.99736,0.33437
3138.06861,0.33350
3136.13987,0.33256
3134.21112,0.33158
3132.28238,0.33041
3130.35363,0.32901
3128.42489,0.32717
3126.49614,0.32487
3124.56740,0.32231
3122.63865,0.31918
3120.70991,0.31507
3118.78116,0.30983
3116.85242,0.30313
3114.92367,0.29458
3112.99493,0.28400
3111.06618,0.27173
3109.13744,0.25912
3107.20869,0.24780
3105.27994,0.23904
3103.35120,0.23420
3101.42245,0.23364
3099.49371,0.23572
3097.56496,0.23780
3095.63622,0.23741
3093.70747,0.23292
3091.77873,0.22395
3089.84998,0.21136
3087.92124,0.19706
3085.99249,0.18386
3084.06375,0.17487
3082.13500,0.17196
3080.20626,0.17498
3078.27751,0.18183
3076.34877,0.18881
3074.42002,0.19268
3072.49127,0.19268
3070.56253,0.18943
3068.63378,0.18316
3066.70504,0.17462
3064.77629,0.16566
3062.84755,0.15841
3060.91880,0.15477
3058.99006,0.15585
3057.06131,0.16127
3055.13257,0.16928
3053.20382,0.17795
3051.27508,0.18603
3049.34633,0.19264
3047.41759,0.19712
3045.48884,0.19893
3043.56009,0.19763
3041.63135,0.19314
3039.70260,0.18592
3037.77386,0.17664
3035.84511,0.16579
3033.91637,0.15402
3031.98762,0.14241
3030.05888,0.13242
3028.13013,0.12571
3026.20139,0.12391
3024.27264,0.12803
3022.34390,0.13785
3020.41515,0.15192
3018.48641,0.16805
3016.55766,0.18399
3014.62892,0.19800
3012.70017,0.20908
3010.77142,0.21653
3008.84268,0.21955
3006.91393,0.21793
3004.98519,0.21322
3003.05644,0.20859
3001.12770,0.20736
2999.19895,0.21168
2997.27021,0.22151
2995.34146,0.23429
2993.41272,0.24639
2991.48397,0.25556
2989.55523,0.26168
2987.62648,0.26541
2985.69774,0.26706
2983.76899,0.26687
2981.84025,0.26530
2979.91150,0.26288
2977.98275,0.26024
2976.05401,0.25782
2974.12526,0.25551
2972.19652,0.25285
2970.26777,0.24959
2968.33903,0.24566
2966.41028,0.24086
2964.48154,0.23514
2962.55279,0.22894
2960.62405,0.22269
2958.69530,0.21629
2956.76656,0.20947
2954.83781,0.20225
2952.90907,0.19492
2950.98032,0.18747
2949.05157,0.17974
2947.12283,0.17188
2945.19408,0.16415
2943.26534,0.15671
2941.33659,0.14961
2939.40785,0.14284
2937.47910,0.13649
2935.55036,0.13081
2933.62161,0.12587
2931.69287,0.12180
2929.76412,0.11888
2927.83538,0.11716
2925.90663,0.11647
2923.97789,0.11673
2922.04914,0.11790
2920.12040,0.11994
2918.19165,0.12281
2916.26290,0.12630
2914.33416,0.13016
2912.40541,0.13427
2910.47667,0.13879
2908.54792,0.14381
2906.61918,0.14899
2904.69043,0.15414
2902.76169,0.15943
2900.83294,0.16497
2898.90420,0.17065
2896.97545,0.17624
2895.04671,0.18135
2893.11796,0.18594
2891.18922,0.19025
2889.26047,0.19427
2887.33172,0.19784
2885.40298,0.20102
2883.47423,0.20411
2881.54549,0.20734
2879.61674,0.21063
2877.68800,0.21382
2875.75925,0.21683
2873.83051,0.21921
2871.90176,0.22051
2869.97302,0.22069
2868.04427,0.21953
2866.11553,0.21665
2864.18678,0.21195
2862.25804,0.20582
2860.32929,0.19898
2858.40055,0.19192
2856.47180,0.18526
2854.54305,0.17973
2852.61431,0.17583
2850.68556,0.17424
2848.75682,0.17556
2846.82807,0.17992
2844.89933,0.18732
2842.97058,0.19772
2841.04184,0.21088
2839.11309,0.22623
2837.18435,0.24258
2835.25560,0.25837
2833.32686,0.27202
2831.39811,0.28264
2829.46937,0.29062
2827.54062,0.29682
2825.61188,0.30162
2823.68313,0.30501
2821.75438,0.30722
2819.82564,0.30881
2817.89689,0.31006
2815.96815,0.31103
2814.03940,0.31178
2812.11066,0.31234
2810.18191,0.31292
2808.25317,0.31374
2806.32442,0.31496
2804.39568,0.31669
2802.46693,0.31859
2800.53819,0.32031
2798.60944,0.32199
2796.68070,0.32367
2794.75195,0.32510
2792.82320,0.32626
2790.89446,0.32720
2788.96571,0.32792
2787.03697,0.32851
2785.10822,0.32889
2783.17948,0.32899
2781.25073,0.32897
2779.32199,0.32918
2777.39324,0.32996
2775.46450,0.33122
2773.53575,0.33266
2771.60701,0.33429
2769.67826,0.33601
2767.74952,0.33738
2765.82077,0.33835
2763.89203,0.33918
2761.96328,0.34001
2760.03453,0.34076
2758.10579,0.34119
2756.17704,0.34140
2754.24830,0.34161
2752.31955,0.34193
2750.39081,0.34247
2748.46206,0.34305
2746.53332,0.34321
2744.60457,0.34283
2742.67583,0.34232
2740.74708,0.34203
2738.81834,0.34184
2736.88959,0.34152
2734.96085,0.34095
2733.03210,0.34017
2731.10336,0.33946
2729.17461,0.33894
2727.24586,0.33852
2725.31712,0.33815
2723.38837,0.33782
2721.45963,0.33755
2719.53088,0.33748
2717.60214,0.33761
2715.67339,0.33762
2713.74465,0.33748
2711.81590,0.33771
2709.88716,0.33829
2707.95841,0.33861
2706.02967,0.33855
2704.10092,0.33852
2702.17218,0.33849
2700.24343,0.33828
2698.31468,0.33792
2696.38594,0.33755
2694.45719,0.33737
2692.52845,0.33750
2690.59970,0.33773
2688.67096,0.33767
2686.74221,0.33737
2684.81347,0.33724
2682.88472,0.33737
2680.95598,0.33761
2679.02723,0.33781
2677.09849,0.33797
2675.16974,0.33801
2673.24100,0.33795
2671.31225,0.33800
2669.38351,0.33839
2667.45476,0.33900
2665.52601,0.33942
2663.59727,0.33948
2661.66852,0.33934
2659.73978,0.33922
2657.81103,0.33908
2655.88229,0.33880
2653.95354,0.33853
2652.02480,0.33835
2650.09605,0.33815
2648.16731,0.33803
2646.23856,0.33810
2644.30982,0.33821
2642.38107,0.33808
2640.45233,0.33745
2638.52358,0.33617
2636.59484,0.33435
2634.66609,0.33240
2632.73734,0.33098
2630.80860,0.33085
2628.87985,0.33222
2626.95111,0.33445
2625.02236,0.33675
2623.09362,0.33868
2621.16487,0.33998
2619.23613,0.34062
2617.30738,0.34087
2615.37864,0.34097
2613.44989,0.34079
2611.52115,0.34003
2609.59240,0.33851
2607.66366,0.33640
2605.73491,0.33434
2603.80616,0.33315
2601.87742,0.33321
2599.94867,0.33438
2598.01993,0.33630
2596.09118,0.33854
2594.16244,0.34056
2592.23369,0.34193
2590.30495,0.34247
2588.37620,0.34223
2586.44746,0.34134
2584.51871,0.33994
2582.58997,0.33858
2580.66122,0.33811
2578.73248,0.33897
2576.80373,0.34070
2574.87499,0.34240
2572.94624,0.34356
2571.01749,0.34422
2569.08875,0.34458
2567.16000,0.34484
2565.23126,0.34498
2563.30251,0.34495
2561.37377,0.34485
2559.44502,0.34472
2557.51628,0.34455
2555.58753,0.34439
2553.65879,0.34427
2551.73004,0.34412
2549.80130,0.34393
2547.87255,0.34379
2545.94381,0.34373
2544.01506,0.34380
2542.08631,0.34405
2540.15757,0.34449
2538.22882,0.34510
2536.30008,0.34568
2534.37133,0.34594
2532.44259,0.34590
2530.51384,0.34577
2528.58510,0.34550
2526.65635,0.34514
2524.72761,0.34481
2522.79886,0.34458
2520.87012,0.34437
2518.94137,0.34413
2517.01263,0.34394
2515.08388,0.34378
2513.15514,0.34347
2511.22639,0.34323
2509.29764,0.34330
2507.36890,0.34358
2505.44015,0.34395
2503.51141,0.34436
2501.58266,0.34480
2499.65392,0.34532
2497.72517,0.34594
2495.79643,0.34647
2493.86768,0.34677
2491.93894,0.34693
2490.01019,0.34716
2488.08145,0.34755
2486.15270,0.34800
2484.22396,0.34837
2482.29521,0.34865
2480.36647,0.34911
2478.43772,0.35003
2476.50897,0.35117
2474.58023,0.35209
2472.65148,0.35280
2470.72274,0.35344
2468.79399,0.35405
2466.86525,0.35467
2464.93650,0.35525
2463.00776,0.35554
2461.07901,0.35560
2459.15027,0.35569
2457.22152,0.35580
2455.29278,0.35572
2453.36403,0.35556
2451.43529,0.35563
2449.50654,0.35596
2447.57779,0.35623
2445.64905,0.35631
2443.72030,0.35640
2441.79156,0.35658
2439.86281,0.35675
2437.93407,0.35698
2436.00532,0.35719
2434.07658,0.35731
2432.14783,0.35749
2430.21909,0.35780
2428.29034,0.35817
2426.36160,0.35856
2424.43285,0.35890
2422.50411,0.35912
2420.57536,0.35917
2418.64662,0.35908
2416.71787,0.35895
2414.78912,0.35889
2412.86038,0.35882
2410.93163,0.35854
2409.00289,0.35811
2407.07414,0.35768
2405.14540,0.35717
2403.21665,0.35652
2401.28791,0.35610
2399.35916,0.35608
2397.43042,0.35617
2395.50167,0.35618
2393.57293,0.35615
2391.64418,0.35598
2389.71544,0.35568
2387.78669,0.35548
2385.85795,0.35541
2383.92920,0.35526
2382.00045,0.35498
2380.07171,0.35483
2378.14296,0.35500
2376.21422,0.35516
2374.28547,0.35508
2372.35673,0.35477
2370.42798,0.35418
2368.49924,0.35333
2366.57049,0.35241
2364.64175,0.35148
2362.71300,0.35057
2360.78426,0.34992
2358.85551,0.34960
2356.92677,0.34962
2354.99802,0.34986
2353.06927,0.34990
2351.14053,0.34942
2349.21178,0.34843
2347.28304,0.34705
2345.35429,0.34511
2343.42555,0.34227
2341.49680,0.33870
2339.56806,0.33545
2337.63931,0.33372
2335.71057,0.33422
2333.78182,0.33697
2331.85308,0.34120
2329.92433,0.34558
2327.99559,0.34915
2326.06684,0.35160
2324.13810,0.35295
2322.20935,0.35323
2320.28060,0.35226
2318.35186,0.35014
2316.42311,0.34750
2314.49437,0.34509
2312.56562,0.34350
2310.63688,0.34331
2308.70813,0.34479
2306.77939,0.34761
2304.85064,0.35069
2302.92190,0.35298
2300.99315,0.35432
2299.06441,0.35497
2297.13566,0.35506
2295.20692,0.35493
2293.27817,0.35499
2291.34943,0.35528
2289.42068,0.35572
2287.49193,0.35646
2285.56319,0.35740
2283.63444,0.35820
2281.70570,0.35871
2279.77695,0.35906
2277.84821,0.35933
2275.91946,0.35943
2273.99072,0.35922
2272.06197,0.35872
2270.13323,0.35814
2268.20448,0.35773
2266.27574,0.35747
2264.34699,0.35706
2262.41825,0.35645
2260.48950,0.35590
2258.56075,0.35546
2256.63201,0.35510
2254.70326,0.35494
2252.77452,0.35507
2250.84577,0.35546
2248.91703,0.35597
2246.98828,0.35657
2245.05954,0.35737
2243.13079,0.35829
2241.20205,0.35913
2239.27330,0.35976
2237.34456,0.36007
2235.41581,0.36017
2233.48707,0.36027
2231.55832,0.36046
2229.62958,0.36079
2227.70083,0.36114
2225.77208,0.36121
2223.84334,0.36109
2221.91459,0.36116
2219.98585,0.36139
2218.05710,0.36157
2216.12836,0.36147
2214.19961,0.36112
2212.27087,0.36075
2210.34212,0.36052
2208.41338,0.36058
2206.48463,0.36104
2204.55589,0.36173
2202.62714,0.36237
2200.69840,0.36285
2198.76965,0.36311
2196.84090,0.36319
2194.91216,0.36308
2192.98341,0.36281
2191.05467,0.36246
2189.12592,0.36212
2187.19718,0.36177
2185.26843,0.36148
2183.33969,0.36146
2181.41094,0.36183
2179.48220,0.36248
2177.55345,0.36324
2175.62471,0.36395
2173.69596,0.36444
2171.76722,0.36474
2169.83847,0.36507
2167.90973,0.36534
2165.98098,0.36549
2164.05223,0.36558
2162.12349,0.36564
2160.19474,0.36567
2158.26600,0.36565
2156.33725,0.36551
2154.40851,0.36538
2152.47976,0.36543
2150.55102,0.36552
2148.62227,0.36551
2146.69353,0.36553
2144.76478,0.36565
2142.83604,0.36586
2140.90729,0.36617
2138.97855,0.36651
2137.04980,0.36680
2135.12106,0.36699
2133.19231,0.36707
2131.26356,0.36716
2129.33482,0.36741
2127.40607,0.36763
2125.47733,0.36765
2123.54858,0.36749
2121.61984,0.36730
2119.69109,0.36734
2117.76235,0.36753
2115.83360,0.36756
2113.90486,0.36741
2111.97611,0.36740
2110.04737,0.36755
2108.11862,0.36770
2106.18988,0.36786
2104.26113,0.36811
2102.33238,0.36835
2100.40364,0.36843
2098.47489,0.36847
2096.54615,0.36875
2094.61740,0.36914
2092.68866,0.36920
2090.75991,0.36907
2088.83117,0.36909
2086.90242,0.36917
2084.97368,0.36916
2083.04493,0.36910
2081.11619,0.36897
2079.18744,0.36874
2077.25870,0.36857
2075.32995,0.36854
2073.40121,0.36844
2071.47246,0.36824
2069.54371,0.36817
2067.61497,0.36827
2065.68622,0.36828
2063.75748,0.36821
2061.82873,0.36821
2059.89999,0.36812
2057.97124,0.36788
2056.04250,0.36773
2054.11375,0.36779
2052.18501,0.36799
2050.25626,0.36813
2048.32752,0.36807
2046.39877,0.36787
2044.47003,0.36764
2042.54128,0.36739
2040.61254,0.36715
2038.68379,0.36687
2036.75504,0.36640
2034.82630,0.36584
2032.89755,0.36550
2030.96881,0.36535
2029.04006,0.36519
2027.11132,0.36510
2025.18257,0.36517
2023.25383,0.36524
2021.32508,0.36515
2019.39634,0.36486
2017.46759,0.36436
2015.53885,0.36378
2013.61010,0.36319
2011.68136,0.36261
2009.75261,0.36210
2007.82386,0.36164
2005.89512,0.36112
2003.96637,0.36063
2002.03763,0.36031
2000.10888,0.35994
1998.18014,0.35907
1996.25139,0.35749
1994.32265,0.35541
1992.39390,0.35297
1990.46516,0.35011
1988.53641,0.34724
1986.60767,0.34512
1984.67892,0.34408
1982.75018,0.34381
1980.82143,0.34375
1978.89269,0.34333
1976.96394,0.34208
1975.03519,0.33966
1973.10645,0.33563
1971.17770,0.32993
1969.24896,0.32297
1967.32021,0.31539
1965.39147,0.30804
1963.46272,0.30163
1961.53398,0.29629
1959.60523,0.29201
1957.67649,0.28871
1955.74774,0.28598
1953.81900,0.28311
1951.89025,0.27957
1949.96151,0.27537
1948.03276,0.27092
1946.10402,0.26700
1944.17527,0.26464
1942.24652,0.26462
1940.31778,0.26723
1938.38903,0.27253
1936.46029,0.28020
1934.53154,0.28938
1932.60280,0.29897
1930.67405,0.30790
1928.74531,0.31548
1926.81656,0.32161
1924.88782,0.32672
1922.95907,0.33127
1921.03033,0.33517
1919.10158,0.33842
1917.17284,0.34117
1915.24409,0.34331
1913.31534,0.34474
1911.38660,0.34538
1909.45785,0.34519
1907.52911,0.34428
1905.60036,0.34268
1903.67162,0.34033
1901.74287,0.33709
1899.81413,0.33288
1897.88538,0.32789
1895.95664,0.32233
1894.02789,0.31648
1892.09915,0.31064
1890.17040,0.30481
1888.24166,0.29927
1886.31291,0.29473
1884.38417,0.29142
1882.45542,0.28909
1880.52667,0.28725
1878.59793,0.28531
1876.66918,0.28322
1874.74044,0.28139
1872.81169,0.28012
1870.88295,0.27967
1868.95420,0.28044
1867.02546,0.28287
1865.09671,0.28717
1863.16797,0.29330
1861.23922,0.30092
1859.31048,0.30923
1857.38173,0.31738
1855.45299,0.32478
1853.52424,0.33114
1851.59549,0.33642
1849.66675,0.34066
1847.73800,0.34388
1845.80926,0.34616
1843.88051,0.34750
1841.95177,0.34793
1840.02302,0.34764
1838.09428,0.34668
1836.16553,0.34510
1834.23679,0.34300
1832.30804,0.34016
1830.37930,0.33621
1828.45055,0.33134
1826.52181,0.32622
1824.59306,0.32096
1822.66432,0.31566
1820.73557,0.31048
1818.80682,0.30546
1816.87808,0.30074
1814.94933,0.29642
1813.02059,0.29232
1811.09184,0.28817
1809.16310,0.28413
1807.23435,0.28060
1805.30561,0.27791
1803.37686,0.27653
1801.44812,0.27699
1799.51937,0.27963
1797.59063,0.28447
1795.66188,0.29126
1793.73314,0.29978
1791.80439,0.30925
1789.87565,0.31772
1787.94690,0.32447
1786.01815,0.32963
1784.08941,0.33283
1782.16066,0.33408
1780.23192,0.33382
1778.30317,0.33260
1776.37443,0.33165
1774.44568,0.33186
1772.51694,0.33300
1770.58819,0.33388
1768.65945,0.33373
1766.73070,0.33244
1764.80196,0.33006
1762.87321,0.32641
1760.94447,0.32142
1759.01572,0.31597
1757.08697,0.31019
1755.15823,0.30417
1753.22948,0.29865
1751.30074,0.29369
1749.37199,0.28940
1747.44325,0.28629
1745.51450,0.28433
1743.58576,0.28342
1741.65701,0.28387
1739.72827,0.28598
1737.79952,0.28933
1735.87078,0.29391
1733.94203,0.30006
1732.01329,0.30594
1730.08454,0.31058
1728.15580,0.31479
1726.22705,0.31850
1724.29830,0.32164
1722.36956,0.32440
1720.44081,0.32710
1718.51207,0.32993
1716.58332,0.33228
1714.65458,0.33363
1712.72583,0.33435
1710.79709,0.33476
1708.86834,0.33491
1706.93960,0.33469
1705.01085,0.33405
1703.08211,0.33355
1701.15336,0.33347
1699.22462,0.33321
1697.29587,0.33255
1695.36713,0.33149
1693.43838,0.32994
1691.50963,0.32795
1689.58089,0.32543
1687.65214,0.32299
1685.72340,0.32093
1683.79465,0.31832
1681.86591,0.31527
1679.93716,0.31273
1678.00842,0.31093
1676.07967,0.30963
1674.15093,0.30823
1672.22218,0.30690
1670.29344,0.30605
1668.36469,0.30549
1666.43595,0.30534
1664.50720,0.30615
1662.57845,0.30801
1660.64971,0.31039
1658.72096,0.31302
1656.79222,0.31605
1654.86347,0.31961
1652.93473,0.32321
1651.00598,0.32523
1649.07724,0.32665
1647.14849,0.32843
1645.21975,0.32979
1643.29100,0.33031
1641.36226,0.33063
1639.43351,0.33101
1637.50477,0.33102
1635.57602,0.32990
1633.64728,0.32763
1631.71853,0.32524
1629.78978,0.32291
1627.86104,0.32019
1625.93229,0.31710
1624.00355,0.31380
1622.07480,0.31024
1620.14606,0.30641
1618.21731,0.30118
1616.28857,0.29279
1614.35982,0.28206
1612.43108,0.26914
1610.50233,0.25150
1608.57359,0.22859
1606.64484,0.20364
1604.71610,0.18205
1602.78735,0.16912
1600.85861,0.16813
1598.92986,0.17859
1597.00111,0.19601
1595.07237,0.21446
1593.14362,0.23018
1591.21488,0.24176
1589.28613,0.24736
1587.35739,0.24447
1585.42864,0.23503
1583.49990,0.22879
1581.57115,0.23533
1579.64241,0.25257
1577.71366,0.27211
1575.78492,0.28870
1573.85617,0.29989
1571.92743,0.30766
1569.99868,0.31436
1568.06993,0.31921
1566.14119,0.32184
1564.21244,0.32331
1562.28370,0.32419
1560.35495,0.32425
1558.42621,0.32205
1556.49746,0.31780
1554.56872,0.31285
1552.63997,0.30738
1550.71123,0.30181
1548.78248,0.29652
1546.85374,0.29210
1544.92499,0.28894
1542.99625,0.28723
1541.06750,0.28707
1539.13876,0.28841
1537.21001,0.29093
1535.28126,0.29467
1533.35252,0.29960
1531.42377,0.30424
1529.49503,0.30772
1527.56628,0.31027
1525.63754,0.31165
1523.70879,0.31195
1521.78005,0.31125
1519.85130,0.30945
1517.92256,0.30679
1515.99381,0.30332
1514.06507,0.29932
1512.13632,0.29497
1510.20758,0.29009
1508.27883,0.28323
1506.35008,0.27095
1504.42134,0.25484
1502.49259,0.23726
1500.56385,0.21441
1498.63510,0.18366
1496.70636,0.14962
1494.77761,0.12720
1492.84887,0.12639
1490.92012,0.14457
1488.99138,0.17207
1487.06263,0.19757
1485.13389,0.21849
1483.20514,0.23632
1481.27640,0.25085
1479.34765,0.26100
1477.41891,0.26699
1475.49016,0.26986
1473.56141,0.27021
1471.63267,0.26828
1469.70392,0.26487
1467.77518,0.26049
1465.84643,0.25391
1463.91769,0.24385
1461.98894,0.23072
1460.06020,0.21344
1458.13145,0.18579
1456.20271,0.14987
1454.27396,0.12761
1452.34522,0.12577
1450.41647,0.13633
1448.48773,0.15055
1446.55898,0.16349
1444.63024,0.17499
1442.70149,0.18637
1440.77274,0.19773
1438.84400,0.20962
1436.91525,0.22432
1434.98651,0.24072
1433.05776,0.25575
1431.12902,0.26960
1429.20027,0.28163
1427.27153,0.29041
1425.34278,0.29655
1423.41404,0.30108
1421.48529,0.30440
1419.55655,0.30680
1417.62780,0.30809
1415.69906,0.30853
1413.77031,0.30887
1411.84156,0.30928
1409.91282,0.30937
1407.98407,0.30886
1406.05533,0.30787
1404.12658,0.30651
1402.19784,0.30473
1400.26909,0.30228
1398.34035,0.29880
1396.41160,0.29412
1394.48286,0.28786
1392.55411,0.28023
1390.62537,0.27206
1388.69662,0.26342
1386.76788,0.25468
1384.83913,0.24734
1382.91039,0.24176
1380.98164,0.23716
1379.05289,0.23303
1377.12415,0.22932
1375.19540,0.22654
1373.26666,0.22531
1371.33791,0.22567
1369.40917,0.22700
1367.48042,0.22862
1365.55168,0.23021
1363.62293,0.23188
1361.69419,0.23386
1359.76544,0.23619
1357.83670,0.23863
1355.90795,0.24067
1353.97921,0.24197
1352.05046,0.24269
1350.12172,0.24333
1348.19297,0.24443
1346.26422,0.24627
1344.33548,0.24887
1342.40673,0.25176
1340.47799,0.25413
1338.54924,0.25502
1336.62050,0.25387
1334.69175,0.25090
1332.76301,0.24698
1330.83426,0.24352
1328.90552,0.24196
1326.97677,0.24269
1325.04803,0.24493
1323.11928,0.24745
1321.19054,0.24933
1319.26179,0.25002
1317.33304,0.24939
1315.40430,0.24793
1313.47555,0.24654
1311.54681,0.24616
1309.61806,0.24732
1307.68932,0.24956
1305.76057,0.25193
1303.83183,0.25412
1301.90308,0.25643
1299.97434,0.25890
1298.04559,0.26083
1296.11685,0.26171
1294.18810,0.26195
1292.25936,0.26233
1290.33061,0.26314
1288.40187,0.26427
1286.47312,0.26556
1284.54437,0.26680
1282.61563,0.26825
1280.68688,0.27055
1278.75814,0.27400
1276.82939,0.27831
1274.90065,0.28293
1272.97190,0.28732
1271.04316,0.29119
1269.11441,0.29442
1267.18567,0.29708
1265.25692,0.29936
1263.32818,0.30129
1261.39943,0.30279
1259.47069,0.30373
1257.54194,0.30386
1255.61320,0.30325
1253.68445,0.30219
1251.75570,0.30080
1249.82696,0.29948
1247.89821,0.29869
1245.96947,0.29849
1244.04072,0.29865
1242.11198,0.29912
1240.18323,0.29989
1238.25449,0.30062
1236.32574,0.30103
1234.39700,0.30098
1232.46825,0.30022
1230.53951,0.29882
1228.61076,0.29729
1226.68202,0.29602
1224.75327,0.29504
1222.82452,0.29436
1220.89578,0.29388
1218.96703,0.29314
1217.03829,0.29187
1215.10954,0.29021
1213.18080,0.28819
1211.25205,0.28573
1209.32331,0.28270
1207.39456,0.27893
1205.46582,0.27448
1203.53707,0.26958
1201.60833,0.26466
1199.67958,0.26041
1197.75084,0.25729
1195.82209,0.25527
1193.89335,0.25404
1191.96460,0.25306
1190.03585,0.25176
1188.10711,0.24945
1186.17836,0.24528
1184.24962,0.23973
1182.32087,0.23569
1180.39213,0.23685
1178.46338,0.24410
1176.53464,0.25428
1174.60589,0.26321
1172.67715,0.26924
1170.74840,0.27318
1168.81966,0.27604
1166.89091,0.27771
1164.96217,0.27756
1163.03342,0.27485
1161.10467,0.26878
1159.17593,0.25933
1157.24718,0.24893
1155.31844,0.24267
1153.38969,0.24518
1151.46095,0.25640
1149.53220,0.27134
1147.60346,0.28469
1145.67471,0.29460
1143.74597,0.30195
1141.81722,0.30787
1139.88848,0.31255
1137.95973,0.31584
1136.03099,0.31796
1134.10224,0.31935
1132.17350,0.32023
1130.24475,0.32066
1128.31600,0.32061
1126.38726,0.31970
1124.45851,0.31768
1122.52977,0.31460
1120.60102,0.31032
1118.67228,0.30490
1116.74353,0.29929
1114.81479,0.29513
1112.88604,0.29335
1110.95730,0.29344
1109.02855,0.29447
1107.09981,0.29555
1105.17106,0.29604
1103.24232,0.29567
1101.31357,0.29421
1099.38483,0.29179
1097.45608,0.28904
1095.52733,0.28643
1093.59859,0.28407
1091.66984,0.28153
1089.74110,0.27819
1087.81235,0.27405
1085.88361,0.26937
1083.95486,0.26412
1082.02612,0.25849
1080.09737,0.25313
1078.16863,0.24810
1076.23988,0.24250
1074.31114,0.23624
1072.38239,0.23075
1070.45365,0.22766
1068.52490,0.22788
1066.59615,0.23142
1064.66741,0.23736
1062.73866,0.24441
1060.80992,0.25163
1058.88117,0.25844
1056.95243,0.26435
1055.02368,0.26922
1053.09494,0.27311
1051.16619,0.27623
1049.23745,0.27898
1047.30870,0.28131
1045.37996,0.28257
1043.45121,0.28217
1041.52247,0.27942
1039.59372,0.27298
1037.66498,0.26121
1035.73623,0.24354
1033.80748,0.22280
1031.87874,0.20517
1029.94999,0.19581
1028.02125,0.19583
1026.09250,0.20358
1024.16376,0.21549
1022.23501,0.22751
1020.30627,0.23773
1018.37752,0.24635
1016.44878,0.25367
1014.52003,0.25962
1012.59129,0.26446
1010.66254,0.26817
1008.73380,0.26957
1006.80505,0.26781
1004.87631,0.26490
1002.94756,0.26532
1001.01881,0.27147
999.09007,0.28047
997.16132,0.28744
995.23258,0.29058
993.30383,0.29107
991.37509,0.29005
989.44634,0.28767
987.51760,0.28405
985.58885,0.27962
983.66011,0.27518
981.73136,0.27210
979.80262,0.27145
977.87387,0.27306
975.94513,0.27566
974.01638,0.27745
972.08763,0.27702
970.15889,0.27392
968.23014,0.26906
966.30140,0.26479
964.37265,0.26376
962.44391,0.26690
960.51516,0.27315
958.58642,0.28045
956.65767,0.28670
954.72893,0.29048
952.80018,0.29177
950.87144,0.29122
948.94269,0.28928
947.01395,0.28655
945.08520,0.28410
943.15646,0.28314
941.22771,0.28455
939.29896,0.28830
937.37022,0.29349
935.44147,0.29910
933.51273,0.30428
931.58398,0.30822
929.65524,0.31030
927.72649,0.31012
925.79775,0.30793
923.86900,0.30446
921.94026,0.29987
920.01151,0.29373
918.08277,0.28564
916.15402,0.27509
914.22528,0.26208
912.29653,0.24823
910.36779,0.23634
908.43904,0.22903
906.51029,0.22786
904.58155,0.23317
902.65280,0.24418
900.72406,0.25895
898.79531,0.27469
896.86657,0.28861
894.93782,0.29915
893.00908,0.30649
891.08033,0.31181
889.15159,0.31606
887.22284,0.31964
885.29410,0.32287
883.36535,0.32583
881.43661,0.32823
879.50786,0.32996
877.57911,0.33118
875.65037,0.33207
873.72162,0.33293
871.79288,0.33390
869.86413,0.33462
867.93539,0.33500
866.00664,0.33499
864.07790,0.33443
862.14915,0.33354
860.22041,0.33255
858.29166,0.33109
856.36292,0.32868
854.43417,0.32479
852.50543,0.31871
850.57668,0.31011
848.64794,0.29974
846.71919,0.28915
844.79044,0.28038
842.86170,0.27564
840.93295,0.27616
839.00421,0.28143
837.07546,0.29023
835.14672,0.30115
833.21797,0.31205
831.28923,0.32057
829.36048,0.32578
827.43174,0.32848
825.50299,0.32985
823.57425,0.33060
821.64550,0.33070
819.71676,0.32996
817.78801,0.32863
815.85926,0.32700
813.93052,0.32496
812.00177,0.32244
810.07303,0.31997
808.14428,0.31780
806.21554,0.31540
804.28679,0.31237
802.35805,0.30867
800.42930,0.30410
798.50056,0.29816
796.57181,0.29091
794.64307,0.28301
792.71432,0.27442
790.78558,0.26463
788.85683,0.25395
786.92809,0.24332
784.99934,0.23317
783.07059,0.22299
781.14185,0.21198
779.21310,0.19985
777.28436,0.18695
775.35561,0.17401
773.42687,0.16222
771.49812,0.15239
769.56938,0.14427
767.64063,0.13774
765.71189,0.13306
763.78314,0.13023
761.85440,0.12943
759.92565,0.13080
757.99691,0.13367
756.06816,0.13722
754.13942,0.14153
752.21067,0.14657
750.28192,0.15190
748.35318,0.15808
746.42443,0.16627
744.49569,0.17707
742.56694,0.18972
740.63820,0.20265
738.70945,0.21506
736.78071,0.22741
734.85196,0.24042
732.92322,0.25351
730.99447,0.26446
729.06573,0.27158
727.13698,0.27469
725.20824,0.27400
723.27949,0.27001
721.35074,0.26338
719.42200,0.25361
717.49325,0.23927
715.56451,0.21941
713.63576,0.19333
711.70702,0.16112
709.77827,0.12634
707.84953,0.09624
705.92078,0.07834
703.99204,0.07708
702.06329,0.09261
700.13455,0.12134
698.20580,0.15698
696.27706,0.19279
694.34831,0.22469
692.41957,0.25172
690.49082,0.27336
688.56207,0.28892
686.63333,0.29927
684.70458,0.30631
682.77584,0.31113
680.84709,0.31438
678.91835,0.31649
676.98960,0.31764
675.06086,0.31819
673.13211,0.31885
671.20337,0.32001
669.27462,0.32148
667.34588,0.32320
665.41713,0.32580
663.48839,0.32993
661.55964,0.33537
659.63090,0.34102
657.70215,0.34609
655.77340,0.35049
653.84466,0.35411
651.91591,0.35684
649.98717,0.35847
648.05842,0.35884
646.12968,0.35852
644.20093,0.35809
642.27219,0.35688
640.34344,0.35393
638.41470,0.34909
636.48595,0.34300
634.55721,0.33647
632.62846,0.33033
630.69972,0.32520
628.77097,0.32138
626.84222,0.31847
624.91348,0.31532
622.98473,0.31169
621.05599,0.30959
619.12724,0.31074
617.19850,0.31402
615.26975,0.31724
613.34101,0.31946
611.41226,0.32072
609.48352,0.32165
607.55477,0.32216
605.62603,0.32123
603.69728,0.31920
601.76854,0.31687
599.83979,0.31406
