7497.03301,0.38991
7495.10426,0.38543
7493.17552,0.37954
7491.24677,0.38001
7489.31803,0.38895
7487.38928,0.39538
7485.46054,0.39113
7483.53179,0.38521
7481.60305,0.38834
7479.67430,0.39463
7477.74556,0.39361
7475.81681,0.38782
7473.88807,0.38740
7471.95932,0.39487
7470.03057,0.40150
7468.10183,0.40108
7466.17308,0.39639
7464.24434,0.39077
7462.31559,0.38681
7460.38685,0.38646
7458.45810,0.38871
7456.52936,0.39191
7454.60061,0.39418
7452.67187,0.39364
7450.74312,0.39111
7448.81438,0.39013
7446.88563,0.39193
7444.95689,0.39421
7443.02814,0.39505
7441.09940,0.39437
7439.17065,0.39250
7437.24190,0.38860
7435.31316,0.38420
7433.38441,0.38378
7431.45567,0.38871
7429.52692,0.39538
7427.59818,0.39953
7425.66943,0.39990
7423.74069,0.39580
7421.81194,0.39116
7419.88320,0.39227
7417.95445,0.39565
7416.02571,0.39706
7414.09696,0.39797
7412.16822,0.39850
7410.23947,0.39763
7408.31073,0.39495
7406.38198,0.39429
7404.45323,0.39721
7402.52449,0.39512
7400.59574,0.38588
7398.66700,0.38005
7396.73825,0.38322
7394.80951,0.39171
7392.88076,0.39873
7390.95202,0.39984
7389.02327,0.39795
7387.09453,0.39647
7385.16578,0.39453
7383.23704,0.39300
7381.30829,0.39344
7379.37955,0.39403
7377.45080,0.39163
7375.52205,0.38712
7373.59331,0.38461
7371.66456,0.38570
7369.73582,0.38870
7367.80707,0.39048
7365.87833,0.38914
7363.94958,0.38630
7362.02084,0.38521
7360.09209,0.38646
7358.16335,0.38686
7356.23460,0.38648
7354.30586,0.39024
7352.37711,0.39778
7350.44837,0.40211
7348.51962,0.40100
7346.59088,0.39829
7344.66213,0.39627
7342.73338,0.39466
7340.80464,0.39175
7338.87589,0.38763
7336.94715,0.38764
7335.01840,0.39187
7333.08966,0.39339
7331.16091,0.39361
7329.23217,0.39868
7327.30342,0.40403
7325.37468,0.40357
7323.44593,0.40089
7321.51719,0.39911
7319.58844,0.39721
7317.65970,0.39485
7315.73095,0.39162
7313.80221,0.38832
7311.87346,0.38679
7309.94471,0.38478
7308.01597,0.38123
7306.08722,0.38045
7304.15848,0.38380
7302.22973,0.38818
7300.30099,0.38924
7298.37224,0.38588
7296.44350,0.38538
7294.51475,0.39104
7292.58601,0.39494
7290.65726,0.39226
7288.72852,0.38671
7286.79977,0.38370
7284.87103,0.38514
7282.94228,0.38948
7281.01353,0.39504
7279.08479,0.39872
7277.15604,0.39808
7275.22730,0.39393
7273.29855,0.38772
7271.36981,0.38156
7269.44106,0.37863
7267.51232,0.37996
7265.58357,0.38301
7263.65483,0.38622
7261.72608,0.38947
7259.79734,0.39058
7257.86859,0.39050
7255.93985,0.39184
7254.01110,0.39294
7252.08236,0.39372
7250.15361,0.39612
7248.22486,0.39814
7246.29612,0.39727
7244.36737,0.39510
7242.43863,0.39412
7240.50988,0.39416
7238.58114,0.39292
7236.65239,0.38977
7234.72365,0.38788
7232.79490,0.38844
7230.86616,0.38891
7228.93741,0.38899
7227.00867,0.38894
7225.07992,0.38815
7223.15118,0.38802
7221.22243,0.39044
7219.29369,0.39486
7217.36494,0.39993
7215.43619,0.40435
7213.50745,0.40429
7211.57870,0.39919
7209.64996,0.39411
7207.72121,0.39275
7205.79247,0.39429
7203.86372,0.39431
7201.93498,0.39395
7200.00623,0.39648
7198.07749,0.39651
7196.14874,0.39368
7194.22000,0.39448
7192.29125,0.39680
7190.36251,0.39601
7188.43376,0.39408
7186.50501,0.39410
7184.57627,0.39505
7182.64752,0.39436
7180.71878,0.39287
7178.79003,0.39324
7176.86129,0.39557
7174.93254,0.39762
7173.00380,0.39653
7171.07505,0.39332
7169.14631,0.39264
7167.21756,0.39441
7165.28882,0.39435
7163.36007,0.39256
7161.43133,0.39236
7159.50258,0.39308
7157.57384,0.39145
7155.64509,0.38842
7153.71634,0.38572
7151.78760,0.38340
7149.85885,0.38397
7147.93011,0.38650
7146.00136,0.38696
7144.07262,0.38691
7142.14387,0.38834
7140.21513,0.39052
7138.28638,0.39251
7136.35764,0.39168
7134.42889,0.38811
7132.50015,0.38581
7130.57140,0.38736
7128.64266,0.39141
7126.71391,0.39278
7124.78516,0.38936
7122.85642,0.38670
7120.92767,0.38879
7118.99893,0.39272
7117.07018,0.39513
7115.14144,0.39521
7113.21269,0.39403
7111.28395,0.39370
7109.35520,0.39319
7107.42646,0.39133
7105.49771,0.39119
7103.56897,0.39257
7101.64022,0.39192
7099.71148,0.39020
7097.78273,0.38926
7095.85399,0.38857
7093.92524,0.38855
7091.99649,0.38960
7090.06775,0.39159
7088.13900,0.39306
7086.21026,0.39123
7084.28151,0.38744
7082.35277,0.38612
7080.42402,0.38807
7078.49528,0.38997
7076.56653,0.38970
7074.63779,0.38880
7072.70904,0.38916
7070.78030,0.39197
7068.85155,0.39585
7066.92281,0.39663
7064.99406,0.39349
7063.06532,0.38936
7061.13657,0.38742
7059.20782,0.38849
7057.27908,0.38975
7055.35033,0.38953
7053.42159,0.38860
7051.49284,0.38878
7049.56410,0.39156
7047.63535,0.39350
7045.70661,0.39153
7043.77786,0.38995
7041.84912,0.39174
7039.92037,0.39370
7037.99163,0.39364
7036.06288,0.39255
7034.13414,0.39102
7032.20539,0.38983
7030.27664,0.39132
7028.34790,0.39342
7026.41915,0.39118
7024.49041,0.38825
7022.56166,0.38981
7020.63292,0.39202
7018.70417,0.39333
7016.77543,0.39637
7014.84668,0.39831
7012.91794,0.39766
7010.98919,0.39721
7009.06045,0.39702
7007.13170,0.39628
7005.20296,0.39516
7003.27421,0.39426
7001.34547,0.39452
6999.41672,0.39473
6997.48797,0.39397
6995.55923,0.39281
6993.63048,0.39028
6991.70174,0.38718
6989.77299,0.38814
6987.84425,0.39341
6985.91550,0.39750
6983.98676,0.39816
6982.05801,0.39738
6980.12927,0.39727
6978.20052,0.39816
6976.27178,0.39809
6974.34303,0.39611
6972.41429,0.39419
6970.48554,0.39430
6968.55680,0.39479
6966.62805,0.39321
6964.69930,0.39162
6962.77056,0.39161
6960.84181,0.39067
6958.91307,0.38893
6956.98432,0.38800
6955.05558,0.38805
6953.12683,0.39048
6951.19809,0.39337
6949.26934,0.39287
6947.34060,0.39084
6945.41185,0.38976
6943.48311,0.38910
6941.55436,0.38733
6939.62562,0.38453
6937.69687,0.38408
6935.76812,0.38588
6933.83938,0.38667
6931.91063,0.38717
6929.98189,0.38914
6928.05314,0.39187
6926.12440,0.39342
6924.19565,0.39246
6922.26691,0.39036
6920.33816,0.38915
6918.40942,0.38849
6916.48067,0.38691
6914.55193,0.38492
6912.62318,0.38495
6910.69444,0.38629
6908.76569,0.38621
6906.83695,0.38534
6904.90820,0.38429
6902.97945,0.38221
6901.05071,0.38101
6899.12196,0.38325
6897.19322,0.38776
6895.26447,0.39142
6893.33573,0.39210
6891.40698,0.38979
6889.47824,0.38767
6887.54949,0.38833
6885.62075,0.39027
6883.69200,0.39044
6881.76326,0.38840
6879.83451,0.38836
6877.90577,0.39191
6875.97702,0.39337
6874.04828,0.38971
6872.11953,0.38473
6870.19078,0.38287
6868.26204,0.38607
6866.33329,0.39114
6864.40455,0.39237
6862.47580,0.39141
6860.54706,0.39282
6858.61831,0.39435
6856.68957,0.39297
6854.76082,0.38943
6852.83208,0.38637
6850.90333,0.38558
6848.97459,0.38523
6847.04584,0.38493
6845.11710,0.38777
6843.18835,0.39276
6841.25960,0.39457
6839.33086,0.39256
6837.40211,0.39099
6835.47337,0.39081
6833.54462,0.39051
6831.61588,0.39059
6829.68713,0.39104
6827.75839,0.39104
6825.82964,0.39090
6823.90090,0.39099
6821.97215,0.39064
6820.04341,0.38914
6818.11466,0.38768
6816.18592,0.38796
6814.25717,0.38972
6812.32843,0.39238
6810.39968,0.39514
6808.47093,0.39591
6806.54219,0.39398
6804.61344,0.39090
6802.68470,0.38869
6800.75595,0.38939
6798.82721,0.39274
6796.89846,0.39519
6794.96972,0.39459
6793.04097,0.39256
6791.11223,0.39143
6789.18348,0.39217
6787.25474,0.39365
6785.32599,0.39423
6783.39725,0.39393
6781.46850,0.39319
6779.53975,0.39138
6777.61101,0.38924
6775.68226,0.39006
6773.75352,0.39360
6771.82477,0.39387
6769.89603,0.39040
6767.96728,0.38993
6766.03854,0.39264
6764.10979,0.39311
6762.18105,0.39161
6760.25230,0.39088
6758.32356,0.39117
6756.39481,0.39209
6754.46607,0.39335
6752.53732,0.39390
6750.60858,0.39186
6748.67983,0.38900
6746.75108,0.38958
6744.82234,0.39298
6742.89359,0.39592
6740.96485,0.39671
6739.03610,0.39494
6737.10736,0.39283
6735.17861,0.39325
6733.24987,0.39497
6731.32112,0.39492
6729.39238,0.39334
6727.46363,0.39284
6725.53489,0.39386
6723.60614,0.39334
6721.67740,0.39058
6719.74865,0.38944
6717.81991,0.39109
6715.89116,0.39308
6713.96241,0.39452
6712.03367,0.39543
6710.10492,0.39526
6708.17618,0.39420
6706.24743,0.39212
6704.31869,0.38858
6702.38994,0.38519
6700.46120,0.38340
6698.53245,0.38324
6696.60371,0.38504
6694.67496,0.38809
6692.74622,0.38995
6690.81747,0.38927
6688.88873,0.38789
6686.95998,0.38866
6685.03123,0.39087
6683.10249,0.39174
6681.17374,0.39107
6679.24500,0.39034
6677.31625,0.39027
6675.38751,0.39005
6673.45876,0.38933
6671.53002,0.39018
6669.60127,0.39229
6667.67253,0.39251
6665.74378,0.39028
6663.81504,0.38776
6661.88629,0.38785
6659.95755,0.39010
6658.02880,0.39133
6656.10006,0.39188
6654.17131,0.39271
6652.24256,0.39301
6650.31382,0.39246
6648.38507,0.38954
6646.45633,0.38567
6644.52758,0.38555
6642.59884,0.38923
6640.67009,0.39258
6638.74135,0.39264
6636.81260,0.38992
6634.88386,0.38712
6632.95511,0.38627
6631.02637,0.38760
6629.09762,0.38858
6627.16888,0.38767
6625.24013,0.38730
6623.31139,0.38868
6621.38264,0.39043
6619.45389,0.39114
6617.52515,0.39041
6615.59640,0.39072
6613.66766,0.39248
6611.73891,0.39182
6609.81017,0.38958
6607.88142,0.38867
6605.95268,0.38783
6604.02393,0.38802
6602.09519,0.39103
6600.16644,0.39336
6598.23770,0.39246
6596.30895,0.39177
6594.38021,0.39299
6592.45146,0.39215
6590.52271,0.38866
6588.59397,0.38727
6586.66522,0.38955
6584.73648,0.39231
6582.80773,0.39281
6580.87899,0.39153
6578.95024,0.38932
6577.02150,0.38629
6575.09275,0.38442
6573.16401,0.38547
6571.23526,0.38802
6569.30652,0.38931
6567.37777,0.38847
6565.44903,0.38845
6563.52028,0.39144
6561.59154,0.39527
6559.66279,0.39699
6557.73404,0.39587
6555.80530,0.39415
6553.87655,0.39357
6551.94781,0.39275
6550.01906,0.39125
6548.09032,0.38989
6546.16157,0.38858
6544.23283,0.38793
6542.30408,0.38873
6540.37534,0.39049
6538.44659,0.39193
6536.51785,0.39220
6534.58910,0.39126
6532.66036,0.39025
6530.73161,0.39020
6528.80287,0.39005
6526.87412,0.38960
6524.94537,0.39003
6523.01663,0.38942
6521.08788,0.38677
6519.15914,0.38648
6517.23039,0.38979
6515.30165,0.39169
6513.37290,0.39012
6511.44416,0.38820
6509.51541,0.38814
6507.58667,0.38931
6505.65792,0.39055
6503.72918,0.39156
6501.80043,0.39330
6499.87169,0.39599
6497.94294,0.39675
6496.01419,0.39421
6494.08545,0.39128
6492.15670,0.39042
6490.22796,0.39076
6488.29921,0.39026
6486.37047,0.38927
6484.44172,0.38875
6482.51298,0.38787
6480.58423,0.38695
6478.65549,0.38720
6476.72674,0.38891
6474.79800,0.39151
6472.86925,0.39334
6470.94051,0.39337
6469.01176,0.39341
6467.08302,0.39416
6465.15427,0.39324
6463.22552,0.39068
6461.29678,0.38938
6459.36803,0.39065
6457.43929,0.39273
6455.51054,0.39337
6453.58180,0.39201
6451.65305,0.38907
6449.72431,0.38723
6447.79556,0.38784
6445.86682,0.38857
6443.93807,0.38945
6442.00933,0.39054
6440.08058,0.39017
6438.15184,0.38931
6436.22309,0.38856
6434.29434,0.38733
6432.36560,0.38685
6430.43685,0.38738
6428.50811,0.38656
6426.57936,0.38488
6424.65062,0.38588
6422.72187,0.38921
6420.79313,0.39203
6418.86438,0.39397
6416.93564,0.39484
6415.00689,0.39418
6413.07815,0.39343
6411.14940,0.39266
6409.22066,0.39082
6407.29191,0.38985
6405.36317,0.39119
6403.43442,0.39285
6401.50567,0.39270
6399.57693,0.39134
6397.64818,0.39109
6395.71944,0.39207
6393.79069,0.39248
6391.86195,0.39216
6389.93320,0.39199
6388.00446,0.39152
6386.07571,0.39050
6384.14697,0.38931
6382.21822,0.38769
6380.28948,0.38719
6378.36073,0.38979
6376.43199,0.39295
6374.50324,0.39354
6372.57450,0.39272
6370.64575,0.39229
6368.71700,0.39169
6366.78826,0.38993
6364.85951,0.38842
6362.93077,0.38842
6361.00202,0.38855
6359.07328,0.38860
6357.14453,0.38927
6355.21579,0.38968
6353.28704,0.38944
6351.35830,0.38956
6349.42955,0.39050
6347.50081,0.39016
6345.57206,0.38776
6343.64332,0.38675
6341.71457,0.38795
6339.78582,0.38868
6337.85708,0.38816
6335.92833,0.38707
6333.99959,0.38676
6332.07084,0.38836
6330.14210,0.39040
6328.21335,0.39106
6326.28461,0.39066
6324.35586,0.39004
6322.42712,0.38952
6320.49837,0.38916
6318.56963,0.38910
6316.64088,0.38971
6314.71214,0.39029
6312.78339,0.38972
6310.85465,0.38830
6308.92590,0.38729
6306.99715,0.38711
6305.06841,0.38704
6303.13966,0.38721
6301.21092,0.38816
6299.28217,0.38921
6297.35343,0.38946
6295.42468,0.38894
6293.49594,0.38857
6291.56719,0.38902
6289.63845,0.39061
6287.70970,0.39266
6285.78096,0.39281
6283.85221,0.39096
6281.92347,0.38941
6279.99472,0.38875
6278.06598,0.38859
6276.13723,0.38848
6274.20848,0.38757
6272.27974,0.38698
6270.35099,0.38937
6268.42225,0.39268
6266.49350,0.39246
6264.56476,0.39066
6262.63601,0.39043
6260.70727,0.38987
6258.77852,0.38886
6256.84978,0.38934
6254.92103,0.39043
6252.99229,0.39060
6251.06354,0.39025
6249.13480,0.39042
6247.20605,0.39089
6245.27730,0.39082
6243.34856,0.39040
6241.41981,0.39064
6239.49107,0.39149
6237.56232,0.39132
6235.63358,0.38936
6233.70483,0.38751
6231.77609,0.38821
6229.84734,0.39087
6227.91860,0.39255
6225.98985,0.39133
6224.06111,0.38819
6222.13236,0.38667
6220.20362,0.38801
6218.27487,0.38962
6216.34613,0.39084
6214.41738,0.39233
6212.48863,0.39230
6210.55989,0.38994
6208.63114,0.38816
6206.70240,0.38874
6204.77365,0.38939
6202.84491,0.38815
6200.91616,0.38681
6198.98742,0.38743
6197.05867,0.38935
6195.12993,0.39128
6193.20118,0.39212
6191.27244,0.39143
6189.34369,0.39093
6187.41495,0.39094
6185.48620,0.38984
6183.55746,0.38790
6181.62871,0.38672
6179.69996,0.38686
6177.77122,0.38689
6175.84247,0.38570
6173.91373,0.38454
6171.98498,0.38457
6170.05624,0.38521
6168.12749,0.38537
6166.19875,0.38533
6164.27000,0.38576
6162.34126,0.38608
6160.41251,0.38614
6158.48377,0.38651
6156.55502,0.38701
6154.62628,0.38654
6152.69753,0.38519
6150.76878,0.38489
6148.84004,0.38602
6146.91129,0.38709
6144.98255,0.38707
6143.05380,0.38585
6141.12506,0.38437
6139.19631,0.38368
6137.26757,0.38353
6135.33882,0.38275
6133.41008,0.38189
6131.48133,0.38234
6129.55259,0.38329
6127.62384,0.38362
6125.69510,0.38358
6123.76635,0.38321
6121.83761,0.38281
6119.90886,0.38281
6117.98011,0.38216
6116.05137,0.38007
6114.12262,0.37773
6112.19388,0.37699
6110.26513,0.37905
6108.33639,0.38242
6106.40764,0.38372
6104.47890,0.38279
6102.55015,0.38207
6100.62141,0.38229
6098.69266,0.38304
6096.76392,0.38370
6094.83517,0.38325
6092.90643,0.38227
6090.97768,0.38207
6089.04893,0.38203
6087.12019,0.38202
6085.19144,0.38295
6083.26270,0.38346
6081.33395,0.38268
6079.40521,0.38150
6077.47646,0.38059
6075.54772,0.38089
6073.61897,0.38136
6071.69023,0.38054
6069.76148,0.38018
6067.83274,0.38168
6065.90399,0.38429
6063.97525,0.38592
6062.04650,0.38491
6060.11776,0.38327
6058.18901,0.38309
6056.26026,0.38282
6054.33152,0.38157
6052.40277,0.38132
6050.47403,0.38269
6048.54528,0.38403
6046.61654,0.38456
6044.68779,0.38506
6042.75905,0.38581
6040.83030,0.38592
6038.90156,0.38465
6036.97281,0.38283
6035.04407,0.38249
6033.11532,0.38391
6031.18658,0.38490
6029.25783,0.38378
6027.32909,0.38094
6025.40034,0.37886
6023.47159,0.37922
6021.54285,0.38040
6019.61410,0.38015
6017.68536,0.37820
6015.75661,0.37598
6013.82787,0.37478
6011.89912,0.37408
6009.97038,0.37318
6008.04163,0.37231
6006.11289,0.37184
6004.18414,0.37215
6002.25540,0.37267
6000.32665,0.37215
5998.39791,0.37084
5996.46916,0.37001
5994.54041,0.36947
5992.61167,0.36814
5990.68292,0.36578
5988.75418,0.36311
5986.82543,0.36151
5984.89669,0.36161
5982.96794,0.36222
5981.03920,0.36247
5979.11045,0.36254
5977.18171,0.36218
5975.25296,0.36122
5973.32422,0.36025
5971.39547,0.35946
5969.46673,0.35875
5967.53798,0.35878
5965.60924,0.35898
5963.68049,0.35815
5961.75174,0.35734
5959.82300,0.35767
5957.89425,0.35816
5955.96551,0.35757
5954.03676,0.35599
5952.10802,0.35457
5950.17927,0.35462
5948.25053,0.35618
5946.32178,0.35726
5944.39304,0.35705
5942.46429,0.35714
5940.53555,0.35722
5938.60680,0.35619
5936.67806,0.35570
5934.74931,0.35684
5932.82057,0.35855
5930.89182,0.35980
5928.96307,0.35964
5927.03433,0.35832
5925.10558,0.35794
5923.17684,0.35943
5921.24809,0.36136
5919.31935,0.36231
5917.39060,0.36240
5915.46186,0.36217
5913.53311,0.36192
5911.60437,0.36195
5909.67562,0.36224
5907.74688,0.36253
5905.81813,0.36301
5903.88939,0.36368
5901.96064,0.36392
5900.03189,0.36350
5898.10315,0.36275
5896.17440,0.36260
5894.24566,0.36357
5892.31691,0.36540
5890.38817,0.36796
5888.45942,0.36997
5886.53068,0.37076
5884.60193,0.37185
5882.67319,0.37287
5880.74444,0.37265
5878.81570,0.37243
5876.88695,0.37313
5874.95821,0.37420
5873.02946,0.37507
5871.10072,0.37568
5869.17197,0.37635
5867.24322,0.37737
5865.31448,0.37839
5863.38573,0.37846
5861.45699,0.37765
5859.52824,0.37697
5857.59950,0.37656
5855.67075,0.37605
5853.74201,0.37600
5851.81326,0.37696
5849.88452,0.37836
5847.95577,0.37905
5846.02703,0.37873
5844.09828,0.37837
5842.16954,0.37862
5840.24079,0.37891
5838.31205,0.37855
5836.38330,0.37736
5834.45455,0.37610
5832.52581,0.37570
5830.59706,0.37598
5828.66832,0.37661
5826.73957,0.37742
5824.81083,0.37817
5822.88208,0.37867
5820.95334,0.37859
5819.02459,0.37830
5817.09585,0.37866
5815.16710,0.37929
5813.23836,0.37918
5811.30961,0.37902
5809.38087,0.37938
5807.45212,0.37905
5805.52337,0.37798
5803.59463,0.37743
5801.66588,0.37746
5799.73714,0.37730
5797.80839,0.37706
5795.87965,0.37728
5793.95090,0.37778
5792.02216,0.37889
5790.09341,0.38047
5788.16467,0.38097
5786.23592,0.37995
5784.30718,0.37859
5782.37843,0.37841
5780.44969,0.37991
5778.52094,0.38157
5776.59220,0.38168
5774.66345,0.38051
5772.73470,0.37975
5770.80596,0.38053
5768.87721,0.38187
5766.94847,0.38248
5765.01972,0.38287
5763.09098,0.38348
5761.16223,0.38356
5759.23349,0.38320
5757.30474,0.38311
5755.37600,0.38303
5753.44725,0.38276
5751.51851,0.38320
5749.58976,0.38421
5747.66102,0.38428
5745.73227,0.38354
5743.80352,0.38291
5741.87478,0.38270
5739.94603,0.38343
5738.01729,0.38465
5736.08854,0.38478
5734.15980,0.38395
5732.23105,0.38375
5730.30231,0.38435
5728.37356,0.38442
5726.44482,0.38370
5724.51607,0.38347
5722.58733,0.38412
5720.65858,0.38463
5718.72984,0.38420
5716.80109,0.38295
5714.87235,0.38167
5712.94360,0.38106
5711.01485,0.38054
5709.08611,0.37993
5707.15736,0.38032
5705.22862,0.38132
5703.29987,0.38171
5701.37113,0.38161
5699.44238,0.38109
5697.51364,0.37993
5695.58489,0.37889
5693.65615,0.37862
5691.72740,0.37892
5689.79866,0.37965
5687.86991,0.38031
5685.94117,0.38059
5684.01242,0.38106
5682.08368,0.38165
5680.15493,0.38156
5678.22618,0.38075
5676.29744,0.37981
5674.36869,0.37902
5672.43995,0.37892
5670.51120,0.37982
5668.58246,0.38039
5666.65371,0.38003
5664.72497,0.38017
5662.79622,0.38100
5660.86748,0.38127
5658.93873,0.38087
5657.00999,0.38061
5655.08124,0.38091
5653.15250,0.38178
5651.22375,0.38269
5649.29500,0.38264
5647.36626,0.38225
5645.43751,0.38250
5643.50877,0.38248
5641.58002,0.38176
5639.65128,0.38147
5637.72253,0.38275
5635.79379,0.38482
5633.86504,0.38512
5631.93630,0.38357
5630.00755,0.38204
5628.07881,0.38099
5626.15006,0.38064
5624.22132,0.38146
5622.29257,0.38301
5620.36383,0.38447
5618.43508,0.38526
5616.50633,0.38532
5614.57759,0.38500
5612.64884,0.38461
5610.72010,0.38435
5608.79135,0.38449
5606.86261,0.38518
5604.93386,0.38597
5603.00512,0.38604
5601.07637,0.38524
5599.14763,0.38397
5597.21888,0.38287
5595.29014,0.38264
5593.36139,0.38300
5591.43265,0.38316
5589.50390,0.38335
5587.57516,0.38384
5585.64641,0.38402
5583.71766,0.38368
5581.78892,0.38325
5579.86017,0.38252
5577.93143,0.38188
5576.00268,0.38286
5574.07394,0.38521
5572.14519,0.38674
5570.21645,0.38671
5568.28770,0.38623
5566.35896,0.38568
5564.43021,0.38445
5562.50147,0.38333
5560.57272,0.38322
5558.64398,0.38339
5556.71523,0.38331
5554.78648,0.38356
5552.85774,0.38437
5550.92899,0.38470
5549.00025,0.38409
5547.07150,0.38355
5545.14276,0.38343
5543.21401,0.38336
5541.28527,0.38347
5539.35652,0.38368
5537.42778,0.38345
5535.49903,0.38299
5533.57029,0.38285
5531.64154,0.38279
5529.71280,0.38289
5527.78405,0.38335
5525.85531,0.38342
5523.92656,0.38301
5521.99781,0.38284
5520.06907,0.38279
5518.14032,0.38277
5516.21158,0.38320
5514.28283,0.38378
5512.35409,0.38403
5510.42534,0.38388
5508.49660,0.38324
5506.56785,0.38260
5504.63911,0.38241
5502.71036,0.38265
5500.78162,0.38334
5498.85287,0.38404
5496.92413,0.38407
5494.99538,0.38373
5493.06664,0.38430
5491.13789,0.38538
5489.20914,0.38515
5487.28040,0.38417
5485.35165,0.38389
5483.42291,0.38370
5481.49416,0.38281
5479.56542,0.38213
5477.63667,0.38297
5475.70793,0.38433
5473.77918,0.38420
5471.85044,0.38328
5469.92169,0.38332
5467.99295,0.38393
5466.06420,0.38439
5464.13546,0.38510
5462.20671,0.38583
5460.27796,0.38599
5458.34922,0.38559
5456.42047,0.38527
5454.49173,0.38531
5452.56298,0.38522
5450.63424,0.38499
5448.70549,0.38467
5446.77675,0.38413
5444.84800,0.38414
5442.91926,0.38449
5440.99051,0.38390
5439.06177,0.38311
5437.13302,0.38360
5435.20428,0.38461
5433.27553,0.38478
5431.34679,0.38442
5429.41804,0.38424
5427.48929,0.38461
5425.56055,0.38551
5423.63180,0.38601
5421.70306,0.38535
5419.77431,0.38426
5417.84557,0.38420
5415.91682,0.38521
5413.98808,0.38605
5412.05933,0.38602
5410.13059,0.38504
5408.20184,0.38382
5406.27310,0.38340
5404.34435,0.38379
5402.41561,0.38448
5400.48686,0.38495
5398.55811,0.38516
5396.62937,0.38581
5394.70062,0.38626
5392.77188,0.38557
5390.84313,0.38489
5388.91439,0.38512
5386.98564,0.38496
5385.05690,0.38411
5383.12815,0.38432
5381.19941,0.38545
5379.27066,0.38596
5377.34192,0.38595
5375.41317,0.38572
5373.48443,0.38511
5371.55568,0.38476
5369.62694,0.38494
5367.69819,0.38491
5365.76944,0.38430
5363.84070,0.38339
5361.91195,0.38277
5359.98321,0.38286
5358.05446,0.38347
5356.12572,0.38417
5354.19697,0.38464
5352.26823,0.38478
5350.33948,0.38513
5348.41074,0.38612
5346.48199,0.38709
5344.55325,0.38711
5342.62450,0.38635
5340.69576,0.38538
5338.76701,0.38468
5336.83827,0.38435
5334.90952,0.38392
5332.98077,0.38376
5331.05203,0.38428
5329.12328,0.38472
5327.19454,0.38504
5325.26579,0.38560
5323.33705,0.38572
5321.40830,0.38551
5319.47956,0.38578
5317.55081,0.38583
5315.62207,0.38530
5313.69332,0.38519
5311.76458,0.38572
5309.83583,0.38636
5307.90709,0.38646
5305.97834,0.38567
5304.04959,0.38495
5302.12085,0.38494
5300.19210,0.38483
5298.26336,0.38443
5296.33461,0.38419
5294.40587,0.38415
5292.47712,0.38463
5290.54838,0.38603
5288.61963,0.38737
5286.69089,0.38723
5284.76214,0.38623
5282.83340,0.38619
5280.90465,0.38697
5278.97591,0.38719
5277.04716,0.38700
5275.11842,0.38710
5273.18967,0.38728
5271.26092,0.38710
5269.33218,0.38677
5267.40343,0.38700
5265.47469,0.38711
5263.54594,0.38610
5261.61720,0.38502
5259.68845,0.38483
5257.75971,0.38498
5255.83096,0.38535
5253.90222,0.38574
5251.97347,0.38543
5250.04473,0.38508
5248.11598,0.38565
5246.18724,0.38680
5244.25849,0.38762
5242.32975,0.38753
5240.40100,0.38695
5238.47225,0.38674
5236.54351,0.38652
5234.61476,0.38576
5232.68602,0.38540
5230.75727,0.38621
5228.82853,0.38709
5226.89978,0.38704
5224.97104,0.38637
5223.04229,0.38563
5221.11355,0.38536
5219.18480,0.38559
5217.25606,0.38551
5215.32731,0.38501
5213.39857,0.38508
5211.46982,0.38549
5209.54107,0.38527
5207.61233,0.38448
5205.68358,0.38377
5203.75484,0.38399
5201.82609,0.38500
5199.89735,0.38541
5197.96860,0.38494
5196.03986,0.38487
5194.11111,0.38558
5192.18237,0.38638
5190.25362,0.38689
5188.32488,0.38687
5186.39613,0.38654
5184.46739,0.38646
5182.53864,0.38624
5180.60990,0.38585
5178.68115,0.38625
5176.75240,0.38698
5174.82366,0.38691
5172.89491,0.38659
5170.96617,0.38654
5169.03742,0.38629
5167.10868,0.38609
5165.17993,0.38615
5163.25119,0.38636
5161.32244,0.38710
5159.39370,0.38800
5157.46495,0.38820
5155.53621,0.38765
5153.60746,0.38686
5151.67872,0.38640
5149.74997,0.38661
5147.82123,0.38696
5145.89248,0.38672
5143.96373,0.38612
5142.03499,0.38567
5140.10624,0.38539
5138.17750,0.38551
5136.24875,0.38602
5134.32001,0.38639
5132.39126,0.38654
5130.46252,0.38661
5128.53377,0.38622
5126.60503,0.38555
5124.67628,0.38533
5122.74754,0.38561
5120.81879,0.38605
5118.89005,0.38654
5116.96130,0.38695
5115.03255,0.38743
5113.10381,0.38788
5111.17506,0.38781
5109.24632,0.38751
5107.31757,0.38742
5105.38883,0.38728
5103.46008,0.38703
5101.53134,0.38689
5099.60259,0.38681
5097.67385,0.38699
5095.74510,0.38745
5093.81636,0.38747
5091.88761,0.38703
5089.95887,0.38682
5088.03012,0.38677
5086.10138,0.38672
5084.17263,0.38696
5082.24388,0.38726
5080.31514,0.38711
5078.38639,0.38652
5076.45765,0.38600
5074.52890,0.38573
5072.60016,0.38543
5070.67141,0.38533
5068.74267,0.38555
5066.81392,0.38560
5064.88518,0.38538
5062.95643,0.38534
5061.02769,0.38576
5059.09894,0.38663
5057.17020,0.38740
5055.24145,0.38744
5053.31270,0.38713
5051.38396,0.38719
5049.45521,0.38733
5047.52647,0.38712
5045.59772,0.38688
5043.66898,0.38683
5041.74023,0.38678
5039.81149,0.38655
5037.88274,0.38639
5035.95400,0.38647
5034.02525,0.38681
5032.09651,0.38747
5030.16776,0.38806
5028.23902,0.38810
5026.31027,0.38762
5024.38153,0.38721
5022.45278,0.38739
5020.52403,0.38776
5018.59529,0.38795
5016.66654,0.38800
5014.73780,0.38775
5012.80905,0.38743
5010.88031,0.38749
5008.95156,0.38743
5007.02282,0.38693
5005.09407,0.38679
5003.16533,0.38714
5001.23658,0.38702
4999.30784,0.38641
4997.37909,0.38600
4995.45035,0.38583
4993.52160,0.38552
4991.59286,0.38537
4989.66411,0.38595
4987.73536,0.38706
4985.80662,0.38793
4983.87787,0.38814
4981.94913,0.38790
4980.02038,0.38745
4978.09164,0.38694
4976.16289,0.38668
4974.23415,0.38665
4972.30540,0.38687
4970.37666,0.38728
4968.44791,0.38737
4966.51917,0.38709
4964.59042,0.38684
4962.66168,0.38696
4960.73293,0.38722
4958.80418,0.38693
4956.87544,0.38624
4954.94669,0.38595
4953.01795,0.38595
4951.08920,0.38599
4949.16046,0.38616
4947.23171,0.38633
4945.30297,0.38622
4943.37422,0.38592
4941.44548,0.38567
4939.51673,0.38557
4937.58799,0.38564
4935.65924,0.38582
4933.73050,0.38585
4931.80175,0.38573
4929.87301,0.38569
4927.94426,0.38609
4926.01551,0.38704
4924.08677,0.38773
4922.15802,0.38762
4920.22928,0.38718
4918.30053,0.38689
4916.37179,0.38662
4914.44304,0.38633
4912.51430,0.38616
4910.58555,0.38580
4908.65681,0.38545
4906.72806,0.38591
4904.79932,0.38682
4902.87057,0.38734
4900.94183,0.38742
4899.01308,0.38720
4897.08434,0.38693
4895.15559,0.38664
4893.22684,0.38631
4891.29810,0.38607
4889.36935,0.38601
4887.44061,0.38616
4885.51186,0.38619
4883.58312,0.38580
4881.65437,0.38558
4879.72563,0.38605
4877.79688,0.38672
4875.86814,0.38693
4873.93939,0.38679
4872.01065,0.38666
4870.08190,0.38665
4868.15316,0.38661
4866.22441,0.38642
4864.29566,0.38622
4862.36692,0.38633
4860.43817,0.38647
4858.50943,0.38619
4856.58068,0.38580
4854.65194,0.38576
4852.72319,0.38598
4850.79445,0.38604
4848.86570,0.38568
4846.93696,0.38555
4845.00821,0.38614
4843.07947,0.38668
4841.15072,0.38672
4839.22198,0.38639
4837.29323,0.38567
4835.36449,0.38506
4833.43574,0.38528
4831.50699,0.38609
4829.57825,0.38673
4827.64950,0.38689
4825.72076,0.38671
4823.79201,0.38641
4821.86327,0.38623
4819.93452,0.38630
4818.00578,0.38652
4816.07703,0.38661
4814.14829,0.38652
4812.21954,0.38638
4810.29080,0.38653
4808.36205,0.38686
4806.43331,0.38665
4804.50456,0.38595
4802.57582,0.38566
4800.64707,0.38604
4798.71832,0.38639
4796.78958,0.38655
4794.86083,0.38685
4792.93209,0.38697
4791.00334,0.38649
4789.07460,0.38591
4787.14585,0.38585
4785.21711,0.38588
4783.28836,0.38562
4781.35962,0.38531
4779.43087,0.38513
4777.50213,0.38517
4775.57338,0.38543
4773.64464,0.38573
4771.71589,0.38577
4769.78714,0.38549
4767.85840,0.38548
4765.92965,0.38581
4764.00091,0.38581
4762.07216,0.38563
4760.14342,0.38577
4758.21467,0.38602
4756.28593,0.38609
4754.35718,0.38607
4752.42844,0.38604
4750.49969,0.38589
4748.57095,0.38564
4746.64220,0.38567
4744.71346,0.38611
4742.78471,0.38640
4740.85597,0.38608
4738.92722,0.38567
4736.99847,0.38576
4735.06973,0.38596
4733.14098,0.38586
4731.21224,0.38577
4729.28349,0.38591
4727.35475,0.38591
4725.42600,0.38550
4723.49726,0.38484
4721.56851,0.38415
4719.63977,0.38360
4717.71102,0.38315
4715.78228,0.38278
4713.85353,0.38266
4711.92479,0.38259
4709.99604,0.38226
4708.06729,0.38190
4706.13855,0.38158
4704.20980,0.38095
4702.28106,0.38036
4700.35231,0.38034
4698.42357,0.38058
4696.49482,0.38067
4694.56608,0.38042
4692.63733,0.37959
4690.70859,0.37852
4688.77984,0.37767
4686.85110,0.37663
4684.92235,0.37493
4682.99361,0.37292
4681.06486,0.37098
4679.13612,0.36860
4677.20737,0.36540
4675.27862,0.36206
4673.34988,0.35899
4671.42113,0.35587
4669.49239,0.35298
4667.56364,0.35102
4665.63490,0.34983
4663.70615,0.34911
4661.77741,0.34911
4659.84866,0.35002
4657.91992,0.35165
4655.99117,0.35365
4654.06243,0.35578
4652.13368,0.35806
4650.20494,0.36015
4648.27619,0.36141
4646.34745,0.36180
4644.41870,0.36202
4642.48995,0.36228
4640.56121,0.36214
4638.63246,0.36143
4636.70372,0.36014
4634.77497,0.35818
4632.84623,0.35617
4630.91748,0.35499
4628.98874,0.35432
4627.05999,0.35346
4625.13125,0.35251
4623.20250,0.35175
4621.27376,0.35153
4619.34501,0.35184
4617.41627,0.35205
4615.48752,0.35176
4613.55877,0.35110
4611.63003,0.35049
4609.70128,0.35014
4607.77254,0.35000
4605.84379,0.35018
4603.91505,0.35099
4601.98630,0.35265
4600.05756,0.35491
4598.12881,0.35736
4596.20007,0.35968
4594.27132,0.36169
4592.34258,0.36324
4590.41383,0.36430
4588.48509,0.36513
4586.55634,0.36576
4584.62760,0.36604
4582.69885,0.36609
4580.77010,0.36568
4578.84136,0.36443
4576.91261,0.36268
4574.98387,0.36108
4573.05512,0.35977
4571.12638,0.35899
4569.19763,0.35955
4567.26889,0.36145
4565.34014,0.36379
4563.41140,0.36610
4561.48265,0.36824
4559.55391,0.36994
4557.62516,0.37139
4555.69642,0.37278
4553.76767,0.37374
4551.83893,0.37422
4549.91018,0.37463
4547.98143,0.37524
4546.05269,0.37606
4544.12394,0.37687
4542.19520,0.37733
4540.26645,0.37728
4538.33771,0.37707
4536.40896,0.37727
4534.48022,0.37780
4532.55147,0.37818
4530.62273,0.37825
4528.69398,0.37830
4526.76524,0.37857
4524.83649,0.37909
4522.90775,0.37948
4520.97900,0.37931
4519.05025,0.37878
4517.12151,0.37833
4515.19276,0.37814
4513.26402,0.37812
4511.33527,0.37771
4509.40653,0.37704
4507.47778,0.37686
4505.54904,0.37711
4503.62029,0.37739
4501.69155,0.37775
4499.76280,0.37819
4497.83406,0.37863
4495.90531,0.37917
4493.97657,0.37987
4492.04782,0.38047
4490.11908,0.38076
4488.19033,0.38084
4486.26158,0.38085
4484.33284,0.38081
4482.40409,0.38082
4480.47535,0.38095
4478.54660,0.38112
4476.61786,0.38133
4474.68911,0.38155
4472.76037,0.38178
4470.83162,0.38197
4468.90288,0.38203
4466.97413,0.38192
4465.04539,0.38160
4463.11664,0.38122
4461.18790,0.38107
4459.25915,0.38124
4457.33041,0.38152
4455.40166,0.38161
4453.47291,0.38145
4451.54417,0.38120
4449.61542,0.38092
4447.68668,0.38059
4445.75793,0.38025
4443.82919,0.37987
4441.90044,0.37947
4439.97170,0.37924
4438.04295,0.37913
4436.11421,0.37906
4434.18546,0.37929
4432.25672,0.37991
4430.32797,0.38047
4428.39923,0.38059
4426.47048,0.38041
4424.54173,0.38017
4422.61299,0.38006
4420.68424,0.37999
4418.75550,0.37970
4416.82675,0.37921
4414.89801,0.37876
4412.96926,0.37852
4411.04052,0.37847
4409.11177,0.37836
4407.18303,0.37790
4405.25428,0.37729
4403.32554,0.37692
4401.39679,0.37692
4399.46805,0.37712
4397.53930,0.37718
4395.61056,0.37705
4393.68181,0.37668
4391.75306,0.37602
4389.82432,0.37552
4387.89557,0.37533
4385.96683,0.37500
4384.03808,0.37439
4382.10934,0.37369
4380.18059,0.37297
4378.25185,0.37222
4376.32310,0.37145
4374.39436,0.37090
4372.46561,0.37048
4370.53687,0.36971
4368.60812,0.36869
4366.67938,0.36786
4364.75063,0.36725
4362.82189,0.36673
4360.89314,0.36607
4358.96439,0.36496
4357.03565,0.36375
4355.10690,0.36319
4353.17816,0.36306
4351.24941,0.36285
4349.32067,0.36256
4347.39192,0.36212
4345.46318,0.36142
4343.53443,0.36063
4341.60569,0.35999
4339.67694,0.35955
4337.74820,0.35920
4335.81945,0.35887
4333.89071,0.35858
4331.96196,0.35862
4330.03321,0.35912
4328.10447,0.35977
4326.17572,0.36035
4324.24698,0.36090
4322.31823,0.36178
4320.38949,0.36301
4318.46074,0.36398
4316.53200,0.36451
4314.60325,0.36523
4312.67451,0.36624
4310.74576,0.36717
4308.81702,0.36811
4306.88827,0.36873
4304.95953,0.36865
4303.03078,0.36845
4301.10204,0.36862
4299.17329,0.36886
4297.24454,0.36865
4295.31580,0.36791
4293.38705,0.36703
4291.45831,0.36615
4289.52956,0.36524
4287.60082,0.36440
4285.67207,0.36366
4283.74333,0.36310
4281.81458,0.36262
4279.88584,0.36183
4277.95709,0.36072
4276.02835,0.35972
4274.09960,0.35874
4272.17086,0.35737
4270.24211,0.35581
4268.31336,0.35450
4266.38462,0.35350
4264.45587,0.35254
4262.52713,0.35140
4260.59838,0.35008
4258.66964,0.34901
4256.74089,0.34837
4254.81215,0.34786
4252.88340,0.34733
4250.95466,0.34703
4249.02591,0.34705
4247.09717,0.34703
4245.16842,0.34691
4243.23968,0.34722
4241.31093,0.34804
4239.38219,0.34880
4237.45344,0.34932
4235.52469,0.34975
4233.59595,0.34987
4231.66720,0.34975
4229.73846,0.34969
4227.80971,0.34962
4225.88097,0.34964
4223.95222,0.34990
4222.02348,0.35026
4220.09473,0.35060
4218.16599,0.35071
4216.23724,0.35063
4214.30850,0.35060
4212.37975,0.35034
4210.45101,0.34983
4208.52226,0.34977
4206.59352,0.35017
4204.66477,0.35045
4202.73602,0.35066
4200.80728,0.35122
4198.87853,0.35223
4196.94979,0.35342
4195.02104,0.35450
4193.09230,0.35534
4191.16355,0.35587
4189.23481,0.35624
4187.30606,0.35659
4185.37732,0.35687
4183.44857,0.35718
4181.51983,0.35765
4179.59108,0.35811
4177.66234,0.35856
4175.73359,0.35901
4173.80484,0.35937
4171.87610,0.35990
4169.94735,0.36068
4168.01861,0.36128
4166.08986,0.36150
4164.16112,0.36166
4162.23237,0.36181
4160.30363,0.36165
4158.37488,0.36136
4156.44614,0.36120
4154.51739,0.36118
4152.58865,0.36133
4150.65990,0.36141
4148.73116,0.36117
4146.80241,0.36106
4144.87367,0.36129
4142.94492,0.36144
4141.01617,0.36127
4139.08743,0.36084
4137.15868,0.36016
4135.22994,0.35933
4133.30119,0.35859
4131.37245,0.35818
4129.44370,0.35780
4127.51496,0.35712
4125.58621,0.35645
4123.65747,0.35604
4121.72872,0.35578
4119.79998,0.35537
4117.87123,0.35476
4115.94249,0.35429
4114.01374,0.35394
4112.08500,0.35336
4110.15625,0.35259
4108.22750,0.35190
4106.29876,0.35141
4104.37001,0.35099
4102.44127,0.35051
4100.51252,0.35004
4098.58378,0.34967
4096.65503,0.34926
4094.72629,0.34848
4092.79754,0.34721
4090.86880,0.34588
4088.94005,0.34471
4087.01131,0.34368
4085.08256,0.34301
4083.15382,0.34213
4081.22507,0.34021
4079.29632,0.33758
4077.36758,0.33467
4075.43883,0.33165
4073.51009,0.32889
4071.58134,0.32623
4069.65260,0.32305
4067.72385,0.31961
4065.79511,0.31667
4063.86636,0.31424
4061.93762,0.31216
4060.00887,0.31063
4058.08013,0.30934
4056.15138,0.30805
4054.22264,0.30732
4052.29389,0.30733
4050.36515,0.30783
4048.43640,0.30854
4046.50765,0.30891
4044.57891,0.30854
4042.65016,0.30760
4040.72142,0.30657
4038.79267,0.30574
4036.86393,0.30537
4034.93518,0.30621
4033.00644,0.30859
4031.07769,0.31182
4029.14895,0.31523
4027.22020,0.31874
4025.29146,0.32257
4023.36271,0.32693
4021.43397,0.33144
4019.50522,0.33567
4017.57648,0.33990
4015.64773,0.34396
4013.71898,0.34705
4011.79024,0.34899
4009.86149,0.35021
4007.93275,0.35093
4006.00400,0.35120
4004.07526,0.35120
4002.14651,0.35112
4000.21777,0.35112
3998.28902,0.35159
3996.36028,0.35274
3994.43153,0.35423
3992.50279,0.35569
3990.57404,0.35694
3988.64530,0.35794
3986.71655,0.35877
3984.78780,0.35922
3982.85906,0.35929
3980.93031,0.35927
3979.00157,0.35920
3977.07282,0.35890
3975.14408,0.35856
3973.21533,0.35861
3971.28659,0.35909
3969.35784,0.35953
3967.42910,0.35982
3965.50035,0.36011
3963.57161,0.36041
3961.64286,0.36076
3959.71412,0.36112
3957.78537,0.36143
3955.85663,0.36170
3953.92788,0.36183
3951.99913,0.36179
3950.07039,0.36174
3948.14164,0.36158
3946.21290,0.36124
3944.28415,0.36093
3942.35541,0.36069
3940.42666,0.36052
3938.49792,0.36055
3936.56917,0.36078
3934.64043,0.36102
3932.71168,0.36102
3930.78294,0.36079
3928.85419,0.36093
3926.92545,0.36170
3924.99670,0.36250
3923.06795,0.36269
3921.13921,0.36266
3919.21046,0.36292
3917.28172,0.36307
3915.35297,0.36298
3913.42423,0.36305
3911.49548,0.36314
3909.56674,0.36308
3907.63799,0.36331
3905.70925,0.36400
3903.78050,0.36462
3901.85176,0.36470
3899.92301,0.36439
3897.99427,0.36404
3896.06552,0.36405
3894.13678,0.36450
3892.20803,0.36497
3890.27928,0.36506
3888.35054,0.36508
3886.42179,0.36540
3884.49305,0.36580
3882.56430,0.36605
3880.63556,0.36607
3878.70681,0.36568
3876.77807,0.36523
3874.84932,0.36510
3872.92058,0.36531
3870.99183,0.36568
3869.06309,0.36577
3867.13434,0.36555
3865.20560,0.36539
3863.27685,0.36518
3861.34811,0.36491
3859.41936,0.36491
3857.49061,0.36534
3855.56187,0.36609
3853.63312,0.36644
3851.70438,0.36586
3849.77563,0.36536
3847.84689,0.36533
3845.91814,0.36537
3843.98940,0.36537
3842.06065,0.36533
3840.13191,0.36511
3838.20316,0.36456
3836.27442,0.36373
3834.34567,0.36310
3832.41693,0.36295
3830.48818,0.36297
3828.55943,0.36269
3826.63069,0.36214
3824.70194,0.36181
3822.77320,0.36190
3820.84445,0.36199
3818.91571,0.36203
3816.98696,0.36213
3815.05822,0.36176
3813.12947,0.36110
3811.20073,0.36095
3809.27198,0.36125
3807.34324,0.36166
3805.41449,0.36219
3803.48575,0.36264
3801.55700,0.36260
3799.62826,0.36235
3797.69951,0.36260
3795.77076,0.36304
3793.84202,0.36325
3791.91327,0.36366
3789.98453,0.36448
3788.05578,0.36518
3786.12704,0.36541
3784.19829,0.36548
3782.26955,0.36565
3780.34080,0.36594
3778.41206,0.36613
3776.48331,0.36605
3774.55457,0.36596
3772.62582,0.36600
3770.69708,0.36596
3768.76833,0.36575
3766.83959,0.36544
3764.91084,0.36512
3762.98209,0.36504
3761.05335,0.36531
3759.12460,0.36570
3757.19586,0.36613
3755.26711,0.36679
3753.33837,0.36766
3751.40962,0.36845
3749.48088,0.36866
3747.55213,0.36859
3745.62339,0.36865
3743.69464,0.36851
3741.76590,0.36826
3739.83715,0.36831
3737.90841,0.36861
3735.97966,0.36894
3734.05091,0.36900
3732.12217,0.36847
3730.19342,0.36744
3728.26468,0.36640
3726.33593,0.36556
3724.40719,0.36475
3722.47844,0.36407
3720.54970,0.36394
3718.62095,0.36434
3716.69221,0.36502
3714.76346,0.36595
3712.83472,0.36695
3710.90597,0.36723
3708.97723,0.36634
3707.04848,0.36492
3705.11974,0.36374
3703.19099,0.36311
3701.26224,0.36286
3699.33350,0.36282
3697.40475,0.36322
3695.47601,0.36404
3693.54726,0.36497
3691.61852,0.36579
3689.68977,0.36608
3687.76103,0.36564
3685.83228,0.36516
3683.90354,0.36480
3681.97479,0.36427
3680.04605,0.36378
3678.11730,0.36362
3676.18856,0.36373
3674.25981,0.36393
3672.33107,0.36413
3670.40232,0.36430
3668.47357,0.36402
3666.54483,0.36318
3664.61608,0.36223
3662.68734,0.36137
3660.75859,0.36032
3658.82985,0.35889
3656.90110,0.35706
3654.97236,0.35498
3653.04361,0.35314
3651.11487,0.35144
3649.18612,0.34943
3647.25738,0.34789
3645.32863,0.34789
3643.39989,0.34932
3641.47114,0.35174
3639.54239,0.35456
3637.61365,0.35702
3635.68490,0.35883
3633.75616,0.36025
3631.82741,0.36127
3629.89867,0.36140
3627.96992,0.36014
3626.04118,0.35828
3624.11243,0.35671
3622.18369,0.35566
3620.25494,0.35530
3618.32620,0.35581
3616.39745,0.35728
3614.46871,0.35948
3612.53996,0.36175
3610.61122,0.36328
3608.68247,0.36400
3606.75372,0.36440
3604.82498,0.36484
3602.89623,0.36530
3600.96749,0.36577
3599.03874,0.36627
3597.11000,0.36653
3595.18125,0.36645
3593.25251,0.36635
3591.32376,0.36646
3589.39502,0.36674
3587.46627,0.36696
3585.53753,0.36692
3583.60878,0.36664
3581.68004,0.36642
3579.75129,0.36631
3577.82254,0.36616
3575.89380,0.36603
3573.96505,0.36609
3572.03631,0.36638
3570.10756,0.36674
3568.17882,0.36689
3566.25007,0.36679
3564.32133,0.36653
3562.39258,0.36602
3560.46384,0.36528
3558.53509,0.36469
3556.60635,0.36442
3554.67760,0.36431
3552.74886,0.36422
3550.82011,0.36423
3548.89137,0.36444
3546.96262,0.36454
3545.03387,0.36417
3543.10513,0.36345
3541.17638,0.36275
3539.24764,0.36247
3537.31889,0.36274
3535.39015,0.36296
3533.46140,0.36264
3531.53266,0.36234
3529.60391,0.36242
3527.67517,0.36246
3525.74642,0.36229
3523.81768,0.36201
3521.88893,0.36173
3519.96019,0.36157
3518.03144,0.36147
3516.10270,0.36121
3514.17395,0.36077
3512.24520,0.36047
3510.31646,0.36039
3508.38771,0.36038
3506.45897,0.36031
3504.53022,0.36029
3502.60148,0.36031
3500.67273,0.36003
3498.74399,0.35944
3496.81524,0.35872
3494.88650,0.35811
3492.95775,0.35785
3491.02901,0.35771
3489.10026,0.35746
3487.17152,0.35721
3485.24277,0.35703
3483.31402,0.35684
3481.38528,0.35653
3479.45653,0.35606
3477.52779,0.35560
3475.59904,0.35536
3473.67030,0.35533
3471.74155,0.35548
3469.81281,0.35574
3467.88406,0.35571
3465.95532,0.35515
3464.02657,0.35459
3462.09783,0.35450
3460.16908,0.35459
3458.24034,0.35446
3456.31159,0.35411
3454.38285,0.35372
3452.45410,0.35350
3450.52535,0.35361
3448.59661,0.35361
3446.66786,0.35303
3444.73912,0.35223
3442.81037,0.35180
3440.88163,0.35176
3438.95288,0.35202
3437.02414,0.35261
3435.09539,0.35336
3433.16665,0.35408
3431.23790,0.35465
3429.30916,0.35487
3427.38041,0.35483
3425.45167,0.35504
3423.52292,0.35560
3421.59418,0.35595
3419.66543,0.35595
3417.73668,0.35608
3415.80794,0.35644
3413.87919,0.35673
3411.95045,0.35669
3410.02170,0.35632
3408.09296,0.35610
3406.16421,0.35621
3404.23547,0.35626
3402.30672,0.35625
3400.37798,0.35646
3398.44923,0.35670
3396.52049,0.35691
3394.59174,0.35715
3392.66300,0.35716
3390.73425,0.35704
3388.80550,0.35705
3386.87676,0.35688
3384.94801,0.35654
3383.01927,0.35654
3381.09052,0.35685
3379.16178,0.35702
3377.23303,0.35679
3375.30429,0.35655
3373.37554,0.35674
3371.44680,0.35709
3369.51805,0.35734
3367.58931,0.35755
3365.66056,0.35770
3363.73182,0.35782
3361.80307,0.35791
3359.87433,0.35778
3357.94558,0.35751
3356.01683,0.35747
3354.08809,0.35755
3352.15934,0.35743
3350.23060,0.35737
3348.30185,0.35769
3346.37311,0.35798
3344.44436,0.35780
3342.51562,0.35747
3340.58687,0.35743
3338.65813,0.35764
3336.72938,0.35771
3334.80064,0.35751
3332.87189,0.35736
3330.94315,0.35739
3329.01440,0.35749
3327.08566,0.35766
3325.15691,0.35788
3323.22816,0.35776
3321.29942,0.35724
3319.37067,0.35704
3317.44193,0.35738
3315.51318,0.35768
3313.58444,0.35774
3311.65569,0.35780
3309.72695,0.35790
3307.79820,0.35798
3305.86946,0.35781
3303.94071,0.35734
3302.01197,0.35711
3300.08322,0.35735
3298.15448,0.35756
3296.22573,0.35743
3294.29698,0.35732
3292.36824,0.35740
3290.43949,0.35749
3288.51075,0.35752
3286.58200,0.35734
3284.65326,0.35696
3282.72451,0.35665
3280.79577,0.35652
3278.86702,0.35653
3276.93828,0.35669
3275.00953,0.35686
3273.08079,0.35677
3271.15204,0.35629
3269.22330,0.35568
3267.29455,0.35538
3265.36581,0.35536
3263.43706,0.35521
3261.50831,0.35489
3259.57957,0.35477
3257.65082,0.35498
3255.72208,0.35521
3253.79333,0.35547
3251.86459,0.35595
3249.93584,0.35625
3248.00710,0.35603
3246.07835,0.35563
3244.14961,0.35542
3242.22086,0.35537
3240.29212,0.35527
3238.36337,0.35516
3236.43463,0.35522
3234.50588,0.35543
3232.57713,0.35536
3230.64839,0.35491
3228.71964,0.35443
3226.79090,0.35419
3224.86215,0.35406
3222.93341,0.35378
3221.00466,0.35344
3219.07592,0.35305
3217.14717,0.35256
3215.21843,0.35212
3213.28968,0.35180
3211.36094,0.35139
3209.43219,0.35062
3207.50345,0.34954
3205.57470,0.34845
3203.64596,0.34749
3201.71721,0.34675
3199.78846,0.34633
3197.85972,0.34617
3195.93097,0.34614
3194.00223,0.34624
3192.07348,0.34648
3190.14474,0.34664
3188.21599,0.34646
3186.28725,0.34614
3184.35850,0.34583
3182.42976,0.34538
3180.50101,0.34496
3178.57227,0.34466
3176.64352,0.34423
3174.71478,0.34351
3172.78603,0.34232
3170.85729,0.34041
3168.92854,0.33773
3166.99979,0.33441
3165.07105,0.33096
3163.14230,0.32851
3161.21356,0.32799
3159.28481,0.32916
3157.35607,0.33104
3155.42732,0.33306
3153.49858,0.33479
3151.56983,0.33571
3149.64109,0.33589
3147.71234,0.33589
3145.78360,0.33565
3143.85485,0.33498
3141.92611,0.33425
3139.99736,0.33360
3138.06861,0.33287
3136.13987,0.33203
3134.21112,0.33097
3132.28238,0.32956
3130.35363,0.32786
3128.42489,0.32599
3126.49614,0.32377
3124.56740,0.32107
3122.63865,0.31795
3120.70991,0.31417
3118.78116,0.30916
3116.85242,0.30248
3114.92367,0.29384
3112.99493,0.28328
3111.06618,0.27132
3109.13744,0.25879
3107.20869,0.24713
3105.27994,0.23830
3103.35120,0.23361
3101.42245,0.23304
3099.49371,0.23516
3097.56496,0.23739
3095.63622,0.23716
3093.70747,0.23274
3091.77873,0.22368
3089.84998,0.21097
3087.92124,0.19667
3085.99249,0.18356
3084.06375,0.17452
3082.13500,0.17171
3080.20626,0.17517
3078.27751,0.18209
3076.34877,0.18845
3074.42002,0.19182
3072.49127,0.19178
3070.56253,0.18851
3068.63378,0.18234
3066.70504,0.17420
3064.77629,0.16559
3062.84755,0.15835
3060.91880,0.15459
3058.99006,0.15564
3057.06131,0.16110
3055.13257,0.16927
3053.20382,0.17803
3051.27508,0.18578
3049.34633,0.19193
3047.41759,0.19628
3045.48884,0.19812
3043.56009,0.19679
3041.63135,0.19227
3039.70260,0.18508
3037.77386,0.17597
3035.84511,0.16542
3033.91637,0.15381
3031.98762,0.14213
3030.05888,0.13207
3028.13013,0.12552
3026.20139,0.12391
3024.27264,0.12803
3022.34390,0.13775
3020.41515,0.15178
3018.48641,0.16792
3016.55766,0.18399
3014.62892,0.19822
3012.70017,0.20925
3010.77142,0.21631
3008.84268,0.21905
3006.91393,0.21756
3004.98519,0.21310
3003.05644,0.20846
3001.12770,0.20709
2999.19895,0.21147
2997.27021,0.22137
2995.34146,0.23399
2993.41272,0.24596
2991.48397,0.25520
2989.55523,0.26137
2987.62648,0.26504
2985.69774,0.26655
2983.76899,0.26612
2981.84025,0.26437
2979.91150,0.26195
2977.98275,0.25924
2976.05401,0.25663
2974.12526,0.25441
2972.19652,0.25221
2970.26777,0.24914
2968.33903,0.24494
2966.41028,0.24004
2964.48154,0.23465
2962.55279,0.22868
2960.62405,0.22216
2958.69530,0.21531
2956.76656,0.20826
2954.83781,0.20105
2952.90907,0.19375
2950.98032,0.18632
2949.05157,0.17873
2947.12283,0.17122
2945.19408,0.16371
2943.26534,0.15615
2941.33659,0.14892
2939.40785,0.14227
2937.47910,0.13621
2935.55036,0.13075
2933.62161,0.12589
2931.69287,0.12185
2929.76412,0.11899
2927.83538,0.11723
2925.90663,0.11638
2923.97789,0.11667
2922.04914,0.11812
2920.12040,0.12037
2918.19165,0.12324
2916.26290,0.12662
2914.33416,0.13033
2912.40541,0.13423
2910.47667,0.13842
2908.54792,0.14311
2906.61918,0.14826
2904.69043,0.15359
2902.76169,0.15890
2900.83294,0.16442
2898.90420,0.17028
2896.97545,0.17599
2895.04671,0.18101
2893.11796,0.18542
2891.18922,0.18943
2889.26047,0.19318
2887.33172,0.19686
2885.40298,0.20033
2883.47423,0.20351
2881.54549,0.20670
2879.61674,0.21003
2877.68800,0.21328
2875.75925,0.21622
2873.83051,0.21847
2871.90176,0.21974
2869.97302,0.21992
2868.04427,0.21874
2866.11553,0.21585
2864.18678,0.21128
2862.25804,0.20535
2860.32929,0.19859
2858.40055,0.19163
2856.47180,0.18512
2854.54305,0.17967
2852.61431,0.17587
2850.68556,0.17431
2848.75682,0.17553
2846.82807,0.17975
2844.89933,0.18708
2842.97058,0.19749
2841.04184,0.21070
2839.11309,0.22609
2837.18435,0.24247
2835.25560,0.25818
2833.32686,0.27178
2831.39811,0.28260
2829.46937,0.29072
2827.54062,0.29673
2825.61188,0.30124
2823.68313,0.30444
2821.75438,0.30663
2819.82564,0.30828
2817.89689,0.30949
2815.96815,0.31021
2814.03940,0.31073
2812.11066,0.31142
2810.18191,0.31233
2808.25317,0.31348
2806.32442,0.31486
2804.39568,0.31645
2802.46693,0.31815
2800.53819,0.31972
2798.60944,0.32119
2796.68070,0.32275
2794.75195,0.32436
2792.82320,0.32578
2790.89446,0.32683
2788.96571,0.32740
2787.03697,0.32750
2785.10822,0.32748
2783.17948,0.32772
2781.25073,0.32801
2779.32199,0.32823
2777.39324,0.32880
2775.46450,0.33004
2773.53575,0.33177
2771.60701,0.33364
2769.67826,0.33535
2767.74952,0.33677
2765.82077,0.33776
2763.89203,0.33833
2761.96328,0.33886
2760.03453,0.33955
2758.10579,0.34013
2756.17704,0.34037
2754.24830,0.34055
2752.31955,0.34097
2750.39081,0.34154
2748.46206,0.34204
2746.53332,0.34236
2744.60457,0.34243
2742.67583,0.34231
2740.74708,0.34198
2738.81834,0.34127
2736.88959,0.34026
2734.96085,0.33942
2733.03210,0.33889
2731.10336,0.33841
2729.17461,0.33790
2727.24586,0.33749
2725.31712,0.33720
2723.38837,0.33705
2721.45963,0.33708
2719.53088,0.33707
2717.60214,0.33693
2715.67339,0.33678
2713.74465,0.33678
2711.81590,0.33706
2709.88716,0.33750
2707.95841,0.33779
2706.02967,0.33775
2704.10092,0.33764
2702.17218,0.33765
2700.24343,0.33758
2698.31468,0.33745
2696.38594,0.33734
2694.45719,0.33710
2692.52845,0.33680
2690.59970,0.33671
2688.67096,0.33677
2686.74221,0.33684
2684.81347,0.33693
2682.88472,0.33698
2680.95598,0.33706
2679.02723,0.33733
2677.09849,0.33769
2675.16974,0.33781
2673.24100,0.33769
2671.31225,0.33761
2669.38351,0.33782
2667.45476,0.33827
2665.52601,0.33876
2663.59727,0.33906
2661.66852,0.33903
2659.73978,0.33889
2657.81103,0.33881
2655.88229,0.33850
2653.95354,0.33804
2652.02480,0.33779
2650.09605,0.33765
2648.16731,0.33743
2646.23856,0.33718
2644.30982,0.33697
2642.38107,0.33667
2640.45233,0.33602
2638.52358,0.33479
2636.59484,0.33316
2634.66609,0.33160
2632.73734,0.33052
2630.80860,0.33038
2628.87985,0.33153
2626.95111,0.33361
2625.02236,0.33577
2623.09362,0.33757
2621.16487,0.33902
2619.23613,0.33997
2617.30738,0.34037
2615.37864,0.34035
2613.44989,0.33995
2611.52115,0.33900
2609.59240,0.33746
2607.66366,0.33559
2605.73491,0.33380
2603.80616,0.33275
2601.87742,0.33288
2599.94867,0.33394
2598.01993,0.33564
2596.09118,0.33783
2594.16244,0.34003
2592.23369,0.34150
2590.30495,0.34192
2588.37620,0.34158
2586.44746,0.34070
2584.51871,0.33929
2582.58997,0.33790
2580.66122,0.33734
2578.73248,0.33804
2576.80373,0.33981
2574.87499,0.34173
2572.94624,0.34295
2571.01749,0.34352
2569.08875,0.34379
2567.16000,0.34387
2565.23126,0.34395
2563.30251,0.34409
2561.37377,0.34412
2559.44502,0.34403
2557.51628,0.34393
2555.58753,0.34389
2553.65879,0.34378
2551.73004,0.34344
2549.80130,0.34301
2547.87255,0.34277
2545.94381,0.34287
2544.01506,0.34331
2542.08631,0.34383
2540.15757,0.34417
2538.22882,0.34441
2536.30008,0.34473
2534.37133,0.34504
2532.44259,0.34524
2530.51384,0.34531
2528.58510,0.34507
2526.65635,0.34451
2524.72761,0.34396
2522.79886,0.34353
2520.87012,0.34308
2518.94137,0.34280
2517.01263,0.34271
2515.08388,0.34248
2513.15514,0.34223
2511.22639,0.34233
2509.29764,0.34264
2507.36890,0.34281
2505.44015,0.34295
2503.51141,0.34338
2501.58266,0.34405
2499.65392,0.34464
2497.72517,0.34503
2495.79643,0.34528
2493.86768,0.34554
2491.93894,0.34592
2490.01019,0.34636
2488.08145,0.34689
2486.15270,0.34752
2484.22396,0.34803
2482.29521,0.34837
2480.36647,0.34879
2478.43772,0.34946
2476.50897,0.35027
2474.58023,0.35103
2472.65148,0.35177
2470.72274,0.35250
2468.79399,0.35308
2466.86525,0.35356
2464.93650,0.35407
2463.00776,0.35454
2461.07901,0.35490
2459.15027,0.35509
2457.22152,0.35497
2455.29278,0.35465
2453.36403,0.35442
2451.43529,0.35427
2449.50654,0.35423
2447.57779,0.35449
2445.64905,0.35490
2443.72030,0.35504
2441.79156,0.35505
2439.86281,0.35528
2437.93407,0.35562
2436.00532,0.35578
2434.07658,0.35595
2432.14783,0.35637
2430.21909,0.35681
2428.29034,0.35715
2426.36160,0.35752
2424.43285,0.35789
2422.50411,0.35816
2420.57536,0.35812
2418.64662,0.35780
2416.71787,0.35758
2414.78912,0.35757
2412.86038,0.35752
2410.93163,0.35731
2409.00289,0.35695
2407.07414,0.35649
2405.14540,0.35604
2403.21665,0.35581
2401.28791,0.35576
2399.35916,0.35565
2397.43042,0.35534
2395.50167,0.35507
2393.57293,0.35502
2391.64418,0.35507
2389.71544,0.35510
2387.78669,0.35509
2385.85795,0.35496
2383.92920,0.35480
2382.00045,0.35469
2380.07171,0.35458
2378.14296,0.35447
2376.21422,0.35442
2374.28547,0.35449
2372.35673,0.35448
2370.42798,0.35390
2368.49924,0.35280
2366.57049,0.35179
2364.64175,0.35101
2362.71300,0.35027
2360.78426,0.34971
2358.85551,0.34942
2356.92677,0.34932
2354.99802,0.34936
2353.06927,0.34920
2351.14053,0.34859
2349.21178,0.34765
2347.28304,0.34629
2345.35429,0.34423
2343.42555,0.34135
2341.49680,0.33792
2339.56806,0.33472
2337.63931,0.33295
2335.71057,0.33349
2333.78182,0.33628
2331.85308,0.34043
2329.92433,0.34483
2327.99559,0.34857
2326.06684,0.35110
2324.13810,0.35238
2322.20935,0.35244
2320.28060,0.35130
2318.35186,0.34925
2316.42311,0.34678
2314.49437,0.34434
2312.56562,0.34266
2310.63688,0.34260
2308.70813,0.34432
2306.77939,0.34713
2304.85064,0.35014
2302.92190,0.35262
2300.99315,0.35404
2299.06441,0.35440
2297.13566,0.35422
2295.20692,0.35405
2293.27817,0.35410
2291.34943,0.35434
2289.42068,0.35479
2287.49193,0.35551
2285.56319,0.35643
2283.63444,0.35731
2281.70570,0.35799
2279.77695,0.35836
2277.84821,0.35848
2275.91946,0.35846
2273.99072,0.35819
2272.06197,0.35775
2270.13323,0.35726
2268.20448,0.35668
2266.27574,0.35617
2264.34699,0.35580
2262.41825,0.35540
2260.48950,0.35475
2258.56075,0.35404
2256.63201,0.35367
2254.70326,0.35379
2252.77452,0.35421
2250.84577,0.35471
2248.91703,0.35532
2246.98828,0.35612
2245.05954,0.35688
2243.13079,0.35747
2241.20205,0.35801
2239.27330,0.35850
2237.34456,0.35885
2235.41581,0.35909
2233.48707,0.35931
2231.55832,0.35947
2229.62958,0.35960
2227.70083,0.35979
2225.77208,0.36000
2223.84334,0.36012
2221.91459,0.36012
2219.98585,0.36006
2218.05710,0.36011
2216.12836,0.36021
2214.19961,0.36016
2212.27087,0.35993
2210.34212,0.35971
2208.41338,0.35960
2206.48463,0.35973
2204.55589,0.36024
2202.62714,0.36103
2200.69840,0.36178
2198.76965,0.36219
2196.84090,0.36226
2194.91216,0.36223
2192.98341,0.36211
2191.05467,0.36177
2189.12592,0.36126
2187.19718,0.36068
2185.26843,0.36027
2183.33969,0.36033
2181.41094,0.36077
2179.48220,0.36138
2177.55345,0.36216
2175.62471,0.36298
2173.69596,0.36359
2171.76722,0.36386
2169.83847,0.36399
2167.90973,0.36428
2165.98098,0.36468
2164.05223,0.36496
2162.12349,0.36509
2160.19474,0.36505
2158.26600,0.36481
2156.33725,0.36458
2154.40851,0.36457
2152.47976,0.36472
2150.55102,0.36489
2148.62227,0.36499
2146.69353,0.36503
2144.76478,0.36512
2142.83604,0.36526
2140.90729,0.36548
2138.97855,0.36575
2137.04980,0.36588
2135.12106,0.36587
2133.19231,0.36585
2131.26356,0.36600
2129.33482,0.36638
2127.40607,0.36669
2125.47733,0.36678
2123.54858,0.36682
2121.61984,0.36674
2119.69109,0.36651
2117.76235,0.36638
2115.83360,0.36643
2113.90486,0.36649
2111.97611,0.36651
2110.04737,0.36663
2108.11862,0.36685
2106.18988,0.36707
2104.26113,0.36739
2102.33238,0.36772
2100.40364,0.36783
2098.47489,0.36783
2096.54615,0.36793
2094.61740,0.36802
2092.68866,0.36811
2090.75991,0.36830
2088.83117,0.36853
2086.90242,0.36861
2084.97368,0.36852
2083.04493,0.36837
2081.11619,0.36826
2079.18744,0.36816
2077.25870,0.36788
2075.32995,0.36747
2073.40121,0.36719
2071.47246,0.36707
2069.54371,0.36703
2067.61497,0.36707
2065.68622,0.36717
2063.75748,0.36723
2061.82873,0.36726
2059.89999,0.36723
2057.97124,0.36712
2056.04250,0.36704
2054.11375,0.36705
2052.18501,0.36714
2050.25626,0.36725
2048.32752,0.36724
2046.39877,0.36710
2044.47003,0.36695
2042.54128,0.36686
2040.61254,0.36670
2038.68379,0.36632
2036.75504,0.36581
2034.82630,0.36533
2032.89755,0.36485
2030.96881,0.36441
2029.04006,0.36422
2027.11132,0.36421
2025.18257,0.36427
2023.25383,0.36440
2021.32508,0.36439
2019.39634,0.36414
2017.46759,0.36374
2015.53885,0.36319
2013.61010,0.36253
2011.68136,0.36191
2009.75261,0.36132
2007.82386,0.36071
2005.89512,0.36017
2003.96637,0.35978
2002.03763,0.35940
2000.10888,0.35875
1998.18014,0.35772
1996.25139,0.35640
1994.32265,0.35475
1992.39390,0.35246
1990.46516,0.34946
1988.53641,0.34639
1986.60767,0.34417
1984.67892,0.34306
1982.75018,0.34273
1980.82143,0.34276
1978.89269,0.34255
1976.96394,0.34142
1975.03519,0.33892
1973.10645,0.33482
1971.17770,0.32920
1969.24896,0.32249
1967.32021,0.31511
1965.39147,0.30770
1963.46272,0.30103
1961.53398,0.29551
1959.60523,0.29129
1957.67649,0.28809
1955.74774,0.28527
1953.81900,0.28224
1951.89025,0.27866
1949.96151,0.27450
1948.03276,0.27017
1946.10402,0.26636
1944.17527,0.26398
1942.24652,0.26385
1940.31778,0.26645
1938.38903,0.27178
1936.46029,0.27942
1934.53154,0.28854
1932.60280,0.29813
1930.67405,0.30706
1928.74531,0.31457
1926.81656,0.32063
1924.88782,0.32566
1922.95907,0.33006
1921.03033,0.33394
1919.10158,0.33736
1917.17284,0.34021
1915.24409,0.34229
1913.31534,0.34364
1911.38660,0.34434
1909.45785,0.34431
1907.52911,0.34349
1905.60036,0.34197
1903.67162,0.33965
1901.74287,0.33635
1899.81413,0.33209
1897.88538,0.32708
1895.95664,0.32142
1894.02789,0.31533
1892.09915,0.30931
1890.17040,0.30358
1888.24166,0.29836
1886.31291,0.29410
1884.38417,0.29087
1882.45542,0.28831
1880.52667,0.28608
1878.59793,0.28407
1876.66918,0.28225
1874.74044,0.28063
1872.81169,0.27947
1870.88295,0.27922
1868.95420,0.28014
1867.02546,0.28243
1865.09671,0.28644
1863.16797,0.29241
1861.23922,0.30005
1859.31048,0.30845
1857.38173,0.31664
1855.45299,0.32410
1853.52424,0.33056
1851.59549,0.33575
1849.66675,0.33964
1847.73800,0.34254
1845.80926,0.34485
1843.88051,0.34647
1841.95177,0.34706
1840.02302,0.34688
1838.09428,0.34612
1836.16553,0.34462
1834.23679,0.34240
1832.30804,0.33942
1830.37930,0.33544
1828.45055,0.33073
1826.52181,0.32581
1824.59306,0.32052
1822.66432,0.31498
1820.73557,0.30973
1818.80682,0.30481
1816.87808,0.30016
1814.94933,0.29582
1813.02059,0.29171
1811.09184,0.28755
1809.16310,0.28337
1807.23435,0.27966
1805.30561,0.27692
1803.37686,0.27565
1801.44812,0.27632
1799.51937,0.27916
1797.59063,0.28404
1795.66188,0.29076
1793.73314,0.29931
1791.80439,0.30888
1789.87565,0.31730
1787.94690,0.32387
1786.01815,0.32908
1784.08941,0.33248
1782.16066,0.33367
1780.23192,0.33307
1778.30317,0.33166
1776.37443,0.33068
1774.44568,0.33090
1772.51694,0.33210
1770.58819,0.33306
1768.65945,0.33296
1766.73070,0.33172
1764.80196,0.32936
1762.87321,0.32567
1760.94447,0.32068
1759.01572,0.31515
1757.08697,0.30928
1755.15823,0.30341
1753.22948,0.29823
1751.30074,0.29341
1749.37199,0.28906
1747.44325,0.28592
1745.51450,0.28403
1743.58576,0.28323
1741.65701,0.28368
1739.72827,0.28550
1737.79952,0.28845
1735.87078,0.29287
1733.94203,0.29905
1732.01329,0.30498
1730.08454,0.30967
1728.15580,0.31378
1726.22705,0.31735
1724.29830,0.32058
1722.36956,0.32345
1720.44081,0.32607
1718.51207,0.32880
1716.58332,0.33123
1714.65458,0.33271
1712.72583,0.33361
1710.79709,0.33411
1708.86834,0.33412
1706.93960,0.33364
1705.01085,0.33294
1703.08211,0.33267
1701.15336,0.33283
1699.22462,0.33261
1697.29587,0.33201
1695.36713,0.33104
1693.43838,0.32939
1691.50963,0.32737
1689.58089,0.32509
1687.65214,0.32280
1685.72340,0.32061
1683.79465,0.31783
1681.86591,0.31483
1679.93716,0.31243
1678.00842,0.31058
1676.07967,0.30896
1674.15093,0.30736
1672.22218,0.30620
1670.29344,0.30544
1668.36469,0.30462
1666.43595,0.30439
1664.50720,0.30530
1662.57845,0.30721
1660.64971,0.30964
1658.72096,0.31236
1656.79222,0.31540
1654.86347,0.31907
1652.93473,0.32289
1651.00598,0.32496
1649.07724,0.32627
1647.14849,0.32774
1645.21975,0.32871
1643.29100,0.32926
1641.36226,0.32981
1639.43351,0.33024
1637.50477,0.33031
1635.57602,0.32933
1633.64728,0.32715
1631.71853,0.32483
1629.78978,0.32243
1627.86104,0.31961
1625.93229,0.31655
1624.00355,0.31317
1622.07480,0.30938
1620.14606,0.30548
1618.21731,0.30041
1616.28857,0.29222
1614.35982,0.28153
1612.43108,0.26855
1610.50233,0.25090
1608.57359,0.22804
1606.64484,0.20314
1604.71610,0.18156
1602.78735,0.16861
1600.85861,0.16764
1598.92986,0.17808
1597.00111,0.19531
1595.07237,0.21359
1593.14362,0.22924
1591.21488,0.24088
1589.28613,0.24665
1587.35739,0.24376
1585.42864,0.23425
1583.49990,0.22828
1581.57115,0.23532
1579.64241,0.25286
1577.71366,0.27242
1575.78492,0.28882
1573.85617,0.29971
1571.92743,0.30728
1569.99868,0.31375
1568.06993,0.31822
1566.14119,0.32073
1564.21244,0.32242
1562.28370,0.32354
1560.35495,0.32363
1558.42621,0.32118
1556.49746,0.31681
1554.56872,0.31194
1552.63997,0.30659
1550.71123,0.30111
1548.78248,0.29586
1546.85374,0.29147
1544.92499,0.28836
1542.99625,0.28673
1541.06750,0.28667
1539.13876,0.28794
1537.21001,0.29020
1535.28126,0.29377
1533.35252,0.29878
1531.42377,0.30360
1529.49503,0.30717
1527.56628,0.30974
1525.63754,0.31127
1523.70879,0.31169
1521.78005,0.31081
1519.85130,0.30885
1517.92256,0.30632
1515.99381,0.30288
1514.06507,0.29873
1512.13632,0.29442
1510.20758,0.28974
1508.27883,0.28298
1506.35008,0.27045
1504.42134,0.25401
1502.49259,0.23630
1500.56385,0.21359
1498.63510,0.18325
1496.70636,0.14963
1494.77761,0.12742
1492.84887,0.12659
1490.92012,0.14468
1488.99138,0.17206
1487.06263,0.19731
1485.13389,0.21799
1483.20514,0.23571
1481.27640,0.25018
1479.34765,0.26034
1477.41891,0.26649
1475.49016,0.26955
1473.56141,0.26997
1471.63267,0.26793
1469.70392,0.26428
1467.77518,0.25973
1465.84643,0.25317
1463.91769,0.24329
1461.98894,0.23041
1460.06020,0.21343
1458.13145,0.18597
1456.20271,0.15002
1454.27396,0.12773
1452.34522,0.12581
1450.41647,0.13623
1448.48773,0.15031
1446.55898,0.16307
1444.63024,0.17456
1442.70149,0.18608
1440.77274,0.19765
1438.84400,0.20973
1436.91525,0.22438
1434.98651,0.24043
1433.05776,0.25505
1431.12902,0.26867
1429.20027,0.28077
1427.27153,0.28969
1425.34278,0.29570
1423.41404,0.29995
1421.48529,0.30338
1419.55655,0.30629
1417.62780,0.30803
1415.69906,0.30862
1413.77031,0.30875
1411.84156,0.30862
1409.91282,0.30831
1407.98407,0.30787
1406.05533,0.30712
1404.12658,0.30581
1402.19784,0.30400
1400.26909,0.30159
1398.34035,0.29831
1396.41160,0.29388
1394.48286,0.28767
1392.55411,0.27990
1390.62537,0.27162
1388.69662,0.26289
1386.76788,0.25408
1384.83913,0.24668
1382.91039,0.24117
1380.98164,0.23684
1379.05289,0.23302
1377.12415,0.22959
1375.19540,0.22695
1373.26666,0.22555
1371.33791,0.22545
1369.40917,0.22635
1367.48042,0.22782
1365.55168,0.22955
1363.62293,0.23148
1361.69419,0.23359
1359.76544,0.23587
1357.83670,0.23827
1355.90795,0.24043
1353.97921,0.24187
1352.05046,0.24258
1350.12172,0.24309
1348.19297,0.24403
1346.26422,0.24578
1344.33548,0.24841
1342.40673,0.25139
1340.47799,0.25379
1338.54924,0.25461
1336.62050,0.25335
1334.69175,0.25021
1332.76301,0.24616
1330.83426,0.24273
1328.90552,0.24131
1326.97677,0.24224
1325.04803,0.24468
1323.11928,0.24733
1321.19054,0.24919
1319.26179,0.24970
1317.33304,0.24874
1315.40430,0.24699
1313.47555,0.24568
1311.54681,0.24561
1309.61806,0.24681
1307.68932,0.24899
1305.76057,0.25151
1303.83183,0.25377
1301.90308,0.25597
1299.97434,0.25839
1298.04559,0.26033
1296.11685,0.26119
1294.18810,0.26149
1292.25936,0.26202
1290.33061,0.26289
1288.40187,0.26381
1286.47312,0.26468
1284.54437,0.26582
1282.61563,0.26758
1280.68688,0.27012
1278.75814,0.27358
1276.82939,0.27778
1274.90065,0.28225
1272.97190,0.28660
1271.04316,0.29036
1269.11441,0.29341
1267.18567,0.29602
1265.25692,0.29838
1263.32818,0.30047
1261.39943,0.30214
1259.47069,0.30308
1257.54194,0.30316
1255.61320,0.30255
1253.68445,0.30150
1251.75570,0.30017
1249.82696,0.29881
1247.89821,0.29791
1245.96947,0.29773
1244.04072,0.29804
1242.11198,0.29855
1240.18323,0.29914
1238.25449,0.29979
1236.32574,0.30036
1234.39700,0.30045
1232.46825,0.29973
1230.53951,0.29838
1228.61076,0.29685
1226.68202,0.29548
1224.75327,0.29446
1222.82452,0.29389
1220.89578,0.29343
1218.96703,0.29259
1217.03829,0.29133
1215.10954,0.28984
1213.18080,0.28789
1211.25205,0.28523
1209.32331,0.28200
1207.39456,0.27836
1205.46582,0.27417
1203.53707,0.26934
1201.60833,0.26438
1199.67958,0.26020
1197.75084,0.25719
1195.82209,0.25502
1193.89335,0.25336
1191.96460,0.25221
1190.03585,0.25122
1188.10711,0.24916
1186.17836,0.24484
1184.24962,0.23896
1182.32087,0.23495
1180.39213,0.23664
1178.46338,0.24438
1176.53464,0.25449
1174.60589,0.26317
1172.67715,0.26925
1170.74840,0.27325
1168.81966,0.27569
1166.89091,0.27670
1164.96217,0.27622
1163.03342,0.27367
1161.10467,0.26783
1159.17593,0.25835
1157.24718,0.24801
1155.31844,0.24222
1153.38969,0.24524
1151.46095,0.25666
1149.53220,0.27146
1147.60346,0.28435
1145.67471,0.29377
1143.74597,0.30082
1141.81722,0.30651
1139.88848,0.31124
1137.95973,0.31492
1136.03099,0.31720
1134.10224,0.31838
1132.17350,0.31916
1130.24475,0.31972
1128.31600,0.31973
1126.38726,0.31885
1124.45851,0.31692
1122.52977,0.31388
1120.60102,0.30965
1118.67228,0.30434
1116.74353,0.29885
1114.81479,0.29463
1112.88604,0.29261
1110.95730,0.29265
1109.02855,0.29384
1107.09981,0.29496
1105.17106,0.29543
1103.24232,0.29525
1101.31357,0.29400
1099.38483,0.29161
1097.45608,0.28892
1095.52733,0.28634
1093.59859,0.28352
1091.66984,0.28041
1089.74110,0.27744
1087.81235,0.27427
1085.88361,0.26995
1083.95486,0.26445
1082.02612,0.25849
1080.09737,0.25265
1078.16863,0.24715
1076.23988,0.24156
1074.31114,0.23536
1072.38239,0.22970
1070.45365,0.22673
1068.52490,0.22735
1066.59615,0.23101
1064.66741,0.23698
1062.73866,0.24445
1060.80992,0.25185
1058.88117,0.25808
1056.95243,0.26337
1055.02368,0.26818
1053.09494,0.27246
1051.16619,0.27588
1049.23745,0.27837
1047.30870,0.28025
1045.37996,0.28149
1043.45121,0.28140
1041.52247,0.27878
1039.59372,0.27211
1037.66498,0.26000
1035.73623,0.24226
1033.80748,0.22180
1031.87874,0.20435
1029.94999,0.19489
1028.02125,0.19513
1026.09250,0.20342
1024.16376,0.21556
1022.23501,0.22742
1020.30627,0.23754
1018.37752,0.24620
1016.44878,0.25360
1014.52003,0.25968
1012.59129,0.26438
1010.66254,0.26755
1008.73380,0.26867
1006.80505,0.26723
1004.87631,0.26458
1002.94756,0.26477
1001.01881,0.27062
999.09007,0.27969
997.16132,0.28714
995.23258,0.29089
993.30383,0.29156
991.37509,0.29023
989.44634,0.28756
987.51760,0.28390
985.58885,0.27950
983.66011,0.27503
981.73136,0.27170
979.80262,0.27063
977.87387,0.27214
975.94513,0.27525
974.01638,0.27766
972.08763,0.27722
970.15889,0.27378
968.23014,0.26889
966.30140,0.26459
964.37265,0.26313
962.44391,0.26608
960.51516,0.27270
958.58642,0.28023
956.65767,0.28613
954.72893,0.28966
952.80018,0.29105
950.87144,0.29051
948.94269,0.28854
947.01395,0.28586
945.08520,0.28339
943.15646,0.28232
941.22771,0.28371
939.29896,0.28772
937.37022,0.29318
935.44147,0.29867
933.51273,0.30338
931.58398,0.30684
929.65524,0.30881
927.72649,0.30911
925.79775,0.30743
923.86900,0.30393
921.94026,0.29902
920.01151,0.29274
918.08277,0.28467
916.15402,0.27426
914.22528,0.26148
912.29653,0.24777
910.36779,0.23578
908.43904,0.22839
906.51029,0.22751
904.58155,0.23315
902.65280,0.24417
900.72406,0.25896
898.79531,0.27491
896.86657,0.28892
894.93782,0.29924
893.00908,0.30636
891.08033,0.31166
889.15159,0.31600
887.22284,0.31980
885.29410,0.32313
883.36535,0.32584
881.43661,0.32798
879.50786,0.32963
877.57911,0.33072
875.65037,0.33141
873.72162,0.33182
871.79288,0.33215
869.86413,0.33285
867.93539,0.33375
866.00664,0.33408
864.07790,0.33385
862.14915,0.33335
860.22041,0.33259
858.29166,0.33116
856.36292,0.32833
854.43417,0.32399
852.50543,0.31797
850.57668,0.30956
848.64794,0.29924
846.71919,0.28914
844.79044,0.28132
842.86170,0.27697
840.93295,0.27680
839.00421,0.28116
837.07546,0.28974
835.14672,0.30089
833.21797,0.31176
831.28923,0.32006
829.36048,0.32530
827.43174,0.32813
825.50299,0.32943
823.57425,0.32981
821.64550,0.32953
819.71676,0.32878
817.78801,0.32762
815.85926,0.32597
813.93052,0.32402
812.00177,0.32219
810.07303,0.32029
808.14428,0.31789
806.21554,0.31504
804.28679,0.31202
802.35805,0.30847
800.42930,0.30367
798.50056,0.29759
796.57181,0.29053
794.64307,0.28252
792.71432,0.27327
790.78558,0.26310
788.85683,0.25301
786.92809,0.24327
784.99934,0.23322
783.07059,0.22245
781.14185,0.21088
779.21310,0.19865
777.28436,0.18612
775.35561,0.17379
773.42687,0.16210
771.49812,0.15158
769.56938,0.14314
767.64063,0.13731
765.71189,0.13346
763.78314,0.13085
761.85440,0.12949
759.92565,0.12990
757.99691,0.13264
756.06816,0.13728
754.13942,0.14248
752.21067,0.14758
750.28192,0.15280
748.35318,0.15896
746.42443,0.16719
744.49569,0.17798
742.56694,0.19038
740.63820,0.20292
738.70945,0.21492
736.78071,0.22688
734.85196,0.23976
732.92322,0.25314
730.99447,0.26470
729.06573,0.27233
727.13698,0.27545
725.20824,0.27445
723.27949,0.27001
721.35074,0.26256
719.42200,0.25206
717.49325,0.23788
715.56451,0.21839
713.63576,0.19218
711.70702,0.16017
709.77827,0.12599
707.84953,0.09579
705.92078,0.07744
703.99204,0.07634
702.06329,0.09226
700.13455,0.12115
698.20580,0.15687
696.27706,0.19294
694.34831,0.22525
692.41957,0.25198
690.49082,0.27266
688.56207,0.28781
686.63333,0.29837
684.70458,0.30548
682.77584,0.31038
680.84709,0.31377
678.91835,0.31596
676.98960,0.31723
675.06086,0.31773
673.13211,0.31785
671.20337,0.31872
669.27462,0.32093
667.34588,0.32389
665.41713,0.32732
663.48839,0.33155
661.55964,0.33629
659.63090,0.34103
657.70215,0.34539
655.77340,0.34922
653.84466,0.35280
651.91591,0.35570
649.98717,0.35720
648.05842,0.35781
646.12968,0.35811
644.20093,0.35797
642.27219,0.35703
640.34344,0.35430
638.41470,0.34925
636.48595,0.34340
634.55721,0.33781
632.62846,0.33165
630.69972,0.32529
628.77097,0.32030
626.84222,0.31685
624.91348,0.31392
622.98473,0.31068
621.05599,0.30833
619.12724,0.30955
617.19850,0.31399
615.26975,0.31852
613.34101,0.32171
611.41226,0.32354
609.48352,0.32400
607.55477,0.32324
605.62603,0.32137
603.69728,0.31913
601.76854,0.31654
599.83979,0.31305
