7497.03301,0.82565
7495.10426,0.82637
7493.17552,0.82808
7491.24677,0.83159
7489.31803,0.83386
7487.38928,0.83476
7485.46054,0.83469
7483.53179,0.82922
7481.60305,0.82214
7479.67430,0.82281
7477.74556,0.82814
7475.81681,0.83071
7473.88807,0.83071
7471.95932,0.82840
7470.03057,0.82326
7468.10183,0.81948
7466.17308,0.82033
7464.24434,0.82284
7462.31559,0.82448
7460.38685,0.82507
7458.45810,0.82157
7456.52936,0.81521
7454.60061,0.81092
7452.67187,0.80786
7450.74312,0.80526
7448.81438,0.80445
7446.88563,0.80371
7444.95689,0.80191
7443.02814,0.79944
7441.09940,0.79699
7439.17065,0.79802
7437.24190,0.80179
7435.31316,0.80214
7433.38441,0.80003
7431.45567,0.79835
7429.52692,0.79401
7427.59818,0.78955
7425.66943,0.79298
7423.74069,0.80187
7421.81194,0.80518
7419.88320,0.80161
7417.95445,0.79850
7416.02571,0.79804
7414.09696,0.79731
7412.16822,0.79593
7410.23947,0.79682
7408.31073,0.79950
7406.38198,0.80169
7404.45323,0.80232
7402.52449,0.79930
7400.59574,0.79445
7398.66700,0.79356
7396.73825,0.79804
7394.80951,0.80368
7392.88076,0.80808
7390.95202,0.81150
7389.02327,0.81178
7387.09453,0.80926
7385.16578,0.80784
7383.23704,0.80801
7381.30829,0.80817
7379.37955,0.80821
7377.45080,0.80687
7375.52205,0.80372
7373.59331,0.80136
7371.66456,0.79988
7369.73582,0.80031
7367.80707,0.80552
7365.87833,0.81033
7363.94958,0.80898
7362.02084,0.80635
7360.09209,0.80615
7358.16335,0.80576
7356.23460,0.80762
7354.30586,0.81403
7352.37711,0.81816
7350.44837,0.81520
7348.51962,0.80768
7346.59088,0.80129
7344.66213,0.80234
7342.73338,0.80971
7340.80464,0.81434
7338.87589,0.81193
7336.94715,0.80457
7335.01840,0.79705
7333.08966,0.79553
7331.16091,0.79716
7329.23217,0.79515
7327.30342,0.79081
7325.37468,0.78505
7323.44593,0.77832
7321.51719,0.77480
7319.58844,0.77468
7317.65970,0.77480
7315.73095,0.77380
7313.80221,0.77288
7311.87346,0.77378
7309.94471,0.77473
7308.01597,0.77391
7306.08722,0.77315
7304.15848,0.77228
7302.22973,0.77051
7300.30099,0.76943
7298.37224,0.76868
7296.44350,0.76787
7294.51475,0.76866
7292.58601,0.76950
7290.65726,0.76657
7288.72852,0.76170
7286.79977,0.75998
7284.87103,0.75995
7282.94228,0.75787
7281.01353,0.75407
7279.08479,0.74891
7277.15604,0.74500
7275.22730,0.74626
7273.29855,0.74868
7271.36981,0.74757
7269.44106,0.74649
7267.51232,0.74700
7265.58357,0.74760
7263.65483,0.74960
7261.72608,0.75130
7259.79734,0.74954
7257.86859,0.74508
7255.93985,0.74000
7254.01110,0.73640
7252.08236,0.73543
7250.15361,0.73604
7248.22486,0.73461
7246.29612,0.72926
7244.36737,0.72381
7242.43863,0.72084
7240.50988,0.71916
7238.58114,0.71939
7236.65239,0.72185
7234.72365,0.72267
7232.79490,0.71845
7230.86616,0.71306
7228.93741,0.71104
7227.00867,0.71088
7225.07992,0.71254
7223.15118,0.71781
7221.22243,0.72329
7219.29369,0.72363
7217.36494,0.72033
7215.43619,0.71975
7213.50745,0.72134
7211.57870,0.71934
7209.64996,0.71291
7207.72121,0.70623
7205.79247,0.70411
7203.86372,0.70637
7201.93498,0.70646
7200.00623,0.70155
7198.07749,0.69722
7196.14874,0.69710
7194.22000,0.69775
7192.29125,0.69620
7190.36251,0.69407
7188.43376,0.69348
7186.50501,0.69409
7184.57627,0.69565
7182.64752,0.69826
7180.71878,0.69984
7178.79003,0.69883
7176.86129,0.69604
7174.93254,0.69327
7173.00380,0.69186
7171.07505,0.69249
7169.14631,0.69598
7167.21756,0.69887
7165.28882,0.69724
7163.36007,0.69488
7161.43133,0.69428
7159.50258,0.69469
7157.57384,0.69825
7155.64509,0.70155
7153.71634,0.69954
7151.78760,0.69652
7149.85885,0.69638
7147.93011,0.69723
7146.00136,0.69698
7144.07262,0.69514
7142.14387,0.69356
7140.21513,0.69427
7138.28638,0.69606
7136.35764,0.69748
7134.42889,0.69976
7132.50015,0.70356
7130.57140,0.70611
7128.64266,0.70390
7126.71391,0.69847
7124.78516,0.69486
7122.85642,0.69284
7120.92767,0.68993
7118.99893,0.68822
7117.07018,0.68961
7115.14144,0.69297
7113.21269,0.69488
7111.28395,0.69247
7109.35520,0.68846
7107.42646,0.68588
7105.49771,0.68361
7103.56897,0.68162
7101.64022,0.68134
7099.71148,0.68129
7097.78273,0.67772
7095.85399,0.67229
7093.92524,0.67087
7091.99649,0.67299
7090.06775,0.67470
7088.13900,0.67453
7086.21026,0.67328
7084.28151,0.67443
7082.35277,0.67814
7080.42402,0.68073
7078.49528,0.68052
7076.56653,0.67714
7074.63779,0.67204
7072.70904,0.66809
7070.78030,0.66517
7068.85155,0.66271
7066.92281,0.66326
7064.99406,0.66703
7063.06532,0.66895
7061.13657,0.66849
7059.20782,0.67123
7057.27908,0.67606
7055.35033,0.67788
7053.42159,0.67776
7051.49284,0.67776
7049.56410,0.67642
7047.63535,0.67488
7045.70661,0.67816
7043.77786,0.68437
7041.84912,0.68514
7039.92037,0.68213
7037.99163,0.68214
7036.06288,0.68333
7034.13414,0.68360
7032.20539,0.68472
7030.27664,0.68544
7028.34790,0.68460
7026.41915,0.68400
7024.49041,0.68429
7022.56166,0.68479
7020.63292,0.68566
7018.70417,0.68744
7016.77543,0.68952
7014.84668,0.68991
7012.91794,0.68886
7010.98919,0.68831
7009.06045,0.68864
7007.13170,0.68954
7005.20296,0.69029
7003.27421,0.68948
7001.34547,0.68618
6999.41672,0.68321
6997.48797,0.68431
6995.55923,0.68632
6993.63048,0.68570
6991.70174,0.68553
6989.77299,0.68758
6987.84425,0.68909
6985.91550,0.68865
6983.98676,0.68754
6982.05801,0.68615
6980.12927,0.68616
6978.20052,0.69107
6976.27178,0.69736
6974.34303,0.69847
6972.41429,0.69632
6970.48554,0.69409
6968.55680,0.69141
6966.62805,0.69081
6964.69930,0.69228
6962.77056,0.69170
6960.84181,0.69036
6958.91307,0.69110
6956.98432,0.69210
6955.05558,0.69254
6953.12683,0.69249
6951.19809,0.69055
6949.26934,0.68888
6947.34060,0.69016
6945.41185,0.69321
6943.48311,0.69620
6941.55436,0.69845
6939.62562,0.70030
6937.69687,0.70034
6935.76812,0.69756
6933.83938,0.69516
6931.91063,0.69469
6929.98189,0.69562
6928.05314,0.69794
6926.12440,0.69931
6924.19565,0.69847
6922.26691,0.69732
6920.33816,0.69662
6918.40942,0.69713
6916.48067,0.70012
6914.55193,0.70354
6912.62318,0.70563
6910.69444,0.70722
6908.76569,0.70870
6906.83695,0.70964
6904.90820,0.70830
6902.97945,0.70529
6901.05071,0.70450
6899.12196,0.70596
6897.19322,0.70765
6895.26447,0.70945
6893.33573,0.71078
6891.40698,0.71234
6889.47824,0.71494
6887.54949,0.71538
6885.62075,0.71307
6883.69200,0.71161
6881.76326,0.71139
6879.83451,0.71208
6877.90577,0.71484
6875.97702,0.71900
6874.04828,0.72247
6872.11953,0.72354
6870.19078,0.72251
6868.26204,0.72057
6866.33329,0.71833
6864.40455,0.71626
6862.47580,0.71498
6860.54706,0.71703
6858.61831,0.72276
6856.68957,0.72647
6854.76082,0.72528
6852.83208,0.72275
6850.90333,0.72114
6848.97459,0.71968
6847.04584,0.71827
6845.11710,0.71797
6843.18835,0.71975
6841.25960,0.72296
6839.33086,0.72504
6837.40211,0.72538
6835.47337,0.72580
6833.54462,0.72726
6831.61588,0.72973
6829.68713,0.73085
6827.75839,0.72868
6825.82964,0.72731
6823.90090,0.73008
6821.97215,0.73272
6820.04341,0.73187
6818.11466,0.73016
6816.18592,0.72864
6814.25717,0.72700
6812.32843,0.72740
6810.39968,0.72981
6808.47093,0.73180
6806.54219,0.73224
6804.61344,0.73193
6802.68470,0.73239
6800.75595,0.73223
6798.82721,0.72929
6796.89846,0.72703
6794.96972,0.72925
6793.04097,0.73228
6791.11223,0.73217
6789.18348,0.73163
6787.25474,0.73272
6785.32599,0.73330
6783.39725,0.73339
6781.46850,0.73420
6779.53975,0.73433
6777.61101,0.73526
6775.68226,0.73903
6773.75352,0.74181
6771.82477,0.74064
6769.89603,0.73820
6767.96728,0.73770
6766.03854,0.73890
6764.10979,0.73979
6762.18105,0.73989
6760.25230,0.73928
6758.32356,0.73835
6756.39481,0.73896
6754.46607,0.74219
6752.53732,0.74541
6750.60858,0.74456
6748.67983,0.74029
6746.75108,0.73749
6744.82234,0.73846
6742.89359,0.73945
6740.96485,0.73733
6739.03610,0.73607
6737.10736,0.73875
6735.17861,0.74248
6733.24987,0.74488
6731.32112,0.74603
6729.39238,0.74611
6727.46363,0.74564
6725.53489,0.74570
6723.60614,0.74597
6721.67740,0.74490
6719.74865,0.74281
6717.81991,0.74215
6715.89116,0.74364
6713.96241,0.74482
6712.03367,0.74489
6710.10492,0.74445
6708.17618,0.74275
6706.24743,0.74242
6704.31869,0.74611
6702.38994,0.74962
6700.46120,0.74940
6698.53245,0.74769
6696.60371,0.74610
6694.67496,0.74478
6692.74622,0.74507
6690.81747,0.74630
6688.88873,0.74751
6686.95998,0.74998
6685.03123,0.75338
6683.10249,0.75538
6681.17374,0.75508
6679.24500,0.75394
6677.31625,0.75381
6675.38751,0.75565
6673.45876,0.75839
6671.53002,0.75934
6669.60127,0.75869
6667.67253,0.75829
6665.74378,0.75765
6663.81504,0.75718
6661.88629,0.75926
6659.95755,0.76273
6658.02880,0.76395
6656.10006,0.76369
6654.17131,0.76444
6652.24256,0.76532
6650.31382,0.76549
6648.38507,0.76546
6646.45633,0.76477
6644.52758,0.76385
6642.59884,0.76380
6640.67009,0.76406
6638.74135,0.76502
6636.81260,0.76712
6634.88386,0.76799
6632.95511,0.76681
6631.02637,0.76531
6629.09762,0.76425
6627.16888,0.76418
6625.24013,0.76527
6623.31139,0.76661
6621.38264,0.76786
6619.45389,0.76834
6617.52515,0.76630
6615.59640,0.76293
6613.66766,0.76220
6611.73891,0.76425
6609.81017,0.76578
6607.88142,0.76695
6605.95268,0.76938
6604.02393,0.77046
6602.09519,0.76820
6600.16644,0.76567
6598.23770,0.76494
6596.30895,0.76478
6594.38021,0.76601
6592.45146,0.76955
6590.52271,0.77190
6588.59397,0.77106
6586.66522,0.77043
6584.73648,0.77192
6582.80773,0.77325
6580.87899,0.77370
6578.95024,0.77455
6577.02150,0.77492
6575.09275,0.77408
6573.16401,0.77404
6571.23526,0.77514
6569.30652,0.77509
6567.37777,0.77398
6565.44903,0.77357
6563.52028,0.77383
6561.59154,0.77453
6559.66279,0.77541
6557.73404,0.77544
6555.80530,0.77510
6553.87655,0.77569
6551.94781,0.77678
6550.01906,0.77724
6548.09032,0.77766
6546.16157,0.77888
6544.23283,0.77952
6542.30408,0.77834
6540.37534,0.77667
6538.44659,0.77687
6536.51785,0.77899
6534.58910,0.78006
6532.66036,0.77860
6530.73161,0.77685
6528.80287,0.77640
6526.87412,0.77670
6524.94537,0.77819
6523.01663,0.78093
6521.08788,0.78225
6519.15914,0.78158
6517.23039,0.78156
6515.30165,0.78345
6513.37290,0.78667
6511.44416,0.78950
6509.51541,0.79065
6507.58667,0.79065
6505.65792,0.79079
6503.72918,0.79203
6501.80043,0.79321
6499.87169,0.79238
6497.94294,0.79070
6496.01419,0.79042
6494.08545,0.79125
6492.15670,0.79218
6490.22796,0.79265
6488.29921,0.79211
6486.37047,0.79152
6484.44172,0.79164
6482.51298,0.79195
6480.58423,0.79269
6478.65549,0.79352
6476.72674,0.79317
6474.79800,0.79284
6472.86925,0.79490
6470.94051,0.79771
6469.01176,0.79870
6467.08302,0.79833
6465.15427,0.79742
6463.22552,0.79640
6461.29678,0.79544
6459.36803,0.79530
6457.43929,0.79691
6455.51054,0.79910
6453.58180,0.80012
6451.65305,0.79972
6449.72431,0.79876
6447.79556,0.79683
6445.86682,0.79423
6443.93807,0.79410
6442.00933,0.79617
6440.08058,0.79711
6438.15184,0.79830
6436.22309,0.80076
6434.29434,0.80015
6432.36560,0.79610
6430.43685,0.79395
6428.50811,0.79516
6426.57936,0.79694
6424.65062,0.79821
6422.72187,0.79995
6420.79313,0.80191
6418.86438,0.80247
6416.93564,0.80133
6415.00689,0.79975
6413.07815,0.79913
6411.14940,0.79922
6409.22066,0.79793
6407.29191,0.79538
6405.36317,0.79482
6403.43442,0.79680
6401.50567,0.79803
6399.57693,0.79659
6397.64818,0.79434
6395.71944,0.79436
6393.79069,0.79568
6391.86195,0.79504
6389.93320,0.79288
6388.00446,0.79114
6386.07571,0.79042
6384.14697,0.79163
6382.21822,0.79397
6380.28948,0.79291
6378.36073,0.78783
6376.43199,0.78467
6374.50324,0.78485
6372.57450,0.78472
6370.64575,0.78401
6368.71700,0.78448
6366.78826,0.78575
6364.85951,0.78616
6362.93077,0.78573
6361.00202,0.78549
6359.07328,0.78427
6357.14453,0.78153
6355.21579,0.77976
6353.28704,0.77975
6351.35830,0.77927
6349.42955,0.77876
6347.50081,0.78041
6345.57206,0.78276
6343.64332,0.78327
6341.71457,0.78230
6339.78582,0.78150
6337.85708,0.78140
6335.92833,0.78175
6333.99959,0.78168
6332.07084,0.78028
6330.14210,0.77877
6328.21335,0.77817
6326.28461,0.77715
6324.35586,0.77493
6322.42712,0.77256
6320.49837,0.77112
6318.56963,0.77077
6316.64088,0.77149
6314.71214,0.77288
6312.78339,0.77415
6310.85465,0.77415
6308.92590,0.77135
6306.99715,0.76712
6305.06841,0.76541
6303.13966,0.76666
6301.21092,0.76722
6299.28217,0.76558
6297.35343,0.76354
6295.42468,0.76193
6293.49594,0.76033
6291.56719,0.75933
6289.63845,0.75973
6287.70970,0.76040
6285.78096,0.75990
6283.85221,0.75986
6281.92347,0.76191
6279.99472,0.76397
6278.06598,0.76359
6276.13723,0.76081
6274.20848,0.75755
6272.27974,0.75608
6270.35099,0.75645
6268.42225,0.75649
6266.49350,0.75496
6264.56476,0.75255
6262.63601,0.75013
6260.70727,0.74797
6258.77852,0.74685
6256.84978,0.74657
6254.92103,0.74510
6252.99229,0.74241
6251.06354,0.74032
6249.13480,0.73862
6247.20605,0.73646
6245.27730,0.73456
6243.34856,0.73380
6241.41981,0.73314
6239.49107,0.73131
6237.56232,0.72960
6235.63358,0.72912
6233.70483,0.72888
6231.77609,0.72785
6229.84734,0.72589
6227.91860,0.72400
6225.98985,0.72222
6224.06111,0.71919
6222.13236,0.71606
6220.20362,0.71408
6218.27487,0.71213
6216.34613,0.71080
6214.41738,0.71064
6212.48863,0.70904
6210.55989,0.70568
6208.63114,0.70318
6206.70240,0.70095
6204.77365,0.69702
6202.84491,0.69241
6200.91616,0.68942
6198.98742,0.68882
6197.05867,0.68843
6195.12993,0.68482
6193.20118,0.67852
6191.27244,0.67310
6189.34369,0.66980
6187.41495,0.66739
6185.48620,0.66412
6183.55746,0.65914
6181.62871,0.65348
6179.69996,0.64843
6177.77122,0.64448
6175.84247,0.64036
6173.91373,0.63396
6171.98498,0.62599
6170.05624,0.61917
6168.12749,0.61365
6166.19875,0.60729
6164.27000,0.59991
6162.34126,0.59219
6160.41251,0.58401
6158.48377,0.57632
6156.55502,0.56920
6154.62628,0.56139
6152.69753,0.55270
6150.76878,0.54383
6148.84004,0.53595
6146.91129,0.52907
6144.98255,0.52181
6143.05380,0.51451
6141.12506,0.50910
6139.19631,0.50536
6137.26757,0.50182
6135.33882,0.49847
6133.41008,0.49521
6131.48133,0.49149
6129.55259,0.48717
6127.62384,0.48218
6125.69510,0.47643
6123.76635,0.46925
6121.83761,0.46015
6119.90886,0.45091
6117.98011,0.44441
6116.05137,0.44051
6114.12262,0.43680
6112.19388,0.43338
6110.26513,0.43208
6108.33639,0.43313
6106.40764,0.43467
6104.47890,0.43581
6102.55015,0.43806
6100.62141,0.44128
6098.69266,0.44351
6096.76392,0.44430
6094.83517,0.44454
6092.90643,0.44448
6090.97768,0.44342
6089.04893,0.44160
6087.12019,0.43958
6085.19144,0.43653
6083.26270,0.43209
6081.33395,0.42729
6079.40521,0.42422
6077.47646,0.42367
6075.54772,0.42389
6073.61897,0.42396
6071.69023,0.42494
6069.76148,0.42892
6067.83274,0.43629
6065.90399,0.44483
6063.97525,0.45344
6062.04650,0.46160
6060.11776,0.46798
6058.18901,0.47230
6056.26026,0.47523
6054.33152,0.47723
6052.40277,0.47820
6050.47403,0.47774
6048.54528,0.47533
6046.61654,0.47171
6044.68779,0.46821
6042.75905,0.46343
6040.83030,0.45614
6038.90156,0.44776
6036.97281,0.43983
6035.04407,0.43246
6033.11532,0.42398
6031.18658,0.41387
6029.25783,0.40396
6027.32909,0.39513
6025.40034,0.38659
6023.47159,0.37681
6021.54285,0.36519
6019.61410,0.35341
6017.68536,0.34275
6015.75661,0.33298
6013.82787,0.32436
6011.89912,0.31687
6009.97038,0.30989
6008.04163,0.30304
6006.11289,0.29571
6004.18414,0.28739
6002.25540,0.27842
6000.32665,0.27075
5998.39791,0.26538
5996.46916,0.26014
5994.54041,0.25371
5992.61167,0.24810
5990.68292,0.24442
5988.75418,0.24062
5986.82543,0.23531
5984.89669,0.22966
5982.96794,0.22464
5981.03920,0.22007
5979.11045,0.21508
5977.18171,0.20988
5975.25296,0.20612
5973.32422,0.20346
5971.39547,0.20060
5969.46673,0.19855
5967.53798,0.19808
5965.60924,0.19823
5963.68049,0.19789
5961.75174,0.19645
5959.82300,0.19432
5957.89425,0.19243
5955.96551,0.19130
5954.03676,0.19131
5952.10802,0.19165
5950.17927,0.19077
5948.25053,0.18927
5946.32178,0.18872
5944.39304,0.18926
5942.46429,0.19066
5940.53555,0.19282
5938.60680,0.19473
5936.67806,0.19598
5934.74931,0.19791
5932.82057,0.20099
5930.89182,0.20365
5928.96307,0.20511
5927.03433,0.20639
5925.10558,0.20827
5923.17684,0.20995
5921.24809,0.21034
5919.31935,0.21038
5917.39060,0.21111
5915.46186,0.21193
5913.53311,0.21286
5911.60437,0.21476
5909.67562,0.21729
5907.74688,0.21943
5905.81813,0.22132
5903.88939,0.22291
5901.96064,0.22305
5900.03189,0.22315
5898.10315,0.22555
5896.17440,0.22862
5894.24566,0.23036
5892.31691,0.23208
5890.38817,0.23528
5888.45942,0.23955
5886.53068,0.24409
5884.60193,0.24914
5882.67319,0.25500
5880.74444,0.26072
5878.81570,0.26529
5876.88695,0.26920
5874.95821,0.27295
5873.02946,0.27651
5871.10072,0.27974
5869.17197,0.28245
5867.24322,0.28543
5865.31448,0.28905
5863.38573,0.29210
5861.45699,0.29395
5859.52824,0.29467
5857.59950,0.29424
5855.67075,0.29336
5853.74201,0.29315
5851.81326,0.29399
5849.88452,0.29522
5847.95577,0.29615
5846.02703,0.29705
5844.09828,0.29797
5842.16954,0.29828
5840.24079,0.29814
5838.31205,0.29837
5836.38330,0.29915
5834.45455,0.30025
5832.52581,0.30084
5830.59706,0.30036
5828.66832,0.30016
5826.73957,0.30128
5824.81083,0.30241
5822.88208,0.30299
5820.95334,0.30432
5819.02459,0.30603
5817.09585,0.30632
5815.16710,0.30514
5813.23836,0.30377
5811.30961,0.30268
5809.38087,0.30161
5807.45212,0.30028
5805.52337,0.29902
5803.59463,0.29862
5801.66588,0.29913
5799.73714,0.29969
5797.80839,0.29986
5795.87965,0.30056
5793.95090,0.30256
5792.02216,0.30437
5790.09341,0.30459
5788.16467,0.30469
5786.23592,0.30660
5784.30718,0.30966
5782.37843,0.31280
5780.44969,0.31665
5778.52094,0.32053
5776.59220,0.32299
5774.66345,0.32551
5772.73470,0.33015
5770.80596,0.33642
5768.87721,0.34253
5766.94847,0.34767
5765.01972,0.35276
5763.09098,0.35826
5761.16223,0.36345
5759.23349,0.36859
5757.30474,0.37435
5755.37600,0.38014
5753.44725,0.38485
5751.51851,0.38798
5749.58976,0.39037
5747.66102,0.39343
5745.73227,0.39729
5743.80352,0.40066
5741.87478,0.40273
5739.94603,0.40394
5738.01729,0.40463
5736.08854,0.40512
5734.15980,0.40514
5732.23105,0.40355
5730.30231,0.40082
5728.37356,0.39818
5726.44482,0.39498
5724.51607,0.39039
5722.58733,0.38582
5720.65858,0.38268
5718.72984,0.37969
5716.80109,0.37515
5714.87235,0.36942
5712.94360,0.36389
5711.01485,0.35923
5709.08611,0.35547
5707.15736,0.35285
5705.22862,0.35066
5703.29987,0.34800
5701.37113,0.34568
5699.44238,0.34449
5697.51364,0.34329
5695.58489,0.34150
5693.65615,0.33999
5691.72740,0.33850
5689.79866,0.33658
5687.86991,0.33496
5685.94117,0.33437
5684.01242,0.33390
5682.08368,0.33211
5680.15493,0.33017
5678.22618,0.32929
5676.29744,0.32781
5674.36869,0.32520
5672.43995,0.32297
5670.51120,0.32172
5668.58246,0.32147
5666.65371,0.32219
5664.72497,0.32332
5662.79622,0.32461
5660.86748,0.32615
5658.93873,0.32816
5657.00999,0.33098
5655.08124,0.33384
5653.15250,0.33621
5651.22375,0.33902
5649.29500,0.34254
5647.36626,0.34632
5645.43751,0.35017
5643.50877,0.35399
5641.58002,0.35749
5639.65128,0.36035
5637.72253,0.36307
5635.79379,0.36620
5633.86504,0.36911
5631.93630,0.37136
5630.00755,0.37381
5628.07881,0.37680
5626.15006,0.37932
5624.22132,0.38085
5622.29257,0.38201
5620.36383,0.38323
5618.43508,0.38418
5616.50633,0.38446
5614.57759,0.38399
5612.64884,0.38359
5610.72010,0.38429
5608.79135,0.38563
5606.86261,0.38681
5604.93386,0.38802
5603.00512,0.38899
5601.07637,0.38862
5599.14763,0.38675
5597.21888,0.38487
5595.29014,0.38395
5593.36139,0.38273
5591.43265,0.38037
5589.50390,0.37831
5587.57516,0.37744
5585.64641,0.37677
5583.71766,0.37642
5581.78892,0.37730
5579.86017,0.37896
5577.93143,0.38163
5576.00268,0.38539
5574.07394,0.38787
5572.14519,0.38831
5570.21645,0.38874
5568.28770,0.39029
5566.35896,0.39248
5564.43021,0.39397
5562.50147,0.39390
5560.57272,0.39349
5558.64398,0.39382
5556.71523,0.39382
5554.78648,0.39274
5552.85774,0.39153
5550.92899,0.39114
5549.00025,0.39181
5547.07150,0.39295
5545.14276,0.39301
5543.21401,0.39150
5541.28527,0.39026
5539.35652,0.39052
5537.42778,0.39138
5535.49903,0.39182
5533.57029,0.39172
5531.64154,0.39162
5529.71280,0.39179
5527.78405,0.39185
5525.85531,0.39189
5523.92656,0.39215
5521.99781,0.39248
5520.06907,0.39331
5518.14032,0.39471
5516.21158,0.39549
5514.28283,0.39510
5512.35409,0.39456
5510.42534,0.39493
5508.49660,0.39619
5506.56785,0.39741
5504.63911,0.39762
5502.71036,0.39707
5500.78162,0.39740
5498.85287,0.39939
5496.92413,0.40195
5494.99538,0.40410
5493.06664,0.40574
5491.13789,0.40691
5489.20914,0.40776
5487.28040,0.40883
5485.35165,0.41043
5483.42291,0.41194
5481.49416,0.41311
5479.56542,0.41425
5477.63667,0.41502
5475.70793,0.41552
5473.77918,0.41678
5471.85044,0.41801
5469.92169,0.41812
5467.99295,0.41836
5466.06420,0.41932
5464.13546,0.42031
5462.20671,0.42098
5460.27796,0.42100
5458.34922,0.42080
5456.42047,0.42094
5454.49173,0.42096
5452.56298,0.42051
5450.63424,0.41973
5448.70549,0.41896
5446.77675,0.41880
5444.84800,0.41885
5442.91926,0.41821
5440.99051,0.41735
5439.06177,0.41688
5437.13302,0.41649
5435.20428,0.41568
5433.27553,0.41457
5431.34679,0.41408
5429.41804,0.41443
5427.48929,0.41488
5425.56055,0.41462
5423.63180,0.41397
5421.70306,0.41368
5419.77431,0.41338
5417.84557,0.41271
5415.91682,0.41204
5413.98808,0.41182
5412.05933,0.41180
5410.13059,0.41136
5408.20184,0.41071
5406.27310,0.41053
5404.34435,0.41098
5402.41561,0.41115
5400.48686,0.41051
5398.55811,0.41009
5396.62937,0.41036
5394.70062,0.41047
5392.77188,0.40975
5390.84313,0.40829
5388.91439,0.40720
5386.98564,0.40708
5385.05690,0.40718
5383.12815,0.40708
5381.19941,0.40708
5379.27066,0.40735
5377.34192,0.40778
5375.41317,0.40735
5373.48443,0.40592
5371.55568,0.40553
5369.62694,0.40704
5367.69819,0.40880
5365.76944,0.40973
5363.84070,0.41056
5361.91195,0.41186
5359.98321,0.41298
5358.05446,0.41370
5356.12572,0.41464
5354.19697,0.41603
5352.26823,0.41739
5350.33948,0.41836
5348.41074,0.41959
5346.48199,0.42137
5344.55325,0.42300
5342.62450,0.42444
5340.69576,0.42571
5338.76701,0.42674
5336.83827,0.42809
5334.90952,0.42942
5332.98077,0.43030
5331.05203,0.43118
5329.12328,0.43173
5327.19454,0.43169
5325.26579,0.43208
5323.33705,0.43322
5321.40830,0.43424
5319.47956,0.43496
5317.55081,0.43548
5315.62207,0.43572
5313.69332,0.43651
5311.76458,0.43810
5309.83583,0.43907
5307.90709,0.43886
5305.97834,0.43827
5304.04959,0.43777
5302.12085,0.43725
5300.19210,0.43702
5298.26336,0.43751
5296.33461,0.43824
5294.40587,0.43871
5292.47712,0.43919
5290.54838,0.43975
5288.61963,0.43996
5286.69089,0.43998
5284.76214,0.44032
5282.83340,0.44086
5280.90465,0.44098
5278.97591,0.44053
5277.04716,0.44057
5275.11842,0.44181
5273.18967,0.44311
5271.26092,0.44328
5269.33218,0.44264
5267.40343,0.44208
5265.47469,0.44198
5263.54594,0.44197
5261.61720,0.44149
5259.68845,0.44077
5257.75971,0.44039
5255.83096,0.44044
5253.90222,0.44076
5251.97347,0.44138
5250.04473,0.44209
5248.11598,0.44249
5246.18724,0.44246
5244.25849,0.44207
5242.32975,0.44116
5240.40100,0.43984
5238.47225,0.43890
5236.54351,0.43880
5234.61476,0.43895
5232.68602,0.43918
5230.75727,0.43978
5228.82853,0.44024
5226.89978,0.44045
5224.97104,0.44095
5223.04229,0.44176
5221.11355,0.44275
5219.18480,0.44389
5217.25606,0.44492
5215.32731,0.44573
5213.39857,0.44665
5211.46982,0.44760
5209.54107,0.44808
5207.61233,0.44859
5205.68358,0.44952
5203.75484,0.45014
5201.82609,0.45052
5199.89735,0.45095
5197.96860,0.45078
5196.03986,0.45041
5194.11111,0.45086
5192.18237,0.45188
5190.25362,0.45290
5188.32488,0.45377
5186.39613,0.45443
5184.46739,0.45448
5182.53864,0.45364
5180.60990,0.45279
5178.68115,0.45274
5176.75240,0.45312
5174.82366,0.45370
5172.89491,0.45458
5170.96617,0.45537
5169.03742,0.45529
5167.10868,0.45441
5165.17993,0.45401
5163.25119,0.45454
5161.32244,0.45516
5159.39370,0.45557
5157.46495,0.45574
5155.53621,0.45542
5153.60746,0.45499
5151.67872,0.45519
5149.74997,0.45588
5147.82123,0.45626
5145.89248,0.45616
5143.96373,0.45578
5142.03499,0.45485
5140.10624,0.45344
5138.17750,0.45242
5136.24875,0.45210
5134.32001,0.45167
5132.39126,0.45095
5130.46252,0.45033
5128.53377,0.44968
5126.60503,0.44927
5124.67628,0.44960
5122.74754,0.45032
5120.81879,0.45070
5118.89005,0.45084
5116.96130,0.45135
5115.03255,0.45188
5113.10381,0.45217
5111.17506,0.45256
5109.24632,0.45266
5107.31757,0.45243
5105.38883,0.45255
5103.46008,0.45298
5101.53134,0.45355
5099.60259,0.45437
5097.67385,0.45525
5095.74510,0.45602
5093.81636,0.45639
5091.88761,0.45651
5089.95887,0.45700
5088.03012,0.45743
5086.10138,0.45726
5084.17263,0.45694
5082.24388,0.45642
5080.31514,0.45550
5078.38639,0.45515
5076.45765,0.45583
5074.52890,0.45683
5072.60016,0.45767
5070.67141,0.45776
5068.74267,0.45712
5066.81392,0.45690
5064.88518,0.45748
5062.95643,0.45794
5061.02769,0.45770
5059.09894,0.45724
5057.17020,0.45686
5055.24145,0.45641
5053.31270,0.45591
5051.38396,0.45537
5049.45521,0.45495
5047.52647,0.45466
5045.59772,0.45426
5043.66898,0.45414
5041.74023,0.45469
5039.81149,0.45561
5037.88274,0.45623
5035.95400,0.45609
5034.02525,0.45583
5032.09651,0.45601
5030.16776,0.45643
5028.23902,0.45738
5026.31027,0.45868
5024.38153,0.45939
5022.45278,0.45948
5020.52403,0.45937
5018.59529,0.45888
5016.66654,0.45802
5014.73780,0.45750
5012.80905,0.45772
5010.88031,0.45811
5008.95156,0.45805
5007.02282,0.45754
5005.09407,0.45666
5003.16533,0.45564
5001.23658,0.45481
4999.30784,0.45438
4997.37909,0.45445
4995.45035,0.45443
4993.52160,0.45357
4991.59286,0.45205
4989.66411,0.45041
4987.73536,0.44889
4985.80662,0.44762
4983.87787,0.44668
4981.94913,0.44608
4980.02038,0.44574
4978.09164,0.44554
4976.16289,0.44550
4974.23415,0.44596
4972.30540,0.44681
4970.37666,0.44764
4968.44791,0.44808
4966.51917,0.44811
4964.59042,0.44857
4962.66168,0.44968
4960.73293,0.45009
4958.80418,0.44933
4956.87544,0.44847
4954.94669,0.44830
4953.01795,0.44822
4951.08920,0.44754
4949.16046,0.44671
4947.23171,0.44642
4945.30297,0.44666
4943.37422,0.44702
4941.44548,0.44702
4939.51673,0.44682
4937.58799,0.44646
4935.65924,0.44574
4933.73050,0.44529
4931.80175,0.44561
4929.87301,0.44626
4927.94426,0.44686
4926.01551,0.44753
4924.08677,0.44813
4922.15802,0.44804
4920.22928,0.44736
4918.30053,0.44698
4916.37179,0.44719
4914.44304,0.44756
4912.51430,0.44763
4910.58555,0.44719
4908.65681,0.44663
4906.72806,0.44643
4904.79932,0.44644
4902.87057,0.44638
4900.94183,0.44616
4899.01308,0.44567
4897.08434,0.44496
4895.15559,0.44437
4893.22684,0.44365
4891.29810,0.44276
4889.36935,0.44219
4887.44061,0.44149
4885.51186,0.43999
4883.58312,0.43806
4881.65437,0.43652
4879.72563,0.43578
4877.79688,0.43531
4875.86814,0.43456
4873.93939,0.43374
4872.01065,0.43296
4870.08190,0.43211
4868.15316,0.43131
4866.22441,0.43076
4864.29566,0.43080
4862.36692,0.43112
4860.43817,0.43074
4858.50943,0.42975
4856.58068,0.42905
4854.65194,0.42866
4852.72319,0.42812
4850.79445,0.42731
4848.86570,0.42623
4846.93696,0.42499
4845.00821,0.42380
4843.07947,0.42244
4841.15072,0.42069
4839.22198,0.41898
4837.29323,0.41772
4835.36449,0.41721
4833.43574,0.41716
4831.50699,0.41689
4829.57825,0.41651
4827.64950,0.41669
4825.72076,0.41741
4823.79201,0.41798
4821.86327,0.41807
4819.93452,0.41798
4818.00578,0.41804
4816.07703,0.41845
4814.14829,0.41924
4812.21954,0.42023
4810.29080,0.42126
4808.36205,0.42192
4806.43331,0.42170
4804.50456,0.42069
4802.57582,0.41973
4800.64707,0.41956
4798.71832,0.41969
4796.78958,0.41895
4794.86083,0.41745
4792.93209,0.41601
4791.00334,0.41490
4789.07460,0.41420
4787.14585,0.41361
4785.21711,0.41255
4783.28836,0.41067
4781.35962,0.40765
4779.43087,0.40386
4777.50213,0.40074
4775.57338,0.39852
4773.64464,0.39573
4771.71589,0.39194
4769.78714,0.38790
4767.85840,0.38388
4765.92965,0.37982
4764.00091,0.37627
4762.07216,0.37418
4760.14342,0.37349
4758.21467,0.37347
4756.28593,0.37370
4754.35718,0.37402
4752.42844,0.37407
4750.49969,0.37363
4748.57095,0.37295
4746.64220,0.37208
4744.71346,0.37064
4742.78471,0.36860
4740.85597,0.36639
4738.92722,0.36398
4736.99847,0.36116
4735.06973,0.35840
4733.14098,0.35574
4731.21224,0.35231
4729.28349,0.34801
4727.35475,0.34360
4725.42600,0.33885
4723.49726,0.33299
4721.56851,0.32639
4719.63977,0.31994
4717.71102,0.31380
4715.78228,0.30779
4713.85353,0.30195
4711.92479,0.29679
4709.99604,0.29271
4708.06729,0.28959
4706.13855,0.28707
4704.20980,0.28465
4702.28106,0.28210
4700.35231,0.27930
4698.42357,0.27606
4696.49482,0.27211
4694.56608,0.26711
4692.63733,0.26102
4690.70859,0.25402
4688.77984,0.24574
4686.85110,0.23560
4684.92235,0.22374
4682.99361,0.21095
4681.06486,0.19787
4679.13612,0.18478
4677.20737,0.17196
4675.27862,0.16023
4673.34988,0.15047
4671.42113,0.14279
4669.49239,0.13696
4667.56364,0.13296
4665.63490,0.13063
4663.70615,0.12960
4661.77741,0.12969
4659.84866,0.13095
4657.91992,0.13364
4655.99117,0.13777
4654.06243,0.14258
4652.13368,0.14730
4650.20494,0.15185
4648.27619,0.15608
4646.34745,0.15947
4644.41870,0.16141
4642.48995,0.16148
4640.56121,0.15957
4638.63246,0.15609
4636.70372,0.15223
4634.77497,0.14857
4632.84623,0.14469
4630.91748,0.14086
4628.98874,0.13795
4627.05999,0.13599
4625.13125,0.13439
4623.20250,0.13307
4621.27376,0.13236
4619.34501,0.13235
4617.41627,0.13237
4615.48752,0.13145
4613.55877,0.12957
4611.63003,0.12745
4609.70128,0.12585
4607.77254,0.12550
4605.84379,0.12648
4603.91505,0.12848
4601.98630,0.13166
4600.05756,0.13631
4598.12881,0.14218
4596.20007,0.14838
4594.27132,0.15426
4592.34258,0.15956
4590.41383,0.16406
4588.48509,0.16774
4586.55634,0.17067
4584.62760,0.17208
4582.69885,0.17114
4580.77010,0.16805
4578.84136,0.16318
4576.91261,0.15706
4574.98387,0.15117
4573.05512,0.14701
4571.12638,0.14561
4569.19763,0.14748
4567.26889,0.15250
4565.34014,0.15999
4563.41140,0.16867
4561.48265,0.17705
4559.55391,0.18412
4557.62516,0.18991
4555.69642,0.19523
4553.76767,0.20100
4551.83893,0.20739
4549.91018,0.21383
4547.98143,0.21991
4546.05269,0.22555
4544.12394,0.23029
4542.19520,0.23346
4540.26645,0.23518
4538.33771,0.23596
4536.40896,0.23605
4534.48022,0.23599
4532.55147,0.23625
4530.62273,0.23713
4528.69398,0.23863
4526.76524,0.24007
4524.83649,0.24090
4522.90775,0.24113
4520.97900,0.24092
4519.05025,0.24055
4517.12151,0.24009
4515.19276,0.23946
4513.26402,0.23881
4511.33527,0.23815
4509.40653,0.23699
4507.47778,0.23514
4505.54904,0.23341
4503.62029,0.23292
4501.69155,0.23391
4499.76280,0.23625
4497.83406,0.23983
4495.90531,0.24401
4493.97657,0.24773
4492.04782,0.25012
4490.11908,0.25096
4488.19033,0.25068
4486.26158,0.24972
4484.33284,0.24876
4482.40409,0.24864
4480.47535,0.24940
4478.54660,0.25047
4476.61786,0.25185
4474.68911,0.25386
4472.76037,0.25636
4470.83162,0.25916
4468.90288,0.26192
4466.97413,0.26415
4465.04539,0.26572
4463.11664,0.26692
4461.18790,0.26807
4459.25915,0.26907
4457.33041,0.26922
4455.40166,0.26811
4453.47291,0.26614
4451.54417,0.26361
4449.61542,0.26017
4447.68668,0.25599
4445.75793,0.25196
4443.82919,0.24841
4441.90044,0.24537
4439.97170,0.24337
4438.04295,0.24291
4436.11421,0.24356
4434.18546,0.24441
4432.25672,0.24482
4430.32797,0.24474
4428.39923,0.24421
4426.47048,0.24289
4424.54173,0.24087
4422.61299,0.23857
4420.68424,0.23592
4418.75550,0.23296
4416.82675,0.23023
4414.89801,0.22777
4412.96926,0.22525
4411.04052,0.22241
4409.11177,0.21925
4407.18303,0.21614
4405.25428,0.21337
4403.32554,0.21066
4401.39679,0.20770
4399.46805,0.20461
4397.53930,0.20147
4395.61056,0.19826
4393.68181,0.19505
4391.75306,0.19176
4389.82432,0.18849
4387.89557,0.18532
4385.96683,0.18195
4384.03808,0.17850
4382.10934,0.17539
4380.18059,0.17257
4378.25185,0.16986
4376.32310,0.16692
4374.39436,0.16358
4372.46561,0.16020
4370.53687,0.15687
4368.60812,0.15345
4366.67938,0.15025
4364.75063,0.14748
4362.82189,0.14475
4360.89314,0.14184
4358.96439,0.13927
4357.03565,0.13730
4355.10690,0.13550
4353.17816,0.13361
4351.24941,0.13170
4349.32067,0.12988
4347.39192,0.12842
4345.46318,0.12716
4343.53443,0.12554
4341.60569,0.12373
4339.67694,0.12230
4337.74820,0.12112
4335.81945,0.11991
4333.89071,0.11890
4331.96196,0.11840
4330.03321,0.11843
4328.10447,0.11897
4326.17572,0.11980
4324.24698,0.12071
4322.31823,0.12217
4320.38949,0.12437
4318.46074,0.12676
4316.53200,0.12916
4314.60325,0.13178
4312.67451,0.13445
4310.74576,0.13668
4308.81702,0.13820
4306.88827,0.13899
4304.95953,0.13927
4303.03078,0.13928
4301.10204,0.13896
4299.17329,0.13838
4297.24454,0.13771
4295.31580,0.13679
4293.38705,0.13563
4291.45831,0.13467
4289.52956,0.13405
4287.60082,0.13326
4285.67207,0.13170
4283.74333,0.12955
4281.81458,0.12744
4279.88584,0.12542
4277.95709,0.12346
4276.02835,0.12170
4274.09960,0.11998
4272.17086,0.11829
4270.24211,0.11674
4268.31336,0.11512
4266.38462,0.11317
4264.45587,0.11102
4262.52713,0.10900
4260.59838,0.10743
4258.66964,0.10646
4256.74089,0.10583
4254.81215,0.10513
4252.88340,0.10429
4250.95466,0.10363
4249.02591,0.10337
4247.09717,0.10338
4245.16842,0.10350
4243.23968,0.10367
4241.31093,0.10393
4239.38219,0.10451
4237.45344,0.10552
4235.52469,0.10655
4233.59595,0.10720
4231.66720,0.10746
4229.73846,0.10757
4227.80971,0.10788
4225.88097,0.10847
4223.95222,0.10893
4222.02348,0.10916
4220.09473,0.10936
4218.16599,0.10947
4216.23724,0.10937
4214.30850,0.10888
4212.37975,0.10824
4210.45101,0.10806
4208.52226,0.10817
4206.59352,0.10817
4204.66477,0.10814
4202.73602,0.10830
4200.80728,0.10892
4198.87853,0.11014
4196.94979,0.11163
4195.02104,0.11296
4193.09230,0.11417
4191.16355,0.11533
4189.23481,0.11602
4187.30606,0.11625
4185.37732,0.11671
4183.44857,0.11752
4181.51983,0.11824
4179.59108,0.11882
4177.66234,0.11947
4175.73359,0.12049
4173.80484,0.12173
4171.87610,0.12250
4169.94735,0.12282
4168.01861,0.12320
4166.08986,0.12365
4164.16112,0.12388
4162.23237,0.12402
4160.30363,0.12445
4158.37488,0.12493
4156.44614,0.12493
4154.51739,0.12453
4152.58865,0.12409
4150.65990,0.12385
4148.73116,0.12414
4146.80241,0.12466
4144.87367,0.12489
4142.94492,0.12489
4141.01617,0.12456
4139.08743,0.12356
4137.15868,0.12220
4135.22994,0.12099
4133.30119,0.12018
4131.37245,0.11967
4129.44370,0.11899
4127.51496,0.11783
4125.58621,0.11669
4123.65747,0.11606
4121.72872,0.11553
4119.79998,0.11477
4117.87123,0.11391
4115.94249,0.11302
4114.01374,0.11215
4112.08500,0.11135
4110.15625,0.11063
4108.22750,0.11009
4106.29876,0.10977
4104.37001,0.10962
4102.44127,0.10955
4100.51252,0.10926
4098.58378,0.10852
4096.65503,0.10751
4094.72629,0.10653
4092.79754,0.10562
4090.86880,0.10466
4088.94005,0.10362
4087.01131,0.10233
4085.08256,0.10069
4083.15382,0.09895
4081.22507,0.09734
4079.29632,0.09569
4077.36758,0.09379
4075.43883,0.09196
4073.51009,0.09040
4071.58134,0.08887
4069.65260,0.08730
4067.72385,0.08578
4065.79511,0.08445
4063.86636,0.08352
4061.93762,0.08276
4060.00887,0.08188
4058.08013,0.08106
4056.15138,0.08077
4054.22264,0.08096
4052.29389,0.08102
4050.36515,0.08081
4048.43640,0.08095
4046.50765,0.08149
4044.57891,0.08169
4042.65016,0.08125
4040.72142,0.08065
4038.79267,0.08031
4036.86393,0.08026
4034.93518,0.08040
4033.00644,0.08087
4031.07769,0.08198
4029.14895,0.08351
4027.22020,0.08504
4025.29146,0.08659
4023.36271,0.08844
4021.43397,0.09085
4019.50522,0.09395
4017.57648,0.09762
4015.64773,0.10130
4013.71898,0.10429
4011.79024,0.10641
4009.86149,0.10768
4007.93275,0.10819
4006.00400,0.10833
4004.07526,0.10829
4002.14651,0.10797
4000.21777,0.10793
3998.28902,0.10893
3996.36028,0.11084
3994.43153,0.11306
3992.50279,0.11529
3990.57404,0.11742
3988.64530,0.11925
3986.71655,0.12049
3984.78780,0.12108
3982.85906,0.12107
3980.93031,0.12072
3979.00157,0.12048
3977.07282,0.12044
3975.14408,0.12052
3973.21533,0.12076
3971.28659,0.12123
3969.35784,0.12182
3967.42910,0.12246
3965.50035,0.12301
3963.57161,0.12338
3961.64286,0.12387
3959.71412,0.12461
3957.78537,0.12510
3955.85663,0.12512
3953.92788,0.12508
3951.99913,0.12527
3950.07039,0.12542
3948.14164,0.12519
3946.21290,0.12474
3944.28415,0.12425
3942.35541,0.12371
3940.42666,0.12311
3938.49792,0.12250
3936.56917,0.12203
3934.64043,0.12198
3932.71168,0.12237
3930.78294,0.12297
3928.85419,0.12329
3926.92545,0.12328
3924.99670,0.12344
3923.06795,0.12392
3921.13921,0.12447
3919.21046,0.12511
3917.28172,0.12582
3915.35297,0.12638
3913.42423,0.12686
3911.49548,0.12722
3909.56674,0.12730
3907.63799,0.12715
3905.70925,0.12705
3903.78050,0.12722
3901.85176,0.12750
3899.92301,0.12768
3897.99427,0.12780
3896.06552,0.12792
3894.13678,0.12824
3892.20803,0.12891
3890.27928,0.12961
3888.35054,0.13006
3886.42179,0.13030
3884.49305,0.13042
3882.56430,0.13055
3880.63556,0.13080
3878.70681,0.13096
3876.77807,0.13086
3874.84932,0.13064
3872.92058,0.13055
3870.99183,0.13069
3869.06309,0.13085
3867.13434,0.13084
3865.20560,0.13074
3863.27685,0.13072
3861.34811,0.13088
3859.41936,0.13104
3857.49061,0.13100
3855.56187,0.13072
3853.63312,0.13024
3851.70438,0.12984
3849.77563,0.12970
3847.84689,0.12959
3845.91814,0.12933
3843.98940,0.12882
3842.06065,0.12800
3840.13191,0.12719
3838.20316,0.12680
3836.27442,0.12658
3834.34567,0.12591
3832.41693,0.12505
3830.48818,0.12454
3828.55943,0.12423
3826.63069,0.12372
3824.70194,0.12308
3822.77320,0.12240
3820.84445,0.12171
3818.91571,0.12123
3816.98696,0.12118
3815.05822,0.12133
3813.12947,0.12143
3811.20073,0.12150
3809.27198,0.12155
3807.34324,0.12140
3805.41449,0.12116
3803.48575,0.12110
3801.55700,0.12146
3799.62826,0.12233
3797.69951,0.12326
3795.77076,0.12394
3793.84202,0.12458
3791.91327,0.12553
3789.98453,0.12680
3788.05578,0.12805
3786.12704,0.12895
3784.19829,0.12957
3782.26955,0.13004
3780.34080,0.13027
3778.41206,0.13036
3776.48331,0.13055
3774.55457,0.13072
3772.62582,0.13074
3770.69708,0.13076
3768.76833,0.13050
3766.83959,0.12967
3764.91084,0.12893
3762.98209,0.12896
3761.05335,0.12953
3759.12460,0.13025
3757.19586,0.13124
3755.26711,0.13261
3753.33837,0.13407
3751.40962,0.13508
3749.48088,0.13551
3747.55213,0.13579
3745.62339,0.13605
3743.69464,0.13620
3741.76590,0.13615
3739.83715,0.13575
3737.90841,0.13519
3735.97966,0.13473
3734.05091,0.13428
3732.12217,0.13364
3730.19342,0.13260
3728.26468,0.13090
3726.33593,0.12870
3724.40719,0.12659
3722.47844,0.12517
3720.54970,0.12479
3718.62095,0.12546
3716.69221,0.12684
3714.76346,0.12852
3712.83472,0.12992
3710.90597,0.13019
3708.97723,0.12904
3707.04848,0.12692
3705.11974,0.12428
3703.19099,0.12169
3701.26224,0.11991
3699.33350,0.11932
3697.40475,0.11990
3695.47601,0.12126
3693.54726,0.12271
3691.61852,0.12379
3689.68977,0.12418
3687.76103,0.12370
3685.83228,0.12267
3683.90354,0.12138
3681.97479,0.12011
3680.04605,0.11908
3678.11730,0.11832
3676.18856,0.11793
3674.25981,0.11789
3672.33107,0.11803
3670.40232,0.11826
3668.47357,0.11841
3666.54483,0.11830
3664.61608,0.11762
3662.68734,0.11616
3660.75859,0.11424
3658.82985,0.11203
3656.90110,0.10919
3654.97236,0.10599
3653.04361,0.10329
3651.11487,0.10119
3649.18612,0.09943
3647.25738,0.09842
3645.32863,0.09876
3643.39989,0.10054
3641.47114,0.10364
3639.54239,0.10755
3637.61365,0.11142
3635.68490,0.11477
3633.75616,0.11733
3631.82741,0.11875
3629.89867,0.11896
3627.96992,0.11799
3626.04118,0.11609
3624.11243,0.11377
3622.18369,0.11182
3620.25494,0.11112
3618.32620,0.11234
3616.39745,0.11564
3614.46871,0.12044
3612.53996,0.12566
3610.61122,0.13020
3608.68247,0.13369
3606.75372,0.13622
3604.82498,0.13815
3602.89623,0.13980
3600.96749,0.14089
3599.03874,0.14119
3597.11000,0.14115
3595.18125,0.14107
3593.25251,0.14097
3591.32376,0.14106
3589.39502,0.14130
3587.46627,0.14163
3585.53753,0.14224
3583.60878,0.14317
3581.68004,0.14422
3579.75129,0.14529
3577.82254,0.14666
3575.89380,0.14838
3573.96505,0.15010
3572.03631,0.15180
3570.10756,0.15351
3568.17882,0.15475
3566.25007,0.15509
3564.32133,0.15482
3562.39258,0.15470
3560.46384,0.15487
3558.53509,0.15488
3556.60635,0.15466
3554.67760,0.15453
3552.74886,0.15426
3550.82011,0.15380
3548.89137,0.15369
3546.96262,0.15377
3545.03387,0.15349
3543.10513,0.15290
3541.17638,0.15220
3539.24764,0.15142
3537.31889,0.15064
3535.39015,0.14991
3533.46140,0.14936
3531.53266,0.14915
3529.60391,0.14893
3527.67517,0.14845
3525.74642,0.14801
3523.81768,0.14778
3521.88893,0.14743
3519.96019,0.14678
3518.03144,0.14603
3516.10270,0.14537
3514.17395,0.14482
3512.24520,0.14434
3510.31646,0.14378
3508.38771,0.14325
3506.45897,0.14302
3504.53022,0.14292
3502.60148,0.14256
3500.67273,0.14187
3498.74399,0.14096
3496.81524,0.14018
3494.88650,0.13982
3492.95775,0.13938
3491.02901,0.13833
3489.10026,0.13707
3487.17152,0.13613
3485.24277,0.13537
3483.31402,0.13454
3481.38528,0.13384
3479.45653,0.13334
3477.52779,0.13274
3475.59904,0.13194
3473.67030,0.13116
3471.74155,0.13064
3469.81281,0.13035
3467.88406,0.13001
3465.95532,0.12944
3464.02657,0.12872
3462.09783,0.12820
3460.16908,0.12803
3458.24034,0.12789
3456.31159,0.12739
3454.38285,0.12661
3452.45410,0.12584
3450.52535,0.12521
3448.59661,0.12449
3446.66786,0.12339
3444.73912,0.12210
3442.81037,0.12121
3440.88163,0.12113
3438.95288,0.12168
3437.02414,0.12243
3435.09539,0.12323
3433.16665,0.12431
3431.23790,0.12594
3429.30916,0.12780
3427.38041,0.12906
3425.45167,0.12985
3423.52292,0.13087
3421.59418,0.13191
3419.66543,0.13251
3417.73668,0.13278
3415.80794,0.13289
3413.87919,0.13308
3411.95045,0.13344
3410.02170,0.13379
3408.09296,0.13403
3406.16421,0.13436
3404.23547,0.13493
3402.30672,0.13545
3400.37798,0.13561
3398.44923,0.13554
3396.52049,0.13564
3394.59174,0.13614
3392.66300,0.13672
3390.73425,0.13684
3388.80550,0.13657
3386.87676,0.13640
3384.94801,0.13651
3383.01927,0.13684
3381.09052,0.13726
3379.16178,0.13761
3377.23303,0.13802
3375.30429,0.13875
3373.37554,0.13953
3371.44680,0.14000
3369.51805,0.14042
3367.58931,0.14101
3365.66056,0.14139
3363.73182,0.14139
3361.80307,0.14144
3359.87433,0.14158
3357.94558,0.14137
3356.01683,0.14096
3354.08809,0.14078
3352.15934,0.14070
3350.23060,0.14043
3348.30185,0.13984
3346.37311,0.13910
3344.44436,0.13849
3342.51562,0.13806
3340.58687,0.13769
3338.65813,0.13722
3336.72938,0.13660
3334.80064,0.13600
3332.87189,0.13553
3330.94315,0.13500
3329.01440,0.13435
3327.08566,0.13381
3325.15691,0.13357
3323.22816,0.13358
3321.29942,0.13347
3319.37067,0.13288
3317.44193,0.13213
3315.51318,0.13152
3313.58444,0.13081
3311.65569,0.12955
3309.72695,0.12771
3307.79820,0.12565
3305.86946,0.12373
3303.94071,0.12212
3302.01197,0.12082
3300.08322,0.11999
3298.15448,0.12008
3296.22573,0.12113
3294.29698,0.12248
3292.36824,0.12351
3290.43949,0.12405
3288.51075,0.12431
3286.58200,0.12437
3284.65326,0.12423
3282.72451,0.12406
3280.79577,0.12405
3278.86702,0.12402
3276.93828,0.12385
3275.00953,0.12372
3273.08079,0.12368
3271.15204,0.12353
3269.22330,0.12319
3267.29455,0.12285
3265.36581,0.12267
3263.43706,0.12246
3261.50831,0.12195
3259.57957,0.12143
3257.65082,0.12112
3255.72208,0.12069
3253.79333,0.12017
3251.86459,0.11994
3249.93584,0.11995
3248.00710,0.11974
3246.07835,0.11928
3244.14961,0.11901
3242.22086,0.11899
3240.29212,0.11897
3238.36337,0.11869
3236.43463,0.11795
3234.50588,0.11709
3232.57713,0.11645
3230.64839,0.11579
3228.71964,0.11490
3226.79090,0.11400
3224.86215,0.11334
3222.93341,0.11273
3221.00466,0.11181
3219.07592,0.11061
3217.14717,0.10931
3215.21843,0.10811
3213.28968,0.10705
3211.36094,0.10586
3209.43219,0.10451
3207.50345,0.10342
3205.57470,0.10256
3203.64596,0.10140
3201.71721,0.09997
3199.78846,0.09889
3197.85972,0.09833
3195.93097,0.09802
3194.00223,0.09778
3192.07348,0.09758
3190.14474,0.09742
3188.21599,0.09722
3186.28725,0.09688
3184.35850,0.09645
3182.42976,0.09592
3180.50101,0.09519
3178.57227,0.09436
3176.64352,0.09360
3174.71478,0.09272
3172.78603,0.09139
3170.85729,0.08949
3168.92854,0.08709
3166.99979,0.08451
3165.07105,0.08227
3163.14230,0.08097
3161.21356,0.08090
3159.28481,0.08164
3157.35607,0.08262
3155.42732,0.08356
3153.49858,0.08430
3151.56983,0.08461
3149.64109,0.08454
3147.71234,0.08440
3145.78360,0.08429
3143.85485,0.08399
3141.92611,0.08358
3139.99736,0.08328
3138.06861,0.08290
3136.13987,0.08230
3134.21112,0.08174
3132.28238,0.08112
3130.35363,0.08015
3128.42489,0.07908
3126.49614,0.07804
3124.56740,0.07676
3122.63865,0.07523
3120.70991,0.07382
3118.78116,0.07265
3116.85242,0.07159
3114.92367,0.07049
3112.99493,0.06928
3111.06618,0.06823
3109.13744,0.06734
3107.20869,0.06643
3105.27994,0.06573
3103.35120,0.06549
3101.42245,0.06554
3099.49371,0.06566
3097.56496,0.06551
3095.63622,0.06505
3093.70747,0.06474
3091.77873,0.06468
3089.84998,0.06455
3087.92124,0.06425
3085.99249,0.06390
3084.06375,0.06370
3082.13500,0.06385
3080.20626,0.06409
3078.27751,0.06412
3076.34877,0.06406
3074.42002,0.06414
3072.49127,0.06418
3070.56253,0.06400
3068.63378,0.06382
3066.70504,0.06362
3064.77629,0.06325
3062.84755,0.06301
3060.91880,0.06330
3058.99006,0.06403
3057.06131,0.06463
3055.13257,0.06484
3053.20382,0.06483
3051.27508,0.06487
3049.34633,0.06489
3047.41759,0.06472
3045.48884,0.06455
3043.56009,0.06443
3041.63135,0.06403
3039.70260,0.06349
3037.77386,0.06322
3035.84511,0.06302
3033.91637,0.06261
3031.98762,0.06225
3030.05888,0.06238
3028.13013,0.06312
3026.20139,0.06432
3024.27264,0.06567
3022.34390,0.06672
3020.41515,0.06722
3018.48641,0.06733
3016.55766,0.06722
3014.62892,0.06693
3012.70017,0.06657
3010.77142,0.06618
3008.84268,0.06583
3006.91393,0.06569
3004.98519,0.06576
3003.05644,0.06589
3001.12770,0.06606
2999.19895,0.06619
2997.27021,0.06624
2995.34146,0.06628
2993.41272,0.06625
2991.48397,0.06622
2989.55523,0.06630
2987.62648,0.06650
2985.69774,0.06668
2983.76899,0.06655
2981.84025,0.06609
2979.91150,0.06569
2977.98275,0.06556
2976.05401,0.06547
2974.12526,0.06525
2972.19652,0.06506
2970.26777,0.06506
2968.33903,0.06520
2966.41028,0.06523
2964.48154,0.06501
2962.55279,0.06469
2960.62405,0.06443
2958.69530,0.06434
2956.76656,0.06442
2954.83781,0.06429
2952.90907,0.06382
2950.98032,0.06352
2949.05157,0.06344
2947.12283,0.06318
2945.19408,0.06301
2943.26534,0.06316
2941.33659,0.06318
2939.40785,0.06298
2937.47910,0.06302
2935.55036,0.06357
2933.62161,0.06431
2931.69287,0.06480
2929.76412,0.06511
2927.83538,0.06556
2925.90663,0.06622
2923.97789,0.06702
2922.04914,0.06783
2920.12040,0.06848
2918.19165,0.06894
2916.26290,0.06926
2914.33416,0.06933
2912.40541,0.06920
2910.47667,0.06897
2908.54792,0.06882
2906.61918,0.06895
2904.69043,0.06911
2902.76169,0.06897
2900.83294,0.06873
2898.90420,0.06859
2896.97545,0.06847
2895.04671,0.06836
2893.11796,0.06837
2891.18922,0.06844
2889.26047,0.06834
2887.33172,0.06812
2885.40298,0.06797
2883.47423,0.06795
2881.54549,0.06787
2879.61674,0.06756
2877.68800,0.06724
2875.75925,0.06725
2873.83051,0.06754
2871.90176,0.06777
2869.97302,0.06772
2868.04427,0.06751
2866.11553,0.06746
2864.18678,0.06760
2862.25804,0.06767
2860.32929,0.06758
2858.40055,0.06759
2856.47180,0.06789
2854.54305,0.06836
2852.61431,0.06873
2850.68556,0.06880
2848.75682,0.06865
2846.82807,0.06854
2844.89933,0.06844
2842.97058,0.06833
2841.04184,0.06838
2839.11309,0.06860
2837.18435,0.06875
2835.25560,0.06877
2833.32686,0.06861
2831.39811,0.06834
2829.46937,0.06823
2827.54062,0.06855
2825.61188,0.06912
2823.68313,0.06948
2821.75438,0.06961
2819.82564,0.06979
2817.89689,0.07002
2815.96815,0.07009
2814.03940,0.07011
2812.11066,0.07020
2810.18191,0.07021
2808.25317,0.07018
2806.32442,0.07036
2804.39568,0.07065
2802.46693,0.07084
2800.53819,0.07092
2798.60944,0.07094
2796.68070,0.07117
2794.75195,0.07173
2792.82320,0.07229
2790.89446,0.07262
2788.96571,0.07265
2787.03697,0.07248
2785.10822,0.07243
2783.17948,0.07257
2781.25073,0.07253
2779.32199,0.07229
2777.39324,0.07230
2775.46450,0.07268
2773.53575,0.07327
2771.60701,0.07393
2769.67826,0.07443
2767.74952,0.07471
2765.82077,0.07493
2763.89203,0.07511
2761.96328,0.07524
2760.03453,0.07537
2758.10579,0.07549
2756.17704,0.07560
2754.24830,0.07573
2752.31955,0.07588
2750.39081,0.07597
2748.46206,0.07607
2746.53332,0.07633
2744.60457,0.07650
2742.67583,0.07633
2740.74708,0.07598
2738.81834,0.07562
2736.88959,0.07539
2734.96085,0.07522
2733.03210,0.07504
2731.10336,0.07502
2729.17461,0.07513
2727.24586,0.07514
2725.31712,0.07503
2723.38837,0.07478
2721.45963,0.07441
2719.53088,0.07419
2717.60214,0.07413
2715.67339,0.07414
2713.74465,0.07428
2711.81590,0.07448
2709.88716,0.07465
2707.95841,0.07472
2706.02967,0.07464
2704.10092,0.07455
2702.17218,0.07458
2700.24343,0.07466
2698.31468,0.07473
2696.38594,0.07477
2694.45719,0.07467
2692.52845,0.07445
2690.59970,0.07430
2688.67096,0.07433
2686.74221,0.07436
2684.81347,0.07422
2682.88472,0.07397
2680.95598,0.07381
2679.02723,0.07382
2677.09849,0.07395
2675.16974,0.07411
2673.24100,0.07413
2671.31225,0.07410
2669.38351,0.07417
2667.45476,0.07424
2665.52601,0.07423
2663.59727,0.07420
2661.66852,0.07416
2659.73978,0.07410
2657.81103,0.07403
2655.88229,0.07397
2653.95354,0.07403
2652.02480,0.07409
2650.09605,0.07401
2648.16731,0.07394
2646.23856,0.07410
2644.30982,0.07434
2642.38107,0.07427
2640.45233,0.07387
2638.52358,0.07353
2636.59484,0.07323
2634.66609,0.07278
2632.73734,0.07241
2630.80860,0.07243
2628.87985,0.07275
2626.95111,0.07329
2625.02236,0.07401
2623.09362,0.07453
2621.16487,0.07454
2619.23613,0.07436
2617.30738,0.07437
2615.37864,0.07438
2613.44989,0.07415
2611.52115,0.07393
2609.59240,0.07388
2607.66366,0.07377
2605.73491,0.07352
2603.80616,0.07322
2601.87742,0.07297
2599.94867,0.07302
2598.01993,0.07348
2596.09118,0.07402
2594.16244,0.07443
2592.23369,0.07487
2590.30495,0.07528
2588.37620,0.07532
2586.44746,0.07499
2584.51871,0.07456
2582.58997,0.07413
2580.66122,0.07390
2578.73248,0.07414
2576.80373,0.07479
2574.87499,0.07541
2572.94624,0.07580
2571.01749,0.07605
2569.08875,0.07608
2567.16000,0.07583
2565.23126,0.07561
2563.30251,0.07571
2561.37377,0.07583
2559.44502,0.07573
2557.51628,0.07569
2555.58753,0.07583
2553.65879,0.07582
2551.73004,0.07552
2549.80130,0.07517
2547.87255,0.07499
2545.94381,0.07510
2544.01506,0.07545
2542.08631,0.07583
2540.15757,0.07603
2538.22882,0.07619
2536.30008,0.07638
2534.37133,0.07637
2532.44259,0.07615
2530.51384,0.07607
2528.58510,0.07616
2526.65635,0.07603
2524.72761,0.07564
2522.79886,0.07538
2520.87012,0.07536
2518.94137,0.07528
2517.01263,0.07511
2515.08388,0.07499
2513.15514,0.07504
2511.22639,0.07520
2509.29764,0.07520
2507.36890,0.07501
2505.44015,0.07492
2503.51141,0.07509
2501.58266,0.07534
2499.65392,0.07554
2497.72517,0.07577
2495.79643,0.07599
2493.86768,0.07619
2491.93894,0.07637
2490.01019,0.07646
2488.08145,0.07650
2486.15270,0.07657
2484.22396,0.07670
2482.29521,0.07695
2480.36647,0.07729
2478.43772,0.07771
2476.50897,0.07814
2474.58023,0.07848
2472.65148,0.07890
2470.72274,0.07938
2468.79399,0.07968
2466.86525,0.07980
2464.93650,0.07999
2463.00776,0.08034
2461.07901,0.08073
2459.15027,0.08104
2457.22152,0.08108
2455.29278,0.08073
2453.36403,0.08024
2451.43529,0.07998
2449.50654,0.08008
2447.57779,0.08043
2445.64905,0.08079
2443.72030,0.08099
2441.79156,0.08099
2439.86281,0.08083
2437.93407,0.08082
2436.00532,0.08101
2434.07658,0.08124
2432.14783,0.08158
2430.21909,0.08195
2428.29034,0.08215
2426.36160,0.08223
2424.43285,0.08231
2422.50411,0.08240
2420.57536,0.08236
2418.64662,0.08212
2416.71787,0.08186
2414.78912,0.08177
2412.86038,0.08171
2410.93163,0.08142
2409.00289,0.08105
2407.07414,0.08090
2405.14540,0.08086
2403.21665,0.08061
2401.28791,0.08015
2399.35916,0.07969
2397.43042,0.07944
2395.50167,0.07938
2393.57293,0.07938
2391.64418,0.07937
2389.71544,0.07930
2387.78669,0.07909
2385.85795,0.07878
2383.92920,0.07856
2382.00045,0.07864
2380.07171,0.07885
2378.14296,0.07886
2376.21422,0.07876
2374.28547,0.07876
2372.35673,0.07869
2370.42798,0.07832
2368.49924,0.07775
2366.57049,0.07731
2364.64175,0.07699
2362.71300,0.07657
2360.78426,0.07613
2358.85551,0.07583
2356.92677,0.07567
2354.99802,0.07560
2353.06927,0.07560
2351.14053,0.07550
2349.21178,0.07522
2347.28304,0.07475
2345.35429,0.07404
2343.42555,0.07311
2341.49680,0.07223
2339.56806,0.07157
2337.63931,0.07107
2335.71057,0.07090
2333.78182,0.07138
2331.85308,0.07245
2329.92433,0.07371
2327.99559,0.07484
2326.06684,0.07583
2324.13810,0.07669
2322.20935,0.07699
2320.28060,0.07651
2318.35186,0.07564
2316.42311,0.07468
2314.49437,0.07374
2312.56562,0.07308
2310.63688,0.07302
2308.70813,0.07356
2306.77939,0.07449
2304.85064,0.07550
2302.92190,0.07637
2300.99315,0.07705
2299.06441,0.07754
2297.13566,0.07774
2295.20692,0.07763
2293.27817,0.07746
2291.34943,0.07746
2289.42068,0.07772
2287.49193,0.07818
2285.56319,0.07878
2283.63444,0.07937
2281.70570,0.07972
2279.77695,0.07981
2277.84821,0.07984
2275.91946,0.07979
2273.99072,0.07959
2272.06197,0.07940
2270.13323,0.07923
2268.20448,0.07892
2266.27574,0.07841
2264.34699,0.07788
2262.41825,0.07746
2260.48950,0.07710
2258.56075,0.07678
2256.63201,0.07658
2254.70326,0.07655
2252.77452,0.07678
2250.84577,0.07728
2248.91703,0.07774
2246.98828,0.07808
2245.05954,0.07842
2243.13079,0.07878
2241.20205,0.07915
2239.27330,0.07949
2237.34456,0.07991
2235.41581,0.08037
2233.48707,0.08059
2231.55832,0.08059
2229.62958,0.08059
2227.70083,0.08063
2225.77208,0.08077
2223.84334,0.08101
2221.91459,0.08113
2219.98585,0.08105
2218.05710,0.08100
2216.12836,0.08109
2214.19961,0.08115
2212.27087,0.08114
2210.34212,0.08119
2208.41338,0.08137
2206.48463,0.08160
2204.55589,0.08185
2202.62714,0.08217
2200.69840,0.08245
2198.76965,0.08258
2196.84090,0.08251
2194.91216,0.08219
2192.98341,0.08183
2191.05467,0.08151
2189.12592,0.08107
2187.19718,0.08061
2185.26843,0.08035
2183.33969,0.08046
2181.41094,0.08087
2179.48220,0.08145
2177.55345,0.08217
2175.62471,0.08288
2173.69596,0.08339
2171.76722,0.08365
2169.83847,0.08372
2167.90973,0.08373
2165.98098,0.08380
2164.05223,0.08400
2162.12349,0.08415
2160.19474,0.08411
2158.26600,0.08409
2156.33725,0.08421
2154.40851,0.08420
2152.47976,0.08409
2150.55102,0.08415
2148.62227,0.08420
2146.69353,0.08408
2144.76478,0.08414
2142.83604,0.08461
2140.90729,0.08529
2138.97855,0.08575
2137.04980,0.08578
2135.12106,0.08571
2133.19231,0.08585
2131.26356,0.08606
2129.33482,0.08616
2127.40607,0.08615
2125.47733,0.08610
2123.54858,0.08613
2121.61984,0.08622
2119.69109,0.08627
2117.76235,0.08625
2115.83360,0.08626
2113.90486,0.08641
2111.97611,0.08658
2110.04737,0.08668
2108.11862,0.08683
2106.18988,0.08712
2104.26113,0.08746
2102.33238,0.08773
2100.40364,0.08791
2098.47489,0.08807
2096.54615,0.08821
2094.61740,0.08829
2092.68866,0.08833
2090.75991,0.08841
2088.83117,0.08849
2086.90242,0.08846
2084.97368,0.08838
2083.04493,0.08828
2081.11619,0.08804
2079.18744,0.08771
2077.25870,0.08737
2075.32995,0.08693
2073.40121,0.08639
2071.47246,0.08603
2069.54371,0.08595
2067.61497,0.08586
2065.68622,0.08567
2063.75748,0.08552
2061.82873,0.08548
2059.89999,0.08551
2057.97124,0.08551
2056.04250,0.08544
2054.11375,0.08526
2052.18501,0.08503
2050.25626,0.08491
2048.32752,0.08488
2046.39877,0.08487
2044.47003,0.08481
2042.54128,0.08459
2040.61254,0.08410
2038.68379,0.08349
2036.75504,0.08291
2034.82630,0.08242
2032.89755,0.08207
2030.96881,0.08186
2029.04006,0.08177
2027.11132,0.08171
2025.18257,0.08153
2023.25383,0.08138
2021.32508,0.08130
2019.39634,0.08106
2017.46759,0.08064
2015.53885,0.08011
2013.61010,0.07950
2011.68136,0.07893
2009.75261,0.07847
2007.82386,0.07806
2005.89512,0.07765
2003.96637,0.07733
2002.03763,0.07705
2000.10888,0.07666
1998.18014,0.07602
1996.25139,0.07519
1994.32265,0.07430
1992.39390,0.07336
1990.46516,0.07235
1988.53641,0.07139
1986.60767,0.07064
1984.67892,0.07021
1982.75018,0.07010
1980.82143,0.07012
1978.89269,0.06997
1976.96394,0.06953
1975.03519,0.06894
1973.10645,0.06836
1971.17770,0.06778
1969.24896,0.06719
1967.32021,0.06676
1965.39147,0.06647
1963.46272,0.06621
1961.53398,0.06605
1959.60523,0.06601
1957.67649,0.06593
1955.74774,0.06578
1953.81900,0.06565
1951.89025,0.06553
1949.96151,0.06538
1948.03276,0.06530
1946.10402,0.06539
1944.17527,0.06552
1942.24652,0.06550
1940.31778,0.06551
1938.38903,0.06575
1936.46029,0.06605
1934.53154,0.06616
1932.60280,0.06631
1930.67405,0.06676
1928.74531,0.06725
1926.81656,0.06748
1924.88782,0.06756
1922.95907,0.06771
1921.03033,0.06805
1919.10158,0.06860
1917.17284,0.06918
1915.24409,0.06960
1913.31534,0.06977
1911.38660,0.06979
1909.45785,0.06974
1907.52911,0.06949
1905.60036,0.06904
1903.67162,0.06865
1901.74287,0.06835
1899.81413,0.06793
1897.88538,0.06740
1895.95664,0.06695
1894.02789,0.06658
1892.09915,0.06622
1890.17040,0.06590
1888.24166,0.06571
1886.31291,0.06561
1884.38417,0.06553
1882.45542,0.06550
1880.52667,0.06549
1878.59793,0.06544
1876.66918,0.06536
1874.74044,0.06532
1872.81169,0.06532
1870.88295,0.06543
1868.95420,0.06557
1867.02546,0.06553
1865.09671,0.06559
1863.16797,0.06598
1861.23922,0.06639
1859.31048,0.06655
1857.38173,0.06671
1855.45299,0.06711
1853.52424,0.06754
1851.59549,0.06795
1849.66675,0.06842
1847.73800,0.06893
1845.80926,0.06936
1843.88051,0.06956
1841.95177,0.06946
1840.02302,0.06916
1838.09428,0.06878
1836.16553,0.06842
1834.23679,0.06805
1832.30804,0.06768
1830.37930,0.06738
1828.45055,0.06713
1826.52181,0.06678
1824.59306,0.06625
1822.66432,0.06576
1820.73557,0.06551
1818.80682,0.06548
1816.87808,0.06551
1814.94933,0.06540
1813.02059,0.06520
1811.09184,0.06507
1809.16310,0.06506
1807.23435,0.06510
1805.30561,0.06509
1803.37686,0.06505
1801.44812,0.06508
1799.51937,0.06507
1797.59063,0.06507
1795.66188,0.06531
1793.73314,0.06574
1791.80439,0.06608
1789.87565,0.06624
1787.94690,0.06642
1786.01815,0.06663
1784.08941,0.06674
1782.16066,0.06678
1780.23192,0.06666
1778.30317,0.06630
1776.37443,0.06601
1774.44568,0.06598
1772.51694,0.06610
1770.58819,0.06633
1768.65945,0.06654
1766.73070,0.06656
1764.80196,0.06636
1762.87321,0.06596
1760.94447,0.06549
1759.01572,0.06522
1757.08697,0.06510
1755.15823,0.06496
1753.22948,0.06488
1751.30074,0.06491
1749.37199,0.06489
1747.44325,0.06475
1745.51450,0.06462
1743.58576,0.06462
1741.65701,0.06472
1739.72827,0.06486
1737.79952,0.06503
1735.87078,0.06515
1733.94203,0.06528
1732.01329,0.06537
1730.08454,0.06539
1728.15580,0.06552
1726.22705,0.06586
1724.29830,0.06611
1722.36956,0.06615
1720.44081,0.06629
1718.51207,0.06660
1716.58332,0.06677
1714.65458,0.06662
1712.72583,0.06633
1710.79709,0.06617
1708.86834,0.06613
1706.93960,0.06599
1705.01085,0.06577
1703.08211,0.06566
1701.15336,0.06563
1699.22462,0.06557
1697.29587,0.06554
1695.36713,0.06550
1693.43838,0.06545
1691.50963,0.06543
1689.58089,0.06539
1687.65214,0.06532
1685.72340,0.06515
1683.79465,0.06476
1681.86591,0.06440
1679.93716,0.06425
1678.00842,0.06424
1676.07967,0.06425
1674.15093,0.06426
1672.22218,0.06426
1670.29344,0.06419
1668.36469,0.06408
1666.43595,0.06414
1664.50720,0.06436
1662.57845,0.06454
1660.64971,0.06461
1658.72096,0.06479
1656.79222,0.06522
1654.86347,0.06570
1652.93473,0.06581
1651.00598,0.06562
1649.07724,0.06551
1647.14849,0.06548
1645.21975,0.06546
1643.29100,0.06541
1641.36226,0.06525
1639.43351,0.06505
1637.50477,0.06492
1635.57602,0.06495
1633.64728,0.06512
1631.71853,0.06534
1629.78978,0.06542
1627.86104,0.06532
1625.93229,0.06528
1624.00355,0.06533
1622.07480,0.06524
1620.14606,0.06499
1618.21731,0.06457
1616.28857,0.06400
1614.35982,0.06357
1612.43108,0.06335
1610.50233,0.06301
1608.57359,0.06244
1606.64484,0.06206
1604.71610,0.06229
1602.78735,0.06306
1600.85861,0.06408
1598.92986,0.06498
1597.00111,0.06549
1595.07237,0.06570
1593.14362,0.06576
1591.21488,0.06558
1589.28613,0.06526
1587.35739,0.06494
1585.42864,0.06479
1583.49990,0.06494
1581.57115,0.06520
1579.64241,0.06533
1577.71366,0.06535
1575.78492,0.06532
1573.85617,0.06529
1571.92743,0.06531
1569.99868,0.06533
1568.06993,0.06526
1566.14119,0.06514
1564.21244,0.06512
1562.28370,0.06525
1560.35495,0.06538
1558.42621,0.06524
1556.49746,0.06485
1554.56872,0.06437
1552.63997,0.06403
1550.71123,0.06398
1548.78248,0.06410
1546.85374,0.06416
1544.92499,0.06414
1542.99625,0.06419
1541.06750,0.06433
1539.13876,0.06430
1537.21001,0.06416
1535.28126,0.06402
1533.35252,0.06379
1531.42377,0.06364
1529.49503,0.06385
1527.56628,0.06415
1525.63754,0.06421
1523.70879,0.06411
1521.78005,0.06395
1519.85130,0.06373
1517.92256,0.06340
1515.99381,0.06288
1514.06507,0.06245
1512.13632,0.06231
1510.20758,0.06218
1508.27883,0.06192
1506.35008,0.06149
1504.42134,0.06080
1502.49259,0.06005
1500.56385,0.05929
1498.63510,0.05848
1496.70636,0.05829
1494.77761,0.06003
1492.84887,0.06354
1490.92012,0.06699
1488.99138,0.06858
1487.06263,0.06833
1485.13389,0.06746
1483.20514,0.06656
1481.27640,0.06584
1479.34765,0.06546
1477.41891,0.06525
1475.49016,0.06482
1473.56141,0.06419
1471.63267,0.06367
1469.70392,0.06343
1467.77518,0.06331
1465.84643,0.06302
1463.91769,0.06239
1461.98894,0.06153
1460.06020,0.06060
1458.13145,0.05947
1456.20271,0.05887
1454.27396,0.06047
1452.34522,0.06376
1450.41647,0.06668
1448.48773,0.06806
1446.55898,0.06840
1444.63024,0.06851
1442.70149,0.06846
1440.77274,0.06828
1438.84400,0.06827
1436.91525,0.06835
1434.98651,0.06806
1433.05776,0.06760
1431.12902,0.06718
1429.20027,0.06678
1427.27153,0.06644
1425.34278,0.06619
1423.41404,0.06609
1421.48529,0.06617
1419.55655,0.06615
1417.62780,0.06587
1415.69906,0.06559
1413.77031,0.06547
1411.84156,0.06548
1409.91282,0.06554
1407.98407,0.06548
1406.05533,0.06519
1404.12658,0.06478
1402.19784,0.06456
1400.26909,0.06455
1398.34035,0.06451
1396.41160,0.06438
1394.48286,0.06423
1392.55411,0.06407
1390.62537,0.06396
1388.69662,0.06392
1386.76788,0.06388
1384.83913,0.06393
1382.91039,0.06408
1380.98164,0.06420
1379.05289,0.06422
1377.12415,0.06424
1375.19540,0.06440
1373.26666,0.06454
1371.33791,0.06448
1369.40917,0.06434
1367.48042,0.06427
1365.55168,0.06427
1363.62293,0.06428
1361.69419,0.06430
1359.76544,0.06445
1357.83670,0.06464
1355.90795,0.06467
1353.97921,0.06459
1352.05046,0.06449
1350.12172,0.06440
1348.19297,0.06445
1346.26422,0.06463
1344.33548,0.06470
1342.40673,0.06455
1340.47799,0.06433
1338.54924,0.06415
1336.62050,0.06401
1334.69175,0.06398
1332.76301,0.06401
1330.83426,0.06402
1328.90552,0.06407
1326.97677,0.06426
1325.04803,0.06435
1323.11928,0.06421
1321.19054,0.06413
1319.26179,0.06426
1317.33304,0.06440
1315.40430,0.06436
1313.47555,0.06427
1311.54681,0.06419
1309.61806,0.06415
1307.68932,0.06422
1305.76057,0.06441
1303.83183,0.06470
1301.90308,0.06492
1299.97434,0.06491
1298.04559,0.06482
1296.11685,0.06479
1294.18810,0.06471
1292.25936,0.06460
1290.33061,0.06461
1288.40187,0.06466
1286.47312,0.06464
1284.54437,0.06459
1282.61563,0.06457
1280.68688,0.06458
1278.75814,0.06462
1276.82939,0.06464
1274.90065,0.06455
1272.97190,0.06446
1271.04316,0.06444
1269.11441,0.06450
1267.18567,0.06461
1265.25692,0.06470
1263.32818,0.06475
1261.39943,0.06473
1259.47069,0.06467
1257.54194,0.06462
1255.61320,0.06460
1253.68445,0.06460
1251.75570,0.06460
1249.82696,0.06461
1247.89821,0.06469
1245.96947,0.06479
1244.04072,0.06480
1242.11198,0.06474
1240.18323,0.06470
1238.25449,0.06467
1236.32574,0.06458
1234.39700,0.06450
1232.46825,0.06449
1230.53951,0.06446
1228.61076,0.06440
1226.68202,0.06434
1224.75327,0.06423
1222.82452,0.06406
1220.89578,0.06393
1218.96703,0.06387
1217.03829,0.06389
1215.10954,0.06400
1213.18080,0.06399
1211.25205,0.06377
1209.32331,0.06359
1207.39456,0.06377
1205.46582,0.06418
1203.53707,0.06431
1201.60833,0.06406
1199.67958,0.06377
1197.75084,0.06366
1195.82209,0.06361
1193.89335,0.06345
1191.96460,0.06337
1190.03585,0.06352
1188.10711,0.06367
1186.17836,0.06370
1184.24962,0.06375
1182.32087,0.06391
1180.39213,0.06403
1178.46338,0.06404
1176.53464,0.06409
1174.60589,0.06419
1172.67715,0.06409
1170.74840,0.06384
1168.81966,0.06377
1166.89091,0.06395
1164.96217,0.06416
1163.03342,0.06416
1161.10467,0.06393
1159.17593,0.06363
1157.24718,0.06353
1155.31844,0.06382
1153.38969,0.06436
1151.46095,0.06486
1149.53220,0.06520
1147.60346,0.06527
1145.67471,0.06516
1143.74597,0.06510
1141.81722,0.06513
1139.88848,0.06526
1137.95973,0.06534
1136.03099,0.06519
1134.10224,0.06493
1132.17350,0.06488
1130.24475,0.06504
1128.31600,0.06497
1126.38726,0.06468
1124.45851,0.06451
1122.52977,0.06445
1120.60102,0.06438
1118.67228,0.06429
1116.74353,0.06409
1114.81479,0.06373
1112.88604,0.06342
1110.95730,0.06349
1109.02855,0.06377
1107.09981,0.06394
1105.17106,0.06390
1103.24232,0.06363
1101.31357,0.06331
1099.38483,0.06310
1097.45608,0.06304
1095.52733,0.06307
1093.59859,0.06289
1091.66984,0.06258
1089.74110,0.06257
1087.81235,0.06261
1085.88361,0.06231
1083.95486,0.06190
1082.02612,0.06183
1080.09737,0.06216
1078.16863,0.06243
1076.23988,0.06222
1074.31114,0.06176
1072.38239,0.06154
1070.45365,0.06171
1068.52490,0.06222
1066.59615,0.06274
1064.66741,0.06297
1062.73866,0.06296
1060.80992,0.06292
1058.88117,0.06296
1056.95243,0.06314
1055.02368,0.06345
1053.09494,0.06372
1051.16619,0.06373
1049.23745,0.06342
1047.30870,0.06316
1045.37996,0.06305
1043.45121,0.06292
1041.52247,0.06275
1039.59372,0.06248
1037.66498,0.06198
1035.73623,0.06133
1033.80748,0.06098
1031.87874,0.06134
1029.94999,0.06231
1028.02125,0.06339
1026.09250,0.06424
1024.16376,0.06493
1022.23501,0.06547
1020.30627,0.06576
1018.37752,0.06582
1016.44878,0.06567
1014.52003,0.06534
1012.59129,0.06488
1010.66254,0.06458
1008.73380,0.06465
1006.80505,0.06470
1004.87631,0.06436
1002.94756,0.06398
1001.01881,0.06380
999.09007,0.06376
997.16132,0.06381
995.23258,0.06376
993.30383,0.06369
991.37509,0.06375
989.44634,0.06370
987.51760,0.06346
985.58885,0.06318
983.66011,0.06309
981.73136,0.06321
979.80262,0.06336
977.87387,0.06343
975.94513,0.06346
974.01638,0.06348
972.08763,0.06338
970.15889,0.06316
968.23014,0.06291
966.30140,0.06262
964.37265,0.06247
962.44391,0.06273
960.51516,0.06320
958.58642,0.06351
956.65767,0.06358
954.72893,0.06339
952.80018,0.06305
950.87144,0.06286
948.94269,0.06286
947.01395,0.06285
945.08520,0.06290
943.15646,0.06302
941.22771,0.06302
939.29896,0.06304
937.37022,0.06321
935.44147,0.06325
933.51273,0.06294
931.58398,0.06258
929.65524,0.06235
927.72649,0.06221
925.79775,0.06231
923.86900,0.06248
921.94026,0.06237
920.01151,0.06208
918.08277,0.06179
916.15402,0.06160
914.22528,0.06158
912.29653,0.06157
910.36779,0.06159
908.43904,0.06176
906.51029,0.06200
904.58155,0.06227
902.65280,0.06262
900.72406,0.06285
898.79531,0.06286
896.86657,0.06290
894.93782,0.06298
893.00908,0.06277
891.08033,0.06252
889.15159,0.06258
887.22284,0.06287
885.29410,0.06313
883.36535,0.06292
881.43661,0.06219
879.50786,0.06166
877.57911,0.06156
875.65037,0.06150
873.72162,0.06145
871.79288,0.06152
869.86413,0.06158
867.93539,0.06152
866.00664,0.06142
864.07790,0.06130
862.14915,0.06121
860.22041,0.06132
858.29166,0.06153
856.36292,0.06153
854.43417,0.06141
852.50543,0.06128
850.57668,0.06107
848.64794,0.06091
846.71919,0.06084
844.79044,0.06078
842.86170,0.06062
840.93295,0.06047
839.00421,0.06059
837.07546,0.06069
835.14672,0.06048
833.21797,0.06031
831.28923,0.06028
829.36048,0.06009
827.43174,0.05987
825.50299,0.06000
823.57425,0.06003
821.64550,0.05954
819.71676,0.05907
817.78801,0.05895
815.85926,0.05898
813.93052,0.05911
812.00177,0.05923
810.07303,0.05912
808.14428,0.05884
806.21554,0.05848
804.28679,0.05823
802.35805,0.05822
800.42930,0.05814
798.50056,0.05780
796.57181,0.05737
794.64307,0.05692
792.71432,0.05625
790.78558,0.05540
788.85683,0.05487
786.92809,0.05479
784.99934,0.05461
783.07059,0.05408
781.14185,0.05364
779.21310,0.05331
777.28436,0.05271
775.35561,0.05200
773.42687,0.05151
771.49812,0.05143
769.56938,0.05183
767.64063,0.05247
765.71189,0.05312
763.78314,0.05377
761.85440,0.05476
759.92565,0.05634
757.99691,0.05816
756.06816,0.05984
754.13942,0.06107
752.21067,0.06203
750.28192,0.06328
748.35318,0.06477
746.42443,0.06610
744.49569,0.06678
742.56694,0.06651
740.63820,0.06563
738.70945,0.06472
736.78071,0.06403
734.85196,0.06327
732.92322,0.06183
730.99447,0.05994
729.06573,0.05871
727.13698,0.05824
725.20824,0.05760
723.27949,0.05638
721.35074,0.05495
719.42200,0.05355
717.49325,0.05179
715.56451,0.04927
713.63576,0.04632
711.70702,0.04337
709.77827,0.04047
707.84953,0.03830
705.92078,0.03942
703.99204,0.04742
702.06329,0.06439
700.13455,0.08840
698.20580,0.11175
696.27706,0.12410
694.34831,0.12165
692.41957,0.11052
690.49082,0.09892
688.56207,0.09029
686.63333,0.08462
684.70458,0.08117
682.77584,0.07923
680.84709,0.07795
678.91835,0.07675
676.98960,0.07582
675.06086,0.07531
673.13211,0.07486
671.20337,0.07429
669.27462,0.07352
667.34588,0.07272
665.41713,0.07226
663.48839,0.07178
661.55964,0.07078
659.63090,0.06998
657.70215,0.07011
655.77340,0.07054
653.84466,0.07056
651.91591,0.07049
649.98717,0.07036
648.05842,0.06981
646.12968,0.06914
644.20093,0.06888
642.27219,0.06915
640.34344,0.06953
638.41470,0.06916
636.48595,0.06811
634.55721,0.06732
632.62846,0.06714
630.69972,0.06726
628.77097,0.06747
626.84222,0.06751
624.91348,0.06689
622.98473,0.06587
621.05599,0.06537
619.12724,0.06587
617.19850,0.06710
615.26975,0.06797
613.34101,0.06767
611.41226,0.06696
609.48352,0.06699
607.55477,0.06759
605.62603,0.06820
603.69728,0.06824
601.76854,0.06709
599.83979,0.06530
