7497.03301,0.82170
7495.10426,0.81920
7493.17552,0.81822
7491.24677,0.82546
7489.31803,0.83609
7487.38928,0.83577
7485.46054,0.82492
7483.53179,0.81603
7481.60305,0.81284
7479.67430,0.81413
7477.74556,0.81850
7475.81681,0.82232
7473.88807,0.82554
7471.95932,0.82839
7470.03057,0.82876
7468.10183,0.82641
7466.17308,0.82220
7464.24434,0.81759
7462.31559,0.81373
7460.38685,0.81195
7458.45810,0.81356
7456.52936,0.81671
7454.60061,0.81737
7452.67187,0.81357
7450.74312,0.80980
7448.81438,0.80994
7446.88563,0.80989
7444.95689,0.80681
7443.02814,0.80338
7441.09940,0.80213
7439.17065,0.80129
7437.24190,0.79528
7435.31316,0.78760
7433.38441,0.78753
7431.45567,0.79269
7429.52692,0.79864
7427.59818,0.80589
7425.66943,0.80925
7423.74069,0.80564
7421.81194,0.80310
7419.88320,0.80603
7417.95445,0.80812
7416.02571,0.80628
7414.09696,0.80206
7412.16822,0.79660
7410.23947,0.79572
7408.31073,0.80086
7406.38198,0.80478
7404.45323,0.80533
7402.52449,0.80467
7400.59574,0.80373
7398.66700,0.80398
7396.73825,0.80585
7394.80951,0.80830
7392.88076,0.80882
7390.95202,0.80593
7389.02327,0.80151
7387.09453,0.79784
7385.16578,0.79853
7383.23704,0.80366
7381.30829,0.80582
7379.37955,0.80289
7377.45080,0.80112
7375.52205,0.80356
7373.59331,0.80686
7371.66456,0.80776
7369.73582,0.80716
7367.80707,0.80581
7365.87833,0.80361
7363.94958,0.80323
7362.02084,0.80612
7360.09209,0.80799
7358.16335,0.80515
7356.23460,0.80016
7354.30586,0.79648
7352.37711,0.79543
7350.44837,0.79740
7348.51962,0.80111
7346.59088,0.80397
7344.66213,0.80510
7342.73338,0.80628
7340.80464,0.80687
7338.87589,0.80348
7336.94715,0.79741
7335.01840,0.79187
7333.08966,0.78760
7331.16091,0.78646
7329.23217,0.78683
7327.30342,0.78270
7325.37468,0.77576
7323.44593,0.77257
7321.51719,0.77357
7319.58844,0.77533
7317.65970,0.77656
7315.73095,0.77860
7313.80221,0.77937
7311.87346,0.77808
7309.94471,0.77806
7308.01597,0.77807
7306.08722,0.77728
7304.15848,0.77594
7302.22973,0.77207
7300.30099,0.76972
7298.37224,0.77135
7296.44350,0.77132
7294.51475,0.76814
7292.58601,0.76478
7290.65726,0.76108
7288.72852,0.75644
7286.79977,0.75226
7284.87103,0.75026
7282.94228,0.75085
7281.01353,0.75199
7279.08479,0.75122
7277.15604,0.74904
7275.22730,0.74914
7273.29855,0.75260
7271.36981,0.75476
7269.44106,0.75305
7267.51232,0.74994
7265.58357,0.74796
7263.65483,0.74746
7261.72608,0.74673
7259.79734,0.74452
7257.86859,0.74165
7255.93985,0.73905
7254.01110,0.73593
7252.08236,0.73241
7250.15361,0.73228
7248.22486,0.73454
7246.29612,0.73149
7244.36737,0.72433
7242.43863,0.72287
7240.50988,0.72596
7238.58114,0.72553
7236.65239,0.72266
7234.72365,0.72072
7232.79490,0.71862
7230.86616,0.71470
7228.93741,0.71114
7227.00867,0.71313
7225.07992,0.71919
7223.15118,0.72273
7221.22243,0.72415
7219.29369,0.72498
7217.36494,0.72007
7215.43619,0.70947
7213.50745,0.70158
7211.57870,0.69921
7209.64996,0.69969
7207.72121,0.70325
7205.79247,0.70856
7203.86372,0.71059
7201.93498,0.70791
7200.00623,0.70392
7198.07749,0.70107
7196.14874,0.70141
7194.22000,0.70587
7192.29125,0.71009
7190.36251,0.71060
7188.43376,0.70948
7186.50501,0.70810
7184.57627,0.70577
7182.64752,0.70332
7180.71878,0.70079
7178.79003,0.69769
7176.86129,0.69547
7174.93254,0.69404
7173.00380,0.69193
7171.07505,0.68972
7169.14631,0.68960
7167.21756,0.69247
7165.28882,0.69550
7163.36007,0.69692
7161.43133,0.69669
7159.50258,0.69327
7157.57384,0.68997
7155.64509,0.69144
7153.71634,0.69475
7151.78760,0.69689
7149.85885,0.69853
7147.93011,0.69814
7146.00136,0.69556
7144.07262,0.69427
7142.14387,0.69606
7140.21513,0.69964
7138.28638,0.70130
7136.35764,0.69834
7134.42889,0.69474
7132.50015,0.69428
7130.57140,0.69484
7128.64266,0.69543
7126.71391,0.69583
7124.78516,0.69413
7122.85642,0.69173
7120.92767,0.68985
7118.99893,0.68744
7117.07018,0.68629
7115.14144,0.68750
7113.21269,0.68820
7111.28395,0.68686
7109.35520,0.68597
7107.42646,0.68799
7105.49771,0.68967
7103.56897,0.68578
7101.64022,0.67964
7099.71148,0.67780
7097.78273,0.67891
7095.85399,0.67921
7093.92524,0.67825
7091.99649,0.67548
7090.06775,0.67100
7088.13900,0.66812
7086.21026,0.66936
7084.28151,0.67175
7082.35277,0.67242
7080.42402,0.67203
7078.49528,0.66999
7076.56653,0.66809
7074.63779,0.67003
7072.70904,0.67280
7070.78030,0.67277
7068.85155,0.67305
7066.92281,0.67513
7064.99406,0.67449
7063.06532,0.67016
7061.13657,0.66773
7059.20782,0.66990
7057.27908,0.67341
7055.35033,0.67474
7053.42159,0.67487
7051.49284,0.67703
7049.56410,0.68011
7047.63535,0.68113
7045.70661,0.68060
7043.77786,0.68157
7041.84912,0.68566
7039.92037,0.68960
7037.99163,0.68989
7036.06288,0.68741
7034.13414,0.68352
7032.20539,0.68139
7030.27664,0.68464
7028.34790,0.68987
7026.41915,0.69233
7024.49041,0.69306
7022.56166,0.69253
7020.63292,0.68899
7018.70417,0.68494
7016.77543,0.68496
7014.84668,0.68782
7012.91794,0.68942
7010.98919,0.68929
7009.06045,0.68797
7007.13170,0.68529
7005.20296,0.68338
7003.27421,0.68406
7001.34547,0.68596
6999.41672,0.68799
6997.48797,0.68965
6995.55923,0.68928
6993.63048,0.68603
6991.70174,0.68136
6989.77299,0.68016
6987.84425,0.68464
6985.91550,0.68871
6983.98676,0.68811
6982.05801,0.68574
6980.12927,0.68380
6978.20052,0.68251
6976.27178,0.68277
6974.34303,0.68393
6972.41429,0.68338
6970.48554,0.68192
6968.55680,0.68328
6966.62805,0.68618
6964.69930,0.68651
6962.77056,0.68522
6960.84181,0.68541
6958.91307,0.68694
6956.98432,0.68760
6955.05558,0.68717
6953.12683,0.68773
6951.19809,0.69049
6949.26934,0.69484
6947.34060,0.69678
6945.41185,0.69445
6943.48311,0.69303
6941.55436,0.69423
6939.62562,0.69559
6937.69687,0.69671
6935.76812,0.69673
6933.83938,0.69551
6931.91063,0.69430
6929.98189,0.69429
6928.05314,0.69578
6926.12440,0.69730
6924.19565,0.69822
6922.26691,0.69879
6920.33816,0.69931
6918.40942,0.70046
6916.48067,0.70157
6914.55193,0.70254
6912.62318,0.70351
6910.69444,0.70320
6908.76569,0.70336
6906.83695,0.70675
6904.90820,0.71112
6902.97945,0.71315
6901.05071,0.71343
6899.12196,0.71438
6897.19322,0.71584
6895.26447,0.71526
6893.33573,0.71344
6891.40698,0.71385
6889.47824,0.71557
6887.54949,0.71503
6885.62075,0.71206
6883.69200,0.71017
6881.76326,0.71279
6879.83451,0.71759
6877.90577,0.71893
6875.97702,0.71723
6874.04828,0.71661
6872.11953,0.71740
6870.19078,0.71777
6868.26204,0.71729
6866.33329,0.71766
6864.40455,0.72028
6862.47580,0.72268
6860.54706,0.72332
6858.61831,0.72507
6856.68957,0.72748
6854.76082,0.72734
6852.83208,0.72577
6850.90333,0.72486
6848.97459,0.72495
6847.04584,0.72567
6845.11710,0.72694
6843.18835,0.72858
6841.25960,0.72789
6839.33086,0.72520
6837.40211,0.72486
6835.47337,0.72666
6833.54462,0.72760
6831.61588,0.72749
6829.68713,0.72840
6827.75839,0.73109
6825.82964,0.73235
6823.90090,0.73009
6821.97215,0.72724
6820.04341,0.72660
6818.11466,0.72770
6816.18592,0.72870
6814.25717,0.72856
6812.32843,0.72776
6810.39968,0.72762
6808.47093,0.72882
6806.54219,0.72998
6804.61344,0.72985
6802.68470,0.72990
6800.75595,0.73046
6798.82721,0.73028
6796.89846,0.73065
6794.96972,0.73240
6793.04097,0.73387
6791.11223,0.73425
6789.18348,0.73412
6787.25474,0.73459
6785.32599,0.73549
6783.39725,0.73458
6781.46850,0.73256
6779.53975,0.73320
6777.61101,0.73708
6775.68226,0.74171
6773.75352,0.74529
6771.82477,0.74560
6769.89603,0.74233
6767.96728,0.73989
6766.03854,0.73973
6764.10979,0.73831
6762.18105,0.73584
6760.25230,0.73539
6758.32356,0.73769
6756.39481,0.74136
6754.46607,0.74367
6752.53732,0.74399
6750.60858,0.74365
6748.67983,0.74265
6746.75108,0.74202
6744.82234,0.74249
6742.89359,0.74364
6740.96485,0.74503
6739.03610,0.74383
6737.10736,0.74029
6735.17861,0.73857
6733.24987,0.73953
6731.32112,0.74159
6729.39238,0.74224
6727.46363,0.74046
6725.53489,0.73948
6723.60614,0.74071
6721.67740,0.74118
6719.74865,0.73947
6717.81991,0.73812
6715.89116,0.73896
6713.96241,0.74097
6712.03367,0.74287
6710.10492,0.74371
6708.17618,0.74298
6706.24743,0.74089
6704.31869,0.73977
6702.38994,0.74334
6700.46120,0.74939
6698.53245,0.75155
6696.60371,0.74937
6694.67496,0.74633
6692.74622,0.74444
6690.81747,0.74523
6688.88873,0.74790
6686.95998,0.75049
6685.03123,0.75349
6683.10249,0.75499
6681.17374,0.75250
6679.24500,0.74985
6677.31625,0.75061
6675.38751,0.75313
6673.45876,0.75504
6671.53002,0.75505
6669.60127,0.75373
6667.67253,0.75362
6665.74378,0.75557
6663.81504,0.75848
6661.88629,0.76155
6659.95755,0.76328
6658.02880,0.76263
6656.10006,0.76148
6654.17131,0.76249
6652.24256,0.76523
6650.31382,0.76621
6648.38507,0.76474
6646.45633,0.76413
6644.52758,0.76588
6642.59884,0.76777
6640.67009,0.76784
6638.74135,0.76694
6636.81260,0.76640
6634.88386,0.76472
6632.95511,0.76030
6631.02637,0.75702
6629.09762,0.75878
6627.16888,0.76243
6625.24013,0.76472
6623.31139,0.76654
6621.38264,0.76750
6619.45389,0.76603
6617.52515,0.76304
6615.59640,0.76117
6613.66766,0.76183
6611.73891,0.76375
6609.81017,0.76427
6607.88142,0.76381
6605.95268,0.76537
6604.02393,0.76839
6602.09519,0.77032
6600.16644,0.77137
6598.23770,0.77286
6596.30895,0.77438
6594.38021,0.77452
6592.45146,0.77359
6590.52271,0.77309
6588.59397,0.77307
6586.66522,0.77240
6584.73648,0.77046
6582.80773,0.76847
6580.87899,0.76890
6578.95024,0.77169
6577.02150,0.77408
6575.09275,0.77455
6573.16401,0.77381
6571.23526,0.77298
6569.30652,0.77267
6567.37777,0.77385
6565.44903,0.77619
6563.52028,0.77776
6561.59154,0.77840
6559.66279,0.77868
6557.73404,0.77800
6555.80530,0.77653
6553.87655,0.77554
6551.94781,0.77560
6550.01906,0.77701
6548.09032,0.77949
6546.16157,0.78130
6544.23283,0.78147
6542.30408,0.77981
6540.37534,0.77767
6538.44659,0.77733
6536.51785,0.77720
6534.58910,0.77692
6532.66036,0.77985
6530.73161,0.78269
6528.80287,0.78051
6526.87412,0.77880
6524.94537,0.78216
6523.01663,0.78603
6521.08788,0.78689
6519.15914,0.78579
6517.23039,0.78592
6515.30165,0.78871
6513.37290,0.78993
6511.44416,0.78712
6509.51541,0.78498
6507.58667,0.78690
6505.65792,0.78963
6503.72918,0.78975
6501.80043,0.78790
6499.87169,0.78579
6497.94294,0.78501
6496.01419,0.78660
6494.08545,0.78992
6492.15670,0.79283
6490.22796,0.79356
6488.29921,0.79295
6486.37047,0.79234
6484.44172,0.79131
6482.51298,0.79027
6480.58423,0.79093
6478.65549,0.79269
6476.72674,0.79285
6474.79800,0.79151
6472.86925,0.79152
6470.94051,0.79345
6469.01176,0.79525
6467.08302,0.79565
6465.15427,0.79557
6463.22552,0.79572
6461.29678,0.79480
6459.36803,0.79342
6457.43929,0.79415
6455.51054,0.79600
6453.58180,0.79611
6451.65305,0.79541
6449.72431,0.79651
6447.79556,0.79883
6445.86682,0.80004
6443.93807,0.79951
6442.00933,0.79760
6440.08058,0.79609
6438.15184,0.79727
6436.22309,0.79979
6434.29434,0.80084
6432.36560,0.80016
6430.43685,0.79857
6428.50811,0.79706
6426.57936,0.79672
6424.65062,0.79689
6422.72187,0.79569
6420.79313,0.79433
6418.86438,0.79607
6416.93564,0.79938
6415.00689,0.79962
6413.07815,0.79699
6411.14940,0.79548
6409.22066,0.79658
6407.29191,0.79790
6405.36317,0.79682
6403.43442,0.79371
6401.50567,0.79237
6399.57693,0.79480
6397.64818,0.79708
6395.71944,0.79700
6393.79069,0.79668
6391.86195,0.79519
6389.93320,0.79263
6388.00446,0.79309
6386.07571,0.79509
6384.14697,0.79351
6382.21822,0.78964
6380.28948,0.78731
6378.36073,0.78595
6376.43199,0.78428
6374.50324,0.78388
6372.57450,0.78642
6370.64575,0.78947
6368.71700,0.78866
6366.78826,0.78525
6364.85951,0.78326
6362.93077,0.78198
6361.00202,0.78035
6359.07328,0.78010
6357.14453,0.78103
6355.21579,0.78136
6353.28704,0.78087
6351.35830,0.78027
6349.42955,0.78030
6347.50081,0.78125
6345.57206,0.78220
6343.64332,0.78231
6341.71457,0.78169
6339.78582,0.78039
6337.85708,0.77868
6335.92833,0.77749
6333.99959,0.77757
6332.07084,0.77821
6330.14210,0.77796
6328.21335,0.77738
6326.28461,0.77810
6324.35586,0.77897
6322.42712,0.77789
6320.49837,0.77576
6318.56963,0.77460
6316.64088,0.77360
6314.71214,0.77131
6312.78339,0.76872
6310.85465,0.76747
6308.92590,0.76816
6306.99715,0.76978
6305.06841,0.77054
6303.13966,0.77000
6301.21092,0.76798
6299.28217,0.76473
6297.35343,0.76231
6295.42468,0.76185
6293.49594,0.76205
6291.56719,0.76163
6289.63845,0.76136
6287.70970,0.76200
6285.78096,0.76212
6283.85221,0.76103
6281.92347,0.76042
6279.99472,0.76105
6278.06598,0.76166
6276.13723,0.76186
6274.20848,0.76160
6272.27974,0.75951
6270.35099,0.75591
6268.42225,0.75385
6266.49350,0.75463
6264.56476,0.75531
6262.63601,0.75376
6260.70727,0.75199
6258.77852,0.75037
6256.84978,0.74693
6254.92103,0.74345
6252.99229,0.74189
6251.06354,0.74036
6249.13480,0.73853
6247.20605,0.73763
6245.27730,0.73679
6243.34856,0.73503
6241.41981,0.73313
6239.49107,0.73231
6237.56232,0.73197
6235.63358,0.73021
6233.70483,0.72707
6231.77609,0.72477
6229.84734,0.72397
6227.91860,0.72285
6225.98985,0.72104
6224.06111,0.71908
6222.13236,0.71657
6220.20362,0.71474
6218.27487,0.71376
6216.34613,0.71098
6214.41738,0.70616
6212.48863,0.70257
6210.55989,0.70210
6208.63114,0.70210
6206.70240,0.69990
6204.77365,0.69654
6202.84491,0.69343
6200.91616,0.69098
6198.98742,0.68896
6197.05867,0.68620
6195.12993,0.68228
6193.20118,0.67819
6191.27244,0.67472
6189.34369,0.67073
6187.41495,0.66569
6185.48620,0.66127
6183.55746,0.65742
6181.62871,0.65246
6179.69996,0.64715
6177.77122,0.64358
6175.84247,0.64101
6173.91373,0.63642
6171.98498,0.62960
6170.05624,0.62255
6168.12749,0.61519
6166.19875,0.60694
6164.27000,0.59926
6162.34126,0.59245
6160.41251,0.58518
6158.48377,0.57748
6156.55502,0.56949
6154.62628,0.56124
6152.69753,0.55379
6150.76878,0.54661
6148.84004,0.53867
6146.91129,0.53086
6144.98255,0.52374
6143.05380,0.51678
6141.12506,0.51016
6139.19631,0.50502
6137.26757,0.50135
6135.33882,0.49755
6133.41008,0.49333
6131.48133,0.48948
6129.55259,0.48537
6127.62384,0.47991
6125.69510,0.47336
6123.76635,0.46666
6121.83761,0.46012
6119.90886,0.45341
6117.98011,0.44689
6116.05137,0.44172
6114.12262,0.43866
6112.19388,0.43700
6110.26513,0.43499
6108.33639,0.43313
6106.40764,0.43407
6104.47890,0.43719
6102.55015,0.43956
6100.62141,0.44054
6098.69266,0.44053
6096.76392,0.43991
6094.83517,0.43943
6092.90643,0.43963
6090.97768,0.44042
6089.04893,0.44024
6087.12019,0.43814
6085.19144,0.43529
6083.26270,0.43218
6081.33395,0.42927
6079.40521,0.42712
6077.47646,0.42497
6075.54772,0.42315
6073.61897,0.42343
6071.69023,0.42684
6069.76148,0.43264
6067.83274,0.43920
6065.90399,0.44611
6063.97525,0.45282
6062.04650,0.45880
6060.11776,0.46482
6058.18901,0.46979
6056.26026,0.47254
6054.33152,0.47531
6052.40277,0.47884
6050.47403,0.48026
6048.54528,0.47874
6046.61654,0.47597
6044.68779,0.47180
6042.75905,0.46532
6040.83030,0.45700
6038.90156,0.44772
6036.97281,0.43855
6035.04407,0.42983
6033.11532,0.42092
6031.18658,0.41162
6029.25783,0.40231
6027.32909,0.39292
6025.40034,0.38283
6023.47159,0.37210
6021.54285,0.36235
6019.61410,0.35392
6017.68536,0.34493
6015.75661,0.33486
6013.82787,0.32487
6011.89912,0.31622
6009.97038,0.30960
6008.04163,0.30304
6006.11289,0.29442
6004.18414,0.28556
6002.25540,0.27868
6000.32665,0.27260
5998.39791,0.26570
5996.46916,0.25896
5994.54041,0.25378
5992.61167,0.24922
5990.68292,0.24384
5988.75418,0.23801
5986.82543,0.23269
5984.89669,0.22798
5982.96794,0.22337
5981.03920,0.21811
5979.11045,0.21244
5977.18171,0.20765
5975.25296,0.20400
5973.32422,0.20075
5971.39547,0.19821
5969.46673,0.19699
5967.53798,0.19590
5965.60924,0.19395
5963.68049,0.19228
5961.75174,0.19136
5959.82300,0.19077
5957.89425,0.19073
5955.96551,0.19111
5954.03676,0.19173
5952.10802,0.19254
5950.17927,0.19283
5948.25053,0.19168
5946.32178,0.18938
5944.39304,0.18841
5942.46429,0.19020
5940.53555,0.19273
5938.60680,0.19427
5936.67806,0.19521
5934.74931,0.19667
5932.82057,0.19937
5930.89182,0.20294
5928.96307,0.20640
5927.03433,0.20885
5925.10558,0.21019
5923.17684,0.21103
5921.24809,0.21144
5919.31935,0.21156
5917.39060,0.21209
5915.46186,0.21300
5913.53311,0.21357
5911.60437,0.21368
5909.67562,0.21384
5907.74688,0.21519
5905.81813,0.21837
5903.88939,0.22160
5901.96064,0.22359
5900.03189,0.22534
5898.10315,0.22730
5896.17440,0.22945
5894.24566,0.23211
5892.31691,0.23510
5890.38817,0.23810
5888.45942,0.24069
5886.53068,0.24326
5884.60193,0.24703
5882.67319,0.25237
5880.74444,0.25859
5878.81570,0.26417
5876.88695,0.26810
5874.95821,0.27153
5873.02946,0.27559
5871.10072,0.27980
5869.17197,0.28376
5867.24322,0.28739
5865.31448,0.28990
5863.38573,0.29156
5861.45699,0.29350
5859.52824,0.29485
5857.59950,0.29496
5855.67075,0.29555
5853.74201,0.29683
5851.81326,0.29681
5849.88452,0.29548
5847.95577,0.29505
5846.02703,0.29584
5844.09828,0.29640
5842.16954,0.29678
5840.24079,0.29757
5838.31205,0.29791
5836.38330,0.29772
5834.45455,0.29811
5832.52581,0.29884
5830.59706,0.29904
5828.66832,0.29912
5826.73957,0.29982
5824.81083,0.30123
5822.88208,0.30266
5820.95334,0.30282
5819.02459,0.30180
5817.09585,0.30130
5815.16710,0.30145
5813.23836,0.30141
5811.30961,0.30124
5809.38087,0.30101
5807.45212,0.30096
5805.52337,0.30118
5803.59463,0.30073
5801.66588,0.29925
5799.73714,0.29823
5797.80839,0.29881
5795.87965,0.29973
5793.95090,0.30002
5792.02216,0.30077
5790.09341,0.30243
5788.16467,0.30411
5786.23592,0.30592
5784.30718,0.30837
5782.37843,0.31164
5780.44969,0.31612
5778.52094,0.32077
5776.59220,0.32459
5774.66345,0.32872
5772.73470,0.33396
5770.80596,0.33925
5768.87721,0.34340
5766.94847,0.34757
5765.01972,0.35300
5763.09098,0.35865
5761.16223,0.36403
5759.23349,0.36939
5757.30474,0.37432
5755.37600,0.37868
5753.44725,0.38259
5751.51851,0.38615
5749.58976,0.38999
5747.66102,0.39442
5745.73227,0.39847
5743.80352,0.40126
5741.87478,0.40310
5739.94603,0.40403
5738.01729,0.40429
5736.08854,0.40504
5734.15980,0.40549
5732.23105,0.40397
5730.30231,0.40141
5728.37356,0.39857
5726.44482,0.39494
5724.51607,0.39082
5722.58733,0.38640
5720.65858,0.38191
5718.72984,0.37784
5716.80109,0.37338
5714.87235,0.36832
5712.94360,0.36408
5711.01485,0.36055
5709.08611,0.35647
5707.15736,0.35237
5705.22862,0.34912
5703.29987,0.34647
5701.37113,0.34435
5699.44238,0.34258
5697.51364,0.34100
5695.58489,0.33982
5693.65615,0.33901
5691.72740,0.33847
5689.79866,0.33805
5687.86991,0.33716
5685.94117,0.33510
5684.01242,0.33256
5682.08368,0.33139
5680.15493,0.33122
5678.22618,0.33019
5676.29744,0.32781
5674.36869,0.32460
5672.43995,0.32167
5670.51120,0.32000
5668.58246,0.31928
5666.65371,0.31897
5664.72497,0.31963
5662.79622,0.32182
5660.86748,0.32458
5658.93873,0.32691
5657.00999,0.32949
5655.08124,0.33350
5653.15250,0.33799
5651.22375,0.34152
5649.29500,0.34438
5647.36626,0.34689
5645.43751,0.34953
5643.50877,0.35310
5641.58002,0.35689
5639.65128,0.35979
5637.72253,0.36208
5635.79379,0.36461
5633.86504,0.36786
5631.93630,0.37139
5630.00755,0.37420
5628.07881,0.37676
5626.15006,0.37992
5624.22132,0.38222
5622.29257,0.38281
5620.36383,0.38388
5618.43508,0.38618
5616.50633,0.38771
5614.57759,0.38762
5612.64884,0.38641
5610.72010,0.38476
5608.79135,0.38366
5606.86261,0.38361
5604.93386,0.38416
5603.00512,0.38477
5601.07637,0.38541
5599.14763,0.38605
5597.21888,0.38591
5595.29014,0.38463
5593.36139,0.38311
5591.43265,0.38181
5589.50390,0.38002
5587.57516,0.37799
5585.64641,0.37736
5583.71766,0.37829
5581.78892,0.37934
5579.86017,0.38029
5577.93143,0.38208
5576.00268,0.38440
5574.07394,0.38632
5572.14519,0.38805
5570.21645,0.38987
5568.28770,0.39132
5566.35896,0.39209
5564.43021,0.39207
5562.50147,0.39146
5560.57272,0.39122
5558.64398,0.39178
5556.71523,0.39219
5554.78648,0.39178
5552.85774,0.39127
5550.92899,0.39132
5549.00025,0.39158
5547.07150,0.39165
5545.14276,0.39160
5543.21401,0.39180
5541.28527,0.39190
5539.35652,0.39191
5537.42778,0.39255
5535.49903,0.39319
5533.57029,0.39323
5531.64154,0.39303
5529.71280,0.39261
5527.78405,0.39237
5525.85531,0.39279
5523.92656,0.39358
5521.99781,0.39431
5520.06907,0.39465
5518.14032,0.39467
5516.21158,0.39524
5514.28283,0.39598
5512.35409,0.39584
5510.42534,0.39607
5508.49660,0.39739
5506.56785,0.39832
5504.63911,0.39829
5502.71036,0.39839
5500.78162,0.39916
5498.85287,0.40029
5496.92413,0.40208
5494.99538,0.40448
5493.06664,0.40660
5491.13789,0.40795
5489.20914,0.40868
5487.28040,0.40945
5485.35165,0.41092
5483.42291,0.41272
5481.49416,0.41394
5479.56542,0.41434
5477.63667,0.41463
5475.70793,0.41556
5473.77918,0.41658
5471.85044,0.41645
5469.92169,0.41574
5467.99295,0.41567
5466.06420,0.41640
5464.13546,0.41766
5462.20671,0.41888
5460.27796,0.41961
5458.34922,0.41989
5456.42047,0.41980
5454.49173,0.41922
5452.56298,0.41838
5450.63424,0.41780
5448.70549,0.41750
5446.77675,0.41738
5444.84800,0.41741
5442.91926,0.41756
5440.99051,0.41800
5439.06177,0.41857
5437.13302,0.41877
5435.20428,0.41793
5433.27553,0.41632
5431.34679,0.41546
5429.41804,0.41560
5427.48929,0.41514
5425.56055,0.41427
5423.63180,0.41403
5421.70306,0.41350
5419.77431,0.41250
5417.84557,0.41251
5415.91682,0.41388
5413.98808,0.41478
5412.05933,0.41365
5410.13059,0.41170
5408.20184,0.41065
5406.27310,0.41082
5404.34435,0.41171
5402.41561,0.41221
5400.48686,0.41188
5398.55811,0.41096
5396.62937,0.40971
5394.70062,0.40896
5392.77188,0.40921
5390.84313,0.40973
5388.91439,0.40980
5386.98564,0.40906
5385.05690,0.40782
5383.12815,0.40714
5381.19941,0.40744
5379.27066,0.40760
5377.34192,0.40686
5375.41317,0.40607
5373.48443,0.40602
5371.55568,0.40629
5369.62694,0.40644
5367.69819,0.40679
5365.76944,0.40756
5363.84070,0.40845
5361.91195,0.40953
5359.98321,0.41086
5358.05446,0.41206
5356.12572,0.41310
5354.19697,0.41408
5352.26823,0.41501
5350.33948,0.41613
5348.41074,0.41784
5346.48199,0.42017
5344.55325,0.42252
5342.62450,0.42430
5340.69576,0.42581
5338.76701,0.42701
5336.83827,0.42768
5334.90952,0.42847
5332.98077,0.42933
5331.05203,0.42987
5329.12328,0.43047
5327.19454,0.43114
5325.26579,0.43191
5323.33705,0.43330
5321.40830,0.43482
5319.47956,0.43546
5317.55081,0.43566
5315.62207,0.43620
5313.69332,0.43634
5311.76458,0.43610
5309.83583,0.43654
5307.90709,0.43755
5305.97834,0.43824
5304.04959,0.43826
5302.12085,0.43827
5300.19210,0.43855
5298.26336,0.43852
5296.33461,0.43835
5294.40587,0.43835
5292.47712,0.43813
5290.54838,0.43764
5288.61963,0.43748
5286.69089,0.43803
5284.76214,0.43908
5282.83340,0.44006
5280.90465,0.44056
5278.97591,0.44081
5277.04716,0.44101
5275.11842,0.44108
5273.18967,0.44139
5271.26092,0.44168
5269.33218,0.44117
5267.40343,0.44029
5265.47469,0.43995
5263.54594,0.43979
5261.61720,0.43913
5259.68845,0.43866
5257.75971,0.43930
5255.83096,0.44031
5253.90222,0.44064
5251.97347,0.44047
5250.04473,0.44017
5248.11598,0.43976
5246.18724,0.43908
5244.25849,0.43856
5242.32975,0.43874
5240.40100,0.43880
5238.47225,0.43818
5236.54351,0.43795
5234.61476,0.43849
5232.68602,0.43888
5230.75727,0.43881
5228.82853,0.43847
5226.89978,0.43801
5224.97104,0.43819
5223.04229,0.43950
5221.11355,0.44092
5219.18480,0.44190
5217.25606,0.44332
5215.32731,0.44520
5213.39857,0.44632
5211.46982,0.44682
5209.54107,0.44747
5207.61233,0.44785
5205.68358,0.44766
5203.75484,0.44735
5201.82609,0.44762
5199.89735,0.44908
5197.96860,0.45098
5196.03986,0.45187
5194.11111,0.45159
5192.18237,0.45130
5190.25362,0.45184
5188.32488,0.45280
5186.39613,0.45369
5184.46739,0.45419
5182.53864,0.45394
5180.60990,0.45337
5178.68115,0.45318
5176.75240,0.45328
5174.82366,0.45328
5172.89491,0.45326
5170.96617,0.45349
5169.03742,0.45394
5167.10868,0.45433
5165.17993,0.45501
5163.25119,0.45641
5161.32244,0.45748
5159.39370,0.45736
5157.46495,0.45672
5155.53621,0.45631
5153.60746,0.45629
5151.67872,0.45634
5149.74997,0.45608
5147.82123,0.45537
5145.89248,0.45449
5143.96373,0.45372
5142.03499,0.45287
5140.10624,0.45192
5138.17750,0.45120
5136.24875,0.45086
5134.32001,0.45088
5132.39126,0.45092
5130.46252,0.45070
5128.53377,0.45056
5126.60503,0.45047
5124.67628,0.45004
5122.74754,0.44999
5120.81879,0.45076
5118.89005,0.45149
5116.96130,0.45184
5115.03255,0.45224
5113.10381,0.45267
5111.17506,0.45281
5109.24632,0.45306
5107.31757,0.45396
5105.38883,0.45505
5103.46008,0.45557
5101.53134,0.45538
5099.60259,0.45506
5097.67385,0.45473
5095.74510,0.45434
5093.81636,0.45453
5091.88761,0.45527
5089.95887,0.45611
5088.03012,0.45703
5086.10138,0.45750
5084.17263,0.45737
5082.24388,0.45725
5080.31514,0.45738
5078.38639,0.45771
5076.45765,0.45823
5074.52890,0.45824
5072.60016,0.45761
5070.67141,0.45773
5068.74267,0.45855
5066.81392,0.45876
5064.88518,0.45880
5062.95643,0.45920
5061.02769,0.45916
5059.09894,0.45830
5057.17020,0.45692
5055.24145,0.45553
5053.31270,0.45514
5051.38396,0.45574
5049.45521,0.45612
5047.52647,0.45585
5045.59772,0.45539
5043.66898,0.45507
5041.74023,0.45488
5039.81149,0.45509
5037.88274,0.45570
5035.95400,0.45601
5034.02525,0.45574
5032.09651,0.45528
5030.16776,0.45524
5028.23902,0.45587
5026.31027,0.45634
5024.38153,0.45642
5022.45278,0.45693
5020.52403,0.45775
5018.59529,0.45812
5016.66654,0.45827
5014.73780,0.45843
5012.80905,0.45816
5010.88031,0.45772
5008.95156,0.45760
5007.02282,0.45734
5005.09407,0.45681
5003.16533,0.45651
5001.23658,0.45603
4999.30784,0.45502
4997.37909,0.45386
4995.45035,0.45287
4993.52160,0.45237
4991.59286,0.45185
4989.66411,0.45044
4987.73536,0.44872
4985.80662,0.44771
4983.87787,0.44721
4981.94913,0.44679
4980.02038,0.44647
4978.09164,0.44618
4976.16289,0.44589
4974.23415,0.44581
4972.30540,0.44586
4970.37666,0.44564
4968.44791,0.44541
4966.51917,0.44594
4964.59042,0.44700
4962.66168,0.44783
4960.73293,0.44843
4958.80418,0.44859
4956.87544,0.44808
4954.94669,0.44760
4953.01795,0.44765
4951.08920,0.44779
4949.16046,0.44767
4947.23171,0.44731
4945.30297,0.44680
4943.37422,0.44646
4941.44548,0.44643
4939.51673,0.44626
4937.58799,0.44560
4935.65924,0.44494
4933.73050,0.44487
4931.80175,0.44541
4929.87301,0.44604
4927.94426,0.44644
4926.01551,0.44712
4924.08677,0.44806
4922.15802,0.44842
4920.22928,0.44812
4918.30053,0.44772
4916.37179,0.44711
4914.44304,0.44604
4912.51430,0.44534
4910.58555,0.44546
4908.65681,0.44549
4906.72806,0.44531
4904.79932,0.44536
4902.87057,0.44525
4900.94183,0.44491
4899.01308,0.44458
4897.08434,0.44402
4895.15559,0.44330
4893.22684,0.44285
4891.29810,0.44253
4889.36935,0.44192
4887.44061,0.44092
4885.51186,0.43965
4883.58312,0.43839
4881.65437,0.43730
4879.72563,0.43639
4877.79688,0.43567
4875.86814,0.43497
4873.93939,0.43405
4872.01065,0.43294
4870.08190,0.43212
4868.15316,0.43175
4866.22441,0.43136
4864.29566,0.43082
4862.36692,0.43065
4860.43817,0.43084
4858.50943,0.43056
4856.58068,0.42997
4854.65194,0.42946
4852.72319,0.42843
4850.79445,0.42669
4848.86570,0.42490
4846.93696,0.42336
4845.00821,0.42201
4843.07947,0.42093
4841.15072,0.42001
4839.22198,0.41893
4837.29323,0.41768
4835.36449,0.41664
4833.43574,0.41632
4831.50699,0.41634
4829.57825,0.41633
4827.64950,0.41671
4825.72076,0.41728
4823.79201,0.41744
4821.86327,0.41743
4819.93452,0.41784
4818.00578,0.41839
4816.07703,0.41864
4814.14829,0.41878
4812.21954,0.41901
4810.29080,0.41926
4808.36205,0.41946
4806.43331,0.41957
4804.50456,0.41969
4802.57582,0.41981
4800.64707,0.41977
4798.71832,0.41950
4796.78958,0.41894
4794.86083,0.41795
4792.93209,0.41680
4791.00334,0.41584
4789.07460,0.41471
4787.14585,0.41281
4785.21711,0.41028
4783.28836,0.40778
4781.35962,0.40539
4779.43087,0.40294
4777.50213,0.40061
4775.57338,0.39828
4773.64464,0.39516
4771.71589,0.39085
4769.78714,0.38621
4767.85840,0.38198
4765.92965,0.37822
4764.00091,0.37527
4762.07216,0.37326
4760.14342,0.37210
4758.21467,0.37224
4756.28593,0.37328
4754.35718,0.37392
4752.42844,0.37400
4750.49969,0.37378
4748.57095,0.37282
4746.64220,0.37113
4744.71346,0.36942
4742.78471,0.36780
4740.85597,0.36572
4738.92722,0.36335
4736.99847,0.36108
4735.06973,0.35860
4733.14098,0.35579
4731.21224,0.35245
4729.28349,0.34822
4727.35475,0.34344
4725.42600,0.33829
4723.49726,0.33245
4721.56851,0.32624
4719.63977,0.32010
4717.71102,0.31371
4715.78228,0.30699
4713.85353,0.30073
4711.92479,0.29576
4709.99604,0.29201
4708.06729,0.28883
4706.13855,0.28600
4704.20980,0.28362
4702.28106,0.28135
4700.35231,0.27879
4698.42357,0.27563
4696.49482,0.27151
4694.56608,0.26650
4692.63733,0.26063
4690.70859,0.25339
4688.77984,0.24485
4686.85110,0.23537
4684.92235,0.22462
4682.99361,0.21226
4681.06486,0.19886
4679.13612,0.18543
4677.20737,0.17251
4675.27862,0.16047
4673.34988,0.15019
4671.42113,0.14244
4669.49239,0.13685
4667.56364,0.13265
4665.63490,0.13003
4663.70615,0.12923
4661.77741,0.12972
4659.84866,0.13114
4657.91992,0.13362
4655.99117,0.13716
4654.06243,0.14167
4652.13368,0.14720
4650.20494,0.15309
4648.27619,0.15777
4646.34745,0.16046
4644.41870,0.16171
4642.48995,0.16186
4640.56121,0.16049
4638.63246,0.15741
4636.70372,0.15333
4634.77497,0.14907
4632.84623,0.14485
4630.91748,0.14055
4628.98874,0.13669
4627.05999,0.13429
4625.13125,0.13338
4623.20250,0.13292
4621.27376,0.13248
4619.34501,0.13229
4617.41627,0.13219
4615.48752,0.13145
4613.55877,0.12986
4611.63003,0.12822
4609.70128,0.12725
4607.77254,0.12694
4605.84379,0.12733
4603.91505,0.12888
4601.98630,0.13217
4600.05756,0.13726
4598.12881,0.14320
4596.20007,0.14897
4594.27132,0.15435
4592.34258,0.15950
4590.41383,0.16412
4588.48509,0.16781
4586.55634,0.17059
4584.62760,0.17214
4582.69885,0.17153
4580.77010,0.16828
4578.84136,0.16272
4576.91261,0.15609
4574.98387,0.15035
4573.05512,0.14660
4571.12638,0.14528
4569.19763,0.14708
4567.26889,0.15215
4565.34014,0.15965
4563.41140,0.16834
4561.48265,0.17682
4559.55391,0.18417
4557.62516,0.19040
4555.69642,0.19599
4553.76767,0.20155
4551.83893,0.20770
4549.91018,0.21446
4547.98143,0.22102
4546.05269,0.22634
4544.12394,0.23020
4542.19520,0.23299
4540.26645,0.23487
4538.33771,0.23574
4536.40896,0.23595
4534.48022,0.23621
4532.55147,0.23695
4530.62273,0.23806
4528.69398,0.23920
4526.76524,0.24031
4524.83649,0.24131
4522.90775,0.24176
4520.97900,0.24169
4519.05025,0.24131
4517.12151,0.24047
4515.19276,0.23937
4513.26402,0.23865
4511.33527,0.23814
4509.40653,0.23715
4507.47778,0.23566
4505.54904,0.23417
4503.62029,0.23338
4501.69155,0.23396
4499.76280,0.23615
4497.83406,0.23967
4495.90531,0.24377
4493.97657,0.24742
4492.04782,0.24969
4490.11908,0.25035
4488.19033,0.25002
4486.26158,0.24942
4484.33284,0.24903
4482.40409,0.24903
4480.47535,0.24943
4478.54660,0.25039
4476.61786,0.25218
4474.68911,0.25465
4472.76037,0.25741
4470.83162,0.26006
4468.90288,0.26234
4466.97413,0.26423
4465.04539,0.26587
4463.11664,0.26739
4461.18790,0.26856
4459.25915,0.26915
4457.33041,0.26917
4455.40166,0.26825
4453.47291,0.26607
4451.54417,0.26330
4449.61542,0.26023
4447.68668,0.25644
4445.75793,0.25226
4443.82919,0.24854
4441.90044,0.24566
4439.97170,0.24389
4438.04295,0.24316
4436.11421,0.24336
4434.18546,0.24419
4432.25672,0.24477
4430.32797,0.24484
4428.39923,0.24450
4426.47048,0.24323
4424.54173,0.24085
4422.61299,0.23794
4420.68424,0.23513
4418.75550,0.23259
4416.82675,0.23018
4414.89801,0.22775
4412.96926,0.22514
4411.04052,0.22232
4409.11177,0.21926
4407.18303,0.21621
4405.25428,0.21346
4403.32554,0.21083
4401.39679,0.20813
4399.46805,0.20519
4397.53930,0.20199
4395.61056,0.19877
4393.68181,0.19550
4391.75306,0.19192
4389.82432,0.18803
4387.89557,0.18429
4385.96683,0.18116
4384.03808,0.17834
4382.10934,0.17535
4380.18059,0.17224
4378.25185,0.16914
4376.32310,0.16602
4374.39436,0.16292
4372.46561,0.15993
4370.53687,0.15698
4368.60812,0.15408
4366.67938,0.15119
4364.75063,0.14809
4362.82189,0.14484
4360.89314,0.14178
4358.96439,0.13907
4357.03565,0.13665
4355.10690,0.13450
4353.17816,0.13262
4351.24941,0.13088
4349.32067,0.12923
4347.39192,0.12765
4345.46318,0.12591
4343.53443,0.12421
4341.60569,0.12298
4339.67694,0.12212
4337.74820,0.12135
4335.81945,0.12047
4333.89071,0.11963
4331.96196,0.11935
4330.03321,0.11948
4328.10447,0.11940
4326.17572,0.11950
4324.24698,0.12060
4322.31823,0.12276
4320.38949,0.12546
4318.46074,0.12801
4316.53200,0.13020
4314.60325,0.13232
4312.67451,0.13441
4310.74576,0.13626
4308.81702,0.13769
4306.88827,0.13864
4304.95953,0.13912
4303.03078,0.13922
4301.10204,0.13899
4299.17329,0.13859
4297.24454,0.13815
4295.31580,0.13727
4293.38705,0.13579
4291.45831,0.13445
4289.52956,0.13356
4287.60082,0.13252
4285.67207,0.13112
4283.74333,0.12946
4281.81458,0.12748
4279.88584,0.12559
4277.95709,0.12395
4276.02835,0.12195
4274.09960,0.11974
4272.17086,0.11789
4270.24211,0.11616
4268.31336,0.11435
4266.38462,0.11246
4264.45587,0.11057
4262.52713,0.10904
4260.59838,0.10788
4258.66964,0.10669
4256.74089,0.10557
4254.81215,0.10473
4252.88340,0.10411
4250.95466,0.10372
4249.02591,0.10356
4247.09717,0.10346
4245.16842,0.10329
4243.23968,0.10341
4241.31093,0.10413
4239.38219,0.10517
4237.45344,0.10595
4235.52469,0.10637
4233.59595,0.10680
4231.66720,0.10721
4229.73846,0.10733
4227.80971,0.10736
4225.88097,0.10742
4223.95222,0.10752
4222.02348,0.10780
4220.09473,0.10814
4218.16599,0.10830
4216.23724,0.10832
4214.30850,0.10825
4212.37975,0.10804
4210.45101,0.10772
4208.52226,0.10771
4206.59352,0.10838
4204.66477,0.10916
4202.73602,0.10951
4200.80728,0.10998
4198.87853,0.11111
4196.94979,0.11237
4195.02104,0.11342
4193.09230,0.11471
4191.16355,0.11622
4189.23481,0.11726
4187.30606,0.11760
4185.37732,0.11759
4183.44857,0.11749
4181.51983,0.11739
4179.59108,0.11765
4177.66234,0.11857
4175.73359,0.11983
4173.80484,0.12108
4171.87610,0.12224
4169.94735,0.12320
4168.01861,0.12404
4166.08986,0.12479
4164.16112,0.12509
4162.23237,0.12494
4160.30363,0.12483
4158.37488,0.12510
4156.44614,0.12542
4154.51739,0.12525
4152.58865,0.12476
4150.65990,0.12460
4148.73116,0.12473
4146.80241,0.12462
4144.87367,0.12422
4142.94492,0.12383
4141.01617,0.12363
4139.08743,0.12337
4137.15868,0.12274
4135.22994,0.12198
4133.30119,0.12120
4131.37245,0.12005
4129.44370,0.11876
4127.51496,0.11794
4125.58621,0.11729
4123.65747,0.11629
4121.72872,0.11533
4119.79998,0.11469
4117.87123,0.11408
4115.94249,0.11338
4114.01374,0.11263
4112.08500,0.11192
4110.15625,0.11133
4108.22750,0.11073
4106.29876,0.11011
4104.37001,0.10966
4102.44127,0.10949
4100.51252,0.10936
4098.58378,0.10897
4096.65503,0.10820
4094.72629,0.10709
4092.79754,0.10569
4090.86880,0.10437
4088.94005,0.10330
4087.01131,0.10195
4085.08256,0.10009
4083.15382,0.09815
4081.22507,0.09647
4079.29632,0.09507
4077.36758,0.09375
4075.43883,0.09232
4073.51009,0.09076
4071.58134,0.08905
4069.65260,0.08723
4067.72385,0.08565
4065.79511,0.08448
4063.86636,0.08353
4061.93762,0.08278
4060.00887,0.08221
4058.08013,0.08161
4056.15138,0.08112
4054.22264,0.08095
4052.29389,0.08089
4050.36515,0.08084
4048.43640,0.08098
4046.50765,0.08129
4044.57891,0.08147
4042.65016,0.08128
4040.72142,0.08080
4038.79267,0.08031
4036.86393,0.08011
4034.93518,0.08040
4033.00644,0.08113
4031.07769,0.08223
4029.14895,0.08347
4027.22020,0.08447
4025.29146,0.08562
4023.36271,0.08774
4021.43397,0.09073
4019.50522,0.09406
4017.57648,0.09766
4015.64773,0.10110
4013.71898,0.10379
4011.79024,0.10585
4009.86149,0.10747
4007.93275,0.10838
4006.00400,0.10836
4004.07526,0.10792
4002.14651,0.10791
4000.21777,0.10850
3998.28902,0.10937
3996.36028,0.11050
3994.43153,0.11235
3992.50279,0.11489
3990.57404,0.11720
3988.64530,0.11890
3986.71655,0.12036
3984.78780,0.12147
3982.85906,0.12178
3980.93031,0.12131
3979.00157,0.12055
3977.07282,0.12008
3975.14408,0.12018
3973.21533,0.12067
3971.28659,0.12118
3969.35784,0.12159
3967.42910,0.12214
3965.50035,0.12289
3963.57161,0.12341
3961.64286,0.12365
3959.71412,0.12395
3957.78537,0.12441
3955.85663,0.12489
3953.92788,0.12519
3951.99913,0.12529
3950.07039,0.12533
3948.14164,0.12532
3946.21290,0.12501
3944.28415,0.12429
3942.35541,0.12356
3940.42666,0.12306
3938.49792,0.12246
3936.56917,0.12191
3934.64043,0.12179
3932.71168,0.12216
3930.78294,0.12281
3928.85419,0.12339
3926.92545,0.12379
3924.99670,0.12409
3923.06795,0.12436
3921.13921,0.12485
3919.21046,0.12560
3917.28172,0.12616
3915.35297,0.12630
3913.42423,0.12635
3911.49548,0.12658
3909.56674,0.12696
3907.63799,0.12733
3905.70925,0.12746
3903.78050,0.12728
3901.85176,0.12711
3899.92301,0.12721
3897.99427,0.12743
3896.06552,0.12780
3894.13678,0.12843
3892.20803,0.12911
3890.27928,0.12953
3888.35054,0.12992
3886.42179,0.13044
3884.49305,0.13080
3882.56430,0.13088
3880.63556,0.13089
3878.70681,0.13087
3876.77807,0.13077
3874.84932,0.13060
3872.92058,0.13049
3870.99183,0.13033
3869.06309,0.13010
3867.13434,0.13013
3865.20560,0.13040
3863.27685,0.13047
3861.34811,0.13035
3859.41936,0.13038
3857.49061,0.13065
3855.56187,0.13096
3853.63312,0.13102
3851.70438,0.13072
3849.77563,0.13021
3847.84689,0.12966
3845.91814,0.12922
3843.98940,0.12879
3842.06065,0.12831
3840.13191,0.12788
3838.20316,0.12735
3836.27442,0.12667
3834.34567,0.12601
3832.41693,0.12542
3830.48818,0.12500
3828.55943,0.12456
3826.63069,0.12374
3824.70194,0.12289
3822.77320,0.12253
3820.84445,0.12241
3818.91571,0.12218
3816.98696,0.12189
3815.05822,0.12169
3813.12947,0.12157
3811.20073,0.12144
3809.27198,0.12140
3807.34324,0.12151
3805.41449,0.12183
3803.48575,0.12238
3801.55700,0.12275
3799.62826,0.12283
3797.69951,0.12315
3795.77076,0.12394
3793.84202,0.12500
3791.91327,0.12590
3789.98453,0.12663
3788.05578,0.12752
3786.12704,0.12855
3784.19829,0.12944
3782.26955,0.13023
3780.34080,0.13100
3778.41206,0.13143
3776.48331,0.13125
3774.55457,0.13087
3772.62582,0.13044
3770.69708,0.12975
3768.76833,0.12916
3766.83959,0.12910
3764.91084,0.12944
3762.98209,0.12985
3761.05335,0.13012
3759.12460,0.13042
3757.19586,0.13108
3755.26711,0.13205
3753.33837,0.13328
3751.40962,0.13451
3749.48088,0.13526
3747.55213,0.13573
3745.62339,0.13620
3743.69464,0.13623
3741.76590,0.13578
3739.83715,0.13548
3737.90841,0.13551
3735.97966,0.13547
3734.05091,0.13484
3732.12217,0.13349
3730.19342,0.13181
3728.26468,0.13026
3726.33593,0.12885
3724.40719,0.12753
3722.47844,0.12619
3720.54970,0.12526
3718.62095,0.12551
3716.69221,0.12680
3714.76346,0.12830
3712.83472,0.12942
3710.90597,0.12960
3708.97723,0.12852
3707.04848,0.12635
3705.11974,0.12368
3703.19099,0.12124
3701.26224,0.11960
3699.33350,0.11891
3697.40475,0.11906
3695.47601,0.11996
3693.54726,0.12110
3691.61852,0.12181
3689.68977,0.12194
3687.76103,0.12159
3685.83228,0.12066
3683.90354,0.11932
3681.97479,0.11811
3680.04605,0.11734
3678.11730,0.11685
3676.18856,0.11631
3674.25981,0.11564
3672.33107,0.11541
3670.40232,0.11571
3668.47357,0.11592
3666.54483,0.11572
3664.61608,0.11514
3662.68734,0.11414
3660.75859,0.11258
3658.82985,0.11048
3656.90110,0.10803
3654.97236,0.10553
3653.04361,0.10316
3651.11487,0.10084
3649.18612,0.09875
3647.25738,0.09774
3645.32863,0.09820
3643.39989,0.09988
3641.47114,0.10269
3639.54239,0.10646
3637.61365,0.11063
3635.68490,0.11455
3633.75616,0.11738
3631.82741,0.11858
3629.89867,0.11849
3627.96992,0.11738
3626.04118,0.11532
3624.11243,0.11297
3622.18369,0.11106
3620.25494,0.11031
3618.32620,0.11165
3616.39745,0.11515
3614.46871,0.11982
3612.53996,0.12482
3610.61122,0.12956
3608.68247,0.13341
3606.75372,0.13591
3604.82498,0.13740
3602.89623,0.13848
3600.96749,0.13928
3599.03874,0.13963
3597.11000,0.13942
3595.18125,0.13896
3593.25251,0.13871
3591.32376,0.13880
3589.39502,0.13910
3587.46627,0.13939
3585.53753,0.13964
3583.60878,0.14016
3581.68004,0.14116
3579.75129,0.14282
3577.82254,0.14489
3575.89380,0.14664
3573.96505,0.14806
3572.03631,0.14971
3570.10756,0.15127
3568.17882,0.15212
3566.25007,0.15256
3564.32133,0.15302
3562.39258,0.15336
3560.46384,0.15348
3558.53509,0.15344
3556.60635,0.15319
3554.67760,0.15288
3552.74886,0.15277
3550.82011,0.15287
3548.89137,0.15294
3546.96262,0.15279
3545.03387,0.15233
3543.10513,0.15164
3541.17638,0.15104
3539.24764,0.15075
3537.31889,0.15055
3535.39015,0.15011
3533.46140,0.14962
3531.53266,0.14935
3529.60391,0.14902
3527.67517,0.14831
3525.74642,0.14746
3523.81768,0.14677
3521.88893,0.14618
3519.96019,0.14569
3518.03144,0.14531
3516.10270,0.14483
3514.17395,0.14423
3512.24520,0.14377
3510.31646,0.14352
3508.38771,0.14330
3506.45897,0.14299
3504.53022,0.14248
3502.60148,0.14180
3500.67273,0.14107
3498.74399,0.14025
3496.81524,0.13928
3494.88650,0.13833
3492.95775,0.13764
3491.02901,0.13738
3489.10026,0.13739
3487.17152,0.13697
3485.24277,0.13580
3483.31402,0.13457
3481.38528,0.13377
3479.45653,0.13311
3477.52779,0.13235
3475.59904,0.13162
3473.67030,0.13100
3471.74155,0.13032
3469.81281,0.12949
3467.88406,0.12890
3465.95532,0.12865
3464.02657,0.12827
3462.09783,0.12778
3460.16908,0.12749
3458.24034,0.12732
3456.31159,0.12714
3454.38285,0.12689
3452.45410,0.12630
3450.52535,0.12534
3448.59661,0.12423
3446.66786,0.12318
3444.73912,0.12235
3442.81037,0.12188
3440.88163,0.12185
3438.95288,0.12220
3437.02414,0.12274
3435.09539,0.12335
3433.16665,0.12412
3431.23790,0.12531
3429.30916,0.12695
3427.38041,0.12850
3425.45167,0.12943
3423.52292,0.13009
3421.59418,0.13105
3419.66543,0.13205
3417.73668,0.13255
3415.80794,0.13271
3413.87919,0.13299
3411.95045,0.13340
3410.02170,0.13370
3408.09296,0.13388
3406.16421,0.13389
3404.23547,0.13386
3402.30672,0.13415
3400.37798,0.13464
3398.44923,0.13506
3396.52049,0.13547
3394.59174,0.13586
3392.66300,0.13614
3390.73425,0.13631
3388.80550,0.13632
3386.87676,0.13616
3384.94801,0.13599
3383.01927,0.13606
3381.09052,0.13620
3379.16178,0.13623
3377.23303,0.13665
3375.30429,0.13761
3373.37554,0.13862
3371.44680,0.13934
3369.51805,0.13983
3367.58931,0.14037
3365.66056,0.14105
3363.73182,0.14155
3361.80307,0.14160
3359.87433,0.14135
3357.94558,0.14109
3356.01683,0.14068
3354.08809,0.14021
3352.15934,0.13993
3350.23060,0.13954
3348.30185,0.13898
3346.37311,0.13851
3344.44436,0.13809
3342.51562,0.13756
3340.58687,0.13698
3338.65813,0.13649
3336.72938,0.13610
3334.80064,0.13583
3332.87189,0.13562
3330.94315,0.13535
3329.01440,0.13500
3327.08566,0.13455
3325.15691,0.13408
3323.22816,0.13381
3321.29942,0.13353
3319.37067,0.13292
3317.44193,0.13235
3315.51318,0.13201
3313.58444,0.13126
3311.65569,0.12984
3309.72695,0.12821
3307.79820,0.12644
3305.86946,0.12435
3303.94071,0.12212
3302.01197,0.12038
3300.08322,0.11956
3298.15448,0.11956
3296.22573,0.12029
3294.29698,0.12152
3292.36824,0.12256
3290.43949,0.12317
3288.51075,0.12371
3286.58200,0.12424
3284.65326,0.12458
3282.72451,0.12461
3280.79577,0.12443
3278.86702,0.12430
3276.93828,0.12426
3275.00953,0.12407
3273.08079,0.12371
3271.15204,0.12347
3269.22330,0.12324
3267.29455,0.12304
3265.36581,0.12316
3263.43706,0.12313
3261.50831,0.12247
3259.57957,0.12161
3257.65082,0.12106
3255.72208,0.12090
3253.79333,0.12086
3251.86459,0.12054
3249.93584,0.12006
3248.00710,0.11969
3246.07835,0.11950
3244.14961,0.11925
3242.22086,0.11869
3240.29212,0.11812
3238.36337,0.11778
3236.43463,0.11741
3234.50588,0.11680
3232.57713,0.11614
3230.64839,0.11548
3228.71964,0.11470
3226.79090,0.11386
3224.86215,0.11311
3222.93341,0.11233
3221.00466,0.11154
3219.07592,0.11084
3217.14717,0.11010
3215.21843,0.10921
3213.28968,0.10794
3211.36094,0.10608
3209.43219,0.10412
3207.50345,0.10283
3205.57470,0.10197
3203.64596,0.10083
3201.71721,0.09961
3199.78846,0.09885
3197.85972,0.09842
3195.93097,0.09815
3194.00223,0.09795
3192.07348,0.09767
3190.14474,0.09710
3188.21599,0.09636
3186.28725,0.09581
3184.35850,0.09556
3182.42976,0.09535
3180.50101,0.09503
3178.57227,0.09459
3176.64352,0.09383
3174.71478,0.09258
3172.78603,0.09104
3170.85729,0.08937
3168.92854,0.08725
3166.99979,0.08470
3165.07105,0.08253
3163.14230,0.08112
3161.21356,0.08039
3159.28481,0.08054
3157.35607,0.08148
3155.42732,0.08270
3153.49858,0.08388
3151.56983,0.08481
3149.64109,0.08521
3147.71234,0.08506
3145.78360,0.08471
3143.85485,0.08444
3141.92611,0.08404
3139.99736,0.08345
3138.06861,0.08287
3136.13987,0.08223
3134.21112,0.08150
3132.28238,0.08086
3130.35363,0.08013
3128.42489,0.07897
3126.49614,0.07777
3124.56740,0.07690
3122.63865,0.07595
3120.70991,0.07458
3118.78116,0.07306
3116.85242,0.07162
3114.92367,0.07029
3112.99493,0.06905
3111.06618,0.06782
3109.13744,0.06668
3107.20869,0.06585
3105.27994,0.06547
3103.35120,0.06541
3101.42245,0.06552
3099.49371,0.06560
3097.56496,0.06547
3095.63622,0.06535
3093.70747,0.06540
3091.77873,0.06521
3089.84998,0.06467
3087.92124,0.06412
3085.99249,0.06366
3084.06375,0.06345
3082.13500,0.06377
3080.20626,0.06433
3078.27751,0.06459
3076.34877,0.06456
3074.42002,0.06451
3072.49127,0.06441
3070.56253,0.06413
3068.63378,0.06368
3066.70504,0.06326
3064.77629,0.06320
3062.84755,0.06354
3060.91880,0.06389
3058.99006,0.06414
3057.06131,0.06437
3055.13257,0.06448
3053.20382,0.06455
3051.27508,0.06468
3049.34633,0.06462
3047.41759,0.06436
3045.48884,0.06417
3043.56009,0.06413
3041.63135,0.06408
3039.70260,0.06389
3037.77386,0.06355
3035.84511,0.06328
3033.91637,0.06322
3031.98762,0.06324
3030.05888,0.06335
3028.13013,0.06363
3026.20139,0.06434
3024.27264,0.06548
3022.34390,0.06635
3020.41515,0.06671
3018.48641,0.06682
3016.55766,0.06667
3014.62892,0.06655
3012.70017,0.06674
3010.77142,0.06682
3008.84268,0.06653
3006.91393,0.06618
3004.98519,0.06597
3003.05644,0.06584
3001.12770,0.06589
2999.19895,0.06615
2997.27021,0.06643
2995.34146,0.06672
2993.41272,0.06692
2991.48397,0.06680
2989.55523,0.06665
2987.62648,0.06679
2985.69774,0.06691
2983.76899,0.06682
2981.84025,0.06664
2979.91150,0.06626
2977.98275,0.06572
2976.05401,0.06536
2974.12526,0.06535
2972.19652,0.06530
2970.26777,0.06509
2968.33903,0.06497
2966.41028,0.06492
2964.48154,0.06480
2962.55279,0.06465
2960.62405,0.06455
2958.69530,0.06453
2956.76656,0.06434
2954.83781,0.06399
2952.90907,0.06378
2950.98032,0.06359
2949.05157,0.06332
2947.12283,0.06316
2945.19408,0.06322
2943.26534,0.06351
2941.33659,0.06376
2939.40785,0.06361
2937.47910,0.06342
2935.55036,0.06362
2933.62161,0.06403
2931.69287,0.06457
2929.76412,0.06523
2927.83538,0.06570
2925.90663,0.06615
2923.97789,0.06695
2922.04914,0.06786
2920.12040,0.06842
2918.19165,0.06870
2916.26290,0.06889
2914.33416,0.06907
2912.40541,0.06925
2910.47667,0.06926
2908.54792,0.06909
2906.61918,0.06897
2904.69043,0.06894
2902.76169,0.06886
2900.83294,0.06878
2898.90420,0.06879
2896.97545,0.06876
2895.04671,0.06866
2893.11796,0.06854
2891.18922,0.06834
2889.26047,0.06821
2887.33172,0.06819
2885.40298,0.06812
2883.47423,0.06794
2881.54549,0.06777
2879.61674,0.06764
2877.68800,0.06747
2875.75925,0.06738
2873.83051,0.06747
2871.90176,0.06753
2869.97302,0.06746
2868.04427,0.06733
2866.11553,0.06722
2864.18678,0.06720
2862.25804,0.06717
2860.32929,0.06713
2858.40055,0.06730
2856.47180,0.06763
2854.54305,0.06791
2852.61431,0.06814
2850.68556,0.06837
2848.75682,0.06853
2846.82807,0.06858
2844.89933,0.06854
2842.97058,0.06850
2841.04184,0.06860
2839.11309,0.06865
2837.18435,0.06852
2835.25560,0.06851
2833.32686,0.06866
2831.39811,0.06871
2829.46937,0.06882
2827.54062,0.06915
2825.61188,0.06948
2823.68313,0.06965
2821.75438,0.06966
2819.82564,0.06953
2817.89689,0.06952
2815.96815,0.06976
2814.03940,0.07002
2812.11066,0.07023
2810.18191,0.07045
2808.25317,0.07053
2806.32442,0.07048
2804.39568,0.07054
2802.46693,0.07074
2800.53819,0.07092
2798.60944,0.07104
2796.68070,0.07126
2794.75195,0.07159
2792.82320,0.07186
2790.89446,0.07210
2788.96571,0.07243
2787.03697,0.07263
2785.10822,0.07246
2783.17948,0.07220
2781.25073,0.07226
2779.32199,0.07260
2777.39324,0.07293
2775.46450,0.07324
2773.53575,0.07360
2771.60701,0.07392
2769.67826,0.07419
2767.74952,0.07454
2765.82077,0.07484
2763.89203,0.07483
2761.96328,0.07477
2760.03453,0.07506
2758.10579,0.07558
2756.17704,0.07595
2754.24830,0.07603
2752.31955,0.07589
2750.39081,0.07593
2748.46206,0.07631
2746.53332,0.07651
2744.60457,0.07628
2742.67583,0.07603
2740.74708,0.07605
2738.81834,0.07610
2736.88959,0.07588
2734.96085,0.07545
2733.03210,0.07510
2731.10336,0.07487
2729.17461,0.07463
2727.24586,0.07450
2725.31712,0.07443
2723.38837,0.07438
2721.45963,0.07446
2719.53088,0.07470
2717.60214,0.07486
2715.67339,0.07490
2713.74465,0.07492
2711.81590,0.07494
2709.88716,0.07482
2707.95841,0.07471
2706.02967,0.07488
2704.10092,0.07511
2702.17218,0.07501
2700.24343,0.07463
2698.31468,0.07431
2696.38594,0.07427
2694.45719,0.07445
2692.52845,0.07451
2690.59970,0.07434
2688.67096,0.07418
2686.74221,0.07422
2684.81347,0.07438
2682.88472,0.07450
2680.95598,0.07445
2679.02723,0.07433
2677.09849,0.07431
2675.16974,0.07427
2673.24100,0.07409
2671.31225,0.07392
2669.38351,0.07391
2667.45476,0.07404
2665.52601,0.07422
2663.59727,0.07452
2661.66852,0.07484
2659.73978,0.07487
2657.81103,0.07454
2655.88229,0.07418
2653.95354,0.07407
2652.02480,0.07423
2650.09605,0.07437
2648.16731,0.07431
2646.23856,0.07416
2644.30982,0.07409
2642.38107,0.07411
2640.45233,0.07403
2638.52358,0.07359
2636.59484,0.07297
2634.66609,0.07250
2632.73734,0.07223
2630.80860,0.07214
2628.87985,0.07233
2626.95111,0.07288
2625.02236,0.07359
2623.09362,0.07415
2621.16487,0.07440
2619.23613,0.07449
2617.30738,0.07458
2615.37864,0.07462
2613.44989,0.07446
2611.52115,0.07419
2609.59240,0.07394
2607.66366,0.07354
2605.73491,0.07295
2603.80616,0.07263
2601.87742,0.07300
2599.94867,0.07374
2598.01993,0.07429
2596.09118,0.07462
2594.16244,0.07489
2592.23369,0.07518
2590.30495,0.07542
2588.37620,0.07539
2586.44746,0.07507
2584.51871,0.07460
2582.58997,0.07412
2580.66122,0.07392
2578.73248,0.07418
2576.80373,0.07469
2574.87499,0.07521
2572.94624,0.07559
2571.01749,0.07576
2569.08875,0.07579
2567.16000,0.07578
2565.23126,0.07576
2563.30251,0.07577
2561.37377,0.07585
2559.44502,0.07599
2557.51628,0.07606
2555.58753,0.07598
2553.65879,0.07586
2551.73004,0.07580
2549.80130,0.07569
2547.87255,0.07546
2545.94381,0.07518
2544.01506,0.07506
2542.08631,0.07525
2540.15757,0.07562
2538.22882,0.07597
2536.30008,0.07617
2534.37133,0.07621
2532.44259,0.07620
2530.51384,0.07626
2528.58510,0.07628
2526.65635,0.07611
2524.72761,0.07592
2522.79886,0.07574
2520.87012,0.07551
2518.94137,0.07534
2517.01263,0.07526
2515.08388,0.07519
2513.15514,0.07510
2511.22639,0.07502
2509.29764,0.07502
2507.36890,0.07508
2505.44015,0.07512
2503.51141,0.07520
2501.58266,0.07544
2499.65392,0.07575
2497.72517,0.07595
2495.79643,0.07597
2493.86768,0.07596
2491.93894,0.07622
2490.01019,0.07664
2488.08145,0.07694
2486.15270,0.07712
2484.22396,0.07724
2482.29521,0.07730
2480.36647,0.07746
2478.43772,0.07776
2476.50897,0.07818
2474.58023,0.07858
2472.65148,0.07882
2470.72274,0.07899
2468.79399,0.07932
2466.86525,0.07988
2464.93650,0.08051
2463.00776,0.08100
2461.07901,0.08121
2459.15027,0.08113
2457.22152,0.08091
2455.29278,0.08069
2453.36403,0.08052
2451.43529,0.08047
2449.50654,0.08067
2447.57779,0.08100
2445.64905,0.08114
2443.72030,0.08101
2441.79156,0.08088
2439.86281,0.08088
2437.93407,0.08099
2436.00532,0.08115
2434.07658,0.08125
2432.14783,0.08129
2430.21909,0.08146
2428.29034,0.08167
2426.36160,0.08177
2424.43285,0.08197
2422.50411,0.08226
2420.57536,0.08234
2418.64662,0.08229
2416.71787,0.08223
2414.78912,0.08204
2412.86038,0.08179
2410.93163,0.08158
2409.00289,0.08134
2407.07414,0.08100
2405.14540,0.08052
2403.21665,0.08001
2401.28791,0.07970
2399.35916,0.07959
2397.43042,0.07964
2395.50167,0.07973
2393.57293,0.07960
2391.64418,0.07936
2389.71544,0.07937
2387.78669,0.07948
2385.85795,0.07930
2383.92920,0.07896
2382.00045,0.07883
2380.07171,0.07886
2378.14296,0.07874
2376.21422,0.07864
2374.28547,0.07867
2372.35673,0.07842
2370.42798,0.07781
2368.49924,0.07731
2366.57049,0.07699
2364.64175,0.07661
2362.71300,0.07631
2360.78426,0.07619
2358.85551,0.07610
2356.92677,0.07595
2354.99802,0.07586
2353.06927,0.07586
2351.14053,0.07571
2349.21178,0.07539
2347.28304,0.07504
2345.35429,0.07453
2343.42555,0.07369
2341.49680,0.07270
2339.56806,0.07180
2337.63931,0.07113
2335.71057,0.07096
2333.78182,0.07150
2331.85308,0.07263
2329.92433,0.07405
2327.99559,0.07541
2326.06684,0.07639
2324.13810,0.07678
2322.20935,0.07663
2320.28060,0.07614
2318.35186,0.07539
2316.42311,0.07446
2314.49437,0.07357
2312.56562,0.07294
2310.63688,0.07294
2308.70813,0.07365
2306.77939,0.07460
2304.85064,0.07555
2302.92190,0.07653
2300.99315,0.07735
2299.06441,0.07767
2297.13566,0.07752
2295.20692,0.07727
2293.27817,0.07726
2291.34943,0.07753
2289.42068,0.07796
2287.49193,0.07851
2285.56319,0.07909
2283.63444,0.07955
2281.70570,0.07986
2279.77695,0.08016
2277.84821,0.08042
2275.91946,0.08039
2273.99072,0.08003
2272.06197,0.07964
2270.13323,0.07928
2268.20448,0.07884
2266.27574,0.07842
2264.34699,0.07816
2262.41825,0.07794
2260.48950,0.07769
2258.56075,0.07744
2256.63201,0.07726
2254.70326,0.07718
2252.77452,0.07719
2250.84577,0.07733
2248.91703,0.07768
2246.98828,0.07819
2245.05954,0.07864
2243.13079,0.07890
2241.20205,0.07913
2239.27330,0.07941
2237.34456,0.07971
2235.41581,0.07992
2233.48707,0.08005
2231.55832,0.08023
2229.62958,0.08048
2227.70083,0.08066
2225.77208,0.08087
2223.84334,0.08112
2221.91459,0.08119
2219.98585,0.08115
2218.05710,0.08121
2216.12836,0.08131
2214.19961,0.08133
2212.27087,0.08124
2210.34212,0.08113
2208.41338,0.08112
2206.48463,0.08130
2204.55589,0.08170
2202.62714,0.08210
2200.69840,0.08230
2198.76965,0.08238
2196.84090,0.08240
2194.91216,0.08226
2192.98341,0.08188
2191.05467,0.08135
2189.12592,0.08087
2187.19718,0.08056
2185.26843,0.08039
2183.33969,0.08046
2181.41094,0.08083
2179.48220,0.08153
2177.55345,0.08232
2175.62471,0.08296
2173.69596,0.08343
2171.76722,0.08378
2169.83847,0.08409
2167.90973,0.08438
2165.98098,0.08455
2164.05223,0.08449
2162.12349,0.08437
2160.19474,0.08430
2158.26600,0.08418
2156.33725,0.08408
2154.40851,0.08413
2152.47976,0.08422
2150.55102,0.08427
2148.62227,0.08432
2146.69353,0.08434
2144.76478,0.08435
2142.83604,0.08450
2140.90729,0.08482
2138.97855,0.08534
2137.04980,0.08589
2135.12106,0.08609
2133.19231,0.08601
2131.26356,0.08605
2129.33482,0.08635
2127.40607,0.08660
2125.47733,0.08654
2123.54858,0.08633
2121.61984,0.08623
2119.69109,0.08622
2117.76235,0.08619
2115.83360,0.08615
2113.90486,0.08618
2111.97611,0.08634
2110.04737,0.08667
2108.11862,0.08707
2106.18988,0.08735
2104.26113,0.08750
2102.33238,0.08761
2100.40364,0.08763
2098.47489,0.08759
2096.54615,0.08767
2094.61740,0.08794
2092.68866,0.08825
2090.75991,0.08842
2088.83117,0.08844
2086.90242,0.08838
2084.97368,0.08819
2083.04493,0.08796
2081.11619,0.08784
2079.18744,0.08762
2077.25870,0.08715
2075.32995,0.08668
2073.40121,0.08646
2071.47246,0.08628
2069.54371,0.08596
2067.61497,0.08569
2065.68622,0.08559
2063.75748,0.08556
2061.82873,0.08551
2059.89999,0.08550
2057.97124,0.08553
2056.04250,0.08548
2054.11375,0.08533
2052.18501,0.08508
2050.25626,0.08487
2048.32752,0.08487
2046.39877,0.08495
2044.47003,0.08491
2042.54128,0.08473
2040.61254,0.08439
2038.68379,0.08391
2036.75504,0.08334
2034.82630,0.08278
2032.89755,0.08229
2030.96881,0.08186
2029.04006,0.08161
2027.11132,0.08162
2025.18257,0.08166
2023.25383,0.08154
2021.32508,0.08142
2019.39634,0.08124
2017.46759,0.08084
2015.53885,0.08038
2013.61010,0.07978
2011.68136,0.07891
2009.75261,0.07815
2007.82386,0.07787
2005.89512,0.07788
2003.96637,0.07777
2002.03763,0.07748
2000.10888,0.07694
1998.18014,0.07608
1996.25139,0.07506
1994.32265,0.07400
1992.39390,0.07286
1990.46516,0.07177
1988.53641,0.07097
1986.60767,0.07053
1984.67892,0.07032
1982.75018,0.07019
1980.82143,0.07003
1978.89269,0.06989
1976.96394,0.06973
1975.03519,0.06939
1973.10645,0.06883
1971.17770,0.06816
1969.24896,0.06757
1967.32021,0.06712
1965.39147,0.06674
1963.46272,0.06634
1961.53398,0.06594
1959.60523,0.06576
1957.67649,0.06581
1955.74774,0.06586
1953.81900,0.06576
1951.89025,0.06556
1949.96151,0.06552
1948.03276,0.06563
1946.10402,0.06580
1944.17527,0.06601
1942.24652,0.06607
1940.31778,0.06598
1938.38903,0.06592
1936.46029,0.06596
1934.53154,0.06617
1932.60280,0.06655
1930.67405,0.06690
1928.74531,0.06718
1926.81656,0.06748
1924.88782,0.06774
1922.95907,0.06800
1921.03033,0.06832
1919.10158,0.06874
1917.17284,0.06926
1915.24409,0.06969
1913.31534,0.06986
1911.38660,0.06987
1909.45785,0.06983
1907.52911,0.06973
1905.60036,0.06947
1903.67162,0.06901
1901.74287,0.06845
1899.81413,0.06788
1897.88538,0.06736
1895.95664,0.06693
1894.02789,0.06658
1892.09915,0.06629
1890.17040,0.06605
1888.24166,0.06581
1886.31291,0.06561
1884.38417,0.06560
1882.45542,0.06574
1880.52667,0.06580
1878.59793,0.06567
1876.66918,0.06551
1874.74044,0.06549
1872.81169,0.06565
1870.88295,0.06580
1868.95420,0.06573
1867.02546,0.06566
1865.09671,0.06588
1863.16797,0.06616
1861.23922,0.06624
1859.31048,0.06637
1857.38173,0.06680
1855.45299,0.06728
1853.52424,0.06766
1851.59549,0.06801
1849.66675,0.06836
1847.73800,0.06874
1845.80926,0.06909
1843.88051,0.06925
1841.95177,0.06927
1840.02302,0.06928
1838.09428,0.06909
1836.16553,0.06867
1834.23679,0.06824
1832.30804,0.06783
1830.37930,0.06732
1828.45055,0.06680
1826.52181,0.06642
1824.59306,0.06607
1822.66432,0.06576
1820.73557,0.06564
1818.80682,0.06568
1816.87808,0.06563
1814.94933,0.06544
1813.02059,0.06534
1811.09184,0.06534
1809.16310,0.06524
1807.23435,0.06508
1805.30561,0.06503
1803.37686,0.06498
1801.44812,0.06480
1799.51937,0.06469
1797.59063,0.06480
1795.66188,0.06508
1793.73314,0.06552
1791.80439,0.06595
1789.87565,0.06617
1787.94690,0.06632
1786.01815,0.06657
1784.08941,0.06690
1782.16066,0.06700
1780.23192,0.06670
1778.30317,0.06631
1776.37443,0.06626
1774.44568,0.06643
1772.51694,0.06664
1770.58819,0.06689
1768.65945,0.06696
1766.73070,0.06670
1764.80196,0.06635
1762.87321,0.06602
1760.94447,0.06563
1759.01572,0.06537
1757.08697,0.06529
1755.15823,0.06520
1753.22948,0.06518
1751.30074,0.06520
1749.37199,0.06512
1747.44325,0.06496
1745.51450,0.06484
1743.58576,0.06480
1741.65701,0.06490
1739.72827,0.06515
1737.79952,0.06550
1735.87078,0.06581
1733.94203,0.06582
1732.01329,0.06558
1730.08454,0.06552
1728.15580,0.06559
1726.22705,0.06573
1724.29830,0.06595
1722.36956,0.06610
1720.44081,0.06631
1718.51207,0.06663
1716.58332,0.06664
1714.65458,0.06641
1712.72583,0.06631
1710.79709,0.06631
1708.86834,0.06637
1706.93960,0.06638
1705.01085,0.06623
1703.08211,0.06612
1701.15336,0.06605
1699.22462,0.06589
1697.29587,0.06573
1695.36713,0.06554
1693.43838,0.06535
1691.50963,0.06524
1689.58089,0.06516
1687.65214,0.06516
1685.72340,0.06514
1683.79465,0.06503
1681.86591,0.06496
1679.93716,0.06479
1678.00842,0.06448
1676.07967,0.06425
1674.15093,0.06423
1672.22218,0.06447
1670.29344,0.06473
1668.36469,0.06477
1666.43595,0.06473
1664.50720,0.06465
1662.57845,0.06454
1660.64971,0.06471
1658.72096,0.06517
1656.79222,0.06564
1654.86347,0.06585
1652.93473,0.06577
1651.00598,0.06570
1649.07724,0.06579
1647.14849,0.06585
1645.21975,0.06567
1643.29100,0.06547
1641.36226,0.06545
1639.43351,0.06550
1637.50477,0.06554
1635.57602,0.06550
1633.64728,0.06540
1631.71853,0.06538
1629.78978,0.06545
1627.86104,0.06549
1625.93229,0.06545
1624.00355,0.06525
1622.07480,0.06487
1620.14606,0.06448
1618.21731,0.06416
1616.28857,0.06374
1614.35982,0.06325
1612.43108,0.06288
1610.50233,0.06254
1608.57359,0.06216
1606.64484,0.06194
1604.71610,0.06210
1602.78735,0.06284
1600.85861,0.06405
1598.92986,0.06520
1597.00111,0.06581
1595.07237,0.06594
1593.14362,0.06583
1591.21488,0.06546
1589.28613,0.06488
1587.35739,0.06456
1585.42864,0.06471
1583.49990,0.06503
1581.57115,0.06521
1579.64241,0.06533
1577.71366,0.06554
1575.78492,0.06571
1573.85617,0.06562
1571.92743,0.06545
1569.99868,0.06550
1568.06993,0.06567
1566.14119,0.06569
1564.21244,0.06564
1562.28370,0.06569
1560.35495,0.06572
1558.42621,0.06530
1556.49746,0.06465
1554.56872,0.06425
1552.63997,0.06410
1550.71123,0.06400
1548.78248,0.06392
1546.85374,0.06403
1544.92499,0.06416
1542.99625,0.06411
1541.06750,0.06394
1539.13876,0.06377
1537.21001,0.06374
1535.28126,0.06386
1533.35252,0.06398
1531.42377,0.06399
1529.49503,0.06403
1527.56628,0.06406
1525.63754,0.06391
1523.70879,0.06369
1521.78005,0.06353
1519.85130,0.06336
1517.92256,0.06314
1515.99381,0.06289
1514.06507,0.06270
1512.13632,0.06259
1510.20758,0.06251
1508.27883,0.06235
1506.35008,0.06186
1504.42134,0.06104
1502.49259,0.06020
1500.56385,0.05931
1498.63510,0.05837
1496.70636,0.05804
1494.77761,0.05972
1492.84887,0.06325
1490.92012,0.06661
1488.99138,0.06798
1487.06263,0.06764
1485.13389,0.06699
1483.20514,0.06643
1481.27640,0.06580
1479.34765,0.06525
1477.41891,0.06501
1475.49016,0.06485
1473.56141,0.06445
1471.63267,0.06391
1469.70392,0.06358
1467.77518,0.06339
1465.84643,0.06313
1463.91769,0.06249
1461.98894,0.06150
1460.06020,0.06056
1458.13145,0.05963
1456.20271,0.05909
1454.27396,0.06059
1452.34522,0.06395
1450.41647,0.06710
1448.48773,0.06855
1446.55898,0.06868
1444.63024,0.06847
1442.70149,0.06827
1440.77274,0.06816
1438.84400,0.06813
1436.91525,0.06791
1434.98651,0.06752
1433.05776,0.06722
1431.12902,0.06693
1429.20027,0.06662
1427.27153,0.06645
1425.34278,0.06637
1423.41404,0.06637
1421.48529,0.06642
1419.55655,0.06642
1417.62780,0.06622
1415.69906,0.06579
1413.77031,0.06538
1411.84156,0.06519
1409.91282,0.06521
1407.98407,0.06532
1406.05533,0.06535
1404.12658,0.06513
1402.19784,0.06490
1400.26909,0.06491
1398.34035,0.06498
1396.41160,0.06489
1394.48286,0.06468
1392.55411,0.06442
1390.62537,0.06424
1388.69662,0.06412
1386.76788,0.06392
1384.83913,0.06367
1382.91039,0.06359
1380.98164,0.06366
1379.05289,0.06375
1377.12415,0.06397
1375.19540,0.06430
1373.26666,0.06455
1371.33791,0.06461
1369.40917,0.06460
1367.48042,0.06466
1365.55168,0.06479
1363.62293,0.06487
1361.69419,0.06488
1359.76544,0.06492
1357.83670,0.06503
1355.90795,0.06512
1353.97921,0.06511
1352.05046,0.06499
1350.12172,0.06487
1348.19297,0.06473
1346.26422,0.06445
1344.33548,0.06426
1342.40673,0.06435
1340.47799,0.06452
1338.54924,0.06456
1336.62050,0.06443
1334.69175,0.06427
1332.76301,0.06431
1330.83426,0.06445
1328.90552,0.06442
1326.97677,0.06432
1325.04803,0.06431
1323.11928,0.06428
1321.19054,0.06410
1319.26179,0.06400
1317.33304,0.06416
1315.40430,0.06438
1313.47555,0.06441
1311.54681,0.06430
1309.61806,0.06441
1307.68932,0.06476
1305.76057,0.06495
1303.83183,0.06484
1301.90308,0.06459
1299.97434,0.06442
1298.04559,0.06436
1296.11685,0.06429
1294.18810,0.06417
1292.25936,0.06416
1290.33061,0.06430
1288.40187,0.06454
1286.47312,0.06475
1284.54437,0.06488
1282.61563,0.06490
1280.68688,0.06488
1278.75814,0.06489
1276.82939,0.06485
1274.90065,0.06469
1272.97190,0.06460
1271.04316,0.06471
1269.11441,0.06488
1267.18567,0.06492
1265.25692,0.06479
1263.32818,0.06459
1261.39943,0.06450
1259.47069,0.06450
1257.54194,0.06446
1255.61320,0.06443
1253.68445,0.06445
1251.75570,0.06448
1249.82696,0.06448
1247.89821,0.06452
1245.96947,0.06463
1244.04072,0.06462
1242.11198,0.06448
1240.18323,0.06450
1238.25449,0.06456
1236.32574,0.06442
1234.39700,0.06426
1232.46825,0.06423
1230.53951,0.06427
1228.61076,0.06433
1226.68202,0.06439
1224.75327,0.06436
1222.82452,0.06429
1220.89578,0.06426
1218.96703,0.06428
1217.03829,0.06426
1215.10954,0.06421
1213.18080,0.06421
1211.25205,0.06420
1209.32331,0.06411
1207.39456,0.06398
1205.46582,0.06372
1203.53707,0.06330
1201.60833,0.06300
1199.67958,0.06301
1197.75084,0.06335
1195.82209,0.06374
1193.89335,0.06389
1191.96460,0.06382
1190.03585,0.06376
1188.10711,0.06374
1186.17836,0.06363
1184.24962,0.06352
1182.32087,0.06365
1180.39213,0.06400
1178.46338,0.06431
1176.53464,0.06445
1174.60589,0.06442
1172.67715,0.06427
1170.74840,0.06409
1168.81966,0.06388
1166.89091,0.06380
1164.96217,0.06407
1163.03342,0.06426
1161.10467,0.06409
1159.17593,0.06389
1157.24718,0.06393
1155.31844,0.06429
1153.38969,0.06485
1151.46095,0.06520
1149.53220,0.06505
1147.60346,0.06466
1145.67471,0.06447
1143.74597,0.06470
1141.81722,0.06522
1139.88848,0.06561
1137.95973,0.06563
1136.03099,0.06545
1134.10224,0.06526
1132.17350,0.06499
1130.24475,0.06477
1128.31600,0.06474
1126.38726,0.06477
1124.45851,0.06458
1122.52977,0.06410
1120.60102,0.06364
1118.67228,0.06355
1116.74353,0.06378
1114.81479,0.06399
1112.88604,0.06411
1110.95730,0.06419
1109.02855,0.06408
1107.09981,0.06381
1105.17106,0.06371
1103.24232,0.06386
1101.31357,0.06398
1099.38483,0.06396
1097.45608,0.06385
1095.52733,0.06367
1093.59859,0.06350
1091.66984,0.06322
1089.74110,0.06280
1087.81235,0.06238
1085.88361,0.06198
1083.95486,0.06184
1082.02612,0.06199
1080.09737,0.06206
1078.16863,0.06197
1076.23988,0.06204
1074.31114,0.06231
1072.38239,0.06248
1070.45365,0.06247
1068.52490,0.06253
1066.59615,0.06279
1064.66741,0.06323
1062.73866,0.06366
1060.80992,0.06375
1058.88117,0.06342
1056.95243,0.06303
1055.02368,0.06300
1053.09494,0.06333
1051.16619,0.06373
1049.23745,0.06386
1047.30870,0.06354
1045.37996,0.06297
1043.45121,0.06255
1041.52247,0.06245
1039.59372,0.06255
1037.66498,0.06247
1035.73623,0.06207
1033.80748,0.06190
1031.87874,0.06238
1029.94999,0.06312
1028.02125,0.06373
1026.09250,0.06429
1024.16376,0.06475
1022.23501,0.06504
1020.30627,0.06528
1018.37752,0.06531
1016.44878,0.06513
1014.52003,0.06505
1012.59129,0.06510
1010.66254,0.06510
1008.73380,0.06488
1006.80505,0.06448
1004.87631,0.06420
1002.94756,0.06431
1001.01881,0.06454
999.09007,0.06457
997.16132,0.06452
995.23258,0.06446
993.30383,0.06426
991.37509,0.06387
989.44634,0.06340
987.51760,0.06313
985.58885,0.06318
983.66011,0.06323
981.73136,0.06328
979.80262,0.06336
977.87387,0.06305
975.94513,0.06259
974.01638,0.06271
972.08763,0.06316
970.15889,0.06325
968.23014,0.06300
966.30140,0.06294
964.37265,0.06320
962.44391,0.06335
960.51516,0.06314
958.58642,0.06286
956.65767,0.06279
954.72893,0.06278
952.80018,0.06270
950.87144,0.06263
948.94269,0.06258
947.01395,0.06263
945.08520,0.06282
943.15646,0.06298
941.22771,0.06318
939.29896,0.06358
937.37022,0.06364
935.44147,0.06300
933.51273,0.06237
931.58398,0.06229
929.65524,0.06232
927.72649,0.06211
925.79775,0.06187
923.86900,0.06189
921.94026,0.06203
920.01151,0.06190
918.08277,0.06155
916.15402,0.06137
914.22528,0.06134
912.29653,0.06126
910.36779,0.06117
908.43904,0.06133
906.51029,0.06180
904.58155,0.06238
902.65280,0.06281
900.72406,0.06315
898.79531,0.06335
896.86657,0.06318
894.93782,0.06284
893.00908,0.06258
891.08033,0.06241
889.15159,0.06246
887.22284,0.06254
885.29410,0.06232
883.36535,0.06199
881.43661,0.06173
879.50786,0.06149
877.57911,0.06140
875.65037,0.06146
873.72162,0.06150
871.79288,0.06165
869.86413,0.06192
867.93539,0.06209
866.00664,0.06205
864.07790,0.06184
862.14915,0.06171
860.22041,0.06166
858.29166,0.06160
856.36292,0.06145
854.43417,0.06109
852.50543,0.06075
850.57668,0.06076
848.64794,0.06081
846.71919,0.06064
844.79044,0.06052
842.86170,0.06056
840.93295,0.06057
839.00421,0.06046
837.07546,0.06030
835.14672,0.06017
833.21797,0.06021
831.28923,0.06070
829.36048,0.06124
827.43174,0.06110
825.50299,0.06067
823.57425,0.06060
821.64550,0.06051
819.71676,0.06017
817.78801,0.06000
815.85926,0.05993
813.93052,0.05962
812.00177,0.05931
810.07303,0.05932
808.14428,0.05926
806.21554,0.05872
804.28679,0.05814
802.35805,0.05789
800.42930,0.05761
798.50056,0.05712
796.57181,0.05690
794.64307,0.05685
792.71432,0.05641
790.78558,0.05587
788.85683,0.05570
786.92809,0.05552
784.99934,0.05497
783.07059,0.05438
781.14185,0.05395
779.21310,0.05338
777.28436,0.05249
775.35561,0.05173
773.42687,0.05149
771.49812,0.05175
769.56938,0.05232
767.64063,0.05286
765.71189,0.05343
763.78314,0.05440
761.85440,0.05556
759.92565,0.05686
757.99691,0.05864
756.06816,0.06044
754.13942,0.06168
752.21067,0.06268
750.28192,0.06378
748.35318,0.06463
746.42443,0.06507
744.49569,0.06555
742.56694,0.06617
740.63820,0.06633
738.70945,0.06548
736.78071,0.06400
734.85196,0.06249
732.92322,0.06104
730.99447,0.05978
729.06573,0.05872
727.13698,0.05772
725.20824,0.05691
723.27949,0.05634
721.35074,0.05567
719.42200,0.05452
717.49325,0.05275
715.56451,0.05038
713.63576,0.04752
711.70702,0.04446
709.77827,0.04155
707.84953,0.03948
705.92078,0.04039
703.99204,0.04781
702.06329,0.06425
700.13455,0.08824
698.20580,0.11190
696.27706,0.12432
694.34831,0.12168
692.41957,0.11055
690.49082,0.09941
688.56207,0.09168
686.63333,0.08671
684.70458,0.08291
682.77584,0.07993
680.84709,0.07826
678.91835,0.07757
676.98960,0.07679
675.06086,0.07542
673.13211,0.07406
671.20337,0.07344
669.27462,0.07353
667.34588,0.07361
665.41713,0.07328
663.48839,0.07290
661.55964,0.07224
659.63090,0.07098
657.70215,0.07005
655.77340,0.07030
653.84466,0.07108
651.91591,0.07119
649.98717,0.07057
648.05842,0.06977
646.12968,0.06904
644.20093,0.06859
642.27219,0.06824
640.34344,0.06790
638.41470,0.06792
636.48595,0.06816
634.55721,0.06799
632.62846,0.06736
630.69972,0.06664
628.77097,0.06604
626.84222,0.06612
624.91348,0.06658
622.98473,0.06643
621.05599,0.06631
619.12724,0.06687
617.19850,0.06731
615.26975,0.06745
613.34101,0.06753
611.41226,0.06719
609.48352,0.06678
607.55477,0.06736
605.62603,0.06835
603.69728,0.06791
601.76854,0.06608
599.83979,0.06508
