7497.03301,0.81884
7495.10426,0.82001
7493.17552,0.82759
7491.24677,0.83697
7489.31803,0.84102
7487.38928,0.83752
7485.46054,0.83158
7483.53179,0.82953
7481.60305,0.82857
7479.67430,0.82382
7477.74556,0.81998
7475.81681,0.82220
7473.88807,0.82602
7471.95932,0.82556
7470.03057,0.82441
7468.10183,0.82563
7466.17308,0.82499
7464.24434,0.82023
7462.31559,0.81167
7460.38685,0.80412
7458.45810,0.80432
7456.52936,0.80851
7454.60061,0.80904
7452.67187,0.80804
7450.74312,0.80914
7448.81438,0.80913
7446.88563,0.80680
7444.95689,0.80469
7443.02814,0.80295
7441.09940,0.80009
7439.17065,0.79565
7437.24190,0.79326
7435.31316,0.79540
7433.38441,0.79741
7431.45567,0.79657
7429.52692,0.79617
7427.59818,0.79962
7425.66943,0.80593
7423.74069,0.80948
7421.81194,0.80800
7419.88320,0.80458
7417.95445,0.80285
7416.02571,0.80331
7414.09696,0.80203
7412.16822,0.80011
7410.23947,0.80418
7408.31073,0.81098
7406.38198,0.80923
7404.45323,0.79939
7402.52449,0.79387
7400.59574,0.79699
7398.66700,0.80073
7396.73825,0.80048
7394.80951,0.80064
7392.88076,0.80377
7390.95202,0.80725
7389.02327,0.80955
7387.09453,0.81172
7385.16578,0.81597
7383.23704,0.81875
7381.30829,0.81528
7379.37955,0.81313
7377.45080,0.81654
7375.52205,0.81707
7373.59331,0.81257
7371.66456,0.80999
7369.73582,0.81173
7367.80707,0.81287
7365.87833,0.80827
7363.94958,0.79957
7362.02084,0.79633
7360.09209,0.80186
7358.16335,0.80600
7356.23460,0.80583
7354.30586,0.80846
7352.37711,0.81052
7350.44837,0.80461
7348.51962,0.79715
7346.59088,0.79664
7344.66213,0.79959
7342.73338,0.80323
7340.80464,0.80898
7338.87589,0.81131
7336.94715,0.80626
7335.01840,0.79928
7333.08966,0.79469
7331.16091,0.79268
7329.23217,0.79368
7327.30342,0.79541
7325.37468,0.79334
7323.44593,0.78747
7321.51719,0.78197
7319.58844,0.78098
7317.65970,0.78346
7315.73095,0.78465
7313.80221,0.78285
7311.87346,0.77884
7309.94471,0.77440
7308.01597,0.77125
7306.08722,0.77051
7304.15848,0.77265
7302.22973,0.77439
7300.30099,0.77356
7298.37224,0.77223
7296.44350,0.77088
7294.51475,0.76966
7292.58601,0.76938
7290.65726,0.76874
7288.72852,0.76696
7286.79977,0.76391
7284.87103,0.75944
7282.94228,0.75643
7281.01353,0.75544
7279.08479,0.75341
7277.15604,0.75142
7275.22730,0.75102
7273.29855,0.75071
7271.36981,0.75035
7269.44106,0.74868
7267.51232,0.74377
7265.58357,0.73817
7263.65483,0.73652
7261.72608,0.73917
7259.79734,0.74015
7257.86859,0.73591
7255.93985,0.73058
7254.01110,0.72810
7252.08236,0.72833
7250.15361,0.72889
7248.22486,0.72784
7246.29612,0.72799
7244.36737,0.73207
7242.43863,0.73442
7240.50988,0.73032
7238.58114,0.72537
7236.65239,0.72358
7234.72365,0.72262
7232.79490,0.72128
7230.86616,0.72142
7228.93741,0.72326
7227.00867,0.72183
7225.07992,0.71644
7223.15118,0.71398
7221.22243,0.71654
7219.29369,0.71923
7217.36494,0.71789
7215.43619,0.71528
7213.50745,0.71537
7211.57870,0.71544
7209.64996,0.71361
7207.72121,0.71260
7205.79247,0.71302
7203.86372,0.71319
7201.93498,0.71252
7200.00623,0.70803
7198.07749,0.69929
7196.14874,0.69523
7194.22000,0.70034
7192.29125,0.70771
7190.36251,0.71007
7188.43376,0.70652
7186.50501,0.70166
7184.57627,0.70066
7182.64752,0.70440
7180.71878,0.70880
7178.79003,0.70978
7176.86129,0.70694
7174.93254,0.70044
7173.00380,0.69272
7171.07505,0.69080
7169.14631,0.69530
7167.21756,0.69753
7165.28882,0.69605
7163.36007,0.69649
7161.43133,0.69938
7159.50258,0.70290
7157.57384,0.70567
7155.64509,0.70589
7153.71634,0.70288
7151.78760,0.69882
7149.85885,0.69640
7147.93011,0.69543
7146.00136,0.69561
7144.07262,0.69790
7142.14387,0.70038
7140.21513,0.69866
7138.28638,0.69453
7136.35764,0.69395
7134.42889,0.69562
7132.50015,0.69532
7130.57140,0.69343
7128.64266,0.69206
7126.71391,0.69168
7124.78516,0.69202
7122.85642,0.69338
7120.92767,0.69424
7118.99893,0.69218
7117.07018,0.68921
7115.14144,0.68820
7113.21269,0.68812
7111.28395,0.68799
7109.35520,0.68723
7107.42646,0.68502
7105.49771,0.68198
7103.56897,0.67877
7101.64022,0.67808
7099.71148,0.68129
7097.78273,0.68348
7095.85399,0.68066
7093.92524,0.67554
7091.99649,0.67331
7090.06775,0.67483
7088.13900,0.67575
7086.21026,0.67344
7084.28151,0.67107
7082.35277,0.67108
7080.42402,0.67108
7078.49528,0.67023
7076.56653,0.67176
7074.63779,0.67566
7072.70904,0.67742
7070.78030,0.67588
7068.85155,0.67365
7066.92281,0.67222
7064.99406,0.67090
7063.06532,0.66932
7061.13657,0.67071
7059.20782,0.67568
7057.27908,0.68058
7055.35033,0.68400
7053.42159,0.68364
7051.49284,0.67810
7049.56410,0.67401
7047.63535,0.67705
7045.70661,0.68228
7043.77786,0.68399
7041.84912,0.68334
7039.92037,0.68248
7037.99163,0.68343
7036.06288,0.68707
7034.13414,0.68993
7032.20539,0.68897
7030.27664,0.68691
7028.34790,0.68837
7026.41915,0.69262
7024.49041,0.69601
7022.56166,0.69690
7020.63292,0.69476
7018.70417,0.69106
7016.77543,0.68894
7014.84668,0.68872
7012.91794,0.68865
7010.98919,0.68921
7009.06045,0.69085
7007.13170,0.69140
7005.20296,0.68898
7003.27421,0.68458
7001.34547,0.68299
6999.41672,0.68663
6997.48797,0.69107
6995.55923,0.69202
6993.63048,0.69025
6991.70174,0.68952
6989.77299,0.69074
6987.84425,0.69074
6985.91550,0.68992
6983.98676,0.68992
6982.05801,0.68834
6980.12927,0.68583
6978.20052,0.68738
6976.27178,0.69314
6974.34303,0.69595
6972.41429,0.69208
6970.48554,0.68823
6968.55680,0.68959
6966.62805,0.69279
6964.69930,0.69353
6962.77056,0.69168
6960.84181,0.69154
6958.91307,0.69493
6956.98432,0.69733
6955.05558,0.69617
6953.12683,0.69377
6951.19809,0.69236
6949.26934,0.69241
6947.34060,0.69350
6945.41185,0.69477
6943.48311,0.69546
6941.55436,0.69513
6939.62562,0.69400
6937.69687,0.69461
6935.76812,0.69867
6933.83938,0.70230
6931.91063,0.70205
6929.98189,0.70062
6928.05314,0.70078
6926.12440,0.70170
6924.19565,0.70267
6922.26691,0.70258
6920.33816,0.69991
6918.40942,0.69668
6916.48067,0.69627
6914.55193,0.69982
6912.62318,0.70543
6910.69444,0.70825
6908.76569,0.70718
6906.83695,0.70702
6904.90820,0.70904
6902.97945,0.70984
6901.05071,0.70923
6899.12196,0.70845
6897.19322,0.70709
6895.26447,0.70720
6893.33573,0.71097
6891.40698,0.71564
6889.47824,0.71667
6887.54949,0.71488
6885.62075,0.71432
6883.69200,0.71460
6881.76326,0.71533
6879.83451,0.71797
6877.90577,0.71976
6875.97702,0.71881
6874.04828,0.71752
6872.11953,0.71749
6870.19078,0.71943
6868.26204,0.72275
6866.33329,0.72419
6864.40455,0.72369
6862.47580,0.72509
6860.54706,0.72789
6858.61831,0.72891
6856.68957,0.72803
6854.76082,0.72682
6852.83208,0.72699
6850.90333,0.72884
6848.97459,0.73102
6847.04584,0.73244
6845.11710,0.73178
6843.18835,0.72874
6841.25960,0.72641
6839.33086,0.72785
6837.40211,0.73109
6835.47337,0.73239
6833.54462,0.73256
6831.61588,0.73317
6829.68713,0.73231
6827.75839,0.73059
6825.82964,0.73156
6823.90090,0.73393
6821.97215,0.73426
6820.04341,0.73423
6818.11466,0.73568
6816.18592,0.73616
6814.25717,0.73487
6812.32843,0.73466
6810.39968,0.73654
6808.47093,0.73765
6806.54219,0.73606
6804.61344,0.73387
6802.68470,0.73248
6800.75595,0.73133
6798.82721,0.72999
6796.89846,0.72792
6794.96972,0.72723
6793.04097,0.73048
6791.11223,0.73541
6789.18348,0.73835
6787.25474,0.73889
6785.32599,0.73809
6783.39725,0.73728
6781.46850,0.73878
6779.53975,0.74155
6777.61101,0.74196
6775.68226,0.74025
6773.75352,0.73894
6771.82477,0.73931
6769.89603,0.74169
6767.96728,0.74525
6766.03854,0.74780
6764.10979,0.74671
6762.18105,0.74274
6760.25230,0.74082
6758.32356,0.74256
6756.39481,0.74384
6754.46607,0.74212
6752.53732,0.74020
6750.60858,0.74089
6748.67983,0.74261
6746.75108,0.74340
6744.82234,0.74405
6742.89359,0.74401
6740.96485,0.74173
6739.03610,0.73935
6737.10736,0.73948
6735.17861,0.74031
6733.24987,0.74000
6731.32112,0.74123
6729.39238,0.74566
6727.46363,0.75051
6725.53489,0.75254
6723.60614,0.75134
6721.67740,0.74950
6719.74865,0.74960
6717.81991,0.75010
6715.89116,0.74837
6713.96241,0.74594
6712.03367,0.74539
6710.10492,0.74609
6708.17618,0.74643
6706.24743,0.74619
6704.31869,0.74591
6702.38994,0.74654
6700.46120,0.74916
6698.53245,0.75161
6696.60371,0.75229
6694.67496,0.75364
6692.74622,0.75491
6690.81747,0.75405
6688.88873,0.75314
6686.95998,0.75266
6685.03123,0.75201
6683.10249,0.75382
6681.17374,0.75808
6679.24500,0.76030
6677.31625,0.75995
6675.38751,0.76031
6673.45876,0.76124
6671.53002,0.76087
6669.60127,0.76001
6667.67253,0.76081
6665.74378,0.76326
6663.81504,0.76450
6661.88629,0.76297
6659.95755,0.76189
6658.02880,0.76427
6656.10006,0.76735
6654.17131,0.76835
6652.24256,0.76802
6650.31382,0.76686
6648.38507,0.76494
6646.45633,0.76306
6644.52758,0.76250
6642.59884,0.76320
6640.67009,0.76434
6638.74135,0.76579
6636.81260,0.76686
6634.88386,0.76785
6632.95511,0.76944
6631.02637,0.77057
6629.09762,0.77064
6627.16888,0.77061
6625.24013,0.77121
6623.31139,0.77122
6621.38264,0.76930
6619.45389,0.76720
6617.52515,0.76743
6615.59640,0.76905
6613.66766,0.76939
6611.73891,0.76858
6609.81017,0.76821
6607.88142,0.76782
6605.95268,0.76720
6604.02393,0.76740
6602.09519,0.76843
6600.16644,0.76957
6598.23770,0.76983
6596.30895,0.76941
6594.38021,0.76974
6592.45146,0.77059
6590.52271,0.77190
6588.59397,0.77409
6586.66522,0.77610
6584.73648,0.77730
6582.80773,0.77768
6580.87899,0.77736
6578.95024,0.77661
6577.02150,0.77684
6575.09275,0.77895
6573.16401,0.78110
6571.23526,0.78244
6569.30652,0.78340
6567.37777,0.78328
6565.44903,0.78149
6563.52028,0.77864
6561.59154,0.77645
6559.66279,0.77611
6557.73404,0.77702
6555.80530,0.77821
6553.87655,0.77934
6551.94781,0.77976
6550.01906,0.77940
6548.09032,0.77902
6546.16157,0.77819
6544.23283,0.77833
6542.30408,0.78061
6540.37534,0.78158
6538.44659,0.78025
6536.51785,0.77897
6534.58910,0.77823
6532.66036,0.77835
6530.73161,0.78026
6528.80287,0.78412
6526.87412,0.78738
6524.94537,0.78794
6523.01663,0.78781
6521.08788,0.78809
6519.15914,0.78746
6517.23039,0.78638
6515.30165,0.78647
6513.37290,0.78756
6511.44416,0.78809
6509.51541,0.78839
6507.58667,0.78943
6505.65792,0.79087
6503.72918,0.79273
6501.80043,0.79344
6499.87169,0.79269
6497.94294,0.79395
6496.01419,0.79661
6494.08545,0.79781
6492.15670,0.79847
6490.22796,0.79814
6488.29921,0.79608
6486.37047,0.79495
6484.44172,0.79570
6482.51298,0.79618
6480.58423,0.79609
6478.65549,0.79770
6476.72674,0.80085
6474.79800,0.80253
6472.86925,0.80172
6470.94051,0.79961
6469.01176,0.79751
6467.08302,0.79647
6465.15427,0.79714
6463.22552,0.79913
6461.29678,0.80121
6459.36803,0.80200
6457.43929,0.80014
6455.51054,0.79752
6453.58180,0.79712
6451.65305,0.79870
6449.72431,0.80178
6447.79556,0.80390
6445.86682,0.80231
6443.93807,0.80020
6442.00933,0.80075
6440.08058,0.80328
6438.15184,0.80592
6436.22309,0.80658
6434.29434,0.80521
6432.36560,0.80346
6430.43685,0.80252
6428.50811,0.80227
6426.57936,0.80150
6424.65062,0.79983
6422.72187,0.79775
6420.79313,0.79700
6418.86438,0.79919
6416.93564,0.80218
6415.00689,0.80373
6413.07815,0.80478
6411.14940,0.80459
6409.22066,0.80107
6407.29191,0.79649
6405.36317,0.79507
6403.43442,0.79777
6401.50567,0.80238
6399.57693,0.80475
6397.64818,0.80355
6395.71944,0.80186
6393.79069,0.80080
6391.86195,0.79860
6389.93320,0.79572
6388.00446,0.79435
6386.07571,0.79409
6384.14697,0.79305
6382.21822,0.79167
6380.28948,0.79170
6378.36073,0.79346
6376.43199,0.79449
6374.50324,0.79211
6372.57450,0.78799
6370.64575,0.78650
6368.71700,0.78896
6366.78826,0.79179
6364.85951,0.79109
6362.93077,0.78753
6361.00202,0.78409
6359.07328,0.78275
6357.14453,0.78377
6355.21579,0.78519
6353.28704,0.78571
6351.35830,0.78628
6349.42955,0.78680
6347.50081,0.78684
6345.57206,0.78717
6343.64332,0.78709
6341.71457,0.78496
6339.78582,0.78216
6337.85708,0.78107
6335.92833,0.78172
6333.99959,0.78336
6332.07084,0.78463
6330.14210,0.78356
6328.21335,0.78070
6326.28461,0.77872
6324.35586,0.77874
6322.42712,0.78000
6320.49837,0.78118
6318.56963,0.78064
6316.64088,0.77822
6314.71214,0.77580
6312.78339,0.77487
6310.85465,0.77506
6308.92590,0.77434
6306.99715,0.77215
6305.06841,0.76974
6303.13966,0.76840
6301.21092,0.76874
6299.28217,0.76935
6297.35343,0.76831
6295.42468,0.76539
6293.49594,0.76270
6291.56719,0.76288
6289.63845,0.76467
6287.70970,0.76510
6285.78096,0.76487
6283.85221,0.76628
6281.92347,0.76857
6279.99472,0.76915
6278.06598,0.76737
6276.13723,0.76496
6274.20848,0.76310
6272.27974,0.76110
6270.35099,0.75912
6268.42225,0.75827
6266.49350,0.75903
6264.56476,0.76040
6262.63601,0.75981
6260.70727,0.75708
6258.77852,0.75427
6256.84978,0.75227
6254.92103,0.75017
6252.99229,0.74682
6251.06354,0.74385
6249.13480,0.74262
6247.20605,0.74135
6245.27730,0.73982
6243.34856,0.73950
6241.41981,0.73936
6239.49107,0.73773
6237.56232,0.73566
6235.63358,0.73399
6233.70483,0.73194
6231.77609,0.73019
6229.84734,0.72881
6227.91860,0.72585
6225.98985,0.72171
6224.06111,0.71836
6222.13236,0.71545
6220.20362,0.71342
6218.27487,0.71340
6216.34613,0.71312
6214.41738,0.71066
6212.48863,0.70834
6210.55989,0.70832
6208.63114,0.70898
6206.70240,0.70722
6204.77365,0.70276
6202.84491,0.69878
6200.91616,0.69636
6198.98742,0.69252
6197.05867,0.68655
6195.12993,0.68120
6193.20118,0.67757
6191.27244,0.67502
6189.34369,0.67314
6187.41495,0.67067
6185.48620,0.66641
6183.55746,0.66076
6181.62871,0.65451
6179.69996,0.64939
6177.77122,0.64660
6175.84247,0.64372
6173.91373,0.63822
6171.98498,0.63123
6170.05624,0.62412
6168.12749,0.61636
6166.19875,0.60829
6164.27000,0.60131
6162.34126,0.59557
6160.41251,0.58945
6158.48377,0.58128
6156.55502,0.57173
6154.62628,0.56245
6152.69753,0.55384
6150.76878,0.54554
6148.84004,0.53740
6146.91129,0.53055
6144.98255,0.52543
6143.05380,0.52004
6141.12506,0.51304
6139.19631,0.50612
6137.26757,0.50149
6135.33882,0.49911
6133.41008,0.49704
6131.48133,0.49331
6129.55259,0.48752
6127.62384,0.48088
6125.69510,0.47437
6123.76635,0.46839
6121.83761,0.46286
6119.90886,0.45695
6117.98011,0.45049
6116.05137,0.44424
6114.12262,0.43901
6112.19388,0.43525
6110.26513,0.43309
6108.33639,0.43286
6106.40764,0.43402
6104.47890,0.43507
6102.55015,0.43638
6100.62141,0.43898
6098.69266,0.44152
6096.76392,0.44276
6094.83517,0.44322
6092.90643,0.44340
6090.97768,0.44340
6089.04893,0.44284
6087.12019,0.44133
6085.19144,0.43906
6083.26270,0.43612
6081.33395,0.43305
6079.40521,0.43048
6077.47646,0.42835
6075.54772,0.42734
6073.61897,0.42809
6071.69023,0.42970
6069.76148,0.43239
6067.83274,0.43771
6065.90399,0.44487
6063.97525,0.45226
6062.04650,0.45984
6060.11776,0.46722
6058.18901,0.47340
6056.26026,0.47715
6054.33152,0.47825
6052.40277,0.47838
6050.47403,0.47884
6048.54528,0.47892
6046.61654,0.47675
6044.68779,0.47192
6042.75905,0.46573
6040.83030,0.45904
6038.90156,0.45179
6036.97281,0.44381
6035.04407,0.43556
6033.11532,0.42673
6031.18658,0.41649
6029.25783,0.40565
6027.32909,0.39585
6025.40034,0.38692
6023.47159,0.37720
6021.54285,0.36680
6019.61410,0.35665
6017.68536,0.34639
6015.75661,0.33637
6013.82787,0.32702
6011.89912,0.31739
6009.97038,0.30780
6008.04163,0.29965
6006.11289,0.29257
6004.18414,0.28524
6002.25540,0.27755
6000.32665,0.27066
5998.39791,0.26490
5996.46916,0.25915
5994.54041,0.25341
5992.61167,0.24821
5990.68292,0.24338
5988.75418,0.23924
5986.82543,0.23547
5984.89669,0.23089
5982.96794,0.22513
5981.03920,0.21901
5979.11045,0.21352
5977.18171,0.20903
5975.25296,0.20594
5973.32422,0.20445
5971.39547,0.20367
5969.46673,0.20180
5967.53798,0.19796
5965.60924,0.19410
5963.68049,0.19218
5961.75174,0.19182
5959.82300,0.19267
5957.89425,0.19459
5955.96551,0.19594
5954.03676,0.19518
5952.10802,0.19310
5950.17927,0.19167
5948.25053,0.19137
5946.32178,0.19140
5944.39304,0.19173
5942.46429,0.19265
5940.53555,0.19370
5938.60680,0.19480
5936.67806,0.19607
5934.74931,0.19757
5932.82057,0.20005
5930.89182,0.20325
5928.96307,0.20543
5927.03433,0.20612
5925.10558,0.20702
5923.17684,0.20898
5921.24809,0.21045
5919.31935,0.21072
5917.39060,0.21104
5915.46186,0.21188
5913.53311,0.21279
5911.60437,0.21399
5909.67562,0.21542
5907.74688,0.21693
5905.81813,0.21900
5903.88939,0.22135
5901.96064,0.22325
5900.03189,0.22491
5898.10315,0.22658
5896.17440,0.22771
5894.24566,0.22868
5892.31691,0.23108
5890.38817,0.23491
5888.45942,0.23963
5886.53068,0.24516
5884.60193,0.25016
5882.67319,0.25385
5880.74444,0.25756
5878.81570,0.26246
5876.88695,0.26793
5874.95821,0.27304
5873.02946,0.27759
5871.10072,0.28152
5869.17197,0.28565
5867.24322,0.29044
5865.31448,0.29427
5863.38573,0.29592
5861.45699,0.29603
5859.52824,0.29573
5857.59950,0.29578
5855.67075,0.29635
5853.74201,0.29692
5851.81326,0.29759
5849.88452,0.29905
5847.95577,0.30027
5846.02703,0.29992
5844.09828,0.29906
5842.16954,0.29887
5840.24079,0.29837
5838.31205,0.29699
5836.38330,0.29674
5834.45455,0.29845
5832.52581,0.30003
5830.59706,0.30107
5828.66832,0.30273
5826.73957,0.30391
5824.81083,0.30358
5822.88208,0.30304
5820.95334,0.30352
5819.02459,0.30414
5817.09585,0.30360
5815.16710,0.30279
5813.23836,0.30334
5811.30961,0.30434
5809.38087,0.30449
5807.45212,0.30440
5805.52337,0.30445
5803.59463,0.30414
5801.66588,0.30352
5799.73714,0.30270
5797.80839,0.30171
5795.87965,0.30116
5793.95090,0.30187
5792.02216,0.30343
5790.09341,0.30482
5788.16467,0.30609
5786.23592,0.30733
5784.30718,0.30891
5782.37843,0.31182
5780.44969,0.31553
5778.52094,0.31908
5776.59220,0.32290
5774.66345,0.32758
5772.73470,0.33338
5770.80596,0.33973
5768.87721,0.34546
5766.94847,0.35071
5765.01972,0.35569
5763.09098,0.36001
5761.16223,0.36454
5759.23349,0.36944
5757.30474,0.37394
5755.37600,0.37877
5753.44725,0.38411
5751.51851,0.38864
5749.58976,0.39221
5747.66102,0.39540
5745.73227,0.39830
5743.80352,0.40082
5741.87478,0.40304
5739.94603,0.40497
5738.01729,0.40655
5736.08854,0.40750
5734.15980,0.40728
5732.23105,0.40601
5730.30231,0.40419
5728.37356,0.40135
5726.44482,0.39713
5724.51607,0.39238
5722.58733,0.38738
5720.65858,0.38226
5718.72984,0.37827
5716.80109,0.37529
5714.87235,0.37125
5712.94360,0.36605
5711.01485,0.36121
5709.08611,0.35708
5707.15736,0.35396
5705.22862,0.35188
5703.29987,0.34945
5701.37113,0.34650
5699.44238,0.34421
5697.51364,0.34264
5695.58489,0.34165
5693.65615,0.34138
5691.72740,0.34112
5689.79866,0.34022
5687.86991,0.33864
5685.94117,0.33652
5684.01242,0.33459
5682.08368,0.33288
5680.15493,0.33067
5678.22618,0.32835
5676.29744,0.32690
5674.36869,0.32648
5672.43995,0.32633
5670.51120,0.32585
5668.58246,0.32522
5666.65371,0.32456
5664.72497,0.32382
5662.79622,0.32343
5660.86748,0.32447
5658.93873,0.32694
5657.00999,0.32970
5655.08124,0.33266
5653.15250,0.33627
5651.22375,0.34014
5649.29500,0.34379
5647.36626,0.34727
5645.43751,0.35100
5643.50877,0.35553
5641.58002,0.36045
5639.65128,0.36450
5637.72253,0.36731
5635.79379,0.36902
5633.86504,0.37013
5631.93630,0.37187
5630.00755,0.37394
5628.07881,0.37552
5626.15006,0.37767
5624.22132,0.38060
5622.29257,0.38300
5620.36383,0.38478
5618.43508,0.38620
5616.50633,0.38675
5614.57759,0.38662
5612.64884,0.38658
5610.72010,0.38706
5608.79135,0.38797
5606.86261,0.38836
5604.93386,0.38766
5603.00512,0.38695
5601.07637,0.38691
5599.14763,0.38655
5597.21888,0.38531
5595.29014,0.38385
5593.36139,0.38305
5591.43265,0.38297
5589.50390,0.38245
5587.57516,0.38096
5585.64641,0.37943
5583.71766,0.37876
5581.78892,0.37928
5579.86017,0.38087
5577.93143,0.38308
5576.00268,0.38571
5574.07394,0.38811
5572.14519,0.38950
5570.21645,0.39067
5568.28770,0.39237
5566.35896,0.39389
5564.43021,0.39428
5562.50147,0.39396
5560.57272,0.39434
5558.64398,0.39516
5556.71523,0.39538
5554.78648,0.39560
5552.85774,0.39591
5550.92899,0.39544
5549.00025,0.39446
5547.07150,0.39387
5545.14276,0.39353
5543.21401,0.39291
5541.28527,0.39239
5539.35652,0.39293
5537.42778,0.39389
5535.49903,0.39354
5533.57029,0.39249
5531.64154,0.39256
5529.71280,0.39372
5527.78405,0.39467
5525.85531,0.39446
5523.92656,0.39374
5521.99781,0.39357
5520.06907,0.39383
5518.14032,0.39432
5516.21158,0.39529
5514.28283,0.39649
5512.35409,0.39723
5510.42534,0.39754
5508.49660,0.39843
5506.56785,0.39963
5504.63911,0.39992
5502.71036,0.39992
5500.78162,0.40083
5498.85287,0.40257
5496.92413,0.40476
5494.99538,0.40702
5493.06664,0.40882
5491.13789,0.40979
5489.20914,0.41031
5487.28040,0.41125
5485.35165,0.41244
5483.42291,0.41325
5481.49416,0.41401
5479.56542,0.41493
5477.63667,0.41566
5475.70793,0.41657
5473.77918,0.41789
5471.85044,0.41903
5469.92169,0.41957
5467.99295,0.41952
5466.06420,0.41944
5464.13546,0.41985
5462.20671,0.42074
5460.27796,0.42173
5458.34922,0.42233
5456.42047,0.42236
5454.49173,0.42209
5452.56298,0.42168
5450.63424,0.42096
5448.70549,0.41998
5446.77675,0.41964
5444.84800,0.42028
5442.91926,0.42080
5440.99051,0.42057
5439.06177,0.42004
5437.13302,0.41955
5435.20428,0.41901
5433.27553,0.41807
5431.34679,0.41713
5429.41804,0.41701
5427.48929,0.41710
5425.56055,0.41639
5423.63180,0.41529
5421.70306,0.41470
5419.77431,0.41488
5417.84557,0.41537
5415.91682,0.41595
5413.98808,0.41627
5412.05933,0.41591
5410.13059,0.41567
5408.20184,0.41565
5406.27310,0.41500
5404.34435,0.41384
5402.41561,0.41252
5400.48686,0.41176
5398.55811,0.41186
5396.62937,0.41145
5394.70062,0.41017
5392.77188,0.40921
5390.84313,0.40861
5388.91439,0.40812
5386.98564,0.40831
5385.05690,0.40926
5383.12815,0.40985
5381.19941,0.40952
5379.27066,0.40905
5377.34192,0.40890
5375.41317,0.40873
5373.48443,0.40884
5371.55568,0.40938
5369.62694,0.40960
5367.69819,0.40977
5365.76944,0.41035
5363.84070,0.41073
5361.91195,0.41089
5359.98321,0.41174
5358.05446,0.41351
5356.12572,0.41501
5354.19697,0.41549
5352.26823,0.41616
5350.33948,0.41804
5348.41074,0.42033
5346.48199,0.42202
5344.55325,0.42319
5342.62450,0.42445
5340.69576,0.42613
5338.76701,0.42793
5336.83827,0.42936
5334.90952,0.43041
5332.98077,0.43114
5331.05203,0.43146
5329.12328,0.43180
5327.19454,0.43284
5325.26579,0.43453
5323.33705,0.43606
5321.40830,0.43700
5319.47956,0.43786
5317.55081,0.43911
5315.62207,0.44042
5313.69332,0.44116
5311.76458,0.44098
5309.83583,0.44013
5307.90709,0.43902
5305.97834,0.43804
5304.04959,0.43799
5302.12085,0.43911
5300.19210,0.44027
5298.26336,0.44069
5296.33461,0.44084
5294.40587,0.44103
5292.47712,0.44115
5290.54838,0.44137
5288.61963,0.44169
5286.69089,0.44197
5284.76214,0.44242
5282.83340,0.44328
5280.90465,0.44407
5278.97591,0.44381
5277.04716,0.44301
5275.11842,0.44296
5273.18967,0.44349
5271.26092,0.44377
5269.33218,0.44386
5267.40343,0.44387
5265.47469,0.44351
5263.54594,0.44292
5261.61720,0.44233
5259.68845,0.44184
5257.75971,0.44172
5255.83096,0.44201
5253.90222,0.44235
5251.97347,0.44233
5250.04473,0.44193
5248.11598,0.44163
5246.18724,0.44173
5244.25849,0.44166
5242.32975,0.44132
5240.40100,0.44135
5238.47225,0.44164
5236.54351,0.44162
5234.61476,0.44163
5232.68602,0.44208
5230.75727,0.44246
5228.82853,0.44253
5226.89978,0.44277
5224.97104,0.44326
5223.04229,0.44380
5221.11355,0.44449
5219.18480,0.44562
5217.25606,0.44724
5215.32731,0.44888
5213.39857,0.44999
5211.46982,0.45066
5209.54107,0.45130
5207.61233,0.45164
5205.68358,0.45151
5203.75484,0.45148
5201.82609,0.45172
5199.89735,0.45199
5197.96860,0.45212
5196.03986,0.45219
5194.11111,0.45254
5192.18237,0.45333
5190.25362,0.45428
5188.32488,0.45508
5186.39613,0.45569
5184.46739,0.45610
5182.53864,0.45628
5180.60990,0.45630
5178.68115,0.45609
5176.75240,0.45570
5174.82366,0.45558
5172.89491,0.45602
5170.96617,0.45660
5169.03742,0.45667
5167.10868,0.45612
5165.17993,0.45590
5163.25119,0.45661
5161.32244,0.45755
5159.39370,0.45838
5157.46495,0.45906
5155.53621,0.45910
5153.60746,0.45900
5151.67872,0.45915
5149.74997,0.45885
5147.82123,0.45819
5145.89248,0.45753
5143.96373,0.45651
5142.03499,0.45528
5140.10624,0.45439
5138.17750,0.45385
5136.24875,0.45329
5134.32001,0.45277
5132.39126,0.45259
5130.46252,0.45257
5128.53377,0.45270
5126.60503,0.45285
5124.67628,0.45237
5122.74754,0.45162
5120.81879,0.45137
5118.89005,0.45145
5116.96130,0.45182
5115.03255,0.45272
5113.10381,0.45372
5111.17506,0.45408
5109.24632,0.45439
5107.31757,0.45556
5105.38883,0.45673
5103.46008,0.45683
5101.53134,0.45655
5099.60259,0.45688
5097.67385,0.45768
5095.74510,0.45838
5093.81636,0.45894
5091.88761,0.45924
5089.95887,0.45924
5088.03012,0.45915
5086.10138,0.45883
5084.17263,0.45829
5082.24388,0.45810
5080.31514,0.45836
5078.38639,0.45855
5076.45765,0.45850
5074.52890,0.45855
5072.60016,0.45871
5070.67141,0.45832
5068.74267,0.45753
5066.81392,0.45727
5064.88518,0.45776
5062.95643,0.45859
5061.02769,0.45910
5059.09894,0.45892
5057.17020,0.45863
5055.24145,0.45870
5053.31270,0.45883
5051.38396,0.45868
5049.45521,0.45790
5047.52647,0.45692
5045.59772,0.45688
5043.66898,0.45750
5041.74023,0.45730
5039.81149,0.45639
5037.88274,0.45587
5035.95400,0.45609
5034.02525,0.45684
5032.09651,0.45781
5030.16776,0.45864
5028.23902,0.45936
5026.31027,0.46005
5024.38153,0.46031
5022.45278,0.46012
5020.52403,0.45980
5018.59529,0.45952
5016.66654,0.45932
5014.73780,0.45929
5012.80905,0.45961
5010.88031,0.45983
5008.95156,0.45953
5007.02282,0.45929
5005.09407,0.45929
5003.16533,0.45898
5001.23658,0.45819
4999.30784,0.45721
4997.37909,0.45607
4995.45035,0.45477
4993.52160,0.45375
4991.59286,0.45326
4989.66411,0.45261
4987.73536,0.45134
4985.80662,0.44993
4983.87787,0.44883
4981.94913,0.44842
4980.02038,0.44866
4978.09164,0.44897
4976.16289,0.44909
4974.23415,0.44906
4972.30540,0.44901
4970.37666,0.44916
4968.44791,0.44963
4966.51917,0.45002
4964.59042,0.44999
4962.66168,0.45012
4960.73293,0.45067
4958.80418,0.45109
4956.87544,0.45136
4954.94669,0.45153
4953.01795,0.45129
4951.08920,0.45071
4949.16046,0.45009
4947.23171,0.44956
4945.30297,0.44934
4943.37422,0.44953
4941.44548,0.44943
4939.51673,0.44858
4937.58799,0.44790
4935.65924,0.44789
4933.73050,0.44787
4931.80175,0.44764
4929.87301,0.44777
4927.94426,0.44849
4926.01551,0.44931
4924.08677,0.44965
4922.15802,0.44968
4920.22928,0.44964
4918.30053,0.44930
4916.37179,0.44883
4914.44304,0.44872
4912.51430,0.44872
4910.58555,0.44837
4908.65681,0.44788
4906.72806,0.44749
4904.79932,0.44725
4902.87057,0.44726
4900.94183,0.44721
4899.01308,0.44670
4897.08434,0.44607
4895.15559,0.44544
4893.22684,0.44454
4891.29810,0.44403
4889.36935,0.44395
4887.44061,0.44333
4885.51186,0.44230
4883.58312,0.44119
4881.65437,0.43961
4879.72563,0.43768
4877.79688,0.43604
4875.86814,0.43513
4873.93939,0.43480
4872.01065,0.43457
4870.08190,0.43424
4868.15316,0.43374
4866.22441,0.43301
4864.29566,0.43223
4862.36692,0.43170
4860.43817,0.43162
4858.50943,0.43177
4856.58068,0.43171
4854.65194,0.43115
4852.72319,0.42992
4850.79445,0.42823
4848.86570,0.42674
4846.93696,0.42557
4845.00821,0.42433
4843.07947,0.42304
4841.15072,0.42186
4839.22198,0.42068
4837.29323,0.41944
4835.36449,0.41851
4833.43574,0.41810
4831.50699,0.41793
4829.57825,0.41793
4827.64950,0.41822
4825.72076,0.41838
4823.79201,0.41817
4821.86327,0.41778
4819.93452,0.41770
4818.00578,0.41849
4816.07703,0.41991
4814.14829,0.42107
4812.21954,0.42143
4810.29080,0.42134
4808.36205,0.42147
4806.43331,0.42185
4804.50456,0.42183
4802.57582,0.42121
4800.64707,0.42075
4798.71832,0.42073
4796.78958,0.42032
4794.86083,0.41937
4792.93209,0.41831
4791.00334,0.41714
4789.07460,0.41593
4787.14585,0.41483
4785.21711,0.41338
4783.28836,0.41112
4781.35962,0.40815
4779.43087,0.40506
4777.50213,0.40214
4775.57338,0.39914
4773.64464,0.39579
4771.71589,0.39199
4769.78714,0.38781
4767.85840,0.38389
4765.92965,0.38105
4764.00091,0.37888
4762.07216,0.37680
4760.14342,0.37556
4758.21467,0.37560
4756.28593,0.37598
4754.35718,0.37588
4752.42844,0.37536
4750.49969,0.37461
4748.57095,0.37370
4746.64220,0.37275
4744.71346,0.37172
4742.78471,0.37023
4740.85597,0.36797
4738.92722,0.36520
4736.99847,0.36233
4735.06973,0.35955
4733.14098,0.35682
4731.21224,0.35394
4729.28349,0.35058
4727.35475,0.34619
4725.42600,0.34045
4723.49726,0.33400
4721.56851,0.32772
4719.63977,0.32152
4717.71102,0.31529
4715.78228,0.30943
4713.85353,0.30372
4711.92479,0.29802
4709.99604,0.29321
4708.06729,0.28983
4706.13855,0.28725
4704.20980,0.28478
4702.28106,0.28249
4700.35231,0.28017
4698.42357,0.27718
4696.49482,0.27355
4694.56608,0.26915
4692.63733,0.26306
4690.70859,0.25516
4688.77984,0.24631
4686.85110,0.23678
4684.92235,0.22577
4682.99361,0.21305
4681.06486,0.19962
4679.13612,0.18634
4677.20737,0.17352
4675.27862,0.16162
4673.34988,0.15123
4671.42113,0.14275
4669.49239,0.13653
4667.56364,0.13260
4665.63490,0.13028
4663.70615,0.12902
4661.77741,0.12914
4659.84866,0.13089
4657.91992,0.13390
4655.99117,0.13786
4654.06243,0.14277
4652.13368,0.14817
4650.20494,0.15321
4648.27619,0.15737
4646.34745,0.16045
4644.41870,0.16226
4642.48995,0.16245
4640.56121,0.16092
4638.63246,0.15810
4636.70372,0.15415
4634.77497,0.14941
4632.84623,0.14483
4630.91748,0.14087
4628.98874,0.13758
4627.05999,0.13516
4625.13125,0.13365
4623.20250,0.13271
4621.27376,0.13214
4619.34501,0.13208
4617.41627,0.13217
4615.48752,0.13170
4613.55877,0.13053
4611.63003,0.12893
4609.70128,0.12751
4607.77254,0.12688
4605.84379,0.12719
4603.91505,0.12885
4601.98630,0.13235
4600.05756,0.13736
4598.12881,0.14313
4596.20007,0.14913
4594.27132,0.15523
4592.34258,0.16087
4590.41383,0.16516
4588.48509,0.16838
4586.55634,0.17110
4584.62760,0.17261
4582.69885,0.17192
4580.77010,0.16874
4578.84136,0.16376
4576.91261,0.15799
4574.98387,0.15217
4573.05512,0.14772
4571.12638,0.14630
4569.19763,0.14836
4567.26889,0.15332
4565.34014,0.16039
4563.41140,0.16891
4561.48265,0.17782
4559.55391,0.18550
4557.62516,0.19148
4555.69642,0.19677
4553.76767,0.20228
4551.83893,0.20800
4549.91018,0.21388
4547.98143,0.22007
4546.05269,0.22612
4544.12394,0.23112
4542.19520,0.23453
4540.26645,0.23628
4538.33771,0.23677
4536.40896,0.23693
4534.48022,0.23716
4532.55147,0.23732
4530.62273,0.23814
4528.69398,0.24008
4526.76524,0.24216
4524.83649,0.24348
4522.90775,0.24377
4520.97900,0.24295
4519.05025,0.24147
4517.12151,0.24041
4515.19276,0.24035
4513.26402,0.24070
4511.33527,0.24062
4509.40653,0.23937
4507.47778,0.23689
4505.54904,0.23442
4503.62029,0.23327
4501.69155,0.23397
4499.76280,0.23667
4497.83406,0.24103
4495.90531,0.24577
4493.97657,0.24927
4492.04782,0.25094
4490.11908,0.25149
4488.19033,0.25144
4486.26158,0.25078
4484.33284,0.25013
4482.40409,0.25009
4480.47535,0.25058
4478.54660,0.25174
4476.61786,0.25363
4474.68911,0.25586
4472.76037,0.25837
4470.83162,0.26110
4468.90288,0.26358
4466.97413,0.26563
4465.04539,0.26749
4463.11664,0.26934
4461.18790,0.27095
4459.25915,0.27158
4457.33041,0.27076
4455.40166,0.26898
4453.47291,0.26674
4451.54417,0.26396
4449.61542,0.26060
4447.68668,0.25684
4445.75793,0.25280
4443.82919,0.24893
4441.90044,0.24579
4439.97170,0.24375
4438.04295,0.24325
4436.11421,0.24430
4434.18546,0.24573
4432.25672,0.24634
4430.32797,0.24601
4428.39923,0.24504
4426.47048,0.24352
4424.54173,0.24155
4422.61299,0.23920
4420.68424,0.23658
4418.75550,0.23387
4416.82675,0.23130
4414.89801,0.22879
4412.96926,0.22598
4411.04052,0.22300
4409.11177,0.22008
4407.18303,0.21717
4405.25428,0.21441
4403.32554,0.21176
4401.39679,0.20892
4399.46805,0.20570
4397.53930,0.20240
4395.61056,0.19943
4393.68181,0.19643
4391.75306,0.19290
4389.82432,0.18916
4387.89557,0.18564
4385.96683,0.18252
4384.03808,0.17959
4382.10934,0.17666
4380.18059,0.17379
4378.25185,0.17063
4376.32310,0.16698
4374.39436,0.16348
4372.46561,0.16045
4370.53687,0.15755
4368.60812,0.15448
4366.67938,0.15130
4364.75063,0.14821
4362.82189,0.14517
4360.89314,0.14228
4358.96439,0.13986
4357.03565,0.13780
4355.10690,0.13587
4353.17816,0.13399
4351.24941,0.13226
4349.32067,0.13054
4347.39192,0.12856
4345.46318,0.12672
4343.53443,0.12540
4341.60569,0.12419
4339.67694,0.12280
4337.74820,0.12147
4335.81945,0.12061
4333.89071,0.12038
4331.96196,0.12016
4330.03321,0.11962
4328.10447,0.11923
4326.17572,0.11976
4324.24698,0.12130
4322.31823,0.12338
4320.38949,0.12585
4318.46074,0.12848
4316.53200,0.13083
4314.60325,0.13296
4312.67451,0.13490
4310.74576,0.13642
4308.81702,0.13758
4306.88827,0.13865
4304.95953,0.13960
4303.03078,0.14009
4301.10204,0.13997
4299.17329,0.13934
4297.24454,0.13826
4295.31580,0.13694
4293.38705,0.13589
4291.45831,0.13528
4289.52956,0.13456
4287.60082,0.13324
4285.67207,0.13142
4283.74333,0.12944
4281.81458,0.12742
4279.88584,0.12543
4277.95709,0.12359
4276.02835,0.12199
4274.09960,0.12064
4272.17086,0.11933
4270.24211,0.11764
4268.31336,0.11547
4266.38462,0.11305
4264.45587,0.11070
4262.52713,0.10885
4260.59838,0.10762
4258.66964,0.10655
4256.74089,0.10562
4254.81215,0.10505
4252.88340,0.10454
4250.95466,0.10387
4249.02591,0.10333
4247.09717,0.10325
4245.16842,0.10358
4243.23968,0.10424
4241.31093,0.10501
4239.38219,0.10562
4237.45344,0.10624
4235.52469,0.10691
4233.59595,0.10742
4231.66720,0.10757
4229.73846,0.10751
4227.80971,0.10773
4225.88097,0.10817
4223.95222,0.10843
4222.02348,0.10859
4220.09473,0.10890
4218.16599,0.10944
4216.23724,0.10984
4214.30850,0.10976
4212.37975,0.10939
4210.45101,0.10922
4208.52226,0.10937
4206.59352,0.10963
4204.66477,0.10994
4202.73602,0.11027
4200.80728,0.11058
4198.87853,0.11123
4196.94979,0.11257
4195.02104,0.11422
4193.09230,0.11540
4191.16355,0.11592
4189.23481,0.11637
4187.30606,0.11706
4185.37732,0.11791
4183.44857,0.11890
4181.51983,0.11972
4179.59108,0.12018
4177.66234,0.12060
4175.73359,0.12107
4173.80484,0.12165
4171.87610,0.12262
4169.94735,0.12376
4168.01861,0.12456
4166.08986,0.12489
4164.16112,0.12494
4162.23237,0.12512
4160.30363,0.12545
4158.37488,0.12554
4156.44614,0.12529
4154.51739,0.12507
4152.58865,0.12519
4150.65990,0.12553
4148.73116,0.12573
4146.80241,0.12557
4144.87367,0.12514
4142.94492,0.12473
4141.01617,0.12429
4139.08743,0.12347
4137.15868,0.12242
4135.22994,0.12145
4133.30119,0.12052
4131.37245,0.11963
4129.44370,0.11883
4127.51496,0.11793
4125.58621,0.11707
4123.65747,0.11654
4121.72872,0.11601
4119.79998,0.11509
4117.87123,0.11407
4115.94249,0.11334
4114.01374,0.11276
4112.08500,0.11222
4110.15625,0.11181
4108.22750,0.11145
4106.29876,0.11085
4104.37001,0.11000
4102.44127,0.10918
4100.51252,0.10870
4098.58378,0.10849
4096.65503,0.10813
4094.72629,0.10737
4092.79754,0.10632
4090.86880,0.10512
4088.94005,0.10387
4087.01131,0.10254
4085.08256,0.10102
4083.15382,0.09928
4081.22507,0.09749
4079.29632,0.09583
4077.36758,0.09415
4075.43883,0.09223
4073.51009,0.09025
4071.58134,0.08869
4069.65260,0.08755
4067.72385,0.08637
4065.79511,0.08498
4063.86636,0.08361
4061.93762,0.08255
4060.00887,0.08192
4058.08013,0.08153
4056.15138,0.08098
4054.22264,0.08038
4052.29389,0.08033
4050.36515,0.08080
4048.43640,0.08135
4046.50765,0.08168
4044.57891,0.08173
4042.65016,0.08145
4040.72142,0.08092
4038.79267,0.08043
4036.86393,0.08019
4034.93518,0.08034
4033.00644,0.08100
4031.07769,0.08197
4029.14895,0.08323
4027.22020,0.08491
4025.29146,0.08699
4023.36271,0.08935
4021.43397,0.09188
4019.50522,0.09466
4017.57648,0.09785
4015.64773,0.10132
4013.71898,0.10449
4011.79024,0.10684
4009.86149,0.10820
4007.93275,0.10862
4006.00400,0.10846
4004.07526,0.10814
4002.14651,0.10810
4000.21777,0.10856
3998.28902,0.10954
3996.36028,0.11127
3994.43153,0.11371
3992.50279,0.11623
3990.57404,0.11835
3988.64530,0.11985
3986.71655,0.12065
3984.78780,0.12095
3982.85906,0.12100
3980.93031,0.12092
3979.00157,0.12079
3977.07282,0.12074
3975.14408,0.12095
3973.21533,0.12143
3971.28659,0.12188
3969.35784,0.12224
3967.42910,0.12292
3965.50035,0.12379
3963.57161,0.12423
3961.64286,0.12448
3959.71412,0.12500
3957.78537,0.12545
3955.85663,0.12573
3953.92788,0.12607
3951.99913,0.12645
3950.07039,0.12663
3948.14164,0.12628
3946.21290,0.12549
3944.28415,0.12471
3942.35541,0.12410
3940.42666,0.12355
3938.49792,0.12302
3936.56917,0.12274
3934.64043,0.12286
3932.71168,0.12316
3930.78294,0.12347
3928.85419,0.12397
3926.92545,0.12471
3924.99670,0.12532
3923.06795,0.12557
3921.13921,0.12566
3919.21046,0.12586
3917.28172,0.12614
3915.35297,0.12643
3913.42423,0.12681
3911.49548,0.12719
3909.56674,0.12737
3907.63799,0.12733
3905.70925,0.12721
3903.78050,0.12718
3901.85176,0.12738
3899.92301,0.12765
3897.99427,0.12788
3896.06552,0.12837
3894.13678,0.12906
3892.20803,0.12952
3890.27928,0.12977
3888.35054,0.13009
3886.42179,0.13050
3884.49305,0.13099
3882.56430,0.13134
3880.63556,0.13128
3878.70681,0.13104
3876.77807,0.13105
3874.84932,0.13131
3872.92058,0.13162
3870.99183,0.13174
3869.06309,0.13158
3867.13434,0.13137
3865.20560,0.13119
3863.27685,0.13104
3861.34811,0.13099
3859.41936,0.13101
3857.49061,0.13119
3855.56187,0.13148
3853.63312,0.13142
3851.70438,0.13100
3849.77563,0.13078
3847.84689,0.13061
3845.91814,0.13019
3843.98940,0.12955
3842.06065,0.12893
3840.13191,0.12833
3838.20316,0.12768
3836.27442,0.12706
3834.34567,0.12641
3832.41693,0.12576
3830.48818,0.12537
3828.55943,0.12504
3826.63069,0.12444
3824.70194,0.12384
3822.77320,0.12348
3820.84445,0.12300
3818.91571,0.12244
3816.98696,0.12210
3815.05822,0.12196
3813.12947,0.12186
3811.20073,0.12175
3809.27198,0.12171
3807.34324,0.12171
3805.41449,0.12181
3803.48575,0.12191
3801.55700,0.12189
3799.62826,0.12218
3797.69951,0.12289
3795.77076,0.12371
3793.84202,0.12477
3791.91327,0.12613
3789.98453,0.12757
3788.05578,0.12891
3786.12704,0.12995
3784.19829,0.13066
3782.26955,0.13115
3780.34080,0.13160
3778.41206,0.13193
3776.48331,0.13194
3774.55457,0.13176
3772.62582,0.13154
3770.69708,0.13123
3768.76833,0.13072
3766.83959,0.13016
3764.91084,0.12982
3762.98209,0.12968
3761.05335,0.12982
3759.12460,0.13042
3757.19586,0.13130
3755.26711,0.13225
3753.33837,0.13349
3751.40962,0.13512
3749.48088,0.13647
3747.55213,0.13705
3745.62339,0.13720
3743.69464,0.13710
3741.76590,0.13657
3739.83715,0.13592
3737.90841,0.13578
3735.97966,0.13601
3734.05091,0.13565
3732.12217,0.13446
3730.19342,0.13275
3728.26468,0.13063
3726.33593,0.12853
3724.40719,0.12700
3722.47844,0.12609
3720.54970,0.12573
3718.62095,0.12615
3716.69221,0.12728
3714.76346,0.12885
3712.83472,0.13037
3710.90597,0.13082
3708.97723,0.12939
3707.04848,0.12670
3705.11974,0.12401
3703.19099,0.12176
3701.26224,0.12004
3699.33350,0.11937
3697.40475,0.11985
3695.47601,0.12102
3693.54726,0.12241
3691.61852,0.12354
3689.68977,0.12394
3687.76103,0.12340
3685.83228,0.12236
3683.90354,0.12127
3681.97479,0.12021
3680.04605,0.11924
3678.11730,0.11849
3676.18856,0.11794
3674.25981,0.11759
3672.33107,0.11756
3670.40232,0.11766
3668.47357,0.11750
3666.54483,0.11687
3664.61608,0.11588
3662.68734,0.11481
3660.75859,0.11355
3658.82985,0.11175
3656.90110,0.10947
3654.97236,0.10702
3653.04361,0.10466
3651.11487,0.10226
3649.18612,0.09987
3647.25738,0.09841
3645.32863,0.09861
3643.39989,0.10039
3641.47114,0.10342
3639.54239,0.10729
3637.61365,0.11140
3635.68490,0.11514
3633.75616,0.11797
3631.82741,0.11975
3629.89867,0.12016
3627.96992,0.11859
3626.04118,0.11600
3624.11243,0.11361
3622.18369,0.11168
3620.25494,0.11081
3618.32620,0.11205
3616.39745,0.11554
3614.46871,0.12043
3612.53996,0.12572
3610.61122,0.13040
3608.68247,0.13403
3606.75372,0.13659
3604.82498,0.13833
3602.89623,0.13985
3600.96749,0.14119
3599.03874,0.14175
3597.11000,0.14151
3595.18125,0.14109
3593.25251,0.14091
3591.32376,0.14080
3589.39502,0.14075
3587.46627,0.14115
3585.53753,0.14194
3583.60878,0.14273
3581.68004,0.14372
3579.75129,0.14503
3577.82254,0.14629
3575.89380,0.14775
3573.96505,0.14979
3572.03631,0.15194
3570.10756,0.15354
3568.17882,0.15457
3566.25007,0.15533
3564.32133,0.15581
3562.39258,0.15582
3560.46384,0.15544
3558.53509,0.15482
3556.60635,0.15435
3554.67760,0.15420
3552.74886,0.15410
3550.82011,0.15388
3548.89137,0.15368
3546.96262,0.15368
3545.03387,0.15361
3543.10513,0.15316
3541.17638,0.15255
3539.24764,0.15208
3537.31889,0.15173
3535.39015,0.15140
3533.46140,0.15093
3531.53266,0.15035
3529.60391,0.14991
3527.67517,0.14943
3525.74642,0.14876
3523.81768,0.14817
3521.88893,0.14770
3519.96019,0.14713
3518.03144,0.14655
3516.10270,0.14616
3514.17395,0.14577
3512.24520,0.14511
3510.31646,0.14443
3508.38771,0.14415
3506.45897,0.14398
3504.53022,0.14351
3502.60148,0.14286
3500.67273,0.14225
3498.74399,0.14180
3496.81524,0.14131
3494.88650,0.14047
3492.95775,0.13930
3491.02901,0.13805
3489.10026,0.13713
3487.17152,0.13668
3485.24277,0.13627
3483.31402,0.13557
3481.38528,0.13470
3479.45653,0.13401
3477.52779,0.13356
3475.59904,0.13303
3473.67030,0.13209
3471.74155,0.13086
3469.81281,0.12991
3467.88406,0.12957
3465.95532,0.12951
3464.02657,0.12930
3462.09783,0.12881
3460.16908,0.12823
3458.24034,0.12799
3456.31159,0.12808
3454.38285,0.12788
3452.45410,0.12715
3450.52535,0.12614
3448.59661,0.12494
3446.66786,0.12364
3444.73912,0.12266
3442.81037,0.12225
3440.88163,0.12226
3438.95288,0.12244
3437.02414,0.12279
3435.09539,0.12350
3433.16665,0.12462
3431.23790,0.12602
3429.30916,0.12757
3427.38041,0.12882
3425.45167,0.12970
3423.52292,0.13063
3421.59418,0.13158
3419.66543,0.13225
3417.73668,0.13268
3415.80794,0.13308
3413.87919,0.13346
3411.95045,0.13383
3410.02170,0.13418
3408.09296,0.13446
3406.16421,0.13465
3404.23547,0.13472
3402.30672,0.13484
3400.37798,0.13518
3398.44923,0.13573
3396.52049,0.13631
3394.59174,0.13662
3392.66300,0.13675
3390.73425,0.13702
3388.80550,0.13717
3386.87676,0.13700
3384.94801,0.13675
3383.01927,0.13676
3381.09052,0.13702
3379.16178,0.13747
3377.23303,0.13808
3375.30429,0.13875
3373.37554,0.13950
3371.44680,0.14036
3369.51805,0.14102
3367.58931,0.14126
3365.66056,0.14136
3363.73182,0.14162
3361.80307,0.14187
3359.87433,0.14181
3357.94558,0.14170
3356.01683,0.14168
3354.08809,0.14148
3352.15934,0.14099
3350.23060,0.14032
3348.30185,0.13964
3346.37311,0.13900
3344.44436,0.13829
3342.51562,0.13764
3340.58687,0.13718
3338.65813,0.13683
3336.72938,0.13653
3334.80064,0.13632
3332.87189,0.13617
3330.94315,0.13593
3329.01440,0.13555
3327.08566,0.13529
3325.15691,0.13530
3323.22816,0.13525
3321.29942,0.13473
3319.37067,0.13406
3317.44193,0.13366
3315.51318,0.13313
3313.58444,0.13203
3311.65569,0.13061
3309.72695,0.12911
3307.79820,0.12727
3305.86946,0.12515
3303.94071,0.12314
3302.01197,0.12146
3300.08322,0.12048
3298.15448,0.12048
3296.22573,0.12126
3294.29698,0.12231
3292.36824,0.12322
3290.43949,0.12405
3288.51075,0.12487
3286.58200,0.12540
3284.65326,0.12554
3282.72451,0.12548
3280.79577,0.12524
3278.86702,0.12508
3276.93828,0.12513
3275.00953,0.12507
3273.08079,0.12476
3271.15204,0.12430
3269.22330,0.12370
3267.29455,0.12312
3265.36581,0.12283
3263.43706,0.12272
3261.50831,0.12256
3259.57957,0.12202
3257.65082,0.12112
3255.72208,0.12046
3253.79333,0.12041
3251.86459,0.12069
3249.93584,0.12069
3248.00710,0.12022
3246.07835,0.11955
3244.14961,0.11878
3242.22086,0.11820
3240.29212,0.11797
3238.36337,0.11773
3236.43463,0.11731
3234.50588,0.11680
3232.57713,0.11625
3230.64839,0.11567
3228.71964,0.11505
3226.79090,0.11438
3224.86215,0.11352
3222.93341,0.11247
3221.00466,0.11164
3219.07592,0.11103
3217.14717,0.11034
3215.21843,0.10945
3213.28968,0.10840
3211.36094,0.10722
3209.43219,0.10575
3207.50345,0.10404
3205.57470,0.10238
3203.64596,0.10091
3201.71721,0.09972
3199.78846,0.09892
3197.85972,0.09852
3195.93097,0.09852
3194.00223,0.09866
3192.07348,0.09857
3190.14474,0.09831
3188.21599,0.09792
3186.28725,0.09731
3184.35850,0.09667
3182.42976,0.09620
3180.50101,0.09584
3178.57227,0.09539
3176.64352,0.09456
3174.71478,0.09336
3172.78603,0.09185
3170.85729,0.08985
3168.92854,0.08736
3166.99979,0.08477
3165.07105,0.08255
3163.14230,0.08111
3161.21356,0.08075
3159.28481,0.08141
3157.35607,0.08263
3155.42732,0.08389
3153.49858,0.08470
3151.56983,0.08484
3149.64109,0.08466
3147.71234,0.08449
3145.78360,0.08437
3143.85485,0.08417
3141.92611,0.08378
3139.99736,0.08326
3138.06861,0.08280
3136.13987,0.08245
3134.21112,0.08186
3132.28238,0.08092
3130.35363,0.07999
3128.42489,0.07910
3126.49614,0.07804
3124.56740,0.07697
3122.63865,0.07601
3120.70991,0.07493
3118.78116,0.07352
3116.85242,0.07196
3114.92367,0.07064
3112.99493,0.06946
3111.06618,0.06819
3109.13744,0.06714
3107.20869,0.06637
3105.27994,0.06569
3103.35120,0.06537
3101.42245,0.06548
3099.49371,0.06567
3097.56496,0.06577
3095.63622,0.06575
3093.70747,0.06550
3091.77873,0.06509
3089.84998,0.06460
3087.92124,0.06403
3085.99249,0.06354
3084.06375,0.06334
3082.13500,0.06350
3080.20626,0.06382
3078.27751,0.06429
3076.34877,0.06488
3074.42002,0.06507
3072.49127,0.06466
3070.56253,0.06421
3068.63378,0.06397
3066.70504,0.06382
3064.77629,0.06379
3062.84755,0.06375
3060.91880,0.06366
3058.99006,0.06395
3057.06131,0.06464
3055.13257,0.06514
3053.20382,0.06501
3051.27508,0.06466
3049.34633,0.06467
3047.41759,0.06489
3045.48884,0.06487
3043.56009,0.06461
3041.63135,0.06426
3039.70260,0.06401
3037.77386,0.06387
3035.84511,0.06357
3033.91637,0.06311
3031.98762,0.06287
3030.05888,0.06309
3028.13013,0.06372
3026.20139,0.06458
3024.27264,0.06558
3022.34390,0.06649
3020.41515,0.06692
3018.48641,0.06695
3016.55766,0.06700
3014.62892,0.06719
3012.70017,0.06720
3010.77142,0.06690
3008.84268,0.06656
3006.91393,0.06645
3004.98519,0.06645
3003.05644,0.06636
3001.12770,0.06634
2999.19895,0.06647
2997.27021,0.06645
2995.34146,0.06621
2993.41272,0.06620
2991.48397,0.06638
2989.55523,0.06649
2987.62648,0.06662
2985.69774,0.06674
2983.76899,0.06670
2981.84025,0.06635
2979.91150,0.06570
2977.98275,0.06522
2976.05401,0.06526
2974.12526,0.06542
2972.19652,0.06532
2970.26777,0.06532
2968.33903,0.06557
2966.41028,0.06554
2964.48154,0.06507
2962.55279,0.06472
2960.62405,0.06474
2958.69530,0.06474
2956.76656,0.06453
2954.83781,0.06433
2952.90907,0.06437
2950.98032,0.06443
2949.05157,0.06404
2947.12283,0.06344
2945.19408,0.06324
2943.26534,0.06328
2941.33659,0.06316
2939.40785,0.06307
2937.47910,0.06328
2935.55036,0.06368
2933.62161,0.06416
2931.69287,0.06469
2929.76412,0.06532
2927.83538,0.06611
2925.90663,0.06691
2923.97789,0.06758
2922.04914,0.06812
2920.12040,0.06851
2918.19165,0.06879
2916.26290,0.06916
2914.33416,0.06956
2912.40541,0.06968
2910.47667,0.06956
2908.54792,0.06952
2906.61918,0.06948
2904.69043,0.06933
2902.76169,0.06926
2900.83294,0.06937
2898.90420,0.06948
2896.97545,0.06940
2895.04671,0.06921
2893.11796,0.06896
2891.18922,0.06856
2889.26047,0.06824
2887.33172,0.06827
2885.40298,0.06847
2883.47423,0.06839
2881.54549,0.06802
2879.61674,0.06777
2877.68800,0.06780
2875.75925,0.06795
2873.83051,0.06803
2871.90176,0.06787
2869.97302,0.06757
2868.04427,0.06737
2866.11553,0.06727
2864.18678,0.06728
2862.25804,0.06747
2860.32929,0.06768
2858.40055,0.06773
2856.47180,0.06781
2854.54305,0.06808
2852.61431,0.06838
2850.68556,0.06872
2848.75682,0.06910
2846.82807,0.06924
2844.89933,0.06910
2842.97058,0.06885
2841.04184,0.06873
2839.11309,0.06888
2837.18435,0.06900
2835.25560,0.06894
2833.32686,0.06888
2831.39811,0.06901
2829.46937,0.06922
2827.54062,0.06934
2825.61188,0.06936
2823.68313,0.06937
2821.75438,0.06950
2819.82564,0.06984
2817.89689,0.07012
2815.96815,0.07023
2814.03940,0.07043
2812.11066,0.07069
2810.18191,0.07085
2808.25317,0.07096
2806.32442,0.07099
2804.39568,0.07094
2802.46693,0.07093
2800.53819,0.07109
2798.60944,0.07152
2796.68070,0.07205
2794.75195,0.07236
2792.82320,0.07238
2790.89446,0.07233
2788.96571,0.07245
2787.03697,0.07265
2785.10822,0.07268
2783.17948,0.07267
2781.25073,0.07291
2779.32199,0.07340
2777.39324,0.07379
2775.46450,0.07386
2773.53575,0.07380
2771.60701,0.07389
2769.67826,0.07422
2767.74952,0.07477
2765.82077,0.07536
2763.89203,0.07577
2761.96328,0.07593
2760.03453,0.07588
2758.10579,0.07574
2756.17704,0.07569
2754.24830,0.07579
2752.31955,0.07598
2750.39081,0.07630
2748.46206,0.07661
2746.53332,0.07668
2744.60457,0.07663
2742.67583,0.07656
2740.74708,0.07638
2738.81834,0.07619
2736.88959,0.07607
2734.96085,0.07598
2733.03210,0.07584
2731.10336,0.07563
2729.17461,0.07533
2727.24586,0.07498
2725.31712,0.07482
2723.38837,0.07492
2721.45963,0.07491
2719.53088,0.07473
2717.60214,0.07464
2715.67339,0.07472
2713.74465,0.07481
2711.81590,0.07479
2709.88716,0.07476
2707.95841,0.07486
2706.02967,0.07502
2704.10092,0.07515
2702.17218,0.07515
2700.24343,0.07493
2698.31468,0.07459
2696.38594,0.07439
2694.45719,0.07443
2692.52845,0.07457
2690.59970,0.07463
2688.67096,0.07455
2686.74221,0.07449
2684.81347,0.07450
2682.88472,0.07448
2680.95598,0.07452
2679.02723,0.07471
2677.09849,0.07483
2675.16974,0.07472
2673.24100,0.07451
2671.31225,0.07439
2669.38351,0.07439
2667.45476,0.07446
2665.52601,0.07459
2663.59727,0.07476
2661.66852,0.07480
2659.73978,0.07467
2657.81103,0.07454
2655.88229,0.07455
2653.95354,0.07462
2652.02480,0.07464
2650.09605,0.07468
2648.16731,0.07469
2646.23856,0.07458
2644.30982,0.07441
2642.38107,0.07424
2640.45233,0.07410
2638.52358,0.07375
2636.59484,0.07311
2634.66609,0.07263
2632.73734,0.07255
2630.80860,0.07270
2628.87985,0.07302
2626.95111,0.07352
2625.02236,0.07405
2623.09362,0.07450
2621.16487,0.07479
2619.23613,0.07493
2617.30738,0.07494
2615.37864,0.07489
2613.44989,0.07485
2611.52115,0.07470
2609.59240,0.07438
2607.66366,0.07393
2605.73491,0.07345
2603.80616,0.07321
2601.87742,0.07326
2599.94867,0.07359
2598.01993,0.07425
2596.09118,0.07490
2594.16244,0.07527
2592.23369,0.07550
2590.30495,0.07552
2588.37620,0.07521
2586.44746,0.07483
2584.51871,0.07456
2582.58997,0.07440
2580.66122,0.07454
2578.73248,0.07497
2576.80373,0.07536
2574.87499,0.07566
2572.94624,0.07601
2571.01749,0.07634
2569.08875,0.07650
2567.16000,0.07654
2565.23126,0.07652
2563.30251,0.07640
2561.37377,0.07625
2559.44502,0.07610
2557.51628,0.07597
2555.58753,0.07594
2553.65879,0.07597
2551.73004,0.07590
2549.80130,0.07577
2547.87255,0.07567
2545.94381,0.07563
2544.01506,0.07567
2542.08631,0.07577
2540.15757,0.07593
2538.22882,0.07622
2536.30008,0.07649
2534.37133,0.07655
2532.44259,0.07654
2530.51384,0.07657
2528.58510,0.07645
2526.65635,0.07616
2524.72761,0.07590
2522.79886,0.07575
2520.87012,0.07556
2518.94137,0.07529
2517.01263,0.07509
2515.08388,0.07500
2513.15514,0.07497
2511.22639,0.07500
2509.29764,0.07505
2507.36890,0.07510
2505.44015,0.07519
2503.51141,0.07547
2501.58266,0.07602
2499.65392,0.07647
2497.72517,0.07645
2495.79643,0.07627
2493.86768,0.07629
2491.93894,0.07647
2490.01019,0.07666
2488.08145,0.07675
2486.15270,0.07682
2484.22396,0.07700
2482.29521,0.07732
2480.36647,0.07767
2478.43772,0.07799
2476.50897,0.07839
2474.58023,0.07884
2472.65148,0.07923
2470.72274,0.07955
2468.79399,0.07991
2466.86525,0.08031
2464.93650,0.08057
2463.00776,0.08070
2461.07901,0.08090
2459.15027,0.08110
2457.22152,0.08111
2455.29278,0.08098
2453.36403,0.08084
2451.43529,0.08082
2449.50654,0.08099
2447.57779,0.08124
2445.64905,0.08140
2443.72030,0.08142
2441.79156,0.08134
2439.86281,0.08126
2437.93407,0.08120
2436.00532,0.08128
2434.07658,0.08148
2432.14783,0.08158
2430.21909,0.08159
2428.29034,0.08173
2426.36160,0.08203
2424.43285,0.08239
2422.50411,0.08263
2420.57536,0.08269
2418.64662,0.08261
2416.71787,0.08243
2414.78912,0.08216
2412.86038,0.08185
2410.93163,0.08168
2409.00289,0.08162
2407.07414,0.08143
2405.14540,0.08104
2403.21665,0.08064
2401.28791,0.08027
2399.35916,0.07990
2397.43042,0.07966
2395.50167,0.07965
2393.57293,0.07978
2391.64418,0.07983
2389.71544,0.07966
2387.78669,0.07944
2385.85795,0.07927
2383.92920,0.07904
2382.00045,0.07876
2380.07171,0.07855
2378.14296,0.07851
2376.21422,0.07853
2374.28547,0.07848
2372.35673,0.07835
2370.42798,0.07808
2368.49924,0.07751
2366.57049,0.07683
2364.64175,0.07645
2362.71300,0.07634
2360.78426,0.07623
2358.85551,0.07619
2356.92677,0.07636
2354.99802,0.07643
2353.06927,0.07625
2351.14053,0.07598
2349.21178,0.07558
2347.28304,0.07494
2345.35429,0.07405
2343.42555,0.07314
2341.49680,0.07244
2339.56806,0.07202
2337.63931,0.07186
2335.71057,0.07185
2333.78182,0.07203
2331.85308,0.07276
2329.92433,0.07409
2327.99559,0.07561
2326.06684,0.07676
2324.13810,0.07722
2322.20935,0.07708
2320.28060,0.07654
2318.35186,0.07569
2316.42311,0.07477
2314.49437,0.07400
2312.56562,0.07351
2310.63688,0.07340
2308.70813,0.07371
2306.77939,0.07448
2304.85064,0.07565
2302.92190,0.07679
2300.99315,0.07761
2299.06441,0.07809
2297.13566,0.07816
2295.20692,0.07780
2293.27817,0.07746
2291.34943,0.07753
2289.42068,0.07795
2287.49193,0.07850
2285.56319,0.07907
2283.63444,0.07954
2281.70570,0.07993
2279.77695,0.08025
2277.84821,0.08036
2275.91946,0.08024
2273.99072,0.08002
2272.06197,0.07975
2270.13323,0.07943
2268.20448,0.07906
2266.27574,0.07876
2264.34699,0.07857
2262.41825,0.07837
2260.48950,0.07803
2258.56075,0.07761
2256.63201,0.07729
2254.70326,0.07717
2252.77452,0.07723
2250.84577,0.07742
2248.91703,0.07779
2246.98828,0.07834
2245.05954,0.07885
2243.13079,0.07921
2241.20205,0.07957
2239.27330,0.07997
2237.34456,0.08016
2235.41581,0.08017
2233.48707,0.08028
2231.55832,0.08053
2229.62958,0.08085
2227.70083,0.08125
2225.77208,0.08161
2223.84334,0.08179
2221.91459,0.08177
2219.98585,0.08165
2218.05710,0.08148
2216.12836,0.08131
2214.19961,0.08124
2212.27087,0.08123
2210.34212,0.08130
2208.41338,0.08150
2206.48463,0.08184
2204.55589,0.08233
2202.62714,0.08283
2200.69840,0.08298
2198.76965,0.08272
2196.84090,0.08238
2194.91216,0.08214
2192.98341,0.08192
2191.05467,0.08165
2189.12592,0.08132
2187.19718,0.08094
2185.26843,0.08074
2183.33969,0.08088
2181.41094,0.08122
2179.48220,0.08164
2177.55345,0.08222
2175.62471,0.08296
2173.69596,0.08361
2171.76722,0.08395
2169.83847,0.08401
2167.90973,0.08397
2165.98098,0.08408
2164.05223,0.08439
2162.12349,0.08467
2160.19474,0.08482
2158.26600,0.08493
2156.33725,0.08493
2154.40851,0.08468
2152.47976,0.08436
2150.55102,0.08435
2148.62227,0.08464
2146.69353,0.08477
2144.76478,0.08460
2142.83604,0.08454
2140.90729,0.08482
2138.97855,0.08531
2137.04980,0.08583
2135.12106,0.08629
2133.19231,0.08667
2131.26356,0.08694
2129.33482,0.08698
2127.40607,0.08693
2125.47733,0.08696
2123.54858,0.08698
2121.61984,0.08689
2119.69109,0.08678
2117.76235,0.08678
2115.83360,0.08684
2113.90486,0.08683
2111.97611,0.08684
2110.04737,0.08703
2108.11862,0.08731
2106.18988,0.08754
2104.26113,0.08776
2102.33238,0.08790
2100.40364,0.08791
2098.47489,0.08789
2096.54615,0.08800
2094.61740,0.08821
2092.68866,0.08843
2090.75991,0.08855
2088.83117,0.08856
2086.90242,0.08859
2084.97368,0.08868
2083.04493,0.08870
2081.11619,0.08853
2079.18744,0.08823
2077.25870,0.08785
2075.32995,0.08738
2073.40121,0.08690
2071.47246,0.08655
2069.54371,0.08633
2067.61497,0.08617
2065.68622,0.08607
2063.75748,0.08594
2061.82873,0.08574
2059.89999,0.08556
2057.97124,0.08546
2056.04250,0.08541
2054.11375,0.08535
2052.18501,0.08527
2050.25626,0.08526
2048.32752,0.08544
2046.39877,0.08563
2044.47003,0.08551
2042.54128,0.08508
2040.61254,0.08454
2038.68379,0.08397
2036.75504,0.08349
2034.82630,0.08312
2032.89755,0.08274
2030.96881,0.08240
2029.04006,0.08217
2027.11132,0.08201
2025.18257,0.08189
2023.25383,0.08181
2021.32508,0.08166
2019.39634,0.08136
2017.46759,0.08094
2015.53885,0.08040
2013.61010,0.07985
2011.68136,0.07942
2009.75261,0.07904
2007.82386,0.07865
2005.89512,0.07827
2003.96637,0.07784
2002.03763,0.07740
2000.10888,0.07695
1998.18014,0.07632
1996.25139,0.07547
1994.32265,0.07435
1992.39390,0.07299
1990.46516,0.07180
1988.53641,0.07104
1986.60767,0.07055
1984.67892,0.07028
1982.75018,0.07027
1980.82143,0.07032
1978.89269,0.07020
1976.96394,0.06994
1975.03519,0.06954
1973.10645,0.06891
1971.17770,0.06819
1969.24896,0.06759
1967.32021,0.06711
1965.39147,0.06672
1963.46272,0.06645
1961.53398,0.06626
1959.60523,0.06614
1957.67649,0.06606
1955.74774,0.06592
1953.81900,0.06578
1951.89025,0.06581
1949.96151,0.06597
1948.03276,0.06597
1946.10402,0.06584
1944.17527,0.06582
1942.24652,0.06593
1940.31778,0.06606
1938.38903,0.06616
1936.46029,0.06627
1934.53154,0.06641
1932.60280,0.06664
1930.67405,0.06690
1928.74531,0.06717
1926.81656,0.06746
1924.88782,0.06772
1922.95907,0.06802
1921.03033,0.06840
1919.10158,0.06879
1917.17284,0.06918
1915.24409,0.06962
1913.31534,0.06999
1911.38660,0.07017
1909.45785,0.07018
1907.52911,0.07003
1905.60036,0.06967
1903.67162,0.06921
1901.74287,0.06873
1899.81413,0.06819
1897.88538,0.06762
1895.95664,0.06715
1894.02789,0.06676
1892.09915,0.06637
1890.17040,0.06602
1888.24166,0.06575
1886.31291,0.06555
1884.38417,0.06545
1882.45542,0.06544
1880.52667,0.06549
1878.59793,0.06555
1876.66918,0.06561
1874.74044,0.06565
1872.81169,0.06566
1870.88295,0.06573
1868.95420,0.06589
1867.02546,0.06604
1865.09671,0.06615
1863.16797,0.06620
1861.23922,0.06628
1859.31048,0.06644
1857.38173,0.06670
1855.45299,0.06705
1853.52424,0.06746
1851.59549,0.06793
1849.66675,0.06853
1847.73800,0.06908
1845.80926,0.06945
1843.88051,0.06970
1841.95177,0.06974
1840.02302,0.06950
1838.09428,0.06911
1836.16553,0.06869
1834.23679,0.06827
1832.30804,0.06786
1830.37930,0.06742
1828.45055,0.06703
1826.52181,0.06683
1824.59306,0.06666
1822.66432,0.06631
1820.73557,0.06596
1818.80682,0.06581
1816.87808,0.06568
1814.94933,0.06543
1813.02059,0.06521
1811.09184,0.06515
1809.16310,0.06511
1807.23435,0.06500
1805.30561,0.06500
1803.37686,0.06524
1801.44812,0.06559
1799.51937,0.06578
1797.59063,0.06570
1795.66188,0.06567
1793.73314,0.06589
1791.80439,0.06623
1789.87565,0.06660
1787.94690,0.06696
1786.01815,0.06717
1784.08941,0.06722
1782.16066,0.06715
1780.23192,0.06697
1778.30317,0.06681
1776.37443,0.06681
1774.44568,0.06694
1772.51694,0.06705
1770.58819,0.06705
1768.65945,0.06694
1766.73070,0.06674
1764.80196,0.06647
1762.87321,0.06627
1760.94447,0.06610
1759.01572,0.06586
1757.08697,0.06560
1755.15823,0.06534
1753.22948,0.06518
1751.30074,0.06510
1749.37199,0.06501
1747.44325,0.06501
1745.51450,0.06510
1743.58576,0.06519
1741.65701,0.06522
1739.72827,0.06528
1737.79952,0.06553
1735.87078,0.06585
1733.94203,0.06589
1732.01329,0.06573
1730.08454,0.06572
1728.15580,0.06582
1726.22705,0.06597
1724.29830,0.06615
1722.36956,0.06639
1720.44081,0.06666
1718.51207,0.06683
1716.58332,0.06676
1714.65458,0.06664
1712.72583,0.06665
1710.79709,0.06663
1708.86834,0.06647
1706.93960,0.06629
1705.01085,0.06622
1703.08211,0.06632
1701.15336,0.06643
1699.22462,0.06629
1697.29587,0.06620
1695.36713,0.06614
1693.43838,0.06585
1691.50963,0.06552
1689.58089,0.06533
1687.65214,0.06520
1685.72340,0.06499
1683.79465,0.06466
1681.86591,0.06454
1679.93716,0.06467
1678.00842,0.06479
1676.07967,0.06478
1674.15093,0.06479
1672.22218,0.06497
1670.29344,0.06504
1668.36469,0.06479
1666.43595,0.06462
1664.50720,0.06471
1662.57845,0.06482
1660.64971,0.06494
1658.72096,0.06515
1656.79222,0.06538
1654.86347,0.06569
1652.93473,0.06602
1651.00598,0.06615
1649.07724,0.06619
1647.14849,0.06619
1645.21975,0.06605
1643.29100,0.06579
1641.36226,0.06557
1639.43351,0.06556
1637.50477,0.06573
1635.57602,0.06581
1633.64728,0.06569
1631.71853,0.06562
1629.78978,0.06559
1627.86104,0.06540
1625.93229,0.06511
1624.00355,0.06490
1622.07480,0.06475
1620.14606,0.06464
1618.21731,0.06451
1616.28857,0.06418
1614.35982,0.06371
1612.43108,0.06335
1610.50233,0.06304
1608.57359,0.06261
1606.64484,0.06219
1604.71610,0.06226
1602.78735,0.06307
1600.85861,0.06430
1598.92986,0.06534
1597.00111,0.06593
1595.07237,0.06610
1593.14362,0.06593
1591.21488,0.06560
1589.28613,0.06528
1587.35739,0.06505
1585.42864,0.06493
1583.49990,0.06498
1581.57115,0.06526
1579.64241,0.06563
1577.71366,0.06580
1575.78492,0.06563
1573.85617,0.06549
1571.92743,0.06561
1569.99868,0.06564
1568.06993,0.06550
1566.14119,0.06547
1564.21244,0.06561
1562.28370,0.06581
1560.35495,0.06582
1558.42621,0.06535
1556.49746,0.06478
1554.56872,0.06443
1552.63997,0.06424
1550.71123,0.06416
1548.78248,0.06414
1546.85374,0.06421
1544.92499,0.06432
1542.99625,0.06430
1541.06750,0.06403
1539.13876,0.06383
1537.21001,0.06399
1535.28126,0.06417
1533.35252,0.06412
1531.42377,0.06400
1529.49503,0.06396
1527.56628,0.06398
1525.63754,0.06408
1523.70879,0.06411
1521.78005,0.06384
1519.85130,0.06348
1517.92256,0.06338
1515.99381,0.06328
1514.06507,0.06288
1512.13632,0.06236
1510.20758,0.06199
1508.27883,0.06177
1506.35008,0.06142
1504.42134,0.06096
1502.49259,0.06050
1500.56385,0.05980
1498.63510,0.05887
1496.70636,0.05862
1494.77761,0.06043
1492.84887,0.06403
1490.92012,0.06738
1488.99138,0.06858
1487.06263,0.06798
1485.13389,0.06710
1483.20514,0.06645
1481.27640,0.06599
1479.34765,0.06563
1477.41891,0.06530
1475.49016,0.06504
1473.56141,0.06473
1471.63267,0.06428
1469.70392,0.06393
1467.77518,0.06372
1465.84643,0.06334
1463.91769,0.06267
1461.98894,0.06183
1460.06020,0.06089
1458.13145,0.05980
1456.20271,0.05938
1454.27396,0.06103
1452.34522,0.06422
1450.41647,0.06700
1448.48773,0.06821
1446.55898,0.06847
1444.63024,0.06856
1442.70149,0.06855
1440.77274,0.06854
1438.84400,0.06854
1436.91525,0.06839
1434.98651,0.06811
1433.05776,0.06791
1431.12902,0.06769
1429.20027,0.06727
1427.27153,0.06682
1425.34278,0.06665
1423.41404,0.06668
1421.48529,0.06667
1419.55655,0.06644
1417.62780,0.06610
1415.69906,0.06596
1413.77031,0.06596
1411.84156,0.06585
1409.91282,0.06559
1407.98407,0.06542
1406.05533,0.06540
1404.12658,0.06533
1402.19784,0.06528
1400.26909,0.06531
1398.34035,0.06519
1396.41160,0.06493
1394.48286,0.06469
1392.55411,0.06452
1390.62537,0.06439
1388.69662,0.06420
1386.76788,0.06400
1384.83913,0.06395
1382.91039,0.06411
1380.98164,0.06433
1379.05289,0.06442
1377.12415,0.06445
1375.19540,0.06449
1373.26666,0.06445
1371.33791,0.06441
1369.40917,0.06445
1367.48042,0.06450
1365.55168,0.06456
1363.62293,0.06471
1361.69419,0.06488
1359.76544,0.06489
1357.83670,0.06481
1355.90795,0.06479
1353.97921,0.06488
1352.05046,0.06494
1350.12172,0.06481
1348.19297,0.06461
1346.26422,0.06462
1344.33548,0.06480
1342.40673,0.06498
1340.47799,0.06497
1338.54924,0.06472
1336.62050,0.06437
1334.69175,0.06416
1332.76301,0.06419
1330.83426,0.06432
1328.90552,0.06442
1326.97677,0.06450
1325.04803,0.06454
1323.11928,0.06459
1321.19054,0.06458
1319.26179,0.06449
1317.33304,0.06447
1315.40430,0.06451
1313.47555,0.06455
1311.54681,0.06463
1309.61806,0.06473
1307.68932,0.06472
1305.76057,0.06470
1303.83183,0.06482
1301.90308,0.06498
1299.97434,0.06503
1298.04559,0.06493
1296.11685,0.06469
1294.18810,0.06447
1292.25936,0.06445
1290.33061,0.06460
1288.40187,0.06476
1286.47312,0.06484
1284.54437,0.06485
1282.61563,0.06481
1280.68688,0.06476
1278.75814,0.06476
1276.82939,0.06474
1274.90065,0.06473
1272.97190,0.06475
1271.04316,0.06486
1269.11441,0.06500
1267.18567,0.06508
1265.25692,0.06507
1263.32818,0.06496
1261.39943,0.06482
1259.47069,0.06476
1257.54194,0.06478
1255.61320,0.06476
1253.68445,0.06467
1251.75570,0.06462
1249.82696,0.06461
1247.89821,0.06463
1245.96947,0.06466
1244.04072,0.06471
1242.11198,0.06482
1240.18323,0.06499
1238.25449,0.06502
1236.32574,0.06477
1234.39700,0.06454
1232.46825,0.06454
1230.53951,0.06448
1228.61076,0.06425
1226.68202,0.06423
1224.75327,0.06450
1222.82452,0.06463
1220.89578,0.06445
1218.96703,0.06429
1217.03829,0.06421
1215.10954,0.06403
1213.18080,0.06384
1211.25205,0.06375
1209.32331,0.06363
1207.39456,0.06350
1205.46582,0.06346
1203.53707,0.06348
1201.60833,0.06357
1199.67958,0.06379
1197.75084,0.06400
1195.82209,0.06403
1193.89335,0.06400
1191.96460,0.06398
1190.03585,0.06383
1188.10711,0.06360
1186.17836,0.06343
1184.24962,0.06356
1182.32087,0.06411
1180.39213,0.06454
1178.46338,0.06446
1176.53464,0.06438
1174.60589,0.06447
1172.67715,0.06436
1170.74840,0.06419
1168.81966,0.06422
1166.89091,0.06434
1164.96217,0.06449
1163.03342,0.06460
1161.10467,0.06463
1159.17593,0.06459
1157.24718,0.06456
1155.31844,0.06473
1153.38969,0.06501
1151.46095,0.06515
1149.53220,0.06523
1147.60346,0.06531
1145.67471,0.06535
1143.74597,0.06530
1141.81722,0.06513
1139.88848,0.06498
1137.95973,0.06489
1136.03099,0.06480
1134.10224,0.06489
1132.17350,0.06520
1130.24475,0.06538
1128.31600,0.06522
1126.38726,0.06493
1124.45851,0.06489
1122.52977,0.06498
1120.60102,0.06476
1118.67228,0.06428
1116.74353,0.06385
1114.81479,0.06357
1112.88604,0.06339
1110.95730,0.06332
1109.02855,0.06332
1107.09981,0.06325
1105.17106,0.06309
1103.24232,0.06315
1101.31357,0.06351
1099.38483,0.06376
1097.45608,0.06360
1095.52733,0.06316
1093.59859,0.06289
1091.66984,0.06283
1089.74110,0.06260
1087.81235,0.06220
1085.88361,0.06205
1083.95486,0.06209
1082.02612,0.06185
1080.09737,0.06158
1078.16863,0.06179
1076.23988,0.06219
1074.31114,0.06246
1072.38239,0.06264
1070.45365,0.06267
1068.52490,0.06270
1066.59615,0.06301
1064.66741,0.06339
1062.73866,0.06360
1060.80992,0.06374
1058.88117,0.06395
1056.95243,0.06405
1055.02368,0.06370
1053.09494,0.06325
1051.16619,0.06335
1049.23745,0.06389
1047.30870,0.06419
1045.37996,0.06400
1043.45121,0.06357
1041.52247,0.06319
1039.59372,0.06275
1037.66498,0.06219
1035.73623,0.06177
1033.80748,0.06167
1031.87874,0.06193
1029.94999,0.06265
1028.02125,0.06374
1026.09250,0.06473
1024.16376,0.06526
1022.23501,0.06539
1020.30627,0.06530
1018.37752,0.06514
1016.44878,0.06494
1014.52003,0.06464
1012.59129,0.06443
1010.66254,0.06435
1008.73380,0.06423
1006.80505,0.06421
1004.87631,0.06437
1002.94756,0.06448
1001.01881,0.06443
999.09007,0.06432
997.16132,0.06426
995.23258,0.06422
993.30383,0.06413
991.37509,0.06397
989.44634,0.06382
987.51760,0.06376
985.58885,0.06373
983.66011,0.06366
981.73136,0.06349
979.80262,0.06320
977.87387,0.06313
975.94513,0.06330
974.01638,0.06321
972.08763,0.06286
970.15889,0.06273
968.23014,0.06272
966.30140,0.06266
964.37265,0.06263
962.44391,0.06284
960.51516,0.06326
958.58642,0.06351
956.65767,0.06357
954.72893,0.06368
952.80018,0.06363
950.87144,0.06329
948.94269,0.06300
947.01395,0.06303
945.08520,0.06314
943.15646,0.06311
941.22771,0.06310
939.29896,0.06317
937.37022,0.06324
935.44147,0.06331
933.51273,0.06330
931.58398,0.06318
929.65524,0.06308
927.72649,0.06300
925.79775,0.06283
923.86900,0.06260
921.94026,0.06247
920.01151,0.06234
918.08277,0.06196
916.15402,0.06149
914.22528,0.06136
912.29653,0.06137
910.36779,0.06126
908.43904,0.06130
906.51029,0.06168
904.58155,0.06228
902.65280,0.06287
900.72406,0.06321
898.79531,0.06334
896.86657,0.06325
894.93782,0.06284
893.00908,0.06232
891.08033,0.06215
889.15159,0.06249
887.22284,0.06288
885.29410,0.06292
883.36535,0.06269
881.43661,0.06230
879.50786,0.06196
877.57911,0.06179
875.65037,0.06183
873.72162,0.06214
871.79288,0.06233
869.86413,0.06200
867.93539,0.06137
866.00664,0.06086
864.07790,0.06067
862.14915,0.06083
860.22041,0.06125
858.29166,0.06149
856.36292,0.06117
854.43417,0.06048
852.50543,0.05987
850.57668,0.05955
848.64794,0.05954
846.71919,0.05992
844.79044,0.06039
842.86170,0.06051
840.93295,0.06029
839.00421,0.06000
837.07546,0.05989
835.14672,0.06017
833.21797,0.06057
831.28923,0.06062
829.36048,0.06029
827.43174,0.05974
825.50299,0.05936
823.57425,0.05937
821.64550,0.05940
819.71676,0.05934
817.78801,0.05927
815.85926,0.05905
813.93052,0.05875
812.00177,0.05850
810.07303,0.05832
808.14428,0.05821
806.21554,0.05839
804.28679,0.05870
802.35805,0.05863
800.42930,0.05822
798.50056,0.05801
796.57181,0.05799
794.64307,0.05769
792.71432,0.05706
790.78558,0.05637
788.85683,0.05571
786.92809,0.05510
784.99934,0.05452
783.07059,0.05389
781.14185,0.05333
779.21310,0.05285
777.28436,0.05215
775.35561,0.05149
773.42687,0.05135
771.49812,0.05162
769.56938,0.05196
767.64063,0.05231
765.71189,0.05293
763.78314,0.05386
761.85440,0.05503
759.92565,0.05665
757.99691,0.05862
756.06816,0.06043
754.13942,0.06191
752.21067,0.06313
750.28192,0.06412
748.35318,0.06481
746.42443,0.06538
744.49569,0.06607
742.56694,0.06644
740.63820,0.06588
738.70945,0.06485
736.78071,0.06383
734.85196,0.06273
732.92322,0.06157
730.99447,0.06034
729.06573,0.05920
727.13698,0.05823
725.20824,0.05710
723.27949,0.05580
721.35074,0.05423
719.42200,0.05238
717.49325,0.05091
715.56451,0.04968
713.63576,0.04754
711.70702,0.04428
709.77827,0.04090
707.84953,0.03849
705.92078,0.03914
703.99204,0.04666
702.06329,0.06365
700.13455,0.08779
698.20580,0.11104
696.27706,0.12346
694.34831,0.12128
692.41957,0.11048
690.49082,0.09961
688.56207,0.09209
686.63333,0.08727
684.70458,0.08410
682.77584,0.08164
680.84709,0.07932
678.91835,0.07718
676.98960,0.07527
675.06086,0.07388
673.13211,0.07359
671.20337,0.07389
669.27462,0.07374
667.34588,0.07295
665.41713,0.07220
663.48839,0.07213
661.55964,0.07244
659.63090,0.07238
657.70215,0.07165
655.77340,0.07052
653.84466,0.06945
651.91591,0.06891
649.98717,0.06879
648.05842,0.06870
646.12968,0.06843
644.20093,0.06795
642.27219,0.06779
640.34344,0.06807
638.41470,0.06802
636.48595,0.06783
634.55721,0.06787
632.62846,0.06769
630.69972,0.06720
628.77097,0.06627
626.84222,0.06511
624.91348,0.06490
622.98473,0.06572
621.05599,0.06637
619.12724,0.06637
617.19850,0.06629
615.26975,0.06687
613.34101,0.06797
611.41226,0.06866
609.48352,0.06823
607.55477,0.06706
605.62603,0.06606
603.69728,0.06530
601.76854,0.06510
599.83979,0.06588
