7497.03301,0.81572
7495.10426,0.81970
7493.17552,0.82520
7491.24677,0.82696
7489.31803,0.82579
7487.38928,0.82367
7485.46054,0.82163
7483.53179,0.82297
7481.60305,0.82703
7479.67430,0.82833
7477.74556,0.82448
7475.81681,0.81908
7473.88807,0.81890
7471.95932,0.82429
7470.03057,0.82482
7468.10183,0.81558
7466.17308,0.80695
7464.24434,0.80708
7462.31559,0.81092
7460.38685,0.81143
7458.45810,0.81035
7456.52936,0.81145
7454.60061,0.81166
7452.67187,0.80898
7450.74312,0.80647
7448.81438,0.80486
7446.88563,0.80436
7444.95689,0.80500
7443.02814,0.80351
7441.09940,0.79961
7439.17065,0.79786
7437.24190,0.79923
7435.31316,0.79979
7433.38441,0.79830
7431.45567,0.79731
7429.52692,0.79827
7427.59818,0.80028
7425.66943,0.80100
7423.74069,0.80031
7421.81194,0.79949
7419.88320,0.79793
7417.95445,0.79635
7416.02571,0.79536
7414.09696,0.79284
7412.16822,0.78959
7410.23947,0.79011
7408.31073,0.79531
7406.38198,0.80108
7404.45323,0.80478
7402.52449,0.80363
7400.59574,0.79538
7398.66700,0.78698
7396.73825,0.78765
7394.80951,0.79479
7392.88076,0.79912
7390.95202,0.79931
7389.02327,0.79799
7387.09453,0.79539
7385.16578,0.79441
7383.23704,0.79547
7381.30829,0.79634
7379.37955,0.79851
7377.45080,0.80313
7375.52205,0.80760
7373.59331,0.80862
7371.66456,0.80628
7369.73582,0.80308
7367.80707,0.80211
7365.87833,0.80433
7363.94958,0.80762
7362.02084,0.81117
7360.09209,0.81337
7358.16335,0.81308
7356.23460,0.81226
7354.30586,0.81216
7352.37711,0.81238
7350.44837,0.81061
7348.51962,0.80686
7346.59088,0.80496
7344.66213,0.80542
7342.73338,0.80516
7340.80464,0.80213
7338.87589,0.79606
7336.94715,0.78977
7335.01840,0.78920
7333.08966,0.79378
7331.16091,0.79513
7329.23217,0.79059
7327.30342,0.78543
7325.37468,0.78363
7323.44593,0.78386
7321.51719,0.78479
7319.58844,0.78762
7317.65970,0.79033
7315.73095,0.78864
7313.80221,0.78331
7311.87346,0.78079
7309.94471,0.78287
7308.01597,0.78183
7306.08722,0.77548
7304.15848,0.77074
7302.22973,0.76897
7300.30099,0.76590
7298.37224,0.76200
7296.44350,0.76081
7294.51475,0.75998
7292.58601,0.75606
7290.65726,0.75373
7288.72852,0.75524
7286.79977,0.75537
7284.87103,0.75273
7282.94228,0.75042
7281.01353,0.75039
7279.08479,0.75300
7277.15604,0.75464
7275.22730,0.75093
7273.29855,0.74515
7271.36981,0.74335
7269.44106,0.74541
7267.51232,0.74750
7265.58357,0.74746
7263.65483,0.74585
7261.72608,0.74498
7259.79734,0.74636
7257.86859,0.74690
7255.93985,0.74278
7254.01110,0.73564
7252.08236,0.72953
7250.15361,0.72788
7248.22486,0.72909
7246.29612,0.72697
7244.36737,0.72288
7242.43863,0.72348
7240.50988,0.72683
7238.58114,0.72636
7236.65239,0.72165
7234.72365,0.71718
7232.79490,0.71691
7230.86616,0.72044
7228.93741,0.72267
7227.00867,0.72098
7225.07992,0.71876
7223.15118,0.71888
7221.22243,0.71777
7219.29369,0.71319
7217.36494,0.71133
7215.43619,0.71439
7213.50745,0.71599
7211.57870,0.71416
7209.64996,0.71180
7207.72121,0.70929
7205.79247,0.70789
7203.86372,0.70935
7201.93498,0.71117
7200.00623,0.71095
7198.07749,0.70932
7196.14874,0.70631
7194.22000,0.70288
7192.29125,0.70111
7190.36251,0.69957
7188.43376,0.69644
7186.50501,0.69310
7184.57627,0.69210
7182.64752,0.69323
7180.71878,0.69377
7178.79003,0.69469
7176.86129,0.69585
7174.93254,0.69456
7173.00380,0.69316
7171.07505,0.69339
7169.14631,0.69398
7167.21756,0.69395
7165.28882,0.69286
7163.36007,0.69279
7161.43133,0.69486
7159.50258,0.69605
7157.57384,0.69481
7155.64509,0.69388
7153.71634,0.69470
7151.78760,0.69617
7149.85885,0.69854
7147.93011,0.70224
7146.00136,0.70459
7144.07262,0.70328
7142.14387,0.70146
7140.21513,0.70087
7138.28638,0.69900
7136.35764,0.69683
7134.42889,0.69666
7132.50015,0.69682
7130.57140,0.69654
7128.64266,0.69678
7126.71391,0.69486
7124.78516,0.69077
7122.85642,0.68907
7120.92767,0.68929
7118.99893,0.68875
7117.07018,0.68777
7115.14144,0.68710
7113.21269,0.68544
7111.28395,0.68306
7109.35520,0.68286
7107.42646,0.68491
7105.49771,0.68765
7103.56897,0.68892
7101.64022,0.68769
7099.71148,0.68594
7097.78273,0.68452
7095.85399,0.68428
7093.92524,0.68323
7091.99649,0.67698
7090.06775,0.66952
7088.13900,0.66807
7086.21026,0.67103
7084.28151,0.67341
7082.35277,0.67430
7080.42402,0.67349
7078.49528,0.67042
7076.56653,0.66640
7074.63779,0.66463
7072.70904,0.66659
7070.78030,0.66979
7068.85155,0.67334
7066.92281,0.67713
7064.99406,0.67838
7063.06532,0.67750
7061.13657,0.67726
7059.20782,0.67755
7057.27908,0.67781
7055.35033,0.67865
7053.42159,0.67992
7051.49284,0.68097
7049.56410,0.68028
7047.63535,0.67825
7045.70661,0.67842
7043.77786,0.68017
7041.84912,0.67994
7039.92037,0.67942
7037.99163,0.68203
7036.06288,0.68575
7034.13414,0.68705
7032.20539,0.68717
7030.27664,0.68755
7028.34790,0.68720
7026.41915,0.68704
7024.49041,0.68744
7022.56166,0.68660
7020.63292,0.68633
7018.70417,0.68736
7016.77543,0.68653
7014.84668,0.68581
7012.91794,0.68822
7010.98919,0.69166
7009.06045,0.69359
7007.13170,0.69291
7005.20296,0.69104
7003.27421,0.68950
7001.34547,0.68861
6999.41672,0.68876
6997.48797,0.68895
6995.55923,0.68900
6993.63048,0.68958
6991.70174,0.69069
6989.77299,0.69194
6987.84425,0.69153
6985.91550,0.68887
6983.98676,0.68572
6982.05801,0.68400
6980.12927,0.68515
6978.20052,0.68753
6976.27178,0.68846
6974.34303,0.68897
6972.41429,0.69018
6970.48554,0.69148
6968.55680,0.69326
6966.62805,0.69359
6964.69930,0.69087
6962.77056,0.68823
6960.84181,0.68705
6958.91307,0.68660
6956.98432,0.68753
6955.05558,0.68902
6953.12683,0.68962
6951.19809,0.68935
6949.26934,0.68855
6947.34060,0.68907
6945.41185,0.69178
6943.48311,0.69353
6941.55436,0.69344
6939.62562,0.69450
6937.69687,0.69639
6935.76812,0.69636
6933.83938,0.69611
6931.91063,0.69788
6929.98189,0.69883
6928.05314,0.69746
6926.12440,0.69641
6924.19565,0.69639
6922.26691,0.69549
6920.33816,0.69402
6918.40942,0.69535
6916.48067,0.70058
6914.55193,0.70580
6912.62318,0.70671
6910.69444,0.70462
6908.76569,0.70409
6906.83695,0.70463
6904.90820,0.70428
6902.97945,0.70598
6901.05071,0.71020
6899.12196,0.71233
6897.19322,0.71082
6895.26447,0.70929
6893.33573,0.71040
6891.40698,0.71265
6889.47824,0.71437
6887.54949,0.71474
6885.62075,0.71263
6883.69200,0.70943
6881.76326,0.70756
6879.83451,0.70834
6877.90577,0.71232
6875.97702,0.71695
6874.04828,0.71793
6872.11953,0.71498
6870.19078,0.71240
6868.26204,0.71342
6866.33329,0.71708
6864.40455,0.72058
6862.47580,0.72256
6860.54706,0.72386
6858.61831,0.72454
6856.68957,0.72340
6854.76082,0.72201
6852.83208,0.72321
6850.90333,0.72552
6848.97459,0.72588
6847.04584,0.72516
6845.11710,0.72394
6843.18835,0.72164
6841.25960,0.72085
6839.33086,0.72245
6837.40211,0.72363
6835.47337,0.72344
6833.54462,0.72370
6831.61588,0.72535
6829.68713,0.72719
6827.75839,0.72881
6825.82964,0.73074
6823.90090,0.73228
6821.97215,0.73243
6820.04341,0.73112
6818.11466,0.72897
6816.18592,0.72786
6814.25717,0.72997
6812.32843,0.73308
6810.39968,0.73263
6808.47093,0.72988
6806.54219,0.72814
6804.61344,0.72661
6802.68470,0.72645
6800.75595,0.72989
6798.82721,0.73269
6796.89846,0.73146
6794.96972,0.72976
6793.04097,0.72999
6791.11223,0.73057
6789.18348,0.73096
6787.25474,0.73166
6785.32599,0.73277
6783.39725,0.73434
6781.46850,0.73584
6779.53975,0.73725
6777.61101,0.73805
6775.68226,0.73673
6773.75352,0.73502
6771.82477,0.73563
6769.89603,0.73719
6767.96728,0.73805
6766.03854,0.73894
6764.10979,0.73913
6762.18105,0.73755
6760.25230,0.73564
6758.32356,0.73447
6756.39481,0.73454
6754.46607,0.73641
6752.53732,0.73833
6750.60858,0.73859
6748.67983,0.73790
6746.75108,0.73713
6744.82234,0.73561
6742.89359,0.73367
6740.96485,0.73409
6739.03610,0.73732
6737.10736,0.74035
6735.17861,0.74172
6733.24987,0.74184
6731.32112,0.74127
6729.39238,0.74212
6727.46363,0.74527
6725.53489,0.74687
6723.60614,0.74454
6721.67740,0.74177
6719.74865,0.74143
6717.81991,0.74335
6715.89116,0.74631
6713.96241,0.74738
6712.03367,0.74656
6710.10492,0.74777
6708.17618,0.75022
6706.24743,0.75027
6704.31869,0.74836
6702.38994,0.74624
6700.46120,0.74570
6698.53245,0.74839
6696.60371,0.75194
6694.67496,0.75229
6692.74622,0.74955
6690.81747,0.74720
6688.88873,0.74760
6686.95998,0.74922
6685.03123,0.74953
6683.10249,0.75046
6681.17374,0.75373
6679.24500,0.75563
6677.31625,0.75453
6675.38751,0.75286
6673.45876,0.75158
6671.53002,0.75182
6669.60127,0.75470
6667.67253,0.75762
6665.74378,0.75764
6663.81504,0.75572
6661.88629,0.75520
6659.95755,0.75681
6658.02880,0.75837
6656.10006,0.75959
6654.17131,0.76086
6652.24256,0.76090
6650.31382,0.76061
6648.38507,0.76151
6646.45633,0.76284
6644.52758,0.76385
6642.59884,0.76329
6640.67009,0.76087
6638.74135,0.75944
6636.81260,0.76050
6634.88386,0.76195
6632.95511,0.76158
6631.02637,0.76120
6629.09762,0.76369
6627.16888,0.76601
6625.24013,0.76478
6623.31139,0.76389
6621.38264,0.76573
6619.45389,0.76665
6617.52515,0.76549
6615.59640,0.76522
6613.66766,0.76673
6611.73891,0.76732
6609.81017,0.76576
6607.88142,0.76449
6605.95268,0.76453
6604.02393,0.76452
6602.09519,0.76426
6600.16644,0.76401
6598.23770,0.76436
6596.30895,0.76590
6594.38021,0.76721
6592.45146,0.76781
6590.52271,0.76870
6588.59397,0.76971
6586.66522,0.76980
6584.73648,0.76876
6582.80773,0.76840
6580.87899,0.76913
6578.95024,0.76891
6577.02150,0.76844
6575.09275,0.76935
6573.16401,0.77114
6571.23526,0.77407
6569.30652,0.77695
6567.37777,0.77664
6565.44903,0.77420
6563.52028,0.77294
6561.59154,0.77319
6559.66279,0.77447
6557.73404,0.77698
6555.80530,0.77877
6553.87655,0.77710
6551.94781,0.77336
6550.01906,0.77135
6548.09032,0.77163
6546.16157,0.77192
6544.23283,0.77214
6542.30408,0.77344
6540.37534,0.77474
6538.44659,0.77609
6536.51785,0.77739
6534.58910,0.77738
6532.66036,0.77787
6530.73161,0.77862
6528.80287,0.77774
6526.87412,0.77791
6524.94537,0.77965
6523.01663,0.77982
6521.08788,0.77947
6519.15914,0.78110
6517.23039,0.78342
6515.30165,0.78493
6513.37290,0.78587
6511.44416,0.78687
6509.51541,0.78884
6507.58667,0.79124
6505.65792,0.79147
6503.72918,0.78925
6501.80043,0.78789
6499.87169,0.78788
6497.94294,0.78693
6496.01419,0.78501
6494.08545,0.78366
6492.15670,0.78519
6490.22796,0.79056
6488.29921,0.79643
6486.37047,0.79840
6484.44172,0.79639
6482.51298,0.79393
6480.58423,0.79350
6478.65549,0.79518
6476.72674,0.79639
6474.79800,0.79586
6472.86925,0.79551
6470.94051,0.79615
6469.01176,0.79709
6467.08302,0.79726
6465.15427,0.79664
6463.22552,0.79612
6461.29678,0.79502
6459.36803,0.79416
6457.43929,0.79567
6455.51054,0.79852
6453.58180,0.79980
6451.65305,0.79835
6449.72431,0.79561
6447.79556,0.79440
6445.86682,0.79578
6443.93807,0.79800
6442.00933,0.79895
6440.08058,0.79787
6438.15184,0.79628
6436.22309,0.79615
6434.29434,0.79693
6432.36560,0.79696
6430.43685,0.79600
6428.50811,0.79499
6426.57936,0.79451
6424.65062,0.79499
6422.72187,0.79623
6420.79313,0.79671
6418.86438,0.79668
6416.93564,0.79754
6415.00689,0.79814
6413.07815,0.79739
6411.14940,0.79660
6409.22066,0.79614
6407.29191,0.79532
6405.36317,0.79410
6403.43442,0.79221
6401.50567,0.79014
6399.57693,0.78965
6397.64818,0.79055
6395.71944,0.79110
6393.79069,0.79182
6391.86195,0.79264
6389.93320,0.79189
6388.00446,0.79118
6386.07571,0.79158
6384.14697,0.79048
6382.21822,0.78794
6380.28948,0.78660
6378.36073,0.78720
6376.43199,0.78837
6374.50324,0.78799
6372.57450,0.78601
6370.64575,0.78466
6368.71700,0.78417
6366.78826,0.78306
6364.85951,0.78167
6362.93077,0.78093
6361.00202,0.78025
6359.07328,0.77920
6357.14453,0.77861
6355.21579,0.77863
6353.28704,0.77981
6351.35830,0.78290
6349.42955,0.78540
6347.50081,0.78477
6345.57206,0.78267
6343.64332,0.78197
6341.71457,0.78265
6339.78582,0.78264
6337.85708,0.78123
6335.92833,0.78040
6333.99959,0.78186
6332.07084,0.78330
6330.14210,0.78195
6328.21335,0.77919
6326.28461,0.77697
6324.35586,0.77560
6322.42712,0.77502
6320.49837,0.77529
6318.56963,0.77535
6316.64088,0.77334
6314.71214,0.77066
6312.78339,0.76960
6310.85465,0.76878
6308.92590,0.76715
6306.99715,0.76612
6305.06841,0.76617
6303.13966,0.76642
6301.21092,0.76592
6299.28217,0.76450
6297.35343,0.76251
6295.42468,0.76013
6293.49594,0.75847
6291.56719,0.75859
6289.63845,0.75942
6287.70970,0.75949
6285.78096,0.75930
6283.85221,0.76040
6281.92347,0.76169
6279.99472,0.76053
6278.06598,0.75882
6276.13723,0.75942
6274.20848,0.75946
6272.27974,0.75751
6270.35099,0.75636
6268.42225,0.75576
6266.49350,0.75443
6264.56476,0.75280
6262.63601,0.75096
6260.70727,0.74949
6258.77852,0.74905
6256.84978,0.74840
6254.92103,0.74600
6252.99229,0.74269
6251.06354,0.74017
6249.13480,0.73899
6247.20605,0.73850
6245.27730,0.73707
6243.34856,0.73430
6241.41981,0.73122
6239.49107,0.72921
6237.56232,0.72863
6235.63358,0.72748
6233.70483,0.72521
6231.77609,0.72375
6229.84734,0.72243
6227.91860,0.71950
6225.98985,0.71682
6224.06111,0.71619
6222.13236,0.71556
6220.20362,0.71303
6218.27487,0.71021
6216.34613,0.70896
6214.41738,0.70824
6212.48863,0.70674
6210.55989,0.70431
6208.63114,0.70083
6206.70240,0.69718
6204.77365,0.69337
6202.84491,0.68932
6200.91616,0.68749
6198.98742,0.68751
6197.05867,0.68653
6195.12993,0.68389
6193.20118,0.67892
6191.27244,0.67211
6189.34369,0.66669
6187.41495,0.66405
6185.48620,0.66171
6183.55746,0.65737
6181.62871,0.65296
6179.69996,0.65048
6177.77122,0.64797
6175.84247,0.64298
6173.91373,0.63526
6171.98498,0.62691
6170.05624,0.62049
6168.12749,0.61532
6166.19875,0.60902
6164.27000,0.60117
6162.34126,0.59233
6160.41251,0.58272
6158.48377,0.57325
6156.55502,0.56524
6154.62628,0.55887
6152.69753,0.55229
6150.76878,0.54382
6148.84004,0.53458
6146.91129,0.52618
6144.98255,0.51857
6143.05380,0.51147
6141.12506,0.50556
6139.19631,0.50173
6137.26757,0.49950
6135.33882,0.49779
6133.41008,0.49514
6131.48133,0.48998
6129.55259,0.48303
6127.62384,0.47681
6125.69510,0.47167
6123.76635,0.46542
6121.83761,0.45787
6119.90886,0.45170
6117.98011,0.44763
6116.05137,0.44339
6114.12262,0.43843
6112.19388,0.43475
6110.26513,0.43258
6108.33639,0.43093
6106.40764,0.43077
6104.47890,0.43316
6102.55015,0.43629
6100.62141,0.43790
6098.69266,0.43888
6096.76392,0.44087
6094.83517,0.44326
6092.90643,0.44461
6090.97768,0.44464
6089.04893,0.44325
6087.12019,0.43998
6085.19144,0.43606
6083.26270,0.43324
6081.33395,0.43142
6079.40521,0.42949
6077.47646,0.42620
6075.54772,0.42323
6073.61897,0.42395
6071.69023,0.42770
6069.76148,0.43209
6067.83274,0.43733
6065.90399,0.44404
6063.97525,0.45130
6062.04650,0.45862
6060.11776,0.46609
6058.18901,0.47287
6056.26026,0.47791
6054.33152,0.48083
6052.40277,0.48186
6050.47403,0.48104
6048.54528,0.47786
6046.61654,0.47275
6044.68779,0.46685
6042.75905,0.46110
6040.83030,0.45557
6038.90156,0.44870
6036.97281,0.43972
6035.04407,0.42991
6033.11532,0.41996
6031.18658,0.41016
6029.25783,0.40137
6027.32909,0.39258
6025.40034,0.38226
6023.47159,0.37150
6021.54285,0.36160
6019.61410,0.35180
6017.68536,0.34293
6015.75661,0.33597
6013.82787,0.32788
6011.89912,0.31726
6009.97038,0.30723
6008.04163,0.29912
6006.11289,0.29179
6004.18414,0.28450
6002.25540,0.27649
6000.32665,0.26822
5998.39791,0.26196
5996.46916,0.25839
5994.54041,0.25502
5992.61167,0.24982
5990.68292,0.24395
5988.75418,0.23908
5986.82543,0.23489
5984.89669,0.23041
5982.96794,0.22544
5981.03920,0.22046
5979.11045,0.21542
5977.18171,0.20985
5975.25296,0.20484
5973.32422,0.20205
5971.39547,0.20110
5969.46673,0.19996
5967.53798,0.19803
5965.60924,0.19637
5963.68049,0.19529
5961.75174,0.19516
5959.82300,0.19583
5957.89425,0.19560
5955.96551,0.19422
5954.03676,0.19311
5952.10802,0.19276
5950.17927,0.19263
5948.25053,0.19201
5946.32178,0.19075
5944.39304,0.18986
5942.46429,0.19009
5940.53555,0.19128
5938.60680,0.19346
5936.67806,0.19587
5934.74931,0.19756
5932.82057,0.19915
5930.89182,0.20078
5928.96307,0.20194
5927.03433,0.20327
5925.10558,0.20526
5923.17684,0.20732
5921.24809,0.20890
5919.31935,0.21015
5917.39060,0.21106
5915.46186,0.21107
5913.53311,0.21126
5911.60437,0.21335
5909.67562,0.21628
5907.74688,0.21853
5905.81813,0.22032
5903.88939,0.22193
5901.96064,0.22335
5900.03189,0.22389
5898.10315,0.22365
5896.17440,0.22473
5894.24566,0.22830
5892.31691,0.23349
5890.38817,0.23871
5888.45942,0.24241
5886.53068,0.24557
5884.60193,0.25009
5882.67319,0.25461
5880.74444,0.25785
5878.81570,0.26108
5876.88695,0.26511
5874.95821,0.27001
5873.02946,0.27532
5871.10072,0.28006
5869.17197,0.28439
5867.24322,0.28834
5865.31448,0.29052
5863.38573,0.29116
5861.45699,0.29241
5859.52824,0.29442
5857.59950,0.29556
5855.67075,0.29563
5853.74201,0.29553
5851.81326,0.29565
5849.88452,0.29594
5847.95577,0.29643
5846.02703,0.29698
5844.09828,0.29726
5842.16954,0.29728
5840.24079,0.29730
5838.31205,0.29786
5836.38330,0.29930
5834.45455,0.30086
5832.52581,0.30164
5830.59706,0.30130
5828.66832,0.30041
5826.73957,0.30044
5824.81083,0.30158
5822.88208,0.30242
5820.95334,0.30233
5819.02459,0.30208
5817.09585,0.30233
5815.16710,0.30277
5813.23836,0.30274
5811.30961,0.30171
5809.38087,0.30005
5807.45212,0.29913
5805.52337,0.29980
5803.59463,0.30125
5801.66588,0.30215
5799.73714,0.30217
5797.80839,0.30210
5795.87965,0.30237
5793.95090,0.30263
5792.02216,0.30324
5790.09341,0.30444
5788.16467,0.30544
5786.23592,0.30677
5784.30718,0.30921
5782.37843,0.31217
5780.44969,0.31584
5778.52094,0.32025
5776.59220,0.32426
5774.66345,0.32810
5772.73470,0.33289
5770.80596,0.33852
5768.87721,0.34413
5766.94847,0.34961
5765.01972,0.35498
5763.09098,0.35915
5761.16223,0.36213
5759.23349,0.36605
5757.30474,0.37146
5755.37600,0.37702
5753.44725,0.38221
5751.51851,0.38672
5749.58976,0.39026
5747.66102,0.39400
5745.73227,0.39790
5743.80352,0.39998
5741.87478,0.40077
5739.94603,0.40237
5738.01729,0.40420
5736.08854,0.40489
5734.15980,0.40449
5732.23105,0.40311
5730.30231,0.40085
5728.37356,0.39804
5726.44482,0.39446
5724.51607,0.39032
5722.58733,0.38618
5720.65858,0.38181
5718.72984,0.37728
5716.80109,0.37289
5714.87235,0.36856
5712.94360,0.36473
5711.01485,0.36184
5709.08611,0.35864
5707.15736,0.35398
5705.22862,0.34931
5703.29987,0.34610
5701.37113,0.34385
5699.44238,0.34218
5697.51364,0.34109
5695.58489,0.33998
5693.65615,0.33881
5691.72740,0.33812
5689.79866,0.33742
5687.86991,0.33616
5685.94117,0.33463
5684.01242,0.33313
5682.08368,0.33213
5680.15493,0.33129
5678.22618,0.32923
5676.29744,0.32607
5674.36869,0.32336
5672.43995,0.32152
5670.51120,0.31998
5668.58246,0.31958
5666.65371,0.32143
5664.72497,0.32424
5662.79622,0.32635
5660.86748,0.32800
5658.93873,0.32971
5657.00999,0.33133
5655.08124,0.33303
5653.15250,0.33556
5651.22375,0.33903
5649.29500,0.34279
5647.36626,0.34671
5645.43751,0.35045
5643.50877,0.35355
5641.58002,0.35631
5639.65128,0.35889
5637.72253,0.36197
5635.79379,0.36604
5633.86504,0.36928
5631.93630,0.37087
5630.00755,0.37256
5628.07881,0.37508
5626.15006,0.37760
5624.22132,0.37970
5622.29257,0.38155
5620.36383,0.38309
5618.43508,0.38398
5616.50633,0.38443
5614.57759,0.38497
5612.64884,0.38525
5610.72010,0.38512
5608.79135,0.38533
5606.86261,0.38603
5604.93386,0.38649
5603.00512,0.38615
5601.07637,0.38535
5599.14763,0.38473
5597.21888,0.38423
5595.29014,0.38359
5593.36139,0.38254
5591.43265,0.38062
5589.50390,0.37846
5587.57516,0.37727
5585.64641,0.37706
5583.71766,0.37735
5581.78892,0.37835
5579.86017,0.38039
5577.93143,0.38279
5576.00268,0.38471
5574.07394,0.38642
5572.14519,0.38824
5570.21645,0.38987
5568.28770,0.39096
5566.35896,0.39104
5564.43021,0.39051
5562.50147,0.39055
5560.57272,0.39097
5558.64398,0.39135
5556.71523,0.39204
5554.78648,0.39275
5552.85774,0.39314
5550.92899,0.39313
5549.00025,0.39279
5547.07150,0.39252
5545.14276,0.39220
5543.21401,0.39165
5541.28527,0.39078
5539.35652,0.38985
5537.42778,0.39003
5535.49903,0.39132
5533.57029,0.39195
5531.64154,0.39141
5529.71280,0.39065
5527.78405,0.39021
5525.85531,0.39072
5523.92656,0.39226
5521.99781,0.39332
5520.06907,0.39336
5518.14032,0.39379
5516.21158,0.39489
5514.28283,0.39564
5512.35409,0.39618
5510.42534,0.39699
5508.49660,0.39728
5506.56785,0.39655
5504.63911,0.39578
5502.71036,0.39652
5500.78162,0.39874
5498.85287,0.40067
5496.92413,0.40193
5494.99538,0.40357
5493.06664,0.40566
5491.13789,0.40797
5489.20914,0.41031
5487.28040,0.41189
5485.35165,0.41257
5483.42291,0.41322
5481.49416,0.41422
5479.56542,0.41508
5477.63667,0.41536
5475.70793,0.41525
5473.77918,0.41550
5471.85044,0.41637
5469.92169,0.41734
5467.99295,0.41807
5466.06420,0.41855
5464.13546,0.41911
5462.20671,0.42027
5460.27796,0.42127
5458.34922,0.42059
5456.42047,0.41882
5454.49173,0.41773
5452.56298,0.41747
5450.63424,0.41744
5448.70549,0.41683
5446.77675,0.41553
5444.84800,0.41528
5442.91926,0.41608
5440.99051,0.41586
5439.06177,0.41483
5437.13302,0.41440
5435.20428,0.41463
5433.27553,0.41519
5431.34679,0.41555
5429.41804,0.41534
5427.48929,0.41517
5425.56055,0.41490
5423.63180,0.41414
5421.70306,0.41378
5419.77431,0.41400
5417.84557,0.41404
5415.91682,0.41382
5413.98808,0.41369
5412.05933,0.41361
5410.13059,0.41366
5408.20184,0.41361
5406.27310,0.41260
5404.34435,0.41114
5402.41561,0.41035
5400.48686,0.40974
5398.55811,0.40935
5396.62937,0.40981
5394.70062,0.40991
5392.77188,0.40891
5390.84313,0.40823
5388.91439,0.40827
5386.98564,0.40767
5385.05690,0.40627
5383.12815,0.40594
5381.19941,0.40715
5379.27066,0.40786
5377.34192,0.40744
5375.41317,0.40720
5373.48443,0.40724
5371.55568,0.40732
5369.62694,0.40775
5367.69819,0.40824
5365.76944,0.40860
5363.84070,0.40894
5361.91195,0.40961
5359.98321,0.41135
5358.05446,0.41373
5356.12572,0.41556
5354.19697,0.41679
5352.26823,0.41783
5350.33948,0.41862
5348.41074,0.41921
5346.48199,0.42022
5344.55325,0.42203
5342.62450,0.42383
5340.69576,0.42520
5338.76701,0.42696
5336.83827,0.42843
5334.90952,0.42842
5332.98077,0.42822
5331.05203,0.42951
5329.12328,0.43141
5327.19454,0.43215
5325.26579,0.43217
5323.33705,0.43303
5321.40830,0.43476
5319.47956,0.43610
5317.55081,0.43646
5315.62207,0.43646
5313.69332,0.43694
5311.76458,0.43780
5309.83583,0.43822
5307.90709,0.43781
5305.97834,0.43732
5304.04959,0.43718
5302.12085,0.43667
5300.19210,0.43597
5298.26336,0.43602
5296.33461,0.43664
5294.40587,0.43754
5292.47712,0.43858
5290.54838,0.43923
5288.61963,0.43950
5286.69089,0.43988
5284.76214,0.44047
5282.83340,0.44080
5280.90465,0.44060
5278.97591,0.44051
5277.04716,0.44111
5275.11842,0.44190
5273.18967,0.44197
5271.26092,0.44140
5269.33218,0.44106
5267.40343,0.44131
5265.47469,0.44191
5263.54594,0.44232
5261.61720,0.44202
5259.68845,0.44124
5257.75971,0.44069
5255.83096,0.44067
5253.90222,0.44095
5251.97347,0.44110
5250.04473,0.44077
5248.11598,0.44022
5246.18724,0.44035
5244.25849,0.44086
5242.32975,0.44055
5240.40100,0.44008
5238.47225,0.44039
5236.54351,0.44017
5234.61476,0.43901
5232.68602,0.43843
5230.75727,0.43898
5228.82853,0.43987
5226.89978,0.44033
5224.97104,0.44025
5223.04229,0.44050
5221.11355,0.44183
5219.18480,0.44358
5217.25606,0.44468
5215.32731,0.44523
5213.39857,0.44595
5211.46982,0.44694
5209.54107,0.44748
5207.61233,0.44763
5205.68358,0.44842
5203.75484,0.44975
5201.82609,0.45048
5199.89735,0.45036
5197.96860,0.45048
5196.03986,0.45132
5194.11111,0.45207
5192.18237,0.45262
5190.25362,0.45313
5188.32488,0.45312
5186.39613,0.45279
5184.46739,0.45306
5182.53864,0.45385
5180.60990,0.45439
5178.68115,0.45416
5176.75240,0.45317
5174.82366,0.45239
5172.89491,0.45279
5170.96617,0.45407
5169.03742,0.45530
5167.10868,0.45585
5165.17993,0.45571
5163.25119,0.45526
5161.32244,0.45510
5159.39370,0.45559
5157.46495,0.45613
5155.53621,0.45621
5153.60746,0.45636
5151.67872,0.45654
5149.74997,0.45592
5147.82123,0.45467
5145.89248,0.45344
5143.96373,0.45254
5142.03499,0.45243
5140.10624,0.45259
5138.17750,0.45212
5136.24875,0.45148
5134.32001,0.45103
5132.39126,0.45020
5130.46252,0.44933
5128.53377,0.44925
5126.60503,0.44937
5124.67628,0.44888
5122.74754,0.44812
5120.81879,0.44775
5118.89005,0.44821
5116.96130,0.44937
5115.03255,0.45041
5113.10381,0.45105
5111.17506,0.45170
5109.24632,0.45216
5107.31757,0.45225
5105.38883,0.45242
5103.46008,0.45328
5101.53134,0.45481
5099.60259,0.45578
5097.67385,0.45536
5095.74510,0.45457
5093.81636,0.45441
5091.88761,0.45479
5089.95887,0.45543
5088.03012,0.45598
5086.10138,0.45625
5084.17263,0.45651
5082.24388,0.45666
5080.31514,0.45656
5078.38639,0.45619
5076.45765,0.45549
5074.52890,0.45497
5072.60016,0.45538
5070.67141,0.45643
5068.74267,0.45709
5066.81392,0.45701
5064.88518,0.45667
5062.95643,0.45657
5061.02769,0.45654
5059.09894,0.45602
5057.17020,0.45507
5055.24145,0.45441
5053.31270,0.45439
5051.38396,0.45471
5049.45521,0.45490
5047.52647,0.45461
5045.59772,0.45394
5043.66898,0.45344
5041.74023,0.45358
5039.81149,0.45419
5037.88274,0.45458
5035.95400,0.45460
5034.02525,0.45470
5032.09651,0.45513
5030.16776,0.45575
5028.23902,0.45622
5026.31027,0.45641
5024.38153,0.45680
5022.45278,0.45763
5020.52403,0.45817
5018.59529,0.45802
5016.66654,0.45789
5014.73780,0.45799
5012.80905,0.45781
5010.88031,0.45760
5008.95156,0.45771
5007.02282,0.45757
5005.09407,0.45705
5003.16533,0.45666
5001.23658,0.45651
4999.30784,0.45595
4997.37909,0.45455
4995.45035,0.45277
4993.52160,0.45138
4991.59286,0.45061
4989.66411,0.44950
4987.73536,0.44775
4985.80662,0.44667
4983.87787,0.44649
4981.94913,0.44627
4980.02038,0.44579
4978.09164,0.44532
4976.16289,0.44523
4974.23415,0.44557
4972.30540,0.44603
4970.37666,0.44671
4968.44791,0.44737
4966.51917,0.44726
4964.59042,0.44657
4962.66168,0.44607
4960.73293,0.44606
4958.80418,0.44646
4956.87544,0.44717
4954.94669,0.44786
4953.01795,0.44810
4951.08920,0.44778
4949.16046,0.44713
4947.23171,0.44656
4945.30297,0.44617
4943.37422,0.44594
4941.44548,0.44585
4939.51673,0.44548
4937.58799,0.44472
4935.65924,0.44439
4933.73050,0.44496
4931.80175,0.44559
4929.87301,0.44566
4927.94426,0.44562
4926.01551,0.44575
4924.08677,0.44591
4922.15802,0.44622
4920.22928,0.44646
4918.30053,0.44630
4916.37179,0.44624
4914.44304,0.44676
4912.51430,0.44744
4910.58555,0.44768
4908.65681,0.44720
4906.72806,0.44627
4904.79932,0.44555
4902.87057,0.44528
4900.94183,0.44524
4899.01308,0.44504
4897.08434,0.44447
4895.15559,0.44379
4893.22684,0.44310
4891.29810,0.44196
4889.36935,0.44060
4887.44061,0.43988
4885.51186,0.43962
4883.58312,0.43880
4881.65437,0.43726
4879.72563,0.43574
4877.79688,0.43479
4875.86814,0.43416
4873.93939,0.43325
4872.01065,0.43202
4870.08190,0.43091
4868.15316,0.43018
4866.22441,0.43019
4864.29566,0.43083
4862.36692,0.43096
4860.43817,0.43017
4858.50943,0.42939
4856.58068,0.42906
4854.65194,0.42873
4852.72319,0.42817
4850.79445,0.42753
4848.86570,0.42646
4846.93696,0.42490
4845.00821,0.42322
4843.07947,0.42134
4841.15072,0.41908
4839.22198,0.41705
4837.29323,0.41590
4835.36449,0.41541
4833.43574,0.41514
4831.50699,0.41502
4829.57825,0.41525
4827.64950,0.41561
4825.72076,0.41559
4823.79201,0.41573
4821.86327,0.41684
4819.93452,0.41804
4818.00578,0.41855
4816.07703,0.41880
4814.14829,0.41895
4812.21954,0.41881
4810.29080,0.41890
4808.36205,0.41958
4806.43331,0.42012
4804.50456,0.41993
4802.57582,0.41918
4800.64707,0.41835
4798.71832,0.41771
4796.78958,0.41712
4794.86083,0.41639
4792.93209,0.41555
4791.00334,0.41445
4789.07460,0.41298
4787.14585,0.41157
4785.21711,0.41051
4783.28836,0.40897
4781.35962,0.40608
4779.43087,0.40253
4777.50213,0.39937
4775.57338,0.39640
4773.64464,0.39314
4771.71589,0.38966
4769.78714,0.38595
4767.85840,0.38216
4765.92965,0.37888
4764.00091,0.37631
4762.07216,0.37424
4760.14342,0.37303
4758.21467,0.37287
4756.28593,0.37315
4754.35718,0.37361
4752.42844,0.37398
4750.49969,0.37359
4748.57095,0.37247
4746.64220,0.37121
4744.71346,0.37003
4742.78471,0.36856
4740.85597,0.36642
4738.92722,0.36370
4736.99847,0.36086
4735.06973,0.35823
4733.14098,0.35541
4731.21224,0.35182
4729.28349,0.34761
4727.35475,0.34307
4725.42600,0.33808
4723.49726,0.33258
4721.56851,0.32641
4719.63977,0.31980
4717.71102,0.31332
4715.78228,0.30696
4713.85353,0.30066
4711.92479,0.29489
4709.99604,0.29053
4708.06729,0.28758
4706.13855,0.28524
4704.20980,0.28341
4702.28106,0.28196
4700.35231,0.27990
4698.42357,0.27632
4696.49482,0.27124
4694.56608,0.26570
4692.63733,0.26021
4690.70859,0.25360
4688.77984,0.24499
4686.85110,0.23495
4684.92235,0.22366
4682.99361,0.21094
4681.06486,0.19747
4679.13612,0.18415
4677.20737,0.17151
4675.27862,0.16013
4673.34988,0.15055
4671.42113,0.14278
4669.49239,0.13671
4667.56364,0.13272
4665.63490,0.13055
4663.70615,0.12945
4661.77741,0.12947
4659.84866,0.13093
4657.91992,0.13363
4655.99117,0.13736
4654.06243,0.14213
4652.13368,0.14770
4650.20494,0.15304
4648.27619,0.15690
4646.34745,0.15918
4644.41870,0.16038
4642.48995,0.16035
4640.56121,0.15877
4638.63246,0.15588
4636.70372,0.15232
4634.77497,0.14857
4632.84623,0.14464
4630.91748,0.14063
4628.98874,0.13725
4627.05999,0.13503
4625.13125,0.13362
4623.20250,0.13263
4621.27376,0.13214
4619.34501,0.13202
4617.41627,0.13181
4615.48752,0.13110
4613.55877,0.12966
4611.63003,0.12788
4609.70128,0.12648
4607.77254,0.12597
4605.84379,0.12650
4603.91505,0.12801
4601.98630,0.13099
4600.05756,0.13590
4598.12881,0.14222
4596.20007,0.14908
4594.27132,0.15575
4592.34258,0.16136
4590.41383,0.16544
4588.48509,0.16833
4586.55634,0.17067
4584.62760,0.17231
4582.69885,0.17195
4580.77010,0.16863
4578.84136,0.16319
4576.91261,0.15707
4574.98387,0.15109
4573.05512,0.14663
4571.12638,0.14516
4569.19763,0.14688
4567.26889,0.15150
4565.34014,0.15879
4563.41140,0.16769
4561.48265,0.17650
4559.55391,0.18412
4557.62516,0.19064
4555.69642,0.19654
4553.76767,0.20219
4551.83893,0.20779
4549.91018,0.21340
4547.98143,0.21937
4546.05269,0.22543
4544.12394,0.23036
4542.19520,0.23359
4540.26645,0.23548
4538.33771,0.23617
4536.40896,0.23606
4534.48022,0.23606
4532.55147,0.23652
4530.62273,0.23729
4528.69398,0.23860
4526.76524,0.24022
4524.83649,0.24123
4522.90775,0.24133
4520.97900,0.24083
4519.05025,0.24013
4517.12151,0.23948
4515.19276,0.23901
4513.26402,0.23869
4511.33527,0.23818
4509.40653,0.23703
4507.47778,0.23526
4505.54904,0.23352
4503.62029,0.23272
4501.69155,0.23373
4499.76280,0.23667
4497.83406,0.24072
4495.90531,0.24483
4493.97657,0.24808
4492.04782,0.24970
4490.11908,0.24974
4488.19033,0.24902
4486.26158,0.24852
4484.33284,0.24850
4482.40409,0.24855
4480.47535,0.24872
4478.54660,0.24950
4476.61786,0.25105
4474.68911,0.25339
4472.76037,0.25644
4470.83162,0.25965
4468.90288,0.26248
4466.97413,0.26474
4465.04539,0.26643
4463.11664,0.26767
4461.18790,0.26866
4459.25915,0.26920
4457.33041,0.26879
4455.40166,0.26737
4453.47291,0.26532
4451.54417,0.26286
4449.61542,0.25989
4447.68668,0.25637
4445.75793,0.25227
4443.82919,0.24799
4441.90044,0.24468
4439.97170,0.24293
4438.04295,0.24236
4436.11421,0.24266
4434.18546,0.24330
4432.25672,0.24367
4430.32797,0.24365
4428.39923,0.24316
4426.47048,0.24194
4424.54173,0.24002
4422.61299,0.23773
4420.68424,0.23535
4418.75550,0.23279
4416.82675,0.23007
4414.89801,0.22744
4412.96926,0.22478
4411.04052,0.22210
4409.11177,0.21952
4407.18303,0.21660
4405.25428,0.21348
4403.32554,0.21084
4401.39679,0.20820
4399.46805,0.20502
4397.53930,0.20175
4395.61056,0.19850
4393.68181,0.19491
4391.75306,0.19109
4389.82432,0.18749
4387.89557,0.18431
4385.96683,0.18149
4384.03808,0.17872
4382.10934,0.17563
4380.18059,0.17227
4378.25185,0.16891
4376.32310,0.16575
4374.39436,0.16282
4372.46561,0.15986
4370.53687,0.15683
4368.60812,0.15377
4366.67938,0.15071
4364.75063,0.14761
4362.82189,0.14435
4360.89314,0.14112
4358.96439,0.13859
4357.03565,0.13680
4355.10690,0.13514
4353.17816,0.13359
4351.24941,0.13222
4349.32067,0.13042
4347.39192,0.12811
4345.46318,0.12618
4343.53443,0.12478
4341.60569,0.12332
4339.67694,0.12187
4337.74820,0.12085
4335.81945,0.12003
4333.89071,0.11926
4331.96196,0.11878
4330.03321,0.11859
4328.10447,0.11872
4326.17572,0.11962
4324.24698,0.12137
4322.31823,0.12328
4320.38949,0.12515
4318.46074,0.12726
4316.53200,0.12962
4314.60325,0.13218
4312.67451,0.13470
4310.74576,0.13677
4308.81702,0.13808
4306.88827,0.13842
4304.95953,0.13808
4303.03078,0.13768
4301.10204,0.13757
4299.17329,0.13752
4297.24454,0.13705
4295.31580,0.13633
4293.38705,0.13574
4291.45831,0.13500
4289.52956,0.13386
4287.60082,0.13240
4285.67207,0.13069
4283.74333,0.12894
4281.81458,0.12726
4279.88584,0.12531
4277.95709,0.12321
4276.02835,0.12159
4274.09960,0.12020
4272.17086,0.11841
4270.24211,0.11639
4268.31336,0.11457
4266.38462,0.11289
4264.45587,0.11121
4262.52713,0.10969
4260.59838,0.10832
4258.66964,0.10676
4256.74089,0.10532
4254.81215,0.10427
4252.88340,0.10342
4250.95466,0.10283
4249.02591,0.10281
4247.09717,0.10349
4245.16842,0.10434
4243.23968,0.10477
4241.31093,0.10513
4239.38219,0.10580
4237.45344,0.10644
4235.52469,0.10666
4233.59595,0.10655
4231.66720,0.10644
4229.73846,0.10669
4227.80971,0.10732
4225.88097,0.10796
4223.95222,0.10846
4222.02348,0.10881
4220.09473,0.10910
4218.16599,0.10936
4216.23724,0.10920
4214.30850,0.10859
4212.37975,0.10807
4210.45101,0.10788
4208.52226,0.10781
4206.59352,0.10783
4204.66477,0.10821
4202.73602,0.10901
4200.80728,0.10999
4198.87853,0.11095
4196.94979,0.11207
4195.02104,0.11339
4193.09230,0.11455
4191.16355,0.11548
4189.23481,0.11631
4187.30606,0.11682
4185.37732,0.11716
4183.44857,0.11770
4181.51983,0.11828
4179.59108,0.11863
4177.66234,0.11891
4175.73359,0.11961
4173.80484,0.12090
4171.87610,0.12223
4169.94735,0.12313
4168.01861,0.12375
4166.08986,0.12422
4164.16112,0.12444
4162.23237,0.12438
4160.30363,0.12428
4158.37488,0.12425
4156.44614,0.12429
4154.51739,0.12464
4152.58865,0.12514
4150.65990,0.12518
4148.73116,0.12485
4146.80241,0.12467
4144.87367,0.12454
4142.94492,0.12423
4141.01617,0.12382
4139.08743,0.12323
4137.15868,0.12240
4135.22994,0.12148
4133.30119,0.12044
4131.37245,0.11941
4129.44370,0.11860
4127.51496,0.11775
4125.58621,0.11678
4123.65747,0.11593
4121.72872,0.11529
4119.79998,0.11469
4117.87123,0.11394
4115.94249,0.11307
4114.01374,0.11232
4112.08500,0.11168
4110.15625,0.11098
4108.22750,0.11023
4106.29876,0.10967
4104.37001,0.10951
4102.44127,0.10944
4100.51252,0.10885
4098.58378,0.10788
4096.65503,0.10709
4094.72629,0.10647
4092.79754,0.10561
4090.86880,0.10435
4088.94005,0.10275
4087.01131,0.10094
4085.08256,0.09933
4083.15382,0.09811
4081.22507,0.09702
4079.29632,0.09579
4077.36758,0.09414
4075.43883,0.09197
4073.51009,0.08975
4071.58134,0.08795
4069.65260,0.08653
4067.72385,0.08519
4065.79511,0.08390
4063.86636,0.08293
4061.93762,0.08231
4060.00887,0.08183
4058.08013,0.08138
4056.15138,0.08104
4054.22264,0.08077
4052.29389,0.08054
4050.36515,0.08042
4048.43640,0.08051
4046.50765,0.08084
4044.57891,0.08113
4042.65016,0.08103
4040.72142,0.08059
4038.79267,0.08001
4036.86393,0.07959
4034.93518,0.07985
4033.00644,0.08099
4031.07769,0.08242
4029.14895,0.08369
4027.22020,0.08502
4025.29146,0.08672
4023.36271,0.08877
4021.43397,0.09123
4019.50522,0.09417
4017.57648,0.09737
4015.64773,0.10071
4013.71898,0.10384
4011.79024,0.10597
4009.86149,0.10711
4007.93275,0.10786
4006.00400,0.10824
4004.07526,0.10830
4002.14651,0.10832
4000.21777,0.10847
3998.28902,0.10912
3996.36028,0.11059
3994.43153,0.11276
3992.50279,0.11527
3990.57404,0.11755
3988.64530,0.11915
3986.71655,0.12020
3984.78780,0.12092
3982.85906,0.12113
3980.93031,0.12080
3979.00157,0.12042
3977.07282,0.12023
3975.14408,0.12011
3973.21533,0.12029
3971.28659,0.12098
3969.35784,0.12189
3967.42910,0.12272
3965.50035,0.12332
3963.57161,0.12375
3961.64286,0.12408
3959.71412,0.12429
3957.78537,0.12443
3955.85663,0.12455
3953.92788,0.12464
3951.99913,0.12471
3950.07039,0.12474
3948.14164,0.12453
3946.21290,0.12414
3944.28415,0.12379
3942.35541,0.12321
3940.42666,0.12253
3938.49792,0.12223
3936.56917,0.12227
3934.64043,0.12237
3932.71168,0.12240
3930.78294,0.12251
3928.85419,0.12284
3926.92545,0.12337
3924.99670,0.12398
3923.06795,0.12437
3921.13921,0.12462
3919.21046,0.12513
3917.28172,0.12584
3915.35297,0.12631
3913.42423,0.12650
3911.49548,0.12671
3909.56674,0.12700
3907.63799,0.12708
3905.70925,0.12698
3903.78050,0.12704
3901.85176,0.12729
3899.92301,0.12761
3897.99427,0.12786
3896.06552,0.12808
3894.13678,0.12840
3892.20803,0.12874
3890.27928,0.12900
3888.35054,0.12926
3886.42179,0.12977
3884.49305,0.13050
3882.56430,0.13092
3880.63556,0.13078
3878.70681,0.13035
3876.77807,0.12993
3874.84932,0.12970
3872.92058,0.12989
3870.99183,0.13021
3869.06309,0.13017
3867.13434,0.13011
3865.20560,0.13028
3863.27685,0.13035
3861.34811,0.13031
3859.41936,0.13042
3857.49061,0.13077
3855.56187,0.13115
3853.63312,0.13117
3851.70438,0.13072
3849.77563,0.13018
3847.84689,0.12970
3845.91814,0.12918
3843.98940,0.12858
3842.06065,0.12816
3840.13191,0.12788
3838.20316,0.12737
3836.27442,0.12672
3834.34567,0.12618
3832.41693,0.12556
3830.48818,0.12472
3828.55943,0.12389
3826.63069,0.12318
3824.70194,0.12258
3822.77320,0.12198
3820.84445,0.12148
3818.91571,0.12136
3816.98696,0.12166
3815.05822,0.12201
3813.12947,0.12203
3811.20073,0.12191
3809.27198,0.12185
3807.34324,0.12157
3805.41449,0.12119
3803.48575,0.12140
3801.55700,0.12211
3799.62826,0.12270
3797.69951,0.12328
3795.77076,0.12416
3793.84202,0.12516
3791.91327,0.12610
3789.98453,0.12701
3788.05578,0.12796
3786.12704,0.12895
3784.19829,0.12978
3782.26955,0.13027
3780.34080,0.13061
3778.41206,0.13094
3776.48331,0.13107
3774.55457,0.13100
3772.62582,0.13091
3770.69708,0.13067
3768.76833,0.13018
3766.83959,0.12961
3764.91084,0.12928
3762.98209,0.12951
3761.05335,0.13003
3759.12460,0.13038
3757.19586,0.13072
3755.26711,0.13148
3753.33837,0.13276
3751.40962,0.13422
3749.48088,0.13533
3747.55213,0.13617
3745.62339,0.13664
3743.69464,0.13620
3741.76590,0.13538
3739.83715,0.13490
3737.90841,0.13478
3735.97966,0.13487
3734.05091,0.13447
3732.12217,0.13330
3730.19342,0.13190
3728.26468,0.13028
3726.33593,0.12819
3724.40719,0.12626
3722.47844,0.12510
3720.54970,0.12473
3718.62095,0.12524
3716.69221,0.12663
3714.76346,0.12845
3712.83472,0.12989
3710.90597,0.13006
3708.97723,0.12873
3707.04848,0.12655
3705.11974,0.12408
3703.19099,0.12164
3701.26224,0.11980
3699.33350,0.11906
3697.40475,0.11937
3695.47601,0.12048
3693.54726,0.12195
3691.61852,0.12326
3689.68977,0.12403
3687.76103,0.12384
3685.83228,0.12289
3683.90354,0.12175
3681.97479,0.12061
3680.04605,0.11963
3678.11730,0.11913
3676.18856,0.11881
3674.25981,0.11823
3672.33107,0.11800
3670.40232,0.11838
3668.47357,0.11871
3666.54483,0.11844
3664.61608,0.11762
3662.68734,0.11634
3660.75859,0.11447
3658.82985,0.11197
3656.90110,0.10910
3654.97236,0.10638
3653.04361,0.10424
3651.11487,0.10241
3649.18612,0.10057
3647.25738,0.09911
3645.32863,0.09882
3643.39989,0.10018
3641.47114,0.10319
3639.54239,0.10728
3637.61365,0.11155
3635.68490,0.11529
3633.75616,0.11819
3631.82741,0.11994
3629.89867,0.11999
3627.96992,0.11808
3626.04118,0.11546
3624.11243,0.11312
3622.18369,0.11118
3620.25494,0.11022
3618.32620,0.11138
3616.39745,0.11505
3614.46871,0.12039
3612.53996,0.12590
3610.61122,0.13025
3608.68247,0.13358
3606.75372,0.13634
3604.82498,0.13820
3602.89623,0.13932
3600.96749,0.14016
3599.03874,0.14066
3597.11000,0.14079
3595.18125,0.14093
3593.25251,0.14119
3591.32376,0.14161
3589.39502,0.14214
3587.46627,0.14255
3585.53753,0.14294
3583.60878,0.14369
3581.68004,0.14478
3579.75129,0.14593
3577.82254,0.14716
3575.89380,0.14866
3573.96505,0.15034
3572.03631,0.15195
3570.10756,0.15326
3568.17882,0.15413
3566.25007,0.15462
3564.32133,0.15494
3562.39258,0.15517
3560.46384,0.15508
3558.53509,0.15468
3556.60635,0.15442
3554.67760,0.15447
3552.74886,0.15461
3550.82011,0.15464
3548.89137,0.15457
3546.96262,0.15436
3545.03387,0.15379
3543.10513,0.15282
3541.17638,0.15180
3539.24764,0.15111
3537.31889,0.15083
3535.39015,0.15075
3533.46140,0.15054
3531.53266,0.14996
3529.60391,0.14931
3527.67517,0.14888
3525.74642,0.14855
3523.81768,0.14804
3521.88893,0.14721
3519.96019,0.14613
3518.03144,0.14533
3516.10270,0.14523
3514.17395,0.14524
3512.24520,0.14477
3510.31646,0.14417
3508.38771,0.14386
3506.45897,0.14373
3504.53022,0.14353
3502.60148,0.14305
3500.67273,0.14233
3498.74399,0.14160
3496.81524,0.14083
3494.88650,0.13980
3492.95775,0.13862
3491.02901,0.13774
3489.10026,0.13726
3487.17152,0.13651
3485.24277,0.13532
3483.31402,0.13445
3481.38528,0.13414
3479.45653,0.13393
3477.52779,0.13351
3475.59904,0.13282
3473.67030,0.13194
3471.74155,0.13114
3469.81281,0.13068
3467.88406,0.13037
3465.95532,0.12981
3464.02657,0.12909
3462.09783,0.12848
3460.16908,0.12817
3458.24034,0.12809
3456.31159,0.12791
3454.38285,0.12727
3452.45410,0.12625
3450.52535,0.12526
3448.59661,0.12448
3446.66786,0.12371
3444.73912,0.12278
3442.81037,0.12178
3440.88163,0.12109
3438.95288,0.12116
3437.02414,0.12185
3435.09539,0.12285
3433.16665,0.12409
3431.23790,0.12545
3429.30916,0.12685
3427.38041,0.12823
3425.45167,0.12948
3423.52292,0.13044
3421.59418,0.13118
3419.66543,0.13191
3417.73668,0.13240
3415.80794,0.13258
3413.87919,0.13290
3411.95045,0.13338
3410.02170,0.13366
3408.09296,0.13376
3406.16421,0.13384
3404.23547,0.13408
3402.30672,0.13454
3400.37798,0.13505
3398.44923,0.13554
3396.52049,0.13615
3394.59174,0.13671
3392.66300,0.13698
3390.73425,0.13715
3388.80550,0.13735
3386.87676,0.13728
3384.94801,0.13695
3383.01927,0.13669
3381.09052,0.13673
3379.16178,0.13701
3377.23303,0.13747
3375.30429,0.13813
3373.37554,0.13898
3371.44680,0.13982
3369.51805,0.14043
3367.58931,0.14087
3365.66056,0.14128
3363.73182,0.14169
3361.80307,0.14212
3359.87433,0.14231
3357.94558,0.14195
3356.01683,0.14135
3354.08809,0.14093
3352.15934,0.14054
3350.23060,0.13990
3348.30185,0.13918
3346.37311,0.13865
3344.44436,0.13828
3342.51562,0.13776
3340.58687,0.13725
3338.65813,0.13716
3336.72938,0.13718
3334.80064,0.13666
3332.87189,0.13572
3330.94315,0.13503
3329.01440,0.13469
3327.08566,0.13428
3325.15691,0.13377
3323.22816,0.13341
3321.29942,0.13330
3319.37067,0.13334
3317.44193,0.13311
3315.51318,0.13232
3313.58444,0.13116
3311.65569,0.12997
3309.72695,0.12858
3307.79820,0.12669
3305.86946,0.12454
3303.94071,0.12269
3302.01197,0.12126
3300.08322,0.12030
3298.15448,0.12022
3296.22573,0.12102
3294.29698,0.12193
3292.36824,0.12259
3290.43949,0.12314
3288.51075,0.12357
3286.58200,0.12410
3284.65326,0.12478
3282.72451,0.12504
3280.79577,0.12472
3278.86702,0.12431
3276.93828,0.12398
3275.00953,0.12355
3273.08079,0.12319
3271.15204,0.12323
3269.22330,0.12351
3267.29455,0.12360
3265.36581,0.12316
3263.43706,0.12233
3261.50831,0.12169
3259.57957,0.12144
3257.65082,0.12121
3255.72208,0.12076
3253.79333,0.12033
3251.86459,0.12004
3249.93584,0.11969
3248.00710,0.11927
3246.07835,0.11873
3244.14961,0.11803
3242.22086,0.11751
3240.29212,0.11738
3238.36337,0.11739
3236.43463,0.11725
3234.50588,0.11686
3232.57713,0.11620
3230.64839,0.11541
3228.71964,0.11474
3226.79090,0.11409
3224.86215,0.11327
3222.93341,0.11229
3221.00466,0.11128
3219.07592,0.11036
3217.14717,0.10940
3215.21843,0.10824
3213.28968,0.10703
3211.36094,0.10593
3209.43219,0.10488
3207.50345,0.10344
3205.57470,0.10146
3203.64596,0.09976
3201.71721,0.09890
3199.78846,0.09845
3197.85972,0.09805
3195.93097,0.09776
3194.00223,0.09769
3192.07348,0.09786
3190.14474,0.09786
3188.21599,0.09735
3186.28725,0.09662
3184.35850,0.09595
3182.42976,0.09540
3180.50101,0.09502
3178.57227,0.09456
3176.64352,0.09365
3174.71478,0.09242
3172.78603,0.09098
3170.85729,0.08907
3168.92854,0.08668
3166.99979,0.08413
3165.07105,0.08185
3163.14230,0.08044
3161.21356,0.08017
3159.28481,0.08094
3157.35607,0.08238
3155.42732,0.08368
3153.49858,0.08442
3151.56983,0.08496
3149.64109,0.08525
3147.71234,0.08491
3145.78360,0.08431
3143.85485,0.08393
3141.92611,0.08355
3139.99736,0.08291
3138.06861,0.08213
3136.13987,0.08148
3134.21112,0.08106
3132.28238,0.08060
3130.35363,0.07978
3128.42489,0.07876
3126.49614,0.07767
3124.56740,0.07649
3122.63865,0.07530
3120.70991,0.07403
3118.78116,0.07267
3116.85242,0.07150
3114.92367,0.07046
3112.99493,0.06931
3111.06618,0.06809
3109.13744,0.06691
3107.20869,0.06603
3105.27994,0.06570
3103.35120,0.06580
3101.42245,0.06607
3099.49371,0.06615
3097.56496,0.06581
3095.63622,0.06532
3093.70747,0.06481
3091.77873,0.06426
3089.84998,0.06398
3087.92124,0.06391
3085.99249,0.06385
3084.06375,0.06374
3082.13500,0.06368
3080.20626,0.06394
3078.27751,0.06441
3076.34877,0.06469
3074.42002,0.06465
3072.49127,0.06449
3070.56253,0.06443
3068.63378,0.06430
3066.70504,0.06390
3064.77629,0.06361
3062.84755,0.06367
3060.91880,0.06376
3058.99006,0.06383
3057.06131,0.06406
3055.13257,0.06427
3053.20382,0.06430
3051.27508,0.06432
3049.34633,0.06446
3047.41759,0.06470
3045.48884,0.06492
3043.56009,0.06493
3041.63135,0.06454
3039.70260,0.06372
3037.77386,0.06292
3035.84511,0.06259
3033.91637,0.06258
3031.98762,0.06254
3030.05888,0.06259
3028.13013,0.06308
3026.20139,0.06413
3024.27264,0.06534
3022.34390,0.06613
3020.41515,0.06639
3018.48641,0.06645
3016.55766,0.06651
3014.62892,0.06661
3012.70017,0.06673
3010.77142,0.06666
3008.84268,0.06639
3006.91393,0.06625
3004.98519,0.06628
3003.05644,0.06619
3001.12770,0.06600
2999.19895,0.06592
2997.27021,0.06599
2995.34146,0.06613
2993.41272,0.06630
2991.48397,0.06647
2989.55523,0.06646
2987.62648,0.06621
2985.69774,0.06602
2983.76899,0.06615
2981.84025,0.06642
2979.91150,0.06648
2977.98275,0.06624
2976.05401,0.06584
2974.12526,0.06544
2972.19652,0.06514
2970.26777,0.06505
2968.33903,0.06515
2966.41028,0.06526
2964.48154,0.06516
2962.55279,0.06489
2960.62405,0.06468
2958.69530,0.06456
2956.76656,0.06430
2954.83781,0.06403
2952.90907,0.06392
2950.98032,0.06377
2949.05157,0.06361
2947.12283,0.06348
2945.19408,0.06328
2943.26534,0.06312
2941.33659,0.06307
2939.40785,0.06303
2937.47910,0.06306
2935.55036,0.06340
2933.62161,0.06392
2931.69287,0.06438
2929.76412,0.06507
2927.83538,0.06600
2925.90663,0.06676
2923.97789,0.06731
2922.04914,0.06786
2920.12040,0.06827
2918.19165,0.06847
2916.26290,0.06863
2914.33416,0.06868
2912.40541,0.06858
2910.47667,0.06862
2908.54792,0.06892
2906.61918,0.06912
2904.69043,0.06911
2902.76169,0.06916
2900.83294,0.06913
2898.90420,0.06890
2896.97545,0.06882
2895.04671,0.06895
2893.11796,0.06901
2891.18922,0.06888
2889.26047,0.06848
2887.33172,0.06800
2885.40298,0.06785
2883.47423,0.06784
2881.54549,0.06770
2879.61674,0.06768
2877.68800,0.06780
2875.75925,0.06780
2873.83051,0.06763
2871.90176,0.06745
2869.97302,0.06744
2868.04427,0.06760
2866.11553,0.06769
2864.18678,0.06750
2862.25804,0.06720
2860.32929,0.06711
2858.40055,0.06726
2856.47180,0.06746
2854.54305,0.06775
2852.61431,0.06807
2850.68556,0.06834
2848.75682,0.06867
2846.82807,0.06884
2844.89933,0.06869
2842.97058,0.06854
2841.04184,0.06856
2839.11309,0.06860
2837.18435,0.06867
2835.25560,0.06881
2833.32686,0.06888
2831.39811,0.06895
2829.46937,0.06903
2827.54062,0.06902
2825.61188,0.06911
2823.68313,0.06948
2821.75438,0.06983
2819.82564,0.06988
2817.89689,0.06982
2815.96815,0.06983
2814.03940,0.06986
2812.11066,0.06987
2810.18191,0.06997
2808.25317,0.07013
2806.32442,0.07030
2804.39568,0.07050
2802.46693,0.07077
2800.53819,0.07102
2798.60944,0.07121
2796.68070,0.07143
2794.75195,0.07174
2792.82320,0.07207
2790.89446,0.07213
2788.96571,0.07202
2787.03697,0.07212
2785.10822,0.07229
2783.17948,0.07221
2781.25073,0.07216
2779.32199,0.07242
2777.39324,0.07271
2775.46450,0.07292
2773.53575,0.07331
2771.60701,0.07394
2769.67826,0.07451
2767.74952,0.07478
2765.82077,0.07489
2763.89203,0.07513
2761.96328,0.07539
2760.03453,0.07547
2758.10579,0.07551
2756.17704,0.07566
2754.24830,0.07580
2752.31955,0.07595
2750.39081,0.07610
2748.46206,0.07615
2746.53332,0.07610
2744.60457,0.07587
2742.67583,0.07562
2740.74708,0.07581
2738.81834,0.07615
2736.88959,0.07611
2734.96085,0.07587
2733.03210,0.07562
2731.10336,0.07526
2729.17461,0.07494
2727.24586,0.07477
2725.31712,0.07465
2723.38837,0.07462
2721.45963,0.07463
2719.53088,0.07447
2717.60214,0.07425
2715.67339,0.07427
2713.74465,0.07457
2711.81590,0.07489
2709.88716,0.07508
2707.95841,0.07502
2706.02967,0.07468
2704.10092,0.07441
2702.17218,0.07446
2700.24343,0.07465
2698.31468,0.07468
2696.38594,0.07453
2694.45719,0.07422
2692.52845,0.07390
2690.59970,0.07378
2688.67096,0.07387
2686.74221,0.07401
2684.81347,0.07424
2682.88472,0.07443
2680.95598,0.07439
2679.02723,0.07428
2677.09849,0.07425
2675.16974,0.07426
2673.24100,0.07432
2671.31225,0.07434
2669.38351,0.07421
2667.45476,0.07414
2665.52601,0.07425
2663.59727,0.07436
2661.66852,0.07439
2659.73978,0.07430
2657.81103,0.07422
2655.88229,0.07427
2653.95354,0.07423
2652.02480,0.07407
2650.09605,0.07402
2648.16731,0.07399
2646.23856,0.07392
2644.30982,0.07388
2642.38107,0.07383
2640.45233,0.07382
2638.52358,0.07375
2636.59484,0.07331
2634.66609,0.07264
2632.73734,0.07234
2630.80860,0.07243
2628.87985,0.07262
2626.95111,0.07291
2625.02236,0.07329
2623.09362,0.07366
2621.16487,0.07406
2619.23613,0.07451
2617.30738,0.07480
2615.37864,0.07486
2613.44989,0.07471
2611.52115,0.07438
2609.59240,0.07401
2607.66366,0.07366
2605.73491,0.07320
2603.80616,0.07271
2601.87742,0.07253
2599.94867,0.07286
2598.01993,0.07356
2596.09118,0.07421
2594.16244,0.07459
2592.23369,0.07481
2590.30495,0.07495
2588.37620,0.07500
2586.44746,0.07487
2584.51871,0.07451
2582.58997,0.07418
2580.66122,0.07413
2578.73248,0.07444
2576.80373,0.07495
2574.87499,0.07542
2572.94624,0.07571
2571.01749,0.07577
2569.08875,0.07569
2567.16000,0.07571
2565.23126,0.07585
2563.30251,0.07588
2561.37377,0.07586
2559.44502,0.07592
2557.51628,0.07593
2555.58753,0.07578
2553.65879,0.07559
2551.73004,0.07540
2549.80130,0.07519
2547.87255,0.07510
2545.94381,0.07525
2544.01506,0.07541
2542.08631,0.07563
2540.15757,0.07604
2538.22882,0.07630
2536.30008,0.07612
2534.37133,0.07582
2532.44259,0.07577
2530.51384,0.07585
2528.58510,0.07585
2526.65635,0.07584
2524.72761,0.07573
2522.79886,0.07545
2520.87012,0.07517
2518.94137,0.07501
2517.01263,0.07497
2515.08388,0.07504
2513.15514,0.07502
2511.22639,0.07488
2509.29764,0.07475
2507.36890,0.07476
2505.44015,0.07484
2503.51141,0.07495
2501.58266,0.07527
2499.65392,0.07571
2497.72517,0.07593
2495.79643,0.07604
2493.86768,0.07630
2491.93894,0.07648
2490.01019,0.07648
2488.08145,0.07662
2486.15270,0.07693
2484.22396,0.07704
2482.29521,0.07696
2480.36647,0.07697
2478.43772,0.07720
2476.50897,0.07763
2474.58023,0.07808
2472.65148,0.07854
2470.72274,0.07910
2468.79399,0.07957
2466.86525,0.07977
2464.93650,0.07992
2463.00776,0.08020
2461.07901,0.08048
2459.15027,0.08063
2457.22152,0.08056
2455.29278,0.08027
2453.36403,0.08000
2451.43529,0.08000
2449.50654,0.08015
2447.57779,0.08026
2445.64905,0.08043
2443.72030,0.08077
2441.79156,0.08109
2439.86281,0.08118
2437.93407,0.08111
2436.00532,0.08112
2434.07658,0.08130
2432.14783,0.08163
2430.21909,0.08191
2428.29034,0.08198
2426.36160,0.08202
2424.43285,0.08207
2422.50411,0.08195
2420.57536,0.08181
2418.64662,0.08189
2416.71787,0.08212
2414.78912,0.08214
2412.86038,0.08181
2410.93163,0.08132
2409.00289,0.08097
2407.07414,0.08082
2405.14540,0.08067
2403.21665,0.08039
2401.28791,0.08011
2399.35916,0.07991
2397.43042,0.07977
2395.50167,0.07955
2393.57293,0.07933
2391.64418,0.07920
2389.71544,0.07911
2387.78669,0.07897
2385.85795,0.07883
2383.92920,0.07873
2382.00045,0.07859
2380.07171,0.07839
2378.14296,0.07824
2376.21422,0.07817
2374.28547,0.07827
2372.35673,0.07838
2370.42798,0.07814
2368.49924,0.07751
2366.57049,0.07673
2364.64175,0.07613
2362.71300,0.07585
2360.78426,0.07569
2358.85551,0.07553
2356.92677,0.07555
2354.99802,0.07571
2353.06927,0.07575
2351.14053,0.07554
2349.21178,0.07509
2347.28304,0.07443
2345.35429,0.07366
2343.42555,0.07292
2341.49680,0.07219
2339.56806,0.07136
2337.63931,0.07070
2335.71057,0.07065
2333.78182,0.07125
2331.85308,0.07238
2329.92433,0.07393
2327.99559,0.07549
2326.06684,0.07649
2324.13810,0.07682
2322.20935,0.07666
2320.28060,0.07616
2318.35186,0.07539
2316.42311,0.07449
2314.49437,0.07368
2312.56562,0.07322
2310.63688,0.07329
2308.70813,0.07384
2306.77939,0.07470
2304.85064,0.07572
2302.92190,0.07664
2300.99315,0.07723
2299.06441,0.07749
2297.13566,0.07751
2295.20692,0.07738
2293.27817,0.07728
2291.34943,0.07741
2289.42068,0.07769
2287.49193,0.07800
2285.56319,0.07846
2283.63444,0.07904
2281.70570,0.07959
2279.77695,0.07998
2277.84821,0.08020
2275.91946,0.08027
2273.99072,0.08021
2272.06197,0.07993
2270.13323,0.07937
2268.20448,0.07879
2266.27574,0.07837
2264.34699,0.07811
2262.41825,0.07799
2260.48950,0.07778
2258.56075,0.07737
2256.63201,0.07703
2254.70326,0.07692
2252.77452,0.07698
2250.84577,0.07716
2248.91703,0.07759
2246.98828,0.07821
2245.05954,0.07884
2243.13079,0.07945
2241.20205,0.07999
2239.27330,0.08025
2237.34456,0.08023
2235.41581,0.08017
2233.48707,0.08029
2231.55832,0.08061
2229.62958,0.08101
2227.70083,0.08129
2225.77208,0.08131
2223.84334,0.08120
2221.91459,0.08112
2219.98585,0.08108
2218.05710,0.08107
2216.12836,0.08103
2214.19961,0.08093
2212.27087,0.08093
2210.34212,0.08108
2208.41338,0.08127
2206.48463,0.08145
2204.55589,0.08164
2202.62714,0.08192
2200.69840,0.08227
2198.76965,0.08246
2196.84090,0.08235
2194.91216,0.08202
2192.98341,0.08159
2191.05467,0.08119
2189.12592,0.08082
2187.19718,0.08042
2185.26843,0.08019
2183.33969,0.08033
2181.41094,0.08079
2179.48220,0.08141
2177.55345,0.08206
2175.62471,0.08274
2173.69596,0.08333
2171.76722,0.08362
2169.83847,0.08372
2167.90973,0.08383
2165.98098,0.08396
2164.05223,0.08408
2162.12349,0.08423
2160.19474,0.08429
2158.26600,0.08415
2156.33725,0.08382
2154.40851,0.08352
2152.47976,0.08359
2150.55102,0.08403
2148.62227,0.08442
2146.69353,0.08448
2144.76478,0.08435
2142.83604,0.08447
2140.90729,0.08485
2138.97855,0.08518
2137.04980,0.08544
2135.12106,0.08571
2133.19231,0.08590
2131.26356,0.08601
2129.33482,0.08617
2127.40607,0.08637
2125.47733,0.08646
2123.54858,0.08639
2121.61984,0.08634
2119.69109,0.08635
2117.76235,0.08625
2115.83360,0.08613
2113.90486,0.08619
2111.97611,0.08644
2110.04737,0.08673
2108.11862,0.08688
2106.18988,0.08690
2104.26113,0.08694
2102.33238,0.08706
2100.40364,0.08729
2098.47489,0.08760
2096.54615,0.08780
2094.61740,0.08794
2092.68866,0.08821
2090.75991,0.08837
2088.83117,0.08825
2086.90242,0.08822
2084.97368,0.08842
2083.04493,0.08857
2081.11619,0.08841
2079.18744,0.08800
2077.25870,0.08749
2075.32995,0.08698
2073.40121,0.08649
2071.47246,0.08616
2069.54371,0.08612
2067.61497,0.08606
2065.68622,0.08572
2063.75748,0.08546
2061.82873,0.08548
2059.89999,0.08544
2057.97124,0.08530
2056.04250,0.08528
2054.11375,0.08525
2052.18501,0.08511
2050.25626,0.08507
2048.32752,0.08517
2046.39877,0.08516
2044.47003,0.08488
2042.54128,0.08446
2040.61254,0.08400
2038.68379,0.08355
2036.75504,0.08311
2034.82630,0.08270
2032.89755,0.08230
2030.96881,0.08186
2029.04006,0.08157
2027.11132,0.08155
2025.18257,0.08156
2023.25383,0.08139
2021.32508,0.08115
2019.39634,0.08098
2017.46759,0.08067
2015.53885,0.08013
2013.61010,0.07963
2011.68136,0.07923
2009.75261,0.07873
2007.82386,0.07818
2005.89512,0.07772
2003.96637,0.07732
2002.03763,0.07697
2000.10888,0.07653
1998.18014,0.07586
1996.25139,0.07506
1994.32265,0.07415
1992.39390,0.07311
1990.46516,0.07202
1988.53641,0.07114
1986.60767,0.07064
1984.67892,0.07039
1982.75018,0.07017
1980.82143,0.06990
1978.89269,0.06967
1976.96394,0.06945
1975.03519,0.06908
1973.10645,0.06848
1971.17770,0.06777
1969.24896,0.06713
1967.32021,0.06661
1965.39147,0.06621
1963.46272,0.06590
1961.53398,0.06568
1959.60523,0.06557
1957.67649,0.06555
1955.74774,0.06559
1953.81900,0.06566
1951.89025,0.06569
1949.96151,0.06563
1948.03276,0.06552
1946.10402,0.06542
1944.17527,0.06539
1942.24652,0.06548
1940.31778,0.06563
1938.38903,0.06575
1936.46029,0.06591
1934.53154,0.06618
1932.60280,0.06650
1930.67405,0.06678
1928.74531,0.06712
1926.81656,0.06757
1924.88782,0.06803
1922.95907,0.06824
1921.03033,0.06829
1919.10158,0.06846
1917.17284,0.06877
1915.24409,0.06915
1913.31534,0.06952
1911.38660,0.06978
1909.45785,0.06986
1907.52911,0.06973
1905.60036,0.06946
1903.67162,0.06908
1901.74287,0.06851
1899.81413,0.06786
1897.88538,0.06728
1895.95664,0.06675
1894.02789,0.06630
1892.09915,0.06598
1890.17040,0.06576
1888.24166,0.06567
1886.31291,0.06558
1884.38417,0.06546
1882.45542,0.06543
1880.52667,0.06551
1878.59793,0.06557
1876.66918,0.06561
1874.74044,0.06559
1872.81169,0.06552
1870.88295,0.06557
1868.95420,0.06564
1867.02546,0.06558
1865.09671,0.06553
1863.16797,0.06567
1861.23922,0.06595
1859.31048,0.06632
1857.38173,0.06679
1855.45299,0.06730
1853.52424,0.06769
1851.59549,0.06792
1849.66675,0.06816
1847.73800,0.06852
1845.80926,0.06885
1843.88051,0.06901
1841.95177,0.06901
1840.02302,0.06879
1838.09428,0.06842
1836.16553,0.06812
1834.23679,0.06793
1832.30804,0.06768
1830.37930,0.06724
1828.45055,0.06674
1826.52181,0.06634
1824.59306,0.06609
1822.66432,0.06587
1820.73557,0.06558
1818.80682,0.06535
1816.87808,0.06518
1814.94933,0.06501
1813.02059,0.06497
1811.09184,0.06499
1809.16310,0.06493
1807.23435,0.06483
1805.30561,0.06480
1803.37686,0.06476
1801.44812,0.06477
1799.51937,0.06492
1797.59063,0.06515
1795.66188,0.06542
1793.73314,0.06573
1791.80439,0.06592
1789.87565,0.06600
1787.94690,0.06617
1786.01815,0.06642
1784.08941,0.06665
1782.16066,0.06682
1780.23192,0.06684
1778.30317,0.06666
1776.37443,0.06647
1774.44568,0.06643
1772.51694,0.06642
1770.58819,0.06641
1768.65945,0.06645
1766.73070,0.06638
1764.80196,0.06621
1762.87321,0.06598
1760.94447,0.06560
1759.01572,0.06516
1757.08697,0.06487
1755.15823,0.06475
1753.22948,0.06467
1751.30074,0.06459
1749.37199,0.06460
1747.44325,0.06467
1745.51450,0.06480
1743.58576,0.06498
1741.65701,0.06502
1739.72827,0.06495
1737.79952,0.06512
1735.87078,0.06546
1733.94203,0.06560
1732.01329,0.06547
1730.08454,0.06544
1728.15580,0.06566
1726.22705,0.06597
1724.29830,0.06620
1722.36956,0.06642
1720.44081,0.06665
1718.51207,0.06675
1716.58332,0.06662
1714.65458,0.06646
1712.72583,0.06639
1710.79709,0.06633
1708.86834,0.06626
1706.93960,0.06620
1705.01085,0.06613
1703.08211,0.06607
1701.15336,0.06592
1699.22462,0.06566
1697.29587,0.06540
1695.36713,0.06501
1693.43838,0.06472
1691.50963,0.06472
1689.58089,0.06474
1687.65214,0.06477
1685.72340,0.06478
1683.79465,0.06439
1681.86591,0.06393
1679.93716,0.06391
1678.00842,0.06414
1676.07967,0.06431
1674.15093,0.06421
1672.22218,0.06402
1670.29344,0.06395
1668.36469,0.06403
1666.43595,0.06420
1664.50720,0.06437
1662.57845,0.06443
1660.64971,0.06459
1658.72096,0.06505
1656.79222,0.06552
1654.86347,0.06575
1652.93473,0.06584
1651.00598,0.06586
1649.07724,0.06573
1647.14849,0.06555
1645.21975,0.06552
1643.29100,0.06554
1641.36226,0.06539
1639.43351,0.06518
1637.50477,0.06509
1635.57602,0.06515
1633.64728,0.06542
1631.71853,0.06565
1629.78978,0.06552
1627.86104,0.06520
1625.93229,0.06500
1624.00355,0.06483
1622.07480,0.06461
1620.14606,0.06441
1618.21731,0.06405
1616.28857,0.06357
1614.35982,0.06323
1612.43108,0.06300
1610.50233,0.06278
1608.57359,0.06252
1606.64484,0.06236
1604.71610,0.06260
1602.78735,0.06334
1600.85861,0.06432
1598.92986,0.06515
1597.00111,0.06561
1595.07237,0.06572
1593.14362,0.06552
1591.21488,0.06512
1589.28613,0.06473
1587.35739,0.06444
1585.42864,0.06440
1583.49990,0.06474
1581.57115,0.06519
1579.64241,0.06552
1577.71366,0.06564
1575.78492,0.06539
1573.85617,0.06514
1571.92743,0.06517
1569.99868,0.06518
1568.06993,0.06509
1566.14119,0.06516
1564.21244,0.06533
1562.28370,0.06544
1560.35495,0.06536
1558.42621,0.06497
1556.49746,0.06453
1554.56872,0.06426
1552.63997,0.06404
1550.71123,0.06378
1548.78248,0.06358
1546.85374,0.06362
1544.92499,0.06375
1542.99625,0.06369
1541.06750,0.06353
1539.13876,0.06353
1537.21001,0.06367
1535.28126,0.06384
1533.35252,0.06393
1531.42377,0.06386
1529.49503,0.06376
1527.56628,0.06371
1525.63754,0.06367
1523.70879,0.06366
1521.78005,0.06359
1519.85130,0.06341
1517.92256,0.06318
1515.99381,0.06290
1514.06507,0.06267
1512.13632,0.06245
1510.20758,0.06216
1508.27883,0.06172
1506.35008,0.06106
1504.42134,0.06036
1502.49259,0.05976
1500.56385,0.05915
1498.63510,0.05852
1496.70636,0.05839
1494.77761,0.06001
1492.84887,0.06337
1490.92012,0.06653
1488.99138,0.06770
1487.06263,0.06733
1485.13389,0.06675
1483.20514,0.06634
1481.27640,0.06593
1479.34765,0.06551
1477.41891,0.06519
1475.49016,0.06489
1473.56141,0.06444
1471.63267,0.06386
1469.70392,0.06348
1467.77518,0.06333
1465.84643,0.06303
1463.91769,0.06231
1461.98894,0.06144
1460.06020,0.06062
1458.13145,0.05970
1456.20271,0.05922
1454.27396,0.06061
1452.34522,0.06372
1450.41647,0.06669
1448.48773,0.06810
1446.55898,0.06838
1444.63024,0.06846
1442.70149,0.06845
1440.77274,0.06828
1438.84400,0.06804
1436.91525,0.06784
1434.98651,0.06772
1433.05776,0.06750
1431.12902,0.06714
1429.20027,0.06688
1427.27153,0.06681
1425.34278,0.06664
1423.41404,0.06626
1421.48529,0.06590
1419.55655,0.06571
1417.62780,0.06564
1415.69906,0.06572
1413.77031,0.06576
1411.84156,0.06558
1409.91282,0.06531
1407.98407,0.06518
1406.05533,0.06511
1404.12658,0.06497
1402.19784,0.06490
1400.26909,0.06494
1398.34035,0.06489
1396.41160,0.06468
1394.48286,0.06444
1392.55411,0.06433
1390.62537,0.06423
1388.69662,0.06406
1386.76788,0.06399
1384.83913,0.06406
1382.91039,0.06408
1380.98164,0.06402
1379.05289,0.06398
1377.12415,0.06400
1375.19540,0.06412
1373.26666,0.06428
1371.33791,0.06438
1369.40917,0.06433
1367.48042,0.06426
1365.55168,0.06439
1363.62293,0.06456
1361.69419,0.06457
1359.76544,0.06449
1357.83670,0.06443
1355.90795,0.06452
1353.97921,0.06470
1352.05046,0.06471
1350.12172,0.06457
1348.19297,0.06453
1346.26422,0.06461
1344.33548,0.06473
1342.40673,0.06477
1340.47799,0.06473
1338.54924,0.06467
1336.62050,0.06451
1334.69175,0.06419
1332.76301,0.06390
1330.83426,0.06390
1328.90552,0.06415
1326.97677,0.06430
1325.04803,0.06428
1323.11928,0.06429
1321.19054,0.06441
1319.26179,0.06449
1317.33304,0.06446
1315.40430,0.06434
1313.47555,0.06427
1311.54681,0.06430
1309.61806,0.06431
1307.68932,0.06429
1305.76057,0.06428
1303.83183,0.06425
1301.90308,0.06428
1299.97434,0.06432
1298.04559,0.06425
1296.11685,0.06416
1294.18810,0.06410
1292.25936,0.06409
1290.33061,0.06413
1288.40187,0.06429
1286.47312,0.06451
1284.54437,0.06461
1282.61563,0.06457
1280.68688,0.06447
1278.75814,0.06438
1276.82939,0.06438
1274.90065,0.06453
1272.97190,0.06467
1271.04316,0.06468
1269.11441,0.06462
1267.18567,0.06463
1265.25692,0.06462
1263.32818,0.06453
1261.39943,0.06453
1259.47069,0.06460
1257.54194,0.06450
1255.61320,0.06428
1253.68445,0.06407
1251.75570,0.06394
1249.82696,0.06400
1247.89821,0.06413
1245.96947,0.06406
1244.04072,0.06399
1242.11198,0.06416
1240.18323,0.06431
1238.25449,0.06418
1236.32574,0.06406
1234.39700,0.06427
1232.46825,0.06455
1230.53951,0.06462
1228.61076,0.06470
1226.68202,0.06484
1224.75327,0.06480
1222.82452,0.06457
1220.89578,0.06432
1218.96703,0.06422
1217.03829,0.06423
1215.10954,0.06416
1213.18080,0.06403
1211.25205,0.06398
1209.32331,0.06397
1207.39456,0.06385
1205.46582,0.06364
1203.53707,0.06351
1201.60833,0.06344
1199.67958,0.06346
1197.75084,0.06359
1195.82209,0.06361
1193.89335,0.06346
1191.96460,0.06332
1190.03585,0.06329
1188.10711,0.06334
1186.17836,0.06335
1184.24962,0.06328
1182.32087,0.06335
1180.39213,0.06360
1178.46338,0.06393
1176.53464,0.06422
1174.60589,0.06428
1172.67715,0.06413
1170.74840,0.06397
1168.81966,0.06381
1166.89091,0.06374
1164.96217,0.06394
1163.03342,0.06426
1161.10467,0.06436
1159.17593,0.06417
1157.24718,0.06392
1155.31844,0.06391
1153.38969,0.06430
1151.46095,0.06488
1149.53220,0.06517
1147.60346,0.06515
1145.67471,0.06509
1143.74597,0.06506
1141.81722,0.06494
1139.88848,0.06471
1137.95973,0.06460
1136.03099,0.06476
1134.10224,0.06501
1132.17350,0.06515
1130.24475,0.06508
1128.31600,0.06495
1126.38726,0.06485
1124.45851,0.06474
1122.52977,0.06467
1120.60102,0.06457
1118.67228,0.06441
1116.74353,0.06413
1114.81479,0.06359
1112.88604,0.06302
1110.95730,0.06274
1109.02855,0.06267
1107.09981,0.06268
1105.17106,0.06279
1103.24232,0.06290
1101.31357,0.06305
1099.38483,0.06335
1097.45608,0.06348
1095.52733,0.06308
1093.59859,0.06257
1091.66984,0.06252
1089.74110,0.06264
1087.81235,0.06239
1085.88361,0.06192
1083.95486,0.06161
1082.02612,0.06160
1080.09737,0.06179
1078.16863,0.06190
1076.23988,0.06179
1074.31114,0.06165
1072.38239,0.06177
1070.45365,0.06214
1068.52490,0.06260
1066.59615,0.06287
1064.66741,0.06271
1062.73866,0.06249
1060.80992,0.06269
1058.88117,0.06304
1056.95243,0.06312
1055.02368,0.06291
1053.09494,0.06263
1051.16619,0.06258
1049.23745,0.06291
1047.30870,0.06315
1045.37996,0.06287
1043.45121,0.06252
1041.52247,0.06251
1039.59372,0.06241
1037.66498,0.06189
1035.73623,0.06143
1033.80748,0.06149
1031.87874,0.06210
1029.94999,0.06295
1028.02125,0.06371
1026.09250,0.06445
1024.16376,0.06505
1022.23501,0.06524
1020.30627,0.06517
1018.37752,0.06511
1016.44878,0.06503
1014.52003,0.06487
1012.59129,0.06473
1010.66254,0.06468
1008.73380,0.06460
1006.80505,0.06435
1004.87631,0.06406
1002.94756,0.06405
1001.01881,0.06425
999.09007,0.06433
997.16132,0.06442
995.23258,0.06452
993.30383,0.06432
991.37509,0.06386
989.44634,0.06360
987.51760,0.06364
985.58885,0.06366
983.66011,0.06347
981.73136,0.06324
979.80262,0.06342
977.87387,0.06386
975.94513,0.06380
974.01638,0.06322
972.08763,0.06276
970.15889,0.06272
968.23014,0.06292
966.30140,0.06317
964.37265,0.06340
962.44391,0.06356
960.51516,0.06359
958.58642,0.06341
956.65767,0.06316
954.72893,0.06306
952.80018,0.06317
950.87144,0.06320
948.94269,0.06298
947.01395,0.06275
945.08520,0.06276
943.15646,0.06282
941.22771,0.06266
939.29896,0.06250
937.37022,0.06269
935.44147,0.06305
933.51273,0.06308
931.58398,0.06288
929.65524,0.06275
927.72649,0.06263
925.79775,0.06240
923.86900,0.06204
921.94026,0.06166
920.01151,0.06142
918.08277,0.06133
916.15402,0.06124
914.22528,0.06119
912.29653,0.06125
910.36779,0.06147
908.43904,0.06195
906.51029,0.06286
904.58155,0.06377
902.65280,0.06399
900.72406,0.06361
898.79531,0.06316
896.86657,0.06285
894.93782,0.06264
893.00908,0.06256
891.08033,0.06251
889.15159,0.06236
887.22284,0.06218
885.29410,0.06216
883.36535,0.06220
881.43661,0.06193
879.50786,0.06135
877.57911,0.06097
875.65037,0.06095
873.72162,0.06099
871.79288,0.06100
869.86413,0.06114
867.93539,0.06126
866.00664,0.06120
864.07790,0.06115
862.14915,0.06116
860.22041,0.06097
858.29166,0.06059
856.36292,0.06039
854.43417,0.06056
852.50543,0.06065
850.57668,0.06031
848.64794,0.05997
846.71919,0.06002
844.79044,0.06025
842.86170,0.06055
840.93295,0.06085
839.00421,0.06087
837.07546,0.06062
835.14672,0.06046
833.21797,0.06050
831.28923,0.06040
829.36048,0.06013
827.43174,0.05995
825.50299,0.06000
823.57425,0.06017
821.64550,0.06001
819.71676,0.05942
817.78801,0.05901
815.85926,0.05904
813.93052,0.05907
812.00177,0.05880
810.07303,0.05835
808.14428,0.05803
806.21554,0.05801
804.28679,0.05809
802.35805,0.05803
800.42930,0.05784
798.50056,0.05745
796.57181,0.05678
794.64307,0.05613
792.71432,0.05594
790.78558,0.05631
788.85683,0.05647
786.92809,0.05580
784.99934,0.05488
783.07059,0.05418
781.14185,0.05349
779.21310,0.05311
777.28436,0.05306
775.35561,0.05259
773.42687,0.05184
771.49812,0.05164
769.56938,0.05198
767.64063,0.05245
765.71189,0.05304
763.78314,0.05389
761.85440,0.05505
759.92565,0.05666
757.99691,0.05873
756.06816,0.06080
754.13942,0.06224
752.21067,0.06306
750.28192,0.06374
748.35318,0.06457
746.42443,0.06542
744.49569,0.06592
742.56694,0.06588
740.63820,0.06539
738.70945,0.06452
736.78071,0.06340
734.85196,0.06229
732.92322,0.06130
730.99447,0.06044
729.06573,0.05965
727.13698,0.05865
725.20824,0.05738
723.27949,0.05616
721.35074,0.05494
719.42200,0.05339
717.49325,0.05152
715.56451,0.04928
713.63576,0.04673
711.70702,0.04398
709.77827,0.04096
707.84953,0.03868
705.92078,0.03969
703.99204,0.04734
702.06329,0.06432
700.13455,0.08864
698.20580,0.11172
696.27706,0.12343
694.34831,0.12091
692.41957,0.11042
690.49082,0.09963
688.56207,0.09151
686.63333,0.08598
684.70458,0.08245
682.77584,0.08047
680.84709,0.07941
678.91835,0.07849
676.98960,0.07719
675.06086,0.07566
673.13211,0.07460
671.20337,0.07409
669.27462,0.07344
667.34588,0.07252
665.41713,0.07202
663.48839,0.07204
661.55964,0.07185
659.63090,0.07112
657.70215,0.07037
655.77340,0.07012
653.84466,0.07014
651.91591,0.07008
649.98717,0.06981
648.05842,0.06942
646.12968,0.06941
644.20093,0.06948
642.27219,0.06890
640.34344,0.06823
638.41470,0.06826
636.48595,0.06879
634.55721,0.06935
632.62846,0.06958
630.69972,0.06925
628.77097,0.06871
626.84222,0.06883
624.91348,0.06953
622.98473,0.06942
621.05599,0.06826
619.12724,0.06762
617.19850,0.06764
615.26975,0.06696
613.34101,0.06596
611.41226,0.06657
609.48352,0.06864
607.55477,0.06955
605.62603,0.06872
603.69728,0.06795
601.76854,0.06758
599.83979,0.06636
