7497.03301,0.82845
7495.10426,0.82636
7493.17552,0.83037
7491.24677,0.83785
7489.31803,0.84102
7487.38928,0.83627
7485.46054,0.83149
7483.53179,0.83190
7481.60305,0.83140
7479.67430,0.82739
7477.74556,0.82552
7475.81681,0.82686
7473.88807,0.82760
7471.95932,0.82826
7470.03057,0.82942
7468.10183,0.82887
7466.17308,0.82715
7464.24434,0.82533
7462.31559,0.82425
7460.38685,0.82513
7458.45810,0.82440
7456.52936,0.81987
7454.60061,0.81656
7452.67187,0.81512
7450.74312,0.81102
7448.81438,0.80468
7446.88563,0.79900
7444.95689,0.79728
7443.02814,0.80323
7441.09940,0.81299
7439.17065,0.81855
7437.24190,0.81837
7435.31316,0.81440
7433.38441,0.81000
7431.45567,0.80810
7429.52692,0.80682
7427.59818,0.80510
7425.66943,0.80585
7423.74069,0.81018
7421.81194,0.81387
7419.88320,0.81312
7417.95445,0.80905
7416.02571,0.80438
7414.09696,0.80451
7412.16822,0.81038
7410.23947,0.81248
7408.31073,0.80849
7406.38198,0.80714
7404.45323,0.80857
7402.52449,0.80597
7400.59574,0.80010
7398.66700,0.79533
7396.73825,0.79154
7394.80951,0.78982
7392.88076,0.79442
7390.95202,0.80163
7389.02327,0.80371
7387.09453,0.80274
7385.16578,0.80304
7383.23704,0.80324
7381.30829,0.80337
7379.37955,0.80636
7377.45080,0.80910
7375.52205,0.80594
7373.59331,0.80254
7371.66456,0.80669
7369.73582,0.81481
7367.80707,0.81882
7365.87833,0.81551
7363.94958,0.80833
7362.02084,0.80394
7360.09209,0.80658
7358.16335,0.81209
7356.23460,0.81355
7354.30586,0.81138
7352.37711,0.80876
7350.44837,0.80752
7348.51962,0.80796
7346.59088,0.80830
7344.66213,0.80762
7342.73338,0.80611
7340.80464,0.80620
7338.87589,0.80949
7336.94715,0.81056
7335.01840,0.80506
7333.08966,0.79749
7331.16091,0.79206
7329.23217,0.78766
7327.30342,0.78496
7325.37468,0.78431
7323.44593,0.78353
7321.51719,0.78477
7319.58844,0.78882
7317.65970,0.78907
7315.73095,0.78389
7313.80221,0.77950
7311.87346,0.77788
7309.94471,0.77932
7308.01597,0.78491
7306.08722,0.79010
7304.15848,0.78958
7302.22973,0.78413
7300.30099,0.77965
7298.37224,0.77898
7296.44350,0.77843
7294.51475,0.77571
7292.58601,0.76911
7290.65726,0.76013
7288.72852,0.75311
7286.79977,0.74720
7284.87103,0.74542
7282.94228,0.75161
7281.01353,0.75835
7279.08479,0.75986
7277.15604,0.75889
7275.22730,0.75739
7273.29855,0.75563
7271.36981,0.75438
7269.44106,0.75358
7267.51232,0.75128
7265.58357,0.74624
7263.65483,0.74342
7261.72608,0.74737
7259.79734,0.75075
7257.86859,0.74776
7255.93985,0.74540
7254.01110,0.74496
7252.08236,0.73988
7250.15361,0.73259
7248.22486,0.72998
7246.29612,0.73155
7244.36737,0.73173
7242.43863,0.73030
7240.50988,0.73196
7238.58114,0.73412
7236.65239,0.73157
7234.72365,0.72735
7232.79490,0.72698
7230.86616,0.72822
7228.93741,0.72620
7227.00867,0.72384
7225.07992,0.72375
7223.15118,0.72382
7221.22243,0.72394
7219.29369,0.72351
7217.36494,0.72158
7215.43619,0.71908
7213.50745,0.71593
7211.57870,0.71189
7209.64996,0.70920
7207.72121,0.70951
7205.79247,0.71071
7203.86372,0.71114
7201.93498,0.71089
7200.00623,0.70979
7198.07749,0.70740
7196.14874,0.70326
7194.22000,0.69986
7192.29125,0.69995
7190.36251,0.70277
7188.43376,0.70464
7186.50501,0.70190
7184.57627,0.69808
7182.64752,0.69713
7180.71878,0.69684
7178.79003,0.69703
7176.86129,0.69813
7174.93254,0.69899
7173.00380,0.69958
7171.07505,0.69925
7169.14631,0.69882
7167.21756,0.69989
7165.28882,0.70084
7163.36007,0.69997
7161.43133,0.69763
7159.50258,0.69530
7157.57384,0.69472
7155.64509,0.69507
7153.71634,0.69514
7151.78760,0.69607
7149.85885,0.69652
7147.93011,0.69498
7146.00136,0.69544
7144.07262,0.69876
7142.14387,0.70031
7140.21513,0.70078
7138.28638,0.70210
7136.35764,0.70098
7134.42889,0.69796
7132.50015,0.69631
7130.57140,0.69602
7128.64266,0.69694
7126.71391,0.69847
7124.78516,0.69869
7122.85642,0.69704
7120.92767,0.69490
7118.99893,0.69209
7117.07018,0.68756
7115.14144,0.68482
7113.21269,0.68669
7111.28395,0.68983
7109.35520,0.69095
7107.42646,0.69079
7105.49771,0.68991
7103.56897,0.68853
7101.64022,0.68820
7099.71148,0.68793
7097.78273,0.68683
7095.85399,0.68585
7093.92524,0.68287
7091.99649,0.67819
7090.06775,0.67696
7088.13900,0.67828
7086.21026,0.67658
7084.28151,0.67228
7082.35277,0.66845
7080.42402,0.66687
7078.49528,0.66818
7076.56653,0.66935
7074.63779,0.66961
7072.70904,0.67074
7070.78030,0.67047
7068.85155,0.66821
7066.92281,0.66676
7064.99406,0.66726
7063.06532,0.67118
7061.13657,0.67780
7059.20782,0.68164
7057.27908,0.68114
7055.35033,0.67960
7053.42159,0.67847
7051.49284,0.67864
7049.56410,0.68072
7047.63535,0.68386
7045.70661,0.68740
7043.77786,0.68993
7041.84912,0.69003
7039.92037,0.68949
7037.99163,0.69118
7036.06288,0.69422
7034.13414,0.69538
7032.20539,0.69315
7030.27664,0.68916
7028.34790,0.68760
7026.41915,0.69051
7024.49041,0.69485
7022.56166,0.69611
7020.63292,0.69320
7018.70417,0.68927
7016.77543,0.68777
7014.84668,0.68901
7012.91794,0.69141
7010.98919,0.69355
7009.06045,0.69392
7007.13170,0.69320
7005.20296,0.69485
7003.27421,0.69845
7001.34547,0.69994
6999.41672,0.69838
6997.48797,0.69545
6995.55923,0.69252
6993.63048,0.69106
6991.70174,0.69156
6989.77299,0.69078
6987.84425,0.68631
6985.91550,0.68297
6983.98676,0.68529
6982.05801,0.68913
6980.12927,0.69016
6978.20052,0.69065
6976.27178,0.69169
6974.34303,0.69223
6972.41429,0.69349
6970.48554,0.69444
6968.55680,0.69359
6966.62805,0.69264
6964.69930,0.69124
6962.77056,0.68975
6960.84181,0.69152
6958.91307,0.69560
6956.98432,0.69905
6955.05558,0.70085
6953.12683,0.70035
6951.19809,0.69900
6949.26934,0.69804
6947.34060,0.69740
6945.41185,0.69800
6943.48311,0.69967
6941.55436,0.70060
6939.62562,0.69994
6937.69687,0.69963
6935.76812,0.70068
6933.83938,0.70102
6931.91063,0.70098
6929.98189,0.70224
6928.05314,0.70378
6926.12440,0.70566
6924.19565,0.70838
6922.26691,0.70894
6920.33816,0.70630
6918.40942,0.70434
6916.48067,0.70445
6914.55193,0.70567
6912.62318,0.70821
6910.69444,0.71009
6908.76569,0.71033
6906.83695,0.71138
6904.90820,0.71283
6902.97945,0.71259
6901.05071,0.71241
6899.12196,0.71519
6897.19322,0.71956
6895.26447,0.72112
6893.33573,0.71929
6891.40698,0.71841
6889.47824,0.71974
6887.54949,0.71900
6885.62075,0.71624
6883.69200,0.71660
6881.76326,0.71890
6879.83451,0.71854
6877.90577,0.71673
6875.97702,0.71720
6874.04828,0.72110
6872.11953,0.72509
6870.19078,0.72634
6868.26204,0.72744
6866.33329,0.72949
6864.40455,0.72911
6862.47580,0.72629
6860.54706,0.72628
6858.61831,0.72987
6856.68957,0.73171
6854.76082,0.73145
6852.83208,0.73165
6850.90333,0.73048
6848.97459,0.72764
6847.04584,0.72639
6845.11710,0.72777
6843.18835,0.72964
6841.25960,0.73047
6839.33086,0.73088
6837.40211,0.73228
6835.47337,0.73599
6833.54462,0.74046
6831.61588,0.74114
6829.68713,0.73764
6827.75839,0.73391
6825.82964,0.73141
6823.90090,0.73007
6821.97215,0.73125
6820.04341,0.73395
6818.11466,0.73489
6816.18592,0.73400
6814.25717,0.73346
6812.32843,0.73366
6810.39968,0.73419
6808.47093,0.73603
6806.54219,0.73936
6804.61344,0.74138
6802.68470,0.74042
6800.75595,0.73780
6798.82721,0.73347
6796.89846,0.72917
6794.96972,0.73045
6793.04097,0.73664
6791.11223,0.74129
6789.18348,0.74260
6787.25474,0.74177
6785.32599,0.74018
6783.39725,0.74031
6781.46850,0.74212
6779.53975,0.74377
6777.61101,0.74368
6775.68226,0.74064
6773.75352,0.73768
6771.82477,0.73812
6769.89603,0.74061
6767.96728,0.74359
6766.03854,0.74598
6764.10979,0.74572
6762.18105,0.74297
6760.25230,0.74093
6758.32356,0.74147
6756.39481,0.74275
6754.46607,0.74300
6752.53732,0.74326
6750.60858,0.74499
6748.67983,0.74679
6746.75108,0.74675
6744.82234,0.74626
6742.89359,0.74756
6740.96485,0.75006
6739.03610,0.75072
6737.10736,0.74888
6735.17861,0.74748
6733.24987,0.74790
6731.32112,0.74910
6729.39238,0.74969
6727.46363,0.74933
6725.53489,0.74852
6723.60614,0.74863
6721.67740,0.75065
6719.74865,0.75127
6717.81991,0.74897
6715.89116,0.74749
6713.96241,0.74734
6712.03367,0.74733
6710.10492,0.74777
6708.17618,0.74777
6706.24743,0.74807
6704.31869,0.75001
6702.38994,0.75224
6700.46120,0.75392
6698.53245,0.75559
6696.60371,0.75684
6694.67496,0.75641
6692.74622,0.75461
6690.81747,0.75356
6688.88873,0.75389
6686.95998,0.75496
6685.03123,0.75642
6683.10249,0.75776
6681.17374,0.75910
6679.24500,0.76000
6677.31625,0.75933
6675.38751,0.75855
6673.45876,0.76007
6671.53002,0.76281
6669.60127,0.76344
6667.67253,0.76242
6665.74378,0.76287
6663.81504,0.76390
6661.88629,0.76371
6659.95755,0.76380
6658.02880,0.76548
6656.10006,0.76793
6654.17131,0.76961
6652.24256,0.76988
6650.31382,0.76905
6648.38507,0.76765
6646.45633,0.76662
6644.52758,0.76597
6642.59884,0.76510
6640.67009,0.76490
6638.74135,0.76637
6636.81260,0.76829
6634.88386,0.76953
6632.95511,0.77118
6631.02637,0.77322
6629.09762,0.77397
6627.16888,0.77276
6625.24013,0.77057
6623.31139,0.77009
6621.38264,0.77117
6619.45389,0.77117
6617.52515,0.77093
6615.59640,0.77187
6613.66766,0.77309
6611.73891,0.77395
6609.81017,0.77503
6607.88142,0.77663
6605.95268,0.77720
6604.02393,0.77569
6602.09519,0.77409
6600.16644,0.77497
6598.23770,0.77780
6596.30895,0.77950
6594.38021,0.77881
6592.45146,0.77855
6590.52271,0.78045
6588.59397,0.78140
6586.66522,0.78069
6584.73648,0.78150
6582.80773,0.78224
6580.87899,0.78036
6578.95024,0.77890
6577.02150,0.78019
6575.09275,0.78201
6573.16401,0.78260
6571.23526,0.78283
6569.30652,0.78277
6567.37777,0.78205
6565.44903,0.78121
6563.52028,0.78033
6561.59154,0.78022
6559.66279,0.78067
6557.73404,0.78011
6555.80530,0.78006
6553.87655,0.78234
6551.94781,0.78539
6550.01906,0.78692
6548.09032,0.78701
6546.16157,0.78711
6544.23283,0.78669
6542.30408,0.78546
6540.37534,0.78538
6538.44659,0.78690
6536.51785,0.78819
6534.58910,0.78790
6532.66036,0.78668
6530.73161,0.78609
6528.80287,0.78640
6526.87412,0.78634
6524.94537,0.78558
6523.01663,0.78576
6521.08788,0.78783
6519.15914,0.79065
6517.23039,0.79296
6515.30165,0.79399
6513.37290,0.79403
6511.44416,0.79474
6509.51541,0.79598
6507.58667,0.79567
6505.65792,0.79409
6503.72918,0.79386
6501.80043,0.79505
6499.87169,0.79479
6497.94294,0.79263
6496.01419,0.79106
6494.08545,0.79201
6492.15670,0.79501
6490.22796,0.79717
6488.29921,0.79763
6486.37047,0.79840
6484.44172,0.80008
6482.51298,0.80176
6480.58423,0.80251
6478.65549,0.80227
6476.72674,0.80138
6474.79800,0.79969
6472.86925,0.79864
6470.94051,0.79967
6469.01176,0.80075
6467.08302,0.80009
6465.15427,0.79937
6463.22552,0.80012
6461.29678,0.80121
6459.36803,0.80116
6457.43929,0.80101
6455.51054,0.80271
6453.58180,0.80530
6451.65305,0.80651
6449.72431,0.80656
6447.79556,0.80619
6445.86682,0.80475
6443.93807,0.80362
6442.00933,0.80509
6440.08058,0.80789
6438.15184,0.80880
6436.22309,0.80645
6434.29434,0.80292
6432.36560,0.80218
6430.43685,0.80429
6428.50811,0.80547
6426.57936,0.80520
6424.65062,0.80563
6422.72187,0.80631
6420.79313,0.80624
6418.86438,0.80660
6416.93564,0.80756
6415.00689,0.80709
6413.07815,0.80462
6411.14940,0.80236
6409.22066,0.80204
6407.29191,0.80291
6405.36317,0.80375
6403.43442,0.80386
6401.50567,0.80281
6399.57693,0.80171
6397.64818,0.80135
6395.71944,0.80078
6393.79069,0.79966
6391.86195,0.79759
6389.93320,0.79501
6388.00446,0.79463
6386.07571,0.79682
6384.14697,0.79928
6382.21822,0.80039
6380.28948,0.79955
6378.36073,0.79758
6376.43199,0.79541
6374.50324,0.79374
6372.57450,0.79334
6370.64575,0.79246
6368.71700,0.78961
6366.78826,0.78738
6364.85951,0.78740
6362.93077,0.78801
6361.00202,0.78745
6359.07328,0.78513
6357.14453,0.78254
6355.21579,0.78261
6353.28704,0.78546
6351.35830,0.78740
6349.42955,0.78712
6347.50081,0.78731
6345.57206,0.78880
6343.64332,0.78946
6341.71457,0.78840
6339.78582,0.78685
6337.85708,0.78547
6335.92833,0.78434
6333.99959,0.78430
6332.07084,0.78511
6330.14210,0.78460
6328.21335,0.78157
6326.28461,0.77813
6324.35586,0.77646
6322.42712,0.77652
6320.49837,0.77824
6318.56963,0.78095
6316.64088,0.78160
6314.71214,0.77865
6312.78339,0.77544
6310.85465,0.77482
6308.92590,0.77497
6306.99715,0.77379
6305.06841,0.77149
6303.13966,0.76964
6301.21092,0.76876
6299.28217,0.76790
6297.35343,0.76710
6295.42468,0.76653
6293.49594,0.76635
6291.56719,0.76640
6289.63845,0.76595
6287.70970,0.76594
6285.78096,0.76680
6283.85221,0.76777
6281.92347,0.76870
6279.99472,0.76929
6278.06598,0.76983
6276.13723,0.77028
6274.20848,0.76949
6272.27974,0.76749
6270.35099,0.76557
6268.42225,0.76414
6266.49350,0.76248
6264.56476,0.76053
6262.63601,0.75917
6260.70727,0.75918
6258.77852,0.75941
6256.84978,0.75785
6254.92103,0.75516
6252.99229,0.75224
6251.06354,0.74841
6249.13480,0.74469
6247.20605,0.74291
6245.27730,0.74277
6243.34856,0.74265
6241.41981,0.74190
6239.49107,0.74094
6237.56232,0.73971
6235.63358,0.73767
6233.70483,0.73545
6231.77609,0.73421
6229.84734,0.73285
6227.91860,0.72950
6225.98985,0.72521
6224.06111,0.72255
6222.13236,0.72184
6220.20362,0.72118
6218.27487,0.71967
6216.34613,0.71788
6214.41738,0.71565
6212.48863,0.71302
6210.55989,0.71058
6208.63114,0.70793
6206.70240,0.70541
6204.77365,0.70347
6202.84491,0.70031
6200.91616,0.69597
6198.98742,0.69278
6197.05867,0.69054
6195.12993,0.68844
6193.20118,0.68625
6191.27244,0.68207
6189.34369,0.67610
6187.41495,0.67144
6185.48620,0.66844
6183.55746,0.66515
6181.62871,0.66127
6179.69996,0.65752
6177.77122,0.65349
6175.84247,0.64760
6173.91373,0.63940
6171.98498,0.63112
6170.05624,0.62447
6168.12749,0.61850
6166.19875,0.61207
6164.27000,0.60514
6162.34126,0.59797
6160.41251,0.58995
6158.48377,0.58077
6156.55502,0.57219
6154.62628,0.56521
6152.69753,0.55823
6150.76878,0.54937
6148.84004,0.53955
6146.91129,0.53123
6144.98255,0.52454
6143.05380,0.51787
6141.12506,0.51158
6139.19631,0.50830
6137.26757,0.50744
6135.33882,0.50498
6133.41008,0.50052
6131.48133,0.49586
6129.55259,0.49028
6127.62384,0.48318
6125.69510,0.47585
6123.76635,0.46900
6121.83761,0.46253
6119.90886,0.45689
6117.98011,0.45165
6116.05137,0.44626
6114.12262,0.44193
6112.19388,0.43949
6110.26513,0.43827
6108.33639,0.43756
6106.40764,0.43743
6104.47890,0.43824
6102.55015,0.44016
6100.62141,0.44262
6098.69266,0.44469
6096.76392,0.44615
6094.83517,0.44695
6092.90643,0.44700
6090.97768,0.44656
6089.04893,0.44512
6087.12019,0.44250
6085.19144,0.43994
6083.26270,0.43751
6081.33395,0.43442
6079.40521,0.43144
6077.47646,0.42951
6075.54772,0.42905
6073.61897,0.43005
6071.69023,0.43165
6069.76148,0.43391
6067.83274,0.43844
6065.90399,0.44612
6063.97525,0.45526
6062.04650,0.46358
6060.11776,0.47034
6058.18901,0.47579
6056.26026,0.48064
6054.33152,0.48424
6052.40277,0.48488
6050.47403,0.48278
6048.54528,0.47969
6046.61654,0.47638
6044.68779,0.47224
6042.75905,0.46625
6040.83030,0.45839
6038.90156,0.45048
6036.97281,0.44372
6035.04407,0.43671
6033.11532,0.42828
6031.18658,0.41858
6029.25783,0.40820
6027.32909,0.39828
6025.40034,0.38835
6023.47159,0.37723
6021.54285,0.36604
6019.61410,0.35605
6017.68536,0.34661
6015.75661,0.33723
6013.82787,0.32849
6011.89912,0.32042
6009.97038,0.31211
6008.04163,0.30274
6006.11289,0.29290
6004.18414,0.28439
6002.25540,0.27790
6000.32665,0.27219
5998.39791,0.26629
5996.46916,0.26048
5994.54041,0.25503
5992.61167,0.24978
5990.68292,0.24476
5988.75418,0.23989
5986.82543,0.23476
5984.89669,0.22932
5982.96794,0.22429
5981.03920,0.22033
5979.11045,0.21686
5977.18171,0.21250
5975.25296,0.20713
5973.32422,0.20232
5971.39547,0.19965
5969.46673,0.19858
5967.53798,0.19758
5965.60924,0.19649
5963.68049,0.19593
5961.75174,0.19576
5959.82300,0.19503
5957.89425,0.19405
5955.96551,0.19405
5954.03676,0.19426
5952.10802,0.19353
5950.17927,0.19236
5948.25053,0.19193
5946.32178,0.19278
5944.39304,0.19413
5942.46429,0.19518
5940.53555,0.19601
5938.60680,0.19718
5936.67806,0.19905
5934.74931,0.20100
5932.82057,0.20260
5930.89182,0.20455
5928.96307,0.20737
5927.03433,0.21035
5925.10558,0.21174
5923.17684,0.21075
5921.24809,0.20905
5919.31935,0.20899
5917.39060,0.21120
5915.46186,0.21393
5913.53311,0.21543
5911.60437,0.21657
5909.67562,0.21832
5907.74688,0.21976
5905.81813,0.22018
5903.88939,0.22001
5901.96064,0.22052
5900.03189,0.22278
5898.10315,0.22592
5896.17440,0.22846
5894.24566,0.23067
5892.31691,0.23304
5890.38817,0.23546
5888.45942,0.23904
5886.53068,0.24452
5884.60193,0.25029
5882.67319,0.25538
5880.74444,0.26057
5878.81570,0.26556
5876.88695,0.26935
5874.95821,0.27281
5873.02946,0.27662
5871.10072,0.28011
5869.17197,0.28365
5867.24322,0.28759
5865.31448,0.29164
5863.38573,0.29558
5861.45699,0.29806
5859.52824,0.29859
5857.59950,0.29875
5855.67075,0.29904
5853.74201,0.29929
5851.81326,0.30013
5849.88452,0.30096
5847.95577,0.30058
5846.02703,0.29994
5844.09828,0.30059
5842.16954,0.30118
5840.24079,0.30028
5838.31205,0.29995
5836.38330,0.30129
5834.45455,0.30222
5832.52581,0.30244
5830.59706,0.30356
5828.66832,0.30494
5826.73957,0.30526
5824.81083,0.30505
5822.88208,0.30543
5820.95334,0.30632
5819.02459,0.30660
5817.09585,0.30601
5815.16710,0.30547
5813.23836,0.30532
5811.30961,0.30528
5809.38087,0.30514
5807.45212,0.30469
5805.52337,0.30349
5803.59463,0.30203
5801.66588,0.30184
5799.73714,0.30269
5797.80839,0.30295
5795.87965,0.30273
5793.95090,0.30286
5792.02216,0.30354
5790.09341,0.30497
5788.16467,0.30631
5786.23592,0.30709
5784.30718,0.30930
5782.37843,0.31410
5780.44969,0.31919
5778.52094,0.32259
5776.59220,0.32566
5774.66345,0.32986
5772.73470,0.33419
5770.80596,0.33777
5768.87721,0.34242
5766.94847,0.34946
5765.01972,0.35699
5763.09098,0.36287
5761.16223,0.36752
5759.23349,0.37234
5757.30474,0.37706
5755.37600,0.38126
5753.44725,0.38574
5751.51851,0.39071
5749.58976,0.39535
5747.66102,0.39847
5745.73227,0.39973
5743.80352,0.40056
5741.87478,0.40244
5739.94603,0.40525
5738.01729,0.40769
5736.08854,0.40864
5734.15980,0.40765
5732.23105,0.40527
5730.30231,0.40284
5728.37356,0.40075
5726.44482,0.39815
5724.51607,0.39423
5722.58733,0.38982
5720.65858,0.38600
5718.72984,0.38161
5716.80109,0.37625
5714.87235,0.37131
5712.94360,0.36659
5711.01485,0.36180
5709.08611,0.35828
5707.15736,0.35627
5705.22862,0.35437
5703.29987,0.35207
5701.37113,0.34997
5699.44238,0.34827
5697.51364,0.34672
5695.58489,0.34500
5693.65615,0.34283
5691.72740,0.34104
5689.79866,0.34035
5687.86991,0.33982
5685.94117,0.33877
5684.01242,0.33706
5682.08368,0.33474
5680.15493,0.33282
5678.22618,0.33174
5676.29744,0.33019
5674.36869,0.32730
5672.43995,0.32426
5670.51120,0.32248
5668.58246,0.32215
5666.65371,0.32294
5664.72497,0.32430
5662.79622,0.32563
5660.86748,0.32715
5658.93873,0.32944
5657.00999,0.33241
5655.08124,0.33546
5653.15250,0.33825
5651.22375,0.34101
5649.29500,0.34445
5647.36626,0.34858
5645.43751,0.35248
5643.50877,0.35620
5641.58002,0.36013
5639.65128,0.36330
5637.72253,0.36529
5635.79379,0.36747
5633.86504,0.37055
5631.93630,0.37378
5630.00755,0.37632
5628.07881,0.37822
5626.15006,0.38000
5624.22132,0.38237
5622.29257,0.38583
5620.36383,0.38906
5618.43508,0.38990
5616.50633,0.38885
5614.57759,0.38798
5612.64884,0.38769
5610.72010,0.38769
5608.79135,0.38830
5606.86261,0.38974
5604.93386,0.39123
5603.00512,0.39138
5601.07637,0.39004
5599.14763,0.38874
5597.21888,0.38844
5595.29014,0.38818
5593.36139,0.38650
5591.43265,0.38390
5589.50390,0.38204
5587.57516,0.38135
5585.64641,0.38125
5583.71766,0.38143
5581.78892,0.38187
5579.86017,0.38295
5577.93143,0.38507
5576.00268,0.38785
5574.07394,0.39071
5572.14519,0.39323
5570.21645,0.39441
5568.28770,0.39437
5566.35896,0.39440
5564.43021,0.39453
5562.50147,0.39471
5560.57272,0.39530
5558.64398,0.39548
5556.71523,0.39465
5554.78648,0.39386
5552.85774,0.39381
5550.92899,0.39429
5549.00025,0.39497
5547.07150,0.39528
5545.14276,0.39529
5543.21401,0.39556
5541.28527,0.39542
5539.35652,0.39469
5537.42778,0.39417
5535.49903,0.39382
5533.57029,0.39347
5531.64154,0.39332
5529.71280,0.39348
5527.78405,0.39424
5525.85531,0.39523
5523.92656,0.39554
5521.99781,0.39539
5520.06907,0.39553
5518.14032,0.39576
5516.21158,0.39603
5514.28283,0.39692
5512.35409,0.39795
5510.42534,0.39811
5508.49660,0.39810
5506.56785,0.39893
5504.63911,0.40002
5502.71036,0.40098
5500.78162,0.40186
5498.85287,0.40292
5496.92413,0.40510
5494.99538,0.40766
5493.06664,0.40922
5491.13789,0.41027
5489.20914,0.41149
5487.28040,0.41290
5485.35165,0.41435
5483.42291,0.41546
5481.49416,0.41644
5479.56542,0.41780
5477.63667,0.41960
5475.70793,0.42124
5473.77918,0.42178
5471.85044,0.42117
5469.92169,0.42075
5467.99295,0.42134
5466.06420,0.42184
5464.13546,0.42167
5462.20671,0.42162
5460.27796,0.42173
5458.34922,0.42206
5456.42047,0.42300
5454.49173,0.42387
5452.56298,0.42402
5450.63424,0.42391
5448.70549,0.42378
5446.77675,0.42311
5444.84800,0.42179
5442.91926,0.42021
5440.99051,0.41898
5439.06177,0.41868
5437.13302,0.41882
5435.20428,0.41886
5433.27553,0.41938
5431.34679,0.41989
5429.41804,0.41912
5427.48929,0.41811
5425.56055,0.41857
5423.63180,0.41938
5421.70306,0.41933
5419.77431,0.41873
5417.84557,0.41793
5415.91682,0.41758
5413.98808,0.41771
5412.05933,0.41728
5410.13059,0.41653
5408.20184,0.41608
5406.27310,0.41576
5404.34435,0.41588
5402.41561,0.41629
5400.48686,0.41591
5398.55811,0.41487
5396.62937,0.41412
5394.70062,0.41354
5392.77188,0.41278
5390.84313,0.41189
5388.91439,0.41109
5386.98564,0.41078
5385.05690,0.41079
5383.12815,0.41058
5381.19941,0.41009
5379.27066,0.40957
5377.34192,0.40921
5375.41317,0.40874
5373.48443,0.40845
5371.55568,0.40912
5369.62694,0.41048
5367.69819,0.41167
5365.76944,0.41241
5363.84070,0.41342
5361.91195,0.41511
5359.98321,0.41650
5358.05446,0.41712
5356.12572,0.41760
5354.19697,0.41797
5352.26823,0.41807
5350.33948,0.41879
5348.41074,0.42099
5346.48199,0.42380
5344.55325,0.42573
5342.62450,0.42677
5340.69576,0.42761
5338.76701,0.42887
5336.83827,0.43108
5334.90952,0.43324
5332.98077,0.43417
5331.05203,0.43443
5329.12328,0.43474
5327.19454,0.43489
5325.26579,0.43493
5323.33705,0.43556
5321.40830,0.43715
5319.47956,0.43910
5317.55081,0.44064
5315.62207,0.44110
5313.69332,0.44082
5311.76458,0.44089
5309.83583,0.44133
5307.90709,0.44176
5305.97834,0.44212
5304.04959,0.44241
5302.12085,0.44259
5300.19210,0.44241
5298.26336,0.44185
5296.33461,0.44120
5294.40587,0.44103
5292.47712,0.44177
5290.54838,0.44279
5288.61963,0.44323
5286.69089,0.44336
5284.76214,0.44374
5282.83340,0.44417
5280.90465,0.44426
5278.97591,0.44432
5277.04716,0.44486
5275.11842,0.44561
5273.18967,0.44612
5271.26092,0.44657
5269.33218,0.44688
5267.40343,0.44695
5265.47469,0.44697
5263.54594,0.44665
5261.61720,0.44598
5259.68845,0.44557
5257.75971,0.44535
5255.83096,0.44504
5253.90222,0.44474
5251.97347,0.44441
5250.04473,0.44417
5248.11598,0.44429
5246.18724,0.44463
5244.25849,0.44476
5242.32975,0.44438
5240.40100,0.44374
5238.47225,0.44338
5236.54351,0.44319
5234.61476,0.44263
5232.68602,0.44201
5230.75727,0.44208
5228.82853,0.44277
5226.89978,0.44344
5224.97104,0.44378
5223.04229,0.44429
5221.11355,0.44563
5219.18480,0.44754
5217.25606,0.44931
5215.32731,0.45030
5213.39857,0.45045
5211.46982,0.45040
5209.54107,0.45073
5207.61233,0.45180
5205.68358,0.45348
5203.75484,0.45467
5201.82609,0.45499
5199.89735,0.45554
5197.96860,0.45633
5196.03986,0.45630
5194.11111,0.45578
5192.18237,0.45573
5190.25362,0.45604
5188.32488,0.45618
5186.39613,0.45632
5184.46739,0.45684
5182.53864,0.45724
5180.60990,0.45731
5178.68115,0.45752
5176.75240,0.45782
5174.82366,0.45791
5172.89491,0.45798
5170.96617,0.45798
5169.03742,0.45759
5167.10868,0.45724
5165.17993,0.45748
5163.25119,0.45831
5161.32244,0.45940
5159.39370,0.45999
5157.46495,0.45960
5155.53621,0.45918
5153.60746,0.45954
5151.67872,0.45974
5149.74997,0.45933
5147.82123,0.45900
5145.89248,0.45892
5143.96373,0.45882
5142.03499,0.45837
5140.10624,0.45727
5138.17750,0.45599
5136.24875,0.45496
5134.32001,0.45412
5132.39126,0.45373
5130.46252,0.45385
5128.53377,0.45383
5126.60503,0.45366
5124.67628,0.45397
5122.74754,0.45439
5120.81879,0.45447
5118.89005,0.45474
5116.96130,0.45515
5115.03255,0.45539
5113.10381,0.45593
5111.17506,0.45654
5109.24632,0.45634
5107.31757,0.45578
5105.38883,0.45595
5103.46008,0.45658
5101.53134,0.45695
5099.60259,0.45737
5097.67385,0.45817
5095.74510,0.45882
5093.81636,0.45899
5091.88761,0.45924
5089.95887,0.45953
5088.03012,0.45942
5086.10138,0.45924
5084.17263,0.45938
5082.24388,0.45988
5080.31514,0.46048
5078.38639,0.46079
5076.45765,0.46119
5074.52890,0.46167
5072.60016,0.46161
5070.67141,0.46136
5068.74267,0.46139
5066.81392,0.46145
5064.88518,0.46139
5062.95643,0.46128
5061.02769,0.46122
5059.09894,0.46109
5057.17020,0.46076
5055.24145,0.46048
5053.31270,0.46041
5051.38396,0.46027
5049.45521,0.46027
5047.52647,0.46063
5045.59772,0.46052
5043.66898,0.45950
5041.74023,0.45842
5039.81149,0.45807
5037.88274,0.45846
5035.95400,0.45918
5034.02525,0.45996
5032.09651,0.46055
5030.16776,0.46064
5028.23902,0.46059
5026.31027,0.46079
5024.38153,0.46077
5022.45278,0.46024
5020.52403,0.46005
5018.59529,0.46066
5016.66654,0.46115
5014.73780,0.46131
5012.80905,0.46169
5010.88031,0.46190
5008.95156,0.46168
5007.02282,0.46149
5005.09407,0.46104
5003.16533,0.45961
5001.23658,0.45782
4999.30784,0.45693
4997.37909,0.45680
4995.45035,0.45652
4993.52160,0.45595
4991.59286,0.45515
4989.66411,0.45395
4987.73536,0.45260
4985.80662,0.45141
4983.87787,0.45061
4981.94913,0.45022
4980.02038,0.44996
4978.09164,0.44988
4976.16289,0.45006
4974.23415,0.45015
4972.30540,0.45020
4970.37666,0.45071
4968.44791,0.45138
4966.51917,0.45127
4964.59042,0.45097
4962.66168,0.45177
4960.73293,0.45285
4958.80418,0.45286
4956.87544,0.45227
4954.94669,0.45177
4953.01795,0.45117
4951.08920,0.45065
4949.16046,0.45057
4947.23171,0.45057
4945.30297,0.45026
4943.37422,0.44999
4941.44548,0.45014
4939.51673,0.45034
4937.58799,0.45026
4935.65924,0.45015
4933.73050,0.45012
4931.80175,0.45029
4929.87301,0.45087
4927.94426,0.45155
4926.01551,0.45170
4924.08677,0.45111
4922.15802,0.45054
4920.22928,0.45077
4918.30053,0.45135
4916.37179,0.45168
4914.44304,0.45170
4912.51430,0.45148
4910.58555,0.45124
4908.65681,0.45082
4906.72806,0.45012
4904.79932,0.44978
4902.87057,0.44991
4900.94183,0.44969
4899.01308,0.44879
4897.08434,0.44779
4895.15559,0.44699
4893.22684,0.44603
4891.29810,0.44498
4889.36935,0.44434
4887.44061,0.44389
4885.51186,0.44336
4883.58312,0.44274
4881.65437,0.44157
4879.72563,0.44003
4877.79688,0.43898
4875.86814,0.43840
4873.93939,0.43786
4872.01065,0.43722
4870.08190,0.43619
4868.15316,0.43496
4866.22441,0.43412
4864.29566,0.43386
4862.36692,0.43377
4860.43817,0.43361
4858.50943,0.43373
4856.58068,0.43380
4854.65194,0.43307
4852.72319,0.43192
4850.79445,0.43077
4848.86570,0.42938
4846.93696,0.42781
4845.00821,0.42633
4843.07947,0.42485
4841.15072,0.42323
4839.22198,0.42169
4837.29323,0.42065
4835.36449,0.42016
4833.43574,0.41992
4831.50699,0.41977
4829.57825,0.41972
4827.64950,0.41973
4825.72076,0.41986
4823.79201,0.42024
4821.86327,0.42060
4819.93452,0.42088
4818.00578,0.42138
4816.07703,0.42208
4814.14829,0.42265
4812.21954,0.42303
4810.29080,0.42349
4808.36205,0.42401
4806.43331,0.42467
4804.50456,0.42527
4802.57582,0.42504
4800.64707,0.42387
4798.71832,0.42254
4796.78958,0.42152
4794.86083,0.42038
4792.93209,0.41882
4791.00334,0.41746
4789.07460,0.41663
4787.14585,0.41584
4785.21711,0.41437
4783.28836,0.41191
4781.35962,0.40929
4779.43087,0.40726
4777.50213,0.40494
4775.57338,0.40138
4773.64464,0.39714
4771.71589,0.39301
4769.78714,0.38920
4767.85840,0.38554
4765.92965,0.38201
4764.00091,0.37904
4762.07216,0.37711
4760.14342,0.37618
4758.21467,0.37578
4756.28593,0.37576
4754.35718,0.37627
4752.42844,0.37672
4750.49969,0.37635
4748.57095,0.37553
4746.64220,0.37452
4744.71346,0.37295
4742.78471,0.37099
4740.85597,0.36903
4738.92722,0.36687
4736.99847,0.36448
4735.06973,0.36206
4733.14098,0.35918
4731.21224,0.35538
4729.28349,0.35091
4727.35475,0.34597
4725.42600,0.34065
4723.49726,0.33520
4721.56851,0.32923
4719.63977,0.32237
4717.71102,0.31535
4715.78228,0.30901
4713.85353,0.30365
4711.92479,0.29926
4709.99604,0.29538
4708.06729,0.29173
4706.13855,0.28842
4704.20980,0.28576
4702.28106,0.28375
4700.35231,0.28144
4698.42357,0.27797
4696.49482,0.27348
4694.56608,0.26834
4692.63733,0.26244
4690.70859,0.25531
4688.77984,0.24673
4686.85110,0.23675
4684.92235,0.22545
4682.99361,0.21297
4681.06486,0.19966
4679.13612,0.18623
4677.20737,0.17351
4675.27862,0.16229
4673.34988,0.15273
4671.42113,0.14450
4669.49239,0.13772
4667.56364,0.13288
4665.63490,0.13024
4663.70615,0.12963
4661.77741,0.13040
4659.84866,0.13203
4657.91992,0.13466
4655.99117,0.13867
4654.06243,0.14364
4652.13368,0.14866
4650.20494,0.15337
4648.27619,0.15759
4646.34745,0.16068
4644.41870,0.16201
4642.48995,0.16145
4640.56121,0.15960
4638.63246,0.15707
4636.70372,0.15374
4634.77497,0.14951
4632.84623,0.14508
4630.91748,0.14135
4628.98874,0.13852
4627.05999,0.13600
4625.13125,0.13391
4623.20250,0.13296
4621.27376,0.13280
4619.34501,0.13252
4617.41627,0.13191
4615.48752,0.13097
4613.55877,0.12975
4611.63003,0.12853
4609.70128,0.12764
4607.77254,0.12738
4605.84379,0.12792
4603.91505,0.12950
4601.98630,0.13252
4600.05756,0.13735
4598.12881,0.14364
4596.20007,0.15024
4594.27132,0.15631
4592.34258,0.16147
4590.41383,0.16565
4588.48509,0.16919
4586.55634,0.17185
4584.62760,0.17297
4582.69885,0.17223
4580.77010,0.16932
4578.84136,0.16417
4576.91261,0.15774
4574.98387,0.15174
4573.05512,0.14757
4571.12638,0.14587
4569.19763,0.14729
4567.26889,0.15228
4565.34014,0.16017
4563.41140,0.16939
4561.48265,0.17823
4559.55391,0.18559
4557.62516,0.19176
4555.69642,0.19755
4553.76767,0.20322
4551.83893,0.20909
4549.91018,0.21555
4547.98143,0.22203
4546.05269,0.22762
4544.12394,0.23198
4542.19520,0.23524
4540.26645,0.23764
4538.33771,0.23889
4536.40896,0.23882
4534.48022,0.23822
4532.55147,0.23812
4530.62273,0.23907
4528.69398,0.24060
4526.76524,0.24182
4524.83649,0.24285
4522.90775,0.24376
4520.97900,0.24383
4519.05025,0.24301
4517.12151,0.24190
4515.19276,0.24099
4513.26402,0.24042
4511.33527,0.23991
4509.40653,0.23923
4507.47778,0.23806
4505.54904,0.23638
4503.62029,0.23516
4501.69155,0.23551
4499.76280,0.23777
4497.83406,0.24151
4495.90531,0.24592
4493.97657,0.24978
4492.04782,0.25206
4490.11908,0.25268
4488.19033,0.25217
4486.26158,0.25141
4484.33284,0.25110
4482.40409,0.25116
4480.47535,0.25153
4478.54660,0.25236
4476.61786,0.25378
4474.68911,0.25608
4472.76037,0.25897
4470.83162,0.26185
4468.90288,0.26447
4466.97413,0.26644
4465.04539,0.26809
4463.11664,0.26999
4461.18790,0.27139
4459.25915,0.27157
4457.33041,0.27073
4455.40166,0.26919
4453.47291,0.26733
4451.54417,0.26490
4449.61542,0.26147
4447.68668,0.25754
4445.75793,0.25366
4443.82919,0.24990
4441.90044,0.24693
4439.97170,0.24551
4438.04295,0.24533
4436.11421,0.24564
4434.18546,0.24614
4432.25672,0.24667
4430.32797,0.24680
4428.39923,0.24601
4426.47048,0.24433
4424.54173,0.24210
4422.61299,0.23954
4420.68424,0.23683
4418.75550,0.23407
4416.82675,0.23139
4414.89801,0.22895
4412.96926,0.22671
4411.04052,0.22420
4409.11177,0.22108
4407.18303,0.21785
4405.25428,0.21503
4403.32554,0.21245
4401.39679,0.20983
4399.46805,0.20705
4397.53930,0.20397
4395.61056,0.20049
4393.68181,0.19681
4391.75306,0.19346
4389.82432,0.19044
4387.89557,0.18714
4385.96683,0.18354
4384.03808,0.18012
4382.10934,0.17693
4380.18059,0.17382
4378.25185,0.17056
4376.32310,0.16729
4374.39436,0.16442
4372.46561,0.16160
4370.53687,0.15831
4368.60812,0.15483
4366.67938,0.15176
4364.75063,0.14911
4362.82189,0.14645
4360.89314,0.14347
4358.96439,0.14036
4357.03565,0.13764
4355.10690,0.13549
4353.17816,0.13380
4351.24941,0.13230
4349.32067,0.13078
4347.39192,0.12926
4345.46318,0.12759
4343.53443,0.12585
4341.60569,0.12449
4339.67694,0.12339
4337.74820,0.12217
4335.81945,0.12106
4333.89071,0.12025
4331.96196,0.11963
4330.03321,0.11949
4328.10447,0.12007
4326.17572,0.12097
4324.24698,0.12210
4322.31823,0.12376
4320.38949,0.12580
4318.46074,0.12801
4316.53200,0.13037
4314.60325,0.13294
4312.67451,0.13544
4310.74576,0.13742
4308.81702,0.13893
4306.88827,0.14001
4304.95953,0.14038
4303.03078,0.13998
4301.10204,0.13922
4299.17329,0.13859
4297.24454,0.13814
4295.31580,0.13759
4293.38705,0.13683
4291.45831,0.13589
4289.52956,0.13472
4287.60082,0.13336
4285.67207,0.13177
4283.74333,0.12987
4281.81458,0.12790
4279.88584,0.12605
4277.95709,0.12423
4276.02835,0.12241
4274.09960,0.12072
4272.17086,0.11907
4270.24211,0.11718
4268.31336,0.11514
4266.38462,0.11303
4264.45587,0.11093
4262.52713,0.10922
4260.59838,0.10795
4258.66964,0.10694
4256.74089,0.10619
4254.81215,0.10559
4252.88340,0.10504
4250.95466,0.10466
4249.02591,0.10453
4247.09717,0.10454
4245.16842,0.10466
4243.23968,0.10489
4241.31093,0.10503
4239.38219,0.10528
4237.45344,0.10598
4235.52469,0.10700
4233.59595,0.10785
4231.66720,0.10811
4229.73846,0.10800
4227.80971,0.10805
4225.88097,0.10834
4223.95222,0.10875
4222.02348,0.10922
4220.09473,0.10950
4218.16599,0.10950
4216.23724,0.10946
4214.30850,0.10940
4212.37975,0.10918
4210.45101,0.10897
4208.52226,0.10902
4206.59352,0.10928
4204.66477,0.10975
4202.73602,0.11039
4200.80728,0.11096
4198.87853,0.11173
4196.94979,0.11306
4195.02104,0.11449
4193.09230,0.11553
4191.16355,0.11636
4189.23481,0.11695
4187.30606,0.11720
4185.37732,0.11767
4183.44857,0.11855
4181.51983,0.11935
4179.59108,0.11988
4177.66234,0.12025
4175.73359,0.12055
4173.80484,0.12109
4171.87610,0.12208
4169.94735,0.12320
4168.01861,0.12405
4166.08986,0.12477
4164.16112,0.12557
4162.23237,0.12604
4160.30363,0.12574
4158.37488,0.12535
4156.44614,0.12561
4154.51739,0.12606
4152.58865,0.12619
4150.65990,0.12626
4148.73116,0.12642
4146.80241,0.12636
4144.87367,0.12571
4142.94492,0.12475
4141.01617,0.12405
4139.08743,0.12353
4137.15868,0.12300
4135.22994,0.12247
4133.30119,0.12170
4131.37245,0.12068
4129.44370,0.11987
4127.51496,0.11919
4125.58621,0.11842
4123.65747,0.11747
4121.72872,0.11625
4119.79998,0.11518
4117.87123,0.11457
4115.94249,0.11413
4114.01374,0.11365
4112.08500,0.11301
4110.15625,0.11210
4108.22750,0.11129
4106.29876,0.11073
4104.37001,0.11023
4102.44127,0.10991
4100.51252,0.10979
4098.58378,0.10945
4096.65503,0.10859
4094.72629,0.10736
4092.79754,0.10618
4090.86880,0.10523
4088.94005,0.10412
4087.01131,0.10263
4085.08256,0.10108
4083.15382,0.09963
4081.22507,0.09792
4079.29632,0.09589
4077.36758,0.09398
4075.43883,0.09226
4073.51009,0.09053
4071.58134,0.08904
4069.65260,0.08779
4067.72385,0.08641
4065.79511,0.08502
4063.86636,0.08401
4061.93762,0.08334
4060.00887,0.08271
4058.08013,0.08204
4056.15138,0.08164
4054.22264,0.08159
4052.29389,0.08154
4050.36515,0.08145
4048.43640,0.08158
4046.50765,0.08181
4044.57891,0.08174
4042.65016,0.08129
4040.72142,0.08073
4038.79267,0.08046
4036.86393,0.08043
4034.93518,0.08070
4033.00644,0.08166
4031.07769,0.08302
4029.14895,0.08424
4027.22020,0.08553
4025.29146,0.08723
4023.36271,0.08944
4021.43397,0.09208
4019.50522,0.09500
4017.57648,0.09801
4015.64773,0.10105
4013.71898,0.10421
4011.79024,0.10695
4009.86149,0.10853
4007.93275,0.10903
4006.00400,0.10911
4004.07526,0.10919
4002.14651,0.10909
4000.21777,0.10901
3998.28902,0.10980
3996.36028,0.11164
3994.43153,0.11389
3992.50279,0.11616
3990.57404,0.11803
3988.64530,0.11923
3986.71655,0.12019
3984.78780,0.12104
3982.85906,0.12142
3980.93031,0.12130
3979.00157,0.12102
3977.07282,0.12101
3975.14408,0.12131
3973.21533,0.12169
3971.28659,0.12212
3969.35784,0.12275
3967.42910,0.12334
3965.50035,0.12374
3963.57161,0.12427
3961.64286,0.12505
3959.71412,0.12576
3957.78537,0.12593
3955.85663,0.12560
3953.92788,0.12556
3951.99913,0.12596
3950.07039,0.12601
3948.14164,0.12552
3946.21290,0.12499
3944.28415,0.12454
3942.35541,0.12397
3940.42666,0.12335
3938.49792,0.12282
3936.56917,0.12252
3934.64043,0.12275
3932.71168,0.12360
3930.78294,0.12444
3928.85419,0.12477
3926.92545,0.12481
3924.99670,0.12490
3923.06795,0.12517
3921.13921,0.12547
3919.21046,0.12565
3917.28172,0.12609
3915.35297,0.12671
3913.42423,0.12697
3911.49548,0.12691
3909.56674,0.12696
3907.63799,0.12731
3905.70925,0.12801
3903.78050,0.12867
3901.85176,0.12892
3899.92301,0.12892
3897.99427,0.12882
3896.06552,0.12864
3894.13678,0.12869
3892.20803,0.12907
3890.27928,0.12956
3888.35054,0.13006
3886.42179,0.13061
3884.49305,0.13109
3882.56430,0.13154
3880.63556,0.13193
3878.70681,0.13190
3876.77807,0.13171
3874.84932,0.13166
3872.92058,0.13149
3870.99183,0.13128
3869.06309,0.13120
3867.13434,0.13108
3865.20560,0.13097
3863.27685,0.13107
3861.34811,0.13144
3859.41936,0.13190
3857.49061,0.13216
3855.56187,0.13205
3853.63312,0.13150
3851.70438,0.13084
3849.77563,0.13053
3847.84689,0.13039
3845.91814,0.13013
3843.98940,0.12966
3842.06065,0.12918
3840.13191,0.12897
3838.20316,0.12864
3836.27442,0.12769
3834.34567,0.12661
3832.41693,0.12601
3830.48818,0.12562
3828.55943,0.12505
3826.63069,0.12440
3824.70194,0.12377
3822.77320,0.12297
3820.84445,0.12223
3818.91571,0.12198
3816.98696,0.12197
3815.05822,0.12185
3813.12947,0.12183
3811.20073,0.12212
3809.27198,0.12244
3807.34324,0.12241
3805.41449,0.12225
3803.48575,0.12213
3801.55700,0.12203
3799.62826,0.12225
3797.69951,0.12303
3795.77076,0.12429
3793.84202,0.12565
3791.91327,0.12677
3789.98453,0.12777
3788.05578,0.12894
3786.12704,0.13021
3784.19829,0.13118
3782.26955,0.13156
3780.34080,0.13168
3778.41206,0.13189
3776.48331,0.13216
3774.55457,0.13233
3772.62582,0.13213
3770.69708,0.13151
3768.76833,0.13058
3766.83959,0.12963
3764.91084,0.12920
3762.98209,0.12944
3761.05335,0.12996
3759.12460,0.13075
3757.19586,0.13200
3755.26711,0.13335
3753.33837,0.13454
3751.40962,0.13543
3749.48088,0.13603
3747.55213,0.13663
3745.62339,0.13736
3743.69464,0.13785
3741.76590,0.13776
3739.83715,0.13729
3737.90841,0.13675
3735.97966,0.13624
3734.05091,0.13574
3732.12217,0.13504
3730.19342,0.13379
3728.26468,0.13190
3726.33593,0.12975
3724.40719,0.12792
3722.47844,0.12668
3720.54970,0.12617
3718.62095,0.12656
3716.69221,0.12772
3714.76346,0.12908
3712.83472,0.13014
3710.90597,0.13033
3708.97723,0.12931
3707.04848,0.12749
3705.11974,0.12518
3703.19099,0.12259
3701.26224,0.12054
3699.33350,0.11982
3697.40475,0.12042
3695.47601,0.12176
3693.54726,0.12306
3691.61852,0.12378
3689.68977,0.12382
3687.76103,0.12341
3685.83228,0.12281
3683.90354,0.12190
3681.97479,0.12058
3680.04605,0.11933
3678.11730,0.11882
3676.18856,0.11898
3674.25981,0.11912
3672.33107,0.11883
3670.40232,0.11841
3668.47357,0.11822
3666.54483,0.11799
3664.61608,0.11730
3662.68734,0.11618
3660.75859,0.11469
3658.82985,0.11268
3656.90110,0.11016
3654.97236,0.10746
3653.04361,0.10483
3651.11487,0.10217
3649.18612,0.09984
3647.25738,0.09863
3645.32863,0.09874
3643.39989,0.10025
3641.47114,0.10347
3639.54239,0.10792
3637.61365,0.11234
3635.68490,0.11603
3633.75616,0.11881
3631.82741,0.12035
3629.89867,0.12040
3627.96992,0.11890
3626.04118,0.11642
3624.11243,0.11381
3622.18369,0.11186
3620.25494,0.11129
3618.32620,0.11261
3616.39745,0.11595
3614.46871,0.12069
3612.53996,0.12585
3610.61122,0.13056
3608.68247,0.13451
3606.75372,0.13755
3604.82498,0.13943
3602.89623,0.14039
3600.96749,0.14090
3599.03874,0.14110
3597.11000,0.14119
3595.18125,0.14136
3593.25251,0.14143
3591.32376,0.14145
3589.39502,0.14173
3587.46627,0.14225
3585.53753,0.14285
3583.60878,0.14371
3581.68004,0.14486
3579.75129,0.14616
3577.82254,0.14776
3575.89380,0.14972
3573.96505,0.15151
3572.03631,0.15272
3570.10756,0.15377
3568.17882,0.15508
3566.25007,0.15605
3564.32133,0.15615
3562.39258,0.15580
3560.46384,0.15544
3558.53509,0.15522
3556.60635,0.15527
3554.67760,0.15561
3552.74886,0.15585
3550.82011,0.15562
3548.89137,0.15496
3546.96262,0.15411
3545.03387,0.15335
3543.10513,0.15277
3541.17638,0.15241
3539.24764,0.15209
3537.31889,0.15154
3535.39015,0.15102
3533.46140,0.15071
3531.53266,0.15045
3529.60391,0.15008
3527.67517,0.14941
3525.74642,0.14862
3523.81768,0.14815
3521.88893,0.14790
3519.96019,0.14758
3518.03144,0.14708
3516.10270,0.14636
3514.17395,0.14571
3512.24520,0.14537
3510.31646,0.14510
3508.38771,0.14479
3506.45897,0.14454
3504.53022,0.14420
3502.60148,0.14350
3500.67273,0.14267
3498.74399,0.14206
3496.81524,0.14155
3494.88650,0.14100
3492.95775,0.14027
3491.02901,0.13915
3489.10026,0.13783
3487.17152,0.13684
3485.24277,0.13626
3483.31402,0.13582
3481.38528,0.13528
3479.45653,0.13447
3477.52779,0.13338
3475.59904,0.13247
3473.67030,0.13210
3471.74155,0.13182
3469.81281,0.13126
3467.88406,0.13060
3465.95532,0.13001
3464.02657,0.12958
3462.09783,0.12918
3460.16908,0.12874
3458.24034,0.12847
3456.31159,0.12834
3454.38285,0.12797
3452.45410,0.12713
3450.52535,0.12601
3448.59661,0.12493
3446.66786,0.12389
3444.73912,0.12288
3442.81037,0.12208
3440.88163,0.12165
3438.95288,0.12179
3437.02414,0.12275
3435.09539,0.12423
3433.16665,0.12572
3431.23790,0.12715
3429.30916,0.12836
3427.38041,0.12945
3425.45167,0.13075
3423.52292,0.13191
3421.59418,0.13246
3419.66543,0.13247
3417.73668,0.13253
3415.80794,0.13321
3413.87919,0.13418
3411.95045,0.13478
3410.02170,0.13497
3408.09296,0.13519
3406.16421,0.13556
3404.23547,0.13595
3402.30672,0.13638
3400.37798,0.13674
3398.44923,0.13683
3396.52049,0.13667
3394.59174,0.13661
3392.66300,0.13687
3390.73425,0.13723
3388.80550,0.13746
3386.87676,0.13766
3384.94801,0.13791
3383.01927,0.13810
3381.09052,0.13816
3379.16178,0.13839
3377.23303,0.13891
3375.30429,0.13943
3373.37554,0.14004
3371.44680,0.14098
3369.51805,0.14200
3367.58931,0.14271
3365.66056,0.14303
3363.73182,0.14303
3361.80307,0.14282
3359.87433,0.14248
3357.94558,0.14215
3356.01683,0.14186
3354.08809,0.14159
3352.15934,0.14126
3350.23060,0.14074
3348.30185,0.14018
3346.37311,0.13980
3344.44436,0.13960
3342.51562,0.13951
3340.58687,0.13939
3338.65813,0.13901
3336.72938,0.13825
3334.80064,0.13730
3332.87189,0.13653
3330.94315,0.13602
3329.01440,0.13564
3327.08566,0.13532
3325.15691,0.13486
3323.22816,0.13426
3321.29942,0.13392
3319.37067,0.13379
3317.44193,0.13338
3315.51318,0.13258
3313.58444,0.13171
3311.65569,0.13085
3309.72695,0.12955
3307.79820,0.12760
3305.86946,0.12534
3303.94071,0.12309
3302.01197,0.12138
3300.08322,0.12064
3298.15448,0.12057
3296.22573,0.12097
3294.29698,0.12198
3292.36824,0.12316
3290.43949,0.12401
3288.51075,0.12459
3286.58200,0.12509
3284.65326,0.12551
3282.72451,0.12566
3280.79577,0.12547
3278.86702,0.12510
3276.93828,0.12465
3275.00953,0.12433
3273.08079,0.12430
3271.15204,0.12440
3269.22330,0.12432
3267.29455,0.12405
3265.36581,0.12371
3263.43706,0.12331
3261.50831,0.12279
3259.57957,0.12226
3257.65082,0.12184
3255.72208,0.12149
3253.79333,0.12109
3251.86459,0.12067
3249.93584,0.12035
3248.00710,0.12015
3246.07835,0.11993
3244.14961,0.11965
3242.22086,0.11918
3240.29212,0.11868
3238.36337,0.11855
3236.43463,0.11834
3234.50588,0.11761
3232.57713,0.11677
3230.64839,0.11593
3228.71964,0.11498
3226.79090,0.11427
3224.86215,0.11373
3222.93341,0.11309
3221.00466,0.11254
3219.07592,0.11192
3217.14717,0.11082
3215.21843,0.10949
3213.28968,0.10827
3211.36094,0.10702
3209.43219,0.10571
3207.50345,0.10446
3205.57470,0.10299
3203.64596,0.10132
3201.71721,0.10002
3199.78846,0.09933
3197.85972,0.09900
3195.93097,0.09877
3194.00223,0.09857
3192.07348,0.09834
3190.14474,0.09812
3188.21599,0.09791
3186.28725,0.09747
3184.35850,0.09680
3182.42976,0.09617
3180.50101,0.09562
3178.57227,0.09504
3176.64352,0.09434
3174.71478,0.09330
3172.78603,0.09182
3170.85729,0.08987
3168.92854,0.08751
3166.99979,0.08502
3165.07105,0.08280
3163.14230,0.08124
3161.21356,0.08083
3159.28481,0.08175
3157.35607,0.08326
3155.42732,0.08450
3153.49858,0.08525
3151.56983,0.08556
3149.64109,0.08549
3147.71234,0.08525
3145.78360,0.08497
3143.85485,0.08463
3141.92611,0.08430
3139.99736,0.08394
3138.06861,0.08334
3136.13987,0.08254
3134.21112,0.08174
3132.28238,0.08084
3130.35363,0.07986
3128.42489,0.07905
3126.49614,0.07824
3124.56740,0.07717
3122.63865,0.07611
3120.70991,0.07503
3118.78116,0.07354
3116.85242,0.07194
3114.92367,0.07068
3112.99493,0.06960
3111.06618,0.06841
3109.13744,0.06718
3107.20869,0.06627
3105.27994,0.06584
3103.35120,0.06571
3101.42245,0.06570
3099.49371,0.06594
3097.56496,0.06631
3095.63622,0.06640
3093.70747,0.06599
3091.77873,0.06515
3089.84998,0.06427
3087.92124,0.06380
3085.99249,0.06386
3084.06375,0.06408
3082.13500,0.06422
3080.20626,0.06430
3078.27751,0.06440
3076.34877,0.06460
3074.42002,0.06481
3072.49127,0.06476
3070.56253,0.06448
3068.63378,0.06422
3066.70504,0.06402
3064.77629,0.06381
3062.84755,0.06384
3060.91880,0.06422
3058.99006,0.06461
3057.06131,0.06486
3055.13257,0.06509
3053.20382,0.06530
3051.27508,0.06554
3049.34633,0.06563
3047.41759,0.06539
3045.48884,0.06509
3043.56009,0.06486
3041.63135,0.06449
3039.70260,0.06405
3037.77386,0.06379
3035.84511,0.06354
3033.91637,0.06305
3031.98762,0.06263
3030.05888,0.06271
3028.13013,0.06326
3026.20139,0.06409
3024.27264,0.06520
3022.34390,0.06641
3020.41515,0.06722
3018.48641,0.06746
3016.55766,0.06737
3014.62892,0.06729
3012.70017,0.06719
3010.77142,0.06685
3008.84268,0.06643
3006.91393,0.06614
3004.98519,0.06598
3003.05644,0.06611
3001.12770,0.06658
2999.19895,0.06684
2997.27021,0.06666
2995.34146,0.06660
2993.41272,0.06689
2991.48397,0.06699
2989.55523,0.06672
2987.62648,0.06644
2985.69774,0.06629
2983.76899,0.06611
2981.84025,0.06601
2979.91150,0.06595
2977.98275,0.06563
2976.05401,0.06533
2974.12526,0.06548
2972.19652,0.06566
2970.26777,0.06548
2968.33903,0.06525
2966.41028,0.06525
2964.48154,0.06527
2962.55279,0.06517
2960.62405,0.06504
2958.69530,0.06507
2956.76656,0.06508
2954.83781,0.06471
2952.90907,0.06411
2950.98032,0.06376
2949.05157,0.06386
2947.12283,0.06401
2945.19408,0.06374
2943.26534,0.06328
2941.33659,0.06313
2939.40785,0.06317
2937.47910,0.06321
2935.55036,0.06342
2933.62161,0.06381
2931.69287,0.06425
2929.76412,0.06482
2927.83538,0.06562
2925.90663,0.06656
2923.97789,0.06754
2922.04914,0.06858
2920.12040,0.06933
2918.19165,0.06942
2916.26290,0.06917
2914.33416,0.06908
2912.40541,0.06915
2910.47667,0.06920
2908.54792,0.06925
2906.61918,0.06940
2904.69043,0.06949
2902.76169,0.06940
2900.83294,0.06928
2898.90420,0.06914
2896.97545,0.06888
2895.04671,0.06874
2893.11796,0.06863
2891.18922,0.06832
2889.26047,0.06804
2887.33172,0.06799
2885.40298,0.06796
2883.47423,0.06779
2881.54549,0.06753
2879.61674,0.06742
2877.68800,0.06750
2875.75925,0.06758
2873.83051,0.06774
2871.90176,0.06810
2869.97302,0.06843
2868.04427,0.06843
2866.11553,0.06824
2864.18678,0.06817
2862.25804,0.06825
2860.32929,0.06829
2858.40055,0.06815
2856.47180,0.06786
2854.54305,0.06770
2852.61431,0.06794
2850.68556,0.06850
2848.75682,0.06902
2846.82807,0.06920
2844.89933,0.06911
2842.97058,0.06897
2841.04184,0.06888
2839.11309,0.06879
2837.18435,0.06867
2835.25560,0.06863
2833.32686,0.06874
2831.39811,0.06893
2829.46937,0.06908
2827.54062,0.06921
2825.61188,0.06936
2823.68313,0.06946
2821.75438,0.06957
2819.82564,0.06985
2817.89689,0.07022
2815.96815,0.07046
2814.03940,0.07056
2812.11066,0.07063
2810.18191,0.07064
2808.25317,0.07062
2806.32442,0.07074
2804.39568,0.07103
2802.46693,0.07132
2800.53819,0.07152
2798.60944,0.07165
2796.68070,0.07169
2794.75195,0.07176
2792.82320,0.07199
2790.89446,0.07240
2788.96571,0.07278
2787.03697,0.07291
2785.10822,0.07278
2783.17948,0.07253
2781.25073,0.07244
2779.32199,0.07273
2777.39324,0.07325
2775.46450,0.07374
2773.53575,0.07418
2771.60701,0.07467
2769.67826,0.07511
2767.74952,0.07534
2765.82077,0.07550
2763.89203,0.07580
2761.96328,0.07609
2760.03453,0.07619
2758.10579,0.07625
2756.17704,0.07627
2754.24830,0.07629
2752.31955,0.07649
2750.39081,0.07672
2748.46206,0.07682
2746.53332,0.07676
2744.60457,0.07662
2742.67583,0.07667
2740.74708,0.07680
2738.81834,0.07653
2736.88959,0.07594
2734.96085,0.07553
2733.03210,0.07551
2731.10336,0.07559
2729.17461,0.07546
2727.24586,0.07517
2725.31712,0.07501
2723.38837,0.07502
2721.45963,0.07496
2719.53088,0.07485
2717.60214,0.07491
2715.67339,0.07501
2713.74465,0.07513
2711.81590,0.07541
2709.88716,0.07554
2707.95841,0.07534
2706.02967,0.07508
2704.10092,0.07501
2702.17218,0.07518
2700.24343,0.07550
2698.31468,0.07562
2696.38594,0.07534
2694.45719,0.07489
2692.52845,0.07457
2690.59970,0.07449
2688.67096,0.07456
2686.74221,0.07461
2684.81347,0.07455
2682.88472,0.07433
2680.95598,0.07419
2679.02723,0.07444
2677.09849,0.07483
2675.16974,0.07491
2673.24100,0.07492
2671.31225,0.07509
2669.38351,0.07511
2667.45476,0.07490
2665.52601,0.07484
2663.59727,0.07493
2661.66852,0.07485
2659.73978,0.07464
2657.81103,0.07448
2655.88229,0.07442
2653.95354,0.07450
2652.02480,0.07459
2650.09605,0.07450
2648.16731,0.07434
2646.23856,0.07430
2644.30982,0.07432
2642.38107,0.07429
2640.45233,0.07416
2638.52358,0.07398
2636.59484,0.07373
2634.66609,0.07331
2632.73734,0.07290
2630.80860,0.07274
2628.87985,0.07298
2626.95111,0.07363
2625.02236,0.07431
2623.09362,0.07476
2621.16487,0.07505
2619.23613,0.07523
2617.30738,0.07519
2615.37864,0.07503
2613.44989,0.07494
2611.52115,0.07484
2609.59240,0.07451
2607.66366,0.07398
2605.73491,0.07354
2603.80616,0.07330
2601.87742,0.07320
2599.94867,0.07326
2598.01993,0.07362
2596.09118,0.07422
2594.16244,0.07472
2592.23369,0.07510
2590.30495,0.07541
2588.37620,0.07545
2586.44746,0.07512
2584.51871,0.07455
2582.58997,0.07413
2580.66122,0.07412
2578.73248,0.07446
2576.80373,0.07504
2574.87499,0.07565
2572.94624,0.07614
2571.01749,0.07642
2569.08875,0.07647
2567.16000,0.07637
2565.23126,0.07626
2563.30251,0.07623
2561.37377,0.07630
2559.44502,0.07642
2557.51628,0.07648
2555.58753,0.07634
2553.65879,0.07602
2551.73004,0.07578
2549.80130,0.07569
2547.87255,0.07566
2545.94381,0.07580
2544.01506,0.07610
2542.08631,0.07634
2540.15757,0.07641
2538.22882,0.07631
2536.30008,0.07622
2534.37133,0.07630
2532.44259,0.07649
2530.51384,0.07667
2528.58510,0.07664
2526.65635,0.07624
2524.72761,0.07580
2522.79886,0.07574
2520.87012,0.07581
2518.94137,0.07565
2517.01263,0.07543
2515.08388,0.07536
2513.15514,0.07534
2511.22639,0.07525
2509.29764,0.07514
2507.36890,0.07510
2505.44015,0.07520
2503.51141,0.07541
2501.58266,0.07572
2499.65392,0.07611
2497.72517,0.07637
2495.79643,0.07645
2493.86768,0.07653
2491.93894,0.07668
2490.01019,0.07693
2488.08145,0.07727
2486.15270,0.07748
2484.22396,0.07753
2482.29521,0.07766
2480.36647,0.07791
2478.43772,0.07830
2476.50897,0.07884
2474.58023,0.07931
2472.65148,0.07962
2470.72274,0.07995
2468.79399,0.08042
2466.86525,0.08085
2464.93650,0.08111
2463.00776,0.08123
2461.07901,0.08136
2459.15027,0.08153
2457.22152,0.08154
2455.29278,0.08134
2453.36403,0.08109
2451.43529,0.08088
2449.50654,0.08095
2447.57779,0.08129
2445.64905,0.08154
2443.72030,0.08160
2441.79156,0.08157
2439.86281,0.08158
2437.93407,0.08173
2436.00532,0.08185
2434.07658,0.08178
2432.14783,0.08179
2430.21909,0.08198
2428.29034,0.08220
2426.36160,0.08241
2424.43285,0.08263
2422.50411,0.08274
2420.57536,0.08281
2418.64662,0.08288
2416.71787,0.08273
2414.78912,0.08236
2412.86038,0.08205
2410.93163,0.08198
2409.00289,0.08195
2407.07414,0.08166
2405.14540,0.08112
2403.21665,0.08059
2401.28791,0.08025
2399.35916,0.08010
2397.43042,0.08012
2395.50167,0.08025
2393.57293,0.08025
2391.64418,0.08008
2389.71544,0.07991
2387.78669,0.07985
2385.85795,0.07972
2383.92920,0.07941
2382.00045,0.07912
2380.07171,0.07894
2378.14296,0.07881
2376.21422,0.07877
2374.28547,0.07868
2372.35673,0.07844
2370.42798,0.07810
2368.49924,0.07765
2366.57049,0.07712
2364.64175,0.07667
2362.71300,0.07642
2360.78426,0.07627
2358.85551,0.07611
2356.92677,0.07606
2354.99802,0.07618
2353.06927,0.07630
2351.14053,0.07625
2349.21178,0.07584
2347.28304,0.07515
2345.35429,0.07440
2343.42555,0.07363
2341.49680,0.07278
2339.56806,0.07196
2337.63931,0.07138
2335.71057,0.07124
2333.78182,0.07174
2331.85308,0.07280
2329.92433,0.07402
2327.99559,0.07517
2326.06684,0.07626
2324.13810,0.07706
2322.20935,0.07722
2320.28060,0.07668
2318.35186,0.07575
2316.42311,0.07474
2314.49437,0.07380
2312.56562,0.07320
2310.63688,0.07317
2308.70813,0.07365
2306.77939,0.07457
2304.85064,0.07574
2302.92190,0.07670
2300.99315,0.07732
2299.06441,0.07775
2297.13566,0.07781
2295.20692,0.07758
2293.27817,0.07750
2291.34943,0.07780
2289.42068,0.07836
2287.49193,0.07890
2285.56319,0.07929
2283.63444,0.07964
2281.70570,0.07997
2279.77695,0.08027
2277.84821,0.08056
2275.91946,0.08070
2273.99072,0.08044
2272.06197,0.07999
2270.13323,0.07966
2268.20448,0.07938
2266.27574,0.07897
2264.34699,0.07854
2262.41825,0.07829
2260.48950,0.07812
2258.56075,0.07776
2256.63201,0.07731
2254.70326,0.07716
2252.77452,0.07741
2250.84577,0.07770
2248.91703,0.07797
2246.98828,0.07838
2245.05954,0.07886
2243.13079,0.07935
2241.20205,0.07982
2239.27330,0.08017
2237.34456,0.08045
2235.41581,0.08074
2233.48707,0.08093
2231.55832,0.08099
2229.62958,0.08110
2227.70083,0.08129
2225.77208,0.08147
2223.84334,0.08166
2221.91459,0.08182
2219.98585,0.08190
2218.05710,0.08196
2216.12836,0.08193
2214.19961,0.08169
2212.27087,0.08139
2210.34212,0.08143
2208.41338,0.08177
2206.48463,0.08207
2204.55589,0.08223
2202.62714,0.08231
2200.69840,0.08234
2198.76965,0.08245
2196.84090,0.08263
2194.91216,0.08260
2192.98341,0.08223
2191.05467,0.08173
2189.12592,0.08138
2187.19718,0.08126
2185.26843,0.08113
2183.33969,0.08103
2181.41094,0.08128
2179.48220,0.08182
2177.55345,0.08231
2175.62471,0.08276
2173.69596,0.08334
2171.76722,0.08386
2169.83847,0.08417
2167.90973,0.08427
2165.98098,0.08428
2164.05223,0.08440
2162.12349,0.08455
2160.19474,0.08459
2158.26600,0.08459
2156.33725,0.08473
2154.40851,0.08494
2152.47976,0.08499
2150.55102,0.08496
2148.62227,0.08500
2146.69353,0.08495
2144.76478,0.08495
2142.83604,0.08523
2140.90729,0.08562
2138.97855,0.08584
2137.04980,0.08599
2135.12106,0.08624
2133.19231,0.08664
2131.26356,0.08700
2129.33482,0.08717
2127.40607,0.08722
2125.47733,0.08729
2123.54858,0.08730
2121.61984,0.08711
2119.69109,0.08680
2117.76235,0.08664
2115.83360,0.08674
2113.90486,0.08686
2111.97611,0.08688
2110.04737,0.08697
2108.11862,0.08715
2106.18988,0.08740
2104.26113,0.08770
2102.33238,0.08796
2100.40364,0.08820
2098.47489,0.08846
2096.54615,0.08868
2094.61740,0.08873
2092.68866,0.08871
2090.75991,0.08880
2088.83117,0.08893
2086.90242,0.08892
2084.97368,0.08876
2083.04493,0.08854
2081.11619,0.08832
2079.18744,0.08809
2077.25870,0.08780
2075.32995,0.08743
2073.40121,0.08705
2071.47246,0.08675
2069.54371,0.08651
2067.61497,0.08633
2065.68622,0.08620
2063.75748,0.08606
2061.82873,0.08593
2059.89999,0.08583
2057.97124,0.08577
2056.04250,0.08577
2054.11375,0.08583
2052.18501,0.08598
2050.25626,0.08611
2048.32752,0.08608
2046.39877,0.08584
2044.47003,0.08546
2042.54128,0.08505
2040.61254,0.08456
2038.68379,0.08402
2036.75504,0.08360
2034.82630,0.08322
2032.89755,0.08277
2030.96881,0.08250
2029.04006,0.08246
2027.11132,0.08250
2025.18257,0.08245
2023.25383,0.08216
2021.32508,0.08179
2019.39634,0.08162
2017.46759,0.08147
2015.53885,0.08097
2013.61010,0.08024
2011.68136,0.07962
2009.75261,0.07915
2007.82386,0.07868
2005.89512,0.07829
2003.96637,0.07796
2002.03763,0.07757
2000.10888,0.07707
1998.18014,0.07641
1996.25139,0.07558
1994.32265,0.07457
1992.39390,0.07337
1990.46516,0.07218
1988.53641,0.07128
1986.60767,0.07079
1984.67892,0.07054
1982.75018,0.07034
1980.82143,0.07025
1978.89269,0.07036
1976.96394,0.07037
1975.03519,0.06997
1973.10645,0.06924
1971.17770,0.06850
1969.24896,0.06789
1967.32021,0.06732
1965.39147,0.06682
1963.46272,0.06652
1961.53398,0.06637
1959.60523,0.06628
1957.67649,0.06618
1955.74774,0.06599
1953.81900,0.06582
1951.89025,0.06582
1949.96151,0.06596
1948.03276,0.06604
1946.10402,0.06597
1944.17527,0.06589
1942.24652,0.06593
1940.31778,0.06602
1938.38903,0.06612
1936.46029,0.06631
1934.53154,0.06652
1932.60280,0.06672
1930.67405,0.06696
1928.74531,0.06718
1926.81656,0.06741
1924.88782,0.06775
1922.95907,0.06814
1921.03033,0.06856
1919.10158,0.06906
1917.17284,0.06947
1915.24409,0.06967
1913.31534,0.06992
1911.38660,0.07016
1909.45785,0.07015
1907.52911,0.07000
1905.60036,0.06978
1903.67162,0.06942
1901.74287,0.06891
1899.81413,0.06836
1897.88538,0.06787
1895.95664,0.06739
1894.02789,0.06691
1892.09915,0.06653
1890.17040,0.06629
1888.24166,0.06616
1886.31291,0.06607
1884.38417,0.06602
1882.45542,0.06604
1880.52667,0.06606
1878.59793,0.06600
1876.66918,0.06592
1874.74044,0.06588
1872.81169,0.06585
1870.88295,0.06578
1868.95420,0.06573
1867.02546,0.06579
1865.09671,0.06597
1863.16797,0.06620
1861.23922,0.06644
1859.31048,0.06679
1857.38173,0.06720
1855.45299,0.06765
1853.52424,0.06810
1851.59549,0.06844
1849.66675,0.06877
1847.73800,0.06924
1845.80926,0.06971
1843.88051,0.06989
1841.95177,0.06975
1840.02302,0.06951
1838.09428,0.06927
1836.16553,0.06899
1834.23679,0.06862
1832.30804,0.06820
1830.37930,0.06777
1828.45055,0.06725
1826.52181,0.06671
1824.59306,0.06629
1822.66432,0.06599
1820.73557,0.06576
1818.80682,0.06565
1816.87808,0.06567
1814.94933,0.06573
1813.02059,0.06574
1811.09184,0.06567
1809.16310,0.06555
1807.23435,0.06543
1805.30561,0.06535
1803.37686,0.06531
1801.44812,0.06540
1799.51937,0.06564
1797.59063,0.06587
1795.66188,0.06602
1793.73314,0.06620
1791.80439,0.06648
1789.87565,0.06680
1787.94690,0.06713
1786.01815,0.06738
1784.08941,0.06743
1782.16066,0.06728
1780.23192,0.06710
1778.30317,0.06698
1776.37443,0.06690
1774.44568,0.06682
1772.51694,0.06684
1770.58819,0.06696
1768.65945,0.06709
1766.73070,0.06717
1764.80196,0.06704
1762.87321,0.06654
1760.94447,0.06596
1759.01572,0.06569
1757.08697,0.06558
1755.15823,0.06550
1753.22948,0.06550
1751.30074,0.06548
1749.37199,0.06536
1747.44325,0.06524
1745.51450,0.06509
1743.58576,0.06505
1741.65701,0.06526
1739.72827,0.06552
1737.79952,0.06552
1735.87078,0.06533
1733.94203,0.06529
1732.01329,0.06565
1730.08454,0.06602
1728.15580,0.06602
1726.22705,0.06598
1724.29830,0.06616
1722.36956,0.06636
1720.44081,0.06664
1718.51207,0.06699
1716.58332,0.06706
1714.65458,0.06699
1712.72583,0.06701
1710.79709,0.06696
1708.86834,0.06685
1706.93960,0.06679
1705.01085,0.06666
1703.08211,0.06639
1701.15336,0.06609
1699.22462,0.06591
1697.29587,0.06586
1695.36713,0.06571
1693.43838,0.06553
1691.50963,0.06543
1689.58089,0.06542
1687.65214,0.06555
1685.72340,0.06560
1683.79465,0.06531
1681.86591,0.06504
1679.93716,0.06508
1678.00842,0.06521
1676.07967,0.06517
1674.15093,0.06490
1672.22218,0.06471
1670.29344,0.06478
1668.36469,0.06482
1666.43595,0.06468
1664.50720,0.06471
1662.57845,0.06507
1660.64971,0.06541
1658.72096,0.06556
1656.79222,0.06576
1654.86347,0.06599
1652.93473,0.06601
1651.00598,0.06599
1649.07724,0.06604
1647.14849,0.06597
1645.21975,0.06576
1643.29100,0.06556
1641.36226,0.06542
1639.43351,0.06545
1637.50477,0.06563
1635.57602,0.06577
1633.64728,0.06575
1631.71853,0.06582
1629.78978,0.06596
1627.86104,0.06600
1625.93229,0.06591
1624.00355,0.06550
1622.07480,0.06483
1620.14606,0.06443
1618.21731,0.06438
1616.28857,0.06429
1614.35982,0.06403
1612.43108,0.06368
1610.50233,0.06319
1608.57359,0.06262
1606.64484,0.06234
1604.71610,0.06269
1602.78735,0.06359
1600.85861,0.06458
1598.92986,0.06538
1597.00111,0.06588
1595.07237,0.06599
1593.14362,0.06577
1591.21488,0.06548
1589.28613,0.06519
1587.35739,0.06485
1585.42864,0.06470
1583.49990,0.06493
1581.57115,0.06537
1579.64241,0.06573
1577.71366,0.06588
1575.78492,0.06581
1573.85617,0.06575
1571.92743,0.06586
1569.99868,0.06595
1568.06993,0.06572
1566.14119,0.06543
1564.21244,0.06550
1562.28370,0.06586
1560.35495,0.06609
1558.42621,0.06583
1556.49746,0.06536
1554.56872,0.06497
1552.63997,0.06462
1550.71123,0.06426
1548.78248,0.06396
1546.85374,0.06395
1544.92499,0.06422
1542.99625,0.06437
1541.06750,0.06424
1539.13876,0.06418
1537.21001,0.06433
1535.28126,0.06442
1533.35252,0.06428
1531.42377,0.06414
1529.49503,0.06420
1527.56628,0.06419
1525.63754,0.06392
1523.70879,0.06369
1521.78005,0.06358
1519.85130,0.06342
1517.92256,0.06331
1515.99381,0.06320
1514.06507,0.06305
1512.13632,0.06294
1510.20758,0.06292
1508.27883,0.06275
1506.35008,0.06211
1504.42134,0.06132
1502.49259,0.06073
1500.56385,0.06006
1498.63510,0.05918
1496.70636,0.05885
1494.77761,0.06043
1492.84887,0.06376
1490.92012,0.06699
1488.99138,0.06835
1487.06263,0.06802
1485.13389,0.06726
1483.20514,0.06655
1481.27640,0.06588
1479.34765,0.06537
1477.41891,0.06511
1475.49016,0.06496
1473.56141,0.06473
1471.63267,0.06430
1469.70392,0.06390
1467.77518,0.06366
1465.84643,0.06337
1463.91769,0.06280
1461.98894,0.06193
1460.06020,0.06091
1458.13145,0.05980
1456.20271,0.05942
1454.27396,0.06117
1452.34522,0.06445
1450.41647,0.06738
1448.48773,0.06883
1446.55898,0.06904
1444.63024,0.06878
1442.70149,0.06860
1440.77274,0.06857
1438.84400,0.06854
1436.91525,0.06830
1434.98651,0.06786
1433.05776,0.06754
1431.12902,0.06745
1429.20027,0.06736
1427.27153,0.06715
1425.34278,0.06693
1423.41404,0.06684
1421.48529,0.06684
1419.55655,0.06673
1417.62780,0.06635
1415.69906,0.06599
1413.77031,0.06588
1411.84156,0.06582
1409.91282,0.06566
1407.98407,0.06550
1406.05533,0.06541
1404.12658,0.06535
1402.19784,0.06529
1400.26909,0.06512
1398.34035,0.06480
1396.41160,0.06454
1394.48286,0.06449
1392.55411,0.06455
1390.62537,0.06447
1388.69662,0.06422
1386.76788,0.06396
1384.83913,0.06388
1382.91039,0.06402
1380.98164,0.06426
1379.05289,0.06432
1377.12415,0.06416
1375.19540,0.06406
1373.26666,0.06424
1371.33791,0.06454
1369.40917,0.06475
1367.48042,0.06478
1365.55168,0.06470
1363.62293,0.06460
1361.69419,0.06463
1359.76544,0.06472
1357.83670,0.06477
1355.90795,0.06483
1353.97921,0.06489
1352.05046,0.06488
1350.12172,0.06482
1348.19297,0.06478
1346.26422,0.06477
1344.33548,0.06483
1342.40673,0.06493
1340.47799,0.06489
1338.54924,0.06472
1336.62050,0.06454
1334.69175,0.06443
1332.76301,0.06442
1330.83426,0.06448
1328.90552,0.06453
1326.97677,0.06456
1325.04803,0.06456
1323.11928,0.06458
1321.19054,0.06469
1319.26179,0.06491
1317.33304,0.06507
1315.40430,0.06505
1313.47555,0.06486
1311.54681,0.06462
1309.61806,0.06457
1307.68932,0.06467
1305.76057,0.06475
1303.83183,0.06492
1301.90308,0.06517
1299.97434,0.06520
1298.04559,0.06491
1296.11685,0.06456
1294.18810,0.06448
1292.25936,0.06463
1290.33061,0.06474
1288.40187,0.06484
1286.47312,0.06503
1284.54437,0.06502
1282.61563,0.06488
1280.68688,0.06501
1278.75814,0.06518
1276.82939,0.06507
1274.90065,0.06492
1272.97190,0.06502
1271.04316,0.06527
1269.11441,0.06536
1267.18567,0.06526
1265.25692,0.06522
1263.32818,0.06532
1261.39943,0.06534
1259.47069,0.06521
1257.54194,0.06512
1255.61320,0.06504
1253.68445,0.06489
1251.75570,0.06483
1249.82696,0.06488
1247.89821,0.06485
1245.96947,0.06471
1244.04072,0.06458
1242.11198,0.06445
1240.18323,0.06436
1238.25449,0.06441
1236.32574,0.06461
1234.39700,0.06477
1232.46825,0.06479
1230.53951,0.06470
1228.61076,0.06456
1226.68202,0.06440
1224.75327,0.06427
1222.82452,0.06422
1220.89578,0.06436
1218.96703,0.06460
1217.03829,0.06462
1215.10954,0.06435
1213.18080,0.06416
1211.25205,0.06420
1209.32331,0.06419
1207.39456,0.06389
1205.46582,0.06356
1203.53707,0.06337
1201.60833,0.06325
1199.67958,0.06322
1197.75084,0.06328
1195.82209,0.06339
1193.89335,0.06372
1191.96460,0.06408
1190.03585,0.06408
1188.10711,0.06391
1186.17836,0.06400
1184.24962,0.06414
1182.32087,0.06420
1180.39213,0.06425
1178.46338,0.06424
1176.53464,0.06424
1174.60589,0.06431
1172.67715,0.06435
1170.74840,0.06427
1168.81966,0.06418
1166.89091,0.06443
1164.96217,0.06499
1163.03342,0.06522
1161.10467,0.06476
1159.17593,0.06411
1157.24718,0.06386
1155.31844,0.06412
1153.38969,0.06456
1151.46095,0.06479
1149.53220,0.06485
1147.60346,0.06503
1145.67471,0.06537
1143.74597,0.06571
1141.81722,0.06587
1139.88848,0.06566
1137.95973,0.06513
1136.03099,0.06486
1134.10224,0.06507
1132.17350,0.06536
1130.24475,0.06544
1128.31600,0.06532
1126.38726,0.06503
1124.45851,0.06474
1122.52977,0.06455
1120.60102,0.06438
1118.67228,0.06424
1116.74353,0.06407
1114.81479,0.06371
1112.88604,0.06344
1110.95730,0.06357
1109.02855,0.06374
1107.09981,0.06356
1105.17106,0.06333
1103.24232,0.06313
1101.31357,0.06279
1099.38483,0.06271
1097.45608,0.06299
1095.52733,0.06320
1093.59859,0.06310
1091.66984,0.06276
1089.74110,0.06253
1087.81235,0.06244
1085.88361,0.06233
1083.95486,0.06227
1082.02612,0.06223
1080.09737,0.06215
1078.16863,0.06215
1076.23988,0.06229
1074.31114,0.06241
1072.38239,0.06241
1070.45365,0.06228
1068.52490,0.06225
1066.59615,0.06245
1064.66741,0.06282
1062.73866,0.06331
1060.80992,0.06370
1058.88117,0.06373
1056.95243,0.06356
1055.02368,0.06336
1053.09494,0.06316
1051.16619,0.06311
1049.23745,0.06318
1047.30870,0.06311
1045.37996,0.06297
1043.45121,0.06291
1041.52247,0.06272
1039.59372,0.06238
1037.66498,0.06209
1035.73623,0.06175
1033.80748,0.06154
1031.87874,0.06190
1029.94999,0.06278
1028.02125,0.06360
1026.09250,0.06398
1024.16376,0.06421
1022.23501,0.06467
1020.30627,0.06525
1018.37752,0.06562
1016.44878,0.06557
1014.52003,0.06527
1012.59129,0.06506
1010.66254,0.06496
1008.73380,0.06487
1006.80505,0.06484
1004.87631,0.06490
1002.94756,0.06487
1001.01881,0.06465
999.09007,0.06444
997.16132,0.06432
995.23258,0.06410
993.30383,0.06384
991.37509,0.06355
989.44634,0.06325
987.51760,0.06315
985.58885,0.06325
983.66011,0.06335
981.73136,0.06343
979.80262,0.06345
977.87387,0.06332
975.94513,0.06312
974.01638,0.06303
972.08763,0.06317
970.15889,0.06346
968.23014,0.06364
966.30140,0.06350
964.37265,0.06328
962.44391,0.06327
960.51516,0.06332
958.58642,0.06323
956.65767,0.06317
954.72893,0.06322
952.80018,0.06324
950.87144,0.06318
948.94269,0.06309
947.01395,0.06292
945.08520,0.06290
943.15646,0.06310
941.22771,0.06314
939.29896,0.06296
937.37022,0.06294
935.44147,0.06293
933.51273,0.06266
931.58398,0.06243
929.65524,0.06242
927.72649,0.06248
925.79775,0.06251
923.86900,0.06229
921.94026,0.06192
920.01151,0.06188
918.08277,0.06200
916.15402,0.06174
914.22528,0.06120
912.29653,0.06096
910.36779,0.06133
908.43904,0.06206
906.51029,0.06270
904.58155,0.06301
902.65280,0.06304
900.72406,0.06306
898.79531,0.06314
896.86657,0.06310
894.93782,0.06280
893.00908,0.06237
891.08033,0.06209
889.15159,0.06207
887.22284,0.06193
885.29410,0.06136
883.36535,0.06090
881.43661,0.06099
879.50786,0.06136
877.57911,0.06189
875.65037,0.06231
873.72162,0.06216
871.79288,0.06184
869.86413,0.06179
867.93539,0.06152
866.00664,0.06090
864.07790,0.06058
862.14915,0.06075
860.22041,0.06121
858.29166,0.06168
856.36292,0.06166
854.43417,0.06107
852.50543,0.06056
850.57668,0.06052
848.64794,0.06070
846.71919,0.06078
844.79044,0.06057
842.86170,0.06021
840.93295,0.06000
839.00421,0.05989
837.07546,0.06000
835.14672,0.06055
833.21797,0.06089
831.28923,0.06062
829.36048,0.06028
827.43174,0.06016
825.50299,0.06005
823.57425,0.05998
821.64550,0.06024
819.71676,0.06054
817.78801,0.06023
815.85926,0.05947
813.93052,0.05894
812.00177,0.05877
810.07303,0.05876
808.14428,0.05877
806.21554,0.05853
804.28679,0.05799
802.35805,0.05753
800.42930,0.05755
798.50056,0.05789
796.57181,0.05795
794.64307,0.05747
792.71432,0.05678
790.78558,0.05617
788.85683,0.05573
786.92809,0.05524
784.99934,0.05453
783.07059,0.05389
781.14185,0.05347
779.21310,0.05297
777.28436,0.05230
775.35561,0.05191
773.42687,0.05185
771.49812,0.05174
769.56938,0.05191
767.64063,0.05253
765.71189,0.05324
763.78314,0.05402
761.85440,0.05511
759.92565,0.05668
757.99691,0.05849
756.06816,0.06004
754.13942,0.06138
752.21067,0.06250
750.28192,0.06339
748.35318,0.06451
746.42443,0.06587
744.49569,0.06680
742.56694,0.06671
740.63820,0.06597
738.70945,0.06517
736.78071,0.06423
734.85196,0.06289
732.92322,0.06133
730.99447,0.05987
729.06573,0.05887
727.13698,0.05826
725.20824,0.05748
723.27949,0.05633
721.35074,0.05465
719.42200,0.05243
717.49325,0.05056
715.56451,0.04921
713.63576,0.04733
711.70702,0.04452
709.77827,0.04142
707.84953,0.03894
705.92078,0.03937
703.99204,0.04675
702.06329,0.06370
700.13455,0.08799
698.20580,0.11174
696.27706,0.12465
694.34831,0.12235
692.41957,0.11103
690.49082,0.09968
688.56207,0.09172
686.63333,0.08667
684.70458,0.08336
682.77584,0.08065
680.84709,0.07835
678.91835,0.07675
676.98960,0.07559
675.06086,0.07450
673.13211,0.07354
671.20337,0.07305
669.27462,0.07302
667.34588,0.07284
665.41713,0.07196
663.48839,0.07079
661.55964,0.07001
659.63090,0.06982
657.70215,0.06997
655.77340,0.07036
653.84466,0.07090
651.91591,0.07106
649.98717,0.07073
648.05842,0.07049
646.12968,0.07045
644.20093,0.07032
642.27219,0.07018
640.34344,0.07001
638.41470,0.06935
636.48595,0.06856
634.55721,0.06827
632.62846,0.06794
630.69972,0.06726
628.77097,0.06688
626.84222,0.06705
624.91348,0.06756
622.98473,0.06783
621.05599,0.06712
619.12724,0.06557
617.19850,0.06426
615.26975,0.06377
613.34101,0.06410
611.41226,0.06514
609.48352,0.06651
607.55477,0.06789
605.62603,0.06864
603.69728,0.06844
601.76854,0.06830
599.83979,0.06790
