7497.03301,0.83392
7495.10426,0.83156
7493.17552,0.82955
7491.24677,0.83184
7489.31803,0.83220
7487.38928,0.82765
7485.46054,0.82522
7483.53179,0.82627
7481.60305,0.82622
7479.67430,0.82422
7477.74556,0.82294
7475.81681,0.82535
7473.88807,0.82811
7471.95932,0.82475
7470.03057,0.81837
7468.10183,0.81574
7466.17308,0.81843
7464.24434,0.82353
7462.31559,0.82464
7460.38685,0.81982
7458.45810,0.81531
7456.52936,0.81441
7454.60061,0.81229
7452.67187,0.80863
7450.74312,0.80829
7448.81438,0.80718
7446.88563,0.80043
7444.95689,0.79470
7443.02814,0.79733
7441.09940,0.80343
7439.17065,0.80289
7437.24190,0.79836
7435.31316,0.79918
7433.38441,0.80368
7431.45567,0.80601
7429.52692,0.80766
7427.59818,0.81180
7425.66943,0.81523
7423.74069,0.81243
7421.81194,0.80516
7419.88320,0.80003
7417.95445,0.80085
7416.02571,0.80607
7414.09696,0.81003
7412.16822,0.81089
7410.23947,0.81153
7408.31073,0.81171
7406.38198,0.80814
7404.45323,0.80197
7402.52449,0.79893
7400.59574,0.79820
7398.66700,0.79585
7396.73825,0.79503
7394.80951,0.79799
7392.88076,0.80078
7390.95202,0.80256
7389.02327,0.80599
7387.09453,0.80908
7385.16578,0.81055
7383.23704,0.81016
7381.30829,0.80528
7379.37955,0.79990
7377.45080,0.79997
7375.52205,0.80456
7373.59331,0.80782
7371.66456,0.80688
7369.73582,0.80629
7367.80707,0.80584
7365.87833,0.80235
7363.94958,0.80124
7362.02084,0.80331
7360.09209,0.80225
7358.16335,0.80107
7356.23460,0.80518
7354.30586,0.80953
7352.37711,0.80817
7350.44837,0.80418
7348.51962,0.80345
7346.59088,0.80544
7344.66213,0.80587
7342.73338,0.80467
7340.80464,0.80344
7338.87589,0.80181
7336.94715,0.79969
7335.01840,0.79817
7333.08966,0.79743
7331.16091,0.79614
7329.23217,0.79198
7327.30342,0.78560
7325.37468,0.78244
7323.44593,0.78360
7321.51719,0.78351
7319.58844,0.78025
7317.65970,0.77855
7315.73095,0.77906
7313.80221,0.77797
7311.87346,0.77753
7309.94471,0.78070
7308.01597,0.78433
7306.08722,0.78468
7304.15848,0.78171
7302.22973,0.77802
7300.30099,0.77371
7298.37224,0.76833
7296.44350,0.76416
7294.51475,0.76248
7292.58601,0.76274
7290.65726,0.76187
7288.72852,0.75583
7286.79977,0.74880
7284.87103,0.74797
7282.94228,0.74974
7281.01353,0.74953
7279.08479,0.75137
7277.15604,0.75711
7275.22730,0.76075
7273.29855,0.75620
7271.36981,0.74898
7269.44106,0.74766
7267.51232,0.74822
7265.58357,0.74483
7263.65483,0.74117
7261.72608,0.74287
7259.79734,0.74847
7257.86859,0.75003
7255.93985,0.74508
7254.01110,0.73965
7252.08236,0.73802
7250.15361,0.73958
7248.22486,0.74138
7246.29612,0.73994
7244.36737,0.73469
7242.43863,0.72924
7240.50988,0.72613
7238.58114,0.72312
7236.65239,0.72002
7234.72365,0.72010
7232.79490,0.72166
7230.86616,0.72077
7228.93741,0.71906
7227.00867,0.71945
7225.07992,0.72030
7223.15118,0.71913
7221.22243,0.71753
7219.29369,0.71797
7217.36494,0.72046
7215.43619,0.72289
7213.50745,0.72197
7211.57870,0.71753
7209.64996,0.71334
7207.72121,0.71055
7205.79247,0.70929
7203.86372,0.71190
7201.93498,0.71256
7200.00623,0.70533
7198.07749,0.69941
7196.14874,0.70103
7194.22000,0.70494
7192.29125,0.70738
7190.36251,0.70572
7188.43376,0.69978
7186.50501,0.69532
7184.57627,0.69470
7182.64752,0.69472
7180.71878,0.69517
7178.79003,0.69663
7176.86129,0.69609
7174.93254,0.69367
7173.00380,0.69196
7171.07505,0.69181
7169.14631,0.69329
7167.21756,0.69503
7165.28882,0.69563
7163.36007,0.69546
7161.43133,0.69684
7159.50258,0.70010
7157.57384,0.70112
7155.64509,0.69821
7153.71634,0.69550
7151.78760,0.69785
7149.85885,0.70334
7147.93011,0.70587
7146.00136,0.70487
7144.07262,0.70359
7142.14387,0.70229
7140.21513,0.69921
7138.28638,0.69558
7136.35764,0.69421
7134.42889,0.69600
7132.50015,0.70045
7130.57140,0.70448
7128.64266,0.70478
7126.71391,0.70195
7124.78516,0.69907
7122.85642,0.69765
7120.92767,0.69732
7118.99893,0.69810
7117.07018,0.69848
7115.14144,0.69566
7113.21269,0.69055
7111.28395,0.68809
7109.35520,0.69030
7107.42646,0.69363
7105.49771,0.69508
7103.56897,0.69374
7101.64022,0.68981
7099.71148,0.68587
7097.78273,0.68409
7095.85399,0.68328
7093.92524,0.68065
7091.99649,0.67741
7090.06775,0.67650
7088.13900,0.67586
7086.21026,0.67348
7084.28151,0.67156
7082.35277,0.67129
7080.42402,0.67069
7078.49528,0.66904
7076.56653,0.66790
7074.63779,0.66770
7072.70904,0.66883
7070.78030,0.67150
7068.85155,0.67353
7066.92281,0.67437
7064.99406,0.67496
7063.06532,0.67433
7061.13657,0.67370
7059.20782,0.67555
7057.27908,0.67857
7055.35033,0.68086
7053.42159,0.68146
7051.49284,0.68092
7049.56410,0.68160
7047.63535,0.68229
7045.70661,0.68168
7043.77786,0.68197
7041.84912,0.68202
7039.92037,0.67991
7037.99163,0.67909
7036.06288,0.68211
7034.13414,0.68531
7032.20539,0.68597
7030.27664,0.68733
7028.34790,0.68952
7026.41915,0.68888
7024.49041,0.68824
7022.56166,0.69167
7020.63292,0.69499
7018.70417,0.69435
7016.77543,0.69215
7014.84668,0.68995
7012.91794,0.68923
7010.98919,0.69140
7009.06045,0.69310
7007.13170,0.69125
7005.20296,0.68747
7003.27421,0.68535
7001.34547,0.68633
6999.41672,0.68783
6997.48797,0.68677
6995.55923,0.68384
6993.63048,0.68241
6991.70174,0.68307
6989.77299,0.68281
6987.84425,0.68149
6985.91550,0.68314
6983.98676,0.68737
6982.05801,0.68913
6980.12927,0.68868
6978.20052,0.68892
6976.27178,0.69008
6974.34303,0.69209
6972.41429,0.69345
6970.48554,0.69309
6968.55680,0.69264
6966.62805,0.69300
6964.69930,0.69252
6962.77056,0.69042
6960.84181,0.69003
6958.91307,0.69333
6956.98432,0.69588
6955.05558,0.69414
6953.12683,0.69243
6951.19809,0.69467
6949.26934,0.69806
6947.34060,0.69991
6945.41185,0.69938
6943.48311,0.69643
6941.55436,0.69382
6939.62562,0.69376
6937.69687,0.69538
6935.76812,0.69560
6933.83938,0.69278
6931.91063,0.69038
6929.98189,0.69182
6928.05314,0.69551
6926.12440,0.69907
6924.19565,0.70271
6922.26691,0.70586
6920.33816,0.70606
6918.40942,0.70426
6916.48067,0.70492
6914.55193,0.70767
6912.62318,0.70896
6910.69444,0.70952
6908.76569,0.71039
6906.83695,0.71154
6904.90820,0.71425
6902.97945,0.71676
6901.05071,0.71653
6899.12196,0.71573
6897.19322,0.71650
6895.26447,0.71703
6893.33573,0.71529
6891.40698,0.71245
6889.47824,0.71110
6887.54949,0.71300
6885.62075,0.71693
6883.69200,0.71819
6881.76326,0.71650
6879.83451,0.71689
6877.90577,0.71992
6875.97702,0.72202
6874.04828,0.72129
6872.11953,0.71986
6870.19078,0.72013
6868.26204,0.72052
6866.33329,0.72054
6864.40455,0.72061
6862.47580,0.72047
6860.54706,0.72222
6858.61831,0.72509
6856.68957,0.72679
6854.76082,0.72814
6852.83208,0.72890
6850.90333,0.72906
6848.97459,0.72972
6847.04584,0.72956
6845.11710,0.72729
6843.18835,0.72423
6841.25960,0.72230
6839.33086,0.72304
6837.40211,0.72660
6835.47337,0.72971
6833.54462,0.73022
6831.61588,0.73056
6829.68713,0.73199
6827.75839,0.73291
6825.82964,0.73289
6823.90090,0.73285
6821.97215,0.73360
6820.04341,0.73388
6818.11466,0.73085
6816.18592,0.72665
6814.25717,0.72799
6812.32843,0.73413
6810.39968,0.73748
6808.47093,0.73624
6806.54219,0.73416
6804.61344,0.73205
6802.68470,0.72900
6800.75595,0.72698
6798.82721,0.72813
6796.89846,0.73104
6794.96972,0.73353
6793.04097,0.73613
6791.11223,0.73878
6789.18348,0.73885
6787.25474,0.73733
6785.32599,0.73639
6783.39725,0.73469
6781.46850,0.73383
6779.53975,0.73687
6777.61101,0.74104
6775.68226,0.74180
6773.75352,0.73984
6771.82477,0.73933
6769.89603,0.74037
6767.96728,0.73995
6766.03854,0.73843
6764.10979,0.73769
6762.18105,0.73716
6760.25230,0.73663
6758.32356,0.73674
6756.39481,0.73779
6754.46607,0.73985
6752.53732,0.74059
6750.60858,0.74012
6748.67983,0.74173
6746.75108,0.74366
6744.82234,0.74320
6742.89359,0.74152
6740.96485,0.74049
6739.03610,0.74113
6737.10736,0.74213
6735.17861,0.74227
6733.24987,0.74289
6731.32112,0.74533
6729.39238,0.74810
6727.46363,0.74760
6725.53489,0.74395
6723.60614,0.74230
6721.67740,0.74474
6719.74865,0.74692
6717.81991,0.74647
6715.89116,0.74720
6713.96241,0.75087
6712.03367,0.75445
6710.10492,0.75480
6708.17618,0.75197
6706.24743,0.74985
6704.31869,0.75048
6702.38994,0.75133
6700.46120,0.75114
6698.53245,0.75062
6696.60371,0.75003
6694.67496,0.74996
6692.74622,0.75057
6690.81747,0.75078
6688.88873,0.75063
6686.95998,0.75207
6685.03123,0.75521
6683.10249,0.75839
6681.17374,0.76052
6679.24500,0.76073
6677.31625,0.75935
6675.38751,0.75758
6673.45876,0.75637
6671.53002,0.75601
6669.60127,0.75624
6667.67253,0.75837
6665.74378,0.76192
6663.81504,0.76365
6661.88629,0.76388
6659.95755,0.76485
6658.02880,0.76621
6656.10006,0.76834
6654.17131,0.77255
6652.24256,0.77545
6650.31382,0.77333
6648.38507,0.77021
6646.45633,0.77020
6644.52758,0.77116
6642.59884,0.77088
6640.67009,0.76930
6638.74135,0.76744
6636.81260,0.76735
6634.88386,0.76934
6632.95511,0.77148
6631.02637,0.77163
6629.09762,0.77036
6627.16888,0.76957
6625.24013,0.76856
6623.31139,0.76684
6621.38264,0.76605
6619.45389,0.76720
6617.52515,0.76954
6615.59640,0.77105
6613.66766,0.77144
6611.73891,0.77189
6609.81017,0.77158
6607.88142,0.76970
6605.95268,0.76799
6604.02393,0.76860
6602.09519,0.77170
6600.16644,0.77512
6598.23770,0.77593
6596.30895,0.77458
6594.38021,0.77492
6592.45146,0.77757
6590.52271,0.77871
6588.59397,0.77706
6586.66522,0.77543
6584.73648,0.77506
6582.80773,0.77507
6580.87899,0.77518
6578.95024,0.77465
6577.02150,0.77280
6575.09275,0.77158
6573.16401,0.77386
6571.23526,0.77806
6569.30652,0.77956
6567.37777,0.77905
6565.44903,0.77949
6563.52028,0.77938
6561.59154,0.77870
6559.66279,0.77884
6557.73404,0.77802
6555.80530,0.77655
6553.87655,0.77673
6551.94781,0.77860
6550.01906,0.78155
6548.09032,0.78392
6546.16157,0.78384
6544.23283,0.78225
6542.30408,0.78056
6540.37534,0.78002
6538.44659,0.78189
6536.51785,0.78385
6534.58910,0.78333
6532.66036,0.78199
6530.73161,0.78186
6528.80287,0.78193
6526.87412,0.78170
6524.94537,0.78237
6523.01663,0.78342
6521.08788,0.78432
6519.15914,0.78595
6517.23039,0.78713
6515.30165,0.78710
6513.37290,0.78738
6511.44416,0.78795
6509.51541,0.78814
6507.58667,0.78943
6505.65792,0.79236
6503.72918,0.79500
6501.80043,0.79593
6499.87169,0.79570
6497.94294,0.79491
6496.01419,0.79330
6494.08545,0.79203
6492.15670,0.79303
6490.22796,0.79506
6488.29921,0.79584
6486.37047,0.79576
6484.44172,0.79578
6482.51298,0.79559
6480.58423,0.79481
6478.65549,0.79440
6476.72674,0.79559
6474.79800,0.79678
6472.86925,0.79606
6470.94051,0.79482
6469.01176,0.79450
6467.08302,0.79472
6465.15427,0.79593
6463.22552,0.79826
6461.29678,0.79912
6459.36803,0.79796
6457.43929,0.79831
6455.51054,0.80043
6453.58180,0.80112
6451.65305,0.80008
6449.72431,0.80012
6447.79556,0.80198
6445.86682,0.80274
6443.93807,0.80201
6442.00933,0.80192
6440.08058,0.80193
6438.15184,0.80135
6436.22309,0.80029
6434.29434,0.79910
6432.36560,0.79939
6430.43685,0.80055
6428.50811,0.80009
6426.57936,0.79918
6424.65062,0.80016
6422.72187,0.80142
6420.79313,0.80133
6418.86438,0.80081
6416.93564,0.80103
6415.00689,0.80288
6413.07815,0.80485
6411.14940,0.80478
6409.22066,0.80324
6407.29191,0.80158
6405.36317,0.80098
6403.43442,0.80155
6401.50567,0.80174
6399.57693,0.80062
6397.64818,0.79839
6395.71944,0.79688
6393.79069,0.79729
6391.86195,0.79731
6389.93320,0.79527
6388.00446,0.79266
6386.07571,0.79110
6384.14697,0.79156
6382.21822,0.79317
6380.28948,0.79334
6378.36073,0.79244
6376.43199,0.79147
6374.50324,0.78889
6372.57450,0.78621
6370.64575,0.78623
6368.71700,0.78792
6366.78826,0.78949
6364.85951,0.78995
6362.93077,0.78913
6361.00202,0.78801
6359.07328,0.78737
6357.14453,0.78675
6355.21579,0.78503
6353.28704,0.78331
6351.35830,0.78354
6349.42955,0.78438
6347.50081,0.78402
6345.57206,0.78289
6343.64332,0.78176
6341.71457,0.78130
6339.78582,0.78122
6337.85708,0.78081
6335.92833,0.78006
6333.99959,0.77878
6332.07084,0.77786
6330.14210,0.77817
6328.21335,0.77863
6326.28461,0.77955
6324.35586,0.78197
6322.42712,0.78355
6320.49837,0.78148
6318.56963,0.77754
6316.64088,0.77551
6314.71214,0.77582
6312.78339,0.77613
6310.85465,0.77513
6308.92590,0.77338
6306.99715,0.77172
6305.06841,0.77064
6303.13966,0.76994
6301.21092,0.76833
6299.28217,0.76597
6297.35343,0.76449
6295.42468,0.76373
6293.49594,0.76321
6291.56719,0.76312
6289.63845,0.76301
6287.70970,0.76324
6285.78096,0.76392
6283.85221,0.76388
6281.92347,0.76327
6279.99472,0.76294
6278.06598,0.76211
6276.13723,0.76061
6274.20848,0.76092
6272.27974,0.76298
6270.35099,0.76323
6268.42225,0.76181
6266.49350,0.76120
6264.56476,0.76020
6262.63601,0.75786
6260.70727,0.75623
6258.77852,0.75535
6256.84978,0.75289
6254.92103,0.74829
6252.99229,0.74323
6251.06354,0.73944
6249.13480,0.73771
6247.20605,0.73799
6245.27730,0.73880
6243.34856,0.73816
6241.41981,0.73624
6239.49107,0.73412
6237.56232,0.73229
6235.63358,0.73137
6233.70483,0.73090
6231.77609,0.72954
6229.84734,0.72769
6227.91860,0.72583
6225.98985,0.72336
6224.06111,0.72110
6222.13236,0.71967
6220.20362,0.71795
6218.27487,0.71551
6216.34613,0.71353
6214.41738,0.71240
6212.48863,0.71071
6210.55989,0.70819
6208.63114,0.70565
6206.70240,0.70247
6204.77365,0.69898
6202.84491,0.69692
6200.91616,0.69523
6198.98742,0.69133
6197.05867,0.68631
6195.12993,0.68278
6193.20118,0.68029
6191.27244,0.67758
6189.34369,0.67464
6187.41495,0.67092
6185.48620,0.66605
6183.55746,0.66133
6181.62871,0.65697
6179.69996,0.65219
6177.77122,0.64771
6175.84247,0.64372
6173.91373,0.63895
6171.98498,0.63259
6170.05624,0.62456
6168.12749,0.61617
6166.19875,0.60902
6164.27000,0.60227
6162.34126,0.59477
6160.41251,0.58698
6158.48377,0.57917
6156.55502,0.57103
6154.62628,0.56243
6152.69753,0.55405
6150.76878,0.54643
6148.84004,0.53908
6146.91129,0.53161
6144.98255,0.52372
6143.05380,0.51611
6141.12506,0.51003
6139.19631,0.50538
6137.26757,0.50211
6135.33882,0.50042
6133.41008,0.49861
6131.48133,0.49418
6129.55259,0.48780
6127.62384,0.48223
6125.69510,0.47763
6123.76635,0.47248
6121.83761,0.46585
6119.90886,0.45764
6117.98011,0.44993
6116.05137,0.44502
6114.12262,0.44195
6112.19388,0.43863
6110.26513,0.43546
6108.33639,0.43406
6106.40764,0.43455
6104.47890,0.43613
6102.55015,0.43833
6100.62141,0.44106
6098.69266,0.44434
6096.76392,0.44772
6094.83517,0.44954
6092.90643,0.44820
6090.97768,0.44460
6089.04893,0.44117
6087.12019,0.43881
6085.19144,0.43697
6083.26270,0.43479
6081.33395,0.43175
6079.40521,0.42921
6077.47646,0.42850
6075.54772,0.42854
6073.61897,0.42837
6071.69023,0.42949
6069.76148,0.43341
6067.83274,0.43967
6065.90399,0.44666
6063.97525,0.45351
6062.04650,0.46102
6060.11776,0.46854
6058.18901,0.47361
6056.26026,0.47676
6054.33152,0.47980
6052.40277,0.48135
6050.47403,0.48000
6048.54528,0.47719
6046.61654,0.47434
6044.68779,0.47089
6042.75905,0.46576
6040.83030,0.45850
6038.90156,0.45012
6036.97281,0.44241
6035.04407,0.43509
6033.11532,0.42608
6031.18658,0.41544
6029.25783,0.40551
6027.32909,0.39664
6025.40034,0.38725
6023.47159,0.37724
6021.54285,0.36725
6019.61410,0.35709
6017.68536,0.34697
6015.75661,0.33670
6013.82787,0.32596
6011.89912,0.31566
6009.97038,0.30636
6008.04163,0.29790
6006.11289,0.29021
6004.18414,0.28352
6002.25540,0.27851
6000.32665,0.27414
5998.39791,0.26821
5996.46916,0.26142
5994.54041,0.25563
5992.61167,0.25038
5990.68292,0.24520
5988.75418,0.24053
5986.82543,0.23583
5984.89669,0.23082
5982.96794,0.22601
5981.03920,0.22120
5979.11045,0.21565
5977.18171,0.20951
5975.25296,0.20448
5973.32422,0.20182
5971.39547,0.20091
5969.46673,0.20054
5967.53798,0.20000
5965.60924,0.19890
5963.68049,0.19718
5961.75174,0.19567
5959.82300,0.19477
5957.89425,0.19417
5955.96551,0.19385
5954.03676,0.19349
5952.10802,0.19282
5950.17927,0.19218
5948.25053,0.19215
5946.32178,0.19230
5944.39304,0.19197
5942.46429,0.19215
5940.53555,0.19336
5938.60680,0.19457
5936.67806,0.19537
5934.74931,0.19654
5932.82057,0.19875
5930.89182,0.20145
5928.96307,0.20409
5927.03433,0.20740
5925.10558,0.21121
5923.17684,0.21308
5921.24809,0.21174
5919.31935,0.20949
5917.39060,0.20917
5915.46186,0.21101
5913.53311,0.21391
5911.60437,0.21655
5909.67562,0.21723
5907.74688,0.21653
5905.81813,0.21715
5903.88939,0.21954
5901.96064,0.22187
5900.03189,0.22363
5898.10315,0.22584
5896.17440,0.22877
5894.24566,0.23159
5892.31691,0.23389
5890.38817,0.23630
5888.45942,0.23970
5886.53068,0.24446
5884.60193,0.25007
5882.67319,0.25578
5880.74444,0.26148
5878.81570,0.26724
5876.88695,0.27245
5874.95821,0.27634
5873.02946,0.27932
5871.10072,0.28241
5869.17197,0.28589
5867.24322,0.28917
5865.31448,0.29140
5863.38573,0.29252
5861.45699,0.29319
5859.52824,0.29413
5857.59950,0.29547
5855.67075,0.29667
5853.74201,0.29788
5851.81326,0.29908
5849.88452,0.29971
5847.95577,0.29979
5846.02703,0.29958
5844.09828,0.29965
5842.16954,0.30044
5840.24079,0.30081
5838.31205,0.29977
5836.38330,0.29881
5834.45455,0.29946
5832.52581,0.30075
5830.59706,0.30142
5828.66832,0.30200
5826.73957,0.30313
5824.81083,0.30472
5822.88208,0.30585
5820.95334,0.30537
5819.02459,0.30382
5817.09585,0.30242
5815.16710,0.30156
5813.23836,0.30189
5811.30961,0.30279
5809.38087,0.30288
5807.45212,0.30272
5805.52337,0.30266
5803.59463,0.30184
5801.66588,0.30039
5799.73714,0.29936
5797.80839,0.29939
5795.87965,0.30060
5793.95090,0.30271
5792.02216,0.30457
5790.09341,0.30555
5788.16467,0.30620
5786.23592,0.30716
5784.30718,0.30897
5782.37843,0.31177
5780.44969,0.31536
5778.52094,0.31971
5776.59220,0.32462
5774.66345,0.32935
5772.73470,0.33317
5770.80596,0.33680
5768.87721,0.34200
5766.94847,0.34867
5765.01972,0.35522
5763.09098,0.36109
5761.16223,0.36595
5759.23349,0.36986
5757.30474,0.37430
5755.37600,0.37974
5753.44725,0.38478
5751.51851,0.38849
5749.58976,0.39148
5747.66102,0.39516
5745.73227,0.39967
5743.80352,0.40342
5741.87478,0.40559
5739.94603,0.40673
5738.01729,0.40721
5736.08854,0.40683
5734.15980,0.40505
5732.23105,0.40189
5730.30231,0.39906
5728.37356,0.39768
5726.44482,0.39627
5724.51607,0.39345
5722.58733,0.38925
5720.65858,0.38392
5718.72984,0.37841
5716.80109,0.37400
5714.87235,0.37027
5712.94360,0.36599
5711.01485,0.36113
5709.08611,0.35642
5707.15736,0.35235
5705.22862,0.34935
5703.29987,0.34736
5701.37113,0.34571
5699.44238,0.34397
5697.51364,0.34218
5695.58489,0.34092
5693.65615,0.34071
5691.72740,0.34073
5689.79866,0.33970
5687.86991,0.33804
5685.94117,0.33715
5684.01242,0.33655
5682.08368,0.33440
5680.15493,0.33083
5678.22618,0.32817
5676.29744,0.32677
5674.36869,0.32534
5672.43995,0.32409
5670.51120,0.32343
5668.58246,0.32281
5666.65371,0.32221
5664.72497,0.32250
5662.79622,0.32387
5660.86748,0.32567
5658.93873,0.32819
5657.00999,0.33135
5655.08124,0.33395
5653.15250,0.33667
5651.22375,0.34070
5649.29500,0.34517
5647.36626,0.34911
5645.43751,0.35208
5643.50877,0.35413
5641.58002,0.35645
5639.65128,0.35959
5637.72253,0.36338
5635.79379,0.36779
5633.86504,0.37140
5631.93630,0.37316
5630.00755,0.37453
5628.07881,0.37682
5626.15006,0.37961
5624.22132,0.38255
5622.29257,0.38524
5620.36383,0.38639
5618.43508,0.38616
5616.50633,0.38576
5614.57759,0.38521
5612.64884,0.38491
5610.72010,0.38555
5608.79135,0.38655
5606.86261,0.38744
5604.93386,0.38813
5603.00512,0.38876
5601.07637,0.38979
5599.14763,0.39047
5597.21888,0.38909
5595.29014,0.38621
5593.36139,0.38375
5591.43265,0.38230
5589.50390,0.38168
5587.57516,0.38129
5585.64641,0.38048
5583.71766,0.37955
5581.78892,0.37954
5579.86017,0.38089
5577.93143,0.38325
5576.00268,0.38594
5574.07394,0.38820
5572.14519,0.38982
5570.21645,0.39115
5568.28770,0.39217
5566.35896,0.39302
5564.43021,0.39429
5562.50147,0.39541
5560.57272,0.39510
5558.64398,0.39379
5556.71523,0.39249
5554.78648,0.39164
5552.85774,0.39209
5550.92899,0.39341
5549.00025,0.39422
5547.07150,0.39466
5545.14276,0.39486
5543.21401,0.39440
5541.28527,0.39422
5539.35652,0.39467
5537.42778,0.39413
5535.49903,0.39252
5533.57029,0.39146
5531.64154,0.39134
5529.71280,0.39194
5527.78405,0.39264
5525.85531,0.39273
5523.92656,0.39296
5521.99781,0.39362
5520.06907,0.39398
5518.14032,0.39462
5516.21158,0.39587
5514.28283,0.39684
5512.35409,0.39746
5510.42534,0.39761
5508.49660,0.39719
5506.56785,0.39740
5504.63911,0.39893
5502.71036,0.40078
5500.78162,0.40190
5498.85287,0.40275
5496.92413,0.40401
5494.99538,0.40544
5493.06664,0.40716
5491.13789,0.40909
5489.20914,0.41093
5487.28040,0.41267
5485.35165,0.41380
5483.42291,0.41434
5481.49416,0.41530
5479.56542,0.41683
5477.63667,0.41783
5475.70793,0.41794
5473.77918,0.41815
5471.85044,0.41868
5469.92169,0.41915
5467.99295,0.41981
5466.06420,0.42053
5464.13546,0.42069
5462.20671,0.42047
5460.27796,0.42043
5458.34922,0.42055
5456.42047,0.42068
5454.49173,0.42091
5452.56298,0.42102
5450.63424,0.42058
5448.70549,0.41968
5446.77675,0.41882
5444.84800,0.41839
5442.91926,0.41808
5440.99051,0.41756
5439.06177,0.41735
5437.13302,0.41757
5435.20428,0.41772
5433.27553,0.41753
5431.34679,0.41736
5429.41804,0.41769
5427.48929,0.41769
5425.56055,0.41648
5423.63180,0.41523
5421.70306,0.41519
5419.77431,0.41552
5417.84557,0.41508
5415.91682,0.41418
5413.98808,0.41355
5412.05933,0.41334
5410.13059,0.41305
5408.20184,0.41243
5406.27310,0.41218
5404.34435,0.41287
5402.41561,0.41347
5400.48686,0.41264
5398.55811,0.41118
5396.62937,0.41058
5394.70062,0.41060
5392.77188,0.41059
5390.84313,0.41060
5388.91439,0.41051
5386.98564,0.41014
5385.05690,0.40957
5383.12815,0.40884
5381.19941,0.40831
5379.27066,0.40872
5377.34192,0.40991
5375.41317,0.41080
5373.48443,0.41063
5371.55568,0.40975
5369.62694,0.40917
5367.69819,0.40937
5365.76944,0.40976
5363.84070,0.40981
5361.91195,0.40993
5359.98321,0.41072
5358.05446,0.41194
5356.12572,0.41315
5354.19697,0.41461
5352.26823,0.41667
5350.33948,0.41896
5348.41074,0.42127
5346.48199,0.42343
5344.55325,0.42481
5342.62450,0.42562
5340.69576,0.42661
5338.76701,0.42757
5336.83827,0.42831
5334.90952,0.42936
5332.98077,0.43074
5331.05203,0.43211
5329.12328,0.43313
5327.19454,0.43381
5325.26579,0.43468
5323.33705,0.43566
5321.40830,0.43605
5319.47956,0.43631
5317.55081,0.43726
5315.62207,0.43854
5313.69332,0.43949
5311.76458,0.44015
5309.83583,0.44048
5307.90709,0.44020
5305.97834,0.43969
5304.04959,0.43953
5302.12085,0.43961
5300.19210,0.43937
5298.26336,0.43883
5296.33461,0.43891
5294.40587,0.44005
5292.47712,0.44133
5290.54838,0.44183
5288.61963,0.44149
5286.69089,0.44081
5284.76214,0.44056
5282.83340,0.44107
5280.90465,0.44187
5278.97591,0.44247
5277.04716,0.44258
5275.11842,0.44228
5273.18967,0.44210
5271.26092,0.44238
5269.33218,0.44295
5267.40343,0.44279
5265.47469,0.44179
5263.54594,0.44153
5261.61720,0.44234
5259.68845,0.44266
5257.75971,0.44203
5255.83096,0.44154
5253.90222,0.44154
5251.97347,0.44140
5250.04473,0.44097
5248.11598,0.44066
5246.18724,0.44060
5244.25849,0.44045
5242.32975,0.44012
5240.40100,0.43976
5238.47225,0.43978
5236.54351,0.44037
5234.61476,0.44060
5232.68602,0.44025
5230.75727,0.44027
5228.82853,0.44101
5226.89978,0.44224
5224.97104,0.44335
5223.04229,0.44381
5221.11355,0.44409
5219.18480,0.44473
5217.25606,0.44551
5215.32731,0.44641
5213.39857,0.44752
5211.46982,0.44831
5209.54107,0.44859
5207.61233,0.44889
5205.68358,0.44961
5203.75484,0.45085
5201.82609,0.45228
5199.89735,0.45317
5197.96860,0.45374
5196.03986,0.45456
5194.11111,0.45533
5192.18237,0.45519
5190.25362,0.45438
5188.32488,0.45444
5186.39613,0.45552
5184.46739,0.45605
5182.53864,0.45570
5180.60990,0.45569
5178.68115,0.45629
5176.75240,0.45632
5174.82366,0.45566
5172.89491,0.45557
5170.96617,0.45648
5169.03742,0.45773
5167.10868,0.45834
5165.17993,0.45806
5163.25119,0.45780
5161.32244,0.45817
5159.39370,0.45850
5157.46495,0.45822
5155.53621,0.45780
5153.60746,0.45794
5151.67872,0.45862
5149.74997,0.45929
5147.82123,0.45925
5145.89248,0.45799
5143.96373,0.45626
5142.03499,0.45538
5140.10624,0.45511
5138.17750,0.45436
5136.24875,0.45311
5134.32001,0.45208
5132.39126,0.45134
5130.46252,0.45088
5128.53377,0.45118
5126.60503,0.45188
5124.67628,0.45222
5122.74754,0.45206
5120.81879,0.45152
5118.89005,0.45082
5116.96130,0.45071
5115.03255,0.45193
5113.10381,0.45344
5111.17506,0.45383
5109.24632,0.45387
5107.31757,0.45457
5105.38883,0.45528
5103.46008,0.45551
5101.53134,0.45584
5099.60259,0.45656
5097.67385,0.45740
5095.74510,0.45799
5093.81636,0.45813
5091.88761,0.45819
5089.95887,0.45852
5088.03012,0.45862
5086.10138,0.45818
5084.17263,0.45792
5082.24388,0.45814
5080.31514,0.45842
5078.38639,0.45859
5076.45765,0.45853
5074.52890,0.45853
5072.60016,0.45894
5070.67141,0.45945
5068.74267,0.45957
5066.81392,0.45905
5064.88518,0.45865
5062.95643,0.45899
5061.02769,0.45938
5059.09894,0.45945
5057.17020,0.45942
5055.24145,0.45939
5053.31270,0.45932
5051.38396,0.45891
5049.45521,0.45831
5047.52647,0.45777
5045.59772,0.45712
5043.66898,0.45659
5041.74023,0.45654
5039.81149,0.45670
5037.88274,0.45677
5035.95400,0.45688
5034.02525,0.45719
5032.09651,0.45754
5030.16776,0.45783
5028.23902,0.45833
5026.31027,0.45870
5024.38153,0.45860
5022.45278,0.45857
5020.52403,0.45873
5018.59529,0.45881
5016.66654,0.45926
5014.73780,0.46014
5012.80905,0.46071
5010.88031,0.46075
5008.95156,0.46055
5007.02282,0.46016
5005.09407,0.45948
5003.16533,0.45875
5001.23658,0.45800
4999.30784,0.45702
4997.37909,0.45614
4995.45035,0.45546
4993.52160,0.45450
4991.59286,0.45341
4989.66411,0.45252
4987.73536,0.45166
4985.80662,0.45057
4983.87787,0.44927
4981.94913,0.44841
4980.02038,0.44832
4978.09164,0.44824
4976.16289,0.44773
4974.23415,0.44748
4972.30540,0.44787
4970.37666,0.44857
4968.44791,0.44931
4966.51917,0.44995
4964.59042,0.45045
4962.66168,0.45112
4960.73293,0.45190
4958.80418,0.45180
4956.87544,0.45078
4954.94669,0.45006
4953.01795,0.44980
4951.08920,0.44943
4949.16046,0.44910
4947.23171,0.44855
4945.30297,0.44754
4943.37422,0.44692
4941.44548,0.44701
4939.51673,0.44723
4937.58799,0.44712
4935.65924,0.44687
4933.73050,0.44721
4931.80175,0.44808
4929.87301,0.44848
4927.94426,0.44818
4926.01551,0.44797
4924.08677,0.44844
4922.15802,0.44942
4920.22928,0.45013
4918.30053,0.45009
4916.37179,0.44970
4914.44304,0.44938
4912.51430,0.44906
4910.58555,0.44851
4908.65681,0.44767
4906.72806,0.44715
4904.79932,0.44735
4902.87057,0.44777
4900.94183,0.44776
4899.01308,0.44719
4897.08434,0.44664
4895.15559,0.44655
4893.22684,0.44621
4891.29810,0.44500
4889.36935,0.44356
4887.44061,0.44215
4885.51186,0.44080
4883.58312,0.44023
4881.65437,0.44016
4879.72563,0.43940
4877.79688,0.43780
4875.86814,0.43613
4873.93939,0.43489
4872.01065,0.43397
4870.08190,0.43351
4868.15316,0.43335
4866.22441,0.43269
4864.29566,0.43189
4862.36692,0.43219
4860.43817,0.43308
4858.50943,0.43320
4856.58068,0.43243
4854.65194,0.43123
4852.72319,0.42988
4850.79445,0.42864
4848.86570,0.42756
4846.93696,0.42618
4845.00821,0.42419
4843.07947,0.42246
4841.15072,0.42147
4839.22198,0.42057
4837.29323,0.41953
4835.36449,0.41879
4833.43574,0.41853
4831.50699,0.41837
4829.57825,0.41810
4827.64950,0.41818
4825.72076,0.41854
4823.79201,0.41865
4821.86327,0.41874
4819.93452,0.41915
4818.00578,0.41966
4816.07703,0.42028
4814.14829,0.42096
4812.21954,0.42141
4810.29080,0.42153
4808.36205,0.42140
4806.43331,0.42104
4804.50456,0.42084
4802.57582,0.42098
4800.64707,0.42079
4798.71832,0.42010
4796.78958,0.41939
4794.86083,0.41871
4792.93209,0.41784
4791.00334,0.41678
4789.07460,0.41570
4787.14585,0.41441
4785.21711,0.41256
4783.28836,0.41040
4781.35962,0.40812
4779.43087,0.40570
4777.50213,0.40295
4775.57338,0.39946
4773.64464,0.39527
4771.71589,0.39106
4769.78714,0.38709
4767.85840,0.38337
4765.92965,0.38035
4764.00091,0.37796
4762.07216,0.37591
4760.14342,0.37458
4758.21467,0.37441
4756.28593,0.37477
4754.35718,0.37492
4752.42844,0.37498
4750.49969,0.37477
4748.57095,0.37378
4746.64220,0.37225
4744.71346,0.37064
4742.78471,0.36893
4740.85597,0.36704
4738.92722,0.36491
4736.99847,0.36224
4735.06973,0.35906
4733.14098,0.35585
4731.21224,0.35282
4729.28349,0.34963
4727.35475,0.34566
4725.42600,0.34050
4723.49726,0.33426
4721.56851,0.32751
4719.63977,0.32077
4717.71102,0.31421
4715.78228,0.30787
4713.85353,0.30203
4711.92479,0.29709
4709.99604,0.29333
4708.06729,0.29078
4706.13855,0.28867
4704.20980,0.28589
4702.28106,0.28253
4700.35231,0.27931
4698.42357,0.27605
4696.49482,0.27190
4694.56608,0.26681
4692.63733,0.26128
4690.70859,0.25483
4688.77984,0.24654
4686.85110,0.23650
4684.92235,0.22548
4682.99361,0.21357
4681.06486,0.20036
4679.13612,0.18649
4677.20737,0.17319
4675.27862,0.16126
4673.34988,0.15118
4671.42113,0.14297
4669.49239,0.13663
4667.56364,0.13239
4665.63490,0.13012
4663.70615,0.12948
4661.77741,0.13023
4659.84866,0.13200
4657.91992,0.13442
4655.99117,0.13762
4654.06243,0.14208
4652.13368,0.14744
4650.20494,0.15252
4648.27619,0.15681
4646.34745,0.15998
4644.41870,0.16136
4642.48995,0.16103
4640.56121,0.15955
4638.63246,0.15697
4636.70372,0.15351
4634.77497,0.14965
4632.84623,0.14555
4630.91748,0.14140
4628.98874,0.13777
4627.05999,0.13510
4625.13125,0.13341
4623.20250,0.13265
4621.27376,0.13257
4619.34501,0.13252
4617.41627,0.13209
4615.48752,0.13137
4613.55877,0.13002
4611.63003,0.12807
4609.70128,0.12665
4607.77254,0.12631
4605.84379,0.12687
4603.91505,0.12862
4601.98630,0.13189
4600.05756,0.13688
4598.12881,0.14332
4596.20007,0.14993
4594.27132,0.15566
4592.34258,0.16063
4590.41383,0.16514
4588.48509,0.16880
4586.55634,0.17135
4584.62760,0.17271
4582.69885,0.17212
4580.77010,0.16902
4578.84136,0.16360
4576.91261,0.15684
4574.98387,0.15056
4573.05512,0.14639
4571.12638,0.14522
4569.19763,0.14717
4567.26889,0.15204
4565.34014,0.15968
4563.41140,0.16897
4561.48265,0.17781
4559.55391,0.18501
4557.62516,0.19079
4555.69642,0.19611
4553.76767,0.20181
4551.83893,0.20806
4549.91018,0.21447
4547.98143,0.22070
4546.05269,0.22647
4544.12394,0.23103
4542.19520,0.23387
4540.26645,0.23539
4538.33771,0.23609
4536.40896,0.23648
4534.48022,0.23701
4532.55147,0.23779
4530.62273,0.23888
4528.69398,0.24039
4526.76524,0.24180
4524.83649,0.24240
4522.90775,0.24244
4520.97900,0.24234
4519.05025,0.24200
4517.12151,0.24161
4515.19276,0.24129
4513.26402,0.24044
4511.33527,0.23877
4509.40653,0.23694
4507.47778,0.23556
4505.54904,0.23449
4503.62029,0.23380
4501.69155,0.23444
4499.76280,0.23725
4497.83406,0.24163
4495.90531,0.24616
4493.97657,0.24998
4492.04782,0.25246
4490.11908,0.25318
4488.19033,0.25249
4486.26158,0.25131
4484.33284,0.25034
4482.40409,0.25007
4480.47535,0.25068
4478.54660,0.25184
4476.61786,0.25357
4474.68911,0.25592
4472.76037,0.25835
4470.83162,0.26065
4468.90288,0.26316
4466.97413,0.26560
4465.04539,0.26748
4463.11664,0.26906
4461.18790,0.27019
4459.25915,0.27040
4457.33041,0.27005
4455.40166,0.26926
4453.47291,0.26749
4451.54417,0.26469
4449.61542,0.26125
4447.68668,0.25756
4445.75793,0.25385
4443.82919,0.25023
4441.90044,0.24712
4439.97170,0.24509
4438.04295,0.24436
4436.11421,0.24463
4434.18546,0.24526
4432.25672,0.24569
4430.32797,0.24563
4428.39923,0.24492
4426.47048,0.24344
4424.54173,0.24140
4422.61299,0.23898
4420.68424,0.23619
4418.75550,0.23333
4416.82675,0.23065
4414.89801,0.22791
4412.96926,0.22501
4411.04052,0.22220
4409.11177,0.21956
4407.18303,0.21686
4405.25428,0.21406
4403.32554,0.21126
4401.39679,0.20829
4399.46805,0.20507
4397.53930,0.20206
4395.61056,0.19921
4393.68181,0.19588
4391.75306,0.19224
4389.82432,0.18880
4387.89557,0.18554
4385.96683,0.18244
4384.03808,0.17949
4382.10934,0.17645
4380.18059,0.17328
4378.25185,0.17009
4376.32310,0.16684
4374.39436,0.16361
4372.46561,0.16062
4370.53687,0.15769
4368.60812,0.15456
4366.67938,0.15116
4364.75063,0.14775
4362.82189,0.14477
4360.89314,0.14231
4358.96439,0.14015
4357.03565,0.13811
4355.10690,0.13594
4353.17816,0.13355
4351.24941,0.13103
4349.32067,0.12875
4347.39192,0.12720
4345.46318,0.12627
4343.53443,0.12525
4341.60569,0.12379
4339.67694,0.12215
4337.74820,0.12089
4335.81945,0.12029
4333.89071,0.11993
4331.96196,0.11964
4330.03321,0.11963
4328.10447,0.11968
4326.17572,0.12000
4324.24698,0.12128
4322.31823,0.12336
4320.38949,0.12562
4318.46074,0.12795
4316.53200,0.13019
4314.60325,0.13230
4312.67451,0.13469
4310.74576,0.13689
4308.81702,0.13805
4306.88827,0.13859
4304.95953,0.13918
4303.03078,0.13951
4301.10204,0.13921
4299.17329,0.13864
4297.24454,0.13819
4295.31580,0.13762
4293.38705,0.13664
4291.45831,0.13527
4289.52956,0.13390
4287.60082,0.13288
4285.67207,0.13180
4283.74333,0.13000
4281.81458,0.12767
4279.88584,0.12541
4277.95709,0.12345
4276.02835,0.12181
4274.09960,0.12035
4272.17086,0.11880
4270.24211,0.11708
4268.31336,0.11518
4266.38462,0.11313
4264.45587,0.11098
4262.52713,0.10888
4260.59838,0.10716
4258.66964,0.10608
4256.74089,0.10546
4254.81215,0.10482
4252.88340,0.10404
4250.95466,0.10351
4249.02591,0.10329
4247.09717,0.10315
4245.16842,0.10322
4243.23968,0.10380
4241.31093,0.10454
4239.38219,0.10497
4237.45344,0.10518
4235.52469,0.10550
4233.59595,0.10610
4231.66720,0.10702
4229.73846,0.10785
4227.80971,0.10828
4225.88097,0.10858
4223.95222,0.10877
4222.02348,0.10886
4220.09473,0.10896
4218.16599,0.10898
4216.23724,0.10897
4214.30850,0.10903
4212.37975,0.10907
4210.45101,0.10914
4208.52226,0.10946
4206.59352,0.10973
4204.66477,0.10978
4202.73602,0.11004
4200.80728,0.11066
4198.87853,0.11139
4196.94979,0.11221
4195.02104,0.11318
4193.09230,0.11432
4191.16355,0.11537
4189.23481,0.11612
4187.30606,0.11682
4185.37732,0.11754
4183.44857,0.11800
4181.51983,0.11803
4179.59108,0.11795
4177.66234,0.11843
4175.73359,0.11965
4173.80484,0.12117
4171.87610,0.12264
4169.94735,0.12363
4168.01861,0.12410
4166.08986,0.12456
4164.16112,0.12503
4162.23237,0.12506
4160.30363,0.12476
4158.37488,0.12460
4156.44614,0.12464
4154.51739,0.12457
4152.58865,0.12451
4150.65990,0.12482
4148.73116,0.12523
4146.80241,0.12527
4144.87367,0.12509
4142.94492,0.12489
4141.01617,0.12443
4139.08743,0.12376
4137.15868,0.12322
4135.22994,0.12253
4133.30119,0.12133
4131.37245,0.11996
4129.44370,0.11885
4127.51496,0.11794
4125.58621,0.11693
4123.65747,0.11599
4121.72872,0.11542
4119.79998,0.11507
4117.87123,0.11471
4115.94249,0.11431
4114.01374,0.11358
4112.08500,0.11235
4110.15625,0.11119
4108.22750,0.11051
4106.29876,0.11025
4104.37001,0.11022
4102.44127,0.11005
4100.51252,0.10945
4098.58378,0.10851
4096.65503,0.10755
4094.72629,0.10675
4092.79754,0.10573
4090.86880,0.10431
4088.94005,0.10285
4087.01131,0.10157
4085.08256,0.10021
4083.15382,0.09866
4081.22507,0.09708
4079.29632,0.09566
4077.36758,0.09437
4075.43883,0.09283
4073.51009,0.09090
4071.58134,0.08898
4069.65260,0.08734
4067.72385,0.08595
4065.79511,0.08474
4063.86636,0.08370
4061.93762,0.08303
4060.00887,0.08262
4058.08013,0.08208
4056.15138,0.08146
4054.22264,0.08103
4052.29389,0.08089
4050.36515,0.08109
4048.43640,0.08146
4046.50765,0.08158
4044.57891,0.08126
4042.65016,0.08075
4040.72142,0.08033
4038.79267,0.08014
4036.86393,0.08032
4034.93518,0.08093
4033.00644,0.08193
4031.07769,0.08308
4029.14895,0.08409
4027.22020,0.08512
4025.29146,0.08669
4023.36271,0.08892
4021.43397,0.09162
4019.50522,0.09467
4017.57648,0.09794
4015.64773,0.10135
4013.71898,0.10448
4011.79024,0.10663
4009.86149,0.10782
4007.93275,0.10849
4006.00400,0.10869
4004.07526,0.10842
4002.14651,0.10807
4000.21777,0.10804
3998.28902,0.10886
3996.36028,0.11079
3994.43153,0.11338
3992.50279,0.11605
3990.57404,0.11824
3988.64530,0.11973
3986.71655,0.12072
3984.78780,0.12112
3982.85906,0.12091
3980.93031,0.12067
3979.00157,0.12067
3977.07282,0.12082
3975.14408,0.12110
3973.21533,0.12139
3971.28659,0.12146
3969.35784,0.12167
3967.42910,0.12245
3965.50035,0.12339
3963.57161,0.12394
3961.64286,0.12421
3959.71412,0.12457
3957.78537,0.12516
3955.85663,0.12569
3953.92788,0.12572
3951.99913,0.12541
3950.07039,0.12516
3948.14164,0.12516
3946.21290,0.12517
3944.28415,0.12462
3942.35541,0.12352
3940.42666,0.12256
3938.49792,0.12203
3936.56917,0.12189
3934.64043,0.12222
3932.71168,0.12267
3930.78294,0.12277
3928.85419,0.12266
3926.92545,0.12280
3924.99670,0.12330
3923.06795,0.12391
3921.13921,0.12458
3919.21046,0.12534
3917.28172,0.12602
3915.35297,0.12651
3913.42423,0.12702
3911.49548,0.12761
3909.56674,0.12789
3907.63799,0.12773
3905.70925,0.12765
3903.78050,0.12799
3901.85176,0.12834
3899.92301,0.12837
3897.99427,0.12828
3896.06552,0.12833
3894.13678,0.12879
3892.20803,0.12953
3890.27928,0.12993
3888.35054,0.13005
3886.42179,0.13043
3884.49305,0.13101
3882.56430,0.13138
3880.63556,0.13117
3878.70681,0.13065
3876.77807,0.13068
3874.84932,0.13123
3872.92058,0.13152
3870.99183,0.13123
3869.06309,0.13068
3867.13434,0.13036
3865.20560,0.13042
3863.27685,0.13074
3861.34811,0.13108
3859.41936,0.13133
3857.49061,0.13193
3855.56187,0.13295
3853.63312,0.13312
3851.70438,0.13187
3849.77563,0.13069
3847.84689,0.13003
3845.91814,0.12960
3843.98940,0.12929
3842.06065,0.12884
3840.13191,0.12819
3838.20316,0.12752
3836.27442,0.12682
3834.34567,0.12618
3832.41693,0.12564
3830.48818,0.12499
3828.55943,0.12429
3826.63069,0.12375
3824.70194,0.12347
3822.77320,0.12320
3820.84445,0.12235
3818.91571,0.12136
3816.98696,0.12089
3815.05822,0.12083
3813.12947,0.12120
3811.20073,0.12188
3809.27198,0.12232
3807.34324,0.12236
3805.41449,0.12231
3803.48575,0.12236
3801.55700,0.12253
3799.62826,0.12289
3797.69951,0.12338
3795.77076,0.12399
3793.84202,0.12483
3791.91327,0.12592
3789.98453,0.12723
3788.05578,0.12867
3786.12704,0.12992
3784.19829,0.13067
3782.26955,0.13112
3780.34080,0.13137
3778.41206,0.13140
3776.48331,0.13144
3774.55457,0.13159
3772.62582,0.13149
3770.69708,0.13105
3768.76833,0.13060
3766.83959,0.13037
3764.91084,0.13021
3762.98209,0.12995
3761.05335,0.12996
3759.12460,0.13066
3757.19586,0.13183
3755.26711,0.13290
3753.33837,0.13394
3751.40962,0.13505
3749.48088,0.13571
3747.55213,0.13601
3745.62339,0.13643
3743.69464,0.13664
3741.76590,0.13637
3739.83715,0.13611
3737.90841,0.13612
3735.97966,0.13602
3734.05091,0.13531
3732.12217,0.13410
3730.19342,0.13279
3728.26468,0.13121
3726.33593,0.12913
3724.40719,0.12703
3722.47844,0.12581
3720.54970,0.12570
3718.62095,0.12632
3716.69221,0.12728
3714.76346,0.12853
3712.83472,0.12981
3710.90597,0.13009
3708.97723,0.12889
3707.04848,0.12688
3705.11974,0.12454
3703.19099,0.12215
3701.26224,0.12023
3699.33350,0.11936
3697.40475,0.11947
3695.47601,0.12032
3693.54726,0.12163
3691.61852,0.12273
3689.68977,0.12308
3687.76103,0.12261
3685.83228,0.12146
3683.90354,0.11991
3681.97479,0.11846
3680.04605,0.11764
3678.11730,0.11750
3676.18856,0.11763
3674.25981,0.11736
3672.33107,0.11673
3670.40232,0.11633
3668.47357,0.11627
3666.54483,0.11612
3664.61608,0.11554
3662.68734,0.11455
3660.75859,0.11327
3658.82985,0.11152
3656.90110,0.10900
3654.97236,0.10608
3653.04361,0.10357
3651.11487,0.10158
3649.18612,0.09988
3647.25738,0.09872
3645.32863,0.09845
3643.39989,0.09950
3641.47114,0.10235
3639.54239,0.10661
3637.61365,0.11113
3635.68490,0.11515
3633.75616,0.11805
3631.82741,0.11947
3629.89867,0.11952
3627.96992,0.11816
3626.04118,0.11588
3624.11243,0.11335
3622.18369,0.11116
3620.25494,0.11044
3618.32620,0.11203
3616.39745,0.11551
3614.46871,0.12016
3612.53996,0.12543
3610.61122,0.13033
3608.68247,0.13414
3606.75372,0.13685
3604.82498,0.13870
3602.89623,0.13979
3600.96749,0.14008
3599.03874,0.13985
3597.11000,0.13971
3595.18125,0.13973
3593.25251,0.13962
3591.32376,0.13953
3589.39502,0.13977
3587.46627,0.14013
3585.53753,0.14059
3583.60878,0.14144
3581.68004,0.14266
3579.75129,0.14399
3577.82254,0.14529
3575.89380,0.14676
3573.96505,0.14858
3572.03631,0.15056
3570.10756,0.15237
3568.17882,0.15368
3566.25007,0.15424
3564.32133,0.15429
3562.39258,0.15422
3560.46384,0.15430
3558.53509,0.15457
3556.60635,0.15480
3554.67760,0.15468
3552.74886,0.15425
3550.82011,0.15383
3548.89137,0.15364
3546.96262,0.15350
3545.03387,0.15326
3543.10513,0.15294
3541.17638,0.15247
3539.24764,0.15195
3537.31889,0.15156
3535.39015,0.15117
3533.46140,0.15070
3531.53266,0.15031
3529.60391,0.14990
3527.67517,0.14925
3525.74642,0.14844
3523.81768,0.14770
3521.88893,0.14719
3519.96019,0.14671
3518.03144,0.14597
3516.10270,0.14509
3514.17395,0.14448
3512.24520,0.14437
3510.31646,0.14438
3508.38771,0.14410
3506.45897,0.14387
3504.53022,0.14377
3502.60148,0.14310
3500.67273,0.14200
3498.74399,0.14106
3496.81524,0.14024
3494.88650,0.13950
3492.95775,0.13892
3491.02901,0.13829
3489.10026,0.13765
3487.17152,0.13708
3485.24277,0.13626
3483.31402,0.13520
3481.38528,0.13429
3479.45653,0.13352
3477.52779,0.13283
3475.59904,0.13223
3473.67030,0.13163
3471.74155,0.13100
3469.81281,0.13037
3467.88406,0.12988
3465.95532,0.12963
3464.02657,0.12928
3462.09783,0.12864
3460.16908,0.12814
3458.24034,0.12801
3456.31159,0.12793
3454.38285,0.12750
3452.45410,0.12654
3450.52535,0.12533
3448.59661,0.12425
3446.66786,0.12342
3444.73912,0.12288
3442.81037,0.12238
3440.88163,0.12191
3438.95288,0.12207
3437.02414,0.12296
3435.09539,0.12399
3433.16665,0.12497
3431.23790,0.12605
3429.30916,0.12725
3427.38041,0.12867
3425.45167,0.13015
3423.52292,0.13114
3421.59418,0.13164
3419.66543,0.13205
3417.73668,0.13258
3415.80794,0.13333
3413.87919,0.13406
3411.95045,0.13426
3410.02170,0.13396
3408.09296,0.13383
3406.16421,0.13429
3404.23547,0.13504
3402.30672,0.13570
3400.37798,0.13603
3398.44923,0.13612
3396.52049,0.13626
3394.59174,0.13643
3392.66300,0.13665
3390.73425,0.13686
3388.80550,0.13676
3386.87676,0.13657
3384.94801,0.13664
3383.01927,0.13681
3381.09052,0.13710
3379.16178,0.13756
3377.23303,0.13805
3375.30429,0.13860
3373.37554,0.13918
3371.44680,0.13981
3369.51805,0.14066
3367.58931,0.14149
3365.66056,0.14191
3363.73182,0.14197
3361.80307,0.14173
3359.87433,0.14136
3357.94558,0.14130
3356.01683,0.14139
3354.08809,0.14115
3352.15934,0.14069
3350.23060,0.14008
3348.30185,0.13925
3346.37311,0.13842
3344.44436,0.13791
3342.51562,0.13776
3340.58687,0.13772
3338.65813,0.13748
3336.72938,0.13697
3334.80064,0.13650
3332.87189,0.13627
3330.94315,0.13593
3329.01440,0.13534
3327.08566,0.13490
3325.15691,0.13462
3323.22816,0.13422
3321.29942,0.13377
3319.37067,0.13339
3317.44193,0.13306
3315.51318,0.13265
3313.58444,0.13185
3311.65569,0.13053
3309.72695,0.12870
3307.79820,0.12645
3305.86946,0.12424
3303.94071,0.12239
3302.01197,0.12105
3300.08322,0.12036
3298.15448,0.12039
3296.22573,0.12093
3294.29698,0.12172
3292.36824,0.12275
3290.43949,0.12376
3288.51075,0.12438
3286.58200,0.12474
3284.65326,0.12493
3282.72451,0.12486
3280.79577,0.12468
3278.86702,0.12459
3276.93828,0.12456
3275.00953,0.12456
3273.08079,0.12453
3271.15204,0.12441
3269.22330,0.12411
3267.29455,0.12362
3265.36581,0.12316
3263.43706,0.12288
3261.50831,0.12257
3259.57957,0.12207
3257.65082,0.12148
3255.72208,0.12092
3253.79333,0.12029
3251.86459,0.11975
3249.93584,0.11952
3248.00710,0.11940
3246.07835,0.11915
3244.14961,0.11879
3242.22086,0.11845
3240.29212,0.11810
3238.36337,0.11755
3236.43463,0.11699
3234.50588,0.11661
3232.57713,0.11608
3230.64839,0.11529
3228.71964,0.11454
3226.79090,0.11389
3224.86215,0.11327
3222.93341,0.11256
3221.00466,0.11173
3219.07592,0.11098
3217.14717,0.11030
3215.21843,0.10931
3213.28968,0.10792
3211.36094,0.10645
3209.43219,0.10495
3207.50345,0.10322
3205.57470,0.10151
3203.64596,0.10016
3201.71721,0.09930
3199.78846,0.09895
3197.85972,0.09877
3195.93097,0.09850
3194.00223,0.09828
3192.07348,0.09812
3190.14474,0.09787
3188.21599,0.09750
3186.28725,0.09702
3184.35850,0.09651
3182.42976,0.09611
3180.50101,0.09566
3178.57227,0.09494
3176.64352,0.09387
3174.71478,0.09246
3172.78603,0.09076
3170.85729,0.08893
3168.92854,0.08698
3166.99979,0.08496
3165.07105,0.08313
3163.14230,0.08189
3161.21356,0.08148
3159.28481,0.08183
3157.35607,0.08266
3155.42732,0.08364
3153.49858,0.08439
3151.56983,0.08477
3149.64109,0.08494
3147.71234,0.08495
3145.78360,0.08467
3143.85485,0.08414
3141.92611,0.08353
3139.99736,0.08300
3138.06861,0.08255
3136.13987,0.08205
3134.21112,0.08148
3132.28238,0.08076
3130.35363,0.07986
3128.42489,0.07891
3126.49614,0.07794
3124.56740,0.07681
3122.63865,0.07565
3120.70991,0.07455
3118.78116,0.07331
3116.85242,0.07196
3114.92367,0.07057
3112.99493,0.06907
3111.06618,0.06774
3109.13744,0.06681
3107.20869,0.06611
3105.27994,0.06569
3103.35120,0.06567
3101.42245,0.06577
3099.49371,0.06579
3097.56496,0.06584
3095.63622,0.06577
3093.70747,0.06532
3091.77873,0.06468
3089.84998,0.06403
3087.92124,0.06368
3085.99249,0.06387
3084.06375,0.06414
3082.13500,0.06404
3080.20626,0.06384
3078.27751,0.06392
3076.34877,0.06423
3074.42002,0.06446
3072.49127,0.06436
3070.56253,0.06407
3068.63378,0.06400
3066.70504,0.06411
3064.77629,0.06408
3062.84755,0.06400
3060.91880,0.06416
3058.99006,0.06446
3057.06131,0.06465
3055.13257,0.06475
3053.20382,0.06496
3051.27508,0.06533
3049.34633,0.06543
3047.41759,0.06502
3045.48884,0.06449
3043.56009,0.06414
3041.63135,0.06385
3039.70260,0.06364
3037.77386,0.06347
3035.84511,0.06328
3033.91637,0.06303
3031.98762,0.06275
3030.05888,0.06281
3028.13013,0.06349
3026.20139,0.06439
3024.27264,0.06525
3022.34390,0.06614
3020.41515,0.06678
3018.48641,0.06705
3016.55766,0.06723
3014.62892,0.06743
3012.70017,0.06748
3010.77142,0.06724
3008.84268,0.06688
3006.91393,0.06662
3004.98519,0.06640
3003.05644,0.06608
3001.12770,0.06584
2999.19895,0.06601
2997.27021,0.06635
2995.34146,0.06643
2993.41272,0.06643
2991.48397,0.06658
2989.55523,0.06665
2987.62648,0.06645
2985.69774,0.06623
2983.76899,0.06608
2981.84025,0.06593
2979.91150,0.06595
2977.98275,0.06613
2976.05401,0.06609
2974.12526,0.06579
2972.19652,0.06547
2970.26777,0.06530
2968.33903,0.06523
2966.41028,0.06513
2964.48154,0.06497
2962.55279,0.06485
2960.62405,0.06480
2958.69530,0.06473
2956.76656,0.06451
2954.83781,0.06428
2952.90907,0.06410
2950.98032,0.06379
2949.05157,0.06349
2947.12283,0.06339
2945.19408,0.06320
2943.26534,0.06283
2941.33659,0.06273
2939.40785,0.06309
2937.47910,0.06345
2935.55036,0.06357
2933.62161,0.06369
2931.69287,0.06407
2929.76412,0.06485
2927.83538,0.06595
2925.90663,0.06703
2923.97789,0.06784
2922.04914,0.06845
2920.12040,0.06890
2918.19165,0.06919
2916.26290,0.06935
2914.33416,0.06932
2912.40541,0.06912
2910.47667,0.06893
2908.54792,0.06892
2906.61918,0.06902
2904.69043,0.06904
2902.76169,0.06905
2900.83294,0.06921
2898.90420,0.06921
2896.97545,0.06880
2895.04671,0.06833
2893.11796,0.06819
2891.18922,0.06822
2889.26047,0.06822
2887.33172,0.06835
2885.40298,0.06854
2883.47423,0.06847
2881.54549,0.06812
2879.61674,0.06781
2877.68800,0.06762
2875.75925,0.06747
2873.83051,0.06749
2871.90176,0.06764
2869.97302,0.06768
2868.04427,0.06764
2866.11553,0.06770
2864.18678,0.06774
2862.25804,0.06762
2860.32929,0.06740
2858.40055,0.06726
2856.47180,0.06751
2854.54305,0.06811
2852.61431,0.06859
2850.68556,0.06874
2848.75682,0.06873
2846.82807,0.06873
2844.89933,0.06883
2842.97058,0.06893
2841.04184,0.06888
2839.11309,0.06875
2837.18435,0.06862
2835.25560,0.06857
2833.32686,0.06865
2831.39811,0.06866
2829.46937,0.06857
2827.54062,0.06877
2825.61188,0.06918
2823.68313,0.06947
2821.75438,0.06969
2819.82564,0.06992
2817.89689,0.07004
2815.96815,0.07013
2814.03940,0.07032
2812.11066,0.07050
2810.18191,0.07060
2808.25317,0.07068
2806.32442,0.07062
2804.39568,0.07057
2802.46693,0.07087
2800.53819,0.07128
2798.60944,0.07147
2796.68070,0.07157
2794.75195,0.07180
2792.82320,0.07204
2790.89446,0.07227
2788.96571,0.07254
2787.03697,0.07273
2785.10822,0.07282
2783.17948,0.07288
2781.25073,0.07293
2779.32199,0.07298
2777.39324,0.07301
2775.46450,0.07303
2773.53575,0.07328
2771.60701,0.07377
2769.67826,0.07424
2767.74952,0.07455
2765.82077,0.07467
2763.89203,0.07474
2761.96328,0.07501
2760.03453,0.07539
2758.10579,0.07560
2756.17704,0.07563
2754.24830,0.07565
2752.31955,0.07567
2750.39081,0.07575
2748.46206,0.07599
2746.53332,0.07628
2744.60457,0.07647
2742.67583,0.07653
2740.74708,0.07654
2738.81834,0.07637
2736.88959,0.07603
2734.96085,0.07570
2733.03210,0.07548
2731.10336,0.07530
2729.17461,0.07502
2727.24586,0.07479
2725.31712,0.07482
2723.38837,0.07493
2721.45963,0.07487
2719.53088,0.07476
2717.60214,0.07468
2715.67339,0.07468
2713.74465,0.07490
2711.81590,0.07507
2709.88716,0.07490
2707.95841,0.07472
2706.02967,0.07485
2704.10092,0.07508
2702.17218,0.07520
2700.24343,0.07519
2698.31468,0.07506
2696.38594,0.07488
2694.45719,0.07477
2692.52845,0.07468
2690.59970,0.07453
2688.67096,0.07441
2686.74221,0.07437
2684.81347,0.07443
2682.88472,0.07457
2680.95598,0.07460
2679.02723,0.07438
2677.09849,0.07413
2675.16974,0.07404
2673.24100,0.07406
2671.31225,0.07406
2669.38351,0.07407
2667.45476,0.07429
2665.52601,0.07458
2663.59727,0.07469
2661.66852,0.07470
2659.73978,0.07468
2657.81103,0.07465
2655.88229,0.07474
2653.95354,0.07493
2652.02480,0.07488
2650.09605,0.07461
2648.16731,0.07442
2646.23856,0.07432
2644.30982,0.07422
2642.38107,0.07412
2640.45233,0.07392
2638.52358,0.07363
2636.59484,0.07328
2634.66609,0.07289
2632.73734,0.07264
2630.80860,0.07274
2628.87985,0.07312
2626.95111,0.07370
2625.02236,0.07428
2623.09362,0.07458
2621.16487,0.07465
2619.23613,0.07470
2617.30738,0.07474
2615.37864,0.07474
2613.44989,0.07466
2611.52115,0.07445
2609.59240,0.07405
2607.66366,0.07352
2605.73491,0.07310
2603.80616,0.07290
2601.87742,0.07307
2599.94867,0.07365
2598.01993,0.07427
2596.09118,0.07477
2594.16244,0.07524
2592.23369,0.07562
2590.30495,0.07566
2588.37620,0.07525
2586.44746,0.07473
2584.51871,0.07441
2582.58997,0.07425
2580.66122,0.07417
2578.73248,0.07421
2576.80373,0.07453
2574.87499,0.07510
2572.94624,0.07569
2571.01749,0.07610
2569.08875,0.07626
2567.16000,0.07620
2565.23126,0.07603
2563.30251,0.07596
2561.37377,0.07607
2559.44502,0.07626
2557.51628,0.07634
2555.58753,0.07625
2553.65879,0.07604
2551.73004,0.07588
2549.80130,0.07583
2547.87255,0.07582
2545.94381,0.07585
2544.01506,0.07586
2542.08631,0.07584
2540.15757,0.07589
2538.22882,0.07604
2536.30008,0.07617
2534.37133,0.07619
2532.44259,0.07626
2530.51384,0.07643
2528.58510,0.07651
2526.65635,0.07640
2524.72761,0.07620
2522.79886,0.07605
2520.87012,0.07593
2518.94137,0.07568
2517.01263,0.07534
2515.08388,0.07507
2513.15514,0.07503
2511.22639,0.07517
2509.29764,0.07526
2507.36890,0.07521
2505.44015,0.07524
2503.51141,0.07556
2501.58266,0.07601
2499.65392,0.07620
2497.72517,0.07608
2495.79643,0.07597
2493.86768,0.07615
2491.93894,0.07654
2490.01019,0.07675
2488.08145,0.07676
2486.15270,0.07690
2484.22396,0.07719
2482.29521,0.07735
2480.36647,0.07746
2478.43772,0.07781
2476.50897,0.07837
2474.58023,0.07897
2472.65148,0.07941
2470.72274,0.07980
2468.79399,0.08024
2466.86525,0.08055
2464.93650,0.08071
2463.00776,0.08073
2461.07901,0.08062
2459.15027,0.08061
2457.22152,0.08071
2455.29278,0.08064
2453.36403,0.08036
2451.43529,0.08026
2449.50654,0.08049
2447.57779,0.08082
2445.64905,0.08108
2443.72030,0.08120
2441.79156,0.08113
2439.86281,0.08105
2437.93407,0.08116
2436.00532,0.08141
2434.07658,0.08162
2432.14783,0.08173
2430.21909,0.08182
2428.29034,0.08192
2426.36160,0.08197
2424.43285,0.08207
2422.50411,0.08225
2420.57536,0.08242
2418.64662,0.08252
2416.71787,0.08255
2414.78912,0.08248
2412.86038,0.08221
2410.93163,0.08186
2409.00289,0.08156
2407.07414,0.08127
2405.14540,0.08100
2403.21665,0.08075
2401.28791,0.08046
2399.35916,0.08019
2397.43042,0.07998
2395.50167,0.07980
2393.57293,0.07966
2391.64418,0.07954
2389.71544,0.07945
2387.78669,0.07936
2385.85795,0.07922
2383.92920,0.07914
2382.00045,0.07926
2380.07171,0.07936
2378.14296,0.07915
2376.21422,0.07875
2374.28547,0.07851
2372.35673,0.07845
2370.42798,0.07823
2368.49924,0.07767
2366.57049,0.07700
2364.64175,0.07655
2362.71300,0.07635
2360.78426,0.07621
2358.85551,0.07609
2356.92677,0.07604
2354.99802,0.07600
2353.06927,0.07596
2351.14053,0.07582
2349.21178,0.07547
2347.28304,0.07485
2345.35429,0.07399
2343.42555,0.07311
2341.49680,0.07229
2339.56806,0.07160
2337.63931,0.07134
2335.71057,0.07156
2333.78182,0.07214
2331.85308,0.07316
2329.92433,0.07443
2327.99559,0.07549
2326.06684,0.07617
2324.13810,0.07666
2322.20935,0.07693
2320.28060,0.07665
2318.35186,0.07574
2316.42311,0.07457
2314.49437,0.07354
2312.56562,0.07292
2310.63688,0.07290
2308.70813,0.07344
2306.77939,0.07445
2304.85064,0.07564
2302.92190,0.07660
2300.99315,0.07718
2299.06441,0.07748
2297.13566,0.07752
2295.20692,0.07752
2293.27817,0.07772
2291.34943,0.07799
2289.42068,0.07824
2287.49193,0.07864
2285.56319,0.07908
2283.63444,0.07947
2281.70570,0.07995
2279.77695,0.08037
2277.84821,0.08051
2275.91946,0.08035
2273.99072,0.08009
2272.06197,0.07978
2270.13323,0.07937
2268.20448,0.07887
2266.27574,0.07849
2264.34699,0.07830
2262.41825,0.07819
2260.48950,0.07800
2258.56075,0.07764
2256.63201,0.07727
2254.70326,0.07713
2252.77452,0.07719
2250.84577,0.07742
2248.91703,0.07785
2246.98828,0.07841
2245.05954,0.07892
2243.13079,0.07936
2241.20205,0.07980
2239.27330,0.08018
2237.34456,0.08038
2235.41581,0.08048
2233.48707,0.08057
2231.55832,0.08069
2229.62958,0.08086
2227.70083,0.08106
2225.77208,0.08130
2223.84334,0.08155
2221.91459,0.08166
2219.98585,0.08152
2218.05710,0.08130
2216.12836,0.08107
2214.19961,0.08080
2212.27087,0.08067
2210.34212,0.08086
2208.41338,0.08122
2206.48463,0.08164
2204.55589,0.08221
2202.62714,0.08282
2200.69840,0.08307
2198.76965,0.08287
2196.84090,0.08258
2194.91216,0.08242
2192.98341,0.08225
2191.05467,0.08191
2189.12592,0.08140
2187.19718,0.08088
2185.26843,0.08056
2183.33969,0.08054
2181.41094,0.08078
2179.48220,0.08135
2177.55345,0.08210
2175.62471,0.08278
2173.69596,0.08329
2171.76722,0.08367
2169.83847,0.08404
2167.90973,0.08442
2165.98098,0.08461
2164.05223,0.08460
2162.12349,0.08450
2160.19474,0.08432
2158.26600,0.08415
2156.33725,0.08417
2154.40851,0.08435
2152.47976,0.08444
2150.55102,0.08445
2148.62227,0.08456
2146.69353,0.08477
2144.76478,0.08494
2142.83604,0.08505
2140.90729,0.08524
2138.97855,0.08555
2137.04980,0.08593
2135.12106,0.08622
2133.19231,0.08632
2131.26356,0.08640
2129.33482,0.08650
2127.40607,0.08652
2125.47733,0.08659
2123.54858,0.08665
2121.61984,0.08653
2119.69109,0.08649
2117.76235,0.08663
2115.83360,0.08669
2113.90486,0.08658
2111.97611,0.08648
2110.04737,0.08663
2108.11862,0.08699
2106.18988,0.08732
2104.26113,0.08747
2102.33238,0.08753
2100.40364,0.08759
2098.47489,0.08767
2096.54615,0.08784
2094.61740,0.08825
2092.68866,0.08864
2090.75991,0.08875
2088.83117,0.08880
2086.90242,0.08880
2084.97368,0.08860
2083.04493,0.08830
2081.11619,0.08806
2079.18744,0.08781
2077.25870,0.08742
2075.32995,0.08700
2073.40121,0.08669
2071.47246,0.08655
2069.54371,0.08653
2067.61497,0.08643
2065.68622,0.08624
2063.75748,0.08602
2061.82873,0.08577
2059.89999,0.08565
2057.97124,0.08579
2056.04250,0.08585
2054.11375,0.08559
2052.18501,0.08526
2050.25626,0.08520
2048.32752,0.08525
2046.39877,0.08515
2044.47003,0.08491
2042.54128,0.08466
2040.61254,0.08438
2038.68379,0.08401
2036.75504,0.08353
2034.82630,0.08297
2032.89755,0.08244
2030.96881,0.08202
2029.04006,0.08178
2027.11132,0.08177
2025.18257,0.08187
2023.25383,0.08189
2021.32508,0.08174
2019.39634,0.08148
2017.46759,0.08121
2015.53885,0.08083
2013.61010,0.08020
2011.68136,0.07947
2009.75261,0.07893
2007.82386,0.07855
2005.89512,0.07812
2003.96637,0.07765
2002.03763,0.07724
2000.10888,0.07683
1998.18014,0.07626
1996.25139,0.07542
1994.32265,0.07436
1992.39390,0.07322
1990.46516,0.07208
1988.53641,0.07121
1986.60767,0.07076
1984.67892,0.07056
1982.75018,0.07041
1980.82143,0.07032
1978.89269,0.07018
1976.96394,0.06986
1975.03519,0.06932
1973.10645,0.06865
1971.17770,0.06791
1969.24896,0.06726
1967.32021,0.06682
1965.39147,0.06654
1963.46272,0.06627
1961.53398,0.06595
1959.60523,0.06576
1957.67649,0.06583
1955.74774,0.06599
1953.81900,0.06607
1951.89025,0.06607
1949.96151,0.06594
1948.03276,0.06570
1946.10402,0.06553
1944.17527,0.06557
1942.24652,0.06561
1940.31778,0.06562
1938.38903,0.06578
1936.46029,0.06608
1934.53154,0.06640
1932.60280,0.06667
1930.67405,0.06689
1928.74531,0.06714
1926.81656,0.06749
1924.88782,0.06785
1922.95907,0.06814
1921.03033,0.06850
1919.10158,0.06895
1917.17284,0.06934
1915.24409,0.06961
1913.31534,0.06980
1911.38660,0.06990
1909.45785,0.06998
1907.52911,0.06992
1905.60036,0.06947
1903.67162,0.06886
1901.74287,0.06835
1899.81413,0.06781
1897.88538,0.06727
1895.95664,0.06689
1894.02789,0.06656
1892.09915,0.06624
1890.17040,0.06608
1888.24166,0.06611
1886.31291,0.06620
1884.38417,0.06610
1882.45542,0.06574
1880.52667,0.06552
1878.59793,0.06555
1876.66918,0.06565
1874.74044,0.06575
1872.81169,0.06585
1870.88295,0.06586
1868.95420,0.06589
1867.02546,0.06602
1865.09671,0.06611
1863.16797,0.06616
1861.23922,0.06638
1859.31048,0.06675
1857.38173,0.06703
1855.45299,0.06722
1853.52424,0.06763
1851.59549,0.06830
1849.66675,0.06883
1847.73800,0.06906
1845.80926,0.06917
1843.88051,0.06928
1841.95177,0.06941
1840.02302,0.06950
1838.09428,0.06931
1836.16553,0.06889
1834.23679,0.06849
1832.30804,0.06814
1830.37930,0.06761
1828.45055,0.06699
1826.52181,0.06656
1824.59306,0.06629
1822.66432,0.06596
1820.73557,0.06558
1818.80682,0.06541
1816.87808,0.06553
1814.94933,0.06571
1813.02059,0.06576
1811.09184,0.06569
1809.16310,0.06549
1807.23435,0.06526
1805.30561,0.06519
1803.37686,0.06523
1801.44812,0.06526
1799.51937,0.06537
1797.59063,0.06554
1795.66188,0.06576
1793.73314,0.06600
1791.80439,0.06618
1789.87565,0.06631
1787.94690,0.06647
1786.01815,0.06664
1784.08941,0.06673
1782.16066,0.06669
1780.23192,0.06659
1778.30317,0.06647
1776.37443,0.06637
1774.44568,0.06643
1772.51694,0.06670
1770.58819,0.06689
1768.65945,0.06678
1766.73070,0.06647
1764.80196,0.06617
1762.87321,0.06602
1760.94447,0.06588
1759.01572,0.06560
1757.08697,0.06526
1755.15823,0.06510
1753.22948,0.06525
1751.30074,0.06545
1749.37199,0.06536
1747.44325,0.06512
1745.51450,0.06509
1743.58576,0.06526
1741.65701,0.06546
1739.72827,0.06553
1737.79952,0.06547
1735.87078,0.06549
1733.94203,0.06562
1732.01329,0.06574
1730.08454,0.06571
1728.15580,0.06557
1726.22705,0.06556
1724.29830,0.06584
1722.36956,0.06623
1720.44081,0.06655
1718.51207,0.06668
1716.58332,0.06662
1714.65458,0.06659
1712.72583,0.06660
1710.79709,0.06656
1708.86834,0.06641
1706.93960,0.06613
1705.01085,0.06601
1703.08211,0.06608
1701.15336,0.06596
1699.22462,0.06570
1697.29587,0.06567
1695.36713,0.06563
1693.43838,0.06547
1691.50963,0.06534
1689.58089,0.06521
1687.65214,0.06502
1685.72340,0.06491
1683.79465,0.06486
1681.86591,0.06480
1679.93716,0.06477
1678.00842,0.06478
1676.07967,0.06474
1674.15093,0.06459
1672.22218,0.06445
1670.29344,0.06444
1668.36469,0.06460
1666.43595,0.06479
1664.50720,0.06481
1662.57845,0.06465
1660.64971,0.06455
1658.72096,0.06475
1656.79222,0.06523
1654.86347,0.06566
1652.93473,0.06575
1651.00598,0.06579
1649.07724,0.06596
1647.14849,0.06587
1645.21975,0.06542
1643.29100,0.06503
1641.36226,0.06498
1639.43351,0.06519
1637.50477,0.06543
1635.57602,0.06558
1633.64728,0.06567
1631.71853,0.06567
1629.78978,0.06565
1627.86104,0.06563
1625.93229,0.06549
1624.00355,0.06525
1622.07480,0.06502
1620.14606,0.06476
1618.21731,0.06445
1616.28857,0.06414
1614.35982,0.06386
1612.43108,0.06352
1610.50233,0.06308
1608.57359,0.06261
1606.64484,0.06228
1604.71610,0.06239
1602.78735,0.06320
1600.85861,0.06435
1598.92986,0.06519
1597.00111,0.06560
1595.07237,0.06577
1593.14362,0.06578
1591.21488,0.06571
1589.28613,0.06553
1587.35739,0.06521
1585.42864,0.06502
1583.49990,0.06515
1581.57115,0.06545
1579.64241,0.06577
1577.71366,0.06594
1575.78492,0.06566
1573.85617,0.06529
1571.92743,0.06523
1569.99868,0.06530
1568.06993,0.06541
1566.14119,0.06553
1564.21244,0.06550
1562.28370,0.06537
1560.35495,0.06532
1558.42621,0.06513
1556.49746,0.06478
1554.56872,0.06455
1552.63997,0.06443
1550.71123,0.06427
1548.78248,0.06403
1546.85374,0.06387
1544.92499,0.06390
1542.99625,0.06397
1541.06750,0.06397
1539.13876,0.06392
1537.21001,0.06404
1535.28126,0.06435
1533.35252,0.06440
1531.42377,0.06409
1529.49503,0.06391
1527.56628,0.06403
1525.63754,0.06422
1523.70879,0.06433
1521.78005,0.06435
1519.85130,0.06414
1517.92256,0.06368
1515.99381,0.06306
1514.06507,0.06264
1512.13632,0.06254
1510.20758,0.06253
1508.27883,0.06243
1506.35008,0.06198
1504.42134,0.06120
1502.49259,0.06041
1500.56385,0.05956
1498.63510,0.05865
1496.70636,0.05838
1494.77761,0.06014
1492.84887,0.06380
1490.92012,0.06728
1488.99138,0.06858
1487.06263,0.06809
1485.13389,0.06731
1483.20514,0.06663
1481.27640,0.06602
1479.34765,0.06555
1477.41891,0.06522
1475.49016,0.06493
1473.56141,0.06455
1471.63267,0.06403
1469.70392,0.06366
1467.77518,0.06344
1465.84643,0.06303
1463.91769,0.06243
1461.98894,0.06189
1460.06020,0.06124
1458.13145,0.06020
1456.20271,0.05954
1454.27396,0.06095
1452.34522,0.06407
1450.41647,0.06691
1448.48773,0.06822
1446.55898,0.06848
1444.63024,0.06842
1442.70149,0.06819
1440.77274,0.06787
1438.84400,0.06775
1436.91525,0.06779
1434.98651,0.06770
1433.05776,0.06744
1431.12902,0.06715
1429.20027,0.06687
1427.27153,0.06661
1425.34278,0.06636
1423.41404,0.06615
1421.48529,0.06605
1419.55655,0.06592
1417.62780,0.06580
1415.69906,0.06586
1413.77031,0.06592
1411.84156,0.06584
1409.91282,0.06567
1407.98407,0.06548
1406.05533,0.06525
1404.12658,0.06495
1402.19784,0.06478
1400.26909,0.06481
1398.34035,0.06483
1396.41160,0.06474
1394.48286,0.06469
1392.55411,0.06471
1390.62537,0.06462
1388.69662,0.06439
1386.76788,0.06410
1384.83913,0.06393
1382.91039,0.06400
1380.98164,0.06417
1379.05289,0.06431
1377.12415,0.06447
1375.19540,0.06454
1373.26666,0.06451
1371.33791,0.06454
1369.40917,0.06465
1367.48042,0.06475
1365.55168,0.06472
1363.62293,0.06455
1361.69419,0.06447
1359.76544,0.06462
1357.83670,0.06485
1355.90795,0.06487
1353.97921,0.06460
1352.05046,0.06444
1350.12172,0.06464
1348.19297,0.06490
1346.26422,0.06494
1344.33548,0.06483
1342.40673,0.06484
1340.47799,0.06499
1338.54924,0.06504
1336.62050,0.06490
1334.69175,0.06478
1332.76301,0.06474
1330.83426,0.06463
1328.90552,0.06440
1326.97677,0.06426
1325.04803,0.06431
1323.11928,0.06441
1321.19054,0.06454
1319.26179,0.06471
1317.33304,0.06477
1315.40430,0.06462
1313.47555,0.06440
1311.54681,0.06443
1309.61806,0.06469
1307.68932,0.06483
1305.76057,0.06470
1303.83183,0.06452
1301.90308,0.06453
1299.97434,0.06463
1298.04559,0.06463
1296.11685,0.06460
1294.18810,0.06450
1292.25936,0.06432
1290.33061,0.06429
1288.40187,0.06448
1286.47312,0.06465
1284.54437,0.06465
1282.61563,0.06463
1280.68688,0.06469
1278.75814,0.06472
1276.82939,0.06475
1274.90065,0.06481
1272.97190,0.06488
1271.04316,0.06499
1269.11441,0.06516
1267.18567,0.06531
1265.25692,0.06526
1263.32818,0.06501
1261.39943,0.06493
1259.47069,0.06509
1257.54194,0.06517
1255.61320,0.06513
1253.68445,0.06512
1251.75570,0.06516
1249.82696,0.06515
1247.89821,0.06493
1245.96947,0.06458
1244.04072,0.06447
1242.11198,0.06466
1240.18323,0.06483
1238.25449,0.06471
1236.32574,0.06451
1234.39700,0.06448
1232.46825,0.06445
1230.53951,0.06435
1228.61076,0.06446
1226.68202,0.06466
1224.75327,0.06463
1222.82452,0.06447
1220.89578,0.06449
1218.96703,0.06469
1217.03829,0.06483
1215.10954,0.06468
1213.18080,0.06436
1211.25205,0.06420
1209.32331,0.06419
1207.39456,0.06403
1205.46582,0.06371
1203.53707,0.06346
1201.60833,0.06340
1199.67958,0.06360
1197.75084,0.06371
1195.82209,0.06347
1193.89335,0.06329
1191.96460,0.06342
1190.03585,0.06347
1188.10711,0.06332
1186.17836,0.06326
1184.24962,0.06339
1182.32087,0.06365
1180.39213,0.06400
1178.46338,0.06432
1176.53464,0.06451
1174.60589,0.06459
1172.67715,0.06460
1170.74840,0.06448
1168.81966,0.06427
1166.89091,0.06422
1164.96217,0.06435
1163.03342,0.06435
1161.10467,0.06411
1159.17593,0.06380
1157.24718,0.06365
1155.31844,0.06389
1153.38969,0.06448
1151.46095,0.06505
1149.53220,0.06530
1147.60346,0.06525
1145.67471,0.06498
1143.74597,0.06475
1141.81722,0.06488
1139.88848,0.06512
1137.95973,0.06498
1136.03099,0.06459
1134.10224,0.06443
1132.17350,0.06475
1130.24475,0.06518
1128.31600,0.06528
1126.38726,0.06508
1124.45851,0.06491
1122.52977,0.06475
1120.60102,0.06445
1118.67228,0.06409
1116.74353,0.06385
1114.81479,0.06372
1112.88604,0.06373
1110.95730,0.06395
1109.02855,0.06411
1107.09981,0.06404
1105.17106,0.06385
1103.24232,0.06349
1101.31357,0.06299
1099.38483,0.06267
1097.45608,0.06256
1095.52733,0.06252
1093.59859,0.06255
1091.66984,0.06245
1089.74110,0.06222
1087.81235,0.06222
1085.88361,0.06230
1083.95486,0.06208
1082.02612,0.06186
1080.09737,0.06191
1078.16863,0.06200
1076.23988,0.06207
1074.31114,0.06214
1072.38239,0.06221
1070.45365,0.06235
1068.52490,0.06259
1066.59615,0.06301
1064.66741,0.06356
1062.73866,0.06386
1060.80992,0.06377
1058.88117,0.06351
1056.95243,0.06330
1055.02368,0.06329
1053.09494,0.06343
1051.16619,0.06331
1049.23745,0.06277
1047.30870,0.06230
1045.37996,0.06219
1043.45121,0.06221
1041.52247,0.06209
1039.59372,0.06193
1037.66498,0.06196
1035.73623,0.06205
1033.80748,0.06207
1031.87874,0.06237
1029.94999,0.06315
1028.02125,0.06390
1026.09250,0.06424
1024.16376,0.06445
1022.23501,0.06492
1020.30627,0.06535
1018.37752,0.06519
1016.44878,0.06473
1014.52003,0.06445
1012.59129,0.06436
1010.66254,0.06438
1008.73380,0.06436
1006.80505,0.06420
1004.87631,0.06407
1002.94756,0.06411
1001.01881,0.06419
999.09007,0.06414
997.16132,0.06404
995.23258,0.06396
993.30383,0.06387
991.37509,0.06380
989.44634,0.06375
987.51760,0.06378
985.58885,0.06382
983.66011,0.06367
981.73136,0.06338
979.80262,0.06316
977.87387,0.06318
975.94513,0.06328
974.01638,0.06315
972.08763,0.06285
970.15889,0.06268
968.23014,0.06274
966.30140,0.06286
964.37265,0.06287
962.44391,0.06303
960.51516,0.06333
958.58642,0.06348
956.65767,0.06355
954.72893,0.06352
952.80018,0.06313
950.87144,0.06261
948.94269,0.06246
947.01395,0.06267
945.08520,0.06288
943.15646,0.06302
941.22771,0.06321
939.29896,0.06324
937.37022,0.06307
935.44147,0.06307
933.51273,0.06314
931.58398,0.06299
929.65524,0.06284
927.72649,0.06274
925.79775,0.06245
923.86900,0.06208
921.94026,0.06190
920.01151,0.06180
918.08277,0.06163
916.15402,0.06144
914.22528,0.06127
912.29653,0.06131
910.36779,0.06153
908.43904,0.06173
906.51029,0.06197
904.58155,0.06220
902.65280,0.06227
900.72406,0.06236
898.79531,0.06259
896.86657,0.06264
894.93782,0.06236
893.00908,0.06217
891.08033,0.06236
889.15159,0.06249
887.22284,0.06235
885.29410,0.06208
883.36535,0.06180
881.43661,0.06173
879.50786,0.06188
877.57911,0.06207
875.65037,0.06214
873.72162,0.06209
871.79288,0.06204
869.86413,0.06206
867.93539,0.06220
866.00664,0.06227
864.07790,0.06210
862.14915,0.06183
860.22041,0.06147
858.29166,0.06107
856.36292,0.06088
854.43417,0.06083
852.50543,0.06066
850.57668,0.06055
848.64794,0.06062
846.71919,0.06060
844.79044,0.06045
842.86170,0.06047
840.93295,0.06057
839.00421,0.06056
837.07546,0.06061
835.14672,0.06072
833.21797,0.06069
831.28923,0.06053
829.36048,0.06030
827.43174,0.06007
825.50299,0.05988
823.57425,0.05970
821.64550,0.05982
819.71676,0.06015
817.78801,0.05990
815.85926,0.05915
813.93052,0.05866
812.00177,0.05855
810.07303,0.05845
808.14428,0.05842
806.21554,0.05861
804.28679,0.05869
802.35805,0.05847
800.42930,0.05811
798.50056,0.05764
796.57181,0.05723
794.64307,0.05699
792.71432,0.05664
790.78558,0.05611
788.85683,0.05562
786.92809,0.05510
784.99934,0.05458
783.07059,0.05425
781.14185,0.05391
779.21310,0.05326
777.28436,0.05251
775.35561,0.05189
773.42687,0.05156
771.49812,0.05168
769.56938,0.05202
767.64063,0.05248
765.71189,0.05326
763.78314,0.05432
761.85440,0.05549
759.92565,0.05662
757.99691,0.05785
756.06816,0.05940
754.13942,0.06094
752.21067,0.06222
750.28192,0.06358
748.35318,0.06500
746.42443,0.06601
744.49569,0.06647
742.56694,0.06654
740.63820,0.06624
738.70945,0.06526
736.78071,0.06378
734.85196,0.06263
732.92322,0.06183
730.99447,0.06083
729.06573,0.05946
727.13698,0.05804
725.20824,0.05703
723.27949,0.05640
721.35074,0.05559
719.42200,0.05411
717.49325,0.05182
715.56451,0.04907
713.63576,0.04655
711.70702,0.04402
709.77827,0.04084
707.84953,0.03829
705.92078,0.03951
703.99204,0.04755
702.06329,0.06437
700.13455,0.08859
698.20580,0.11238
696.27706,0.12490
694.34831,0.12221
692.41957,0.11079
690.49082,0.09933
688.56207,0.09134
686.63333,0.08646
684.70458,0.08364
682.77584,0.08179
680.84709,0.07973
678.91835,0.07735
676.98960,0.07564
675.06086,0.07482
673.13211,0.07433
671.20337,0.07373
669.27462,0.07296
667.34588,0.07212
665.41713,0.07138
663.48839,0.07100
661.55964,0.07070
659.63090,0.07009
657.70215,0.06913
655.77340,0.06834
653.84466,0.06883
651.91591,0.07036
649.98717,0.07095
648.05842,0.06964
646.12968,0.06779
644.20093,0.06696
642.27219,0.06704
640.34344,0.06742
638.41470,0.06756
636.48595,0.06697
634.55721,0.06613
632.62846,0.06618
630.69972,0.06682
628.77097,0.06670
626.84222,0.06610
624.91348,0.06598
622.98473,0.06596
621.05599,0.06559
619.12724,0.06509
617.19850,0.06500
615.26975,0.06575
613.34101,0.06620
611.41226,0.06573
609.48352,0.06557
607.55477,0.06566
605.62603,0.06507
603.69728,0.06446
601.76854,0.06428
599.83979,0.06334
