7497.02206,0.36978
7495.09332,0.36637
7493.16458,0.37032
7491.23584,0.37534
7489.30709,0.37711
7487.37835,0.37652
7485.44961,0.37496
7483.52087,0.37380
7481.59212,0.37462
7479.66338,0.37705
7477.73464,0.37856
7475.80590,0.37895
7473.87715,0.38090
7471.94841,0.38503
7470.01967,0.38840
7468.09093,0.38854
7466.16218,0.38728
7464.23344,0.38566
7462.30470,0.38089
7460.37596,0.37465
7458.44721,0.36928
7456.51847,0.36434
7454.58973,0.36322
7452.66099,0.36651
7450.73224,0.36971
7448.80350,0.37187
7446.87476,0.37534
7444.94602,0.37908
7443.01727,0.37925
7441.08853,0.37888
7439.15979,0.38037
7437.23105,0.37928
7435.30230,0.37602
7433.37356,0.37301
7431.44482,0.36943
7429.51608,0.36849
7427.58733,0.37178
7425.65859,0.37258
7423.72985,0.36878
7421.80111,0.36726
7419.87236,0.37029
7417.94362,0.37423
7416.01488,0.37577
7414.08614,0.37390
7412.15739,0.37152
7410.22865,0.37002
7408.29991,0.36806
7406.37117,0.36765
7404.44242,0.36939
7402.51368,0.36988
7400.58494,0.36896
7398.65620,0.36817
7396.72745,0.36753
7394.79871,0.36677
7392.86997,0.36568
7390.94123,0.36557
7389.01248,0.36664
7387.08374,0.36756
7385.15500,0.36798
7383.22626,0.36726
7381.29751,0.36718
7379.36877,0.37017
7377.44003,0.37292
7375.51129,0.37219
7373.58254,0.36900
7371.65380,0.36548
7369.72506,0.36347
7367.79632,0.36337
7365.86757,0.36528
7363.93883,0.36696
7362.01009,0.36475
7360.08135,0.36086
7358.15260,0.35919
7356.22386,0.36007
7354.29512,0.36281
7352.36638,0.36603
7350.43763,0.36765
7348.50889,0.36601
7346.58015,0.36264
7344.65141,0.36193
7342.72266,0.36475
7340.79392,0.36610
7338.86518,0.36350
7336.93644,0.36107
7335.00769,0.36101
7333.07895,0.36236
7331.15021,0.36342
7329.22147,0.36072
7327.29272,0.35496
7325.36398,0.35229
7323.43524,0.35475
7321.50650,0.35841
7319.57775,0.35986
7317.64901,0.35916
7315.72027,0.35876
7313.79153,0.35988
7311.86278,0.36063
7309.93404,0.36112
7308.00530,0.36220
7306.07656,0.36230
7304.14781,0.36142
7302.21907,0.35968
7300.29033,0.35816
7298.36159,0.36030
7296.43284,0.36327
7294.50410,0.36149
7292.57536,0.35655
7290.64662,0.35373
7288.71787,0.35659
7286.78913,0.36266
7284.86039,0.36403
7282.93165,0.36023
7281.00290,0.35831
7279.07416,0.35928
7277.14542,0.36149
7275.21668,0.36444
7273.28793,0.36437
7271.35919,0.35928
7269.43045,0.35250
7267.50171,0.35011
7265.57296,0.35360
7263.64422,0.35674
7261.71548,0.35639
7259.78674,0.35597
7257.85799,0.35768
7255.92925,0.35857
7254.00051,0.35583
7252.07177,0.35274
7250.14302,0.35441
7248.21428,0.35962
7246.28554,0.36337
7244.35680,0.36578
7242.42805,0.36830
7240.49931,0.36826
7238.57057,0.36561
7236.64183,0.36361
7234.71308,0.36221
7232.78434,0.35827
7230.85560,0.35341
7228.92686,0.35341
7226.99811,0.35808
7225.06937,0.36200
7223.14063,0.36175
7221.21189,0.35895
7219.28314,0.35701
7217.35440,0.35642
7215.42566,0.35670
7213.49692,0.35763
7211.56817,0.35679
7209.63943,0.35517
7207.71069,0.35720
7205.78195,0.36077
7203.85320,0.36199
7201.92446,0.36217
7199.99572,0.36102
7198.06698,0.35705
7196.13823,0.35361
7194.20949,0.35417
7192.28075,0.35727
7190.35201,0.36076
7188.42326,0.36174
7186.49452,0.35835
7184.56578,0.35407
7182.63704,0.35118
7180.70829,0.34866
7178.77955,0.34614
7176.85081,0.34554
7174.92207,0.34965
7172.99332,0.35502
7171.06458,0.35570
7169.13584,0.35338
7167.20710,0.35226
7165.27835,0.35130
7163.34961,0.34907
7161.42087,0.34713
7159.49213,0.34715
7157.56338,0.34971
7155.63464,0.35320
7153.70590,0.35386
7151.77716,0.35018
7149.84841,0.34572
7147.91967,0.34394
7145.99093,0.34404
7144.06219,0.34518
7142.13344,0.34772
7140.20470,0.35015
7138.27596,0.34974
7136.34722,0.34744
7134.41847,0.34726
7132.48973,0.34775
7130.56099,0.34532
7128.63225,0.34352
7126.70351,0.34610
7124.77476,0.34919
7122.84602,0.34779
7120.91728,0.34514
7118.98854,0.34525
7117.05979,0.34390
7115.13105,0.34052
7113.20231,0.34053
7111.27357,0.34255
7109.34482,0.34193
7107.41608,0.33889
7105.48734,0.33687
7103.55860,0.33830
7101.62985,0.34158
7099.70111,0.34268
7097.77237,0.34029
7095.84363,0.33608
7093.91488,0.33254
7091.98614,0.33222
7090.05740,0.33434
7088.12866,0.33531
7086.19991,0.33424
7084.27117,0.33315
7082.34243,0.33225
7080.41369,0.33022
7078.48494,0.32947
7076.55620,0.33129
7074.62746,0.33141
7072.69872,0.32890
7070.76997,0.32712
7068.84123,0.32663
7066.91249,0.32681
7064.98375,0.32704
7063.05500,0.32581
7061.12626,0.32441
7059.19752,0.32539
7057.26878,0.32546
7055.34003,0.32194
7053.41129,0.31979
7051.48255,0.32241
7049.55381,0.32571
7047.62506,0.32519
7045.69632,0.32112
7043.76758,0.31764
7041.83884,0.31836
7039.91009,0.32148
7037.98135,0.32286
7036.05261,0.32135
7034.12387,0.31793
7032.19512,0.31500
7030.26638,0.31537
7028.33764,0.31810
7026.40890,0.31929
7024.48015,0.31931
7022.55141,0.31981
7020.62267,0.31838
7018.69393,0.31552
7016.76518,0.31435
7014.83644,0.31465
7012.90770,0.31434
7010.97896,0.31299
7009.05021,0.31212
7007.12147,0.31178
7005.19273,0.31167
7003.26399,0.31171
7001.33524,0.31082
6999.40650,0.30992
6997.47776,0.30948
6995.54902,0.30842
6993.62027,0.30803
6991.69153,0.30856
6989.76279,0.30810
6987.83405,0.30727
6985.90530,0.30765
6983.97656,0.30916
6982.04782,0.31153
6980.11908,0.31269
6978.19033,0.31173
6976.26159,0.31139
6974.33285,0.31137
6972.40411,0.30992
6970.47536,0.30894
6968.54662,0.30881
6966.61788,0.30741
6964.68914,0.30536
6962.76039,0.30447
6960.83165,0.30497
6958.90291,0.30543
6956.97417,0.30394
6955.04542,0.30219
6953.11668,0.30247
6951.18794,0.30296
6949.25920,0.30290
6947.33045,0.30486
6945.40171,0.30877
6943.47297,0.30976
6941.54423,0.30687
6939.61548,0.30506
6937.68674,0.30562
6935.75800,0.30637
6933.82926,0.30678
6931.90051,0.30713
6929.97177,0.30716
6928.04303,0.30583
6926.11429,0.30337
6924.18554,0.30226
6922.25680,0.30306
6920.32806,0.30352
6918.39932,0.30381
6916.47057,0.30542
6914.54183,0.30753
6912.61309,0.30831
6910.68435,0.30666
6908.75560,0.30408
6906.82686,0.30260
6904.89812,0.30240
6902.96938,0.30361
6901.04063,0.30497
6899.11189,0.30358
6897.18315,0.29973
6895.25441,0.29832
6893.32566,0.30172
6891.39692,0.30571
6889.46818,0.30647
6887.53944,0.30531
6885.61069,0.30439
6883.68195,0.30355
6881.75321,0.30365
6879.82447,0.30582
6877.89572,0.30637
6875.96698,0.30223
6874.03824,0.29785
6872.10950,0.29808
6870.18075,0.30123
6868.25201,0.30334
6866.32327,0.30348
6864.39453,0.30350
6862.46578,0.30473
6860.53704,0.30639
6858.60830,0.30735
6856.67956,0.30772
6854.75081,0.30764
6852.82207,0.30643
6850.89333,0.30518
6848.96459,0.30478
6847.03584,0.30364
6845.10710,0.30334
6843.17836,0.30590
6841.24962,0.30862
6839.32087,0.30932
6837.39213,0.30809
6835.46339,0.30689
6833.53465,0.30743
6831.60590,0.30782
6829.67716,0.30688
6827.74842,0.30607
6825.81968,0.30511
6823.89093,0.30379
6821.96219,0.30346
6820.03345,0.30416
6818.10471,0.30572
6816.17596,0.30762
6814.24722,0.30825
6812.31848,0.30871
6810.38974,0.31084
6808.46099,0.31114
6806.53225,0.30666
6804.60351,0.30199
6802.67477,0.30178
6800.74602,0.30477
6798.81728,0.30728
6796.88854,0.30664
6794.95980,0.30366
6793.03105,0.30180
6791.10231,0.30302
6789.17357,0.30535
6787.24483,0.30560
6785.31608,0.30386
6783.38734,0.30278
6781.45860,0.30344
6779.52986,0.30397
6777.60111,0.30438
6775.67237,0.30649
6773.74363,0.30896
6771.81489,0.31008
6769.88614,0.30939
6767.95740,0.30701
6766.02866,0.30505
6764.09992,0.30427
6762.17117,0.30352
6760.24243,0.30364
6758.31369,0.30550
6756.38495,0.30807
6754.45620,0.30936
6752.52746,0.30689
6750.59872,0.30300
6748.66998,0.30239
6746.74123,0.30336
6744.81249,0.30413
6742.88375,0.30647
6740.95501,0.30869
6739.02626,0.30837
6737.09752,0.30712
6735.16878,0.30650
6733.24004,0.30649
6731.31129,0.30730
6729.38255,0.30778
6727.45381,0.30748
6725.52507,0.30811
6723.59632,0.30899
6721.66758,0.30902
6719.73884,0.30980
6717.81010,0.31114
6715.88135,0.31163
6713.95261,0.31174
6712.02387,0.31131
6710.09513,0.31027
6708.16638,0.31017
6706.23764,0.31053
6704.30890,0.30963
6702.38016,0.30805
6700.45141,0.30748
6698.52267,0.30913
6696.59393,0.31258
6694.66519,0.31523
6692.73644,0.31510
6690.80770,0.31343
6688.87896,0.31303
6686.95022,0.31369
6685.02147,0.31304
6683.09273,0.31121
6681.16399,0.30943
6679.23525,0.30817
6677.30650,0.30851
6675.37776,0.30991
6673.44902,0.31037
6671.52028,0.31050
6669.59153,0.31189
6667.66279,0.31368
6665.73405,0.31427
6663.80531,0.31344
6661.87656,0.31278
6659.94782,0.31368
6658.01908,0.31466
6656.09034,0.31400
6654.16159,0.31268
6652.23285,0.31257
6650.30411,0.31399
6648.37537,0.31502
6646.44662,0.31442
6644.51788,0.31306
6642.58914,0.31205
6640.66040,0.31247
6638.73165,0.31418
6636.80291,0.31593
6634.87417,0.31706
6632.94543,0.31652
6631.01668,0.31474
6629.08794,0.31374
6627.15920,0.31291
6625.23046,0.31272
6623.30171,0.31542
6621.37297,0.31885
6619.44423,0.32027
6617.51549,0.31953
6615.58674,0.31740
6613.65800,0.31633
6611.72926,0.31734
6609.80052,0.31844
6607.87177,0.31876
6605.94303,0.31933
6604.01429,0.32029
6602.08555,0.32080
6600.15680,0.32112
6598.22806,0.32204
6596.29932,0.32329
6594.37058,0.32397
6592.44183,0.32414
6590.51309,0.32459
6588.58435,0.32504
6586.65561,0.32469
6584.72686,0.32302
6582.79812,0.32031
6580.86938,0.31883
6578.94064,0.31980
6577.01190,0.32086
6575.08315,0.32051
6573.15441,0.31994
6571.22567,0.31958
6569.29693,0.31981
6567.36818,0.32148
6565.43944,0.32382
6563.51070,0.32472
6561.58196,0.32415
6559.65321,0.32444
6557.72447,0.32556
6555.79573,0.32598
6553.86699,0.32635
6551.93824,0.32652
6550.00950,0.32559
6548.08076,0.32521
6546.15202,0.32656
6544.22327,0.32845
6542.29453,0.32904
6540.36579,0.32706
6538.43705,0.32404
6536.50830,0.32378
6534.57956,0.32627
6532.65082,0.32709
6530.72208,0.32567
6528.79333,0.32535
6526.86459,0.32622
6524.93585,0.32698
6523.00711,0.32731
6521.07836,0.32651
6519.14962,0.32518
6517.22088,0.32470
6515.29214,0.32451
6513.36339,0.32390
6511.43465,0.32410
6509.50591,0.32545
6507.57717,0.32729
6505.64842,0.32914
6503.71968,0.33016
6501.79094,0.33106
6499.86220,0.33111
6497.93345,0.32849
6496.00471,0.32626
6494.07597,0.32683
6492.14723,0.32777
6490.21848,0.32714
6488.28974,0.32562
6486.36100,0.32499
6484.43226,0.32622
6482.50351,0.32780
6480.57477,0.32824
6478.64603,0.32880
6476.71729,0.33027
6474.78854,0.33129
6472.85980,0.33125
6470.93106,0.33026
6469.00232,0.32872
6467.07357,0.32808
6465.14483,0.32915
6463.21609,0.33042
6461.28735,0.33063
6459.35860,0.33015
6457.42986,0.32970
6455.50112,0.33026
6453.57238,0.33188
6451.64363,0.33327
6449.71489,0.33343
6447.78615,0.33235
6445.85741,0.33138
6443.92866,0.33195
6441.99992,0.33295
6440.07118,0.33274
6438.14244,0.33231
6436.21369,0.33265
6434.28495,0.33300
6432.35621,0.33300
6430.42747,0.33287
6428.49872,0.33254
6426.56998,0.33170
6424.64124,0.33078
6422.71250,0.33104
6420.78375,0.33172
6418.85501,0.33163
6416.92627,0.33203
6414.99753,0.33293
6413.06878,0.33260
6411.14004,0.33172
6409.21130,0.33114
6407.28256,0.33033
6405.35381,0.33035
6403.42507,0.33273
6401.49633,0.33537
6399.56759,0.33557
6397.63884,0.33517
6395.71010,0.33558
6393.78136,0.33521
6391.85262,0.33390
6389.92387,0.33293
6387.99513,0.33300
6386.06639,0.33319
6384.13765,0.33258
6382.20890,0.33269
6380.28016,0.33418
6378.35142,0.33540
6376.42268,0.33597
6374.49393,0.33654
6372.56519,0.33624
6370.63645,0.33475
6368.70771,0.33401
6366.77896,0.33533
6364.85022,0.33753
6362.92148,0.33823
6360.99274,0.33659
6359.06399,0.33461
6357.13525,0.33435
6355.20651,0.33492
6353.27777,0.33442
6351.34902,0.33337
6349.42028,0.33397
6347.49154,0.33641
6345.56280,0.33775
6343.63405,0.33671
6341.70531,0.33579
6339.77657,0.33592
6337.84783,0.33642
6335.91908,0.33682
6333.99034,0.33575
6332.06160,0.33449
6330.13286,0.33529
6328.20411,0.33676
6326.27537,0.33738
6324.34663,0.33758
6322.41789,0.33783
6320.48914,0.33815
6318.56040,0.33881
6316.63166,0.33973
6314.70292,0.34007
6312.77417,0.33982
6310.84543,0.34014
6308.91669,0.34092
6306.98795,0.34043
6305.05920,0.33882
6303.13046,0.33813
6301.20172,0.33863
6299.27298,0.33905
6297.34423,0.33853
6295.41549,0.33764
6293.48675,0.33805
6291.55801,0.33993
6289.62926,0.34083
6287.70052,0.33990
6285.77178,0.33907
6283.84304,0.33879
6281.91429,0.33889
6279.98555,0.33978
6278.05681,0.34036
6276.12807,0.34043
6274.19932,0.34135
6272.27058,0.34211
6270.34184,0.34090
6268.41310,0.33923
6266.48435,0.33937
6264.55561,0.34097
6262.62687,0.34277
6260.69813,0.34363
6258.76938,0.34372
6256.84064,0.34443
6254.91190,0.34509
6252.98316,0.34461
6251.05441,0.34392
6249.12567,0.34321
6247.19693,0.34243
6245.26819,0.34297
6243.33944,0.34389
6241.41070,0.34288
6239.48196,0.34165
6237.55322,0.34291
6235.62447,0.34546
6233.69573,0.34703
6231.76699,0.34743
6229.83825,0.34719
6227.90950,0.34666
6225.98076,0.34679
6224.05202,0.34784
6222.12328,0.34883
6220.19453,0.34946
6218.26579,0.34949
6216.33705,0.34888
6214.40831,0.34902
6212.47956,0.34979
6210.55082,0.34974
6208.62208,0.34864
6206.69334,0.34724
6204.76459,0.34696
6202.83585,0.34780
6200.90711,0.34797
6198.97837,0.34753
6197.04962,0.34805
6195.12088,0.34890
6193.19214,0.34882
6191.26340,0.34823
6189.33465,0.34745
6187.40591,0.34691
6185.47717,0.34769
6183.54843,0.34941
6181.61968,0.35044
6179.69094,0.35043
6177.76220,0.35000
6175.83346,0.34953
6173.90471,0.34976
6171.97597,0.35008
6170.04723,0.34960
6168.11849,0.34984
6166.18974,0.35112
6164.26100,0.35166
6162.33226,0.35109
6160.40352,0.35050
6158.47477,0.35113
6156.54603,0.35272
6154.61729,0.35334
6152.68855,0.35273
6150.75980,0.35222
6148.83106,0.35184
6146.90232,0.35128
6144.97358,0.35098
6143.04483,0.35110
6141.11609,0.35152
6139.18735,0.35250
6137.25861,0.35375
6135.32986,0.35405
6133.40112,0.35298
6131.47238,0.35155
6129.54364,0.35119
6127.61489,0.35228
6125.68615,0.35399
6123.75741,0.35523
6121.82867,0.35480
6119.89992,0.35315
6117.97118,0.35232
6116.04244,0.35286
6114.11370,0.35441
6112.18495,0.35651
6110.25621,0.35745
6108.32747,0.35660
6106.39873,0.35611
6104.46998,0.35632
6102.54124,0.35563
6100.61250,0.35472
6098.68376,0.35468
6096.75501,0.35532
6094.82627,0.35618
6092.89753,0.35612
6090.96879,0.35518
6089.04004,0.35501
6087.11130,0.35545
6085.18256,0.35520
6083.25382,0.35451
6081.32507,0.35437
6079.39633,0.35453
6077.46759,0.35383
6075.53885,0.35250
6073.61010,0.35158
6071.68136,0.35070
6069.75262,0.34998
6067.82388,0.35072
6065.89513,0.35294
6063.96639,0.35476
6062.03765,0.35450
6060.10891,0.35274
6058.18016,0.35141
6056.25142,0.35134
6054.32268,0.35199
6052.39394,0.35234
6050.46519,0.35146
6048.53645,0.34974
6046.60771,0.34919
6044.67897,0.35045
6042.75022,0.35154
6040.82148,0.35093
6038.89274,0.34961
6036.96400,0.34858
6035.03525,0.34770
6033.10651,0.34726
6031.17777,0.34665
6029.24903,0.34513
6027.32029,0.34410
6025.39154,0.34408
6023.46280,0.34385
6021.53406,0.34291
6019.60532,0.34191
6017.67657,0.34172
6015.74783,0.34170
6013.81909,0.34112
6011.89035,0.34091
6009.96160,0.34131
6008.03286,0.34121
6006.10412,0.34013
6004.17538,0.33840
6002.24663,0.33657
6000.31789,0.33608
5998.38915,0.33755
5996.46041,0.33876
5994.53166,0.33776
5992.60292,0.33596
5990.67418,0.33528
5988.74544,0.33489
5986.81669,0.33333
5984.88795,0.33149
5982.95921,0.33086
5981.03047,0.33126
5979.10172,0.33138
5977.17298,0.33056
5975.24424,0.32960
5973.31550,0.32981
5971.38675,0.33116
5969.45801,0.33202
5967.52927,0.33167
5965.60053,0.33082
5963.67178,0.32982
5961.74304,0.32876
5959.81430,0.32836
5957.88556,0.32891
5955.95681,0.32965
5954.02807,0.32973
5952.09933,0.32907
5950.17059,0.32830
5948.24184,0.32778
5946.31310,0.32723
5944.38436,0.32666
5942.45562,0.32608
5940.52687,0.32555
5938.59813,0.32548
5936.66939,0.32540
5934.74065,0.32448
5932.81190,0.32335
5930.88316,0.32323
5928.95442,0.32421
5927.02568,0.32510
5925.09693,0.32502
5923.16819,0.32438
5921.23945,0.32398
5919.31071,0.32367
5917.38196,0.32353
5915.45322,0.32411
5913.52448,0.32490
5911.59574,0.32455
5909.66699,0.32257
5907.73825,0.32050
5905.80951,0.31990
5903.88077,0.32071
5901.95202,0.32238
5900.02328,0.32362
5898.09454,0.32325
5896.16580,0.32209
5894.23705,0.32107
5892.30831,0.32037
5890.37957,0.32047
5888.45083,0.32047
5886.52208,0.31950
5884.59334,0.31896
5882.66460,0.31983
5880.73586,0.32129
5878.80711,0.32221
5876.87837,0.32254
5874.94963,0.32298
5873.02089,0.32325
5871.09214,0.32273
5869.16340,0.32186
5867.23466,0.32180
5865.30592,0.32249
5863.37717,0.32252
5861.44843,0.32197
5859.51969,0.32229
5857.59095,0.32281
5855.66220,0.32210
5853.73346,0.32135
5851.80472,0.32158
5849.87598,0.32140
5847.94723,0.32052
5846.01849,0.32024
5844.08975,0.32111
5842.16101,0.32233
5840.23226,0.32267
5838.30352,0.32229
5836.37478,0.32190
5834.44604,0.32131
5832.51729,0.32050
5830.58855,0.31993
5828.65981,0.31959
5826.73107,0.31919
5824.80232,0.31851
5822.87358,0.31737
5820.94484,0.31615
5819.01610,0.31545
5817.08735,0.31489
5815.15861,0.31451
5813.22987,0.31499
5811.30113,0.31575
5809.37238,0.31602
5807.44364,0.31569
5805.51490,0.31500
5803.58616,0.31461
5801.65741,0.31462
5799.72867,0.31480
5797.79993,0.31489
5795.87119,0.31453
5793.94244,0.31455
5792.01370,0.31562
5790.08496,0.31661
5788.15622,0.31633
5786.22747,0.31530
5784.29873,0.31508
5782.36999,0.31607
5780.44125,0.31695
5778.51250,0.31659
5776.58376,0.31602
5774.65502,0.31670
5772.72628,0.31789
5770.79753,0.31842
5768.86879,0.31840
5766.94005,0.31835
5765.01131,0.31870
5763.08256,0.31917
5761.15382,0.31953
5759.22508,0.32013
5757.29634,0.32079
5755.36759,0.32145
5753.43885,0.32219
5751.51011,0.32271
5749.58137,0.32315
5747.65262,0.32381
5745.72388,0.32470
5743.79514,0.32535
5741.86640,0.32546
5739.93765,0.32562
5738.00891,0.32559
5736.08017,0.32501
5734.15143,0.32497
5732.22268,0.32584
5730.29394,0.32666
5728.36520,0.32642
5726.43646,0.32532
5724.50771,0.32514
5722.57897,0.32628
5720.65023,0.32734
5718.72149,0.32812
5716.79274,0.32895
5714.86400,0.32950
5712.93526,0.33021
5711.00652,0.33127
5709.07777,0.33128
5707.14903,0.32954
5705.22029,0.32766
5703.29155,0.32770
5701.36280,0.32930
5699.43406,0.33030
5697.50532,0.33045
5695.57658,0.33090
5693.64783,0.33110
5691.71909,0.33029
5689.79035,0.32944
5687.86161,0.32946
5685.93286,0.32992
5684.00412,0.33023
5682.07538,0.33032
5680.14664,0.33065
5678.21789,0.33096
5676.28915,0.33073
5674.36041,0.33097
5672.43167,0.33231
5670.50292,0.33339
5668.57418,0.33340
5666.64544,0.33342
5664.71670,0.33382
5662.78795,0.33425
5660.85921,0.33474
5658.93047,0.33465
5657.00173,0.33370
5655.07298,0.33279
5653.14424,0.33235
5651.21550,0.33217
5649.28676,0.33299
5647.35801,0.33507
5645.42927,0.33588
5643.50053,0.33464
5641.57179,0.33393
5639.64304,0.33430
5637.71430,0.33432
5635.78556,0.33394
5633.85682,0.33389
5631.92807,0.33413
5629.99933,0.33476
5628.07059,0.33561
5626.14185,0.33557
5624.21310,0.33518
5622.28436,0.33566
5620.35562,0.33645
5618.42688,0.33692
5616.49813,0.33711
5614.56939,0.33654
5612.64065,0.33532
5610.71191,0.33499
5608.78316,0.33601
5606.85442,0.33719
5604.92568,0.33758
5602.99694,0.33721
5601.06819,0.33685
5599.13945,0.33676
5597.21071,0.33654
5595.28197,0.33649
5593.35322,0.33694
5591.42448,0.33758
5589.49574,0.33819
5587.56700,0.33853
5585.63825,0.33850
5583.70951,0.33842
5581.78077,0.33790
5579.85203,0.33676
5577.92328,0.33614
5575.99454,0.33688
5574.06580,0.33846
5572.13706,0.33952
5570.20831,0.33952
5568.27957,0.33930
5566.35083,0.33928
5564.42209,0.33924
5562.49334,0.33949
5560.56460,0.34011
5558.63586,0.34082
5556.70712,0.34150
5554.77837,0.34185
5552.84963,0.34165
5550.92089,0.34126
5548.99215,0.34096
5547.06340,0.34065
5545.13466,0.34063
5543.20592,0.34123
5541.27718,0.34169
5539.34843,0.34168
5537.41969,0.34196
5535.49095,0.34207
5533.56221,0.34180
5531.63346,0.34249
5529.70472,0.34392
5527.77598,0.34438
5525.84724,0.34393
5523.91849,0.34332
5521.98975,0.34243
5520.06101,0.34200
5518.13227,0.34293
5516.20352,0.34382
5514.27478,0.34360
5512.34604,0.34370
5510.41730,0.34451
5508.48855,0.34468
5506.55981,0.34416
5504.63107,0.34403
5502.70233,0.34450
5500.77358,0.34502
5498.84484,0.34560
5496.91610,0.34624
5494.98736,0.34638
5493.05861,0.34627
5491.12987,0.34658
5489.20113,0.34691
5487.27239,0.34661
5485.34365,0.34608
5483.41490,0.34617
5481.48616,0.34681
5479.55742,0.34702
5477.62868,0.34642
5475.69993,0.34592
5473.77119,0.34626
5471.84245,0.34737
5469.91371,0.34880
5467.98496,0.34982
5466.05622,0.35008
5464.12748,0.34972
5462.19874,0.34894
5460.26999,0.34825
5458.34125,0.34821
5456.41251,0.34852
5454.48377,0.34856
5452.55502,0.34857
5450.62628,0.34892
5448.69754,0.34918
5446.76880,0.34932
5444.84005,0.34987
5442.91131,0.35024
5440.98257,0.35011
5439.05383,0.35076
5437.12508,0.35203
5435.19634,0.35235
5433.26760,0.35198
5431.33886,0.35196
5429.41011,0.35212
5427.48137,0.35232
5425.55263,0.35257
5423.62389,0.35274
5421.69514,0.35321
5419.76640,0.35389
5417.83766,0.35447
5415.90892,0.35518
5413.98017,0.35585
5412.05143,0.35590
5410.12269,0.35520
5408.19395,0.35453
5406.26520,0.35470
5404.33646,0.35552
5402.40772,0.35655
5400.47898,0.35721
5398.55023,0.35677
5396.62149,0.35590
5394.69275,0.35581
5392.76401,0.35596
5390.83526,0.35586
5388.90652,0.35619
5386.97778,0.35665
5385.04904,0.35672
5383.12029,0.35684
5381.19155,0.35728
5379.26281,0.35774
5377.33407,0.35789
5375.40532,0.35753
5373.47658,0.35669
5371.54784,0.35575
5369.61910,0.35511
5367.69035,0.35519
5365.76161,0.35612
5363.83287,0.35661
5361.90413,0.35599
5359.97538,0.35543
5358.04664,0.35510
5356.11790,0.35450
5354.18916,0.35440
5352.26041,0.35471
5350.33167,0.35449
5348.40293,0.35417
5346.47419,0.35415
5344.54544,0.35404
5342.61670,0.35394
5340.68796,0.35363
5338.75922,0.35278
5336.83047,0.35179
5334.90173,0.35087
5332.97299,0.35020
5331.04425,0.34990
5329.11550,0.34955
5327.18676,0.34914
5325.25802,0.34875
5323.32928,0.34752
5321.40053,0.34540
5319.47179,0.34426
5317.54305,0.34471
5315.61431,0.34514
5313.68556,0.34459
5311.75682,0.34322
5309.82808,0.34156
5307.89934,0.34012
5305.97059,0.33874
5304.04185,0.33723
5302.11311,0.33556
5300.18437,0.33351
5298.25562,0.33187
5296.32688,0.33132
5294.39814,0.33077
5292.46940,0.32946
5290.54065,0.32779
5288.61191,0.32557
5286.68317,0.32251
5284.75443,0.31934
5282.82568,0.31678
5280.89694,0.31477
5278.96820,0.31324
5277.03946,0.31180
5275.11071,0.30965
5273.18197,0.30704
5271.25323,0.30498
5269.32449,0.30306
5267.39574,0.30003
5265.46700,0.29672
5263.53826,0.29435
5261.60952,0.29223
5259.68077,0.28966
5257.75203,0.28674
5255.82329,0.28411
5253.89455,0.28222
5251.96580,0.28060
5250.03706,0.27892
5248.10832,0.27699
5246.17958,0.27445
5244.25083,0.27195
5242.32209,0.27057
5240.39335,0.27012
5238.46461,0.26957
5236.53586,0.26848
5234.60712,0.26697
5232.67838,0.26539
5230.74964,0.26430
5228.82089,0.26350
5226.89215,0.26232
5224.96341,0.26119
5223.03467,0.26067
5221.10592,0.26050
5219.17718,0.26037
5217.24844,0.25973
5215.31970,0.25883
5213.39095,0.25846
5211.46221,0.25809
5209.53347,0.25716
5207.60473,0.25643
5205.67598,0.25641
5203.74724,0.25655
5201.81850,0.25611
5199.88976,0.25522
5197.96101,0.25477
5196.03227,0.25519
5194.10353,0.25590
5192.17479,0.25621
5190.24604,0.25629
5188.31730,0.25660
5186.38856,0.25710
5184.45982,0.25740
5182.53107,0.25726
5180.60233,0.25718
5178.67359,0.25779
5176.74485,0.25885
5174.81610,0.25973
5172.88736,0.26012
5170.95862,0.26032
5169.02988,0.26067
5167.10113,0.26104
5165.17239,0.26144
5163.24365,0.26208
5161.31491,0.26299
5159.38616,0.26387
5157.45742,0.26446
5155.52868,0.26460
5153.59994,0.26478
5151.67119,0.26558
5149.74245,0.26634
5147.81371,0.26658
5145.88497,0.26658
5143.95622,0.26683
5142.02748,0.26762
5140.09874,0.26828
5138.17000,0.26878
5136.24125,0.26983
5134.31251,0.27120
5132.38377,0.27224
5130.45503,0.27281
5128.52628,0.27350
5126.59754,0.27479
5124.66880,0.27623
5122.74006,0.27689
5120.81131,0.27679
5118.88257,0.27712
5116.95383,0.27790
5115.02509,0.27845
5113.09634,0.27899
5111.16760,0.27955
5109.23886,0.27989
5107.31012,0.28038
5105.38137,0.28108
5103.45263,0.28153
5101.52389,0.28196
5099.59515,0.28305
5097.66640,0.28468
5095.73766,0.28608
5093.80892,0.28684
5091.88018,0.28694
5089.95143,0.28670
5088.02269,0.28694
5086.09395,0.28776
5084.16521,0.28824
5082.23646,0.28829
5080.30772,0.28865
5078.37898,0.28935
5076.45024,0.28991
5074.52149,0.29036
5072.59275,0.29104
5070.66401,0.29182
5068.73527,0.29272
5066.80652,0.29407
5064.87778,0.29528
5062.94904,0.29549
5061.02030,0.29532
5059.09155,0.29584
5057.16281,0.29677
5055.23407,0.29739
5053.30533,0.29750
5051.37658,0.29744
5049.44784,0.29779
5047.51910,0.29875
5045.59036,0.29990
5043.66161,0.30062
5041.73287,0.30080
5039.80413,0.30116
5037.87539,0.30218
5035.94664,0.30318
5034.01790,0.30351
5032.08916,0.30359
5030.16042,0.30401
5028.23167,0.30448
5026.30293,0.30456
5024.37419,0.30452
5022.44545,0.30493
5020.51670,0.30571
5018.58796,0.30641
5016.65922,0.30688
5014.73048,0.30688
5012.80173,0.30672
5010.87299,0.30701
5008.94425,0.30758
5007.01551,0.30820
5005.08676,0.30858
5003.15802,0.30830
5001.22928,0.30792
4999.30054,0.30810
4997.37179,0.30846
4995.44305,0.30854
4993.51431,0.30840
4991.58557,0.30793
4989.65682,0.30739
4987.72808,0.30753
4985.79934,0.30806
4983.87060,0.30822
4981.94185,0.30781
4980.01311,0.30714
4978.08437,0.30676
4976.15563,0.30694
4974.22688,0.30715
4972.29814,0.30675
4970.36940,0.30603
4968.44066,0.30539
4966.51191,0.30482
4964.58317,0.30457
4962.65443,0.30452
4960.72569,0.30413
4958.79694,0.30353
4956.86820,0.30310
4954.93946,0.30276
4953.01072,0.30203
4951.08197,0.30075
4949.15323,0.29941
4947.22449,0.29857
4945.29575,0.29806
4943.36700,0.29741
4941.43826,0.29664
4939.50952,0.29592
4937.58078,0.29547
4935.65204,0.29525
4933.72329,0.29461
4931.79455,0.29318
4929.86581,0.29159
4927.93707,0.29086
4926.00832,0.29090
4924.07958,0.29047
4922.15084,0.28928
4920.22210,0.28803
4918.29335,0.28700
4916.36461,0.28620
4914.43587,0.28556
4912.50713,0.28495
4910.57838,0.28442
4908.64964,0.28390
4906.72090,0.28325
4904.79216,0.28250
4902.86341,0.28179
4900.93467,0.28113
4899.00593,0.28025
4897.07719,0.27916
4895.14844,0.27852
4893.21970,0.27844
4891.29096,0.27811
4889.36222,0.27751
4887.43347,0.27731
4885.50473,0.27715
4883.57599,0.27660
4881.64725,0.27587
4879.71850,0.27530
4877.78976,0.27502
4875.86102,0.27465
4873.93228,0.27407
4872.00353,0.27364
4870.07479,0.27304
4868.14605,0.27207
4866.21731,0.27110
4864.28856,0.27035
4862.35982,0.27006
4860.43108,0.27019
4858.50234,0.27015
4856.57359,0.26962
4854.64485,0.26894
4852.71611,0.26832
4850.78737,0.26767
4848.85862,0.26723
4846.92988,0.26722
4845.00114,0.26719
4843.07240,0.26689
4841.14365,0.26654
4839.21491,0.26607
4837.28617,0.26537
4835.35743,0.26462
4833.42868,0.26386
4831.49994,0.26301
4829.57120,0.26215
4827.64246,0.26176
4825.71371,0.26189
4823.78497,0.26188
4821.85623,0.26134
4819.92749,0.26063
4817.99874,0.26022
4816.07000,0.25997
4814.14126,0.25947
4812.21252,0.25888
4810.28377,0.25848
4808.35503,0.25807
4806.42629,0.25764
4804.49755,0.25737
4802.56880,0.25731
4800.64006,0.25764
4798.71132,0.25817
4796.78258,0.25823
4794.85383,0.25780
4792.92509,0.25728
4790.99635,0.25679
4789.06761,0.25661
4787.13886,0.25653
4785.21012,0.25592
4783.28138,0.25531
4781.35264,0.25519
4779.42389,0.25488
4777.49515,0.25436
4775.56641,0.25445
4773.63767,0.25509
4771.70892,0.25532
4769.78018,0.25472
4767.85144,0.25394
4765.92270,0.25364
4763.99395,0.25353
4762.06521,0.25307
4760.13647,0.25281
4758.20773,0.25295
4756.27898,0.25259
4754.35024,0.25165
4752.42150,0.25097
4750.49276,0.25064
4748.56401,0.25040
4746.63527,0.25021
4744.70653,0.24998
4742.77779,0.24969
4740.84904,0.24934
4738.92030,0.24867
4736.99156,0.24794
4735.06282,0.24770
4733.13407,0.24778
4731.20533,0.24770
4729.27659,0.24735
4727.34785,0.24689
4725.41910,0.24689
4723.49036,0.24745
4721.56162,0.24758
4719.63288,0.24699
4717.70413,0.24657
4715.77539,0.24663
4713.84665,0.24643
4711.91791,0.24580
4709.98916,0.24554
4708.06042,0.24580
4706.13168,0.24609
4704.20294,0.24630
4702.27419,0.24632
4700.34545,0.24594
4698.41671,0.24523
4696.48797,0.24440
4694.55922,0.24361
4692.63048,0.24315
4690.70174,0.24314
4688.77300,0.24313
4686.84425,0.24276
4684.91551,0.24248
4682.98677,0.24270
4681.05803,0.24283
4679.12928,0.24250
4677.20054,0.24220
4675.27180,0.24239
4673.34306,0.24303
4671.41431,0.24364
4669.48557,0.24395
4667.55683,0.24420
4665.62809,0.24472
4663.69934,0.24536
4661.77060,0.24563
4659.84186,0.24575
4657.91312,0.24634
4655.98437,0.24743
4654.05563,0.24866
4652.12689,0.24957
4650.19815,0.25006
4648.26940,0.25056
4646.34066,0.25126
4644.41192,0.25199
4642.48318,0.25261
4640.55443,0.25297
4638.62569,0.25306
4636.69695,0.25307
4634.76821,0.25313
4632.83946,0.25322
4630.91072,0.25334
4628.98198,0.25351
4627.05324,0.25379
4625.12449,0.25410
4623.19575,0.25419
4621.26701,0.25418
4619.33827,0.25450
4617.40952,0.25534
4615.48078,0.25648
4613.55204,0.25767
4611.62330,0.25874
4609.69455,0.25965
4607.76581,0.26025
4605.83707,0.26053
4603.90833,0.26087
4601.97958,0.26168
4600.05084,0.26292
4598.12210,0.26416
4596.19336,0.26492
4594.26461,0.26508
4592.33587,0.26512
4590.40713,0.26542
4588.47839,0.26594
4586.54964,0.26655
4584.62090,0.26701
4582.69216,0.26715
4580.76342,0.26720
4578.83467,0.26738
4576.90593,0.26763
4574.97719,0.26769
4573.04845,0.26765
4571.11970,0.26789
4569.19096,0.26837
4567.26222,0.26895
4565.33348,0.26955
4563.40473,0.26996
4561.47599,0.27019
4559.54725,0.27024
4557.61851,0.27007
4555.68976,0.27006
4553.76102,0.27040
4551.83228,0.27084
4549.90354,0.27139
4547.97479,0.27215
4546.04605,0.27270
4544.11731,0.27272
4542.18857,0.27243
4540.25982,0.27216
4538.33108,0.27207
4536.40234,0.27232
4534.47360,0.27280
4532.54485,0.27299
4530.61611,0.27273
4528.68737,0.27249
4526.75863,0.27236
4524.82988,0.27222
4522.90114,0.27198
4520.97240,0.27146
4519.04366,0.27101
4517.11491,0.27088
4515.18617,0.27065
4513.25743,0.27010
4511.32869,0.26933
4509.39994,0.26861
4507.47120,0.26798
4505.54246,0.26693
4503.61372,0.26554
4501.68497,0.26449
4499.75623,0.26381
4497.82749,0.26308
4495.89875,0.26223
4493.97000,0.26126
4492.04126,0.26008
4490.11252,0.25881
4488.18378,0.25746
4486.25503,0.25587
4484.32629,0.25432
4482.39755,0.25324
4480.46881,0.25220
4478.54006,0.25055
4476.61132,0.24840
4474.68258,0.24627
4472.75384,0.24421
4470.82509,0.24199
4468.89635,0.23965
4466.96761,0.23723
4465.03887,0.23458
4463.11012,0.23173
4461.18138,0.22868
4459.25264,0.22526
4457.32390,0.22196
4455.39515,0.21923
4453.46641,0.21643
4451.53767,0.21310
4449.60893,0.20969
4447.68018,0.20670
4445.75144,0.20423
4443.82270,0.20188
4441.89396,0.19910
4439.96521,0.19612
4438.03647,0.19326
4436.10773,0.19048
4434.17899,0.18783
4432.25024,0.18531
4430.32150,0.18305
4428.39276,0.18134
4426.46402,0.18015
4424.53527,0.17889
4422.60653,0.17748
4420.67779,0.17653
4418.74905,0.17588
4416.82030,0.17504
4414.89156,0.17420
4412.96282,0.17372
4411.03408,0.17363
4409.10533,0.17369
4407.17659,0.17353
4405.24785,0.17317
4403.31911,0.17326
4401.39036,0.17373
4399.46162,0.17366
4397.53288,0.17301
4395.60414,0.17255
4393.67539,0.17280
4391.74665,0.17365
4389.81791,0.17433
4387.88917,0.17424
4385.96043,0.17361
4384.03168,0.17308
4382.10294,0.17281
4380.17420,0.17261
4378.24546,0.17237
4376.31671,0.17210
4374.38797,0.17167
4372.45923,0.17083
4370.53049,0.16997
4368.60174,0.16956
4366.67300,0.16923
4364.74426,0.16849
4362.81552,0.16778
4360.88677,0.16774
4358.95803,0.16814
4357.02929,0.16818
4355.10055,0.16758
4353.17180,0.16701
4351.24306,0.16713
4349.31432,0.16739
4347.38558,0.16714
4345.45683,0.16677
4343.52809,0.16686
4341.59935,0.16724
4339.67061,0.16750
4337.74186,0.16761
4335.81312,0.16782
4333.88438,0.16800
4331.95564,0.16797
4330.02689,0.16790
4328.09815,0.16777
4326.16941,0.16749
4324.24067,0.16732
4322.31192,0.16758
4320.38318,0.16830
4318.45444,0.16937
4316.52570,0.17034
4314.59695,0.17085
4312.66821,0.17116
4310.73947,0.17138
4308.81073,0.17145
4306.88198,0.17161
4304.95324,0.17198
4303.02450,0.17251
4301.09576,0.17312
4299.16701,0.17351
4297.23827,0.17340
4295.30953,0.17306
4293.38079,0.17291
4291.45204,0.17262
4289.52330,0.17208
4287.59456,0.17194
4285.66582,0.17225
4283.73707,0.17238
4281.80833,0.17229
4279.87959,0.17249
4277.95085,0.17285
4276.02210,0.17297
4274.09336,0.17300
4272.16462,0.17332
4270.23588,0.17379
4268.30713,0.17401
4266.37839,0.17406
4264.44965,0.17432
4262.52091,0.17466
4260.59216,0.17501
4258.66342,0.17539
4256.73468,0.17576
4254.80594,0.17626
4252.87719,0.17672
4250.94845,0.17671
4249.01971,0.17650
4247.09097,0.17657
4245.16222,0.17704
4243.23348,0.17781
4241.30474,0.17845
4239.37600,0.17861
4237.44725,0.17863
4235.51851,0.17903
4233.58977,0.17965
4231.66103,0.18004
4229.73228,0.18041
4227.80354,0.18109
4225.87480,0.18193
4223.94606,0.18251
4222.01731,0.18272
4220.08857,0.18266
4218.15983,0.18253
4216.23109,0.18267
4214.30234,0.18312
4212.37360,0.18349
4210.44486,0.18352
4208.51612,0.18354
4206.58737,0.18403
4204.65863,0.18466
4202.72989,0.18497
4200.80115,0.18505
4198.87240,0.18510
4196.94366,0.18507
4195.01492,0.18481
4193.08618,0.18451
4191.15743,0.18445
4189.22869,0.18457
4187.29995,0.18463
4185.37121,0.18447
4183.44246,0.18424
4181.51372,0.18414
4179.58498,0.18411
4177.65624,0.18425
4175.72749,0.18455
4173.79875,0.18462
4171.87001,0.18438
4169.94127,0.18421
4168.01252,0.18414
4166.08378,0.18399
4164.15504,0.18396
4162.22630,0.18414
4160.29755,0.18423
4158.36881,0.18417
4156.44007,0.18408
4154.51133,0.18403
4152.58258,0.18398
4150.65384,0.18378
4148.72510,0.18337
4146.79636,0.18298
4144.86761,0.18269
4142.93887,0.18237
4141.01013,0.18212
4139.08139,0.18194
4137.15264,0.18141
4135.22390,0.18073
4133.29516,0.18036
4131.36642,0.18011
4129.43767,0.17974
4127.50893,0.17939
4125.58019,0.17927
4123.65145,0.17936
4121.72270,0.17920
4119.79396,0.17843
4117.86522,0.17739
4115.93648,0.17665
4114.00773,0.17641
4112.07899,0.17628
4110.15025,0.17569
4108.22151,0.17473
4106.29276,0.17411
4104.36402,0.17394
4102.43528,0.17362
4100.50654,0.17283
4098.57779,0.17179
4096.64905,0.17066
4094.72031,0.16963
4092.79157,0.16877
4090.86282,0.16794
4088.93408,0.16714
4087.00534,0.16634
4085.07660,0.16546
4083.14785,0.16463
4081.21911,0.16374
4079.29037,0.16255
4077.36163,0.16134
4075.43288,0.16030
4073.50414,0.15914
4071.57540,0.15793
4069.64666,0.15698
4067.71791,0.15624
4065.78917,0.15546
4063.86043,0.15452
4061.93169,0.15362
4060.00294,0.15295
4058.07420,0.15266
4056.14546,0.15275
4054.21672,0.15283
4052.28797,0.15259
4050.35923,0.15204
4048.43049,0.15138
4046.50175,0.15090
4044.57300,0.15063
4042.64426,0.15051
4040.71552,0.15045
4038.78678,0.15020
4036.85803,0.14985
4034.92929,0.14970
4033.00055,0.14968
4031.07181,0.14966
4029.14306,0.14974
4027.21432,0.14968
4025.28558,0.14938
4023.35684,0.14913
4021.42809,0.14884
4019.49935,0.14842
4017.57061,0.14831
4015.64187,0.14870
4013.71312,0.14919
4011.78438,0.14924
4009.85564,0.14904
4007.92690,0.14903
4005.99815,0.14914
4004.06941,0.14910
4002.14067,0.14906
4000.21193,0.14930
3998.28318,0.14988
3996.35444,0.15058
3994.42570,0.15114
3992.49696,0.15150
3990.56821,0.15183
3988.63947,0.15222
3986.71073,0.15258
3984.78199,0.15306
3982.85324,0.15364
3980.92450,0.15410
3978.99576,0.15475
3977.06702,0.15564
3975.13827,0.15621
3973.20953,0.15637
3971.28079,0.15673
3969.35205,0.15746
3967.42330,0.15821
3965.49456,0.15888
3963.56582,0.15963
3961.63708,0.16053
3959.70833,0.16133
3957.77959,0.16182
3955.85085,0.16230
3953.92211,0.16302
3951.99336,0.16374
3950.06462,0.16435
3948.13588,0.16497
3946.20714,0.16555
3944.27839,0.16600
3942.34965,0.16653
3940.42091,0.16721
3938.49217,0.16792
3936.56342,0.16866
3934.63468,0.16935
3932.70594,0.16998
3930.77720,0.17070
3928.84845,0.17132
3926.91971,0.17153
3924.99097,0.17169
3923.06223,0.17230
3921.13348,0.17322
3919.20474,0.17410
3917.27600,0.17473
3915.34726,0.17512
3913.41851,0.17565
3911.48977,0.17640
3909.56103,0.17706
3907.63229,0.17764
3905.70354,0.17840
3903.77480,0.17921
3901.84606,0.17969
3899.91732,0.17995
3897.98857,0.18034
3896.05983,0.18072
3894.13109,0.18091
3892.20235,0.18110
3890.27360,0.18156
3888.34486,0.18222
3886.41612,0.18280
3884.48738,0.18322
3882.55863,0.18359
3880.62989,0.18394
3878.70115,0.18422
3876.77241,0.18454
3874.84366,0.18499
3872.91492,0.18539
3870.98618,0.18573
3869.05744,0.18625
3867.12869,0.18701
3865.19995,0.18788
3863.27121,0.18877
3861.34247,0.18969
3859.41372,0.19056
3857.48498,0.19106
3855.55624,0.19123
3853.62750,0.19174
3851.69875,0.19268
3849.77001,0.19341
3847.84127,0.19393
3845.91253,0.19447
3843.98378,0.19504
3842.05504,0.19553
3840.12630,0.19593
3838.19756,0.19611
3836.26882,0.19612
3834.34007,0.19621
3832.41133,0.19649
3830.48259,0.19691
3828.55385,0.19728
3826.62510,0.19757
3824.69636,0.19802
3822.76762,0.19846
3820.83888,0.19858
3818.91013,0.19848
3816.98139,0.19826
3815.05265,0.19793
3813.12391,0.19754
3811.19516,0.19719
3809.26642,0.19702
3807.33768,0.19712
3805.40894,0.19738
3803.48019,0.19767
3801.55145,0.19789
3799.62271,0.19789
3797.69397,0.19751
3795.76522,0.19693
3793.83648,0.19664
3791.90774,0.19676
3789.97900,0.19703
3788.05025,0.19715
3786.12151,0.19694
3784.19277,0.19652
3782.26403,0.19622
3780.33528,0.19614
3778.40654,0.19607
3776.47780,0.19602
3774.54906,0.19607
3772.62031,0.19610
3770.69157,0.19599
3768.76283,0.19552
3766.83409,0.19471
3764.90534,0.19419
3762.97660,0.19405
3761.04786,0.19368
3759.11912,0.19305
3757.19037,0.19265
3755.26163,0.19242
3753.33289,0.19214
3751.40415,0.19178
3749.47540,0.19123
3747.54666,0.19060
3745.61792,0.19002
3743.68918,0.18935
3741.76043,0.18853
3739.83169,0.18767
3737.90295,0.18709
3735.97421,0.18680
3734.04546,0.18621
3732.11672,0.18508
3730.18798,0.18378
3728.25924,0.18243
3726.33049,0.18104
3724.40175,0.17964
3722.47301,0.17812
3720.54427,0.17669
3718.61552,0.17566
3716.68678,0.17457
3714.75804,0.17297
3712.82930,0.17109
3710.90055,0.16911
3708.97181,0.16697
3707.04307,0.16479
3705.11433,0.16265
3703.18558,0.16029
3701.25684,0.15741
3699.32810,0.15439
3697.39936,0.15158
3695.47061,0.14869
3693.54187,0.14557
3691.61313,0.14228
3689.68439,0.13833
3687.75564,0.13361
3685.82690,0.12897
3683.89816,0.12442
3681.96942,0.11908
3680.04067,0.11211
3678.11193,0.10438
3676.18319,0.09902
3674.25445,0.09792
3672.32570,0.09826
3670.39696,0.09732
3668.46822,0.09484
3666.53948,0.09175
3664.61073,0.08875
3662.68199,0.08596
3660.75325,0.08313
3658.82451,0.08034
3656.89576,0.07800
3654.96702,0.07607
3653.03828,0.07434
3651.10954,0.07280
3649.18079,0.07133
3647.25205,0.06986
3645.32331,0.06859
3643.39457,0.06741
3641.46582,0.06607
3639.53708,0.06479
3637.60834,0.06377
3635.67960,0.06285
3633.75085,0.06186
3631.82211,0.06101
3629.89337,0.06032
3627.96463,0.05964
3626.03588,0.05888
3624.10714,0.05808
3622.17840,0.05742
3620.24966,0.05689
3618.32091,0.05638
3616.39217,0.05585
3614.46343,0.05528
3612.53469,0.05487
3610.60594,0.05454
3608.67720,0.05404
3606.74846,0.05366
3604.81972,0.05356
3602.89097,0.05337
3600.96223,0.05289
3599.03349,0.05238
3597.10475,0.05194
3595.17600,0.05158
3593.24726,0.05129
3591.31852,0.05116
3589.38978,0.05125
3587.46103,0.05128
3585.53229,0.05081
3583.60355,0.05003
3581.67481,0.04967
3579.74606,0.04983
3577.81732,0.04989
3575.88858,0.04966
3573.95984,0.04941
3572.03109,0.04927
3570.10235,0.04938
3568.17361,0.04966
3566.24487,0.04957
3564.31612,0.04923
3562.38738,0.04913
3560.45864,0.04901
3558.52990,0.04879
3556.60115,0.04872
3554.67241,0.04841
3552.74367,0.04767
3550.81493,0.04710
3548.88618,0.04713
3546.95744,0.04760
3545.02870,0.04802
3543.09996,0.04794
3541.17121,0.04750
3539.24247,0.04716
3537.31373,0.04712
3535.38499,0.04722
3533.45624,0.04742
3531.52750,0.04760
3529.59876,0.04757
3527.67002,0.04741
3525.74127,0.04732
3523.81253,0.04734
3521.88379,0.04743
3519.95505,0.04760
3518.02630,0.04768
3516.09756,0.04754
3514.16882,0.04741
3512.24008,0.04732
3510.31133,0.04714
3508.38259,0.04697
3506.45385,0.04693
3504.52511,0.04704
3502.59636,0.04717
3500.66762,0.04713
3498.73888,0.04716
3496.81014,0.04748
3494.88139,0.04771
3492.95265,0.04759
3491.02391,0.04727
3489.09517,0.04708
3487.16642,0.04705
3485.23768,0.04693
3483.30894,0.04688
3481.38020,0.04695
3479.45145,0.04682
3477.52271,0.04654
3475.59397,0.04640
3473.66523,0.04653
3471.73648,0.04678
3469.80774,0.04691
3467.87900,0.04687
3465.95026,0.04681
3464.02151,0.04684
3462.09277,0.04704
3460.16403,0.04731
3458.23529,0.04737
3456.30654,0.04710
3454.37780,0.04692
3452.44906,0.04700
3450.52032,0.04699
3448.59157,0.04675
3446.66283,0.04661
3444.73409,0.04678
3442.80535,0.04692
3440.87660,0.04691
3438.94786,0.04694
3437.01912,0.04695
3435.09038,0.04686
3433.16163,0.04681
3431.23289,0.04678
3429.30415,0.04658
3427.37541,0.04647
3425.44666,0.04690
3423.51792,0.04744
3421.58918,0.04745
3419.66044,0.04721
3417.73169,0.04720
3415.80295,0.04737
3413.87421,0.04740
3411.94547,0.04726
3410.01672,0.04727
3408.08798,0.04743
3406.15924,0.04748
3404.23050,0.04729
3402.30175,0.04702
3400.37301,0.04688
3398.44427,0.04683
3396.51553,0.04690
3394.58678,0.04721
3392.65804,0.04765
3390.72930,0.04792
3388.80056,0.04777
3386.87181,0.04728
3384.94307,0.04691
3383.01433,0.04682
3381.08559,0.04687
3379.15684,0.04689
3377.22810,0.04698
3375.29936,0.04717
3373.37062,0.04738
3371.44187,0.04758
3369.51313,0.04762
3367.58439,0.04738
3365.65565,0.04724
3363.72690,0.04747
3361.79816,0.04779
3359.86942,0.04785
3357.94068,0.04780
3356.01193,0.04790
3354.08319,0.04802
3352.15445,0.04796
3350.22571,0.04777
3348.29696,0.04754
3346.36822,0.04728
3344.43948,0.04716
3342.51074,0.04733
3340.58199,0.04762
3338.65325,0.04764
3336.72451,0.04730
3334.79577,0.04699
3332.86702,0.04700
3330.93828,0.04733
3329.00954,0.04769
3327.08080,0.04778
3325.15205,0.04775
3323.22331,0.04792
3321.29457,0.04825
3319.36583,0.04851
3317.43708,0.04845
3315.50834,0.04802
3313.57960,0.04781
3311.65086,0.04802
3309.72211,0.04805
3307.79337,0.04782
3305.86463,0.04779
3303.93589,0.04783
3302.00714,0.04776
3300.07840,0.04791
3298.14966,0.04820
3296.22092,0.04829
3294.29217,0.04804
3292.36343,0.04753
3290.43469,0.04730
3288.50595,0.04779
3286.57721,0.04847
3284.64846,0.04859
3282.71972,0.04829
3280.79098,0.04802
3278.86224,0.04788
3276.93349,0.04802
3275.00475,0.04849
3273.07601,0.04884
3271.14727,0.04883
3269.21852,0.04865
3267.28978,0.04833
3265.36104,0.04802
3263.43230,0.04802
3261.50355,0.04823
3259.57481,0.04844
3257.64607,0.04877
3255.71733,0.04908
3253.78858,0.04914
3251.85984,0.04902
3249.93110,0.04892
3248.00236,0.04905
3246.07361,0.04910
3244.14487,0.04882
3242.21613,0.04866
3240.28739,0.04887
3238.35864,0.04914
3236.42990,0.04908
3234.50116,0.04873
3232.57242,0.04850
3230.64367,0.04861
3228.71493,0.04892
3226.78619,0.04910
3224.85745,0.04914
3222.92870,0.04922
3220.99996,0.04946
3219.07122,0.04983
3217.14248,0.04999
3215.21373,0.04991
3213.28499,0.04991
3211.35625,0.05002
3209.42751,0.05020
3207.49876,0.05035
3205.57002,0.05029
3203.64128,0.04994
3201.71254,0.04960
3199.78379,0.04981
3197.85505,0.05026
3195.92631,0.05022
3193.99757,0.04995
3192.06882,0.05001
3190.14008,0.05009
3188.21134,0.04987
3186.28260,0.04991
3184.35385,0.05036
3182.42511,0.05064
3180.49637,0.05080
3178.56763,0.05122
3176.63888,0.05159
3174.71014,0.05165
3172.78140,0.05164
3170.85266,0.05170
3168.92391,0.05172
3166.99517,0.05162
3165.06643,0.05153
3163.13769,0.05157
3161.20894,0.05158
3159.28020,0.05152
3157.35146,0.05144
3155.42272,0.05130
3153.49397,0.05137
3151.56523,0.05177
3149.63649,0.05224
3147.70775,0.05250
3145.77900,0.05224
3143.85026,0.05178
3141.92152,0.05173
3139.99278,0.05194
3138.06403,0.05210
3136.13529,0.05225
3134.20655,0.05248
3132.27781,0.05284
3130.34906,0.05311
3128.42032,0.05305
3126.49158,0.05276
3124.56284,0.05261
3122.63409,0.05282
3120.70535,0.05318
3118.77661,0.05332
3116.84787,0.05320
3114.91912,0.05299
3112.99038,0.05284
3111.06164,0.05277
3109.13290,0.05274
3107.20415,0.05289
3105.27541,0.05320
3103.34667,0.05339
3101.41793,0.05338
3099.48918,0.05331
3097.56044,0.05322
3095.63170,0.05315
3093.70296,0.05319
3091.77421,0.05321
3089.84547,0.05308
3087.91673,0.05298
3085.98799,0.05301
3084.05924,0.05310
3082.13050,0.05313
3080.20176,0.05316
3078.27302,0.05322
3076.34427,0.05326
3074.41553,0.05327
3072.48679,0.05311
3070.55805,0.05287
3068.62930,0.05281
3066.70056,0.05277
3064.77182,0.05260
3062.84308,0.05258
3060.91433,0.05293
3058.98559,0.05339
3057.05685,0.05349
3055.12811,0.05329
3053.19936,0.05316
3051.27062,0.05309
3049.34188,0.05290
3047.41314,0.05280
3045.48439,0.05285
3043.55565,0.05280
3041.62691,0.05286
3039.69817,0.05311
3037.76942,0.05321
3035.84068,0.05300
3033.91194,0.05271
3031.98320,0.05261
3030.05445,0.05273
3028.12571,0.05273
3026.19697,0.05249
3024.26823,0.05229
3022.33948,0.05225
3020.41074,0.05229
3018.48200,0.05221
3016.55326,0.05177
3014.62451,0.05101
3012.69577,0.05031
3010.76703,0.04990
3008.83829,0.04959
3006.90954,0.04917
3004.98080,0.04868
3003.05206,0.04823
3001.12332,0.04781
2999.19457,0.04750
2997.26583,0.04739
2995.33709,0.04721
2993.40835,0.04692
2991.47960,0.04668
2989.55086,0.04644
2987.62212,0.04614
2985.69338,0.04589
2983.76463,0.04575
2981.83589,0.04572
2979.90715,0.04578
2977.97841,0.04588
2976.04966,0.04600
2974.12092,0.04602
2972.19218,0.04598
2970.26344,0.04618
2968.33469,0.04666
2966.40595,0.04719
2964.47721,0.04754
2962.54847,0.04762
2960.61972,0.04753
2958.69098,0.04742
2956.76224,0.04733
2954.83350,0.04732
2952.90475,0.04733
2950.97601,0.04728
2949.04727,0.04724
2947.11853,0.04730
2945.18978,0.04739
2943.26104,0.04745
2941.33230,0.04762
2939.40356,0.04792
2937.47481,0.04811
2935.54607,0.04815
2933.61733,0.04826
2931.68859,0.04849
2929.75984,0.04877
2927.83110,0.04903
2925.90236,0.04922
2923.97362,0.04934
2922.04487,0.04956
2920.11613,0.04985
2918.18739,0.04998
2916.25865,0.04996
2914.32990,0.04995
2912.40116,0.05001
2910.47242,0.04998
2908.54368,0.04966
2906.61493,0.04934
2904.68619,0.04933
2902.75745,0.04941
2900.82871,0.04944
2898.89996,0.04952
2896.97122,0.04947
2895.04248,0.04918
2893.11374,0.04894
2891.18499,0.04902
2889.25625,0.04933
2887.32751,0.04952
2885.39877,0.04949
2883.47002,0.04938
2881.54128,0.04922
2879.61254,0.04910
2877.68380,0.04914
2875.75505,0.04938
2873.82631,0.04971
2871.89757,0.04987
2869.96883,0.04981
2868.04008,0.04975
2866.11134,0.04983
2864.18260,0.05001
2862.25386,0.05018
2860.32511,0.05035
2858.39637,0.05047
2856.46763,0.05059
2854.53889,0.05088
2852.61014,0.05139
2850.68140,0.05185
2848.75266,0.05194
2846.82392,0.05180
2844.89517,0.05182
2842.96643,0.05204
2841.03769,0.05220
2839.10895,0.05223
2837.18020,0.05244
2835.25146,0.05299
2833.32272,0.05351
2831.39398,0.05373
2829.46523,0.05391
2827.53649,0.05429
2825.60775,0.05457
2823.67901,0.05470
2821.75026,0.05500
2819.82152,0.05554
2817.89278,0.05598
2815.96404,0.05621
2814.03529,0.05645
2812.10655,0.05676
2810.17781,0.05699
2808.24907,0.05723
2806.32032,0.05752
2804.39158,0.05771
2802.46284,0.05791
2800.53410,0.05828
2798.60535,0.05862
2796.67661,0.05870
2794.74787,0.05871
2792.81913,0.05893
2790.89038,0.05947
2788.96164,0.06010
2787.03290,0.06049
2785.10416,0.06062
2783.17541,0.06074
2781.24667,0.06096
2779.31793,0.06118
2777.38919,0.06131
2775.46044,0.06137
2773.53170,0.06146
2771.60296,0.06170
2769.67422,0.06200
2767.74547,0.06215
2765.81673,0.06215
2763.88799,0.06224
2761.95925,0.06249
2760.03050,0.06274
2758.10176,0.06289
2756.17302,0.06304
2754.24428,0.06318
2752.31553,0.06330
2750.38679,0.06353
2748.45805,0.06387
2746.52931,0.06411
2744.60056,0.06411
2742.67182,0.06398
2740.74308,0.06408
2738.81434,0.06443
2736.88560,0.06464
2734.95685,0.06462
2733.02811,0.06467
2731.09937,0.06488
2729.17063,0.06521
2727.24188,0.06565
2725.31314,0.06608
2723.38440,0.06635
2721.45566,0.06659
2719.52691,0.06701
2717.59817,0.06754
2715.66943,0.06798
2713.74069,0.06824
2711.81194,0.06837
2709.88320,0.06853
2707.95446,0.06877
2706.02572,0.06898
2704.09697,0.06913
2702.16823,0.06936
2700.23949,0.06973
2698.31075,0.07021
2696.38200,0.07066
2694.45326,0.07108
2692.52452,0.07160
2690.59578,0.07209
2688.66703,0.07238
2686.73829,0.07266
2684.80955,0.07297
2682.88081,0.07313
2680.95206,0.07325
2679.02332,0.07352
2677.09458,0.07374
2675.16584,0.07378
2673.23709,0.07389
2671.30835,0.07420
2669.37961,0.07459
2667.45087,0.07481
2665.52212,0.07482
2663.59338,0.07484
2661.66464,0.07501
2659.73590,0.07528
2657.80715,0.07554
2655.87841,0.07583
2653.94967,0.07628
2652.02093,0.07674
2650.09218,0.07695
2648.16344,0.07697
2646.23470,0.07708
2644.30596,0.07732
2642.37721,0.07766
2640.44847,0.07806
2638.51973,0.07840
2636.59099,0.07861
2634.66224,0.07878
2632.73350,0.07900
2630.80476,0.07925
2628.87602,0.07955
2626.94727,0.07989
2625.01853,0.08026
2623.08979,0.08059
2621.16105,0.08075
2619.23230,0.08079
2617.30356,0.08084
2615.37482,0.08094
2613.44608,0.08100
2611.51733,0.08108
2609.58859,0.08125
2607.65985,0.08134
2605.73111,0.08131
2603.80236,0.08133
2601.87362,0.08142
2599.94488,0.08157
2598.01614,0.08189
2596.08739,0.08229
2594.15865,0.08260
2592.22991,0.08276
2590.30117,0.08287
2588.37242,0.08296
2586.44368,0.08313
2584.51494,0.08350
2582.58620,0.08383
2580.65745,0.08395
2578.72871,0.08402
2576.79997,0.08411
2574.87123,0.08417
2572.94248,0.08430
2571.01374,0.08456
2569.08500,0.08480
2567.15626,0.08497
2565.22751,0.08518
2563.29877,0.08540
2561.37003,0.08555
2559.44129,0.08563
2557.51254,0.08563
2555.58380,0.08563
2553.65506,0.08565
2551.72632,0.08578
2549.79757,0.08608
2547.86883,0.08637
2545.94009,0.08643
2544.01135,0.08651
2542.08260,0.08684
2540.15386,0.08727
2538.22512,0.08758
2536.29638,0.08774
2534.36763,0.08785
2532.43889,0.08802
2530.51015,0.08811
2528.58141,0.08818
2526.65266,0.08844
2524.72392,0.08889
2522.79518,0.08939
2520.86644,0.08976
2518.93769,0.08994
2517.00895,0.09013
2515.08021,0.09045
2513.15147,0.09076
2511.22272,0.09105
2509.29398,0.09139
2507.36524,0.09172
2505.43650,0.09194
2503.50775,0.09217
2501.57901,0.09255
2499.65027,0.09293
2497.72153,0.09320
2495.79278,0.09343
2493.86404,0.09370
2491.93530,0.09401
2490.00656,0.09441
2488.07781,0.09486
2486.14907,0.09511
2484.22033,0.09524
2482.29159,0.09560
2480.36284,0.09612
2478.43410,0.09657
2476.50536,0.09686
2474.57662,0.09704
2472.64787,0.09733
2470.71913,0.09771
2468.79039,0.09796
2466.86165,0.09816
2464.93290,0.09832
2463.00416,0.09847
2461.07542,0.09882
2459.14668,0.09922
2457.21793,0.09946
2455.28919,0.09963
2453.36045,0.09980
2451.43171,0.09999
2449.50296,0.10026
2447.57422,0.10061
2445.64548,0.10101
2443.71674,0.10138
2441.78799,0.10162
2439.85925,0.10167
2437.93051,0.10164
2436.00177,0.10173
2434.07302,0.10202
2432.14428,0.10232
2430.21554,0.10245
2428.28680,0.10255
2426.35805,0.10278
2424.42931,0.10312
2422.50057,0.10357
2420.57183,0.10402
2418.64308,0.10442
2416.71434,0.10483
2414.78560,0.10517
2412.85686,0.10537
2410.92811,0.10570
2408.99937,0.10626
2407.07063,0.10667
2405.14189,0.10666
2403.21314,0.10663
2401.28440,0.10694
2399.35566,0.10745
2397.42692,0.10781
2395.49817,0.10788
2393.56943,0.10788
2391.64069,0.10803
2389.71195,0.10827
2387.78320,0.10846
2385.85446,0.10852
2383.92572,0.10864
2381.99698,0.10893
2380.06823,0.10921
2378.13949,0.10949
2376.21075,0.10988
2374.28201,0.11022
2372.35326,0.11029
2370.42452,0.11028
2368.49578,0.11048
2366.56704,0.11081
2364.63829,0.11103
2362.70955,0.11111
2360.78081,0.11117
2358.85207,0.11125
2356.92332,0.11136
2354.99458,0.11150
2353.06584,0.11157
2351.13710,0.11177
2349.20835,0.11224
2347.27961,0.11278
2345.35087,0.11315
2343.42213,0.11338
2341.49338,0.11355
2339.56464,0.11362
2337.63590,0.11356
2335.70716,0.11360
2333.77841,0.11369
2331.84967,0.11368
2329.92093,0.11379
2327.99219,0.11410
2326.06344,0.11431
2324.13470,0.11436
2322.20596,0.11441
2320.27722,0.11457
2318.34847,0.11483
2316.41973,0.11507
2314.49099,0.11527
2312.56225,0.11550
2310.63350,0.11574
2308.70476,0.11585
2306.77602,0.11578
2304.84728,0.11566
2302.91853,0.11572
2300.98979,0.11598
2299.06105,0.11625
2297.13231,0.11650
2295.20356,0.11670
2293.27482,0.11683
2291.34608,0.11697
2289.41734,0.11716
2287.48859,0.11734
2285.55985,0.11756
2283.63111,0.11777
2281.70237,0.11788
2279.77362,0.11795
2277.84488,0.11806
2275.91614,0.11814
2273.98740,0.11811
2272.05865,0.11817
2270.12991,0.11840
2268.20117,0.11850
2266.27243,0.11842
2264.34368,0.11838
2262.41494,0.11831
2260.48620,0.11812
2258.55746,0.11797
2256.62871,0.11788
2254.69997,0.11765
2252.77123,0.11743
2250.84249,0.11745
2248.91374,0.11750
2246.98500,0.11743
2245.05626,0.11733
2243.12752,0.11723
2241.19877,0.11715
2239.27003,0.11714
2237.34129,0.11725
2235.41255,0.11735
2233.48380,0.11731
2231.55506,0.11723
2229.62632,0.11719
2227.69758,0.11721
2225.76883,0.11722
2223.84009,0.11714
2221.91135,0.11716
2219.98261,0.11735
2218.05386,0.11753
2216.12512,0.11771
2214.19638,0.11788
2212.26764,0.11787
2210.33889,0.11770
2208.41015,0.11754
2206.48141,0.11746
2204.55267,0.11744
2202.62392,0.11738
2200.69518,0.11718
2198.76644,0.11682
2196.83770,0.11635
2194.90895,0.11594
2192.98021,0.11555
2191.05147,0.11508
2189.12273,0.11455
2187.19399,0.11406
2185.26524,0.11365
2183.33650,0.11311
2181.40776,0.11238
2179.47902,0.11180
2177.55027,0.11154
2175.62153,0.11138
2173.69279,0.11103
2171.76405,0.11045
2169.83530,0.10974
2167.90656,0.10897
2165.97782,0.10827
2164.04908,0.10774
2162.12033,0.10725
2160.19159,0.10672
2158.26285,0.10632
2156.33411,0.10616
2154.40536,0.10597
2152.47662,0.10559
2150.54788,0.10514
2148.61914,0.10473
2146.69039,0.10446
2144.76165,0.10436
2142.83291,0.10417
2140.90417,0.10366
2138.97542,0.10311
2137.04668,0.10276
2135.11794,0.10252
2133.18920,0.10231
2131.26045,0.10207
2129.33171,0.10182
2127.40297,0.10167
2125.47423,0.10161
2123.54548,0.10144
2121.61674,0.10120
2119.68800,0.10101
2117.75926,0.10093
2115.83051,0.10089
2113.90177,0.10078
2111.97303,0.10061
2110.04429,0.10052
2108.11554,0.10042
2106.18680,0.10018
2104.25806,0.10003
2102.32932,0.10004
2100.40057,0.09995
2098.47183,0.09973
2096.54309,0.09959
2094.61435,0.09951
2092.68560,0.09943
2090.75686,0.09946
2088.82812,0.09964
2086.89938,0.09983
2084.97063,0.09985
2083.04189,0.09969
2081.11315,0.09958
2079.18441,0.09970
2077.25566,0.09984
2075.32692,0.09976
2073.39818,0.09957
2071.46944,0.09938
2069.54069,0.09914
2067.61195,0.09899
2065.68321,0.09907
2063.75447,0.09923
2061.82572,0.09939
2059.89698,0.09955
2057.96824,0.09972
2056.03950,0.09989
2054.11075,0.09999
2052.18201,0.09996
2050.25327,0.09990
2048.32453,0.09994
2046.39578,0.10010
2044.46704,0.10029
2042.53830,0.10037
2040.60956,0.10032
2038.68081,0.10031
2036.75207,0.10040
2034.82333,0.10046
2032.89459,0.10050
2030.96584,0.10055
2029.03710,0.10049
2027.10836,0.10040
2025.17962,0.10050
2023.25087,0.10071
2021.32213,0.10096
2019.39339,0.10122
2017.46465,0.10140
2015.53590,0.10160
2013.60716,0.10194
2011.67842,0.10229
2009.74968,0.10253
2007.82093,0.10280
2005.89219,0.10304
2003.96345,0.10306
2002.03471,0.10299
2000.10596,0.10309
1998.17722,0.10336
1996.24848,0.10361
1994.31974,0.10380
1992.39099,0.10400
1990.46225,0.10417
1988.53351,0.10428
1986.60477,0.10430
1984.67602,0.10423
1982.74728,0.10418
1980.81854,0.10423
1978.88980,0.10430
1976.96105,0.10433
1975.03231,0.10436
1973.10357,0.10442
1971.17483,0.10439
1969.24608,0.10429
1967.31734,0.10420
1965.38860,0.10406
1963.45986,0.10386
1961.53111,0.10374
1959.60237,0.10373
1957.67363,0.10371
1955.74489,0.10358
1953.81614,0.10342
1951.88740,0.10337
1949.95866,0.10350
1948.02992,0.10373
1946.10117,0.10400
1944.17243,0.10438
1942.24369,0.10487
1940.31495,0.10531
1938.38620,0.10560
1936.45746,0.10588
1934.52872,0.10626
1932.59998,0.10670
1930.67123,0.10704
1928.74249,0.10726
1926.81375,0.10741
1924.88501,0.10745
1922.95626,0.10744
1921.02752,0.10753
1919.09878,0.10764
1917.17004,0.10777
1915.24129,0.10800
1913.31255,0.10819
1911.38381,0.10823
1909.45507,0.10821
1907.52632,0.10819
1905.59758,0.10806
1903.66884,0.10782
1901.74010,0.10763
1899.81135,0.10759
1897.88261,0.10757
1895.95387,0.10739
1894.02513,0.10714
1892.09638,0.10692
1890.16764,0.10664
1888.23890,0.10637
1886.31016,0.10618
1884.38141,0.10592
1882.45267,0.10569
1880.52393,0.10558
1878.59519,0.10544
1876.66644,0.10518
1874.73770,0.10484
1872.80896,0.10447
1870.88022,0.10402
1868.95147,0.10346
1867.02273,0.10294
1865.09399,0.10236
1863.16525,0.10158
1861.23650,0.10078
1859.30776,0.10008
1857.37902,0.09940
1855.45028,0.09867
1853.52153,0.09787
1851.59279,0.09693
1849.66405,0.09586
1847.73531,0.09481
1845.80656,0.09381
1843.87782,0.09266
1841.94908,0.09153
1840.02034,0.09060
1838.09159,0.08951
1836.16285,0.08815
1834.23411,0.08692
1832.30537,0.08591
1830.37662,0.08480
1828.44788,0.08339
1826.51914,0.08186
1824.59040,0.08036
1822.66165,0.07899
1820.73291,0.07775
1818.80417,0.07648
1816.87543,0.07503
1814.94668,0.07339
1813.01794,0.07174
1811.08920,0.07011
1809.16046,0.06849
1807.23171,0.06701
1805.30297,0.06575
1803.37423,0.06444
1801.44549,0.06282
1799.51674,0.06106
1797.58800,0.05946
1795.65926,0.05798
1793.73052,0.05636
1791.80177,0.05449
1789.87303,0.05281
1787.94429,0.05138
1786.01555,0.04992
1784.08680,0.04834
1782.15806,0.04662
1780.22932,0.04489
1778.30058,0.04337
1776.37183,0.04200
1774.44309,0.04059
1772.51435,0.03903
1770.58561,0.03751
1768.65686,0.03621
1766.72812,0.03511
1764.79938,0.03416
1762.87064,0.03311
1760.94189,0.03178
1759.01315,0.03047
1757.08441,0.02945
1755.15567,0.02881
1753.22692,0.02857
1751.29818,0.02879
1749.36944,0.02948
1747.44070,0.03060
1745.51195,0.03224
1743.58321,0.03456
1741.65447,0.03749
1739.72573,0.04086
1737.79698,0.04423
1735.86824,0.04750
1733.93950,0.05121
1732.01076,0.05490
1730.08201,0.05784
1728.15327,0.06026
1726.22453,0.06226
1724.29579,0.06378
1722.36704,0.06481
1720.43830,0.06546
1718.50956,0.06574
1716.58082,0.06555
1714.65207,0.06497
1712.72333,0.06422
1710.79459,0.06348
1708.86585,0.06288
1706.93710,0.06233
1705.00836,0.06161
1703.07962,0.06089
1701.15088,0.06017
1699.22213,0.05927
1697.29339,0.05845
1695.36465,0.05771
1693.43591,0.05718
1691.50716,0.05693
1689.57842,0.05666
1687.64968,0.05636
1685.72094,0.05610
1683.79219,0.05574
1681.86345,0.05531
1679.93471,0.05491
1678.00597,0.05455
1676.07722,0.05423
1674.14848,0.05395
1672.21974,0.05365
1670.29100,0.05322
1668.36225,0.05281
1666.43351,0.05269
1664.50477,0.05270
1662.57603,0.05254
1660.64728,0.05242
1658.71854,0.05258
1656.78980,0.05281
1654.86106,0.05278
1652.93231,0.05230
1651.00357,0.05190
1649.07483,0.05178
1647.14609,0.05155
1645.21735,0.05124
1643.28860,0.05111
1641.35986,0.05109
1639.43112,0.05110
1637.50238,0.05111
1635.57363,0.05113
1633.64489,0.05116
1631.71615,0.05118
1629.78741,0.05114
1627.85866,0.05108
1625.92992,0.05100
1624.00118,0.05079
1622.07244,0.05049
1620.14369,0.05036
1618.21495,0.05042
1616.28621,0.05049
1614.35747,0.05046
1612.42872,0.05035
1610.49998,0.05022
1608.57124,0.05011
1606.64250,0.05014
1604.71375,0.05022
1602.78501,0.05017
1600.85627,0.05006
1598.92753,0.05019
1596.99878,0.05058
1595.07004,0.05094
1593.14130,0.05111
1591.21256,0.05106
1589.28381,0.05096
1587.35507,0.05095
1585.42633,0.05079
1583.49759,0.05043
1581.56884,0.05018
1579.64010,0.05023
1577.71136,0.05058
1575.78262,0.05117
1573.85387,0.05176
1571.92513,0.05208
1569.99639,0.05211
1568.06765,0.05200
1566.13890,0.05182
1564.21016,0.05155
1562.28142,0.05123
1560.35268,0.05085
1558.42393,0.05042
1556.49519,0.05011
1554.56645,0.04978
1552.63771,0.04933
1550.70896,0.04891
1548.78022,0.04857
1546.85148,0.04828
1544.92274,0.04818
1542.99399,0.04819
1541.06525,0.04796
1539.13651,0.04756
1537.20777,0.04754
1535.27902,0.04776
1533.35028,0.04786
1531.42154,0.04780
1529.49280,0.04770
1527.56405,0.04755
1525.63531,0.04733
1523.70657,0.04711
1521.77783,0.04686
1519.84908,0.04650
1517.92034,0.04614
1515.99160,0.04583
1514.06286,0.04559
1512.13411,0.04549
1510.20537,0.04565
1508.27663,0.04588
1506.34789,0.04593
1504.41914,0.04608
1502.49040,0.04637
1500.56166,0.04653
1498.63292,0.04647
1496.70417,0.04637
1494.77543,0.04630
1492.84669,0.04618
1490.91795,0.04589
1488.98920,0.04542
1487.06046,0.04482
1485.13172,0.04422
1483.20298,0.04366
1481.27423,0.04310
1479.34549,0.04257
1477.41675,0.04223
1475.48801,0.04209
1473.55926,0.04202
1471.63052,0.04198
1469.70178,0.04208
1467.77304,0.04225
1465.84429,0.04238
1463.91555,0.04244
1461.98681,0.04251
1460.05807,0.04263
1458.12932,0.04264
1456.20058,0.04269
1454.27184,0.04299
1452.34310,0.04334
1450.41435,0.04361
1448.48561,0.04395
1446.55687,0.04438
1444.62813,0.04467
1442.69938,0.04478
1440.77064,0.04491
1438.84190,0.04498
1436.91316,0.04491
1434.98441,0.04487
1433.05567,0.04493
1431.12693,0.04487
1429.19819,0.04461
1427.26944,0.04428
1425.34070,0.04384
1423.41196,0.04335
1421.48322,0.04302
1419.55447,0.04277
1417.62573,0.04249
1415.69699,0.04231
1413.76825,0.04228
1411.83950,0.04242
1409.91076,0.04272
1407.98202,0.04303
1406.05328,0.04337
1404.12453,0.04369
1402.19579,0.04378
1400.26705,0.04352
1398.33831,0.04307
1396.40956,0.04272
1394.48082,0.04261
1392.55208,0.04269
1390.62334,0.04271
1388.69459,0.04251
1386.76585,0.04238
1384.83711,0.04261
1382.90837,0.04288
1380.97962,0.04291
1379.05088,0.04294
1377.12214,0.04317
1375.19340,0.04337
1373.26465,0.04344
1371.33591,0.04353
1369.40717,0.04361
1367.47843,0.04358
1365.54968,0.04340
1363.62094,0.04309
1361.69220,0.04284
1359.76346,0.04276
1357.83471,0.04271
1355.90597,0.04262
1353.97723,0.04250
1352.04849,0.04226
1350.11974,0.04199
1348.19100,0.04188
1346.26226,0.04189
1344.33352,0.04186
1342.40477,0.04172
1340.47603,0.04151
1338.54729,0.04136
1336.61855,0.04124
1334.68980,0.04101
1332.76106,0.04071
1330.83232,0.04050
1328.90358,0.04048
1326.97483,0.04052
1325.04609,0.04038
1323.11735,0.04002
1321.18861,0.03963
1319.25986,0.03931
1317.33112,0.03906
1315.40238,0.03888
1313.47364,0.03881
1311.54489,0.03876
1309.61615,0.03859
1307.68741,0.03840
1305.75867,0.03844
1303.82992,0.03851
1301.90118,0.03838
1299.97244,0.03838
1298.04370,0.03866
1296.11495,0.03888
1294.18621,0.03894
1292.25747,0.03895
1290.32873,0.03879
1288.39998,0.03850
1286.47124,0.03836
1284.54250,0.03844
1282.61376,0.03849
1280.68501,0.03838
1278.75627,0.03830
1276.82753,0.03844
1274.89879,0.03874
1272.97004,0.03911
1271.04130,0.03953
1269.11256,0.03990
1267.18382,0.04011
1265.25507,0.04017
1263.32633,0.04031
1261.39759,0.04063
1259.46885,0.04097
1257.54010,0.04125
1255.61136,0.04157
1253.68262,0.04201
1251.75388,0.04245
1249.82513,0.04271
1247.89639,0.04279
1245.96765,0.04277
1244.03891,0.04278
1242.11016,0.04299
1240.18142,0.04342
1238.25268,0.04366
1236.32394,0.04347
1234.39519,0.04319
1232.46645,0.04328
1230.53771,0.04364
1228.60897,0.04380
1226.68022,0.04369
1224.75148,0.04367
1222.82274,0.04383
1220.89400,0.04398
1218.96525,0.04409
1217.03651,0.04408
1215.10777,0.04393
1213.17903,0.04398
1211.25028,0.04428
1209.32154,0.04452
1207.39280,0.04458
1205.46406,0.04464
1203.53531,0.04486
1201.60657,0.04525
1199.67783,0.04559
1197.74909,0.04586
1195.82034,0.04619
1193.89160,0.04646
1191.96286,0.04658
1190.03412,0.04663
1188.10537,0.04680
1186.17663,0.04705
1184.24789,0.04715
1182.31915,0.04720
1180.39040,0.04756
1178.46166,0.04820
1176.53292,0.04877
1174.60418,0.04911
1172.67543,0.04929
1170.74669,0.04947
1168.81795,0.04987
1166.88921,0.05061
1164.96046,0.05153
1163.03172,0.05245
1161.10298,0.05339
1159.17424,0.05421
1157.24549,0.05467
1155.31675,0.05497
1153.38801,0.05545
1151.45927,0.05615
1149.53052,0.05676
1147.60178,0.05701
1145.67304,0.05704
1143.74430,0.05711
1141.81555,0.05727
1139.88681,0.05742
1137.95807,0.05736
1136.02933,0.05706
1134.10058,0.05661
1132.17184,0.05615
1130.24310,0.05582
1128.31436,0.05554
1126.38561,0.05526
1124.45687,0.05507
1122.52813,0.05509
1120.59939,0.05541
1118.67064,0.05592
1116.74190,0.05646
1114.81316,0.05715
1112.88442,0.05783
1110.95567,0.05810
1109.02693,0.05803
1107.09819,0.05808
1105.16945,0.05842
1103.24070,0.05898
1101.31196,0.05956
1099.38322,0.05982
1097.45448,0.05970
1095.52574,0.05957
1093.59699,0.05963
1091.66825,0.05974
1089.73951,0.05971
1087.81077,0.05961
1085.88202,0.05955
1083.95328,0.05965
1082.02454,0.05966
1080.09580,0.05930
1078.16705,0.05919
1076.23831,0.05982
1074.30957,0.06056
1072.38083,0.06100
1070.45208,0.06137
1068.52334,0.06170
1066.59460,0.06199
1064.66586,0.06252
1062.73711,0.06328
1060.80837,0.06412
1058.87963,0.06490
1056.95089,0.06554
1055.02214,0.06609
1053.09340,0.06631
1051.16466,0.06606
1049.23592,0.06599
1047.30717,0.06640
1045.37843,0.06685
1043.44969,0.06710
1041.52095,0.06721
1039.59220,0.06711
1037.66346,0.06682
1035.73472,0.06682
1033.80598,0.06730
1031.87723,0.06783
1029.94849,0.06800
1028.01975,0.06794
1026.09101,0.06826
1024.16226,0.06894
1022.23352,0.06940
1020.30478,0.06946
1018.37604,0.06937
1016.44729,0.06936
1014.51855,0.06937
1012.58981,0.06927
1010.66107,0.06910
1008.73232,0.06885
1006.80358,0.06854
1004.87484,0.06842
1002.94610,0.06854
1001.01735,0.06865
999.08861,0.06846
997.15987,0.06804
995.23113,0.06785
993.30238,0.06819
991.37364,0.06859
989.44490,0.06865
987.51616,0.06850
985.58741,0.06844
983.65867,0.06862
981.72993,0.06896
979.80119,0.06917
977.87244,0.06912
975.94370,0.06911
974.01496,0.06925
972.08622,0.06929
970.15747,0.06917
968.22873,0.06904
966.29999,0.06887
964.37125,0.06861
962.44250,0.06847
960.51376,0.06851
958.58502,0.06859
956.65628,0.06867
954.72753,0.06857
952.79879,0.06833
950.87005,0.06829
948.94131,0.06835
947.01256,0.06819
945.08382,0.06778
943.15508,0.06730
941.22634,0.06704
939.29759,0.06696
937.36885,0.06678
935.44011,0.06641
933.51137,0.06606
931.58262,0.06589
929.65388,0.06579
927.72514,0.06560
925.79640,0.06552
923.86765,0.06572
921.93891,0.06584
920.01017,0.06558
918.08143,0.06522
916.15268,0.06503
914.22394,0.06504
912.29520,0.06514
910.36646,0.06522
908.43771,0.06526
906.50897,0.06534
904.58023,0.06546
902.65149,0.06537
900.72274,0.06496
898.79400,0.06469
896.86526,0.06496
894.93652,0.06548
893.00777,0.06570
891.07903,0.06547
889.15029,0.06529
887.22155,0.06557
885.29280,0.06604
883.36406,0.06633
881.43532,0.06651
879.50658,0.06659
877.57783,0.06633
875.64909,0.06582
873.72035,0.06552
871.79161,0.06534
869.86286,0.06494
867.93412,0.06454
866.00538,0.06438
864.07664,0.06420
862.14789,0.06393
860.21915,0.06371
858.29041,0.06352
856.36167,0.06331
854.43292,0.06312
852.50418,0.06305
850.57544,0.06289
848.64670,0.06227
846.71795,0.06177
844.78921,0.06183
842.86047,0.06171
840.93173,0.06114
839.00298,0.06066
837.07424,0.06051
835.14550,0.06051
833.21676,0.06061
831.28801,0.06077
829.35927,0.06080
827.43053,0.06082
825.50179,0.06112
823.57304,0.06140
821.64430,0.06146
819.71556,0.06162
817.78682,0.06167
815.85807,0.06121
813.92933,0.06084
812.00059,0.06131
810.07185,0.06236
808.14310,0.06320
806.21436,0.06357
804.28562,0.06374
802.35688,0.06385
800.42813,0.06380
798.49939,0.06370
796.57065,0.06349
794.64191,0.06325
792.71316,0.06322
790.78442,0.06318
788.85568,0.06283
786.92694,0.06234
784.99819,0.06207
783.06945,0.06196
781.14071,0.06159
779.21197,0.06094
777.28322,0.06042
775.35448,0.06012
773.42574,0.05995
771.49700,0.06006
769.56825,0.06026
767.63951,0.06011
765.71077,0.05986
763.78203,0.05999
761.85328,0.06033
759.92454,0.06046
757.99580,0.06045
756.06706,0.06061
754.13831,0.06069
752.20957,0.06043
750.28083,0.06005
748.35209,0.05977
746.42334,0.05964
744.49460,0.05960
742.56586,0.05972
740.63712,0.06020
738.70837,0.06084
736.77963,0.06135
734.85089,0.06182
732.92215,0.06236
730.99340,0.06287
729.06466,0.06315
727.13592,0.06311
725.20718,0.06287
723.27843,0.06252
721.34969,0.06211
719.42095,0.06182
717.49221,0.06172
715.56346,0.06171
713.63472,0.06178
711.70598,0.06162
709.77724,0.06114
707.84849,0.06096
705.91975,0.06124
703.99101,0.06160
702.06227,0.06201
700.13352,0.06264
698.20478,0.06333
696.27604,0.06398
694.34730,0.06496
692.41855,0.06626
690.48981,0.06744
688.56107,0.06845
686.63233,0.06923
684.70358,0.06969
682.77484,0.07013
680.84610,0.07044
678.91736,0.07026
676.98861,0.07002
675.05987,0.07004
673.13113,0.06975
671.20239,0.06879
669.27364,0.06742
667.34490,0.06583
665.41616,0.06403
663.48742,0.06244
661.55867,0.06151
659.62993,0.06124
657.70119,0.06078
655.77245,0.05954
653.84370,0.05842
651.91496,0.05835
649.98622,0.05865
648.05748,0.05861
646.12873,0.05848
644.19999,0.05859
642.27125,0.05882
640.34251,0.05896
638.41376,0.05892
636.48502,0.05861
634.55628,0.05799
632.62754,0.05748
630.69879,0.05713
628.77005,0.05659
626.84131,0.05630
624.91257,0.05689
622.98382,0.05761
621.05508,0.05742
619.12634,0.05672
617.19760,0.05639
615.26885,0.05687
613.34011,0.05798
611.41137,0.05864
609.48263,0.05814
607.55388,0.05703
605.62514,0.05606
603.69640,0.05566
601.76766,0.05648
599.83891,0.05789
