7497.02206,0.36453
7495.09332,0.36268
7493.16458,0.36926
7491.23584,0.37518
7489.30709,0.37866
7487.37835,0.38174
7485.44961,0.38420
7483.52087,0.38535
7481.59212,0.38440
7479.66338,0.38215
7477.73464,0.37989
7475.80590,0.37576
7473.87715,0.36896
7471.94841,0.36729
7470.01967,0.37460
7468.09093,0.38100
7466.16218,0.38010
7464.23344,0.37626
7462.30470,0.37477
7460.37596,0.37720
7458.44721,0.38090
7456.51847,0.38227
7454.58973,0.38012
7452.66099,0.37708
7450.73224,0.37692
7448.80350,0.37857
7446.87476,0.37630
7444.94602,0.36903
7443.01727,0.36361
7441.08853,0.36402
7439.15979,0.36668
7437.23105,0.36785
7435.30230,0.36756
7433.37356,0.36754
7431.44482,0.36839
7429.51608,0.37050
7427.58733,0.37350
7425.65859,0.37536
7423.72985,0.37587
7421.80111,0.37674
7419.87236,0.37719
7417.94362,0.37476
7416.01488,0.37011
7414.08614,0.36630
7412.15739,0.36379
7410.22865,0.36363
7408.29991,0.36907
7406.37117,0.37552
7404.44242,0.37442
7402.51368,0.36870
7400.58494,0.36647
7398.65620,0.36759
7396.72745,0.36708
7394.79871,0.36526
7392.86997,0.36518
7390.94123,0.36591
7389.01248,0.36691
7387.08374,0.36860
7385.15500,0.36776
7383.22626,0.36436
7381.29751,0.36406
7379.36877,0.36704
7377.44003,0.36767
7375.51129,0.36547
7373.58254,0.36352
7371.65380,0.36279
7369.72506,0.36326
7367.79632,0.36350
7365.86757,0.36217
7363.93883,0.36132
7362.01009,0.36227
7360.08135,0.36278
7358.15260,0.36207
7356.22386,0.36297
7354.29512,0.36608
7352.36638,0.36783
7350.43763,0.36680
7348.50889,0.36512
7346.58015,0.36503
7344.65141,0.36761
7342.72266,0.36971
7340.79392,0.36862
7338.86518,0.36727
7336.93644,0.36687
7335.00769,0.36490
7333.07895,0.36043
7331.15021,0.35592
7329.22147,0.35439
7327.29272,0.35514
7325.36398,0.35615
7323.43524,0.35728
7321.50650,0.35903
7319.57775,0.36086
7317.64901,0.36123
7315.72027,0.35999
7313.79153,0.35923
7311.86278,0.36039
7309.93404,0.36192
7308.00530,0.36222
7306.07656,0.36213
7304.14781,0.36180
7302.21907,0.36070
7300.29033,0.36028
7298.36159,0.36250
7296.43284,0.36606
7294.50410,0.36828
7292.57536,0.36892
7290.64662,0.36799
7288.71787,0.36519
7286.78913,0.36227
7284.86039,0.36105
7282.93165,0.35908
7281.00290,0.35318
7279.07416,0.34764
7277.14542,0.34841
7275.21668,0.35332
7273.28793,0.35654
7271.35919,0.35653
7269.43045,0.35645
7267.50171,0.35908
7265.57296,0.36255
7263.64422,0.36385
7261.71548,0.36341
7259.78674,0.36258
7257.85799,0.36127
7255.92925,0.35888
7254.00051,0.35470
7252.07177,0.35113
7250.14302,0.35228
7248.21428,0.35711
7246.28554,0.36015
7244.35680,0.35850
7242.42805,0.35666
7240.49931,0.35921
7238.57057,0.36131
7236.64183,0.35913
7234.71308,0.35822
7232.78434,0.36153
7230.85560,0.36369
7228.92686,0.36232
7226.99811,0.36029
7225.06937,0.36000
7223.14063,0.36211
7221.21189,0.36299
7219.28314,0.36064
7217.35440,0.35864
7215.42566,0.35683
7213.49692,0.35356
7211.56817,0.35131
7209.63943,0.35300
7207.71069,0.35903
7205.78195,0.36405
7203.85320,0.36280
7201.92446,0.35801
7199.99572,0.35446
7198.06698,0.35338
7196.13823,0.35248
7194.20949,0.34941
7192.28075,0.34745
7190.35201,0.34943
7188.42326,0.35052
7186.49452,0.34851
7184.56578,0.34828
7182.63704,0.35072
7180.70829,0.35056
7178.77955,0.34583
7176.85081,0.34401
7174.92207,0.35081
7172.99332,0.35758
7171.06458,0.35579
7169.13584,0.35088
7167.20710,0.34815
7165.27835,0.34543
7163.34961,0.34392
7161.42087,0.34619
7159.49213,0.34927
7157.56338,0.35154
7155.63464,0.35288
7153.70590,0.35146
7151.77716,0.34948
7149.84841,0.34887
7147.91967,0.34638
7145.99093,0.34125
7144.06219,0.33753
7142.13344,0.33862
7140.20470,0.34244
7138.27596,0.34345
7136.34722,0.34195
7134.41847,0.34206
7132.48973,0.34301
7130.56099,0.34251
7128.63225,0.34003
7126.70351,0.33708
7124.77476,0.33606
7122.84602,0.33588
7120.91728,0.33616
7118.98854,0.33909
7117.05979,0.34113
7115.13105,0.33779
7113.20231,0.33394
7111.27357,0.33535
7109.34482,0.33937
7107.41608,0.34103
7105.48734,0.33963
7103.55860,0.33698
7101.62985,0.33561
7099.70111,0.33647
7097.77237,0.33736
7095.84363,0.33709
7093.91488,0.33705
7091.98614,0.33660
7090.05740,0.33425
7088.12866,0.33182
7086.19991,0.33158
7084.27117,0.33139
7082.34243,0.32871
7080.41369,0.32752
7078.48494,0.32981
7076.55620,0.33038
7074.62746,0.32871
7072.69872,0.32775
7070.76997,0.32711
7068.84123,0.32624
7066.91249,0.32450
7064.98375,0.32272
7063.05500,0.32309
7061.12626,0.32410
7059.19752,0.32399
7057.26878,0.32393
7055.34003,0.32383
7053.41129,0.32242
7051.48255,0.32093
7049.55381,0.32138
7047.62506,0.32330
7045.69632,0.32440
7043.76758,0.32358
7041.83884,0.32193
7039.91009,0.31953
7037.98135,0.31639
7036.05261,0.31445
7034.12387,0.31399
7032.19512,0.31420
7030.26638,0.31505
7028.33764,0.31670
7026.40890,0.31876
7024.48015,0.31927
7022.55141,0.31699
7020.62267,0.31429
7018.69393,0.31441
7016.76518,0.31650
7014.83644,0.31738
7012.90770,0.31620
7010.97896,0.31317
7009.05021,0.31022
7007.12147,0.31022
7005.19273,0.31116
7003.26399,0.30936
7001.33524,0.30552
6999.40650,0.30291
6997.47776,0.30421
6995.54902,0.30820
6993.62027,0.31088
6991.69153,0.31182
6989.76279,0.31139
6987.83405,0.30817
6985.90530,0.30422
6983.97656,0.30292
6982.04782,0.30316
6980.11908,0.30253
6978.19033,0.30264
6976.26159,0.30511
6974.33285,0.30697
6972.40411,0.30617
6970.47536,0.30528
6968.54662,0.30574
6966.61788,0.30414
6964.68914,0.30013
6962.76039,0.29817
6960.83165,0.29852
6958.90291,0.29920
6956.97417,0.30060
6955.04542,0.30257
6953.11668,0.30305
6951.18794,0.30218
6949.25920,0.30332
6947.33045,0.30565
6945.40171,0.30561
6943.47297,0.30431
6941.54423,0.30324
6939.61548,0.30224
6937.68674,0.30275
6935.75800,0.30444
6933.82926,0.30449
6931.90051,0.30223
6929.97177,0.29909
6928.04303,0.29761
6926.11429,0.29853
6924.18554,0.29965
6922.25680,0.30114
6920.32806,0.30409
6918.39932,0.30688
6916.47057,0.30739
6914.54183,0.30533
6912.61309,0.30335
6910.68435,0.30340
6908.75560,0.30389
6906.82686,0.30250
6904.89812,0.29945
6902.96938,0.29716
6901.04063,0.29699
6899.11189,0.29819
6897.18315,0.29969
6895.25441,0.30121
6893.32566,0.30267
6891.39692,0.30452
6889.46818,0.30614
6887.53944,0.30593
6885.61069,0.30484
6883.68195,0.30395
6881.75321,0.30309
6879.82447,0.30293
6877.89572,0.30319
6875.96698,0.30209
6874.03824,0.30021
6872.10950,0.30059
6870.18075,0.30264
6868.25201,0.30297
6866.32327,0.30196
6864.39453,0.30179
6862.46578,0.30263
6860.53704,0.30366
6858.60830,0.30425
6856.67956,0.30376
6854.75081,0.30205
6852.82207,0.30073
6850.89333,0.30107
6848.96459,0.30242
6847.03584,0.30387
6845.10710,0.30435
6843.17836,0.30369
6841.24962,0.30309
6839.32087,0.30303
6837.39213,0.30351
6835.46339,0.30424
6833.53465,0.30408
6831.60590,0.30273
6829.67716,0.30212
6827.74842,0.30402
6825.81968,0.30673
6823.89093,0.30809
6821.96219,0.30909
6820.03345,0.30985
6818.10471,0.30809
6816.17596,0.30389
6814.24722,0.30034
6812.31848,0.29931
6810.38974,0.30024
6808.46099,0.30178
6806.53225,0.30332
6804.60351,0.30489
6802.67477,0.30642
6800.74602,0.30763
6798.81728,0.30784
6796.88854,0.30754
6794.95980,0.30762
6793.03105,0.30790
6791.10231,0.30856
6789.17357,0.30874
6787.24483,0.30805
6785.31608,0.30768
6783.38734,0.30602
6781.45860,0.30212
6779.52986,0.29952
6777.60111,0.30018
6775.67237,0.30186
6773.74363,0.30337
6771.81489,0.30592
6769.88614,0.30796
6767.95740,0.30650
6766.02866,0.30382
6764.09992,0.30383
6762.17117,0.30541
6760.24243,0.30594
6758.31369,0.30586
6756.38495,0.30656
6754.45620,0.30759
6752.52746,0.30690
6750.59872,0.30393
6748.66998,0.30140
6746.74123,0.30138
6744.81249,0.30281
6742.88375,0.30358
6740.95501,0.30278
6739.02626,0.30245
6737.09752,0.30407
6735.16878,0.30481
6733.24004,0.30321
6731.31129,0.30209
6729.38255,0.30273
6727.45381,0.30430
6725.52507,0.30719
6723.59632,0.31035
6721.66758,0.31129
6719.73884,0.31070
6717.81010,0.31042
6715.88135,0.31047
6713.95261,0.31064
6712.02387,0.31107
6710.09513,0.31204
6708.16638,0.31352
6706.23764,0.31445
6704.30890,0.31468
6702.38016,0.31473
6700.45141,0.31331
6698.52267,0.31058
6696.59393,0.30929
6694.66519,0.31021
6692.73644,0.31058
6690.80770,0.30836
6688.87896,0.30596
6686.95022,0.30628
6685.02147,0.30899
6683.09273,0.31083
6681.16399,0.31001
6679.23525,0.30933
6677.30650,0.30992
6675.37776,0.30975
6673.44902,0.30964
6671.52028,0.31044
6669.59153,0.31030
6667.66279,0.30930
6665.73405,0.31029
6663.80531,0.31347
6661.87656,0.31486
6659.94782,0.31339
6658.01908,0.31304
6656.09034,0.31448
6654.16159,0.31437
6652.23285,0.31241
6650.30411,0.31073
6648.37537,0.31044
6646.44662,0.31189
6644.51788,0.31421
6642.58914,0.31596
6640.66040,0.31705
6638.73165,0.31694
6636.80291,0.31511
6634.87417,0.31379
6632.94543,0.31334
6631.01668,0.31172
6629.08794,0.30906
6627.15920,0.30724
6625.23046,0.30864
6623.30171,0.31265
6621.37297,0.31579
6619.44423,0.31770
6617.51549,0.31878
6615.58674,0.31828
6613.65800,0.31747
6611.72926,0.31740
6609.80052,0.31756
6607.87177,0.31733
6605.94303,0.31712
6604.01429,0.31812
6602.08555,0.31972
6600.15680,0.32022
6598.22806,0.31890
6596.29932,0.31733
6594.37058,0.31704
6592.44183,0.31669
6590.51309,0.31645
6588.58435,0.31764
6586.65561,0.31934
6584.72686,0.32094
6582.79812,0.32179
6580.86938,0.32155
6578.94064,0.32066
6577.01190,0.31911
6575.08315,0.31827
6573.15441,0.31961
6571.22567,0.32177
6569.29693,0.32281
6567.36818,0.32205
6565.43944,0.32006
6563.51070,0.31810
6561.58196,0.31744
6559.65321,0.31885
6557.72447,0.32142
6555.79573,0.32444
6553.86699,0.32757
6551.93824,0.32887
6550.00950,0.32792
6548.08076,0.32652
6546.15202,0.32585
6544.22327,0.32513
6542.29453,0.32357
6540.36579,0.32297
6538.43705,0.32408
6536.50830,0.32511
6534.57956,0.32593
6532.65082,0.32749
6530.72208,0.32777
6528.79333,0.32530
6526.86459,0.32303
6524.93585,0.32208
6523.00711,0.32094
6521.07836,0.32027
6519.14962,0.32101
6517.22088,0.32377
6515.29214,0.32701
6513.36339,0.32717
6511.43465,0.32486
6509.50591,0.32305
6507.57717,0.32243
6505.64842,0.32381
6503.71968,0.32704
6501.79094,0.32905
6499.86220,0.32889
6497.93345,0.32846
6496.00471,0.32824
6494.07597,0.32761
6492.14723,0.32713
6490.21848,0.32759
6488.28974,0.32774
6486.36100,0.32679
6484.43226,0.32624
6482.50351,0.32652
6480.57477,0.32666
6478.64603,0.32627
6476.71729,0.32635
6474.78854,0.32691
6472.85980,0.32672
6470.93106,0.32684
6469.00232,0.32787
6467.07357,0.32795
6465.14483,0.32749
6463.21609,0.32838
6461.28735,0.33047
6459.35860,0.33197
6457.42986,0.33194
6455.50112,0.33093
6453.57238,0.32989
6451.64363,0.32924
6449.71489,0.32857
6447.78615,0.32809
6445.85741,0.32894
6443.92866,0.33020
6441.99992,0.33009
6440.07118,0.32961
6438.14244,0.33000
6436.21369,0.33051
6434.28495,0.33068
6432.35621,0.33008
6430.42747,0.32945
6428.49872,0.33037
6426.56998,0.33135
6424.64124,0.33143
6422.71250,0.33206
6420.78375,0.33212
6418.85501,0.33026
6416.92627,0.32852
6414.99753,0.32920
6413.06878,0.33155
6411.14004,0.33274
6409.21130,0.33202
6407.28256,0.33100
6405.35381,0.33042
6403.42507,0.33116
6401.49633,0.33354
6399.56759,0.33482
6397.63884,0.33359
6395.71010,0.33114
6393.78136,0.32845
6391.85262,0.32676
6389.92387,0.32733
6387.99513,0.32924
6386.06639,0.33045
6384.13765,0.33072
6382.20890,0.33104
6380.28016,0.33148
6378.35142,0.33160
6376.42268,0.33145
6374.49393,0.33173
6372.56519,0.33305
6370.63645,0.33478
6368.70771,0.33491
6366.77896,0.33278
6364.85022,0.33126
6362.92148,0.33242
6360.99274,0.33445
6359.06399,0.33526
6357.13525,0.33447
6355.20651,0.33260
6353.27777,0.33089
6351.34902,0.33010
6349.42028,0.33066
6347.49154,0.33271
6345.56280,0.33461
6343.63405,0.33559
6341.70531,0.33651
6339.77657,0.33606
6337.84783,0.33326
6335.91908,0.33102
6333.99034,0.33167
6332.06160,0.33412
6330.13286,0.33621
6328.20411,0.33693
6326.27537,0.33735
6324.34663,0.33812
6322.41789,0.33775
6320.48914,0.33673
6318.56040,0.33728
6316.63166,0.33843
6314.70292,0.33869
6312.77417,0.33925
6310.84543,0.33982
6308.91669,0.33908
6306.98795,0.33813
6305.05920,0.33782
6303.13046,0.33766
6301.20172,0.33755
6299.27298,0.33730
6297.34423,0.33722
6295.41549,0.33750
6293.48675,0.33771
6291.55801,0.33792
6289.62926,0.33808
6287.70052,0.33850
6285.77178,0.33880
6283.84304,0.33745
6281.91429,0.33603
6279.98555,0.33742
6278.05681,0.34056
6276.12807,0.34235
6274.19932,0.34210
6272.27058,0.34190
6270.34184,0.34233
6268.41310,0.34168
6266.48435,0.34018
6264.55561,0.33996
6262.62687,0.34089
6260.69813,0.34168
6258.76938,0.34342
6256.84064,0.34590
6254.91190,0.34581
6252.98316,0.34333
6251.05441,0.34176
6249.12567,0.34186
6247.19693,0.34233
6245.26819,0.34278
6243.33944,0.34362
6241.41070,0.34415
6239.48196,0.34437
6237.55322,0.34532
6235.62447,0.34601
6233.69573,0.34534
6231.76699,0.34394
6229.83825,0.34250
6227.90950,0.34205
6225.98076,0.34317
6224.05202,0.34463
6222.12328,0.34549
6220.19453,0.34562
6218.26579,0.34528
6216.33705,0.34520
6214.40831,0.34532
6212.47956,0.34559
6210.55082,0.34618
6208.62208,0.34613
6206.69334,0.34473
6204.76459,0.34335
6202.83585,0.34404
6200.90711,0.34601
6198.97837,0.34692
6197.04962,0.34711
6195.12088,0.34789
6193.19214,0.34876
6191.26340,0.34890
6189.33465,0.34859
6187.40591,0.34818
6185.47717,0.34762
6183.54843,0.34752
6181.61968,0.34851
6179.69094,0.34940
6177.76220,0.34875
6175.83346,0.34776
6173.90471,0.34780
6171.97597,0.34751
6170.04723,0.34612
6168.11849,0.34524
6166.18974,0.34608
6164.26100,0.34796
6162.33226,0.34946
6160.40352,0.34969
6158.47477,0.34895
6156.54603,0.34861
6154.61729,0.34946
6152.68855,0.35026
6150.75980,0.34984
6148.83106,0.34925
6146.90232,0.34919
6144.97358,0.34896
6143.04483,0.34891
6141.11609,0.34988
6139.18735,0.35105
6137.25861,0.35096
6135.32986,0.35037
6133.40112,0.35107
6131.47238,0.35223
6129.54364,0.35239
6127.61489,0.35217
6125.68615,0.35262
6123.75741,0.35363
6121.82867,0.35385
6119.89992,0.35251
6117.97118,0.35082
6116.04244,0.34957
6114.11370,0.34915
6112.18495,0.35055
6110.25621,0.35315
6108.32747,0.35498
6106.39873,0.35499
6104.46998,0.35377
6102.54124,0.35308
6100.61250,0.35324
6098.68376,0.35264
6096.75501,0.35157
6094.82627,0.35170
6092.89753,0.35211
6090.96879,0.35165
6089.04004,0.35124
6087.11130,0.35087
6085.18256,0.35017
6083.25382,0.35006
6081.32507,0.35113
6079.39633,0.35293
6077.46759,0.35414
6075.53885,0.35351
6073.61010,0.35150
6071.68136,0.34951
6069.75262,0.34815
6067.82388,0.34787
6065.89513,0.34915
6063.96639,0.35024
6062.03765,0.34964
6060.10891,0.34875
6058.18016,0.34837
6056.25142,0.34823
6054.32268,0.34853
6052.39394,0.34889
6050.46519,0.34861
6048.53645,0.34727
6046.60771,0.34526
6044.67897,0.34404
6042.75022,0.34448
6040.82148,0.34557
6038.89274,0.34555
6036.96400,0.34451
6035.03525,0.34379
6033.10651,0.34342
6031.17777,0.34300
6029.24903,0.34300
6027.32029,0.34351
6025.39154,0.34383
6023.46280,0.34319
6021.53406,0.34202
6019.60532,0.34211
6017.67657,0.34336
6015.74783,0.34363
6013.81909,0.34236
6011.89035,0.34041
6009.96160,0.33847
6008.03286,0.33727
6006.10412,0.33709
6004.17538,0.33695
6002.24663,0.33560
6000.31789,0.33364
5998.38915,0.33242
5996.46041,0.33239
5994.53166,0.33290
5992.60292,0.33259
5990.67418,0.33174
5988.74544,0.33213
5986.81669,0.33354
5984.88795,0.33407
5982.95921,0.33306
5981.03047,0.33153
5979.10172,0.33044
5977.17298,0.33023
5975.24424,0.33105
5973.31550,0.33182
5971.38675,0.33105
5969.45801,0.32896
5967.52927,0.32720
5965.60053,0.32685
5963.67178,0.32731
5961.74304,0.32748
5959.81430,0.32748
5957.88556,0.32791
5955.95681,0.32773
5954.02807,0.32570
5952.09933,0.32357
5950.17059,0.32338
5948.24184,0.32384
5946.31310,0.32357
5944.38436,0.32336
5942.45562,0.32384
5940.52687,0.32454
5938.59813,0.32483
5936.66939,0.32487
5934.74065,0.32537
5932.81190,0.32580
5930.88316,0.32531
5928.95442,0.32460
5927.02568,0.32436
5925.09693,0.32453
5923.16819,0.32498
5921.23945,0.32532
5919.31071,0.32479
5917.38196,0.32271
5915.45322,0.32072
5913.52448,0.32094
5911.59574,0.32156
5909.66699,0.32060
5907.73825,0.31925
5905.80951,0.31866
5903.88077,0.31852
5901.95202,0.31894
5900.02328,0.32030
5898.09454,0.32179
5896.16580,0.32264
5894.23705,0.32289
5892.30831,0.32254
5890.37957,0.32180
5888.45083,0.32100
5886.52208,0.32064
5884.59334,0.32107
5882.66460,0.32135
5880.73586,0.32067
5878.80711,0.32021
5876.87837,0.32085
5874.94963,0.32156
5873.02089,0.32175
5871.09214,0.32199
5869.16340,0.32220
5867.23466,0.32189
5865.30592,0.32157
5863.37717,0.32139
5861.44843,0.32083
5859.51969,0.32033
5857.59095,0.32035
5855.66220,0.32039
5853.73346,0.31987
5851.80472,0.31954
5849.87598,0.32001
5847.94723,0.31979
5846.01849,0.31900
5844.08975,0.31912
5842.16101,0.31904
5840.23226,0.31767
5838.30352,0.31591
5836.37478,0.31478
5834.44604,0.31463
5832.51729,0.31511
5830.58855,0.31548
5828.65981,0.31523
5826.73107,0.31442
5824.80232,0.31394
5822.87358,0.31462
5820.94484,0.31573
5819.01610,0.31595
5817.08735,0.31532
5815.15861,0.31460
5813.22987,0.31405
5811.30113,0.31374
5809.37238,0.31354
5807.44364,0.31306
5805.51490,0.31253
5803.58616,0.31244
5801.65741,0.31266
5799.72867,0.31307
5797.79993,0.31379
5795.87119,0.31480
5793.94244,0.31576
5792.01370,0.31612
5790.08496,0.31591
5788.15622,0.31544
5786.22747,0.31505
5784.29873,0.31500
5782.36999,0.31485
5780.44125,0.31473
5778.51250,0.31516
5776.58376,0.31563
5774.65502,0.31553
5772.72628,0.31509
5770.79753,0.31514
5768.86879,0.31599
5766.94005,0.31676
5765.01131,0.31730
5763.08256,0.31818
5761.15382,0.31879
5759.22508,0.31893
5757.29634,0.31917
5755.36759,0.31945
5753.43885,0.31989
5751.51011,0.32076
5749.58137,0.32151
5747.65262,0.32127
5745.72388,0.32015
5743.79514,0.31968
5741.86640,0.32047
5739.93765,0.32149
5738.00891,0.32255
5736.08017,0.32400
5734.15143,0.32521
5732.22268,0.32516
5730.29394,0.32417
5728.36520,0.32392
5726.43646,0.32474
5724.50771,0.32549
5722.57897,0.32589
5720.65023,0.32630
5718.72149,0.32677
5716.79274,0.32712
5714.86400,0.32703
5712.93526,0.32661
5711.00652,0.32635
5709.07777,0.32701
5707.14903,0.32872
5705.22029,0.32990
5703.29155,0.32963
5701.36280,0.32914
5699.43406,0.32949
5697.50532,0.33013
5695.57658,0.33011
5693.64783,0.32956
5691.71909,0.32921
5689.79035,0.32928
5687.86161,0.32947
5685.93286,0.32960
5684.00412,0.32991
5682.07538,0.33003
5680.14664,0.32915
5678.21789,0.32804
5676.28915,0.32794
5674.36041,0.32854
5672.43167,0.32940
5670.50292,0.33049
5668.57418,0.33116
5666.64544,0.33106
5664.71670,0.33105
5662.78795,0.33196
5660.85921,0.33300
5658.93047,0.33276
5657.00173,0.33147
5655.07298,0.33048
5653.14424,0.33025
5651.21550,0.33055
5649.28676,0.33153
5647.35801,0.33261
5645.42927,0.33303
5643.50053,0.33275
5641.57179,0.33154
5639.64304,0.33066
5637.71430,0.33140
5635.78556,0.33252
5633.85682,0.33302
5631.92807,0.33297
5629.99933,0.33261
5628.07059,0.33265
5626.14185,0.33288
5624.21310,0.33286
5622.28436,0.33353
5620.35562,0.33499
5618.42688,0.33553
5616.49813,0.33486
5614.56939,0.33488
5612.64065,0.33591
5610.71191,0.33612
5608.78316,0.33509
5606.85442,0.33409
5604.92568,0.33359
5602.99694,0.33332
5601.06819,0.33311
5599.13945,0.33303
5597.21071,0.33331
5595.28197,0.33405
5593.35322,0.33498
5591.42448,0.33579
5589.49574,0.33624
5587.56700,0.33637
5585.63825,0.33655
5583.70951,0.33662
5581.78077,0.33618
5579.85203,0.33515
5577.92328,0.33418
5575.99454,0.33447
5574.06580,0.33563
5572.13706,0.33607
5570.20831,0.33565
5568.27957,0.33564
5566.35083,0.33670
5564.42209,0.33820
5562.49334,0.33897
5560.56460,0.33876
5558.63586,0.33868
5556.70712,0.33887
5554.77837,0.33861
5552.84963,0.33831
5550.92089,0.33834
5548.99215,0.33861
5547.06340,0.33843
5545.13466,0.33717
5543.20592,0.33644
5541.27718,0.33742
5539.34843,0.33884
5537.41969,0.34007
5535.49095,0.34127
5533.56221,0.34152
5531.63346,0.34069
5529.70472,0.34003
5527.77598,0.33960
5525.84724,0.33916
5523.91849,0.33942
5521.98975,0.34029
5520.06101,0.34093
5518.13227,0.34117
5516.20352,0.34146
5514.27478,0.34205
5512.34604,0.34298
5510.41730,0.34401
5508.48855,0.34413
5506.55981,0.34307
5504.63107,0.34207
5502.70233,0.34137
5500.77358,0.34065
5498.84484,0.34071
5496.91610,0.34136
5494.98736,0.34153
5493.05861,0.34174
5491.12987,0.34269
5489.20113,0.34380
5487.27239,0.34433
5485.34365,0.34441
5483.41490,0.34450
5481.48616,0.34460
5479.55742,0.34470
5477.62868,0.34511
5475.69993,0.34582
5473.77119,0.34645
5471.84245,0.34668
5469.91371,0.34636
5467.98496,0.34575
5466.05622,0.34513
5464.12748,0.34452
5462.19874,0.34447
5460.26999,0.34512
5458.34125,0.34604
5456.41251,0.34714
5454.48377,0.34797
5452.55502,0.34842
5450.62628,0.34898
5448.69754,0.34931
5446.76880,0.34906
5444.84005,0.34883
5442.91131,0.34917
5440.98257,0.34959
5439.05383,0.34929
5437.12508,0.34868
5435.19634,0.34882
5433.26760,0.34948
5431.33886,0.35001
5429.41011,0.35024
5427.48137,0.35015
5425.55263,0.35012
5423.62389,0.35072
5421.69514,0.35189
5419.76640,0.35265
5417.83766,0.35235
5415.90892,0.35180
5413.98017,0.35167
5412.05143,0.35188
5410.12269,0.35229
5408.19395,0.35255
5406.26520,0.35213
5404.33646,0.35140
5402.40772,0.35169
5400.47898,0.35294
5398.55023,0.35379
5396.62149,0.35417
5394.69275,0.35421
5392.76401,0.35360
5390.83526,0.35299
5388.90652,0.35266
5386.97778,0.35202
5385.04904,0.35162
5383.12029,0.35223
5381.19155,0.35288
5379.26281,0.35314
5377.33407,0.35368
5375.40532,0.35370
5373.47658,0.35248
5371.54784,0.35190
5369.61910,0.35286
5367.69035,0.35344
5365.76161,0.35328
5363.83287,0.35362
5361.90413,0.35400
5359.97538,0.35353
5358.04664,0.35266
5356.11790,0.35195
5354.18916,0.35166
5352.26041,0.35195
5350.33167,0.35238
5348.40293,0.35266
5346.47419,0.35305
5344.54544,0.35303
5342.61670,0.35208
5340.68796,0.35107
5338.75922,0.35053
5336.83047,0.34980
5334.90173,0.34865
5332.97299,0.34764
5331.04425,0.34716
5329.11550,0.34669
5327.18676,0.34576
5325.25802,0.34498
5323.32928,0.34496
5321.40053,0.34497
5319.47179,0.34362
5317.54305,0.34124
5315.61431,0.33974
5313.68556,0.33933
5311.75682,0.33887
5309.82808,0.33794
5307.89934,0.33660
5305.97059,0.33520
5304.04185,0.33393
5302.11311,0.33244
5300.18437,0.33090
5298.25562,0.32982
5296.32688,0.32899
5294.39814,0.32784
5292.46940,0.32600
5290.54065,0.32326
5288.61191,0.31996
5286.68317,0.31681
5284.75443,0.31448
5282.82568,0.31297
5280.89694,0.31158
5278.96820,0.31004
5277.03946,0.30809
5275.11071,0.30506
5273.18197,0.30127
5271.25323,0.29778
5269.32449,0.29494
5267.39574,0.29228
5265.46700,0.28969
5263.53826,0.28739
5261.60952,0.28515
5259.68077,0.28273
5257.75203,0.28042
5255.82329,0.27846
5253.89455,0.27669
5251.96580,0.27475
5250.03706,0.27221
5248.10832,0.26939
5246.17958,0.26705
5244.25083,0.26498
5242.32209,0.26310
5240.39335,0.26191
5238.46461,0.26107
5236.53586,0.25995
5234.60712,0.25871
5232.67838,0.25775
5230.74964,0.25685
5228.82089,0.25562
5226.89215,0.25437
5224.96341,0.25384
5223.03467,0.25382
5221.10592,0.25358
5219.17718,0.25318
5217.24844,0.25281
5215.31970,0.25210
5213.39095,0.25106
5211.46221,0.25035
5209.53347,0.25049
5207.60473,0.25068
5205.67598,0.24987
5203.74724,0.24895
5201.81850,0.24894
5199.88976,0.24909
5197.96101,0.24905
5196.03227,0.24928
5194.10353,0.24946
5192.17479,0.24931
5190.24604,0.24916
5188.31730,0.24909
5186.38856,0.24934
5184.45982,0.25031
5182.53107,0.25149
5180.60233,0.25184
5178.67359,0.25171
5176.74485,0.25241
5174.81610,0.25356
5172.88736,0.25380
5170.95862,0.25378
5169.02988,0.25451
5167.10113,0.25508
5165.17239,0.25483
5163.24365,0.25461
5161.31491,0.25538
5159.38616,0.25676
5157.45742,0.25782
5155.52868,0.25849
5153.59994,0.25903
5151.67119,0.25962
5149.74245,0.26021
5147.81371,0.26052
5145.88497,0.26100
5143.95622,0.26186
5142.02748,0.26228
5140.09874,0.26242
5138.17000,0.26340
5136.24125,0.26502
5134.31251,0.26644
5132.38377,0.26764
5130.45503,0.26838
5128.52628,0.26848
5126.59754,0.26879
5124.66880,0.26942
5122.74006,0.26966
5120.81131,0.26994
5118.88257,0.27091
5116.95383,0.27211
5115.02509,0.27322
5113.09634,0.27417
5111.16760,0.27489
5109.23886,0.27557
5107.31012,0.27614
5105.38137,0.27678
5103.45263,0.27753
5101.52389,0.27790
5099.59515,0.27798
5097.66640,0.27825
5095.73766,0.27874
5093.80892,0.27929
5091.88018,0.28011
5089.95143,0.28138
5088.02269,0.28270
5086.09395,0.28332
5084.16521,0.28297
5082.23646,0.28260
5080.30772,0.28325
5078.37898,0.28446
5076.45024,0.28525
5074.52149,0.28590
5072.59275,0.28691
5070.66401,0.28779
5068.73527,0.28841
5066.80652,0.28898
5064.87778,0.28951
5062.94904,0.29002
5061.02030,0.29046
5059.09155,0.29092
5057.16281,0.29154
5055.23407,0.29228
5053.30533,0.29292
5051.37658,0.29332
5049.44784,0.29386
5047.51910,0.29473
5045.59036,0.29527
5043.66161,0.29527
5041.73287,0.29549
5039.80413,0.29634
5037.87539,0.29730
5035.94664,0.29766
5034.01790,0.29758
5032.08916,0.29803
5030.16042,0.29902
5028.23167,0.29974
5026.30293,0.30022
5024.37419,0.30086
5022.44545,0.30140
5020.51670,0.30169
5018.58796,0.30189
5016.65922,0.30178
5014.73048,0.30162
5012.80173,0.30217
5010.87299,0.30295
5008.94425,0.30302
5007.01551,0.30290
5005.08676,0.30339
5003.15802,0.30403
5001.22928,0.30409
4999.30054,0.30383
4997.37179,0.30401
4995.44305,0.30452
4993.51431,0.30463
4991.58557,0.30443
4989.65682,0.30458
4987.72808,0.30507
4985.79934,0.30516
4983.87060,0.30456
4981.94185,0.30384
4980.01311,0.30377
4978.08437,0.30397
4976.15563,0.30345
4974.22688,0.30245
4972.29814,0.30207
4970.36940,0.30222
4968.44066,0.30211
4966.51191,0.30171
4964.58317,0.30128
4962.65443,0.30099
4960.72569,0.30077
4958.79694,0.30016
4956.86820,0.29946
4954.93946,0.29893
4953.01072,0.29814
4951.08197,0.29733
4949.15323,0.29677
4947.22449,0.29646
4945.29575,0.29641
4943.36700,0.29572
4941.43826,0.29414
4939.50952,0.29287
4937.58078,0.29218
4935.65204,0.29141
4933.72329,0.29023
4931.79455,0.28869
4929.86581,0.28748
4927.93707,0.28699
4926.00832,0.28672
4924.07958,0.28635
4922.15084,0.28573
4920.22210,0.28476
4918.29335,0.28398
4916.36461,0.28372
4914.43587,0.28342
4912.50713,0.28249
4910.57838,0.28120
4908.64964,0.28030
4906.72090,0.27970
4904.79216,0.27879
4902.86341,0.27778
4900.93467,0.27739
4899.00593,0.27732
4897.07719,0.27685
4895.14844,0.27639
4893.21970,0.27616
4891.29096,0.27578
4889.36222,0.27509
4887.43347,0.27407
4885.50473,0.27337
4883.57599,0.27340
4881.64725,0.27351
4879.71850,0.27335
4877.78976,0.27302
4875.86102,0.27251
4873.93228,0.27194
4872.00353,0.27137
4870.07479,0.27048
4868.14605,0.26945
4866.21731,0.26910
4864.28856,0.26939
4862.35982,0.26937
4860.43108,0.26864
4858.50234,0.26770
4856.57359,0.26711
4854.64485,0.26665
4852.71611,0.26590
4850.78737,0.26502
4848.85862,0.26440
4846.92988,0.26396
4845.00114,0.26369
4843.07240,0.26359
4841.14365,0.26342
4839.21491,0.26308
4837.28617,0.26246
4835.35743,0.26169
4833.42868,0.26107
4831.49994,0.26043
4829.57120,0.25985
4827.64246,0.25977
4825.71371,0.25998
4823.78497,0.25975
4821.85623,0.25896
4819.92749,0.25795
4817.99874,0.25707
4816.07000,0.25659
4814.14126,0.25645
4812.21252,0.25624
4810.28377,0.25571
4808.35503,0.25532
4806.42629,0.25564
4804.49755,0.25639
4802.56880,0.25670
4800.64006,0.25616
4798.71132,0.25506
4796.78258,0.25424
4794.85383,0.25438
4792.92509,0.25493
4790.99635,0.25502
4789.06761,0.25477
4787.13886,0.25453
4785.21012,0.25422
4783.28138,0.25389
4781.35264,0.25336
4779.42389,0.25239
4777.49515,0.25162
4775.56641,0.25180
4773.63767,0.25247
4771.70892,0.25261
4769.78018,0.25207
4767.85144,0.25160
4765.92270,0.25158
4763.99395,0.25156
4762.06521,0.25117
4760.13647,0.25041
4758.20773,0.24974
4756.27898,0.24965
4754.35024,0.24967
4752.42150,0.24920
4750.49276,0.24876
4748.56401,0.24872
4746.63527,0.24863
4744.70653,0.24835
4742.77779,0.24792
4740.84904,0.24736
4738.92030,0.24694
4736.99156,0.24667
4735.06282,0.24638
4733.13407,0.24616
4731.20533,0.24594
4729.27659,0.24551
4727.34785,0.24520
4725.41910,0.24528
4723.49036,0.24534
4721.56162,0.24516
4719.63288,0.24509
4717.70413,0.24516
4715.77539,0.24484
4713.84665,0.24432
4711.91791,0.24423
4709.98916,0.24419
4708.06042,0.24376
4706.13168,0.24347
4704.20294,0.24360
4702.27419,0.24368
4700.34545,0.24330
4698.41671,0.24279
4696.48797,0.24240
4694.55922,0.24198
4692.63048,0.24162
4690.70174,0.24142
4688.77300,0.24127
4686.84425,0.24103
4684.91551,0.24069
4682.98677,0.24049
4681.05803,0.24065
4679.12928,0.24090
4677.20054,0.24085
4675.27180,0.24071
4673.34306,0.24090
4671.41431,0.24127
4669.48557,0.24140
4667.55683,0.24161
4665.62809,0.24230
4663.69934,0.24311
4661.77060,0.24375
4659.84186,0.24426
4657.91312,0.24500
4655.98437,0.24623
4654.05563,0.24719
4652.12689,0.24767
4650.19815,0.24849
4648.26940,0.24958
4646.34066,0.25030
4644.41192,0.25068
4642.48318,0.25100
4640.55443,0.25121
4638.62569,0.25113
4636.69695,0.25089
4634.76821,0.25095
4632.83946,0.25134
4630.91072,0.25154
4628.98198,0.25153
4627.05324,0.25163
4625.12449,0.25197
4623.19575,0.25256
4621.26701,0.25312
4619.33827,0.25327
4617.40952,0.25335
4615.48078,0.25396
4613.55204,0.25492
4611.62330,0.25582
4609.69455,0.25649
4607.76581,0.25703
4605.83707,0.25786
4603.90833,0.25899
4601.97958,0.25988
4600.05084,0.26042
4598.12210,0.26107
4596.19336,0.26203
4594.26461,0.26279
4592.33587,0.26304
4590.40713,0.26332
4588.47839,0.26389
4586.54964,0.26449
4584.62090,0.26487
4582.69216,0.26491
4580.76342,0.26496
4578.83467,0.26518
4576.90593,0.26513
4574.97719,0.26488
4573.04845,0.26514
4571.11970,0.26574
4569.19096,0.26593
4567.26222,0.26591
4565.33348,0.26632
4563.40473,0.26697
4561.47599,0.26746
4559.54725,0.26781
4557.61851,0.26798
4555.68976,0.26800
4553.76102,0.26806
4551.83228,0.26818
4549.90354,0.26846
4547.97479,0.26896
4546.04605,0.26933
4544.11731,0.26953
4542.18857,0.26984
4540.25982,0.27031
4538.33108,0.27081
4536.40234,0.27095
4534.47360,0.27065
4532.54485,0.27053
4530.61611,0.27078
4528.68737,0.27088
4526.75863,0.27053
4524.82988,0.26984
4522.90114,0.26918
4520.97240,0.26894
4519.04366,0.26874
4517.11491,0.26823
4515.18617,0.26779
4513.25743,0.26743
4511.32869,0.26692
4509.39994,0.26636
4507.47120,0.26554
4505.54246,0.26444
4503.61372,0.26348
4501.68497,0.26270
4499.75623,0.26182
4497.82749,0.26067
4495.89875,0.25938
4493.97000,0.25837
4492.04126,0.25770
4490.11252,0.25684
4488.18378,0.25552
4486.25503,0.25394
4484.32629,0.25229
4482.39755,0.25061
4480.46881,0.24900
4478.54006,0.24741
4476.61132,0.24578
4474.68258,0.24411
4472.75384,0.24210
4470.82509,0.23967
4468.89635,0.23719
4466.96761,0.23474
4465.03887,0.23214
4463.11012,0.22947
4461.18138,0.22683
4459.25264,0.22407
4457.32390,0.22119
4455.39515,0.21828
4453.46641,0.21516
4451.53767,0.21196
4449.60893,0.20903
4447.68018,0.20605
4445.75144,0.20274
4443.82270,0.19948
4441.89396,0.19635
4439.96521,0.19330
4438.03647,0.19076
4436.10773,0.18876
4434.17899,0.18662
4432.25024,0.18417
4430.32150,0.18188
4428.39276,0.17997
4426.46402,0.17837
4424.53527,0.17688
4422.60653,0.17546
4420.67779,0.17438
4418.74905,0.17363
4416.82030,0.17284
4414.89156,0.17188
4412.96282,0.17124
4411.03408,0.17141
4409.10533,0.17208
4407.17659,0.17245
4405.24785,0.17217
4403.31911,0.17171
4401.39036,0.17164
4399.46162,0.17190
4397.53288,0.17198
4395.60414,0.17181
4393.67539,0.17176
4391.74665,0.17185
4389.81791,0.17176
4387.88917,0.17154
4385.96043,0.17142
4384.03168,0.17119
4382.10294,0.17069
4380.17420,0.17032
4378.24546,0.17032
4376.31671,0.17026
4374.38797,0.16986
4372.45923,0.16949
4370.53049,0.16915
4368.60174,0.16853
4366.67300,0.16798
4364.74426,0.16779
4362.81552,0.16742
4360.88677,0.16671
4358.95803,0.16607
4357.02929,0.16572
4355.10055,0.16561
4353.17180,0.16570
4351.24306,0.16605
4349.31432,0.16638
4347.38558,0.16635
4345.45683,0.16605
4343.52809,0.16569
4341.59935,0.16564
4339.67061,0.16593
4337.74186,0.16600
4335.81312,0.16593
4333.88438,0.16599
4331.95564,0.16584
4330.02689,0.16545
4328.09815,0.16537
4326.16941,0.16568
4324.24067,0.16597
4322.31192,0.16619
4320.38318,0.16679
4318.45444,0.16794
4316.52570,0.16887
4314.59695,0.16903
4312.66821,0.16898
4310.73947,0.16935
4308.81073,0.17010
4306.88198,0.17084
4304.95324,0.17131
4303.02450,0.17159
4301.09576,0.17170
4299.16701,0.17146
4297.23827,0.17116
4295.30953,0.17129
4293.38079,0.17155
4291.45204,0.17154
4289.52330,0.17145
4287.59456,0.17128
4285.66582,0.17102
4283.73707,0.17104
4281.80833,0.17124
4279.87959,0.17129
4277.95085,0.17131
4276.02210,0.17128
4274.09336,0.17119
4272.16462,0.17139
4270.23588,0.17193
4268.30713,0.17232
4266.37839,0.17224
4264.44965,0.17211
4262.52091,0.17241
4260.59216,0.17295
4258.66342,0.17347
4256.73468,0.17393
4254.80594,0.17429
4252.87719,0.17453
4250.94845,0.17472
4249.01971,0.17489
4247.09097,0.17519
4245.16222,0.17582
4243.23348,0.17655
4241.30474,0.17705
4239.37600,0.17741
4237.44725,0.17801
4235.51851,0.17872
4233.58977,0.17899
4231.66103,0.17905
4229.73228,0.17945
4227.80354,0.17982
4225.87480,0.17976
4223.94606,0.17971
4222.01731,0.18020
4220.08857,0.18100
4218.15983,0.18163
4216.23109,0.18193
4214.30234,0.18198
4212.37360,0.18190
4210.44486,0.18186
4208.51612,0.18208
4206.58737,0.18251
4204.65863,0.18289
4202.72989,0.18304
4200.80115,0.18295
4198.87240,0.18286
4196.94366,0.18287
4195.01492,0.18278
4193.08618,0.18264
4191.15743,0.18277
4189.22869,0.18311
4187.29995,0.18304
4185.37121,0.18271
4183.44246,0.18280
4181.51372,0.18310
4179.58498,0.18315
4177.65624,0.18316
4175.72749,0.18310
4173.79875,0.18270
4171.87001,0.18233
4169.94127,0.18227
4168.01252,0.18221
4166.08378,0.18212
4164.15504,0.18218
4162.22630,0.18231
4160.29755,0.18241
4158.36881,0.18244
4156.44007,0.18218
4154.51133,0.18168
4152.58258,0.18136
4150.65384,0.18124
4148.72510,0.18118
4146.79636,0.18120
4144.86761,0.18112
4142.93887,0.18073
4141.01013,0.18007
4139.08139,0.17939
4137.15264,0.17906
4135.22390,0.17892
4133.29516,0.17851
4131.36642,0.17800
4129.43767,0.17754
4127.50893,0.17688
4125.58019,0.17622
4123.65145,0.17597
4121.72270,0.17603
4119.79396,0.17606
4117.86522,0.17575
4115.93648,0.17516
4114.00773,0.17457
4112.07899,0.17402
4110.15025,0.17350
4108.22151,0.17303
4106.29276,0.17242
4104.36402,0.17154
4102.43528,0.17055
4100.50654,0.16966
4098.57779,0.16889
4096.64905,0.16831
4094.72031,0.16786
4092.79157,0.16710
4090.86282,0.16592
4088.93408,0.16469
4087.00534,0.16381
4085.07660,0.16333
4083.14785,0.16271
4081.21911,0.16174
4079.29037,0.16067
4077.36163,0.15942
4075.43288,0.15796
4073.50414,0.15673
4071.57540,0.15589
4069.64666,0.15505
4067.71791,0.15403
4065.78917,0.15324
4063.86043,0.15279
4061.93169,0.15224
4060.00294,0.15151
4058.07420,0.15102
4056.14546,0.15084
4054.21672,0.15064
4052.28797,0.15030
4050.35923,0.14998
4048.43049,0.14969
4046.50175,0.14928
4044.57300,0.14877
4042.64426,0.14847
4040.71552,0.14864
4038.78678,0.14885
4036.85803,0.14854
4034.92929,0.14803
4033.00055,0.14777
4031.07181,0.14761
4029.14306,0.14745
4027.21432,0.14726
4025.28558,0.14694
4023.35684,0.14678
4021.42809,0.14698
4019.49935,0.14717
4017.57061,0.14704
4015.64187,0.14683
4013.71312,0.14677
4011.78438,0.14681
4009.85564,0.14691
4007.92690,0.14709
4005.99815,0.14727
4004.06941,0.14728
4002.14067,0.14726
4000.21193,0.14763
3998.28318,0.14836
3996.35444,0.14893
3994.42570,0.14933
3992.49696,0.14980
3990.56821,0.15025
3988.63947,0.15055
3986.71073,0.15084
3984.78199,0.15120
3982.85324,0.15161
3980.92450,0.15217
3978.99576,0.15269
3977.06702,0.15302
3975.13827,0.15342
3973.20953,0.15400
3971.28079,0.15472
3969.35205,0.15564
3967.42330,0.15649
3965.49456,0.15706
3963.56582,0.15754
3961.63708,0.15810
3959.70833,0.15884
3957.77959,0.15977
3955.85085,0.16055
3953.92211,0.16095
3951.99336,0.16133
3950.06462,0.16200
3948.13588,0.16279
3946.20714,0.16346
3944.27839,0.16412
3942.34965,0.16494
3940.42091,0.16575
3938.49217,0.16643
3936.56342,0.16688
3934.63468,0.16708
3932.70594,0.16724
3930.77720,0.16764
3928.84845,0.16843
3926.91971,0.16945
3924.99097,0.17029
3923.06223,0.17077
3921.13348,0.17123
3919.20474,0.17177
3917.27600,0.17224
3915.34726,0.17289
3913.41851,0.17375
3911.48977,0.17427
3909.56103,0.17451
3907.63229,0.17496
3905.70354,0.17561
3903.77480,0.17634
3901.84606,0.17705
3899.91732,0.17747
3897.98857,0.17782
3896.05983,0.17835
3894.13109,0.17880
3892.20235,0.17904
3890.27360,0.17922
3888.34486,0.17946
3886.41612,0.17971
3884.48738,0.18004
3882.55863,0.18058
3880.62989,0.18130
3878.70115,0.18189
3876.77241,0.18212
3874.84366,0.18247
3872.91492,0.18326
3870.98618,0.18392
3869.05744,0.18421
3867.12869,0.18472
3865.19995,0.18554
3863.27121,0.18629
3861.34247,0.18689
3859.41372,0.18752
3857.48498,0.18834
3855.55624,0.18933
3853.62750,0.19008
3851.69875,0.19042
3849.77001,0.19078
3847.84127,0.19122
3845.91253,0.19159
3843.98378,0.19193
3842.05504,0.19241
3840.12630,0.19283
3838.19756,0.19298
3836.26882,0.19318
3834.34007,0.19340
3832.41133,0.19327
3830.48259,0.19319
3828.55385,0.19350
3826.62510,0.19386
3824.69636,0.19403
3822.76762,0.19393
3820.83888,0.19381
3818.91013,0.19396
3816.98139,0.19393
3815.05265,0.19366
3813.12391,0.19360
3811.19516,0.19375
3809.26642,0.19398
3807.33768,0.19424
3805.40894,0.19437
3803.48019,0.19434
3801.55145,0.19418
3799.62271,0.19409
3797.69397,0.19408
3795.76522,0.19393
3793.83648,0.19362
3791.90774,0.19322
3789.97900,0.19291
3788.05025,0.19281
3786.12151,0.19281
3784.19277,0.19280
3782.26403,0.19290
3780.33528,0.19309
3778.40654,0.19314
3776.47780,0.19290
3774.54906,0.19240
3772.62031,0.19181
3770.69157,0.19141
3768.76283,0.19109
3766.83409,0.19057
3764.90534,0.19010
3762.97660,0.18985
3761.04786,0.18954
3759.11912,0.18906
3757.19037,0.18877
3755.26163,0.18865
3753.33289,0.18833
3751.40415,0.18768
3749.47540,0.18695
3747.54666,0.18637
3745.61792,0.18569
3743.68918,0.18480
3741.76043,0.18414
3739.83169,0.18369
3737.90295,0.18297
3735.97421,0.18182
3734.04546,0.18053
3732.11672,0.17929
3730.18798,0.17826
3728.25924,0.17737
3726.33049,0.17630
3724.40175,0.17511
3722.47301,0.17385
3720.54427,0.17231
3718.61552,0.17068
3716.68678,0.16928
3714.75804,0.16791
3712.82930,0.16611
3710.90055,0.16384
3708.97181,0.16152
3707.04307,0.15924
3705.11433,0.15695
3703.18558,0.15461
3701.25684,0.15197
3699.32810,0.14893
3697.39936,0.14560
3695.47061,0.14224
3693.54187,0.13903
3691.61313,0.13559
3689.68439,0.13132
3687.75564,0.12640
3685.82690,0.12162
3683.89816,0.11716
3681.96942,0.11228
3680.04067,0.10593
3678.11193,0.09875
3676.18319,0.09363
3674.25445,0.09202
3672.32570,0.09124
3670.39696,0.08924
3668.46822,0.08672
3666.53948,0.08461
3664.61073,0.08236
3662.68199,0.07946
3660.75325,0.07656
3658.82451,0.07424
3656.89576,0.07225
3654.96702,0.07043
3653.03828,0.06908
3651.10954,0.06799
3649.18079,0.06645
3647.25205,0.06446
3645.32331,0.06275
3643.39457,0.06166
3641.46582,0.06086
3639.53708,0.05992
3637.60834,0.05895
3635.67960,0.05831
3633.75085,0.05794
3631.82211,0.05749
3629.89337,0.05672
3627.96463,0.05589
3626.03588,0.05533
3624.10714,0.05491
3622.17840,0.05452
3620.24966,0.05408
3618.32091,0.05364
3616.39217,0.05348
3614.46343,0.05351
3612.53469,0.05337
3610.60594,0.05304
3608.67720,0.05260
3606.74846,0.05209
3604.81972,0.05159
3602.89097,0.05120
3600.96223,0.05091
3599.03349,0.05065
3597.10475,0.05056
3595.17600,0.05063
3593.24726,0.05050
3591.31852,0.05021
3589.38978,0.05004
3587.46103,0.04987
3585.53229,0.04939
3583.60355,0.04876
3581.67481,0.04828
3579.74606,0.04816
3577.81732,0.04837
3575.88858,0.04849
3573.95984,0.04844
3572.03109,0.04852
3570.10235,0.04855
3568.17361,0.04825
3566.24487,0.04809
3564.31612,0.04833
3562.38738,0.04852
3560.45864,0.04846
3558.52990,0.04822
3556.60115,0.04800
3554.67241,0.04808
3552.74367,0.04821
3550.81493,0.04798
3548.88618,0.04768
3546.95744,0.04753
3545.02870,0.04739
3543.09996,0.04730
3541.17121,0.04721
3539.24247,0.04695
3537.31373,0.04691
3535.38499,0.04733
3533.45624,0.04774
3531.52750,0.04768
3529.59876,0.04734
3527.67002,0.04724
3525.74127,0.04737
3523.81253,0.04741
3521.88379,0.04744
3519.95505,0.04742
3518.02630,0.04720
3516.09756,0.04695
3514.16882,0.04682
3512.24008,0.04689
3510.31133,0.04700
3508.38259,0.04701
3506.45385,0.04713
3504.52511,0.04744
3502.59636,0.04739
3500.66762,0.04680
3498.73888,0.04616
3496.81014,0.04575
3494.88139,0.04572
3492.95265,0.04611
3491.02391,0.04658
3489.09517,0.04684
3487.16642,0.04693
3485.23768,0.04686
3483.30894,0.04682
3481.38020,0.04698
3479.45145,0.04719
3477.52271,0.04717
3475.59397,0.04690
3473.66523,0.04672
3471.73648,0.04679
3469.80774,0.04691
3467.87900,0.04714
3465.95026,0.04745
3464.02151,0.04746
3462.09277,0.04722
3460.16403,0.04703
3458.23529,0.04686
3456.30654,0.04665
3454.37780,0.04665
3452.44906,0.04700
3450.52032,0.04748
3448.59157,0.04767
3446.66283,0.04741
3444.73409,0.04712
3442.80535,0.04723
3440.87660,0.04755
3438.94786,0.04765
3437.01912,0.04744
3435.09038,0.04726
3433.16163,0.04728
3431.23289,0.04720
3429.30415,0.04699
3427.37541,0.04705
3425.44666,0.04735
3423.51792,0.04743
3421.58918,0.04724
3419.66044,0.04713
3417.73169,0.04732
3415.80295,0.04754
3413.87421,0.04744
3411.94547,0.04722
3410.01672,0.04710
3408.08798,0.04723
3406.15924,0.04755
3404.23050,0.04760
3402.30175,0.04731
3400.37301,0.04702
3398.44427,0.04681
3396.51553,0.04665
3394.58678,0.04665
3392.65804,0.04688
3390.72930,0.04717
3388.80056,0.04726
3386.87181,0.04717
3384.94307,0.04722
3383.01433,0.04747
3381.08559,0.04740
3379.15684,0.04700
3377.22810,0.04682
3375.29936,0.04688
3373.37062,0.04696
3371.44187,0.04700
3369.51313,0.04696
3367.58439,0.04702
3365.65565,0.04715
3363.72690,0.04721
3361.79816,0.04746
3359.86942,0.04786
3357.94068,0.04801
3356.01193,0.04794
3354.08319,0.04775
3352.15445,0.04751
3350.22571,0.04747
3348.29696,0.04771
3346.36822,0.04805
3344.43948,0.04819
3342.51074,0.04805
3340.58199,0.04783
3338.65325,0.04757
3336.72451,0.04741
3334.79577,0.04757
3332.86702,0.04783
3330.93828,0.04806
3329.00954,0.04823
3327.08080,0.04810
3325.15205,0.04767
3323.22331,0.04734
3321.29457,0.04736
3319.36583,0.04753
3317.43708,0.04752
3315.50834,0.04742
3313.57960,0.04744
3311.65086,0.04752
3309.72211,0.04751
3307.79337,0.04750
3305.86463,0.04746
3303.93589,0.04729
3302.00714,0.04733
3300.07840,0.04762
3298.14966,0.04760
3296.22092,0.04725
3294.29217,0.04720
3292.36343,0.04756
3290.43469,0.04767
3288.50595,0.04746
3286.57721,0.04742
3284.64846,0.04752
3282.71972,0.04765
3280.79098,0.04794
3278.86224,0.04823
3276.93349,0.04835
3275.00475,0.04847
3273.07601,0.04874
3271.14727,0.04893
3269.21852,0.04880
3267.28978,0.04847
3265.36104,0.04827
3263.43230,0.04840
3261.50355,0.04859
3259.57481,0.04861
3257.64607,0.04854
3255.71733,0.04839
3253.78858,0.04814
3251.85984,0.04788
3249.93110,0.04780
3248.00236,0.04791
3246.07361,0.04812
3244.14487,0.04845
3242.21613,0.04887
3240.28739,0.04912
3238.35864,0.04913
3236.42990,0.04904
3234.50116,0.04901
3232.57242,0.04897
3230.64367,0.04881
3228.71493,0.04882
3226.78619,0.04905
3224.85745,0.04914
3222.92870,0.04914
3220.99996,0.04922
3219.07122,0.04941
3217.14248,0.04972
3215.21373,0.04994
3213.28499,0.04984
3211.35625,0.04951
3209.42751,0.04920
3207.49876,0.04903
3205.57002,0.04915
3203.64128,0.04961
3201.71254,0.05015
3199.78379,0.05023
3197.85505,0.04978
3195.92631,0.04940
3193.99757,0.04953
3192.06882,0.05001
3190.14008,0.05037
3188.21134,0.05048
3186.28260,0.05050
3184.35385,0.05038
3182.42511,0.05005
3180.49637,0.04986
3178.56763,0.05016
3176.63888,0.05057
3174.71014,0.05047
3172.78140,0.05008
3170.85266,0.05004
3168.92391,0.05033
3166.99517,0.05045
3165.06643,0.05047
3163.13769,0.05063
3161.20894,0.05085
3159.28020,0.05119
3157.35146,0.05162
3155.42272,0.05185
3153.49397,0.05186
3151.56523,0.05181
3149.63649,0.05175
3147.70775,0.05179
3145.77900,0.05185
3143.85026,0.05184
3141.92152,0.05186
3139.99278,0.05196
3138.06403,0.05215
3136.13529,0.05229
3134.20655,0.05210
3132.27781,0.05172
3130.34906,0.05171
3128.42032,0.05213
3126.49158,0.05247
3124.56284,0.05249
3122.63409,0.05246
3120.70535,0.05262
3118.77661,0.05286
3116.84787,0.05299
3114.91912,0.05305
3112.99038,0.05306
3111.06164,0.05298
3109.13290,0.05292
3107.20415,0.05291
3105.27541,0.05292
3103.34667,0.05306
3101.41793,0.05326
3099.48918,0.05320
3097.56044,0.05295
3095.63170,0.05271
3093.70296,0.05249
3091.77421,0.05241
3089.84547,0.05253
3087.91673,0.05271
3085.98799,0.05279
3084.05924,0.05273
3082.13050,0.05260
3080.20176,0.05241
3078.27302,0.05207
3076.34427,0.05181
3074.41553,0.05187
3072.48679,0.05210
3070.55805,0.05218
3068.62930,0.05205
3066.70056,0.05187
3064.77182,0.05192
3062.84308,0.05219
3060.91433,0.05239
3058.98559,0.05238
3057.05685,0.05230
3055.12811,0.05221
3053.19936,0.05232
3051.27062,0.05269
3049.34188,0.05287
3047.41314,0.05266
3045.48439,0.05243
3043.55565,0.05233
3041.62691,0.05231
3039.69817,0.05244
3037.76942,0.05259
3035.84068,0.05260
3033.91194,0.05247
3031.98320,0.05221
3030.05445,0.05196
3028.12571,0.05194
3026.19697,0.05211
3024.26823,0.05216
3022.33948,0.05197
3020.41074,0.05160
3018.48200,0.05123
3016.55326,0.05100
3014.62451,0.05083
3012.69577,0.05059
3010.76703,0.05024
3008.83829,0.04986
3006.90954,0.04940
3004.98080,0.04870
3003.05206,0.04794
3001.12332,0.04751
2999.19457,0.04739
2997.26583,0.04729
2995.33709,0.04724
2993.40835,0.04716
2991.47960,0.04685
2989.55086,0.04646
2987.62212,0.04617
2985.69338,0.04605
2983.76463,0.04613
2981.83589,0.04629
2979.90715,0.04649
2977.97841,0.04655
2976.04966,0.04642
2974.12092,0.04625
2972.19218,0.04613
2970.26344,0.04603
2968.33469,0.04606
2966.40595,0.04636
2964.47721,0.04684
2962.54847,0.04728
2960.61972,0.04747
2958.69098,0.04737
2956.76224,0.04720
2954.83350,0.04718
2952.90475,0.04715
2950.97601,0.04701
2949.04727,0.04701
2947.11853,0.04728
2945.18978,0.04753
2943.26104,0.04764
2941.33230,0.04769
2939.40356,0.04776
2937.47481,0.04795
2935.54607,0.04812
2933.61733,0.04822
2931.68859,0.04839
2929.75984,0.04862
2927.83110,0.04888
2925.90236,0.04926
2923.97362,0.04964
2922.04487,0.05000
2920.11613,0.05031
2918.18739,0.05051
2916.25865,0.05054
2914.32990,0.05030
2912.40116,0.04991
2910.47242,0.04966
2908.54368,0.04955
2906.61493,0.04952
2904.68619,0.04973
2902.75745,0.05001
2900.82871,0.05001
2898.89996,0.04968
2896.97122,0.04925
2895.04248,0.04896
2893.11374,0.04897
2891.18499,0.04927
2889.25625,0.04965
2887.32751,0.04983
2885.39877,0.04974
2883.47002,0.04967
2881.54128,0.04976
2879.61254,0.04972
2877.68380,0.04950
2875.75505,0.04939
2873.82631,0.04932
2871.89757,0.04921
2869.96883,0.04938
2868.04008,0.04982
2866.11134,0.05014
2864.18260,0.05023
2862.25386,0.05032
2860.32511,0.05046
2858.39637,0.05043
2856.46763,0.05026
2854.53889,0.05024
2852.61014,0.05066
2850.68140,0.05135
2848.75266,0.05181
2846.82392,0.05190
2844.89517,0.05182
2842.96643,0.05179
2841.03769,0.05192
2839.10895,0.05198
2837.18020,0.05194
2835.25146,0.05221
2833.32272,0.05281
2831.39398,0.05330
2829.46523,0.05360
2827.53649,0.05394
2825.60775,0.05428
2823.67901,0.05449
2821.75026,0.05472
2819.82152,0.05501
2817.89278,0.05516
2815.96404,0.05520
2814.03529,0.05548
2812.10655,0.05597
2810.17781,0.05637
2808.24907,0.05662
2806.32032,0.05689
2804.39158,0.05728
2802.46284,0.05770
2800.53410,0.05794
2798.60535,0.05803
2796.67661,0.05823
2794.74787,0.05865
2792.81913,0.05918
2790.89038,0.05953
2788.96164,0.05970
2787.03290,0.05990
2785.10416,0.06008
2783.17541,0.06010
2781.24667,0.06017
2779.31793,0.06057
2777.38919,0.06105
2775.46044,0.06114
2773.53170,0.06091
2771.60296,0.06085
2769.67422,0.06119
2767.74547,0.06162
2765.81673,0.06193
2763.88799,0.06217
2761.95925,0.06230
2760.03050,0.06231
2758.10176,0.06236
2756.17302,0.06243
2754.24428,0.06245
2752.31553,0.06260
2750.38679,0.06296
2748.45805,0.06327
2746.52931,0.06326
2744.60056,0.06307
2742.67182,0.06319
2740.74308,0.06357
2738.81434,0.06378
2736.88560,0.06384
2734.95685,0.06406
2733.02811,0.06441
2731.09937,0.06468
2729.17063,0.06480
2727.24188,0.06501
2725.31314,0.06537
2723.38440,0.06566
2721.45566,0.06582
2719.52691,0.06603
2717.59817,0.06625
2715.66943,0.06658
2713.74069,0.06710
2711.81194,0.06751
2709.88320,0.06780
2707.95446,0.06822
2706.02572,0.06868
2704.09697,0.06902
2702.16823,0.06931
2700.23949,0.06965
2698.31075,0.07012
2696.38200,0.07055
2694.45326,0.07073
2692.52452,0.07076
2690.59578,0.07087
2688.66703,0.07119
2686.73829,0.07166
2684.80955,0.07207
2682.88081,0.07247
2680.95206,0.07290
2679.02332,0.07312
2677.09458,0.07319
2675.16584,0.07343
2673.23709,0.07373
2671.30835,0.07371
2669.37961,0.07355
2667.45087,0.07371
2665.52212,0.07409
2663.59338,0.07435
2661.66464,0.07449
2659.73590,0.07474
2657.80715,0.07508
2655.87841,0.07543
2653.94967,0.07564
2652.02093,0.07561
2650.09218,0.07565
2648.16344,0.07597
2646.23470,0.07638
2644.30596,0.07666
2642.37721,0.07682
2640.44847,0.07701
2638.51973,0.07721
2636.59099,0.07735
2634.66224,0.07747
2632.73350,0.07756
2630.80476,0.07770
2628.87602,0.07804
2626.94727,0.07859
2625.01853,0.07916
2623.08979,0.07948
2621.16105,0.07951
2619.23230,0.07954
2617.30356,0.07976
2615.37482,0.08006
2613.44608,0.08029
2611.51733,0.08049
2609.58859,0.08061
2607.65985,0.08054
2605.73111,0.08050
2603.80236,0.08073
2601.87362,0.08106
2599.94488,0.08138
2598.01614,0.08159
2596.08739,0.08161
2594.15865,0.08171
2592.22991,0.08200
2590.30117,0.08225
2588.37242,0.08227
2586.44368,0.08224
2584.51494,0.08237
2582.58620,0.08271
2580.65745,0.08318
2578.72871,0.08346
2576.79997,0.08338
2574.87123,0.08324
2572.94248,0.08322
2571.01374,0.08329
2569.08500,0.08344
2567.15626,0.08366
2565.22751,0.08395
2563.29877,0.08422
2561.37003,0.08435
2559.44129,0.08434
2557.51254,0.08434
2555.58380,0.08453
2553.65506,0.08485
2551.72632,0.08506
2549.79757,0.08516
2547.86883,0.08535
2545.94009,0.08568
2544.01135,0.08599
2542.08260,0.08616
2540.15386,0.08623
2538.22512,0.08634
2536.29638,0.08656
2534.36763,0.08684
2532.43889,0.08714
2530.51015,0.08745
2528.58141,0.08768
2526.65266,0.08785
2524.72392,0.08810
2522.79518,0.08845
2520.86644,0.08877
2518.93769,0.08899
2517.00895,0.08918
2515.08021,0.08943
2513.15147,0.08973
2511.22272,0.08994
2509.29398,0.09007
2507.36524,0.09031
2505.43650,0.09080
2503.50775,0.09139
2501.57901,0.09179
2499.65027,0.09190
2497.72153,0.09197
2495.79278,0.09230
2493.86404,0.09270
2491.93530,0.09294
2490.00656,0.09316
2488.07781,0.09357
2486.14907,0.09405
2484.22033,0.09447
2482.29159,0.09476
2480.36284,0.09500
2478.43410,0.09520
2476.50536,0.09539
2474.57662,0.09570
2472.64787,0.09600
2470.71913,0.09612
2468.79039,0.09615
2466.86165,0.09631
2464.93290,0.09665
2463.00416,0.09707
2461.07542,0.09750
2459.14668,0.09799
2457.21793,0.09841
2455.28919,0.09861
2453.36045,0.09881
2451.43171,0.09914
2449.50296,0.09942
2447.57422,0.09959
2445.64548,0.09979
2443.71674,0.09992
2441.78799,0.09999
2439.85925,0.10018
2437.93051,0.10043
2436.00177,0.10064
2434.07302,0.10091
2432.14428,0.10123
2430.21554,0.10158
2428.28680,0.10198
2426.35805,0.10236
2424.42931,0.10264
2422.50057,0.10288
2420.57183,0.10315
2418.64308,0.10344
2416.71434,0.10374
2414.78560,0.10403
2412.85686,0.10433
2410.92811,0.10469
2408.99937,0.10507
2407.07063,0.10529
2405.14189,0.10551
2403.21314,0.10588
2401.28440,0.10617
2399.35566,0.10626
2397.42692,0.10640
2395.49817,0.10675
2393.56943,0.10713
2391.64069,0.10737
2389.71195,0.10750
2387.78320,0.10756
2385.85446,0.10757
2383.92572,0.10760
2381.99698,0.10771
2380.06823,0.10793
2378.13949,0.10813
2376.21075,0.10823
2374.28201,0.10836
2372.35326,0.10858
2370.42452,0.10865
2368.49578,0.10860
2366.56704,0.10875
2364.63829,0.10908
2362.70955,0.10936
2360.78081,0.10960
2358.85207,0.10994
2356.92332,0.11037
2354.99458,0.11070
2353.06584,0.11080
2351.13710,0.11091
2349.20835,0.11128
2347.27961,0.11164
2345.35087,0.11168
2343.42213,0.11162
2341.49338,0.11171
2339.56464,0.11177
2337.63590,0.11180
2335.70716,0.11197
2333.77841,0.11220
2331.84967,0.11232
2329.92093,0.11238
2327.99219,0.11256
2326.06344,0.11282
2324.13470,0.11295
2322.20596,0.11301
2320.27722,0.11308
2318.34847,0.11319
2316.41973,0.11350
2314.49099,0.11393
2312.56225,0.11416
2310.63350,0.11415
2308.70476,0.11410
2306.77602,0.11415
2304.84728,0.11428
2302.91853,0.11439
2300.98979,0.11447
2299.06105,0.11459
2297.13231,0.11475
2295.20356,0.11491
2293.27482,0.11511
2291.34608,0.11536
2289.41734,0.11557
2287.48859,0.11570
2285.55985,0.11581
2283.63111,0.11592
2281.70237,0.11610
2279.77362,0.11635
2277.84488,0.11658
2275.91614,0.11680
2273.98740,0.11704
2272.05865,0.11723
2270.12991,0.11726
2268.20117,0.11717
2266.27243,0.11705
2264.34368,0.11696
2262.41494,0.11678
2260.48620,0.11649
2258.55746,0.11623
2256.62871,0.11609
2254.69997,0.11604
2252.77123,0.11597
2250.84249,0.11583
2248.91374,0.11566
2246.98500,0.11555
2245.05626,0.11554
2243.12752,0.11561
2241.19877,0.11569
2239.27003,0.11566
2237.34129,0.11548
2235.41255,0.11530
2233.48380,0.11515
2231.55506,0.11504
2229.62632,0.11502
2227.69758,0.11505
2225.76883,0.11506
2223.84009,0.11520
2221.91135,0.11551
2219.98261,0.11569
2218.05386,0.11570
2216.12512,0.11562
2214.19638,0.11543
2212.26764,0.11528
2210.33889,0.11537
2208.41015,0.11551
2206.48141,0.11538
2204.55267,0.11501
2202.62392,0.11469
2200.69518,0.11453
2198.76644,0.11441
2196.83770,0.11421
2194.90895,0.11378
2192.98021,0.11320
2191.05147,0.11275
2189.12273,0.11238
2187.19399,0.11193
2185.26524,0.11141
2183.33650,0.11095
2181.40776,0.11052
2179.47902,0.10999
2177.55027,0.10947
2175.62153,0.10909
2173.69279,0.10869
2171.76405,0.10811
2169.83530,0.10746
2167.90656,0.10690
2165.97782,0.10635
2164.04908,0.10572
2162.12033,0.10507
2160.19159,0.10454
2158.26285,0.10420
2156.33411,0.10403
2154.40536,0.10382
2152.47662,0.10345
2150.54788,0.10292
2148.61914,0.10239
2146.69039,0.10201
2144.76165,0.10178
2142.83291,0.10164
2140.90417,0.10146
2138.97542,0.10117
2137.04668,0.10089
2135.11794,0.10059
2133.18920,0.10027
2131.26045,0.10002
2129.33171,0.09983
2127.40297,0.09966
2125.47423,0.09947
2123.54548,0.09929
2121.61674,0.09917
2119.68800,0.09911
2117.75926,0.09911
2115.83051,0.09904
2113.90177,0.09884
2111.97303,0.09864
2110.04429,0.09857
2108.11554,0.09853
2106.18680,0.09835
2104.25806,0.09801
2102.32932,0.09770
2100.40057,0.09764
2098.47183,0.09786
2096.54309,0.09805
2094.61435,0.09802
2092.68560,0.09790
2090.75686,0.09788
2088.82812,0.09797
2086.89938,0.09807
2084.97063,0.09800
2083.04189,0.09781
2081.11315,0.09770
2079.18441,0.09775
2077.25566,0.09783
2075.32692,0.09776
2073.39818,0.09758
2071.46944,0.09743
2069.54069,0.09736
2067.61195,0.09735
2065.68321,0.09741
2063.75447,0.09756
2061.82572,0.09768
2059.89698,0.09767
2057.96824,0.09770
2056.03950,0.09780
2054.11075,0.09791
2052.18201,0.09801
2050.25327,0.09807
2048.32453,0.09810
2046.39578,0.09823
2044.46704,0.09835
2042.53830,0.09835
2040.60956,0.09835
2038.68081,0.09847
2036.75207,0.09861
2034.82333,0.09856
2032.89459,0.09838
2030.96584,0.09838
2029.03710,0.09855
2027.10836,0.09866
2025.17962,0.09859
2023.25087,0.09855
2021.32213,0.09874
2019.39339,0.09900
2017.46465,0.09923
2015.53590,0.09953
2013.60716,0.09986
2011.67842,0.10018
2009.74968,0.10050
2007.82093,0.10075
2005.89219,0.10091
2003.96345,0.10096
2002.03471,0.10107
2000.10596,0.10136
1998.17722,0.10159
1996.24848,0.10165
1994.31974,0.10174
1992.39099,0.10197
1990.46225,0.10228
1988.53351,0.10252
1986.60477,0.10260
1984.67602,0.10262
1982.74728,0.10260
1980.81854,0.10252
1978.88980,0.10243
1976.96105,0.10242
1975.03231,0.10246
1973.10357,0.10248
1971.17483,0.10246
1969.24608,0.10243
1967.31734,0.10225
1965.38860,0.10199
1963.45986,0.10190
1961.53111,0.10183
1959.60237,0.10171
1957.67363,0.10169
1955.74489,0.10168
1953.81614,0.10162
1951.88740,0.10170
1949.95866,0.10201
1948.02992,0.10238
1946.10117,0.10266
1944.17243,0.10290
1942.24369,0.10318
1940.31495,0.10344
1938.38620,0.10364
1936.45746,0.10394
1934.52872,0.10449
1932.59998,0.10501
1930.67123,0.10514
1928.74249,0.10505
1926.81375,0.10512
1924.88501,0.10531
1922.95626,0.10550
1921.02752,0.10578
1919.09878,0.10605
1917.17004,0.10613
1915.24129,0.10619
1913.31255,0.10632
1911.38381,0.10641
1909.45507,0.10638
1907.52632,0.10628
1905.59758,0.10619
1903.66884,0.10629
1901.74010,0.10645
1899.81135,0.10636
1897.88261,0.10597
1895.95387,0.10554
1894.02513,0.10518
1892.09638,0.10491
1890.16764,0.10477
1888.23890,0.10478
1886.31016,0.10481
1884.38141,0.10474
1882.45267,0.10446
1880.52393,0.10398
1878.59519,0.10355
1876.66644,0.10330
1874.73770,0.10314
1872.80896,0.10286
1870.88022,0.10240
1868.95147,0.10185
1867.02273,0.10135
1865.09399,0.10087
1863.16525,0.10029
1861.23650,0.09966
1859.30776,0.09902
1857.37902,0.09822
1855.45028,0.09737
1853.52153,0.09660
1851.59279,0.09575
1849.66405,0.09482
1847.73531,0.09403
1845.80656,0.09319
1843.87782,0.09203
1841.94908,0.09080
1840.02034,0.08976
1838.09159,0.08878
1836.16285,0.08769
1834.23411,0.08636
1832.30537,0.08483
1830.37662,0.08333
1828.44788,0.08203
1826.51914,0.08087
1824.59040,0.07963
1822.66165,0.07834
1820.73291,0.07700
1818.80417,0.07547
1816.87543,0.07387
1814.94668,0.07242
1813.01794,0.07106
1811.08920,0.06965
1809.16046,0.06815
1807.23171,0.06666
1805.30297,0.06524
1803.37423,0.06378
1801.44549,0.06220
1799.51674,0.06055
1797.58800,0.05899
1795.65926,0.05759
1793.73052,0.05615
1791.80177,0.05455
1789.87303,0.05291
1787.94429,0.05129
1786.01555,0.04963
1784.08680,0.04797
1782.15806,0.04634
1780.22932,0.04467
1778.30058,0.04307
1776.37183,0.04170
1774.44309,0.04045
1772.51435,0.03902
1770.58561,0.03756
1768.65686,0.03629
1766.72812,0.03508
1764.79938,0.03392
1762.87064,0.03287
1760.94189,0.03181
1759.01315,0.03080
1757.08441,0.02987
1755.15567,0.02904
1753.22692,0.02843
1751.29818,0.02837
1749.36944,0.02909
1747.44070,0.03033
1745.51195,0.03200
1743.58321,0.03434
1741.65447,0.03738
1739.72573,0.04086
1737.79698,0.04423
1735.86824,0.04753
1733.93950,0.05125
1732.01076,0.05459
1730.08201,0.05713
1728.15327,0.05943
1726.22453,0.06149
1724.29579,0.06304
1722.36704,0.06419
1720.43830,0.06523
1718.50956,0.06579
1716.58082,0.06546
1714.65207,0.06472
1712.72333,0.06405
1710.79459,0.06347
1708.86585,0.06295
1706.93710,0.06225
1705.00836,0.06133
1703.07962,0.06061
1701.15088,0.06006
1699.22213,0.05936
1697.29339,0.05862
1695.36465,0.05788
1693.43591,0.05723
1691.50716,0.05667
1689.57842,0.05616
1687.64968,0.05586
1685.72094,0.05575
1683.79219,0.05559
1681.86345,0.05533
1679.93471,0.05499
1678.00597,0.05461
1676.07722,0.05418
1674.14848,0.05375
1672.21974,0.05357
1670.29100,0.05342
1668.36225,0.05299
1666.43351,0.05260
1664.50477,0.05242
1662.57603,0.05233
1660.64728,0.05236
1658.71854,0.05248
1656.78980,0.05251
1654.86106,0.05241
1652.93231,0.05217
1651.00357,0.05185
1649.07483,0.05158
1647.14609,0.05137
1645.21735,0.05120
1643.28860,0.05101
1641.35986,0.05079
1639.43112,0.05067
1637.50238,0.05065
1635.57363,0.05063
1633.64489,0.05072
1631.71615,0.05089
1629.78741,0.05094
1627.85866,0.05089
1625.92992,0.05080
1624.00118,0.05060
1622.07244,0.05035
1620.14369,0.05025
1618.21495,0.05022
1616.28621,0.05018
1614.35747,0.05019
1612.42872,0.05020
1610.49998,0.05013
1608.57124,0.05011
1606.64250,0.05018
1604.71375,0.05007
1602.78501,0.04974
1600.85627,0.04952
1598.92753,0.04968
1596.99878,0.05010
1595.07004,0.05042
1593.14130,0.05062
1591.21256,0.05077
1589.28381,0.05072
1587.35507,0.05054
1585.42633,0.05040
1583.49759,0.05019
1581.56884,0.05002
1579.64010,0.05010
1577.71136,0.05044
1575.78262,0.05085
1573.85387,0.05113
1571.92513,0.05143
1569.99639,0.05178
1568.06765,0.05191
1566.13890,0.05174
1564.21016,0.05147
1562.28142,0.05121
1560.35268,0.05091
1558.42393,0.05038
1556.49519,0.04978
1554.56645,0.04936
1552.63771,0.04914
1550.70896,0.04905
1548.78022,0.04894
1546.85148,0.04877
1544.92274,0.04856
1542.99399,0.04837
1541.06525,0.04830
1539.13651,0.04812
1537.20777,0.04779
1535.27902,0.04750
1533.35028,0.04733
1531.42154,0.04733
1529.49280,0.04745
1527.56405,0.04750
1525.63531,0.04736
1523.70657,0.04704
1521.77783,0.04652
1519.84908,0.04598
1517.92034,0.04573
1515.99160,0.04573
1514.06286,0.04580
1512.13411,0.04581
1510.20537,0.04579
1508.27663,0.04590
1506.34789,0.04615
1504.41914,0.04637
1502.49040,0.04658
1500.56166,0.04675
1498.63292,0.04674
1496.70417,0.04654
1494.77543,0.04632
1492.84669,0.04621
1490.91795,0.04600
1488.98920,0.04544
1487.06046,0.04469
1485.13172,0.04404
1483.20298,0.04356
1481.27423,0.04309
1479.34549,0.04263
1477.41675,0.04233
1475.48801,0.04223
1473.55926,0.04217
1471.63052,0.04206
1469.70178,0.04212
1467.77304,0.04230
1465.84429,0.04237
1463.91555,0.04236
1461.98681,0.04255
1460.05807,0.04281
1458.12932,0.04282
1456.20058,0.04270
1454.27184,0.04286
1452.34310,0.04309
1450.41435,0.04319
1448.48561,0.04337
1446.55687,0.04382
1444.62813,0.04438
1442.69938,0.04475
1440.77064,0.04486
1438.84190,0.04485
1436.91316,0.04483
1434.98441,0.04487
1433.05567,0.04494
1431.12693,0.04481
1429.19819,0.04444
1427.26944,0.04407
1425.34070,0.04376
1423.41196,0.04338
1421.48322,0.04293
1419.55447,0.04238
1417.62573,0.04200
1415.69699,0.04208
1413.76825,0.04235
1411.83950,0.04270
1409.91076,0.04322
1407.98202,0.04370
1406.05328,0.04385
1404.12453,0.04367
1402.19579,0.04337
1400.26705,0.04313
1398.33831,0.04308
1396.40956,0.04302
1394.48082,0.04268
1392.55208,0.04229
1390.62334,0.04225
1388.69459,0.04237
1386.76585,0.04237
1384.83711,0.04241
1382.90837,0.04267
1380.97962,0.04294
1379.05088,0.04311
1377.12214,0.04328
1375.19340,0.04349
1373.26465,0.04363
1371.33591,0.04361
1369.40717,0.04351
1367.47843,0.04343
1365.54968,0.04336
1363.62094,0.04325
1361.69220,0.04312
1359.76346,0.04299
1357.83471,0.04284
1355.90597,0.04263
1353.97723,0.04239
1352.04849,0.04222
1350.11974,0.04226
1348.19100,0.04235
1346.26226,0.04222
1344.33352,0.04189
1342.40477,0.04160
1340.47603,0.04136
1338.54729,0.04101
1336.61855,0.04066
1334.68980,0.04058
1332.76106,0.04067
1330.83232,0.04062
1328.90358,0.04040
1326.97483,0.04021
1325.04609,0.04006
1323.11735,0.03982
1321.18861,0.03946
1319.25986,0.03905
1317.33112,0.03876
1315.40238,0.03869
1313.47364,0.03866
1311.54489,0.03845
1309.61615,0.03808
1307.68741,0.03783
1305.75867,0.03790
1303.82992,0.03820
1301.90118,0.03846
1299.97244,0.03859
1298.04370,0.03865
1296.11495,0.03865
1294.18621,0.03863
1292.25747,0.03874
1290.32873,0.03882
1288.39998,0.03862
1286.47124,0.03835
1284.54250,0.03827
1282.61376,0.03836
1280.68501,0.03860
1278.75627,0.03883
1276.82753,0.03893
1274.89879,0.03900
1272.97004,0.03916
1271.04130,0.03936
1269.11256,0.03954
1267.18382,0.03981
1265.25507,0.04030
1263.32633,0.04085
1261.39759,0.04115
1259.46885,0.04122
1257.54010,0.04137
1255.61136,0.04186
1253.68262,0.04245
1251.75388,0.04268
1249.82513,0.04261
1247.89639,0.04263
1245.96765,0.04282
1244.03891,0.04305
1242.11016,0.04325
1240.18142,0.04332
1238.25268,0.04326
1236.32394,0.04317
1234.39519,0.04312
1232.46645,0.04319
1230.53771,0.04345
1228.60897,0.04374
1226.68022,0.04386
1224.75148,0.04386
1222.82274,0.04386
1220.89400,0.04390
1218.96525,0.04389
1217.03651,0.04381
1215.10777,0.04377
1213.17903,0.04383
1211.25028,0.04391
1209.32154,0.04396
1207.39280,0.04392
1205.46406,0.04386
1203.53531,0.04402
1201.60657,0.04445
1199.67783,0.04509
1197.74909,0.04581
1195.82034,0.04632
1193.89160,0.04651
1191.96286,0.04649
1190.03412,0.04644
1188.10537,0.04657
1186.17663,0.04689
1184.24789,0.04718
1182.31915,0.04741
1180.39040,0.04780
1178.46166,0.04835
1176.53292,0.04873
1174.60418,0.04884
1172.67543,0.04903
1170.74669,0.04943
1168.81795,0.04993
1166.88921,0.05053
1164.96046,0.05128
1163.03172,0.05219
1161.10298,0.05309
1159.17424,0.05375
1157.24549,0.05423
1155.31675,0.05479
1153.38801,0.05550
1151.45927,0.05629
1149.53052,0.05703
1147.60178,0.05748
1145.67304,0.05759
1143.74430,0.05742
1141.81555,0.05719
1139.88681,0.05717
1137.95807,0.05711
1136.02933,0.05678
1134.10058,0.05652
1132.17184,0.05640
1130.24310,0.05606
1128.31436,0.05559
1126.38561,0.05552
1124.45687,0.05593
1122.52813,0.05633
1120.59939,0.05651
1118.67064,0.05674
1116.74190,0.05707
1114.81316,0.05719
1112.88442,0.05726
1110.95567,0.05771
1109.02693,0.05822
1107.09819,0.05848
1105.16945,0.05885
1103.24070,0.05925
1101.31196,0.05956
1099.38322,0.06001
1097.45448,0.06036
1095.52574,0.06041
1093.59699,0.06044
1091.66825,0.06052
1089.73951,0.06038
1087.81077,0.05994
1085.88202,0.05967
1083.95328,0.05982
1082.02454,0.05991
1080.09580,0.05981
1078.16705,0.05999
1076.23831,0.06031
1074.30957,0.06049
1072.38083,0.06071
1070.45208,0.06092
1068.52334,0.06115
1066.59460,0.06180
1064.66586,0.06269
1062.73711,0.06330
1060.80837,0.06353
1058.87963,0.06370
1056.95089,0.06408
1055.02214,0.06478
1053.09340,0.06569
1051.16466,0.06637
1049.23592,0.06666
1047.30717,0.06688
1045.37843,0.06721
1043.44969,0.06751
1041.52095,0.06770
1039.59220,0.06786
1037.66346,0.06792
1035.73472,0.06780
1033.80598,0.06778
1031.87723,0.06797
1029.94849,0.06807
1028.01975,0.06818
1026.09101,0.06849
1024.16226,0.06879
1022.23352,0.06910
1020.30478,0.06941
1018.37604,0.06959
1016.44729,0.06961
1014.51855,0.06950
1012.58981,0.06943
1010.66107,0.06941
1008.73232,0.06927
1006.80358,0.06913
1004.87484,0.06910
1002.94610,0.06908
1001.01735,0.06905
999.08861,0.06895
997.15987,0.06871
995.23113,0.06863
993.30238,0.06876
991.37364,0.06873
989.44490,0.06855
987.51616,0.06874
985.58741,0.06935
983.65867,0.06977
981.72993,0.06971
979.80119,0.06942
977.87244,0.06916
975.94370,0.06913
974.01496,0.06912
972.08622,0.06885
970.15747,0.06870
968.22873,0.06891
966.29999,0.06902
964.37125,0.06869
962.44250,0.06824
960.51376,0.06812
958.58502,0.06814
956.65628,0.06804
954.72753,0.06793
952.79879,0.06797
950.87005,0.06794
948.94131,0.06757
947.01256,0.06711
945.08382,0.06692
943.15508,0.06692
941.22634,0.06687
939.29759,0.06666
937.36885,0.06642
935.44011,0.06619
933.51137,0.06588
931.58262,0.06574
929.65388,0.06585
927.72514,0.06586
925.79640,0.06583
923.86765,0.06583
921.93891,0.06557
920.01017,0.06515
918.08143,0.06497
916.15268,0.06504
914.22394,0.06519
912.29520,0.06529
910.36646,0.06523
908.43771,0.06505
906.50897,0.06489
904.58023,0.06475
902.65149,0.06454
900.72274,0.06453
898.79400,0.06496
896.86526,0.06542
894.93652,0.06549
893.00777,0.06532
891.07903,0.06531
889.15029,0.06549
887.22155,0.06566
885.29280,0.06585
883.36406,0.06593
881.43532,0.06572
879.50658,0.06545
877.57783,0.06536
875.64909,0.06534
873.72035,0.06508
871.79161,0.06454
869.86286,0.06412
867.93412,0.06399
866.00538,0.06413
864.07664,0.06435
862.14789,0.06420
860.21915,0.06367
858.29041,0.06309
856.36167,0.06277
854.43292,0.06287
852.50418,0.06322
850.57544,0.06344
848.64670,0.06313
846.71795,0.06225
844.78921,0.06141
842.86047,0.06096
840.93173,0.06067
839.00298,0.06033
837.07424,0.05998
835.14550,0.05964
833.21676,0.05944
831.28801,0.05961
829.35927,0.05998
827.43053,0.06027
825.50179,0.06057
823.57304,0.06101
821.64430,0.06121
819.71556,0.06100
817.78682,0.06079
815.85807,0.06077
813.92933,0.06071
812.00059,0.06074
810.07185,0.06133
808.14310,0.06225
806.21436,0.06293
804.28562,0.06333
802.35688,0.06361
800.42813,0.06378
798.49939,0.06393
796.57065,0.06400
794.64191,0.06387
792.71316,0.06364
790.78442,0.06325
788.85568,0.06265
786.92694,0.06214
784.99819,0.06177
783.06945,0.06134
781.14071,0.06100
779.21197,0.06091
777.28322,0.06070
775.35448,0.06025
773.42574,0.05994
771.49700,0.06003
769.56825,0.06041
767.63951,0.06061
765.71077,0.06032
763.78203,0.06004
761.85328,0.05999
759.92454,0.05992
757.99580,0.06002
756.06706,0.06035
754.13831,0.06038
752.20957,0.05994
750.28083,0.05947
748.35209,0.05928
746.42334,0.05929
744.49460,0.05925
742.56586,0.05927
740.63712,0.05971
738.70837,0.06040
736.77963,0.06072
734.85089,0.06074
732.92215,0.06107
730.99340,0.06161
729.06466,0.06203
727.13592,0.06218
725.20718,0.06189
723.27843,0.06150
721.34969,0.06166
719.42095,0.06211
717.49221,0.06209
715.56346,0.06174
713.63472,0.06162
711.70598,0.06158
709.77724,0.06145
707.84849,0.06122
705.91975,0.06088
703.99101,0.06090
702.06227,0.06157
700.13352,0.06255
698.20478,0.06364
696.27604,0.06478
694.34730,0.06569
692.41855,0.06626
690.48981,0.06665
688.56107,0.06691
686.63233,0.06739
684.70358,0.06851
682.77484,0.06956
680.84610,0.06982
678.91736,0.06959
676.98861,0.06909
675.05987,0.06855
673.13113,0.06847
671.20239,0.06840
669.27364,0.06749
667.34490,0.06594
665.41616,0.06461
663.48742,0.06388
661.55867,0.06346
659.62993,0.06272
657.70119,0.06141
655.77245,0.06002
653.84370,0.05871
651.91496,0.05767
649.98622,0.05748
648.05748,0.05778
646.12873,0.05803
644.19999,0.05857
642.27125,0.05912
640.34251,0.05905
638.41376,0.05867
636.48502,0.05811
634.55628,0.05691
632.62754,0.05540
630.69879,0.05471
628.77005,0.05509
626.84131,0.05539
624.91257,0.05510
622.98382,0.05519
621.05508,0.05600
619.12634,0.05684
617.19760,0.05741
615.26885,0.05749
613.34011,0.05719
611.41137,0.05721
609.48263,0.05721
607.55388,0.05643
605.62514,0.05570
603.69640,0.05600
601.76766,0.05709
599.83891,0.05808
