7497.02206,0.36891
7495.09332,0.36993
7493.16458,0.37538
7491.23584,0.38107
7489.30709,0.38137
7487.37835,0.37834
7485.44961,0.37629
7483.52087,0.37644
7481.59212,0.37952
7479.66338,0.38273
7477.73464,0.38056
7475.80590,0.37384
7473.87715,0.36813
7471.94841,0.36756
7470.01967,0.37428
7468.09093,0.38415
7466.16218,0.38777
7464.23344,0.38339
7462.30470,0.37717
7460.37596,0.37189
7458.44721,0.36949
7456.51847,0.37391
7454.58973,0.38100
7452.66099,0.38429
7450.73224,0.38711
7448.80350,0.38975
7446.87476,0.38503
7444.94602,0.37503
7443.01727,0.36972
7441.08853,0.37306
7439.15979,0.37940
7437.23105,0.37921
7435.30230,0.37207
7433.37356,0.36841
7431.44482,0.37229
7429.51608,0.37622
7427.58733,0.37609
7425.65859,0.37543
7423.72985,0.37479
7421.80111,0.37147
7419.87236,0.36716
7417.94362,0.36641
7416.01488,0.36960
7414.08614,0.37230
7412.15739,0.37121
7410.22865,0.36864
7408.29991,0.36740
7406.37117,0.36674
7404.44242,0.36709
7402.51368,0.36815
7400.58494,0.36680
7398.65620,0.36512
7396.72745,0.36693
7394.79871,0.37083
7392.86997,0.37249
7390.94123,0.36987
7389.01248,0.36709
7387.08374,0.36568
7385.15500,0.36308
7383.22626,0.36354
7381.29751,0.36954
7379.36877,0.37369
7377.44003,0.37192
7375.51129,0.36835
7373.58254,0.36622
7371.65380,0.36541
7369.72506,0.36477
7367.79632,0.36327
7365.86757,0.36221
7363.93883,0.36371
7362.01009,0.36665
7360.08135,0.36716
7358.15260,0.36536
7356.22386,0.36429
7354.29512,0.36327
7352.36638,0.36320
7350.43763,0.36632
7348.50889,0.36858
7346.58015,0.36689
7344.65141,0.36555
7342.72266,0.36754
7340.79392,0.36821
7338.86518,0.36521
7336.93644,0.36410
7335.00769,0.36591
7333.07895,0.36611
7331.15021,0.36394
7329.22147,0.36087
7327.29272,0.35861
7325.36398,0.35918
7323.43524,0.36025
7321.50650,0.35877
7319.57775,0.35755
7317.64901,0.36029
7315.72027,0.36525
7313.79153,0.36771
7311.86278,0.36457
7309.93404,0.35772
7308.00530,0.35462
7306.07656,0.35771
7304.14781,0.35987
7302.21907,0.35917
7300.29033,0.36112
7298.36159,0.36606
7296.43284,0.36767
7294.50410,0.36324
7292.57536,0.35831
7290.64662,0.35707
7288.71787,0.35791
7286.78913,0.35996
7284.86039,0.36335
7282.93165,0.36467
7281.00290,0.36086
7279.07416,0.35658
7277.14542,0.35637
7275.21668,0.35822
7273.28793,0.36091
7271.35919,0.36396
7269.43045,0.36444
7267.50171,0.36163
7265.57296,0.35855
7263.64422,0.35748
7261.71548,0.35743
7259.78674,0.35733
7257.85799,0.35861
7255.92925,0.36197
7254.00051,0.36401
7252.07177,0.36227
7250.14302,0.35937
7248.21428,0.35757
7246.28554,0.35562
7244.35680,0.35356
7242.42805,0.35475
7240.49931,0.35861
7238.57057,0.36025
7236.64183,0.35957
7234.71308,0.35944
7232.78434,0.36197
7230.85560,0.36648
7228.92686,0.36751
7226.99811,0.36340
7225.06937,0.35982
7223.14063,0.35854
7221.21189,0.35661
7219.28314,0.35567
7217.35440,0.35810
7215.42566,0.36034
7213.49692,0.35912
7211.56817,0.35697
7209.63943,0.35666
7207.71069,0.35561
7205.78195,0.35285
7203.85320,0.35210
7201.92446,0.35433
7199.99572,0.35699
7198.06698,0.35883
7196.13823,0.36008
7194.20949,0.35968
7192.28075,0.35643
7190.35201,0.35236
7188.42326,0.35075
7186.49452,0.35098
7184.56578,0.35003
7182.63704,0.34840
7180.70829,0.34865
7178.77955,0.35070
7176.85081,0.35227
7174.92207,0.35204
7172.99332,0.35067
7171.06458,0.34986
7169.13584,0.35011
7167.20710,0.35000
7165.27835,0.34968
7163.34961,0.35068
7161.42087,0.35147
7159.49213,0.35034
7157.56338,0.34972
7155.63464,0.35084
7153.70590,0.35138
7151.77716,0.35145
7149.84841,0.35280
7147.91967,0.35351
7145.99093,0.35005
7144.06219,0.34571
7142.13344,0.34649
7140.20470,0.34851
7138.27596,0.34854
7136.34722,0.34934
7134.41847,0.34909
7132.48973,0.34812
7130.56099,0.34850
7128.63225,0.34664
7126.70351,0.34218
7124.77476,0.33945
7122.84602,0.33958
7120.91728,0.34236
7118.98854,0.34696
7117.05979,0.34956
7115.13105,0.34715
7113.20231,0.34124
7111.27357,0.33557
7109.34482,0.33182
7107.41608,0.33039
7105.48734,0.33268
7103.55860,0.33661
7101.62985,0.33822
7099.70111,0.33662
7097.77237,0.33344
7095.84363,0.33255
7093.91488,0.33606
7091.98614,0.33998
7090.05740,0.33971
7088.12866,0.33681
7086.19991,0.33525
7084.27117,0.33617
7082.34243,0.33762
7080.41369,0.33611
7078.48494,0.33145
7076.55620,0.32708
7074.62746,0.32578
7072.69872,0.32661
7070.76997,0.32540
7068.84123,0.32222
7066.91249,0.32191
7064.98375,0.32495
7063.05500,0.32747
7061.12626,0.32835
7059.19752,0.32916
7057.26878,0.32927
7055.34003,0.32775
7053.41129,0.32636
7051.48255,0.32730
7049.55381,0.32892
7047.62506,0.32708
7045.69632,0.32199
7043.76758,0.31795
7041.83884,0.31695
7039.91009,0.31688
7037.98135,0.31583
7036.05261,0.31615
7034.12387,0.31905
7032.19512,0.32028
7030.26638,0.31753
7028.33764,0.31522
7026.40890,0.31727
7024.48015,0.32024
7022.55141,0.31875
7020.62267,0.31387
7018.69393,0.31187
7016.76518,0.31486
7014.83644,0.31694
7012.90770,0.31469
7010.97896,0.31269
7009.05021,0.31368
7007.12147,0.31477
7005.19273,0.31347
7003.26399,0.31018
7001.33524,0.30694
6999.40650,0.30681
6997.47776,0.31017
6995.54902,0.31328
6993.62027,0.31361
6991.69153,0.31150
6989.76279,0.30805
6987.83405,0.30481
6985.90530,0.30370
6983.97656,0.30494
6982.04782,0.30603
6980.11908,0.30656
6978.19033,0.30903
6976.26159,0.31178
6974.33285,0.31094
6972.40411,0.30792
6970.47536,0.30600
6968.54662,0.30514
6966.61788,0.30515
6964.68914,0.30623
6962.76039,0.30596
6960.83165,0.30292
6958.90291,0.30001
6956.97417,0.29925
6955.04542,0.30057
6953.11668,0.30401
6951.18794,0.30642
6949.25920,0.30529
6947.33045,0.30406
6945.40171,0.30519
6943.47297,0.30694
6941.54423,0.30789
6939.61548,0.30794
6937.68674,0.30665
6935.75800,0.30420
6933.82926,0.30233
6931.90051,0.30203
6929.97177,0.30249
6928.04303,0.30374
6926.11429,0.30659
6924.18554,0.30971
6922.25680,0.31087
6920.32806,0.30932
6918.39932,0.30673
6916.47057,0.30616
6914.54183,0.30828
6912.61309,0.31028
6910.68435,0.30845
6908.75560,0.30327
6906.82686,0.29978
6904.89812,0.29911
6902.96938,0.29878
6901.04063,0.29886
6899.11189,0.30001
6897.18315,0.30151
6895.25441,0.30309
6893.32566,0.30477
6891.39692,0.30585
6889.46818,0.30594
6887.53944,0.30564
6885.61069,0.30582
6883.68195,0.30605
6881.75321,0.30536
6879.82447,0.30494
6877.89572,0.30543
6875.96698,0.30502
6874.03824,0.30371
6872.10950,0.30352
6870.18075,0.30441
6868.25201,0.30480
6866.32327,0.30462
6864.39453,0.30486
6862.46578,0.30516
6860.53704,0.30386
6858.60830,0.30177
6856.67956,0.30213
6854.75081,0.30512
6852.82207,0.30712
6850.89333,0.30604
6848.96459,0.30430
6847.03584,0.30459
6845.10710,0.30620
6843.17836,0.30847
6841.24962,0.30985
6839.32087,0.30803
6837.39213,0.30511
6835.46339,0.30293
6833.53465,0.30106
6831.60590,0.30214
6829.67716,0.30673
6827.74842,0.30897
6825.81968,0.30660
6823.89093,0.30404
6821.96219,0.30323
6820.03345,0.30369
6818.10471,0.30517
6816.17596,0.30607
6814.24722,0.30659
6812.31848,0.30788
6810.38974,0.30866
6808.46099,0.30780
6806.53225,0.30546
6804.60351,0.30248
6802.67477,0.30055
6800.74602,0.30079
6798.81728,0.30239
6796.88854,0.30369
6794.95980,0.30412
6793.03105,0.30467
6791.10231,0.30581
6789.17357,0.30605
6787.24483,0.30535
6785.31608,0.30460
6783.38734,0.30262
6781.45860,0.30045
6779.52986,0.30044
6777.60111,0.30168
6775.67237,0.30410
6773.74363,0.30860
6771.81489,0.31138
6769.88614,0.30972
6767.95740,0.30764
6766.02866,0.30778
6764.09992,0.30821
6762.17117,0.30775
6760.24243,0.30685
6758.31369,0.30663
6756.38495,0.30706
6754.45620,0.30643
6752.52746,0.30525
6750.59872,0.30594
6748.66998,0.30858
6746.74123,0.30989
6744.81249,0.30788
6742.88375,0.30573
6740.95501,0.30603
6739.02626,0.30780
6737.09752,0.30915
6735.16878,0.30848
6733.24004,0.30721
6731.31129,0.30735
6729.38255,0.30774
6727.45381,0.30706
6725.52507,0.30697
6723.59632,0.30888
6721.66758,0.31012
6719.73884,0.30935
6717.81010,0.30827
6715.88135,0.30736
6713.95261,0.30756
6712.02387,0.30926
6710.09513,0.31039
6708.16638,0.30977
6706.23764,0.30867
6704.30890,0.30822
6702.38016,0.30855
6700.45141,0.31051
6698.52267,0.31286
6696.59393,0.31288
6694.66519,0.31118
6692.73644,0.30974
6690.80770,0.30902
6688.87896,0.30896
6686.95022,0.30861
6685.02147,0.30705
6683.09273,0.30647
6681.16399,0.30915
6679.23525,0.31287
6677.30650,0.31408
6675.37776,0.31272
6673.44902,0.31066
6671.52028,0.30882
6669.59153,0.30878
6667.66279,0.31099
6665.73405,0.31279
6663.80531,0.31274
6661.87656,0.31208
6659.94782,0.31165
6658.01908,0.31117
6656.09034,0.31119
6654.16159,0.31195
6652.23285,0.31233
6650.30411,0.31332
6648.37537,0.31551
6646.44662,0.31613
6644.51788,0.31422
6642.58914,0.31294
6640.66040,0.31305
6638.73165,0.31221
6636.80291,0.31147
6634.87417,0.31318
6632.94543,0.31659
6631.01668,0.31865
6629.08794,0.31773
6627.15920,0.31606
6625.23046,0.31545
6623.30171,0.31597
6621.37297,0.31660
6619.44423,0.31639
6617.51549,0.31726
6615.58674,0.31833
6613.65800,0.31674
6611.72926,0.31465
6609.80052,0.31471
6607.87177,0.31639
6605.94303,0.31891
6604.01429,0.32168
6602.08555,0.32381
6600.15680,0.32452
6598.22806,0.32354
6596.29932,0.32185
6594.37058,0.32119
6592.44183,0.32088
6590.51309,0.31977
6588.58435,0.31982
6586.65561,0.32147
6584.72686,0.32273
6582.79812,0.32346
6580.86938,0.32374
6578.94064,0.32370
6577.01190,0.32410
6575.08315,0.32377
6573.15441,0.32230
6571.22567,0.32207
6569.29693,0.32411
6567.36818,0.32697
6565.43944,0.32845
6563.51070,0.32741
6561.58196,0.32553
6559.65321,0.32530
6557.72447,0.32677
6555.79573,0.32772
6553.86699,0.32615
6551.93824,0.32320
6550.00950,0.32141
6548.08076,0.32089
6546.15202,0.32192
6544.22327,0.32532
6542.29453,0.32824
6540.36579,0.32818
6538.43705,0.32751
6536.50830,0.32856
6534.57956,0.32954
6532.65082,0.32924
6530.72208,0.32884
6528.79333,0.32779
6526.86459,0.32594
6524.93585,0.32520
6523.00711,0.32610
6521.07836,0.32729
6519.14962,0.32706
6517.22088,0.32580
6515.29214,0.32531
6513.36339,0.32589
6511.43465,0.32752
6509.50591,0.33005
6507.57717,0.33162
6505.64842,0.33070
6503.71968,0.32940
6501.79094,0.33052
6499.86220,0.33213
6497.93345,0.33171
6496.00471,0.33025
6494.07597,0.32850
6492.14723,0.32620
6490.21848,0.32422
6488.28974,0.32328
6486.36100,0.32364
6484.43226,0.32444
6482.50351,0.32427
6480.57477,0.32502
6478.64603,0.32779
6476.71729,0.32896
6474.78854,0.32781
6472.85980,0.32775
6470.93106,0.32876
6469.00232,0.32876
6467.07357,0.32789
6465.14483,0.32679
6463.21609,0.32629
6461.28735,0.32754
6459.35860,0.32997
6457.42986,0.33171
6455.50112,0.33147
6453.57238,0.33021
6451.64363,0.32993
6449.71489,0.33076
6447.78615,0.33221
6445.85741,0.33361
6443.92866,0.33312
6441.99992,0.33097
6440.07118,0.32972
6438.14244,0.32985
6436.21369,0.33035
6434.28495,0.33150
6432.35621,0.33322
6430.42747,0.33426
6428.49872,0.33369
6426.56998,0.33191
6424.64124,0.33097
6422.71250,0.33191
6420.78375,0.33279
6418.85501,0.33290
6416.92627,0.33393
6414.99753,0.33562
6413.06878,0.33609
6411.14004,0.33423
6409.21130,0.33147
6407.28256,0.33080
6405.35381,0.33213
6403.42507,0.33323
6401.49633,0.33358
6399.56759,0.33387
6397.63884,0.33402
6395.71010,0.33347
6393.78136,0.33318
6391.85262,0.33436
6389.92387,0.33583
6387.99513,0.33594
6386.06639,0.33565
6384.13765,0.33633
6382.20890,0.33762
6380.28016,0.33822
6378.35142,0.33644
6376.42268,0.33342
6374.49393,0.33258
6372.56519,0.33364
6370.63645,0.33419
6368.70771,0.33401
6366.77896,0.33370
6364.85022,0.33271
6362.92148,0.33091
6360.99274,0.32988
6359.06399,0.33095
6357.13525,0.33305
6355.20651,0.33371
6353.27777,0.33316
6351.34902,0.33331
6349.42028,0.33391
6347.49154,0.33450
6345.56280,0.33498
6343.63405,0.33536
6341.70531,0.33624
6339.77657,0.33723
6337.84783,0.33803
6335.91908,0.33917
6333.99034,0.33997
6332.06160,0.33896
6330.13286,0.33632
6328.20411,0.33463
6326.27537,0.33539
6324.34663,0.33678
6322.41789,0.33708
6320.48914,0.33706
6318.56040,0.33755
6316.63166,0.33827
6314.70292,0.33855
6312.77417,0.33774
6310.84543,0.33631
6308.91669,0.33509
6306.98795,0.33435
6305.05920,0.33504
6303.13046,0.33717
6301.20172,0.33841
6299.27298,0.33782
6297.34423,0.33744
6295.41549,0.33869
6293.48675,0.34064
6291.55801,0.34225
6289.62926,0.34306
6287.70052,0.34228
6285.77178,0.34089
6283.84304,0.34055
6281.91429,0.34057
6279.98555,0.34020
6278.05681,0.34030
6276.12807,0.34080
6274.19932,0.34044
6272.27058,0.34007
6270.34184,0.34140
6268.41310,0.34279
6266.48435,0.34174
6264.55561,0.33950
6262.62687,0.33968
6260.69813,0.34276
6258.76938,0.34565
6256.84064,0.34586
6254.91190,0.34385
6252.98316,0.34237
6251.05441,0.34231
6249.12567,0.34291
6247.19693,0.34397
6245.26819,0.34438
6243.33944,0.34478
6241.41070,0.34627
6239.48196,0.34672
6237.55322,0.34608
6235.62447,0.34568
6233.69573,0.34464
6231.76699,0.34321
6229.83825,0.34268
6227.90950,0.34311
6225.98076,0.34388
6224.05202,0.34474
6222.12328,0.34633
6220.19453,0.34790
6218.26579,0.34770
6216.33705,0.34709
6214.40831,0.34776
6212.47956,0.34803
6210.55082,0.34680
6208.62208,0.34614
6206.69334,0.34712
6204.76459,0.34837
6202.83585,0.34903
6200.90711,0.34910
6198.97837,0.34867
6197.04962,0.34854
6195.12088,0.34892
6193.19214,0.34873
6191.26340,0.34784
6189.33465,0.34737
6187.40591,0.34742
6185.47717,0.34716
6183.54843,0.34624
6181.61968,0.34504
6179.69094,0.34448
6177.76220,0.34555
6175.83346,0.34740
6173.90471,0.34803
6171.97597,0.34799
6170.04723,0.34894
6168.11849,0.35023
6166.18974,0.35084
6164.26100,0.35073
6162.33226,0.35008
6160.40352,0.34985
6158.47477,0.35082
6156.54603,0.35203
6154.61729,0.35223
6152.68855,0.35125
6150.75980,0.35011
6148.83106,0.35064
6146.90232,0.35270
6144.97358,0.35379
6143.04483,0.35295
6141.11609,0.35147
6139.18735,0.35063
6137.25861,0.35110
6135.32986,0.35243
6133.40112,0.35326
6131.47238,0.35320
6129.54364,0.35310
6127.61489,0.35373
6125.68615,0.35448
6123.75741,0.35390
6121.82867,0.35323
6119.89992,0.35457
6117.97118,0.35587
6116.04244,0.35453
6114.11370,0.35187
6112.18495,0.34969
6110.25621,0.34846
6108.32747,0.34910
6106.39873,0.35146
6104.46998,0.35335
6102.54124,0.35344
6100.61250,0.35262
6098.68376,0.35239
6096.75501,0.35306
6094.82627,0.35378
6092.89753,0.35363
6090.96879,0.35273
6089.04004,0.35250
6087.11130,0.35337
6085.18256,0.35403
6083.25382,0.35401
6081.32507,0.35380
6079.39633,0.35371
6077.46759,0.35344
6075.53885,0.35228
6073.61010,0.35088
6071.68136,0.35079
6069.75262,0.35140
6067.82388,0.35072
6065.89513,0.34978
6063.96639,0.35121
6062.03765,0.35372
6060.10891,0.35414
6058.18016,0.35296
6056.25142,0.35259
6054.32268,0.35265
6052.39394,0.35164
6050.46519,0.35034
6048.53645,0.35008
6046.60771,0.35054
6044.67897,0.35041
6042.75022,0.34947
6040.82148,0.34836
6038.89274,0.34774
6036.96400,0.34771
6035.03525,0.34742
6033.10651,0.34674
6031.17777,0.34594
6029.24903,0.34462
6027.32029,0.34335
6025.39154,0.34271
6023.46280,0.34220
6021.53406,0.34204
6019.60532,0.34269
6017.67657,0.34271
6015.74783,0.34090
6013.81909,0.33891
6011.89035,0.33851
6009.96160,0.33900
6008.03286,0.33893
6006.10412,0.33842
6004.17538,0.33812
6002.24663,0.33728
6000.31789,0.33603
5998.38915,0.33584
5996.46041,0.33618
5994.53166,0.33556
5992.60292,0.33448
5990.67418,0.33418
5988.74544,0.33467
5986.81669,0.33507
5984.88795,0.33447
5982.95921,0.33254
5981.03047,0.33100
5979.10172,0.33146
5977.17298,0.33217
5975.24424,0.33143
5973.31550,0.33009
5971.38675,0.32899
5969.45801,0.32768
5967.52927,0.32609
5965.60053,0.32549
5963.67178,0.32646
5961.74304,0.32772
5959.81430,0.32827
5957.88556,0.32815
5955.95681,0.32724
5954.02807,0.32590
5952.09933,0.32525
5950.17059,0.32500
5948.24184,0.32472
5946.31310,0.32531
5944.38436,0.32641
5942.45562,0.32676
5940.52687,0.32598
5938.59813,0.32473
5936.66939,0.32391
5934.74065,0.32397
5932.81190,0.32432
5930.88316,0.32398
5928.95442,0.32388
5927.02568,0.32487
5925.09693,0.32519
5923.16819,0.32406
5921.23945,0.32307
5919.31071,0.32259
5917.38196,0.32189
5915.45322,0.32158
5913.52448,0.32196
5911.59574,0.32230
5909.66699,0.32241
5907.73825,0.32218
5905.80951,0.32117
5903.88077,0.31963
5901.95202,0.31912
5900.02328,0.32038
5898.09454,0.32172
5896.16580,0.32206
5894.23705,0.32226
5892.30831,0.32271
5890.37957,0.32273
5888.45083,0.32230
5886.52208,0.32203
5884.59334,0.32173
5882.66460,0.32107
5880.73586,0.32031
5878.80711,0.31949
5876.87837,0.31883
5874.94963,0.31898
5873.02089,0.31993
5871.09214,0.32089
5869.16340,0.32146
5867.23466,0.32171
5865.30592,0.32115
5863.37717,0.31965
5861.44843,0.31880
5859.51969,0.31994
5857.59095,0.32195
5855.66220,0.32303
5853.73346,0.32314
5851.80472,0.32312
5849.87598,0.32290
5847.94723,0.32225
5846.01849,0.32119
5844.08975,0.32002
5842.16101,0.31980
5840.23226,0.32068
5838.30352,0.32118
5836.37478,0.32087
5834.44604,0.32071
5832.51729,0.32036
5830.58855,0.31917
5828.65981,0.31830
5826.73107,0.31831
5824.80232,0.31809
5822.87358,0.31755
5820.94484,0.31712
5819.01610,0.31602
5817.08735,0.31464
5815.15861,0.31446
5813.22987,0.31512
5811.30113,0.31554
5809.37238,0.31568
5807.44364,0.31542
5805.51490,0.31466
5803.58616,0.31431
5801.65741,0.31444
5799.72867,0.31414
5797.79993,0.31431
5795.87119,0.31563
5793.94244,0.31632
5792.01370,0.31589
5790.08496,0.31577
5788.15622,0.31582
5786.22747,0.31496
5784.29873,0.31380
5782.36999,0.31358
5780.44125,0.31404
5778.51250,0.31467
5776.58376,0.31565
5774.65502,0.31660
5772.72628,0.31752
5770.79753,0.31876
5768.86879,0.31931
5766.94005,0.31906
5765.01131,0.31975
5763.08256,0.32139
5761.15382,0.32226
5759.22508,0.32165
5757.29634,0.32005
5755.36759,0.31888
5753.43885,0.31932
5751.51011,0.32065
5749.58137,0.32178
5747.65262,0.32260
5745.72388,0.32337
5743.79514,0.32413
5741.86640,0.32454
5739.93765,0.32447
5738.00891,0.32435
5736.08017,0.32436
5734.15143,0.32427
5732.22268,0.32441
5730.29394,0.32548
5728.36520,0.32669
5726.43646,0.32725
5724.50771,0.32761
5722.57897,0.32768
5720.65023,0.32773
5718.72149,0.32831
5716.79274,0.32833
5714.86400,0.32734
5712.93526,0.32680
5711.00652,0.32764
5709.07777,0.32854
5707.14903,0.32812
5705.22029,0.32776
5703.29155,0.32892
5701.36280,0.33036
5699.43406,0.33059
5697.50532,0.33023
5695.57658,0.33012
5693.64783,0.32993
5691.71909,0.32963
5689.79035,0.32952
5687.86161,0.32950
5685.93286,0.32999
5684.00412,0.33142
5682.07538,0.33254
5680.14664,0.33202
5678.21789,0.33080
5676.28915,0.33037
5674.36041,0.33060
5672.43167,0.33053
5670.50292,0.33013
5668.57418,0.33049
5666.64544,0.33137
5664.71670,0.33122
5662.78795,0.33010
5660.85921,0.32930
5658.93047,0.32963
5657.00173,0.33105
5655.07298,0.33236
5653.14424,0.33286
5651.21550,0.33314
5649.28676,0.33316
5647.35801,0.33278
5645.42927,0.33259
5643.50053,0.33279
5641.57179,0.33320
5639.64304,0.33364
5637.71430,0.33378
5635.78556,0.33392
5633.85682,0.33451
5631.92807,0.33506
5629.99933,0.33507
5628.07059,0.33515
5626.14185,0.33554
5624.21310,0.33529
5622.28436,0.33412
5620.35562,0.33345
5618.42688,0.33426
5616.49813,0.33538
5614.56939,0.33545
5612.64065,0.33489
5610.71191,0.33472
5608.78316,0.33523
5606.85442,0.33633
5604.92568,0.33734
5602.99694,0.33732
5601.06819,0.33674
5599.13945,0.33662
5597.21071,0.33662
5595.28197,0.33612
5593.35322,0.33576
5591.42448,0.33669
5589.49574,0.33834
5587.56700,0.33897
5585.63825,0.33856
5583.70951,0.33781
5581.78077,0.33673
5579.85203,0.33604
5577.92328,0.33659
5575.99454,0.33779
5574.06580,0.33847
5572.13706,0.33847
5570.20831,0.33843
5568.27957,0.33868
5566.35083,0.33937
5564.42209,0.34012
5562.49334,0.33999
5560.56460,0.33948
5558.63586,0.33937
5556.70712,0.33909
5554.77837,0.33855
5552.84963,0.33914
5550.92089,0.34131
5548.99215,0.34296
5547.06340,0.34252
5545.13466,0.34141
5543.20592,0.34104
5541.27718,0.34095
5539.34843,0.34073
5537.41969,0.34056
5535.49095,0.34053
5533.56221,0.34111
5531.63346,0.34234
5529.70472,0.34316
5527.77598,0.34311
5525.84724,0.34293
5523.91849,0.34338
5521.98975,0.34423
5520.06101,0.34487
5518.13227,0.34507
5516.20352,0.34464
5514.27478,0.34407
5512.34604,0.34363
5510.41730,0.34289
5508.48855,0.34253
5506.55981,0.34375
5504.63107,0.34573
5502.70233,0.34662
5500.77358,0.34624
5498.84484,0.34553
5496.91610,0.34497
5494.98736,0.34477
5493.05861,0.34451
5491.12987,0.34372
5489.20113,0.34327
5487.27239,0.34416
5485.34365,0.34558
5483.41490,0.34668
5481.48616,0.34771
5479.55742,0.34820
5477.62868,0.34767
5475.69993,0.34680
5473.77119,0.34613
5471.84245,0.34581
5469.91371,0.34599
5467.98496,0.34653
5466.05622,0.34689
5464.12748,0.34671
5462.19874,0.34648
5460.26999,0.34714
5458.34125,0.34865
5456.41251,0.34943
5454.48377,0.34891
5452.55502,0.34840
5450.62628,0.34878
5448.69754,0.34970
5446.76880,0.35057
5444.84005,0.35106
5442.91131,0.35117
5440.98257,0.35098
5439.05383,0.35066
5437.12508,0.35083
5435.19634,0.35151
5433.26760,0.35205
5431.33886,0.35235
5429.41011,0.35260
5427.48137,0.35300
5425.55263,0.35362
5423.62389,0.35422
5421.69514,0.35466
5419.76640,0.35459
5417.83766,0.35377
5415.90892,0.35312
5413.98017,0.35346
5412.05143,0.35429
5410.12269,0.35476
5408.19395,0.35474
5406.26520,0.35451
5404.33646,0.35443
5402.40772,0.35478
5400.47898,0.35518
5398.55023,0.35509
5396.62149,0.35516
5394.69275,0.35577
5392.76401,0.35634
5390.83526,0.35637
5388.90652,0.35556
5386.97778,0.35463
5385.04904,0.35446
5383.12029,0.35457
5381.19155,0.35470
5379.26281,0.35509
5377.33407,0.35523
5375.40532,0.35483
5373.47658,0.35482
5371.54784,0.35548
5369.61910,0.35574
5367.69035,0.35538
5365.76161,0.35514
5363.83287,0.35506
5361.90413,0.35473
5359.97538,0.35441
5358.04664,0.35432
5356.11790,0.35370
5354.18916,0.35278
5352.26041,0.35281
5350.33167,0.35319
5348.40293,0.35299
5346.47419,0.35278
5344.54544,0.35271
5342.61670,0.35269
5340.68796,0.35310
5338.75922,0.35355
5336.83047,0.35334
5334.90173,0.35233
5332.97299,0.35101
5331.04425,0.34995
5329.11550,0.34900
5327.18676,0.34788
5325.25802,0.34677
5323.32928,0.34586
5321.40053,0.34530
5319.47179,0.34493
5317.54305,0.34418
5315.61431,0.34314
5313.68556,0.34249
5311.75682,0.34245
5309.82808,0.34223
5307.89934,0.34085
5305.97059,0.33885
5304.04185,0.33728
5302.11311,0.33611
5300.18437,0.33488
5298.25562,0.33319
5296.32688,0.33099
5294.39814,0.32886
5292.46940,0.32721
5290.54065,0.32550
5288.61191,0.32321
5286.68317,0.32108
5284.75443,0.31948
5282.82568,0.31764
5280.89694,0.31553
5278.96820,0.31346
5277.03946,0.31090
5275.11071,0.30761
5273.18197,0.30426
5271.25323,0.30129
5269.32449,0.29885
5267.39574,0.29669
5265.46700,0.29442
5263.53826,0.29206
5261.60952,0.28940
5259.68077,0.28606
5257.75203,0.28283
5255.82329,0.28065
5253.89455,0.27914
5251.96580,0.27734
5250.03706,0.27493
5248.10832,0.27268
5246.17958,0.27133
5244.25083,0.27038
5242.32209,0.26904
5240.39335,0.26730
5238.46461,0.26552
5236.53586,0.26395
5234.60712,0.26226
5232.67838,0.26063
5230.74964,0.25982
5228.82089,0.25925
5226.89215,0.25833
5224.96341,0.25777
5223.03467,0.25741
5221.10592,0.25663
5219.17718,0.25581
5217.24844,0.25555
5215.31970,0.25551
5213.39095,0.25470
5211.46221,0.25358
5209.53347,0.25344
5207.60473,0.25425
5205.67598,0.25487
5203.74724,0.25465
5201.81850,0.25435
5199.88976,0.25438
5197.96101,0.25404
5196.03227,0.25337
5194.10353,0.25336
5192.17479,0.25415
5190.24604,0.25462
5188.31730,0.25417
5186.38856,0.25356
5184.45982,0.25371
5182.53107,0.25439
5180.60233,0.25475
5178.67359,0.25484
5176.74485,0.25524
5174.81610,0.25579
5172.88736,0.25628
5170.95862,0.25679
5169.02988,0.25741
5167.10113,0.25820
5165.17239,0.25917
5163.24365,0.26027
5161.31491,0.26151
5159.38616,0.26247
5157.45742,0.26258
5155.52868,0.26227
5153.59994,0.26248
5151.67119,0.26318
5149.74245,0.26385
5147.81371,0.26453
5145.88497,0.26545
5143.95622,0.26647
5142.02748,0.26741
5140.09874,0.26805
5138.17000,0.26846
5136.24125,0.26896
5134.31251,0.26973
5132.38377,0.27051
5130.45503,0.27068
5128.52628,0.27049
5126.59754,0.27091
5124.66880,0.27195
5122.74006,0.27305
5120.81131,0.27386
5118.88257,0.27431
5116.95383,0.27493
5115.02509,0.27573
5113.09634,0.27623
5111.16760,0.27679
5109.23886,0.27757
5107.31012,0.27832
5105.38137,0.27893
5103.45263,0.27941
5101.52389,0.28014
5099.59515,0.28112
5097.66640,0.28191
5095.73766,0.28275
5093.80892,0.28387
5091.88018,0.28496
5089.95143,0.28583
5088.02269,0.28632
5086.09395,0.28627
5084.16521,0.28608
5082.23646,0.28676
5080.30772,0.28815
5078.37898,0.28905
5076.45024,0.28924
5074.52149,0.28926
5072.59275,0.28948
5070.66401,0.29040
5068.73527,0.29169
5066.80652,0.29236
5064.87778,0.29232
5062.94904,0.29239
5061.02030,0.29311
5059.09155,0.29412
5057.16281,0.29500
5055.23407,0.29554
5053.30533,0.29593
5051.37658,0.29654
5049.44784,0.29715
5047.51910,0.29756
5045.59036,0.29789
5043.66161,0.29832
5041.73287,0.29892
5039.80413,0.29921
5037.87539,0.29919
5035.94664,0.29956
5034.01790,0.30024
5032.08916,0.30087
5030.16042,0.30158
5028.23167,0.30232
5026.30293,0.30293
5024.37419,0.30326
5022.44545,0.30336
5020.51670,0.30363
5018.58796,0.30380
5016.65922,0.30369
5014.73048,0.30425
5012.80173,0.30550
5010.87299,0.30595
5008.94425,0.30523
5007.01551,0.30474
5005.08676,0.30526
5003.15802,0.30612
5001.22928,0.30651
4999.30054,0.30657
4997.37179,0.30661
4995.44305,0.30677
4993.51431,0.30717
4991.58557,0.30747
4989.65682,0.30736
4987.72808,0.30698
4985.79934,0.30679
4983.87060,0.30700
4981.94185,0.30696
4980.01311,0.30642
4978.08437,0.30592
4976.15563,0.30541
4974.22688,0.30477
4972.29814,0.30448
4970.36940,0.30444
4968.44066,0.30426
4966.51191,0.30394
4964.58317,0.30350
4962.65443,0.30289
4960.72569,0.30207
4958.79694,0.30154
4956.86820,0.30161
4954.93946,0.30148
4953.01072,0.30085
4951.08197,0.30025
4949.15323,0.29985
4947.22449,0.29943
4945.29575,0.29875
4943.36700,0.29785
4941.43826,0.29671
4939.50952,0.29525
4937.58078,0.29389
4935.65204,0.29304
4933.72329,0.29245
4931.79455,0.29166
4929.86581,0.29055
4927.93707,0.28936
4926.00832,0.28864
4924.07958,0.28841
4922.15084,0.28811
4920.22210,0.28737
4918.29335,0.28632
4916.36461,0.28523
4914.43587,0.28429
4912.50713,0.28369
4910.57838,0.28312
4908.64964,0.28236
4906.72090,0.28200
4904.79216,0.28189
4902.86341,0.28123
4900.93467,0.28017
4899.00593,0.27932
4897.07719,0.27857
4895.14844,0.27760
4893.21970,0.27695
4891.29096,0.27698
4889.36222,0.27702
4887.43347,0.27675
4885.50473,0.27628
4883.57599,0.27555
4881.64725,0.27466
4879.71850,0.27422
4877.78976,0.27444
4875.86102,0.27416
4873.93228,0.27292
4872.00353,0.27194
4870.07479,0.27177
4868.14605,0.27173
4866.21731,0.27143
4864.28856,0.27117
4862.35982,0.27086
4860.43108,0.26997
4858.50234,0.26896
4856.57359,0.26846
4854.64485,0.26814
4852.71611,0.26771
4850.78737,0.26743
4848.85862,0.26729
4846.92988,0.26696
4845.00114,0.26644
4843.07240,0.26595
4841.14365,0.26545
4839.21491,0.26478
4837.28617,0.26398
4835.35743,0.26314
4833.42868,0.26249
4831.49994,0.26220
4829.57120,0.26207
4827.64246,0.26201
4825.71371,0.26183
4823.78497,0.26117
4821.85623,0.26016
4819.92749,0.25919
4817.99874,0.25873
4816.07000,0.25881
4814.14126,0.25854
4812.21252,0.25779
4810.28377,0.25752
4808.35503,0.25766
4806.42629,0.25735
4804.49755,0.25681
4802.56880,0.25661
4800.64006,0.25653
4798.71132,0.25634
4796.78258,0.25634
4794.85383,0.25634
4792.92509,0.25590
4790.99635,0.25530
4789.06761,0.25509
4787.13886,0.25527
4785.21012,0.25548
4783.28138,0.25548
4781.35264,0.25529
4779.42389,0.25501
4777.49515,0.25449
4775.56641,0.25356
4773.63767,0.25268
4771.70892,0.25251
4769.78018,0.25284
4767.85144,0.25296
4765.92270,0.25270
4763.99395,0.25241
4762.06521,0.25226
4760.13647,0.25226
4758.20773,0.25211
4756.27898,0.25139
4754.35024,0.25065
4752.42150,0.25075
4750.49276,0.25112
4748.56401,0.25088
4746.63527,0.25013
4744.70653,0.24918
4742.77779,0.24838
4740.84904,0.24795
4738.92030,0.24766
4736.99156,0.24758
4735.06282,0.24774
4733.13407,0.24770
4731.20533,0.24739
4729.27659,0.24698
4727.34785,0.24675
4725.41910,0.24700
4723.49036,0.24742
4721.56162,0.24759
4719.63288,0.24755
4717.70413,0.24752
4715.77539,0.24741
4713.84665,0.24693
4711.91791,0.24626
4709.98916,0.24574
4708.06042,0.24521
4706.13168,0.24477
4704.20294,0.24482
4702.27419,0.24520
4700.34545,0.24536
4698.41671,0.24512
4696.48797,0.24469
4694.55922,0.24430
4692.63048,0.24401
4690.70174,0.24347
4688.77300,0.24256
4686.84425,0.24195
4684.91551,0.24198
4682.98677,0.24237
4681.05803,0.24288
4679.12928,0.24300
4677.20054,0.24274
4675.27180,0.24274
4673.34306,0.24310
4671.41431,0.24332
4669.48557,0.24328
4667.55683,0.24341
4665.62809,0.24393
4663.69934,0.24464
4661.77060,0.24529
4659.84186,0.24596
4657.91312,0.24679
4655.98437,0.24770
4654.05563,0.24852
4652.12689,0.24902
4650.19815,0.24942
4648.26940,0.25032
4646.34066,0.25126
4644.41192,0.25138
4642.48318,0.25108
4640.55443,0.25133
4638.62569,0.25216
4636.69695,0.25289
4634.76821,0.25310
4632.83946,0.25302
4630.91072,0.25294
4628.98198,0.25291
4627.05324,0.25283
4625.12449,0.25282
4623.19575,0.25329
4621.26701,0.25420
4619.33827,0.25491
4617.40952,0.25536
4615.48078,0.25585
4613.55204,0.25606
4611.62330,0.25613
4609.69455,0.25688
4607.76581,0.25825
4605.83707,0.25955
4603.90833,0.26026
4601.97958,0.26061
4600.05084,0.26150
4598.12210,0.26289
4596.19336,0.26392
4594.26461,0.26438
4592.33587,0.26475
4590.40713,0.26526
4588.47839,0.26579
4586.54964,0.26613
4584.62090,0.26622
4582.69216,0.26642
4580.76342,0.26689
4578.83467,0.26723
4576.90593,0.26729
4574.97719,0.26756
4573.04845,0.26825
4571.11970,0.26863
4569.19096,0.26823
4567.26222,0.26770
4565.33348,0.26787
4563.40473,0.26873
4561.47599,0.26968
4559.54725,0.27034
4557.61851,0.27054
4555.68976,0.27044
4553.76102,0.27043
4551.83228,0.27056
4549.90354,0.27076
4547.97479,0.27098
4546.04605,0.27106
4544.11731,0.27116
4542.18857,0.27146
4540.25982,0.27170
4538.33108,0.27184
4536.40234,0.27214
4534.47360,0.27233
4532.54485,0.27201
4530.61611,0.27132
4528.68737,0.27089
4526.75863,0.27100
4524.82988,0.27123
4522.90114,0.27116
4520.97240,0.27078
4519.04366,0.27033
4517.11491,0.26997
4515.18617,0.26951
4513.25743,0.26871
4511.32869,0.26784
4509.39994,0.26709
4507.47120,0.26628
4505.54246,0.26570
4503.61372,0.26540
4501.68497,0.26468
4499.75623,0.26346
4497.82749,0.26231
4495.89875,0.26134
4493.97000,0.26036
4492.04126,0.25935
4490.11252,0.25839
4488.18378,0.25725
4486.25503,0.25564
4484.32629,0.25389
4482.39755,0.25246
4480.46881,0.25125
4478.54006,0.24981
4476.61132,0.24796
4474.68258,0.24586
4472.75384,0.24358
4470.82509,0.24111
4468.89635,0.23855
4466.96761,0.23590
4465.03887,0.23334
4463.11012,0.23101
4461.18138,0.22844
4459.25264,0.22556
4457.32390,0.22243
4455.39515,0.21885
4453.46641,0.21541
4451.53767,0.21259
4449.60893,0.20992
4447.68018,0.20699
4445.75144,0.20367
4443.82270,0.20017
4441.89396,0.19706
4439.96521,0.19454
4438.03647,0.19260
4436.10773,0.19085
4434.17899,0.18859
4432.25024,0.18596
4430.32150,0.18339
4428.39276,0.18095
4426.46402,0.17900
4424.53527,0.17779
4422.60653,0.17679
4420.67779,0.17556
4418.74905,0.17433
4416.82030,0.17348
4414.89156,0.17303
4412.96282,0.17278
4411.03408,0.17255
4409.10533,0.17249
4407.17659,0.17272
4405.24785,0.17300
4403.31911,0.17328
4401.39036,0.17360
4399.46162,0.17371
4397.53288,0.17359
4395.60414,0.17335
4393.67539,0.17317
4391.74665,0.17323
4389.81791,0.17337
4387.88917,0.17323
4385.96043,0.17272
4384.03168,0.17218
4382.10294,0.17188
4380.17420,0.17176
4378.24546,0.17156
4376.31671,0.17128
4374.38797,0.17092
4372.45923,0.17028
4370.53049,0.16970
4368.60174,0.16948
4366.67300,0.16932
4364.74426,0.16907
4362.81552,0.16858
4360.88677,0.16777
4358.95803,0.16729
4357.02929,0.16732
4355.10055,0.16717
4353.17180,0.16665
4351.24306,0.16630
4349.31432,0.16627
4347.38558,0.16622
4345.45683,0.16599
4343.52809,0.16588
4341.59935,0.16609
4339.67061,0.16655
4337.74186,0.16705
4335.81312,0.16733
4333.88438,0.16727
4331.95564,0.16698
4330.02689,0.16669
4328.09815,0.16661
4326.16941,0.16671
4324.24067,0.16701
4322.31192,0.16763
4320.38318,0.16819
4318.45444,0.16836
4316.52570,0.16871
4314.59695,0.16949
4312.66821,0.17030
4310.73947,0.17097
4308.81073,0.17128
4306.88198,0.17123
4304.95324,0.17137
4303.02450,0.17188
4301.09576,0.17243
4299.16701,0.17271
4297.23827,0.17263
4295.30953,0.17240
4293.38079,0.17210
4291.45204,0.17171
4289.52330,0.17144
4287.59456,0.17134
4285.66582,0.17128
4283.73707,0.17144
4281.80833,0.17184
4279.87959,0.17215
4277.95085,0.17233
4276.02210,0.17250
4274.09336,0.17262
4272.16462,0.17265
4270.23588,0.17277
4268.30713,0.17313
4266.37839,0.17332
4264.44965,0.17321
4262.52091,0.17311
4260.59216,0.17331
4258.66342,0.17393
4256.73468,0.17482
4254.80594,0.17554
4252.87719,0.17590
4250.94845,0.17601
4249.01971,0.17597
4247.09097,0.17616
4245.16222,0.17671
4243.23348,0.17722
4241.30474,0.17758
4239.37600,0.17788
4237.44725,0.17808
4235.51851,0.17847
4233.58977,0.17915
4231.66103,0.17967
4229.73228,0.17993
4227.80354,0.18023
4225.87480,0.18060
4223.94606,0.18104
4222.01731,0.18149
4220.08857,0.18184
4218.15983,0.18210
4216.23109,0.18250
4214.30234,0.18280
4212.37360,0.18276
4210.44486,0.18277
4208.51612,0.18303
4206.58737,0.18324
4204.65863,0.18323
4202.72989,0.18321
4200.80115,0.18350
4198.87240,0.18397
4196.94366,0.18431
4195.01492,0.18461
4193.08618,0.18471
4191.15743,0.18422
4189.22869,0.18354
4187.29995,0.18323
4185.37121,0.18330
4183.44246,0.18351
4181.51372,0.18379
4179.58498,0.18408
4177.65624,0.18407
4175.72749,0.18372
4173.79875,0.18349
4171.87001,0.18371
4169.94127,0.18407
4168.01252,0.18408
4166.08378,0.18373
4164.15504,0.18348
4162.22630,0.18340
4160.29755,0.18318
4158.36881,0.18276
4156.44007,0.18248
4154.51133,0.18247
4152.58258,0.18230
4150.65384,0.18192
4148.72510,0.18175
4146.79636,0.18175
4144.86761,0.18169
4142.93887,0.18164
4141.01013,0.18150
4139.08139,0.18113
4137.15264,0.18075
4135.22390,0.18038
4133.29516,0.17983
4131.36642,0.17930
4129.43767,0.17901
4127.50893,0.17883
4125.58019,0.17856
4123.65145,0.17803
4121.72270,0.17729
4119.79396,0.17654
4117.86522,0.17595
4115.93648,0.17565
4114.00773,0.17557
4112.07899,0.17524
4110.15025,0.17442
4108.22151,0.17352
4106.29276,0.17286
4104.36402,0.17235
4102.43528,0.17188
4100.50654,0.17138
4098.57779,0.17079
4096.64905,0.17028
4094.72031,0.16967
4092.79157,0.16872
4090.86282,0.16763
4088.93408,0.16654
4087.00534,0.16549
4085.07660,0.16449
4083.14785,0.16333
4081.21911,0.16210
4079.29037,0.16110
4077.36163,0.16017
4075.43288,0.15919
4073.50414,0.15838
4071.57540,0.15768
4069.64666,0.15681
4067.71791,0.15585
4065.78917,0.15507
4063.86043,0.15442
4061.93169,0.15343
4060.00294,0.15234
4058.07420,0.15172
4056.14546,0.15144
4054.21672,0.15118
4052.28797,0.15086
4050.35923,0.15058
4048.43049,0.15049
4046.50175,0.15044
4044.57300,0.15024
4042.64426,0.14986
4040.71552,0.14953
4038.78678,0.14951
4036.85803,0.14949
4034.92929,0.14911
4033.00055,0.14864
4031.07181,0.14831
4029.14306,0.14823
4027.21432,0.14852
4025.28558,0.14875
4023.35684,0.14844
4021.42809,0.14789
4019.49935,0.14769
4017.57061,0.14795
4015.64187,0.14844
4013.71312,0.14876
4011.78438,0.14864
4009.85564,0.14838
4007.92690,0.14865
4005.99815,0.14935
4004.06941,0.14974
4002.14067,0.14961
4000.21193,0.14944
3998.28318,0.14964
3996.35444,0.15026
3994.42570,0.15078
3992.49696,0.15100
3990.56821,0.15125
3988.63947,0.15166
3986.71073,0.15213
3984.78199,0.15275
3982.85324,0.15353
3980.92450,0.15410
3978.99576,0.15427
3977.06702,0.15448
3975.13827,0.15493
3973.20953,0.15545
3971.28079,0.15627
3969.35205,0.15735
3967.42330,0.15808
3965.49456,0.15835
3963.56582,0.15873
3961.63708,0.15943
3959.70833,0.16017
3957.77959,0.16070
3955.85085,0.16111
3953.92211,0.16158
3951.99336,0.16221
3950.06462,0.16303
3948.13588,0.16415
3946.20714,0.16532
3944.27839,0.16598
3942.34965,0.16633
3940.42091,0.16689
3938.49217,0.16750
3936.56342,0.16788
3934.63468,0.16816
3932.70594,0.16857
3930.77720,0.16921
3928.84845,0.16993
3926.91971,0.17046
3924.99097,0.17083
3923.06223,0.17140
3921.13348,0.17219
3919.20474,0.17301
3917.27600,0.17375
3915.34726,0.17435
3913.41851,0.17486
3911.48977,0.17542
3909.56103,0.17595
3907.63229,0.17653
3905.70354,0.17734
3903.77480,0.17797
3901.84606,0.17798
3899.91732,0.17808
3897.98857,0.17890
3896.05983,0.18002
3894.13109,0.18087
3892.20235,0.18123
3890.27360,0.18114
3888.34486,0.18118
3886.41612,0.18159
3884.48738,0.18197
3882.55863,0.18232
3880.62989,0.18286
3878.70115,0.18321
3876.77241,0.18341
3874.84366,0.18376
3872.91492,0.18431
3870.98618,0.18507
3869.05744,0.18601
3867.12869,0.18688
3865.19995,0.18742
3863.27121,0.18767
3861.34247,0.18811
3859.41372,0.18890
3857.48498,0.18963
3855.55624,0.19016
3853.62750,0.19076
3851.69875,0.19138
3849.77001,0.19202
3847.84127,0.19290
3845.91253,0.19354
3843.98378,0.19364
3842.05504,0.19387
3840.12630,0.19444
3838.19756,0.19490
3836.26882,0.19515
3834.34007,0.19525
3832.41133,0.19536
3830.48259,0.19557
3828.55385,0.19564
3826.62510,0.19566
3824.69636,0.19584
3822.76762,0.19594
3820.83888,0.19597
3818.91013,0.19621
3816.98139,0.19639
3815.05265,0.19611
3813.12391,0.19563
3811.19516,0.19543
3809.26642,0.19556
3807.33768,0.19592
3805.40894,0.19641
3803.48019,0.19667
3801.55145,0.19655
3799.62271,0.19631
3797.69397,0.19603
3795.76522,0.19569
3793.83648,0.19552
3791.90774,0.19552
3789.97900,0.19562
3788.05025,0.19576
3786.12151,0.19580
3784.19277,0.19587
3782.26403,0.19605
3780.33528,0.19608
3778.40654,0.19580
3776.47780,0.19531
3774.54906,0.19479
3772.62031,0.19436
3770.69157,0.19391
3768.76283,0.19322
3766.83409,0.19266
3764.90534,0.19249
3762.97660,0.19240
3761.04786,0.19207
3759.11912,0.19144
3757.19037,0.19071
3755.26163,0.19013
3753.33289,0.18981
3751.40415,0.18951
3749.47540,0.18912
3747.54666,0.18888
3745.61792,0.18848
3743.68918,0.18757
3741.76043,0.18669
3739.83169,0.18610
3737.90295,0.18539
3735.97421,0.18462
3734.04546,0.18390
3732.11672,0.18277
3730.18798,0.18134
3728.25924,0.18002
3726.33049,0.17880
3724.40175,0.17754
3722.47301,0.17629
3720.54427,0.17508
3718.61552,0.17378
3716.68678,0.17230
3714.75804,0.17067
3712.82930,0.16884
3710.90055,0.16685
3708.97181,0.16485
3707.04307,0.16273
3705.11433,0.16031
3703.18558,0.15765
3701.25684,0.15504
3699.32810,0.15257
3697.39936,0.14984
3695.47061,0.14653
3693.54187,0.14282
3691.61313,0.13885
3689.68439,0.13442
3687.75564,0.12981
3685.82690,0.12571
3683.89816,0.12162
3681.96942,0.11647
3680.04067,0.10971
3678.11193,0.10235
3676.18319,0.09733
3674.25445,0.09616
3672.32570,0.09590
3670.39696,0.09428
3668.46822,0.09153
3666.53948,0.08852
3664.61073,0.08549
3662.68199,0.08257
3660.75325,0.08003
3658.82451,0.07786
3656.89576,0.07577
3654.96702,0.07372
3653.03828,0.07198
3651.10954,0.07047
3649.18079,0.06889
3647.25205,0.06731
3645.32331,0.06590
3643.39457,0.06473
3641.46582,0.06364
3639.53708,0.06258
3637.60834,0.06160
3635.67960,0.06061
3633.75085,0.05986
3631.82211,0.05955
3629.89337,0.05919
3627.96463,0.05844
3626.03588,0.05768
3624.10714,0.05702
3622.17840,0.05647
3620.24966,0.05594
3618.32091,0.05518
3616.39217,0.05455
3614.46343,0.05442
3612.53469,0.05432
3610.60594,0.05384
3608.67720,0.05324
3606.74846,0.05295
3604.81972,0.05281
3602.89097,0.05234
3600.96223,0.05171
3599.03349,0.05163
3597.10475,0.05183
3595.17600,0.05156
3593.24726,0.05107
3591.31852,0.05080
3589.38978,0.05056
3587.46103,0.05015
3585.53229,0.04982
3583.60355,0.04977
3581.67481,0.04985
3579.74606,0.04987
3577.81732,0.04970
3575.88858,0.04934
3573.95984,0.04895
3572.03109,0.04871
3570.10235,0.04872
3568.17361,0.04879
3566.24487,0.04861
3564.31612,0.04816
3562.38738,0.04775
3560.45864,0.04773
3558.52990,0.04793
3556.60115,0.04785
3554.67241,0.04752
3552.74367,0.04752
3550.81493,0.04789
3548.88618,0.04817
3546.95744,0.04812
3545.02870,0.04795
3543.09996,0.04780
3541.17121,0.04769
3539.24247,0.04778
3537.31373,0.04799
3535.38499,0.04791
3533.45624,0.04765
3531.52750,0.04756
3529.59876,0.04759
3527.67002,0.04759
3525.74127,0.04757
3523.81253,0.04745
3521.88379,0.04730
3519.95505,0.04724
3518.02630,0.04725
3516.09756,0.04730
3514.16882,0.04730
3512.24008,0.04722
3510.31133,0.04724
3508.38259,0.04715
3506.45385,0.04680
3504.52511,0.04673
3502.59636,0.04695
3500.66762,0.04699
3498.73888,0.04704
3496.81014,0.04732
3494.88139,0.04744
3492.95265,0.04721
3491.02391,0.04700
3489.09517,0.04712
3487.16642,0.04739
3485.23768,0.04756
3483.30894,0.04755
3481.38020,0.04753
3479.45145,0.04755
3477.52271,0.04730
3475.59397,0.04696
3473.66523,0.04692
3471.73648,0.04704
3469.80774,0.04719
3467.87900,0.04736
3465.95026,0.04723
3464.02151,0.04680
3462.09277,0.04653
3460.16403,0.04646
3458.23529,0.04641
3456.30654,0.04654
3454.37780,0.04685
3452.44906,0.04692
3450.52032,0.04671
3448.59157,0.04669
3446.66283,0.04693
3444.73409,0.04703
3442.80535,0.04695
3440.87660,0.04678
3438.94786,0.04662
3437.01912,0.04668
3435.09038,0.04694
3433.16163,0.04707
3431.23289,0.04711
3429.30415,0.04732
3427.37541,0.04754
3425.44666,0.04766
3423.51792,0.04775
3421.58918,0.04776
3419.66044,0.04762
3417.73169,0.04747
3415.80295,0.04735
3413.87421,0.04715
3411.94547,0.04697
3410.01672,0.04700
3408.08798,0.04724
3406.15924,0.04739
3404.23050,0.04720
3402.30175,0.04689
3400.37301,0.04685
3398.44427,0.04719
3396.51553,0.04760
3394.58678,0.04770
3392.65804,0.04740
3390.72930,0.04712
3388.80056,0.04721
3386.87181,0.04733
3384.94307,0.04725
3383.01433,0.04713
3381.08559,0.04698
3379.15684,0.04682
3377.22810,0.04682
3375.29936,0.04695
3373.37062,0.04704
3371.44187,0.04709
3369.51313,0.04733
3367.58439,0.04774
3365.65565,0.04800
3363.72690,0.04796
3361.79816,0.04788
3359.86942,0.04794
3357.94068,0.04790
3356.01193,0.04770
3354.08319,0.04761
3352.15445,0.04767
3350.22571,0.04757
3348.29696,0.04724
3346.36822,0.04707
3344.43948,0.04735
3342.51074,0.04787
3340.58199,0.04827
3338.65325,0.04852
3336.72451,0.04868
3334.79577,0.04851
3332.86702,0.04786
3330.93828,0.04726
3329.00954,0.04713
3327.08080,0.04712
3325.15205,0.04710
3323.22331,0.04719
3321.29457,0.04711
3319.36583,0.04704
3317.43708,0.04734
3315.50834,0.04774
3313.57960,0.04802
3311.65086,0.04819
3309.72211,0.04810
3307.79337,0.04787
3305.86463,0.04787
3303.93589,0.04799
3302.00714,0.04795
3300.07840,0.04792
3298.14966,0.04805
3296.22092,0.04821
3294.29217,0.04829
3292.36343,0.04832
3290.43469,0.04852
3288.50595,0.04883
3286.57721,0.04875
3284.64846,0.04838
3282.71972,0.04827
3280.79098,0.04838
3278.86224,0.04841
3276.93349,0.04846
3275.00475,0.04842
3273.07601,0.04828
3271.14727,0.04814
3269.21852,0.04802
3267.28978,0.04812
3265.36104,0.04841
3263.43230,0.04856
3261.50355,0.04860
3259.57481,0.04869
3257.64607,0.04862
3255.71733,0.04839
3253.78858,0.04824
3251.85984,0.04831
3249.93110,0.04857
3248.00236,0.04906
3246.07361,0.04960
3244.14487,0.04997
3242.21613,0.05013
3240.28739,0.04999
3238.35864,0.04962
3236.42990,0.04930
3234.50116,0.04919
3232.57242,0.04911
3230.64367,0.04896
3228.71493,0.04887
3226.78619,0.04882
3224.85745,0.04882
3222.92870,0.04901
3220.99996,0.04942
3219.07122,0.04976
3217.14248,0.04987
3215.21373,0.04996
3213.28499,0.05005
3211.35625,0.04992
3209.42751,0.04960
3207.49876,0.04953
3205.57002,0.04983
3203.64128,0.05012
3201.71254,0.05034
3199.78379,0.05063
3197.85505,0.05068
3195.92631,0.05047
3193.99757,0.05038
3192.06882,0.05039
3190.14008,0.05037
3188.21134,0.05036
3186.28260,0.05047
3184.35385,0.05052
3182.42511,0.05028
3180.49637,0.05010
3178.56763,0.05029
3176.63888,0.05055
3174.71014,0.05063
3172.78140,0.05069
3170.85266,0.05084
3168.92391,0.05100
3166.99517,0.05108
3165.06643,0.05108
3163.13769,0.05104
3161.20894,0.05109
3159.28020,0.05121
3157.35146,0.05125
3155.42272,0.05123
3153.49397,0.05135
3151.56523,0.05152
3149.63649,0.05184
3147.70775,0.05228
3145.77900,0.05249
3143.85026,0.05243
3141.92152,0.05237
3139.99278,0.05241
3138.06403,0.05251
3136.13529,0.05247
3134.20655,0.05234
3132.27781,0.05246
3130.34906,0.05280
3128.42032,0.05301
3126.49158,0.05303
3124.56284,0.05301
3122.63409,0.05298
3120.70535,0.05294
3118.77661,0.05289
3116.84787,0.05287
3114.91912,0.05303
3112.99038,0.05325
3111.06164,0.05316
3109.13290,0.05294
3107.20415,0.05288
3105.27541,0.05294
3103.34667,0.05296
3101.41793,0.05281
3099.48918,0.05263
3097.56044,0.05272
3095.63170,0.05301
3093.70296,0.05311
3091.77421,0.05293
3089.84547,0.05286
3087.91673,0.05298
3085.98799,0.05307
3084.05924,0.05313
3082.13050,0.05320
3080.20176,0.05317
3078.27302,0.05293
3076.34427,0.05270
3074.41553,0.05265
3072.48679,0.05263
3070.55805,0.05254
3068.62930,0.05248
3066.70056,0.05252
3064.77182,0.05255
3062.84308,0.05250
3060.91433,0.05261
3058.98559,0.05294
3057.05685,0.05309
3055.12811,0.05306
3053.19936,0.05320
3051.27062,0.05343
3049.34188,0.05350
3047.41314,0.05344
3045.48439,0.05334
3043.55565,0.05320
3041.62691,0.05307
3039.69817,0.05296
3037.76942,0.05274
3035.84068,0.05242
3033.91194,0.05227
3031.98320,0.05237
3030.05445,0.05258
3028.12571,0.05287
3026.19697,0.05310
3024.26823,0.05306
3022.33948,0.05273
3020.41074,0.05222
3018.48200,0.05161
3016.55326,0.05098
3014.62451,0.05039
3012.69577,0.04998
3010.76703,0.04970
3008.83829,0.04928
3006.90954,0.04876
3004.98080,0.04832
3003.05206,0.04798
3001.12332,0.04785
2999.19457,0.04785
2997.26583,0.04770
2995.33709,0.04733
2993.40835,0.04689
2991.47960,0.04667
2989.55086,0.04670
2987.62212,0.04667
2985.69338,0.04643
2983.76463,0.04618
2981.83589,0.04609
2979.90715,0.04608
2977.97841,0.04600
2976.04966,0.04585
2974.12092,0.04587
2972.19218,0.04599
2970.26344,0.04616
2968.33469,0.04655
2966.40595,0.04697
2964.47721,0.04716
2962.54847,0.04730
2960.61972,0.04742
2958.69098,0.04740
2956.76224,0.04742
2954.83350,0.04753
2952.90475,0.04754
2950.97601,0.04745
2949.04727,0.04730
2947.11853,0.04720
2945.18978,0.04716
2943.26104,0.04713
2941.33230,0.04736
2939.40356,0.04790
2937.47481,0.04840
2935.54607,0.04857
2933.61733,0.04844
2931.68859,0.04837
2929.75984,0.04872
2927.83110,0.04915
2925.90236,0.04931
2923.97362,0.04948
2922.04487,0.04981
2920.11613,0.05011
2918.18739,0.05028
2916.25865,0.05039
2914.32990,0.05047
2912.40116,0.05035
2910.47242,0.04999
2908.54368,0.04974
2906.61493,0.04978
2904.68619,0.04992
2902.75745,0.04988
2900.82871,0.04958
2898.89996,0.04921
2896.97122,0.04919
2895.04248,0.04954
2893.11374,0.04983
2891.18499,0.04988
2889.25625,0.04983
2887.32751,0.04979
2885.39877,0.04986
2883.47002,0.04985
2881.54128,0.04958
2879.61254,0.04922
2877.68380,0.04901
2875.75505,0.04909
2873.82631,0.04941
2871.89757,0.04967
2869.96883,0.04963
2868.04008,0.04948
2866.11134,0.04968
2864.18260,0.05015
2862.25386,0.05041
2860.32511,0.05048
2858.39637,0.05069
2856.46763,0.05100
2854.53889,0.05126
2852.61014,0.05151
2850.68140,0.05185
2848.75266,0.05225
2846.82392,0.05243
2844.89517,0.05230
2842.96643,0.05222
2841.03769,0.05229
2839.10895,0.05235
2837.18020,0.05248
2835.25146,0.05279
2833.32272,0.05319
2831.39398,0.05369
2829.46523,0.05424
2827.53649,0.05468
2825.60775,0.05496
2823.67901,0.05514
2821.75026,0.05537
2819.82152,0.05564
2817.89278,0.05590
2815.96404,0.05617
2814.03529,0.05649
2812.10655,0.05680
2810.17781,0.05702
2808.24907,0.05721
2806.32032,0.05733
2804.39158,0.05747
2802.46284,0.05787
2800.53410,0.05827
2798.60535,0.05843
2796.67661,0.05857
2794.74787,0.05874
2792.81913,0.05889
2790.89038,0.05934
2788.96164,0.06003
2787.03290,0.06043
2785.10416,0.06051
2783.17541,0.06069
2781.24667,0.06104
2779.31793,0.06133
2777.38919,0.06155
2775.46044,0.06179
2773.53170,0.06202
2771.60296,0.06221
2769.67422,0.06234
2767.74547,0.06248
2765.81673,0.06261
2763.88799,0.06260
2761.95925,0.06252
2760.03050,0.06259
2758.10176,0.06287
2756.17302,0.06314
2754.24428,0.06321
2752.31553,0.06321
2750.38679,0.06344
2748.45805,0.06389
2746.52931,0.06425
2744.60056,0.06429
2742.67182,0.06408
2740.74308,0.06387
2738.81434,0.06391
2736.88560,0.06422
2734.95685,0.06451
2733.02811,0.06470
2731.09937,0.06503
2729.17063,0.06545
2727.24188,0.06565
2725.31314,0.06553
2723.38440,0.06542
2721.45566,0.06567
2719.52691,0.06621
2717.59817,0.06679
2715.66943,0.06728
2713.74069,0.06764
2711.81194,0.06789
2709.88320,0.06816
2707.95446,0.06856
2706.02572,0.06902
2704.09697,0.06945
2702.16823,0.06977
2700.23949,0.07005
2698.31075,0.07036
2696.38200,0.07058
2694.45326,0.07073
2692.52452,0.07100
2690.59578,0.07142
2688.66703,0.07185
2686.73829,0.07223
2684.80955,0.07262
2682.88081,0.07295
2680.95206,0.07308
2679.02332,0.07312
2677.09458,0.07328
2675.16584,0.07352
2673.23709,0.07375
2671.30835,0.07401
2669.37961,0.07428
2667.45087,0.07437
2665.52212,0.07424
2663.59338,0.07423
2661.66464,0.07452
2659.73590,0.07491
2657.80715,0.07535
2655.87841,0.07576
2653.94967,0.07600
2652.02093,0.07606
2650.09218,0.07612
2648.16344,0.07633
2646.23470,0.07662
2644.30596,0.07682
2642.37721,0.07698
2640.44847,0.07727
2638.51973,0.07774
2636.59099,0.07825
2634.66224,0.07846
2632.73350,0.07843
2630.80476,0.07860
2628.87602,0.07903
2626.94727,0.07935
2625.01853,0.07952
2623.08979,0.07963
2621.16105,0.07978
2619.23230,0.08006
2617.30356,0.08044
2615.37482,0.08077
2613.44608,0.08097
2611.51733,0.08102
2609.58859,0.08090
2607.65985,0.08075
2605.73111,0.08078
2603.80236,0.08109
2601.87362,0.08161
2599.94488,0.08206
2598.01614,0.08229
2596.08739,0.08237
2594.15865,0.08236
2592.22991,0.08238
2590.30117,0.08247
2588.37242,0.08250
2586.44368,0.08260
2584.51494,0.08298
2582.58620,0.08340
2580.65745,0.08363
2578.72871,0.08380
2576.79997,0.08405
2574.87123,0.08426
2572.94248,0.08429
2571.01374,0.08429
2569.08500,0.08451
2567.15626,0.08475
2565.22751,0.08480
2563.29877,0.08478
2561.37003,0.08485
2559.44129,0.08493
2557.51254,0.08502
2555.58380,0.08532
2553.65506,0.08572
2551.72632,0.08589
2549.79757,0.08582
2547.86883,0.08583
2545.94009,0.08601
2544.01135,0.08612
2542.08260,0.08614
2540.15386,0.08628
2538.22512,0.08647
2536.29638,0.08657
2534.36763,0.08680
2532.43889,0.08722
2530.51015,0.08768
2528.58141,0.08815
2526.65266,0.08856
2524.72392,0.08885
2522.79518,0.08915
2520.86644,0.08955
2518.93769,0.08989
2517.00895,0.09003
2515.08021,0.09024
2513.15147,0.09066
2511.22272,0.09097
2509.29398,0.09113
2507.36524,0.09134
2505.43650,0.09159
2503.50775,0.09185
2501.57901,0.09219
2499.65027,0.09262
2497.72153,0.09309
2495.79278,0.09351
2493.86404,0.09382
2491.93530,0.09400
2490.00656,0.09405
2488.07781,0.09426
2486.14907,0.09482
2484.22033,0.09542
2482.29159,0.09577
2480.36284,0.09591
2478.43410,0.09594
2476.50536,0.09603
2474.57662,0.09628
2472.64787,0.09666
2470.71913,0.09702
2468.79039,0.09726
2466.86165,0.09748
2464.93290,0.09783
2463.00416,0.09826
2461.07542,0.09864
2459.14668,0.09890
2457.21793,0.09909
2455.28919,0.09925
2453.36045,0.09942
2451.43171,0.09964
2449.50296,0.09997
2447.57422,0.10032
2445.64548,0.10055
2443.71674,0.10069
2441.78799,0.10084
2439.85925,0.10107
2437.93051,0.10145
2436.00177,0.10179
2434.07302,0.10199
2432.14428,0.10225
2430.21554,0.10256
2428.28680,0.10278
2426.35805,0.10298
2424.42931,0.10323
2422.50057,0.10347
2420.57183,0.10366
2418.64308,0.10392
2416.71434,0.10437
2414.78560,0.10490
2412.85686,0.10523
2410.92811,0.10528
2408.99937,0.10535
2407.07063,0.10571
2405.14189,0.10627
2403.21314,0.10680
2401.28440,0.10714
2399.35566,0.10723
2397.42692,0.10716
2395.49817,0.10724
2393.56943,0.10763
2391.64069,0.10809
2389.71195,0.10831
2387.78320,0.10843
2385.85446,0.10865
2383.92572,0.10882
2381.99698,0.10889
2380.06823,0.10898
2378.13949,0.10914
2376.21075,0.10942
2374.28201,0.10978
2372.35326,0.11015
2370.42452,0.11047
2368.49578,0.11064
2366.56704,0.11069
2364.63829,0.11067
2362.70955,0.11069
2360.78081,0.11078
2358.85207,0.11079
2356.92332,0.11080
2354.99458,0.11093
2353.06584,0.11115
2351.13710,0.11148
2349.20835,0.11189
2347.27961,0.11220
2345.35087,0.11236
2343.42213,0.11238
2341.49338,0.11239
2339.56464,0.11257
2337.63590,0.11290
2335.70716,0.11310
2333.77841,0.11308
2331.84967,0.11307
2329.92093,0.11321
2327.99219,0.11340
2326.06344,0.11359
2324.13470,0.11376
2322.20596,0.11394
2320.27722,0.11424
2318.34847,0.11458
2316.41973,0.11474
2314.49099,0.11474
2312.56225,0.11469
2310.63350,0.11469
2308.70476,0.11476
2306.77602,0.11485
2304.84728,0.11502
2302.91853,0.11537
2300.98979,0.11578
2299.06105,0.11602
2297.13231,0.11613
2295.20356,0.11624
2293.27482,0.11643
2291.34608,0.11674
2289.41734,0.11697
2287.48859,0.11691
2285.55985,0.11684
2283.63111,0.11701
2281.70237,0.11716
2279.77362,0.11715
2277.84488,0.11722
2275.91614,0.11754
2273.98740,0.11791
2272.05865,0.11813
2270.12991,0.11807
2268.20117,0.11787
2266.27243,0.11776
2264.34368,0.11769
2262.41494,0.11757
2260.48620,0.11749
2258.55746,0.11751
2256.62871,0.11746
2254.69997,0.11730
2252.77123,0.11715
2250.84249,0.11703
2248.91374,0.11691
2246.98500,0.11684
2245.05626,0.11666
2243.12752,0.11631
2241.19877,0.11606
2239.27003,0.11613
2237.34129,0.11636
2235.41255,0.11653
2233.48380,0.11656
2231.55506,0.11650
2229.62632,0.11646
2227.69758,0.11645
2225.76883,0.11650
2223.84009,0.11658
2221.91135,0.11660
2219.98261,0.11659
2218.05386,0.11665
2216.12512,0.11667
2214.19638,0.11657
2212.26764,0.11641
2210.33889,0.11626
2208.41015,0.11619
2206.48141,0.11626
2204.55267,0.11630
2202.62392,0.11621
2200.69518,0.11598
2198.76644,0.11561
2196.83770,0.11517
2194.90895,0.11481
2192.98021,0.11452
2191.05147,0.11415
2189.12273,0.11362
2187.19399,0.11310
2185.26524,0.11273
2183.33650,0.11238
2181.40776,0.11195
2179.47902,0.11147
2177.55027,0.11092
2175.62153,0.11033
2173.69279,0.10984
2171.76405,0.10931
2169.83530,0.10865
2167.90656,0.10801
2165.97782,0.10749
2164.04908,0.10702
2162.12033,0.10662
2160.19159,0.10633
2158.26285,0.10605
2156.33411,0.10563
2154.40536,0.10498
2152.47662,0.10437
2150.54788,0.10408
2148.61914,0.10392
2146.69039,0.10360
2144.76165,0.10314
2142.83291,0.10267
2140.90417,0.10235
2138.97542,0.10219
2137.04668,0.10202
2135.11794,0.10181
2133.18920,0.10154
2131.26045,0.10123
2129.33171,0.10108
2127.40297,0.10105
2125.47423,0.10090
2123.54548,0.10071
2121.61674,0.10057
2119.68800,0.10040
2117.75926,0.10016
2115.83051,0.09986
2113.90177,0.09955
2111.97303,0.09941
2110.04429,0.09951
2108.11554,0.09964
2106.18680,0.09963
2104.25806,0.09947
2102.32932,0.09924
2100.40057,0.09907
2098.47183,0.09905
2096.54309,0.09914
2094.61435,0.09921
2092.68560,0.09914
2090.75686,0.09903
2088.82812,0.09904
2086.89938,0.09918
2084.97063,0.09931
2083.04189,0.09936
2081.11315,0.09937
2079.18441,0.09930
2077.25566,0.09909
2075.32692,0.09879
2073.39818,0.09853
2071.46944,0.09839
2069.54069,0.09834
2067.61195,0.09839
2065.68321,0.09845
2063.75447,0.09848
2061.82572,0.09852
2059.89698,0.09851
2057.96824,0.09852
2056.03950,0.09875
2054.11075,0.09917
2052.18201,0.09947
2050.25327,0.09951
2048.32453,0.09946
2046.39578,0.09940
2044.46704,0.09935
2042.53830,0.09936
2040.60956,0.09943
2038.68081,0.09952
2036.75207,0.09957
2034.82333,0.09952
2032.89459,0.09946
2030.96584,0.09958
2029.03710,0.09980
2027.10836,0.09991
2025.17962,0.09996
2023.25087,0.10004
2021.32213,0.10021
2019.39339,0.10057
2017.46465,0.10084
2015.53590,0.10069
2013.60716,0.10050
2011.67842,0.10069
2009.74968,0.10106
2007.82093,0.10139
2005.89219,0.10167
2003.96345,0.10191
2002.03471,0.10219
2000.10596,0.10243
1998.17722,0.10254
1996.24848,0.10270
1994.31974,0.10302
1992.39099,0.10327
1990.46225,0.10328
1988.53351,0.10321
1986.60477,0.10332
1984.67602,0.10355
1982.74728,0.10367
1980.81854,0.10368
1978.88980,0.10373
1976.96105,0.10379
1975.03231,0.10378
1973.10357,0.10369
1971.17483,0.10354
1969.24608,0.10333
1967.31734,0.10315
1965.38860,0.10316
1963.45986,0.10323
1961.53111,0.10319
1959.60237,0.10313
1957.67363,0.10311
1955.74489,0.10304
1953.81614,0.10300
1951.88740,0.10311
1949.95866,0.10328
1948.02992,0.10343
1946.10117,0.10366
1944.17243,0.10397
1942.24369,0.10424
1940.31495,0.10458
1938.38620,0.10509
1936.45746,0.10550
1934.52872,0.10565
1932.59998,0.10583
1930.67123,0.10621
1928.74249,0.10657
1926.81375,0.10679
1924.88501,0.10698
1922.95626,0.10719
1921.02752,0.10731
1919.09878,0.10741
1917.17004,0.10750
1915.24129,0.10744
1913.31255,0.10738
1911.38381,0.10743
1909.45507,0.10744
1907.52632,0.10736
1905.59758,0.10734
1903.66884,0.10738
1901.74010,0.10732
1899.81135,0.10717
1897.88261,0.10709
1895.95387,0.10697
1894.02513,0.10663
1892.09638,0.10621
1890.16764,0.10588
1888.23890,0.10558
1886.31016,0.10533
1884.38141,0.10520
1882.45267,0.10502
1880.52393,0.10479
1878.59519,0.10453
1876.66644,0.10430
1874.73770,0.10408
1872.80896,0.10372
1870.88022,0.10317
1868.95147,0.10265
1867.02273,0.10226
1865.09399,0.10184
1863.16525,0.10127
1861.23650,0.10055
1859.30776,0.09971
1857.37902,0.09891
1855.45028,0.09824
1853.52153,0.09747
1851.59279,0.09653
1849.66405,0.09563
1847.73531,0.09481
1845.80656,0.09390
1843.87782,0.09286
1841.94908,0.09183
1840.02034,0.09076
1838.09159,0.08960
1836.16285,0.08835
1834.23411,0.08706
1832.30537,0.08576
1830.37662,0.08430
1828.44788,0.08269
1826.51914,0.08119
1824.59040,0.07990
1822.66165,0.07864
1820.73291,0.07725
1818.80417,0.07575
1816.87543,0.07424
1814.94668,0.07279
1813.01794,0.07145
1811.08920,0.07011
1809.16046,0.06858
1807.23171,0.06693
1805.30297,0.06532
1803.37423,0.06385
1801.44549,0.06235
1799.51674,0.06077
1797.58800,0.05929
1795.65926,0.05787
1793.73052,0.05616
1791.80177,0.05429
1789.87303,0.05272
1787.94429,0.05138
1786.01555,0.04987
1784.08680,0.04815
1782.15806,0.04652
1780.22932,0.04507
1778.30058,0.04363
1776.37183,0.04225
1774.44309,0.04088
1772.51435,0.03937
1770.58561,0.03790
1768.65686,0.03651
1766.72812,0.03509
1764.79938,0.03387
1762.87064,0.03281
1760.94189,0.03171
1759.01315,0.03076
1757.08441,0.03007
1755.15567,0.02944
1753.22692,0.02886
1751.29818,0.02864
1749.36944,0.02925
1747.44070,0.03059
1745.51195,0.03242
1743.58321,0.03473
1741.65447,0.03748
1739.72573,0.04070
1737.79698,0.04414
1735.86824,0.04757
1733.93950,0.05127
1732.01076,0.05473
1730.08201,0.05752
1728.15327,0.05992
1726.22453,0.06194
1724.29579,0.06360
1722.36704,0.06478
1720.43830,0.06532
1718.50956,0.06533
1716.58082,0.06519
1714.65207,0.06497
1712.72333,0.06441
1710.79459,0.06356
1708.86585,0.06274
1706.93710,0.06209
1705.00836,0.06156
1703.07962,0.06099
1701.15088,0.06011
1699.22213,0.05918
1697.29339,0.05855
1695.36465,0.05793
1693.43591,0.05738
1691.50716,0.05703
1689.57842,0.05670
1687.64968,0.05633
1685.72094,0.05593
1683.79219,0.05559
1681.86345,0.05525
1679.93471,0.05486
1678.00597,0.05459
1676.07722,0.05443
1674.14848,0.05425
1672.21974,0.05397
1670.29100,0.05346
1668.36225,0.05300
1666.43351,0.05299
1664.50477,0.05305
1662.57603,0.05285
1660.64728,0.05271
1658.71854,0.05266
1656.78980,0.05254
1654.86106,0.05238
1652.93231,0.05215
1651.00357,0.05197
1649.07483,0.05190
1647.14609,0.05164
1645.21735,0.05118
1643.28860,0.05093
1641.35986,0.05085
1639.43112,0.05074
1637.50238,0.05067
1635.57363,0.05076
1633.64489,0.05094
1631.71615,0.05106
1629.78741,0.05113
1627.85866,0.05109
1625.92992,0.05092
1624.00118,0.05072
1622.07244,0.05050
1620.14369,0.05042
1618.21495,0.05060
1616.28621,0.05080
1614.35747,0.05074
1612.42872,0.05050
1610.49998,0.05023
1608.57124,0.05013
1606.64250,0.05014
1604.71375,0.05006
1602.78501,0.04998
1600.85627,0.05001
1598.92753,0.05014
1596.99878,0.05027
1595.07004,0.05033
1593.14130,0.05046
1591.21256,0.05073
1589.28381,0.05093
1587.35507,0.05080
1585.42633,0.05043
1583.49759,0.05016
1581.56884,0.05013
1579.64010,0.05027
1577.71136,0.05063
1575.78262,0.05120
1573.85387,0.05164
1571.92513,0.05187
1569.99639,0.05194
1568.06765,0.05174
1566.13890,0.05141
1564.21016,0.05117
1562.28142,0.05101
1560.35268,0.05069
1558.42393,0.05015
1556.49519,0.04981
1554.56645,0.04968
1552.63771,0.04947
1550.70896,0.04913
1548.78022,0.04879
1546.85148,0.04861
1544.92274,0.04856
1542.99399,0.04848
1541.06525,0.04823
1539.13651,0.04791
1537.20777,0.04774
1535.27902,0.04766
1533.35028,0.04754
1531.42154,0.04739
1529.49280,0.04737
1527.56405,0.04739
1525.63531,0.04731
1523.70657,0.04708
1521.77783,0.04676
1519.84908,0.04659
1517.92034,0.04647
1515.99160,0.04613
1514.06286,0.04570
1512.13411,0.04547
1510.20537,0.04551
1508.27663,0.04584
1506.34789,0.04612
1504.41914,0.04614
1502.49040,0.04629
1500.56166,0.04651
1498.63292,0.04655
1496.70417,0.04653
1494.77543,0.04651
1492.84669,0.04630
1490.91795,0.04585
1488.98920,0.04528
1487.06046,0.04469
1485.13172,0.04418
1483.20298,0.04378
1481.27423,0.04340
1479.34549,0.04297
1477.41675,0.04259
1475.48801,0.04235
1473.55926,0.04223
1471.63052,0.04222
1469.70178,0.04242
1467.77304,0.04264
1465.84429,0.04268
1463.91555,0.04266
1461.98681,0.04283
1460.05807,0.04302
1458.12932,0.04295
1456.20058,0.04273
1454.27184,0.04280
1452.34310,0.04322
1450.41435,0.04369
1448.48561,0.04408
1446.55687,0.04443
1444.62813,0.04477
1442.69938,0.04497
1440.77064,0.04502
1438.84190,0.04506
1436.91316,0.04505
1434.98441,0.04495
1433.05567,0.04485
1431.12693,0.04473
1429.19819,0.04463
1427.26944,0.04443
1425.34070,0.04396
1423.41196,0.04346
1421.48322,0.04325
1419.55447,0.04319
1417.62573,0.04309
1415.69699,0.04293
1413.76825,0.04279
1411.83950,0.04280
1409.91076,0.04303
1407.98202,0.04340
1406.05328,0.04376
1404.12453,0.04392
1402.19579,0.04381
1400.26705,0.04362
1398.33831,0.04343
1396.40956,0.04316
1394.48082,0.04280
1392.55208,0.04253
1390.62334,0.04256
1388.69459,0.04283
1386.76585,0.04309
1384.83711,0.04322
1382.90837,0.04332
1380.97962,0.04346
1379.05088,0.04360
1377.12214,0.04360
1375.19340,0.04350
1373.26465,0.04347
1371.33591,0.04346
1369.40717,0.04347
1367.47843,0.04348
1365.54968,0.04341
1363.62094,0.04324
1361.69220,0.04314
1359.76346,0.04318
1357.83471,0.04312
1355.90597,0.04286
1353.97723,0.04256
1352.04849,0.04226
1350.11974,0.04199
1348.19100,0.04185
1346.26226,0.04192
1344.33352,0.04205
1342.40477,0.04193
1340.47603,0.04160
1338.54729,0.04133
1336.61855,0.04127
1334.68980,0.04126
1332.76106,0.04111
1330.83232,0.04087
1328.90358,0.04060
1326.97483,0.04031
1325.04609,0.04003
1323.11735,0.03974
1321.18861,0.03950
1319.25986,0.03938
1317.33112,0.03924
1315.40238,0.03894
1313.47364,0.03863
1311.54489,0.03850
1309.61615,0.03853
1307.68741,0.03861
1305.75867,0.03858
1303.82992,0.03841
1301.90118,0.03827
1299.97244,0.03826
1298.04370,0.03833
1296.11495,0.03849
1294.18621,0.03883
1292.25747,0.03910
1290.32873,0.03901
1288.39998,0.03869
1286.47124,0.03848
1284.54250,0.03847
1282.61376,0.03849
1280.68501,0.03844
1278.75627,0.03845
1276.82753,0.03870
1274.89879,0.03911
1272.97004,0.03940
1271.04130,0.03950
1269.11256,0.03954
1267.18382,0.03979
1265.25507,0.04032
1263.32633,0.04077
1261.39759,0.04096
1259.46885,0.04119
1257.54010,0.04157
1255.61136,0.04197
1253.68262,0.04228
1251.75388,0.04240
1249.82513,0.04238
1247.89639,0.04249
1245.96765,0.04274
1244.03891,0.04298
1242.11016,0.04320
1240.18142,0.04340
1238.25268,0.04345
1236.32394,0.04340
1234.39519,0.04347
1232.46645,0.04355
1230.53771,0.04343
1228.60897,0.04326
1226.68022,0.04336
1224.75148,0.04360
1222.82274,0.04375
1220.89400,0.04387
1218.96525,0.04393
1217.03651,0.04389
1215.10777,0.04392
1213.17903,0.04410
1211.25028,0.04432
1209.32154,0.04443
1207.39280,0.04449
1205.46406,0.04466
1203.53531,0.04491
1201.60657,0.04527
1199.67783,0.04570
1197.74909,0.04611
1195.82034,0.04639
1193.89160,0.04657
1191.96286,0.04673
1190.03412,0.04684
1188.10537,0.04689
1186.17663,0.04704
1184.24789,0.04734
1182.31915,0.04775
1180.39040,0.04823
1178.46166,0.04861
1176.53292,0.04889
1174.60418,0.04930
1172.67543,0.04983
1170.74669,0.05031
1168.81795,0.05080
1166.88921,0.05148
1164.96046,0.05211
1163.03172,0.05256
1161.10298,0.05315
1159.17424,0.05384
1157.24549,0.05453
1155.31675,0.05539
1153.38801,0.05618
1151.45927,0.05652
1149.53052,0.05661
1147.60178,0.05665
1145.67304,0.05671
1143.74430,0.05686
1141.81555,0.05692
1139.88681,0.05680
1137.95807,0.05686
1136.02933,0.05714
1134.10058,0.05709
1132.17184,0.05649
1130.24310,0.05593
1128.31436,0.05588
1126.38561,0.05604
1124.45687,0.05617
1122.52813,0.05638
1120.59939,0.05661
1118.67064,0.05677
1116.74190,0.05699
1114.81316,0.05724
1112.88442,0.05751
1110.95567,0.05812
1109.02693,0.05900
1107.09819,0.05973
1105.16945,0.06001
1103.24070,0.05989
1101.31196,0.05979
1099.38322,0.05991
1097.45448,0.06009
1095.52574,0.06022
1093.59699,0.06017
1091.66825,0.06006
1089.73951,0.06013
1087.81077,0.06024
1085.88202,0.06002
1083.95328,0.05965
1082.02454,0.05950
1080.09580,0.05968
1078.16705,0.06008
1076.23831,0.06050
1074.30957,0.06091
1072.38083,0.06128
1070.45208,0.06158
1068.52334,0.06200
1066.59460,0.06253
1064.66586,0.06307
1062.73711,0.06369
1060.80837,0.06429
1058.87963,0.06470
1056.95089,0.06493
1055.02214,0.06503
1053.09340,0.06513
1051.16466,0.06546
1049.23592,0.06611
1047.30717,0.06669
1045.37843,0.06671
1043.44969,0.06662
1041.52095,0.06705
1039.59220,0.06755
1037.66346,0.06757
1035.73472,0.06753
1033.80598,0.06778
1031.87723,0.06809
1029.94849,0.06838
1028.01975,0.06869
1026.09101,0.06886
1024.16226,0.06888
1022.23352,0.06900
1020.30478,0.06925
1018.37604,0.06937
1016.44729,0.06940
1014.51855,0.06963
1012.58981,0.06995
1010.66107,0.07004
1008.73232,0.06981
1006.80358,0.06950
1004.87484,0.06927
1002.94610,0.06907
1001.01735,0.06878
999.08861,0.06845
997.15987,0.06828
995.23113,0.06838
993.30238,0.06865
991.37364,0.06884
989.44490,0.06886
987.51616,0.06884
985.58741,0.06900
983.65867,0.06928
981.72993,0.06941
979.80119,0.06930
977.87244,0.06912
975.94370,0.06900
974.01496,0.06896
972.08622,0.06900
970.15747,0.06915
968.22873,0.06934
966.29999,0.06936
964.37125,0.06919
962.44250,0.06897
960.51376,0.06885
958.58502,0.06875
956.65628,0.06844
954.72753,0.06812
952.79879,0.06801
950.87005,0.06787
948.94131,0.06754
947.01256,0.06717
945.08382,0.06687
943.15508,0.06677
941.22634,0.06679
939.29759,0.06667
937.36885,0.06661
935.44011,0.06661
933.51137,0.06642
931.58262,0.06625
929.65388,0.06629
927.72514,0.06633
925.79640,0.06620
923.86765,0.06604
921.93891,0.06592
920.01017,0.06577
918.08143,0.06565
916.15268,0.06550
914.22394,0.06534
912.29520,0.06529
910.36646,0.06513
908.43771,0.06480
906.50897,0.06479
904.58023,0.06512
902.65149,0.06533
900.72274,0.06534
898.79400,0.06529
896.86526,0.06513
894.93652,0.06503
893.00777,0.06520
891.07903,0.06548
889.15029,0.06571
887.22155,0.06588
885.29280,0.06589
883.36406,0.06574
881.43532,0.06570
879.50658,0.06587
877.57783,0.06583
875.64909,0.06544
873.72035,0.06507
871.79161,0.06495
869.86286,0.06483
867.93412,0.06449
866.00538,0.06399
864.07664,0.06353
862.14789,0.06337
860.21915,0.06352
858.29041,0.06353
856.36167,0.06337
854.43292,0.06315
852.50418,0.06290
850.57544,0.06267
848.64670,0.06241
846.71795,0.06212
844.78921,0.06184
842.86047,0.06158
840.93173,0.06134
839.00298,0.06103
837.07424,0.06061
835.14550,0.06016
833.21676,0.05975
831.28801,0.05958
829.35927,0.05980
827.43053,0.06028
825.50179,0.06077
823.57304,0.06118
821.64430,0.06158
819.71556,0.06204
817.78682,0.06220
815.85807,0.06174
813.92933,0.06112
812.00059,0.06096
810.07185,0.06146
808.14310,0.06231
806.21436,0.06313
804.28562,0.06380
802.35688,0.06429
800.42813,0.06460
798.49939,0.06468
796.57065,0.06432
794.64191,0.06383
792.71316,0.06339
790.78442,0.06282
788.85568,0.06222
786.92694,0.06190
784.99819,0.06190
783.06945,0.06184
781.14071,0.06152
779.21197,0.06122
777.28322,0.06092
775.35448,0.06042
773.42574,0.05985
771.49700,0.05970
769.56825,0.05994
767.63951,0.06009
765.71077,0.06020
763.78203,0.06046
761.85328,0.06052
759.92454,0.06016
757.99580,0.05998
756.06706,0.06029
754.13831,0.06054
752.20957,0.06029
750.28083,0.05984
748.35209,0.05957
746.42334,0.05941
744.49460,0.05937
742.56586,0.05986
740.63712,0.06066
738.70837,0.06111
736.77963,0.06129
734.85089,0.06154
732.92215,0.06161
730.99340,0.06151
729.06466,0.06169
727.13592,0.06227
725.20718,0.06282
723.27843,0.06284
721.34969,0.06233
719.42095,0.06196
717.49221,0.06202
715.56346,0.06210
713.63472,0.06195
711.70598,0.06170
709.77724,0.06158
707.84849,0.06164
705.91975,0.06172
703.99101,0.06185
702.06227,0.06209
700.13352,0.06226
698.20478,0.06242
696.27604,0.06308
694.34730,0.06425
692.41855,0.06533
690.48981,0.06628
688.56107,0.06745
686.63233,0.06862
684.70358,0.06945
682.77484,0.06992
680.84610,0.06994
678.91736,0.06978
676.98861,0.07009
675.05987,0.07057
673.13113,0.07029
671.20239,0.06908
669.27364,0.06737
667.34490,0.06559
665.41616,0.06420
663.48742,0.06327
661.55867,0.06226
659.62993,0.06089
657.70119,0.05970
655.77245,0.05894
653.84370,0.05847
651.91496,0.05865
649.98622,0.05938
648.05748,0.06005
646.12873,0.06050
644.19999,0.06011
642.27125,0.05842
640.34251,0.05677
638.41376,0.05676
636.48502,0.05773
634.55628,0.05790
632.62754,0.05688
630.69879,0.05534
628.77005,0.05447
626.84131,0.05474
624.91257,0.05484
622.98382,0.05425
621.05508,0.05426
619.12634,0.05550
617.19760,0.05680
615.26885,0.05679
613.34011,0.05572
611.41137,0.05483
609.48263,0.05481
607.55388,0.05535
605.62514,0.05630
603.69640,0.05757
601.76766,0.05837
599.83891,0.05844
