7497.02206,0.37535
7495.09332,0.37349
7493.16458,0.37179
7491.23584,0.37240
7489.30709,0.37927
7487.37835,0.38497
7485.44961,0.38333
7483.52087,0.37792
7481.59212,0.37294
7479.66338,0.37079
7477.73464,0.37265
7475.80590,0.37676
7473.87715,0.37963
7471.94841,0.37960
7470.01967,0.37999
7468.09093,0.38270
7466.16218,0.38298
7464.23344,0.37853
7462.30470,0.37416
7460.37596,0.37228
7458.44721,0.37105
7456.51847,0.36989
7454.58973,0.36900
7452.66099,0.37148
7450.73224,0.37860
7448.80350,0.38337
7446.87476,0.38173
7444.94602,0.37639
7443.01727,0.37094
7441.08853,0.36870
7439.15979,0.36910
7437.23105,0.36850
7435.30230,0.36677
7433.37356,0.36725
7431.44482,0.36878
7429.51608,0.36810
7427.58733,0.36782
7425.65859,0.36948
7423.72985,0.36961
7421.80111,0.36900
7419.87236,0.37204
7417.94362,0.37650
7416.01488,0.37636
7414.08614,0.37277
7412.15739,0.37057
7410.22865,0.36953
7408.29991,0.36819
7406.37117,0.36766
7404.44242,0.36790
7402.51368,0.36937
7400.58494,0.37298
7398.65620,0.37500
7396.72745,0.37257
7394.79871,0.36838
7392.86997,0.36567
7390.94123,0.36560
7389.01248,0.36624
7387.08374,0.36549
7385.15500,0.36476
7383.22626,0.36549
7381.29751,0.36694
7379.36877,0.36819
7377.44003,0.36787
7375.51129,0.36480
7373.58254,0.35980
7371.65380,0.35785
7369.72506,0.36320
7367.79632,0.36935
7365.86757,0.36789
7363.93883,0.36294
7362.01009,0.36258
7360.08135,0.36621
7358.15260,0.36794
7356.22386,0.36776
7354.29512,0.36851
7352.36638,0.36898
7350.43763,0.36930
7348.50889,0.36908
7346.58015,0.36643
7344.65141,0.36509
7342.72266,0.36684
7340.79392,0.36629
7338.86518,0.36154
7336.93644,0.35702
7335.00769,0.35515
7333.07895,0.35545
7331.15021,0.35779
7329.22147,0.36161
7327.29272,0.36444
7325.36398,0.36361
7323.43524,0.36034
7321.50650,0.35906
7319.57775,0.36077
7317.64901,0.36287
7315.72027,0.36411
7313.79153,0.36530
7311.86278,0.36738
7309.93404,0.36903
7308.00530,0.36803
7306.07656,0.36511
7304.14781,0.36221
7302.21907,0.36075
7300.29033,0.36022
7298.36159,0.35772
7296.43284,0.35565
7294.50410,0.35730
7292.57536,0.35861
7290.64662,0.35853
7288.71787,0.35823
7286.78913,0.35626
7284.86039,0.35457
7282.93165,0.35553
7281.00290,0.35958
7279.07416,0.36284
7277.14542,0.36065
7275.21668,0.35874
7273.28793,0.36092
7271.35919,0.36217
7269.43045,0.36162
7267.50171,0.36043
7265.57296,0.35785
7263.64422,0.35659
7261.71548,0.36005
7259.78674,0.36595
7257.85799,0.36794
7255.92925,0.36472
7254.00051,0.36245
7252.07177,0.36338
7250.14302,0.36244
7248.21428,0.35901
7246.28554,0.35855
7244.35680,0.36088
7242.42805,0.36009
7240.49931,0.35754
7238.57057,0.35841
7236.64183,0.36065
7234.71308,0.36066
7232.78434,0.35863
7230.85560,0.35734
7228.92686,0.35760
7226.99811,0.35837
7225.06937,0.36034
7223.14063,0.36224
7221.21189,0.36099
7219.28314,0.35712
7217.35440,0.35478
7215.42566,0.35503
7213.49692,0.35497
7211.56817,0.35561
7209.63943,0.35774
7207.71069,0.35732
7205.78195,0.35385
7203.85320,0.35074
7201.92446,0.34922
7199.99572,0.35005
7198.06698,0.35337
7196.13823,0.35647
7194.20949,0.35877
7192.28075,0.36001
7190.35201,0.35606
7188.42326,0.34732
7186.49452,0.34149
7184.56578,0.34283
7182.63704,0.34679
7180.70829,0.34833
7178.77955,0.34857
7176.85081,0.34996
7174.92207,0.35111
7172.99332,0.35041
7171.06458,0.34985
7169.13584,0.34996
7167.20710,0.34820
7165.27835,0.34567
7163.34961,0.34597
7161.42087,0.34715
7159.49213,0.34649
7157.56338,0.34773
7155.63464,0.35090
7153.70590,0.35003
7151.77716,0.34590
7149.84841,0.34530
7147.91967,0.34844
7145.99093,0.35028
7144.06219,0.34949
7142.13344,0.34654
7140.20470,0.34235
7138.27596,0.33994
7136.34722,0.34071
7134.41847,0.34279
7132.48973,0.34431
7130.56099,0.34496
7128.63225,0.34343
7126.70351,0.34046
7124.77476,0.34073
7122.84602,0.34434
7120.91728,0.34692
7118.98854,0.34599
7117.05979,0.34142
7115.13105,0.33697
7113.20231,0.33659
7111.27357,0.33816
7109.34482,0.33759
7107.41608,0.33503
7105.48734,0.33440
7103.55860,0.33602
7101.62985,0.33720
7099.70111,0.33796
7097.77237,0.33577
7095.84363,0.33040
7093.91488,0.32921
7091.98614,0.33389
7090.05740,0.33878
7088.12866,0.33993
7086.19991,0.33688
7084.27117,0.33221
7082.34243,0.32926
7080.41369,0.32894
7078.48494,0.33018
7076.55620,0.33231
7074.62746,0.33375
7072.69872,0.33288
7070.76997,0.33022
7068.84123,0.32848
7066.91249,0.32896
7064.98375,0.32768
7063.05500,0.32464
7061.12626,0.32521
7059.19752,0.32796
7057.26878,0.32747
7055.34003,0.32266
7053.41129,0.31806
7051.48255,0.31907
7049.55381,0.32334
7047.62506,0.32506
7045.69632,0.32403
7043.76758,0.32227
7041.83884,0.32154
7039.91009,0.32259
7037.98135,0.32246
7036.05261,0.31992
7034.12387,0.31727
7032.19512,0.31547
7030.26638,0.31402
7028.33764,0.31202
7026.40890,0.31017
7024.48015,0.31065
7022.55141,0.31298
7020.62267,0.31412
7018.69393,0.31325
7016.76518,0.31252
7014.83644,0.31249
7012.90770,0.31259
7010.97896,0.31283
7009.05021,0.31138
7007.12147,0.30832
7005.19273,0.30787
7003.26399,0.30952
7001.33524,0.30935
6999.40650,0.30918
6997.47776,0.31024
6995.54902,0.31081
6993.62027,0.31288
6991.69153,0.31567
6989.76279,0.31518
6987.83405,0.31278
6985.90530,0.31158
6983.97656,0.31115
6982.04782,0.30967
6980.11908,0.30662
6978.19033,0.30412
6976.26159,0.30542
6974.33285,0.31016
6972.40411,0.31387
6970.47536,0.31409
6968.54662,0.31256
6966.61788,0.31061
6964.68914,0.30836
6962.76039,0.30709
6960.83165,0.30670
6958.90291,0.30677
6956.97417,0.30846
6955.04542,0.30948
6953.11668,0.30706
6951.18794,0.30403
6949.25920,0.30359
6947.33045,0.30551
6945.40171,0.30751
6943.47297,0.30703
6941.54423,0.30472
6939.61548,0.30434
6937.68674,0.30625
6935.75800,0.30680
6933.82926,0.30552
6931.90051,0.30530
6929.97177,0.30677
6928.04303,0.30674
6926.11429,0.30412
6924.18554,0.30260
6922.25680,0.30352
6920.32806,0.30496
6918.39932,0.30547
6916.47057,0.30430
6914.54183,0.30292
6912.61309,0.30309
6910.68435,0.30397
6908.75560,0.30389
6906.82686,0.30232
6904.89812,0.30041
6902.96938,0.29964
6901.04063,0.30077
6899.11189,0.30250
6897.18315,0.30226
6895.25441,0.30152
6893.32566,0.30200
6891.39692,0.30120
6889.46818,0.29936
6887.53944,0.29901
6885.61069,0.30053
6883.68195,0.30293
6881.75321,0.30382
6879.82447,0.30241
6877.89572,0.30083
6875.96698,0.30046
6874.03824,0.30146
6872.10950,0.30299
6870.18075,0.30304
6868.25201,0.30136
6866.32327,0.30049
6864.39453,0.30199
6862.46578,0.30395
6860.53704,0.30416
6858.60830,0.30376
6856.67956,0.30454
6854.75081,0.30582
6852.82207,0.30650
6850.89333,0.30684
6848.96459,0.30721
6847.03584,0.30707
6845.10710,0.30668
6843.17836,0.30578
6841.24962,0.30311
6839.32087,0.30156
6837.39213,0.30380
6835.46339,0.30618
6833.53465,0.30615
6831.60590,0.30541
6829.67716,0.30501
6827.74842,0.30509
6825.81968,0.30606
6823.89093,0.30743
6821.96219,0.30743
6820.03345,0.30544
6818.10471,0.30339
6816.17596,0.30244
6814.24722,0.30259
6812.31848,0.30419
6810.38974,0.30545
6808.46099,0.30539
6806.53225,0.30615
6804.60351,0.30761
6802.67477,0.30792
6800.74602,0.30739
6798.81728,0.30668
6796.88854,0.30546
6794.95980,0.30387
6793.03105,0.30266
6791.10231,0.30207
6789.17357,0.30183
6787.24483,0.30191
6785.31608,0.30245
6783.38734,0.30263
6781.45860,0.30191
6779.52986,0.30170
6777.60111,0.30261
6775.67237,0.30352
6773.74363,0.30483
6771.81489,0.30745
6769.88614,0.30946
6767.95740,0.30906
6766.02866,0.30684
6764.09992,0.30424
6762.17117,0.30433
6760.24243,0.30860
6758.31369,0.31171
6756.38495,0.30889
6754.45620,0.30393
6752.52746,0.30222
6750.59872,0.30412
6748.66998,0.30753
6746.74123,0.31006
6744.81249,0.31010
6742.88375,0.30860
6740.95501,0.30767
6739.02626,0.30856
6737.09752,0.31096
6735.16878,0.31307
6733.24004,0.31312
6731.31129,0.31174
6729.38255,0.31127
6727.45381,0.31162
6725.52507,0.31064
6723.59632,0.30910
6721.66758,0.30832
6719.73884,0.30721
6717.81010,0.30668
6715.88135,0.30758
6713.95261,0.30695
6712.02387,0.30486
6710.09513,0.30527
6708.16638,0.30802
6706.23764,0.31024
6704.30890,0.31171
6702.38016,0.31264
6700.45141,0.31166
6698.52267,0.30838
6696.59393,0.30571
6694.66519,0.30634
6692.73644,0.30843
6690.80770,0.30948
6688.87896,0.31010
6686.95022,0.31064
6685.02147,0.30977
6683.09273,0.30790
6681.16399,0.30756
6679.23525,0.30874
6677.30650,0.30926
6675.37776,0.30913
6673.44902,0.30956
6671.52028,0.31037
6669.59153,0.31078
6667.66279,0.31107
6665.73405,0.31197
6663.80531,0.31346
6661.87656,0.31517
6659.94782,0.31648
6658.01908,0.31689
6656.09034,0.31671
6654.16159,0.31670
6652.23285,0.31753
6650.30411,0.31807
6648.37537,0.31640
6646.44662,0.31440
6644.51788,0.31504
6642.58914,0.31656
6640.66040,0.31643
6638.73165,0.31606
6636.80291,0.31730
6634.87417,0.31868
6632.94543,0.31776
6631.01668,0.31549
6629.08794,0.31407
6627.15920,0.31302
6625.23046,0.31254
6623.30171,0.31407
6621.37297,0.31710
6619.44423,0.31976
6617.51549,0.31991
6615.58674,0.31777
6613.65800,0.31688
6611.72926,0.31899
6609.80052,0.32060
6607.87177,0.31952
6605.94303,0.31932
6604.01429,0.32084
6602.08555,0.32075
6600.15680,0.31981
6598.22806,0.32027
6596.29932,0.32136
6594.37058,0.32181
6592.44183,0.32121
6590.51309,0.32029
6588.58435,0.32023
6586.65561,0.32003
6584.72686,0.31892
6582.79812,0.31905
6580.86938,0.32090
6578.94064,0.32265
6577.01190,0.32338
6575.08315,0.32306
6573.15441,0.32265
6571.22567,0.32375
6569.29693,0.32632
6567.36818,0.32771
6565.43944,0.32689
6563.51070,0.32552
6561.58196,0.32410
6559.65321,0.32276
6557.72447,0.32216
6555.79573,0.32191
6553.86699,0.32170
6551.93824,0.32233
6550.00950,0.32417
6548.08076,0.32563
6546.15202,0.32523
6544.22327,0.32342
6542.29453,0.32250
6540.36579,0.32454
6538.43705,0.32672
6536.50830,0.32571
6534.57956,0.32447
6532.65082,0.32479
6530.72208,0.32434
6528.79333,0.32358
6526.86459,0.32412
6524.93585,0.32601
6523.00711,0.32825
6521.07836,0.32803
6519.14962,0.32545
6517.22088,0.32446
6515.29214,0.32622
6513.36339,0.32799
6511.43465,0.32814
6509.50591,0.32851
6507.57717,0.33014
6505.64842,0.33096
6503.71968,0.32955
6501.79094,0.32779
6499.86220,0.32819
6497.93345,0.32947
6496.00471,0.32890
6494.07597,0.32757
6492.14723,0.32746
6490.21848,0.32754
6488.28974,0.32739
6486.36100,0.32946
6484.43226,0.33298
6482.50351,0.33272
6480.57477,0.32923
6478.64603,0.32779
6476.71729,0.32781
6474.78854,0.32661
6472.85980,0.32517
6470.93106,0.32496
6469.00232,0.32638
6467.07357,0.32871
6465.14483,0.33000
6463.21609,0.32952
6461.28735,0.32913
6459.35860,0.32974
6457.42986,0.32982
6455.50112,0.32913
6453.57238,0.32877
6451.64363,0.32847
6449.71489,0.32792
6447.78615,0.32803
6445.85741,0.32886
6443.92866,0.32914
6441.99992,0.32907
6440.07118,0.32882
6438.14244,0.32768
6436.21369,0.32686
6434.28495,0.32770
6432.35621,0.32951
6430.42747,0.33097
6428.49872,0.33108
6426.56998,0.33001
6424.64124,0.32949
6422.71250,0.33075
6420.78375,0.33310
6418.85501,0.33494
6416.92627,0.33504
6414.99753,0.33363
6413.06878,0.33249
6411.14004,0.33250
6409.21130,0.33210
6407.28256,0.33024
6405.35381,0.32882
6403.42507,0.32958
6401.49633,0.33108
6399.56759,0.33149
6397.63884,0.33142
6395.71010,0.33214
6393.78136,0.33411
6391.85262,0.33614
6389.92387,0.33628
6387.99513,0.33529
6386.06639,0.33536
6384.13765,0.33564
6382.20890,0.33414
6380.28016,0.33246
6378.35142,0.33244
6376.42268,0.33214
6374.49393,0.33100
6372.56519,0.33103
6370.63645,0.33137
6368.70771,0.33082
6366.77896,0.33104
6364.85022,0.33237
6362.92148,0.33357
6360.99274,0.33413
6359.06399,0.33382
6357.13525,0.33267
6355.20651,0.33150
6353.27777,0.33164
6351.34902,0.33283
6349.42028,0.33298
6347.49154,0.33232
6345.56280,0.33297
6343.63405,0.33497
6341.70531,0.33689
6339.77657,0.33725
6337.84783,0.33592
6335.91908,0.33522
6333.99034,0.33567
6332.06160,0.33540
6330.13286,0.33487
6328.20411,0.33467
6326.27537,0.33389
6324.34663,0.33315
6322.41789,0.33317
6320.48914,0.33356
6318.56040,0.33449
6316.63166,0.33565
6314.70292,0.33669
6312.77417,0.33804
6310.84543,0.33946
6308.91669,0.33997
6306.98795,0.33904
6305.05920,0.33821
6303.13046,0.33985
6301.20172,0.34194
6299.27298,0.34046
6297.34423,0.33710
6295.41549,0.33573
6293.48675,0.33619
6291.55801,0.33739
6289.62926,0.33890
6287.70052,0.34001
6285.77178,0.34059
6283.84304,0.34036
6281.91429,0.33974
6279.98555,0.33947
6278.05681,0.33878
6276.12807,0.33793
6274.19932,0.33820
6272.27058,0.33863
6270.34184,0.33850
6268.41310,0.33957
6266.48435,0.34128
6264.55561,0.34091
6262.62687,0.33910
6260.69813,0.33873
6258.76938,0.34029
6256.84064,0.34148
6254.91190,0.34162
6252.98316,0.34219
6251.05441,0.34326
6249.12567,0.34345
6247.19693,0.34233
6245.26819,0.34173
6243.33944,0.34305
6241.41070,0.34435
6239.48196,0.34351
6237.55322,0.34198
6235.62447,0.34212
6233.69573,0.34309
6231.76699,0.34349
6229.83825,0.34415
6227.90950,0.34590
6225.98076,0.34791
6224.05202,0.34841
6222.12328,0.34742
6220.19453,0.34609
6218.26579,0.34487
6216.33705,0.34456
6214.40831,0.34486
6212.47956,0.34518
6210.55082,0.34619
6208.62208,0.34735
6206.69334,0.34738
6204.76459,0.34659
6202.83585,0.34623
6200.90711,0.34668
6198.97837,0.34672
6197.04962,0.34591
6195.12088,0.34608
6193.19214,0.34796
6191.26340,0.34941
6189.33465,0.34857
6187.40591,0.34679
6185.47717,0.34614
6183.54843,0.34616
6181.61968,0.34644
6179.69094,0.34730
6177.76220,0.34851
6175.83346,0.34970
6173.90471,0.34942
6171.97597,0.34768
6170.04723,0.34673
6168.11849,0.34676
6166.18974,0.34676
6164.26100,0.34678
6162.33226,0.34711
6160.40352,0.34787
6158.47477,0.34844
6156.54603,0.34838
6154.61729,0.34859
6152.68855,0.34946
6150.75980,0.35065
6148.83106,0.35236
6146.90232,0.35454
6144.97358,0.35577
6143.04483,0.35501
6141.11609,0.35362
6139.18735,0.35285
6137.25861,0.35292
6135.32986,0.35404
6133.40112,0.35479
6131.47238,0.35449
6129.54364,0.35400
6127.61489,0.35291
6125.68615,0.35090
6123.75741,0.34887
6121.82867,0.34827
6119.89992,0.34983
6117.97118,0.35195
6116.04244,0.35315
6114.11370,0.35395
6112.18495,0.35441
6110.25621,0.35398
6108.32747,0.35334
6106.39873,0.35301
6104.46998,0.35234
6102.54124,0.35129
6100.61250,0.35071
6098.68376,0.35031
6096.75501,0.34975
6094.82627,0.35018
6092.89753,0.35166
6090.96879,0.35315
6089.04004,0.35451
6087.11130,0.35500
6085.18256,0.35398
6083.25382,0.35238
6081.32507,0.35159
6079.39633,0.35236
6077.46759,0.35324
6075.53885,0.35202
6073.61010,0.35001
6071.68136,0.34998
6069.75262,0.35129
6067.82388,0.35198
6065.89513,0.35166
6063.96639,0.35073
6062.03765,0.34984
6060.10891,0.34968
6058.18016,0.35016
6056.25142,0.35020
6054.32268,0.34963
6052.39394,0.34992
6050.46519,0.35076
6048.53645,0.35006
6046.60771,0.34850
6044.67897,0.34833
6042.75022,0.34900
6040.82148,0.34875
6038.89274,0.34800
6036.96400,0.34737
6035.03525,0.34600
6033.10651,0.34427
6031.17777,0.34345
6029.24903,0.34341
6027.32029,0.34375
6025.39154,0.34413
6023.46280,0.34364
6021.53406,0.34248
6019.60532,0.34199
6017.67657,0.34202
6015.74783,0.34135
6013.81909,0.34005
6011.89035,0.33896
6009.96160,0.33857
6008.03286,0.33865
6006.10412,0.33827
6004.17538,0.33686
6002.24663,0.33484
6000.31789,0.33385
5998.38915,0.33461
5996.46041,0.33565
5994.53166,0.33568
5992.60292,0.33468
5990.67418,0.33331
5988.74544,0.33168
5986.81669,0.32981
5984.88795,0.32921
5982.95921,0.33030
5981.03047,0.33122
5979.10172,0.33073
5977.17298,0.32961
5975.24424,0.32924
5973.31550,0.32928
5971.38675,0.32886
5969.45801,0.32821
5967.52927,0.32739
5965.60053,0.32615
5963.67178,0.32511
5961.74304,0.32504
5959.81430,0.32582
5957.88556,0.32650
5955.95681,0.32636
5954.02807,0.32634
5952.09933,0.32703
5950.17059,0.32765
5948.24184,0.32846
5946.31310,0.32878
5944.38436,0.32699
5942.45562,0.32476
5940.52687,0.32394
5938.59813,0.32408
5936.66939,0.32506
5934.74065,0.32613
5932.81190,0.32559
5930.88316,0.32377
5928.95442,0.32259
5927.02568,0.32293
5925.09693,0.32406
5923.16819,0.32485
5921.23945,0.32451
5919.31071,0.32322
5917.38196,0.32216
5915.45322,0.32160
5913.52448,0.32123
5911.59574,0.32118
5909.66699,0.32144
5907.73825,0.32141
5905.80951,0.32095
5903.88077,0.32093
5901.95202,0.32119
5900.02328,0.32058
5898.09454,0.31999
5896.16580,0.32032
5894.23705,0.32020
5892.30831,0.31912
5890.37957,0.31859
5888.45083,0.31967
5886.52208,0.32164
5884.59334,0.32299
5882.66460,0.32307
5880.73586,0.32220
5878.80711,0.32108
5876.87837,0.32087
5874.94963,0.32213
5873.02089,0.32325
5871.09214,0.32213
5869.16340,0.31955
5867.23466,0.31833
5865.30592,0.31869
5863.37717,0.31887
5861.44843,0.31855
5859.51969,0.31818
5857.59095,0.31859
5855.66220,0.32043
5853.73346,0.32193
5851.80472,0.32157
5849.87598,0.32098
5847.94723,0.32173
5846.01849,0.32270
5844.08975,0.32233
5842.16101,0.32117
5840.23226,0.32007
5838.30352,0.31859
5836.37478,0.31739
5834.44604,0.31762
5832.51729,0.31810
5830.58855,0.31780
5828.65981,0.31782
5826.73107,0.31813
5824.80232,0.31720
5822.87358,0.31526
5820.94484,0.31438
5819.01610,0.31490
5817.08735,0.31506
5815.15861,0.31443
5813.22987,0.31365
5811.30113,0.31272
5809.37238,0.31221
5807.44364,0.31277
5805.51490,0.31356
5803.58616,0.31331
5801.65741,0.31237
5799.72867,0.31202
5797.79993,0.31274
5795.87119,0.31384
5793.94244,0.31405
5792.01370,0.31374
5790.08496,0.31448
5788.15622,0.31558
5786.22747,0.31565
5784.29873,0.31500
5782.36999,0.31410
5780.44125,0.31343
5778.51250,0.31385
5776.58376,0.31520
5774.65502,0.31648
5772.72628,0.31716
5770.79753,0.31751
5768.86879,0.31744
5766.94005,0.31648
5765.01131,0.31574
5763.08256,0.31679
5761.15382,0.31915
5759.22508,0.32121
5757.29634,0.32210
5755.36759,0.32208
5753.43885,0.32180
5751.51011,0.32174
5749.58137,0.32207
5747.65262,0.32254
5745.72388,0.32312
5743.79514,0.32372
5741.86640,0.32371
5739.93765,0.32337
5738.00891,0.32350
5736.08017,0.32363
5734.15143,0.32340
5732.22268,0.32355
5730.29394,0.32424
5728.36520,0.32476
5726.43646,0.32495
5724.50771,0.32538
5722.57897,0.32619
5720.65023,0.32713
5718.72149,0.32796
5716.79274,0.32823
5714.86400,0.32786
5712.93526,0.32739
5711.00652,0.32745
5709.07777,0.32796
5707.14903,0.32821
5705.22029,0.32838
5703.29155,0.32888
5701.36280,0.32944
5699.43406,0.33022
5697.50532,0.33126
5695.57658,0.33170
5693.64783,0.33128
5691.71909,0.33107
5689.79035,0.33173
5687.86161,0.33240
5685.93286,0.33232
5684.00412,0.33165
5682.07538,0.33044
5680.14664,0.32926
5678.21789,0.32917
5676.28915,0.32973
5674.36041,0.33004
5672.43167,0.33030
5670.50292,0.33051
5668.57418,0.33035
5666.64544,0.32989
5664.71670,0.32963
5662.78795,0.33010
5660.85921,0.33100
5658.93047,0.33175
5657.00173,0.33207
5655.07298,0.33210
5653.14424,0.33220
5651.21550,0.33216
5649.28676,0.33193
5647.35801,0.33189
5645.42927,0.33187
5643.50053,0.33182
5641.57179,0.33192
5639.64304,0.33209
5637.71430,0.33271
5635.78556,0.33383
5633.85682,0.33416
5631.92807,0.33349
5629.99933,0.33336
5628.07059,0.33376
5626.14185,0.33376
5624.21310,0.33378
5622.28436,0.33390
5620.35562,0.33353
5618.42688,0.33293
5616.49813,0.33294
5614.56939,0.33419
5612.64065,0.33585
5610.71191,0.33613
5608.78316,0.33560
5606.85442,0.33605
5604.92568,0.33666
5602.99694,0.33636
5601.06819,0.33639
5599.13945,0.33699
5597.21071,0.33706
5595.28197,0.33670
5593.35322,0.33608
5591.42448,0.33558
5589.49574,0.33593
5587.56700,0.33647
5585.63825,0.33667
5583.70951,0.33672
5581.78077,0.33610
5579.85203,0.33486
5577.92328,0.33428
5575.99454,0.33500
5574.06580,0.33633
5572.13706,0.33734
5570.20831,0.33804
5568.27957,0.33832
5566.35083,0.33780
5564.42209,0.33754
5562.49334,0.33830
5560.56460,0.33894
5558.63586,0.33885
5556.70712,0.33835
5554.77837,0.33803
5552.84963,0.33851
5550.92089,0.33910
5548.99215,0.33914
5547.06340,0.33918
5545.13466,0.33893
5543.20592,0.33839
5541.27718,0.33859
5539.34843,0.33912
5537.41969,0.33922
5535.49095,0.33963
5533.56221,0.34069
5531.63346,0.34149
5529.70472,0.34132
5527.77598,0.34080
5525.84724,0.34108
5523.91849,0.34183
5521.98975,0.34193
5520.06101,0.34161
5518.13227,0.34145
5516.20352,0.34120
5514.27478,0.34125
5512.34604,0.34190
5510.41730,0.34249
5508.48855,0.34279
5506.55981,0.34293
5504.63107,0.34255
5502.70233,0.34208
5500.77358,0.34274
5498.84484,0.34418
5496.91610,0.34497
5494.98736,0.34506
5493.05861,0.34509
5491.12987,0.34508
5489.20113,0.34504
5487.27239,0.34467
5485.34365,0.34382
5483.41490,0.34347
5481.48616,0.34382
5479.55742,0.34415
5477.62868,0.34455
5475.69993,0.34486
5473.77119,0.34470
5471.84245,0.34487
5469.91371,0.34558
5467.98496,0.34615
5466.05622,0.34645
5464.12748,0.34657
5462.19874,0.34692
5460.26999,0.34774
5458.34125,0.34798
5456.41251,0.34722
5454.48377,0.34678
5452.55502,0.34745
5450.62628,0.34848
5448.69754,0.34892
5446.76880,0.34852
5444.84005,0.34800
5442.91131,0.34839
5440.98257,0.34938
5439.05383,0.35012
5437.12508,0.35027
5435.19634,0.34977
5433.26760,0.34949
5431.33886,0.35007
5429.41011,0.35083
5427.48137,0.35142
5425.55263,0.35230
5423.62389,0.35307
5421.69514,0.35248
5419.76640,0.35117
5417.83766,0.35101
5415.90892,0.35182
5413.98017,0.35262
5412.05143,0.35328
5410.12269,0.35338
5408.19395,0.35272
5406.26520,0.35242
5404.33646,0.35309
5402.40772,0.35385
5400.47898,0.35401
5398.55023,0.35391
5396.62149,0.35413
5394.69275,0.35471
5392.76401,0.35515
5390.83526,0.35501
5388.90652,0.35468
5386.97778,0.35453
5385.04904,0.35425
5383.12029,0.35402
5381.19155,0.35385
5379.26281,0.35362
5377.33407,0.35378
5375.40532,0.35425
5373.47658,0.35429
5371.54784,0.35366
5369.61910,0.35263
5367.69035,0.35193
5365.76161,0.35204
5363.83287,0.35260
5361.90413,0.35273
5359.97538,0.35227
5358.04664,0.35183
5356.11790,0.35175
5354.18916,0.35217
5352.26041,0.35287
5350.33167,0.35330
5348.40293,0.35332
5346.47419,0.35276
5344.54544,0.35155
5342.61670,0.35064
5340.68796,0.35074
5338.75922,0.35103
5336.83047,0.35042
5334.90173,0.34889
5332.97299,0.34748
5331.04425,0.34728
5329.11550,0.34810
5327.18676,0.34860
5325.25802,0.34793
5323.32928,0.34679
5321.40053,0.34614
5319.47179,0.34562
5317.54305,0.34438
5315.61431,0.34276
5313.68556,0.34138
5311.75682,0.34025
5309.82808,0.33946
5307.89934,0.33851
5305.97059,0.33658
5304.04185,0.33426
5302.11311,0.33277
5300.18437,0.33233
5298.25562,0.33194
5296.32688,0.33059
5294.39814,0.32880
5292.46940,0.32700
5290.54065,0.32465
5288.61191,0.32229
5286.68317,0.32028
5284.75443,0.31797
5282.82568,0.31541
5280.89694,0.31257
5278.96820,0.30958
5277.03946,0.30738
5275.11071,0.30568
5273.18197,0.30342
5271.25323,0.30092
5269.32449,0.29872
5267.39574,0.29665
5265.46700,0.29444
5263.53826,0.29186
5261.60952,0.28909
5259.68077,0.28647
5257.75203,0.28393
5255.82329,0.28159
5253.89455,0.27985
5251.96580,0.27845
5250.03706,0.27642
5248.10832,0.27390
5246.17958,0.27186
5244.25083,0.27003
5242.32209,0.26774
5240.39335,0.26579
5238.46461,0.26485
5236.53586,0.26436
5234.60712,0.26336
5232.67838,0.26149
5230.74964,0.25950
5228.82089,0.25846
5226.89215,0.25861
5224.96341,0.25896
5223.03467,0.25795
5221.10592,0.25593
5219.17718,0.25481
5217.24844,0.25489
5215.31970,0.25492
5213.39095,0.25450
5211.46221,0.25431
5209.53347,0.25463
5207.60473,0.25483
5205.67598,0.25421
5203.74724,0.25353
5201.81850,0.25405
5199.88976,0.25498
5197.96101,0.25473
5196.03227,0.25367
5194.10353,0.25317
5192.17479,0.25363
5190.24604,0.25469
5188.31730,0.25569
5186.38856,0.25609
5184.45982,0.25601
5182.53107,0.25583
5180.60233,0.25556
5178.67359,0.25525
5176.74485,0.25547
5174.81610,0.25638
5172.88736,0.25716
5170.95862,0.25729
5169.02988,0.25732
5167.10113,0.25772
5165.17239,0.25824
5163.24365,0.25864
5161.31491,0.25920
5159.38616,0.26020
5157.45742,0.26110
5155.52868,0.26123
5153.59994,0.26116
5151.67119,0.26163
5149.74245,0.26240
5147.81371,0.26321
5145.88497,0.26444
5143.95622,0.26587
5142.02748,0.26683
5140.09874,0.26709
5138.17000,0.26698
5136.24125,0.26706
5134.31251,0.26765
5132.38377,0.26862
5130.45503,0.26962
5128.52628,0.27040
5126.59754,0.27129
5124.66880,0.27224
5122.74006,0.27281
5120.81131,0.27343
5118.88257,0.27445
5116.95383,0.27548
5115.02509,0.27610
5113.09634,0.27635
5111.16760,0.27674
5109.23886,0.27754
5107.31012,0.27827
5105.38137,0.27876
5103.45263,0.27968
5101.52389,0.28122
5099.59515,0.28235
5097.66640,0.28209
5095.73766,0.28141
5093.80892,0.28181
5091.88018,0.28296
5089.95143,0.28381
5088.02269,0.28445
5086.09395,0.28539
5084.16521,0.28624
5082.23646,0.28630
5080.30772,0.28609
5078.37898,0.28688
5076.45024,0.28832
5074.52149,0.28892
5072.59275,0.28889
5070.66401,0.28931
5068.73527,0.28991
5066.80652,0.29033
5064.87778,0.29106
5062.94904,0.29217
5061.02030,0.29324
5059.09155,0.29406
5057.16281,0.29447
5055.23407,0.29474
5053.30533,0.29528
5051.37658,0.29595
5049.44784,0.29654
5047.51910,0.29677
5045.59036,0.29660
5043.66161,0.29676
5041.73287,0.29752
5039.80413,0.29803
5037.87539,0.29799
5035.94664,0.29825
5034.01790,0.29904
5032.08916,0.29965
5030.16042,0.29996
5028.23167,0.30052
5026.30293,0.30144
5024.37419,0.30242
5022.44545,0.30329
5020.51670,0.30359
5018.58796,0.30337
5016.65922,0.30358
5014.73048,0.30450
5012.80173,0.30554
5010.87299,0.30586
5008.94425,0.30508
5007.01551,0.30416
5005.08676,0.30419
5003.15802,0.30488
5001.22928,0.30546
4999.30054,0.30597
4997.37179,0.30621
4995.44305,0.30575
4993.51431,0.30543
4991.58557,0.30563
4989.65682,0.30558
4987.72808,0.30520
4985.79934,0.30512
4983.87060,0.30547
4981.94185,0.30553
4980.01311,0.30502
4978.08437,0.30471
4976.15563,0.30470
4974.22688,0.30443
4972.29814,0.30372
4970.36940,0.30301
4968.44066,0.30281
4966.51191,0.30291
4964.58317,0.30278
4962.65443,0.30224
4960.72569,0.30161
4958.79694,0.30138
4956.86820,0.30136
4954.93946,0.30093
4953.01072,0.29997
4951.08197,0.29880
4949.15323,0.29797
4947.22449,0.29748
4945.29575,0.29639
4943.36700,0.29470
4941.43826,0.29368
4939.50952,0.29361
4937.58078,0.29359
4935.65204,0.29294
4933.72329,0.29178
4931.79455,0.29060
4929.86581,0.28945
4927.93707,0.28821
4926.00832,0.28713
4924.07958,0.28649
4922.15084,0.28605
4920.22210,0.28525
4918.29335,0.28437
4916.36461,0.28389
4914.43587,0.28353
4912.50713,0.28316
4910.57838,0.28279
4908.64964,0.28207
4906.72090,0.28107
4904.79216,0.28007
4902.86341,0.27929
4900.93467,0.27877
4899.00593,0.27825
4897.07719,0.27780
4895.14844,0.27752
4893.21970,0.27727
4891.29096,0.27692
4889.36222,0.27613
4887.43347,0.27486
4885.50473,0.27364
4883.57599,0.27305
4881.64725,0.27308
4879.71850,0.27327
4877.78976,0.27340
4875.86102,0.27332
4873.93228,0.27266
4872.00353,0.27139
4870.07479,0.27016
4868.14605,0.26943
4866.21731,0.26867
4864.28856,0.26776
4862.35982,0.26753
4860.43108,0.26806
4858.50234,0.26855
4856.57359,0.26854
4854.64485,0.26807
4852.71611,0.26728
4850.78737,0.26628
4848.85862,0.26526
4846.92988,0.26473
4845.00114,0.26491
4843.07240,0.26509
4841.14365,0.26460
4839.21491,0.26360
4837.28617,0.26255
4835.35743,0.26174
4833.42868,0.26119
4831.49994,0.26067
4829.57120,0.26011
4827.64246,0.25973
4825.71371,0.25975
4823.78497,0.26030
4821.85623,0.26093
4819.92749,0.26090
4817.99874,0.26022
4816.07000,0.25937
4814.14126,0.25864
4812.21252,0.25826
4810.28377,0.25815
4808.35503,0.25793
4806.42629,0.25748
4804.49755,0.25695
4802.56880,0.25631
4800.64006,0.25564
4798.71132,0.25519
4796.78258,0.25515
4794.85383,0.25541
4792.92509,0.25553
4790.99635,0.25516
4789.06761,0.25460
4787.13886,0.25451
4785.21012,0.25460
4783.28138,0.25415
4781.35264,0.25362
4779.42389,0.25353
4777.49515,0.25343
4775.56641,0.25310
4773.63767,0.25275
4771.70892,0.25271
4769.78018,0.25292
4767.85144,0.25273
4765.92270,0.25220
4763.99395,0.25192
4762.06521,0.25181
4760.13647,0.25163
4758.20773,0.25134
4756.27898,0.25091
4754.35024,0.25065
4752.42150,0.25068
4750.49276,0.25037
4748.56401,0.24946
4746.63527,0.24850
4744.70653,0.24803
4742.77779,0.24796
4740.84904,0.24762
4738.92030,0.24700
4736.99156,0.24685
4735.06282,0.24711
4733.13407,0.24718
4731.20533,0.24696
4729.27659,0.24665
4727.34785,0.24653
4725.41910,0.24656
4723.49036,0.24641
4721.56162,0.24616
4719.63288,0.24594
4717.70413,0.24573
4715.77539,0.24547
4713.84665,0.24509
4711.91791,0.24475
4709.98916,0.24478
4708.06042,0.24524
4706.13168,0.24559
4704.20294,0.24517
4702.27419,0.24421
4700.34545,0.24347
4698.41671,0.24313
4696.48797,0.24308
4694.55922,0.24287
4692.63048,0.24230
4690.70174,0.24183
4688.77300,0.24157
4686.84425,0.24147
4684.91551,0.24176
4682.98677,0.24205
4681.05803,0.24180
4679.12928,0.24126
4677.20054,0.24099
4675.27180,0.24108
4673.34306,0.24118
4671.41431,0.24135
4669.48557,0.24195
4667.55683,0.24287
4665.62809,0.24368
4663.69934,0.24434
4661.77060,0.24509
4659.84186,0.24578
4657.91312,0.24611
4655.98437,0.24618
4654.05563,0.24626
4652.12689,0.24664
4650.19815,0.24751
4648.26940,0.24865
4646.34066,0.24956
4644.41192,0.25005
4642.48318,0.25035
4640.55443,0.25064
4638.62569,0.25094
4636.69695,0.25114
4634.76821,0.25137
4632.83946,0.25184
4630.91072,0.25238
4628.98198,0.25267
4627.05324,0.25253
4625.12449,0.25231
4623.19575,0.25229
4621.26701,0.25233
4619.33827,0.25271
4617.40952,0.25354
4615.48078,0.25444
4613.55204,0.25526
4611.62330,0.25608
4609.69455,0.25702
4607.76581,0.25795
4605.83707,0.25875
4603.90833,0.25967
4601.97958,0.26069
4600.05084,0.26126
4598.12210,0.26150
4596.19336,0.26216
4594.26461,0.26350
4592.33587,0.26491
4590.40713,0.26556
4588.47839,0.26541
4586.54964,0.26529
4584.62090,0.26556
4582.69216,0.26580
4580.76342,0.26587
4578.83467,0.26608
4576.90593,0.26631
4574.97719,0.26640
4573.04845,0.26640
4571.11970,0.26641
4569.19096,0.26662
4567.26222,0.26693
4565.33348,0.26701
4563.40473,0.26691
4561.47599,0.26705
4559.54725,0.26746
4557.61851,0.26799
4555.68976,0.26857
4553.76102,0.26915
4551.83228,0.26973
4549.90354,0.27007
4547.97479,0.27002
4546.04605,0.27004
4544.11731,0.27029
4542.18857,0.27057
4540.25982,0.27070
4538.33108,0.27067
4536.40234,0.27073
4534.47360,0.27080
4532.54485,0.27068
4530.61611,0.27066
4528.68737,0.27090
4526.75863,0.27110
4524.82988,0.27093
4522.90114,0.27035
4520.97240,0.26971
4519.04366,0.26924
4517.11491,0.26880
4515.18617,0.26817
4513.25743,0.26752
4511.32869,0.26700
4509.39994,0.26659
4507.47120,0.26610
4505.54246,0.26529
4503.61372,0.26419
4501.68497,0.26321
4499.75623,0.26239
4497.82749,0.26151
4495.89875,0.26057
4493.97000,0.25964
4492.04126,0.25861
4490.11252,0.25742
4488.18378,0.25607
4486.25503,0.25470
4484.32629,0.25341
4482.39755,0.25208
4480.46881,0.25053
4478.54006,0.24864
4476.61132,0.24631
4474.68258,0.24387
4472.75384,0.24184
4470.82509,0.24007
4468.89635,0.23795
4466.96761,0.23541
4465.03887,0.23276
4463.11012,0.23009
4461.18138,0.22732
4459.25264,0.22456
4457.32390,0.22194
4455.39515,0.21918
4453.46641,0.21589
4451.53767,0.21241
4449.60893,0.20925
4447.68018,0.20622
4445.75144,0.20316
4443.82270,0.20024
4441.89396,0.19741
4439.96521,0.19454
4438.03647,0.19180
4436.10773,0.18934
4434.17899,0.18701
4432.25024,0.18468
4430.32150,0.18239
4428.39276,0.18031
4426.46402,0.17851
4424.53527,0.17706
4422.60653,0.17607
4420.67779,0.17524
4418.74905,0.17436
4416.82030,0.17362
4414.89156,0.17314
4412.96282,0.17282
4411.03408,0.17241
4409.10533,0.17197
4407.17659,0.17200
4405.24785,0.17235
4403.31911,0.17252
4401.39036,0.17264
4399.46162,0.17295
4397.53288,0.17309
4395.60414,0.17296
4393.67539,0.17293
4391.74665,0.17286
4389.81791,0.17249
4387.88917,0.17216
4385.96043,0.17201
4384.03168,0.17181
4382.10294,0.17165
4380.17420,0.17162
4378.24546,0.17142
4376.31671,0.17073
4374.38797,0.16997
4372.45923,0.16973
4370.53049,0.16965
4368.60174,0.16900
4366.67300,0.16796
4364.74426,0.16718
4362.81552,0.16686
4360.88677,0.16670
4358.95803,0.16654
4357.02929,0.16653
4355.10055,0.16661
4353.17180,0.16643
4351.24306,0.16612
4349.31432,0.16618
4347.38558,0.16650
4345.45683,0.16652
4343.52809,0.16618
4341.59935,0.16603
4339.67061,0.16624
4337.74186,0.16634
4335.81312,0.16616
4333.88438,0.16610
4331.95564,0.16625
4330.02689,0.16617
4328.09815,0.16588
4326.16941,0.16585
4324.24067,0.16617
4322.31192,0.16655
4320.38318,0.16707
4318.45444,0.16779
4316.52570,0.16868
4314.59695,0.16953
4312.66821,0.17011
4310.73947,0.17056
4308.81073,0.17118
4306.88198,0.17167
4304.95324,0.17178
4303.02450,0.17177
4301.09576,0.17173
4299.16701,0.17166
4297.23827,0.17167
4295.30953,0.17165
4293.38079,0.17158
4291.45204,0.17163
4289.52330,0.17168
4287.59456,0.17169
4285.66582,0.17182
4283.73707,0.17188
4281.80833,0.17171
4279.87959,0.17154
4277.95085,0.17145
4276.02210,0.17137
4274.09336,0.17145
4272.16462,0.17176
4270.23588,0.17221
4268.30713,0.17262
4266.37839,0.17278
4264.44965,0.17280
4262.52091,0.17283
4260.59216,0.17304
4258.66342,0.17374
4256.73468,0.17474
4254.80594,0.17539
4252.87719,0.17564
4250.94845,0.17585
4249.01971,0.17611
4247.09097,0.17616
4245.16222,0.17613
4243.23348,0.17642
4241.30474,0.17699
4239.37600,0.17753
4237.44725,0.17789
4235.51851,0.17823
4233.58977,0.17877
4231.66103,0.17936
4229.73228,0.17968
4227.80354,0.17990
4225.87480,0.18039
4223.94606,0.18084
4222.01731,0.18101
4220.08857,0.18146
4218.15983,0.18233
4216.23109,0.18290
4214.30234,0.18295
4212.37360,0.18289
4210.44486,0.18293
4208.51612,0.18299
4206.58737,0.18292
4204.65863,0.18276
4202.72989,0.18280
4200.80115,0.18314
4198.87240,0.18345
4196.94366,0.18345
4195.01492,0.18356
4193.08618,0.18394
4191.15743,0.18402
4189.22869,0.18370
4187.29995,0.18330
4185.37121,0.18282
4183.44246,0.18249
4181.51372,0.18268
4179.58498,0.18314
4177.65624,0.18353
4175.72749,0.18378
4173.79875,0.18369
4171.87001,0.18350
4169.94127,0.18377
4168.01252,0.18416
4166.08378,0.18390
4164.15504,0.18324
4162.22630,0.18280
4160.29755,0.18264
4158.36881,0.18266
4156.44007,0.18272
4154.51133,0.18261
4152.58258,0.18235
4150.65384,0.18204
4148.72510,0.18185
4146.79636,0.18177
4144.86761,0.18167
4142.93887,0.18141
4141.01013,0.18110
4139.08139,0.18096
4137.15264,0.18078
4135.22390,0.18024
4133.29516,0.17958
4131.36642,0.17894
4129.43767,0.17834
4127.50893,0.17795
4125.58019,0.17785
4123.65145,0.17772
4121.72270,0.17710
4119.79396,0.17611
4117.86522,0.17534
4115.93648,0.17498
4114.00773,0.17466
4112.07899,0.17413
4110.15025,0.17361
4108.22151,0.17322
4106.29276,0.17280
4104.36402,0.17235
4102.43528,0.17200
4100.50654,0.17168
4098.57779,0.17108
4096.64905,0.17009
4094.72031,0.16900
4092.79157,0.16803
4090.86282,0.16702
4088.93408,0.16601
4087.00534,0.16538
4085.07660,0.16487
4083.14785,0.16405
4081.21911,0.16296
4079.29037,0.16163
4077.36163,0.16028
4075.43288,0.15912
4073.50414,0.15799
4071.57540,0.15676
4069.64666,0.15548
4067.71791,0.15459
4065.78917,0.15421
4063.86043,0.15371
4061.93169,0.15295
4060.00294,0.15233
4058.07420,0.15176
4056.14546,0.15113
4054.21672,0.15069
4052.28797,0.15058
4050.35923,0.15053
4048.43049,0.15013
4046.50175,0.14959
4044.57300,0.14938
4042.64426,0.14944
4040.71552,0.14957
4038.78678,0.14945
4036.85803,0.14894
4034.92929,0.14842
4033.00055,0.14822
4031.07181,0.14809
4029.14306,0.14779
4027.21432,0.14747
4025.28558,0.14744
4023.35684,0.14764
4021.42809,0.14770
4019.49935,0.14757
4017.57061,0.14761
4015.64187,0.14777
4013.71312,0.14787
4011.78438,0.14800
4009.85564,0.14827
4007.92690,0.14858
4005.99815,0.14877
4004.06941,0.14883
4002.14067,0.14905
4000.21193,0.14941
3998.28318,0.14950
3996.35444,0.14941
3994.42570,0.14974
3992.49696,0.15047
3990.56821,0.15101
3988.63947,0.15132
3986.71073,0.15176
3984.78199,0.15220
3982.85324,0.15255
3980.92450,0.15317
3978.99576,0.15406
3977.06702,0.15478
3975.13827,0.15518
3973.20953,0.15548
3971.28079,0.15578
3969.35205,0.15627
3967.42330,0.15704
3965.49456,0.15786
3963.56582,0.15848
3961.63708,0.15900
3959.70833,0.15959
3957.77959,0.16022
3955.85085,0.16109
3953.92211,0.16222
3951.99336,0.16319
3950.06462,0.16365
3948.13588,0.16386
3946.20714,0.16437
3944.27839,0.16504
3942.34965,0.16550
3940.42091,0.16601
3938.49217,0.16683
3936.56342,0.16770
3934.63468,0.16832
3932.70594,0.16862
3930.77720,0.16885
3928.84845,0.16939
3926.91971,0.17026
3924.99097,0.17112
3923.06223,0.17178
3921.13348,0.17239
3919.20474,0.17298
3917.27600,0.17342
3915.34726,0.17386
3913.41851,0.17450
3911.48977,0.17518
3909.56103,0.17573
3907.63229,0.17634
3905.70354,0.17703
3903.77480,0.17745
3901.84606,0.17790
3899.91732,0.17874
3897.98857,0.17961
3896.05983,0.18023
3894.13109,0.18063
3892.20235,0.18067
3890.27360,0.18060
3888.34486,0.18090
3886.41612,0.18143
3884.48738,0.18179
3882.55863,0.18192
3880.62989,0.18203
3878.70115,0.18235
3876.77241,0.18280
3874.84366,0.18336
3872.91492,0.18411
3870.98618,0.18488
3869.05744,0.18561
3867.12869,0.18646
3865.19995,0.18718
3863.27121,0.18747
3861.34247,0.18780
3859.41372,0.18840
3857.48498,0.18899
3855.55624,0.18989
3853.62750,0.19123
3851.69875,0.19213
3849.77001,0.19234
3847.84127,0.19242
3845.91253,0.19268
3843.98378,0.19319
3842.05504,0.19391
3840.12630,0.19444
3838.19756,0.19460
3836.26882,0.19469
3834.34007,0.19484
3832.41133,0.19490
3830.48259,0.19501
3828.55385,0.19533
3826.62510,0.19563
3824.69636,0.19586
3822.76762,0.19608
3820.83888,0.19610
3818.91013,0.19605
3816.98139,0.19602
3815.05265,0.19583
3813.12391,0.19559
3811.19516,0.19534
3809.26642,0.19510
3807.33768,0.19509
3805.40894,0.19543
3803.48019,0.19591
3801.55145,0.19620
3799.62271,0.19620
3797.69397,0.19594
3795.76522,0.19545
3793.83648,0.19511
3791.90774,0.19514
3789.97900,0.19537
3788.05025,0.19563
3786.12151,0.19561
3784.19277,0.19521
3782.26403,0.19490
3780.33528,0.19460
3778.40654,0.19404
3776.47780,0.19364
3774.54906,0.19354
3772.62031,0.19337
3770.69157,0.19317
3768.76283,0.19302
3766.83409,0.19283
3764.90534,0.19243
3762.97660,0.19184
3761.04786,0.19133
3759.11912,0.19103
3757.19037,0.19079
3755.26163,0.19050
3753.33289,0.18998
3751.40415,0.18913
3749.47540,0.18843
3747.54666,0.18816
3745.61792,0.18777
3743.68918,0.18698
3741.76043,0.18621
3739.83169,0.18551
3737.90295,0.18456
3735.97421,0.18342
3734.04546,0.18263
3732.11672,0.18218
3730.18798,0.18158
3728.25924,0.18061
3726.33049,0.17929
3724.40175,0.17774
3722.47301,0.17617
3720.54427,0.17461
3718.61552,0.17313
3716.68678,0.17183
3714.75804,0.17058
3712.82930,0.16917
3710.90055,0.16738
3708.97181,0.16518
3707.04307,0.16286
3705.11433,0.16063
3703.18558,0.15828
3701.25684,0.15550
3699.32810,0.15242
3697.39936,0.14920
3695.47061,0.14607
3693.54187,0.14302
3691.61313,0.13947
3689.68439,0.13500
3687.75564,0.13010
3685.82690,0.12566
3683.89816,0.12149
3681.96942,0.11667
3680.04067,0.11038
3678.11193,0.10327
3676.18319,0.09820
3674.25445,0.09700
3672.32570,0.09688
3670.39696,0.09518
3668.46822,0.09222
3666.53948,0.08935
3664.61073,0.08661
3662.68199,0.08349
3660.75325,0.08045
3658.82451,0.07832
3656.89576,0.07664
3654.96702,0.07470
3653.03828,0.07281
3651.10954,0.07101
3649.18079,0.06910
3647.25205,0.06746
3645.32331,0.06633
3643.39457,0.06533
3641.46582,0.06403
3639.53708,0.06274
3637.60834,0.06185
3635.67960,0.06106
3633.75085,0.06016
3631.82211,0.05943
3629.89337,0.05881
3627.96463,0.05784
3626.03588,0.05699
3624.10714,0.05667
3622.17840,0.05629
3620.24966,0.05555
3618.32091,0.05504
3616.39217,0.05501
3614.46343,0.05478
3612.53469,0.05401
3610.60594,0.05320
3608.67720,0.05267
3606.74846,0.05227
3604.81972,0.05200
3602.89097,0.05193
3600.96223,0.05190
3599.03349,0.05163
3597.10475,0.05113
3595.17600,0.05066
3593.24726,0.05049
3591.31852,0.05072
3589.38978,0.05100
3587.46103,0.05086
3585.53229,0.05048
3583.60355,0.05021
3581.67481,0.05003
3579.74606,0.04969
3577.81732,0.04920
3575.88858,0.04895
3573.95984,0.04897
3572.03109,0.04907
3570.10235,0.04932
3568.17361,0.04932
3566.24487,0.04867
3564.31612,0.04814
3562.38738,0.04825
3560.45864,0.04843
3558.52990,0.04832
3556.60115,0.04808
3554.67241,0.04785
3552.74367,0.04762
3550.81493,0.04758
3548.88618,0.04787
3546.95744,0.04799
3545.02870,0.04756
3543.09996,0.04709
3541.17121,0.04707
3539.24247,0.04722
3537.31373,0.04723
3535.38499,0.04722
3533.45624,0.04739
3531.52750,0.04750
3529.59876,0.04721
3527.67002,0.04683
3525.74127,0.04678
3523.81253,0.04684
3521.88379,0.04692
3519.95505,0.04716
3518.02630,0.04727
3516.09756,0.04715
3514.16882,0.04702
3512.24008,0.04685
3510.31133,0.04667
3508.38259,0.04656
3506.45385,0.04640
3504.52511,0.04646
3502.59636,0.04698
3500.66762,0.04736
3498.73888,0.04696
3496.81014,0.04627
3494.88139,0.04609
3492.95265,0.04647
3491.02391,0.04681
3489.09517,0.04672
3487.16642,0.04661
3485.23768,0.04684
3483.30894,0.04714
3481.38020,0.04726
3479.45145,0.04735
3477.52271,0.04746
3475.59397,0.04739
3473.66523,0.04714
3471.73648,0.04687
3469.80774,0.04672
3467.87900,0.04677
3465.95026,0.04671
3464.02151,0.04642
3462.09277,0.04639
3460.16403,0.04671
3458.23529,0.04695
3456.30654,0.04707
3454.37780,0.04707
3452.44906,0.04693
3450.52032,0.04697
3448.59157,0.04719
3446.66283,0.04718
3444.73409,0.04702
3442.80535,0.04715
3440.87660,0.04743
3438.94786,0.04753
3437.01912,0.04742
3435.09038,0.04725
3433.16163,0.04700
3431.23289,0.04672
3429.30415,0.04663
3427.37541,0.04672
3425.44666,0.04681
3423.51792,0.04684
3421.58918,0.04680
3419.66044,0.04669
3417.73169,0.04665
3415.80295,0.04678
3413.87421,0.04703
3411.94547,0.04718
3410.01672,0.04724
3408.08798,0.04725
3406.15924,0.04724
3404.23050,0.04735
3402.30175,0.04751
3400.37301,0.04757
3398.44427,0.04749
3396.51553,0.04733
3394.58678,0.04725
3392.65804,0.04732
3390.72930,0.04740
3388.80056,0.04737
3386.87181,0.04722
3384.94307,0.04710
3383.01433,0.04717
3381.08559,0.04740
3379.15684,0.04742
3377.22810,0.04714
3375.29936,0.04688
3373.37062,0.04695
3371.44187,0.04732
3369.51313,0.04763
3367.58439,0.04753
3365.65565,0.04704
3363.72690,0.04669
3361.79816,0.04698
3359.86942,0.04761
3357.94068,0.04783
3356.01193,0.04758
3354.08319,0.04740
3352.15445,0.04745
3350.22571,0.04743
3348.29696,0.04726
3346.36822,0.04724
3344.43948,0.04736
3342.51074,0.04738
3340.58199,0.04747
3338.65325,0.04763
3336.72451,0.04765
3334.79577,0.04765
3332.86702,0.04759
3330.93828,0.04729
3329.00954,0.04699
3327.08080,0.04694
3325.15205,0.04703
3323.22331,0.04719
3321.29457,0.04733
3319.36583,0.04728
3317.43708,0.04719
3315.50834,0.04730
3313.57960,0.04748
3311.65086,0.04748
3309.72211,0.04754
3307.79337,0.04767
3305.86463,0.04761
3303.93589,0.04755
3302.00714,0.04761
3300.07840,0.04761
3298.14966,0.04779
3296.22092,0.04821
3294.29217,0.04830
3292.36343,0.04797
3290.43469,0.04777
3288.50595,0.04797
3286.57721,0.04827
3284.64846,0.04827
3282.71972,0.04793
3280.79098,0.04740
3278.86224,0.04711
3276.93349,0.04743
3275.00475,0.04810
3273.07601,0.04862
3271.14727,0.04873
3269.21852,0.04852
3267.28978,0.04842
3265.36104,0.04857
3263.43230,0.04868
3261.50355,0.04858
3259.57481,0.04842
3257.64607,0.04851
3255.71733,0.04886
3253.78858,0.04906
3251.85984,0.04887
3249.93110,0.04855
3248.00236,0.04838
3246.07361,0.04839
3244.14487,0.04858
3242.21613,0.04880
3240.28739,0.04892
3238.35864,0.04899
3236.42990,0.04896
3234.50116,0.04879
3232.57242,0.04884
3230.64367,0.04903
3228.71493,0.04904
3226.78619,0.04914
3224.85745,0.04944
3222.92870,0.04954
3220.99996,0.04936
3219.07122,0.04923
3217.14248,0.04932
3215.21373,0.04945
3213.28499,0.04951
3211.35625,0.04968
3209.42751,0.04999
3207.49876,0.05016
3205.57002,0.04995
3203.64128,0.04955
3201.71254,0.04940
3199.78379,0.04952
3197.85505,0.04949
3195.92631,0.04936
3193.99757,0.04950
3192.06882,0.04984
3190.14008,0.05014
3188.21134,0.05016
3186.28260,0.04982
3184.35385,0.04947
3182.42511,0.04961
3180.49637,0.05018
3178.56763,0.05056
3176.63888,0.05076
3174.71014,0.05094
3172.78140,0.05076
3170.85266,0.05046
3168.92391,0.05052
3166.99517,0.05080
3165.06643,0.05098
3163.13769,0.05099
3161.20894,0.05085
3159.28020,0.05082
3157.35146,0.05113
3155.42272,0.05152
3153.49397,0.05167
3151.56523,0.05177
3149.63649,0.05202
3147.70775,0.05217
3145.77900,0.05204
3143.85026,0.05181
3141.92152,0.05167
3139.99278,0.05171
3138.06403,0.05185
3136.13529,0.05202
3134.20655,0.05213
3132.27781,0.05224
3130.34906,0.05240
3128.42032,0.05243
3126.49158,0.05243
3124.56284,0.05262
3122.63409,0.05277
3120.70535,0.05275
3118.77661,0.05276
3116.84787,0.05274
3114.91912,0.05263
3112.99038,0.05272
3111.06164,0.05313
3109.13290,0.05349
3107.20415,0.05356
3105.27541,0.05337
3103.34667,0.05305
3101.41793,0.05285
3099.48918,0.05294
3097.56044,0.05291
3095.63170,0.05252
3093.70296,0.05233
3091.77421,0.05253
3089.84547,0.05272
3087.91673,0.05280
3085.98799,0.05284
3084.05924,0.05276
3082.13050,0.05262
3080.20176,0.05263
3078.27302,0.05273
3076.34427,0.05261
3074.41553,0.05240
3072.48679,0.05244
3070.55805,0.05253
3068.62930,0.05241
3066.70056,0.05224
3064.77182,0.05230
3062.84308,0.05252
3060.91433,0.05267
3058.98559,0.05268
3057.05685,0.05260
3055.12811,0.05253
3053.19936,0.05267
3051.27062,0.05307
3049.34188,0.05333
3047.41314,0.05321
3045.48439,0.05298
3043.55565,0.05284
3041.62691,0.05281
3039.69817,0.05287
3037.76942,0.05291
3035.84068,0.05291
3033.91194,0.05286
3031.98320,0.05274
3030.05445,0.05273
3028.12571,0.05271
3026.19697,0.05248
3024.26823,0.05214
3022.33948,0.05182
3020.41074,0.05151
3018.48200,0.05121
3016.55326,0.05095
3014.62451,0.05062
3012.69577,0.05014
3010.76703,0.04963
3008.83829,0.04926
3006.90954,0.04888
3004.98080,0.04841
3003.05206,0.04805
3001.12332,0.04785
2999.19457,0.04761
2997.26583,0.04734
2995.33709,0.04719
2993.40835,0.04722
2991.47960,0.04711
2989.55086,0.04682
2987.62212,0.04655
2985.69338,0.04627
2983.76463,0.04608
2981.83589,0.04621
2979.90715,0.04646
2977.97841,0.04645
2976.04966,0.04627
2974.12092,0.04615
2972.19218,0.04619
2970.26344,0.04642
2968.33469,0.04668
2966.40595,0.04677
2964.47721,0.04668
2962.54847,0.04681
2960.61972,0.04718
2958.69098,0.04726
2956.76224,0.04708
2954.83350,0.04709
2952.90475,0.04720
2950.97601,0.04721
2949.04727,0.04721
2947.11853,0.04725
2945.18978,0.04735
2943.26104,0.04739
2941.33230,0.04738
2939.40356,0.04760
2937.47481,0.04791
2935.54607,0.04808
2933.61733,0.04836
2931.68859,0.04886
2929.75984,0.04922
2927.83110,0.04916
2925.90236,0.04899
2923.97362,0.04916
2922.04487,0.04960
2920.11613,0.05001
2918.18739,0.05030
2916.25865,0.05050
2914.32990,0.05042
2912.40116,0.05001
2910.47242,0.04958
2908.54368,0.04940
2906.61493,0.04940
2904.68619,0.04940
2902.75745,0.04942
2900.82871,0.04954
2898.89996,0.04953
2896.97122,0.04924
2895.04248,0.04895
2893.11374,0.04896
2891.18499,0.04909
2889.25625,0.04917
2887.32751,0.04920
2885.39877,0.04922
2883.47002,0.04924
2881.54128,0.04932
2879.61254,0.04934
2877.68380,0.04922
2875.75505,0.04907
2873.82631,0.04898
2871.89757,0.04908
2869.96883,0.04935
2868.04008,0.04955
2866.11134,0.04949
2864.18260,0.04945
2862.25386,0.04983
2860.32511,0.05042
2858.39637,0.05083
2856.46763,0.05106
2854.53889,0.05120
2852.61014,0.05125
2850.68140,0.05139
2848.75266,0.05169
2846.82392,0.05194
2844.89517,0.05203
2842.96643,0.05215
2841.03769,0.05231
2839.10895,0.05236
2837.18020,0.05234
2835.25146,0.05246
2833.32272,0.05284
2831.39398,0.05332
2829.46523,0.05372
2827.53649,0.05406
2825.60775,0.05442
2823.67901,0.05474
2821.75026,0.05494
2819.82152,0.05498
2817.89278,0.05498
2815.96404,0.05515
2814.03529,0.05548
2812.10655,0.05591
2810.17781,0.05637
2808.24907,0.05690
2806.32032,0.05736
2804.39158,0.05760
2802.46284,0.05779
2800.53410,0.05818
2798.60535,0.05856
2796.67661,0.05869
2794.74787,0.05865
2792.81913,0.05868
2790.89038,0.05897
2788.96164,0.05947
2787.03290,0.05988
2785.10416,0.06004
2783.17541,0.06020
2781.24667,0.06053
2779.31793,0.06096
2777.38919,0.06127
2775.46044,0.06146
2773.53170,0.06169
2771.60296,0.06180
2769.67422,0.06172
2767.74547,0.06166
2765.81673,0.06172
2763.88799,0.06190
2761.95925,0.06218
2760.03050,0.06244
2758.10176,0.06273
2756.17302,0.06298
2754.24428,0.06293
2752.31553,0.06278
2750.38679,0.06289
2748.45805,0.06319
2746.52931,0.06357
2744.60056,0.06396
2742.67182,0.06404
2740.74308,0.06376
2738.81434,0.06358
2736.88560,0.06377
2734.95685,0.06411
2733.02811,0.06439
2731.09937,0.06453
2729.17063,0.06459
2727.24188,0.06484
2725.31314,0.06528
2723.38440,0.06558
2721.45566,0.06578
2719.52691,0.06614
2717.59817,0.06663
2715.66943,0.06702
2713.74069,0.06725
2711.81194,0.06748
2709.88320,0.06788
2707.95446,0.06836
2706.02572,0.06872
2704.09697,0.06891
2702.16823,0.06906
2700.23949,0.06928
2698.31075,0.06969
2696.38200,0.07026
2694.45326,0.07076
2692.52452,0.07105
2690.59578,0.07125
2688.66703,0.07158
2686.73829,0.07191
2684.80955,0.07218
2682.88081,0.07260
2680.95206,0.07311
2679.02332,0.07351
2677.09458,0.07376
2675.16584,0.07385
2673.23709,0.07384
2671.30835,0.07379
2669.37961,0.07376
2667.45087,0.07382
2665.52212,0.07402
2663.59338,0.07437
2661.66464,0.07471
2659.73590,0.07502
2657.80715,0.07530
2655.87841,0.07556
2653.94967,0.07583
2652.02093,0.07614
2650.09218,0.07635
2648.16344,0.07647
2646.23470,0.07666
2644.30596,0.07684
2642.37721,0.07697
2640.44847,0.07733
2638.51973,0.07782
2636.59099,0.07811
2634.66224,0.07824
2632.73350,0.07846
2630.80476,0.07889
2628.87602,0.07930
2626.94727,0.07933
2625.01853,0.07908
2623.08979,0.07906
2621.16105,0.07947
2619.23230,0.07988
2617.30356,0.07996
2615.37482,0.07997
2613.44608,0.08019
2611.51733,0.08040
2609.58859,0.08046
2607.65985,0.08058
2605.73111,0.08077
2603.80236,0.08095
2601.87362,0.08120
2599.94488,0.08153
2598.01614,0.08183
2596.08739,0.08198
2594.15865,0.08197
2592.22991,0.08208
2590.30117,0.08242
2588.37242,0.08271
2586.44368,0.08286
2584.51494,0.08300
2582.58620,0.08314
2580.65745,0.08326
2578.72871,0.08348
2576.79997,0.08380
2574.87123,0.08405
2572.94248,0.08420
2571.01374,0.08425
2569.08500,0.08417
2567.15626,0.08411
2565.22751,0.08420
2563.29877,0.08442
2561.37003,0.08479
2559.44129,0.08507
2557.51254,0.08510
2555.58380,0.08509
2553.65506,0.08527
2551.72632,0.08556
2549.79757,0.08570
2547.86883,0.08570
2545.94009,0.08582
2544.01135,0.08604
2542.08260,0.08616
2540.15386,0.08633
2538.22512,0.08674
2536.29638,0.08712
2534.36763,0.08725
2532.43889,0.08737
2530.51015,0.08760
2528.58141,0.08778
2526.65266,0.08797
2524.72392,0.08833
2522.79518,0.08874
2520.86644,0.08895
2518.93769,0.08909
2517.00895,0.08945
2515.08021,0.08997
2513.15147,0.09034
2511.22272,0.09057
2509.29398,0.09081
2507.36524,0.09109
2505.43650,0.09135
2503.50775,0.09166
2501.57901,0.09208
2499.65027,0.09245
2497.72153,0.09267
2495.79278,0.09273
2493.86404,0.09276
2491.93530,0.09300
2490.00656,0.09339
2488.07781,0.09374
2486.14907,0.09407
2484.22033,0.09435
2482.29159,0.09470
2480.36284,0.09519
2478.43410,0.09556
2476.50536,0.09574
2474.57662,0.09599
2472.64787,0.09631
2470.71913,0.09665
2468.79039,0.09697
2466.86165,0.09722
2464.93290,0.09742
2463.00416,0.09763
2461.07542,0.09794
2459.14668,0.09828
2457.21793,0.09866
2455.28919,0.09909
2453.36045,0.09940
2451.43171,0.09958
2449.50296,0.09974
2447.57422,0.09982
2445.64548,0.09992
2443.71674,0.10021
2441.78799,0.10048
2439.85925,0.10069
2437.93051,0.10102
2436.00177,0.10137
2434.07302,0.10164
2432.14428,0.10194
2430.21554,0.10217
2428.28680,0.10223
2426.35805,0.10230
2424.42931,0.10246
2422.50057,0.10277
2420.57183,0.10321
2418.64308,0.10368
2416.71434,0.10421
2414.78560,0.10469
2412.85686,0.10497
2410.92811,0.10516
2408.99937,0.10543
2407.07063,0.10570
2405.14189,0.10599
2403.21314,0.10633
2401.28440,0.10665
2399.35566,0.10695
2397.42692,0.10715
2395.49817,0.10724
2393.56943,0.10740
2391.64069,0.10762
2389.71195,0.10775
2387.78320,0.10784
2385.85446,0.10793
2383.92572,0.10807
2381.99698,0.10830
2380.06823,0.10859
2378.13949,0.10890
2376.21075,0.10914
2374.28201,0.10929
2372.35326,0.10937
2370.42452,0.10933
2368.49578,0.10930
2366.56704,0.10946
2364.63829,0.10975
2362.70955,0.11018
2360.78081,0.11066
2358.85207,0.11084
2356.92332,0.11079
2354.99458,0.11085
2353.06584,0.11111
2351.13710,0.11140
2349.20835,0.11165
2347.27961,0.11188
2345.35087,0.11206
2343.42213,0.11215
2341.49338,0.11225
2339.56464,0.11245
2337.63590,0.11258
2335.70716,0.11261
2333.77841,0.11268
2331.84967,0.11273
2329.92093,0.11276
2327.99219,0.11287
2326.06344,0.11310
2324.13470,0.11337
2322.20596,0.11353
2320.27722,0.11363
2318.34847,0.11385
2316.41973,0.11415
2314.49099,0.11437
2312.56225,0.11456
2310.63350,0.11479
2308.70476,0.11490
2306.77602,0.11482
2304.84728,0.11474
2302.91853,0.11489
2300.98979,0.11515
2299.06105,0.11533
2297.13231,0.11554
2295.20356,0.11591
2293.27482,0.11623
2291.34608,0.11627
2289.41734,0.11621
2287.48859,0.11633
2285.55985,0.11666
2283.63111,0.11705
2281.70237,0.11727
2279.77362,0.11726
2277.84488,0.11725
2275.91614,0.11739
2273.98740,0.11756
2272.05865,0.11765
2270.12991,0.11764
2268.20117,0.11753
2266.27243,0.11732
2264.34368,0.11710
2262.41494,0.11703
2260.48620,0.11702
2258.55746,0.11697
2256.62871,0.11688
2254.69997,0.11672
2252.77123,0.11646
2250.84249,0.11625
2248.91374,0.11617
2246.98500,0.11620
2245.05626,0.11629
2243.12752,0.11642
2241.19877,0.11652
2239.27003,0.11648
2237.34129,0.11639
2235.41255,0.11641
2233.48380,0.11645
2231.55506,0.11635
2229.62632,0.11615
2227.69758,0.11618
2225.76883,0.11641
2223.84009,0.11653
2221.91135,0.11647
2219.98261,0.11642
2218.05386,0.11644
2216.12512,0.11641
2214.19638,0.11631
2212.26764,0.11625
2210.33889,0.11623
2208.41015,0.11624
2206.48141,0.11622
2204.55267,0.11612
2202.62392,0.11593
2200.69518,0.11574
2198.76644,0.11553
2196.83770,0.11523
2194.90895,0.11483
2192.98021,0.11430
2191.05147,0.11370
2189.12273,0.11326
2187.19399,0.11297
2185.26524,0.11260
2183.33650,0.11211
2181.40776,0.11151
2179.47902,0.11086
2177.55027,0.11032
2175.62153,0.10989
2173.69279,0.10943
2171.76405,0.10890
2169.83530,0.10830
2167.90656,0.10763
2165.97782,0.10702
2164.04908,0.10659
2162.12033,0.10623
2160.19159,0.10586
2158.26285,0.10553
2156.33411,0.10511
2154.40536,0.10461
2152.47662,0.10418
2150.54788,0.10380
2148.61914,0.10351
2146.69039,0.10327
2144.76165,0.10291
2142.83291,0.10244
2140.90417,0.10208
2138.97542,0.10188
2137.04668,0.10173
2135.11794,0.10157
2133.18920,0.10144
2131.26045,0.10135
2129.33171,0.10125
2127.40297,0.10106
2125.47423,0.10077
2123.54548,0.10044
2121.61674,0.10020
2119.68800,0.10008
2117.75926,0.09997
2115.83051,0.09986
2113.90177,0.09980
2111.97303,0.09967
2110.04429,0.09954
2108.11554,0.09960
2106.18680,0.09961
2104.25806,0.09937
2102.32932,0.09911
2100.40057,0.09905
2098.47183,0.09909
2096.54309,0.09908
2094.61435,0.09900
2092.68560,0.09893
2090.75686,0.09899
2088.82812,0.09911
2086.89938,0.09914
2084.97063,0.09905
2083.04189,0.09889
2081.11315,0.09874
2079.18441,0.09866
2077.25566,0.09871
2075.32692,0.09886
2073.39818,0.09884
2071.46944,0.09856
2069.54069,0.09828
2067.61195,0.09825
2065.68321,0.09838
2063.75447,0.09843
2061.82572,0.09833
2059.89698,0.09826
2057.96824,0.09841
2056.03950,0.09867
2054.11075,0.09880
2052.18201,0.09885
2050.25327,0.09895
2048.32453,0.09911
2046.39578,0.09932
2044.46704,0.09947
2042.53830,0.09947
2040.60956,0.09944
2038.68081,0.09943
2036.75207,0.09941
2034.82333,0.09950
2032.89459,0.09975
2030.96584,0.09987
2029.03710,0.09978
2027.10836,0.09976
2025.17962,0.09985
2023.25087,0.09989
2021.32213,0.09998
2019.39339,0.10007
2017.46465,0.10016
2015.53590,0.10040
2013.60716,0.10071
2011.67842,0.10093
2009.74968,0.10106
2007.82093,0.10119
2005.89219,0.10141
2003.96345,0.10176
2002.03471,0.10220
2000.10596,0.10257
1998.17722,0.10266
1996.24848,0.10263
1994.31974,0.10278
1992.39099,0.10305
1990.46225,0.10328
1988.53351,0.10336
1986.60477,0.10332
1984.67602,0.10329
1982.74728,0.10344
1980.81854,0.10370
1978.88980,0.10373
1976.96105,0.10344
1975.03231,0.10328
1973.10357,0.10340
1971.17483,0.10356
1969.24608,0.10352
1967.31734,0.10320
1965.38860,0.10283
1963.45986,0.10277
1961.53111,0.10294
1959.60237,0.10306
1957.67363,0.10307
1955.74489,0.10305
1953.81614,0.10297
1951.88740,0.10279
1949.95866,0.10272
1948.02992,0.10303
1946.10117,0.10361
1944.17243,0.10418
1942.24369,0.10453
1940.31495,0.10470
1938.38620,0.10487
1936.45746,0.10509
1934.52872,0.10545
1932.59998,0.10591
1930.67123,0.10624
1928.74249,0.10636
1926.81375,0.10658
1924.88501,0.10689
1922.95626,0.10703
1921.02752,0.10701
1919.09878,0.10695
1917.17004,0.10691
1915.24129,0.10701
1913.31255,0.10718
1911.38381,0.10725
1909.45507,0.10729
1907.52632,0.10740
1905.59758,0.10747
1903.66884,0.10740
1901.74010,0.10718
1899.81135,0.10688
1897.88261,0.10664
1895.95387,0.10651
1894.02513,0.10642
1892.09638,0.10628
1890.16764,0.10603
1888.23890,0.10568
1886.31016,0.10537
1884.38141,0.10521
1882.45267,0.10506
1880.52393,0.10479
1878.59519,0.10446
1876.66644,0.10418
1874.73770,0.10385
1872.80896,0.10348
1870.88022,0.10312
1868.95147,0.10266
1867.02273,0.10205
1865.09399,0.10138
1863.16525,0.10078
1861.23650,0.10027
1859.30776,0.09971
1857.37902,0.09900
1855.45028,0.09812
1853.52153,0.09718
1851.59279,0.09625
1849.66405,0.09532
1847.73531,0.09440
1845.80656,0.09339
1843.87782,0.09225
1841.94908,0.09120
1840.02034,0.09017
1838.09159,0.08899
1836.16285,0.08780
1834.23411,0.08667
1832.30537,0.08544
1830.37662,0.08408
1828.44788,0.08265
1826.51914,0.08121
1824.59040,0.07972
1822.66165,0.07830
1820.73291,0.07698
1818.80417,0.07559
1816.87543,0.07406
1814.94668,0.07250
1813.01794,0.07112
1811.08920,0.06988
1809.16046,0.06856
1807.23171,0.06713
1805.30297,0.06561
1803.37423,0.06401
1801.44549,0.06228
1799.51674,0.06047
1797.58800,0.05885
1795.65926,0.05749
1793.73052,0.05599
1791.80177,0.05426
1789.87303,0.05266
1787.94429,0.05125
1786.01555,0.04975
1784.08680,0.04818
1782.15806,0.04662
1780.22932,0.04505
1778.30058,0.04349
1776.37183,0.04194
1774.44309,0.04038
1772.51435,0.03883
1770.58561,0.03736
1768.65686,0.03608
1766.72812,0.03498
1764.79938,0.03403
1762.87064,0.03307
1760.94189,0.03194
1759.01315,0.03079
1757.08441,0.02975
1755.15567,0.02886
1753.22692,0.02827
1751.29818,0.02827
1749.36944,0.02905
1747.44070,0.03047
1745.51195,0.03240
1743.58321,0.03478
1741.65447,0.03749
1739.72573,0.04059
1737.79698,0.04394
1735.86824,0.04740
1733.93950,0.05112
1732.01076,0.05454
1730.08201,0.05745
1728.15327,0.06011
1726.22453,0.06223
1724.29579,0.06363
1722.36704,0.06452
1720.43830,0.06515
1718.50956,0.06545
1716.58082,0.06527
1714.65207,0.06469
1712.72333,0.06404
1710.79459,0.06349
1708.86585,0.06289
1706.93710,0.06204
1705.00836,0.06117
1703.07962,0.06052
1701.15088,0.05979
1699.22213,0.05901
1697.29339,0.05847
1695.36465,0.05774
1693.43591,0.05700
1691.50716,0.05666
1689.57842,0.05651
1687.64968,0.05629
1685.72094,0.05588
1683.79219,0.05524
1681.86345,0.05476
1679.93471,0.05460
1678.00597,0.05451
1676.07722,0.05431
1674.14848,0.05398
1672.21974,0.05360
1670.29100,0.05324
1668.36225,0.05304
1666.43351,0.05310
1664.50477,0.05309
1662.57603,0.05280
1660.64728,0.05243
1658.71854,0.05217
1656.78980,0.05205
1654.86106,0.05194
1652.93231,0.05160
1651.00357,0.05138
1649.07483,0.05147
1647.14609,0.05154
1645.21735,0.05138
1643.28860,0.05108
1641.35986,0.05087
1639.43112,0.05078
1637.50238,0.05069
1635.57363,0.05064
1633.64489,0.05071
1631.71615,0.05079
1629.78741,0.05073
1627.85866,0.05066
1625.92992,0.05075
1624.00118,0.05081
1622.07244,0.05074
1620.14369,0.05070
1618.21495,0.05066
1616.28621,0.05053
1614.35747,0.05039
1612.42872,0.05019
1610.49998,0.04995
1608.57124,0.04988
1606.64250,0.04989
1604.71375,0.04987
1602.78501,0.04985
1600.85627,0.04975
1598.92753,0.04971
1596.99878,0.04989
1595.07004,0.05021
1593.14130,0.05065
1591.21256,0.05112
1589.28381,0.05129
1587.35507,0.05098
1585.42633,0.05050
1583.49759,0.05025
1581.56884,0.05024
1579.64010,0.05032
1577.71136,0.05059
1575.78262,0.05116
1573.85387,0.05167
1571.92513,0.05191
1569.99639,0.05199
1568.06765,0.05192
1566.13890,0.05168
1564.21016,0.05136
1562.28142,0.05105
1560.35268,0.05064
1558.42393,0.04998
1556.49519,0.04948
1554.56645,0.04923
1552.63771,0.04910
1550.70896,0.04908
1548.78022,0.04914
1546.85148,0.04912
1544.92274,0.04892
1542.99399,0.04856
1541.06525,0.04810
1539.13651,0.04768
1537.20777,0.04755
1535.27902,0.04755
1533.35028,0.04754
1531.42154,0.04754
1529.49280,0.04754
1527.56405,0.04748
1525.63531,0.04735
1523.70657,0.04713
1521.77783,0.04671
1519.84908,0.04617
1517.92034,0.04584
1515.99160,0.04568
1514.06286,0.04559
1512.13411,0.04563
1510.20537,0.04590
1508.27663,0.04635
1506.34789,0.04668
1504.41914,0.04678
1502.49040,0.04687
1500.56166,0.04694
1498.63292,0.04684
1496.70417,0.04648
1494.77543,0.04607
1492.84669,0.04582
1490.91795,0.04555
1488.98920,0.04512
1487.06046,0.04467
1485.13172,0.04419
1483.20298,0.04354
1481.27423,0.04283
1479.34549,0.04231
1477.41675,0.04200
1475.48801,0.04195
1473.55926,0.04208
1471.63052,0.04213
1469.70178,0.04218
1467.77304,0.04236
1465.84429,0.04234
1463.91555,0.04202
1461.98681,0.04188
1460.05807,0.04204
1458.12932,0.04223
1456.20058,0.04229
1454.27184,0.04238
1452.34310,0.04271
1450.41435,0.04333
1448.48561,0.04398
1446.55687,0.04440
1444.62813,0.04470
1442.69938,0.04495
1440.77064,0.04517
1438.84190,0.04523
1436.91316,0.04499
1434.98441,0.04474
1433.05567,0.04475
1431.12693,0.04474
1429.19819,0.04443
1427.26944,0.04400
1425.34070,0.04367
1423.41196,0.04338
1421.48322,0.04303
1419.55447,0.04265
1417.62573,0.04235
1415.69699,0.04221
1413.76825,0.04221
1411.83950,0.04240
1409.91076,0.04281
1407.98202,0.04339
1406.05328,0.04390
1404.12453,0.04399
1402.19579,0.04380
1400.26705,0.04366
1398.33831,0.04352
1396.40956,0.04324
1394.48082,0.04288
1392.55208,0.04259
1390.62334,0.04240
1388.69459,0.04229
1386.76585,0.04234
1384.83711,0.04249
1382.90837,0.04257
1380.97962,0.04272
1379.05088,0.04297
1377.12214,0.04317
1375.19340,0.04335
1373.26465,0.04357
1371.33591,0.04372
1369.40717,0.04370
1367.47843,0.04352
1365.54968,0.04328
1363.62094,0.04308
1361.69220,0.04299
1359.76346,0.04302
1357.83471,0.04298
1355.90597,0.04275
1353.97723,0.04247
1352.04849,0.04227
1350.11974,0.04208
1348.19100,0.04186
1346.26226,0.04168
1344.33352,0.04153
1342.40477,0.04132
1340.47603,0.04109
1338.54729,0.04102
1336.61855,0.04097
1334.68980,0.04084
1332.76106,0.04075
1330.83232,0.04070
1328.90358,0.04049
1326.97483,0.04014
1325.04609,0.03986
1323.11735,0.03971
1321.18861,0.03958
1319.25986,0.03942
1317.33112,0.03924
1315.40238,0.03906
1313.47364,0.03893
1311.54489,0.03879
1309.61615,0.03857
1307.68741,0.03834
1305.75867,0.03822
1303.82992,0.03820
1301.90118,0.03822
1299.97244,0.03827
1298.04370,0.03839
1296.11495,0.03857
1294.18621,0.03871
1292.25747,0.03872
1290.32873,0.03865
1288.39998,0.03852
1286.47124,0.03842
1284.54250,0.03851
1282.61376,0.03866
1280.68501,0.03858
1278.75627,0.03835
1276.82753,0.03839
1274.89879,0.03873
1272.97004,0.03925
1271.04130,0.03977
1269.11256,0.04010
1267.18382,0.04025
1265.25507,0.04037
1263.32633,0.04053
1261.39759,0.04074
1259.46885,0.04102
1257.54010,0.04140
1255.61136,0.04187
1253.68262,0.04229
1251.75388,0.04250
1249.82513,0.04265
1247.89639,0.04284
1245.96765,0.04290
1244.03891,0.04280
1242.11016,0.04273
1240.18142,0.04288
1238.25268,0.04322
1236.32394,0.04338
1234.39519,0.04335
1232.46645,0.04344
1230.53771,0.04363
1228.60897,0.04372
1226.68022,0.04377
1224.75148,0.04396
1222.82274,0.04411
1220.89400,0.04409
1218.96525,0.04404
1217.03651,0.04395
1215.10777,0.04380
1213.17903,0.04377
1211.25028,0.04404
1209.32154,0.04443
1207.39280,0.04459
1205.46406,0.04452
1203.53531,0.04461
1201.60657,0.04498
1199.67783,0.04536
1197.74909,0.04574
1195.82034,0.04609
1193.89160,0.04619
1191.96286,0.04613
1190.03412,0.04617
1188.10537,0.04633
1186.17663,0.04665
1184.24789,0.04717
1182.31915,0.04771
1180.39040,0.04801
1178.46166,0.04816
1176.53292,0.04838
1174.60418,0.04867
1172.67543,0.04895
1170.74669,0.04946
1168.81795,0.05032
1166.88921,0.05124
1164.96046,0.05197
1163.03172,0.05259
1161.10298,0.05318
1159.17424,0.05370
1157.24549,0.05432
1155.31675,0.05520
1153.38801,0.05593
1151.45927,0.05646
1149.53052,0.05704
1147.60178,0.05737
1145.67304,0.05732
1143.74430,0.05737
1141.81555,0.05744
1139.88681,0.05703
1137.95807,0.05652
1136.02933,0.05645
1134.10058,0.05655
1132.17184,0.05635
1130.24310,0.05595
1128.31436,0.05556
1126.38561,0.05527
1124.45687,0.05518
1122.52813,0.05517
1120.59939,0.05529
1118.67064,0.05582
1116.74190,0.05654
1114.81316,0.05709
1112.88442,0.05732
1110.95567,0.05736
1109.02693,0.05761
1107.09819,0.05833
1105.16945,0.05912
1103.24070,0.05952
1101.31196,0.05964
1099.38322,0.05970
1097.45448,0.05966
1095.52574,0.05947
1093.59699,0.05932
1091.66825,0.05942
1089.73951,0.05958
1087.81077,0.05967
1085.88202,0.05971
1083.95328,0.05955
1082.02454,0.05921
1080.09580,0.05902
1078.16705,0.05924
1076.23831,0.05960
1074.30957,0.05992
1072.38083,0.06047
1070.45208,0.06121
1068.52334,0.06197
1066.59460,0.06269
1064.66586,0.06321
1062.73711,0.06361
1060.80837,0.06404
1058.87963,0.06444
1056.95089,0.06463
1055.02214,0.06476
1053.09340,0.06511
1051.16466,0.06554
1049.23592,0.06584
1047.30717,0.06618
1045.37843,0.06651
1043.44969,0.06663
1041.52095,0.06666
1039.59220,0.06670
1037.66346,0.06683
1035.73472,0.06718
1033.80598,0.06760
1031.87723,0.06784
1029.94849,0.06811
1028.01975,0.06857
1026.09101,0.06882
1024.16226,0.06882
1022.23352,0.06893
1020.30478,0.06911
1018.37604,0.06919
1016.44729,0.06922
1014.51855,0.06935
1012.58981,0.06954
1010.66107,0.06960
1008.73232,0.06947
1006.80358,0.06930
1004.87484,0.06909
1002.94610,0.06873
1001.01735,0.06844
999.08861,0.06846
997.15987,0.06849
995.23113,0.06826
993.30238,0.06808
991.37364,0.06823
989.44490,0.06865
987.51616,0.06897
985.58741,0.06899
983.65867,0.06893
981.72993,0.06903
979.80119,0.06916
977.87244,0.06912
975.94370,0.06901
974.01496,0.06891
972.08622,0.06882
970.15747,0.06880
968.22873,0.06879
966.29999,0.06871
964.37125,0.06863
962.44250,0.06863
960.51376,0.06861
958.58502,0.06846
956.65628,0.06834
954.72753,0.06831
952.79879,0.06829
950.87005,0.06819
948.94131,0.06802
947.01256,0.06770
945.08382,0.06733
943.15508,0.06718
941.22634,0.06723
939.29759,0.06709
937.36885,0.06663
935.44011,0.06604
933.51137,0.06555
931.58262,0.06520
929.65388,0.06514
927.72514,0.06533
925.79640,0.06549
923.86765,0.06560
921.93891,0.06582
920.01017,0.06604
918.08143,0.06607
916.15268,0.06594
914.22394,0.06569
912.29520,0.06549
910.36646,0.06562
908.43771,0.06582
906.50897,0.06573
904.58023,0.06541
902.65149,0.06515
900.72274,0.06518
898.79400,0.06538
896.86526,0.06562
894.93652,0.06588
893.00777,0.06606
891.07903,0.06612
889.15029,0.06612
887.22155,0.06610
885.29280,0.06615
883.36406,0.06624
881.43532,0.06619
879.50658,0.06603
877.57783,0.06591
875.64909,0.06571
873.72035,0.06519
871.79161,0.06458
869.86286,0.06428
867.93412,0.06415
866.00538,0.06392
864.07664,0.06364
862.14789,0.06353
860.21915,0.06347
858.29041,0.06321
856.36167,0.06292
854.43292,0.06281
852.50418,0.06271
850.57544,0.06252
848.64670,0.06225
846.71795,0.06198
844.78921,0.06184
842.86047,0.06164
840.93173,0.06117
839.00298,0.06076
837.07424,0.06069
835.14550,0.06071
833.21676,0.06059
831.28801,0.06048
829.35927,0.06054
827.43053,0.06088
825.50179,0.06138
823.57304,0.06170
821.64430,0.06175
819.71556,0.06181
817.78682,0.06177
815.85807,0.06138
813.92933,0.06110
812.00059,0.06152
810.07185,0.06236
808.14310,0.06304
806.21436,0.06341
804.28562,0.06380
802.35688,0.06431
800.42813,0.06453
798.49939,0.06426
796.57065,0.06386
794.64191,0.06354
792.71316,0.06315
790.78442,0.06274
788.85568,0.06253
786.92694,0.06242
784.99819,0.06226
783.06945,0.06202
781.14071,0.06169
779.21197,0.06121
777.28322,0.06074
775.35448,0.06043
773.42574,0.06020
771.49700,0.06009
769.56825,0.06020
767.63951,0.06037
765.71077,0.06029
763.78203,0.06013
761.85328,0.06028
759.92454,0.06060
757.99580,0.06056
756.06706,0.06005
754.13831,0.05950
752.20957,0.05935
750.28083,0.05953
748.35209,0.05957
746.42334,0.05926
744.49460,0.05907
742.56586,0.05938
740.63712,0.05978
738.70837,0.05995
736.77963,0.06003
734.85089,0.06034
732.92215,0.06123
730.99340,0.06229
729.06466,0.06274
727.13592,0.06267
725.20718,0.06251
723.27843,0.06241
721.34969,0.06248
719.42095,0.06262
717.49221,0.06270
715.56346,0.06254
713.63472,0.06193
711.70598,0.06121
709.77724,0.06099
707.84849,0.06125
705.91975,0.06153
703.99101,0.06169
702.06227,0.06196
700.13352,0.06233
698.20478,0.06275
696.27604,0.06348
694.34730,0.06448
692.41855,0.06548
690.48981,0.06667
688.56107,0.06793
686.63233,0.06883
684.70358,0.06942
682.77484,0.06975
680.84610,0.06992
678.91736,0.07031
676.98861,0.07092
675.05987,0.07106
673.13113,0.07041
671.20239,0.06903
669.27364,0.06684
667.34490,0.06438
665.41616,0.06310
663.48742,0.06322
661.55867,0.06338
659.62993,0.06267
657.70119,0.06132
655.77245,0.05993
653.84370,0.05920
651.91496,0.05924
649.98622,0.05932
648.05748,0.05894
646.12873,0.05839
644.19999,0.05820
642.27125,0.05822
640.34251,0.05780
638.41376,0.05729
636.48502,0.05717
634.55628,0.05670
632.62754,0.05584
630.69879,0.05550
628.77005,0.05572
626.84131,0.05600
624.91257,0.05614
622.98382,0.05611
621.05508,0.05605
619.12634,0.05626
617.19760,0.05700
615.26885,0.05806
613.34011,0.05874
611.41137,0.05842
609.48263,0.05812
607.55388,0.05912
605.62514,0.05996
603.69640,0.05908
601.76766,0.05792
599.83891,0.05826
