7497.02206,0.37411
7495.09332,0.37538
7493.16458,0.37775
7491.23584,0.37836
7489.30709,0.37583
7487.37835,0.37284
7485.44961,0.37446
7483.52087,0.38032
7481.59212,0.38400
7479.66338,0.38273
7477.73464,0.37988
7475.80590,0.37855
7473.87715,0.37836
7471.94841,0.37761
7470.01967,0.37591
7468.09093,0.37514
7466.16218,0.37622
7464.23344,0.37530
7462.30470,0.37065
7460.37596,0.36851
7458.44721,0.37257
7456.51847,0.37925
7454.58973,0.38352
7452.66099,0.38165
7450.73224,0.37608
7448.80350,0.37356
7446.87476,0.37626
7444.94602,0.37941
7443.01727,0.37619
7441.08853,0.36788
7439.15979,0.36320
7437.23105,0.36602
7435.30230,0.37123
7433.37356,0.37272
7431.44482,0.37183
7429.51608,0.37254
7427.58733,0.37262
7425.65859,0.36959
7423.72985,0.36787
7421.80111,0.37128
7419.87236,0.37603
7417.94362,0.37635
7416.01488,0.37218
7414.08614,0.36917
7412.15739,0.37104
7410.22865,0.37402
7408.29991,0.37422
7406.37117,0.37495
7404.44242,0.37768
7402.51368,0.37663
7400.58494,0.37097
7398.65620,0.36610
7396.72745,0.36477
7394.79871,0.36754
7392.86997,0.37077
7390.94123,0.36943
7389.01248,0.36638
7387.08374,0.36593
7385.15500,0.36726
7383.22626,0.36842
7381.29751,0.36721
7379.36877,0.36478
7377.44003,0.36415
7375.51129,0.36338
7373.58254,0.36186
7371.65380,0.36286
7369.72506,0.36581
7367.79632,0.36791
7365.86757,0.36870
7363.93883,0.36892
7362.01009,0.36965
7360.08135,0.37000
7358.15260,0.36762
7356.22386,0.36486
7354.29512,0.36449
7352.36638,0.36561
7350.43763,0.36848
7348.50889,0.37131
7346.58015,0.37028
7344.65141,0.36667
7342.72266,0.36533
7340.79392,0.36820
7338.86518,0.37180
7336.93644,0.37114
7335.00769,0.36613
7333.07895,0.36130
7331.15021,0.35922
7329.22147,0.35881
7327.29272,0.35904
7325.36398,0.35999
7323.43524,0.36113
7321.50650,0.36087
7319.57775,0.35949
7317.64901,0.35958
7315.72027,0.36140
7313.79153,0.36274
7311.86278,0.36269
7309.93404,0.36032
7308.00530,0.35627
7306.07656,0.35722
7304.14781,0.36395
7302.21907,0.36799
7300.29033,0.36641
7298.36159,0.36244
7296.43284,0.36028
7294.50410,0.36159
7292.57536,0.36142
7290.64662,0.35767
7288.71787,0.35508
7286.78913,0.35698
7284.86039,0.36129
7282.93165,0.36234
7281.00290,0.35999
7279.07416,0.35954
7277.14542,0.36020
7275.21668,0.35989
7273.28793,0.35977
7271.35919,0.35852
7269.43045,0.35723
7267.50171,0.35783
7265.57296,0.35696
7263.64422,0.35335
7261.71548,0.34975
7259.78674,0.34950
7257.85799,0.35348
7255.92925,0.35800
7254.00051,0.36040
7252.07177,0.36088
7250.14302,0.36006
7248.21428,0.35986
7246.28554,0.36128
7244.35680,0.36392
7242.42805,0.36584
7240.49931,0.36353
7238.57057,0.35805
7236.64183,0.35457
7234.71308,0.35433
7232.78434,0.35505
7230.85560,0.35610
7228.92686,0.35804
7226.99811,0.36030
7225.06937,0.36093
7223.14063,0.35990
7221.21189,0.36001
7219.28314,0.36075
7217.35440,0.35971
7215.42566,0.35752
7213.49692,0.35604
7211.56817,0.35831
7209.63943,0.36313
7207.71069,0.36368
7205.78195,0.35885
7203.85320,0.35372
7201.92446,0.35186
7199.99572,0.35285
7198.06698,0.35395
7196.13823,0.35470
7194.20949,0.35562
7192.28075,0.35570
7190.35201,0.35443
7188.42326,0.35066
7186.49452,0.34439
7184.56578,0.33958
7182.63704,0.33938
7180.70829,0.34258
7178.77955,0.34796
7176.85081,0.35386
7174.92207,0.35538
7172.99332,0.35343
7171.06458,0.35500
7169.13584,0.35971
7167.20710,0.36046
7165.27835,0.35623
7163.34961,0.35454
7161.42087,0.35848
7159.49213,0.36132
7157.56338,0.35828
7155.63464,0.35167
7153.70590,0.34692
7151.77716,0.34568
7149.84841,0.34410
7147.91967,0.34284
7145.99093,0.34563
7144.06219,0.35025
7142.13344,0.35278
7140.20470,0.35286
7138.27596,0.35178
7136.34722,0.35087
7134.41847,0.35006
7132.48973,0.34722
7130.56099,0.34292
7128.63225,0.34021
7126.70351,0.33879
7124.77476,0.33863
7122.84602,0.34188
7120.91728,0.34564
7118.98854,0.34471
7117.05979,0.33994
7115.13105,0.33619
7113.20231,0.33634
7111.27357,0.33898
7109.34482,0.34076
7107.41608,0.34084
7105.48734,0.34071
7103.55860,0.34074
7101.62985,0.33998
7099.70111,0.33868
7097.77237,0.33777
7095.84363,0.33851
7093.91488,0.34123
7091.98614,0.34219
7090.05740,0.34045
7088.12866,0.33944
7086.19991,0.33846
7084.27117,0.33543
7082.34243,0.33197
7080.41369,0.33078
7078.48494,0.33273
7076.55620,0.33437
7074.62746,0.33283
7072.69872,0.33134
7070.76997,0.33208
7068.84123,0.33169
7066.91249,0.32919
7064.98375,0.32758
7063.05500,0.32791
7061.12626,0.32852
7059.19752,0.32787
7057.26878,0.32637
7055.34003,0.32506
7053.41129,0.32426
7051.48255,0.32358
7049.55381,0.32274
7047.62506,0.32239
7045.69632,0.32216
7043.76758,0.32090
7041.83884,0.31961
7039.91009,0.32054
7037.98135,0.32313
7036.05261,0.32524
7034.12387,0.32627
7032.19512,0.32432
7030.26638,0.31844
7028.33764,0.31236
7026.40890,0.30891
7024.48015,0.30786
7022.55141,0.30897
7020.62267,0.31064
7018.69393,0.31051
7016.76518,0.30924
7014.83644,0.30901
7012.90770,0.31079
7010.97896,0.31332
7009.05021,0.31442
7007.12147,0.31465
7005.19273,0.31559
7003.26399,0.31647
7001.33524,0.31437
6999.40650,0.30968
6997.47776,0.30839
6995.54902,0.31062
6993.62027,0.31076
6991.69153,0.31011
6989.76279,0.31107
6987.83405,0.31141
6985.90530,0.30931
6983.97656,0.30511
6982.04782,0.30231
6980.11908,0.30240
6978.19033,0.30323
6976.26159,0.30517
6974.33285,0.30760
6972.40411,0.30788
6970.47536,0.30629
6968.54662,0.30490
6966.61788,0.30497
6964.68914,0.30526
6962.76039,0.30429
6960.83165,0.30344
6958.90291,0.30406
6956.97417,0.30516
6955.04542,0.30462
6953.11668,0.30216
6951.18794,0.30062
6949.25920,0.30143
6947.33045,0.30312
6945.40171,0.30436
6943.47297,0.30294
6941.54423,0.29953
6939.61548,0.29998
6937.68674,0.30464
6935.75800,0.30737
6933.82926,0.30691
6931.90051,0.30615
6929.97177,0.30561
6928.04303,0.30522
6926.11429,0.30537
6924.18554,0.30534
6922.25680,0.30504
6920.32806,0.30510
6918.39932,0.30531
6916.47057,0.30574
6914.54183,0.30625
6912.61309,0.30625
6910.68435,0.30587
6908.75560,0.30604
6906.82686,0.30670
6904.89812,0.30661
6902.96938,0.30518
6901.04063,0.30313
6899.11189,0.30188
6897.18315,0.30161
6895.25441,0.30108
6893.32566,0.30122
6891.39692,0.30367
6889.46818,0.30762
6887.53944,0.31054
6885.61069,0.31002
6883.68195,0.30815
6881.75321,0.30868
6879.82447,0.31024
6877.89572,0.31023
6875.96698,0.30908
6874.03824,0.30822
6872.10950,0.30855
6870.18075,0.30915
6868.25201,0.30867
6866.32327,0.30793
6864.39453,0.30794
6862.46578,0.30769
6860.53704,0.30588
6858.60830,0.30381
6856.67956,0.30366
6854.75081,0.30450
6852.82207,0.30518
6850.89333,0.30628
6848.96459,0.30617
6847.03584,0.30435
6845.10710,0.30352
6843.17836,0.30387
6841.24962,0.30394
6839.32087,0.30452
6837.39213,0.30664
6835.46339,0.30954
6833.53465,0.31089
6831.60590,0.30848
6829.67716,0.30393
6827.74842,0.30230
6825.81968,0.30444
6823.89093,0.30610
6821.96219,0.30515
6820.03345,0.30236
6818.10471,0.29994
6816.17596,0.30048
6814.24722,0.30261
6812.31848,0.30357
6810.38974,0.30359
6808.46099,0.30320
6806.53225,0.30200
6804.60351,0.30060
6802.67477,0.29997
6800.74602,0.30119
6798.81728,0.30440
6796.88854,0.30621
6794.95980,0.30528
6793.03105,0.30455
6791.10231,0.30430
6789.17357,0.30402
6787.24483,0.30481
6785.31608,0.30599
6783.38734,0.30600
6781.45860,0.30466
6779.52986,0.30459
6777.60111,0.30743
6775.67237,0.30895
6773.74363,0.30639
6771.81489,0.30406
6769.88614,0.30545
6767.95740,0.30813
6766.02866,0.30913
6764.09992,0.30965
6762.17117,0.31135
6760.24243,0.31149
6758.31369,0.30792
6756.38495,0.30441
6754.45620,0.30466
6752.52746,0.30672
6750.59872,0.30730
6748.66998,0.30580
6746.74123,0.30295
6744.81249,0.30098
6742.88375,0.30242
6740.95501,0.30613
6739.02626,0.30840
6737.09752,0.30761
6735.16878,0.30607
6733.24004,0.30587
6731.31129,0.30551
6729.38255,0.30426
6727.45381,0.30411
6725.52507,0.30503
6723.59632,0.30505
6721.66758,0.30453
6719.73884,0.30490
6717.81010,0.30595
6715.88135,0.30748
6713.95261,0.30985
6712.02387,0.31191
6710.09513,0.31233
6708.16638,0.31280
6706.23764,0.31455
6704.30890,0.31520
6702.38016,0.31351
6700.45141,0.31059
6698.52267,0.30757
6696.59393,0.30617
6694.66519,0.30653
6692.73644,0.30659
6690.80770,0.30589
6688.87896,0.30635
6686.95022,0.30917
6685.02147,0.31198
6683.09273,0.31215
6681.16399,0.31119
6679.23525,0.31113
6677.30650,0.31237
6675.37776,0.31419
6673.44902,0.31364
6671.52028,0.31026
6669.59153,0.30844
6667.66279,0.30965
6665.73405,0.31165
6663.80531,0.31325
6661.87656,0.31331
6659.94782,0.31180
6658.01908,0.31068
6656.09034,0.31021
6654.16159,0.31036
6652.23285,0.31275
6650.30411,0.31678
6648.37537,0.31844
6646.44662,0.31657
6644.51788,0.31467
6642.58914,0.31433
6640.66040,0.31457
6638.73165,0.31516
6636.80291,0.31609
6634.87417,0.31669
6632.94543,0.31685
6631.01668,0.31762
6629.08794,0.31893
6627.15920,0.31926
6625.23046,0.31911
6623.30171,0.31899
6621.37297,0.31710
6619.44423,0.31442
6617.51549,0.31453
6615.58674,0.31711
6613.65800,0.31880
6611.72926,0.31869
6609.80052,0.31848
6607.87177,0.31877
6605.94303,0.31835
6604.01429,0.31717
6602.08555,0.31706
6600.15680,0.31882
6598.22806,0.32092
6596.29932,0.32146
6594.37058,0.32048
6592.44183,0.31973
6590.51309,0.31955
6588.58435,0.31913
6586.65561,0.31928
6584.72686,0.32026
6582.79812,0.32019
6580.86938,0.31858
6578.94064,0.31698
6577.01190,0.31687
6575.08315,0.31931
6573.15441,0.32340
6571.22567,0.32594
6569.29693,0.32597
6567.36818,0.32580
6565.43944,0.32624
6563.51070,0.32583
6561.58196,0.32480
6559.65321,0.32513
6557.72447,0.32675
6555.79573,0.32700
6553.86699,0.32534
6551.93824,0.32469
6550.00950,0.32579
6548.08076,0.32634
6546.15202,0.32538
6544.22327,0.32400
6542.29453,0.32363
6540.36579,0.32485
6538.43705,0.32725
6536.50830,0.32897
6534.57956,0.32761
6532.65082,0.32448
6530.72208,0.32399
6528.79333,0.32644
6526.86459,0.32819
6524.93585,0.32805
6523.00711,0.32739
6521.07836,0.32749
6519.14962,0.32843
6517.22088,0.32862
6515.29214,0.32630
6513.36339,0.32222
6511.43465,0.32038
6509.50591,0.32205
6507.57717,0.32440
6505.64842,0.32616
6503.71968,0.32748
6501.79094,0.32806
6499.86220,0.32854
6497.93345,0.32974
6496.00471,0.33052
6494.07597,0.33025
6492.14723,0.33092
6490.21848,0.33144
6488.28974,0.32961
6486.36100,0.32825
6484.43226,0.32873
6482.50351,0.32867
6480.57477,0.32819
6478.64603,0.32927
6476.71729,0.33117
6474.78854,0.33073
6472.85980,0.32841
6470.93106,0.32883
6469.00232,0.33178
6467.07357,0.33260
6465.14483,0.33120
6463.21609,0.33045
6461.28735,0.33080
6459.35860,0.33154
6457.42986,0.33208
6455.50112,0.33149
6453.57238,0.32980
6451.64363,0.32878
6449.71489,0.32962
6447.78615,0.33146
6445.85741,0.33267
6443.92866,0.33220
6441.99992,0.33036
6440.07118,0.32868
6438.14244,0.32821
6436.21369,0.32811
6434.28495,0.32785
6432.35621,0.32934
6430.42747,0.33274
6428.49872,0.33402
6426.56998,0.33243
6424.64124,0.33160
6422.71250,0.33193
6420.78375,0.33193
6418.85501,0.33116
6416.92627,0.32967
6414.99753,0.32928
6413.06878,0.33161
6411.14004,0.33497
6409.21130,0.33681
6407.28256,0.33654
6405.35381,0.33441
6403.42507,0.33219
6401.49633,0.33127
6399.56759,0.33040
6397.63884,0.33001
6395.71010,0.33073
6393.78136,0.33086
6391.85262,0.33168
6389.92387,0.33440
6387.99513,0.33526
6386.06639,0.33268
6384.13765,0.33046
6382.20890,0.33093
6380.28016,0.33296
6378.35142,0.33512
6376.42268,0.33675
6374.49393,0.33854
6372.56519,0.34056
6370.63645,0.34059
6368.70771,0.33847
6366.77896,0.33636
6364.85022,0.33483
6362.92148,0.33399
6360.99274,0.33374
6359.06399,0.33334
6357.13525,0.33338
6355.20651,0.33472
6353.27777,0.33640
6351.34902,0.33676
6349.42028,0.33630
6347.49154,0.33692
6345.56280,0.33869
6343.63405,0.34003
6341.70531,0.33943
6339.77657,0.33742
6337.84783,0.33648
6335.91908,0.33666
6333.99034,0.33643
6332.06160,0.33645
6330.13286,0.33681
6328.20411,0.33557
6326.27537,0.33332
6324.34663,0.33304
6322.41789,0.33535
6320.48914,0.33784
6318.56040,0.33895
6316.63166,0.33872
6314.70292,0.33625
6312.77417,0.33316
6310.84543,0.33329
6308.91669,0.33545
6306.98795,0.33612
6305.05920,0.33521
6303.13046,0.33442
6301.20172,0.33499
6299.27298,0.33696
6297.34423,0.33882
6295.41549,0.33891
6293.48675,0.33783
6291.55801,0.33782
6289.62926,0.33908
6287.70052,0.33956
6285.77178,0.33877
6283.84304,0.33829
6281.91429,0.33873
6279.98555,0.33976
6278.05681,0.34110
6276.12807,0.34155
6274.19932,0.34077
6272.27058,0.34063
6270.34184,0.34168
6268.41310,0.34263
6266.48435,0.34268
6264.55561,0.34195
6262.62687,0.34111
6260.69813,0.34114
6258.76938,0.34218
6256.84064,0.34307
6254.91190,0.34298
6252.98316,0.34312
6251.05441,0.34452
6249.12567,0.34593
6247.19693,0.34617
6245.26819,0.34519
6243.33944,0.34371
6241.41070,0.34297
6239.48196,0.34299
6237.55322,0.34315
6235.62447,0.34329
6233.69573,0.34360
6231.76699,0.34472
6229.83825,0.34647
6227.90950,0.34760
6225.98076,0.34750
6224.05202,0.34678
6222.12328,0.34612
6220.19453,0.34659
6218.26579,0.34877
6216.33705,0.35008
6214.40831,0.34927
6212.47956,0.34817
6210.55082,0.34691
6208.62208,0.34598
6206.69334,0.34709
6204.76459,0.34885
6202.83585,0.34881
6200.90711,0.34805
6198.97837,0.34832
6197.04962,0.34855
6195.12088,0.34884
6193.19214,0.35017
6191.26340,0.35160
6189.33465,0.35257
6187.40591,0.35235
6185.47717,0.35015
6183.54843,0.34805
6181.61968,0.34830
6179.69094,0.34964
6177.76220,0.35048
6175.83346,0.35136
6173.90471,0.35185
6171.97597,0.35077
6170.04723,0.34932
6168.11849,0.34878
6166.18974,0.34859
6164.26100,0.34887
6162.33226,0.34979
6160.40352,0.35067
6158.47477,0.35167
6156.54603,0.35272
6154.61729,0.35246
6152.68855,0.35111
6150.75980,0.35106
6148.83106,0.35229
6146.90232,0.35269
6144.97358,0.35202
6143.04483,0.35126
6141.11609,0.35105
6139.18735,0.35172
6137.25861,0.35332
6135.32986,0.35485
6133.40112,0.35483
6131.47238,0.35414
6129.54364,0.35437
6127.61489,0.35512
6125.68615,0.35564
6123.75741,0.35542
6121.82867,0.35470
6119.89992,0.35434
6117.97118,0.35478
6116.04244,0.35539
6114.11370,0.35496
6112.18495,0.35397
6110.25621,0.35364
6108.32747,0.35395
6106.39873,0.35425
6104.46998,0.35398
6102.54124,0.35360
6100.61250,0.35390
6098.68376,0.35436
6096.75501,0.35499
6094.82627,0.35591
6092.89753,0.35588
6090.96879,0.35502
6089.04004,0.35434
6087.11130,0.35395
6085.18256,0.35403
6083.25382,0.35382
6081.32507,0.35297
6079.39633,0.35272
6077.46759,0.35299
6075.53885,0.35295
6073.61010,0.35285
6071.68136,0.35280
6069.75262,0.35248
6067.82388,0.35212
6065.89513,0.35185
6063.96639,0.35149
6062.03765,0.35154
6060.10891,0.35186
6058.18016,0.35145
6056.25142,0.35075
6054.32268,0.35027
6052.39394,0.34928
6050.46519,0.34785
6048.53645,0.34717
6046.60771,0.34800
6044.67897,0.34957
6042.75022,0.35018
6040.82148,0.34992
6038.89274,0.35004
6036.96400,0.34989
6035.03525,0.34851
6033.10651,0.34632
6031.17777,0.34399
6029.24903,0.34251
6027.32029,0.34255
6025.39154,0.34338
6023.46280,0.34398
6021.53406,0.34423
6019.60532,0.34395
6017.67657,0.34264
6015.74783,0.34083
6013.81909,0.33997
6011.89035,0.34026
6009.96160,0.34030
6008.03286,0.33948
6006.10412,0.33812
6004.17538,0.33663
6002.24663,0.33578
6000.31789,0.33567
5998.38915,0.33553
5996.46041,0.33541
5994.53166,0.33561
5992.60292,0.33556
5990.67418,0.33478
5988.74544,0.33352
5986.81669,0.33220
5984.88795,0.33146
5982.95921,0.33105
5981.03047,0.33004
5979.10172,0.32933
5977.17298,0.33014
5975.24424,0.33069
5973.31550,0.32950
5971.38675,0.32877
5969.45801,0.33027
5967.52927,0.33210
5965.60053,0.33215
5963.67178,0.33098
5961.74304,0.32996
5959.81430,0.32917
5957.88556,0.32824
5955.95681,0.32700
5954.02807,0.32564
5952.09933,0.32520
5950.17059,0.32576
5948.24184,0.32604
5946.31310,0.32613
5944.38436,0.32637
5942.45562,0.32558
5940.52687,0.32431
5938.59813,0.32394
5936.66939,0.32353
5934.74065,0.32272
5932.81190,0.32227
5930.88316,0.32178
5928.95442,0.32153
5927.02568,0.32200
5925.09693,0.32265
5923.16819,0.32364
5921.23945,0.32454
5919.31071,0.32414
5917.38196,0.32308
5915.45322,0.32336
5913.52448,0.32466
5911.59574,0.32455
5909.66699,0.32289
5907.73825,0.32186
5905.80951,0.32208
5903.88077,0.32230
5901.95202,0.32195
5900.02328,0.32157
5898.09454,0.32124
5896.16580,0.32059
5894.23705,0.32006
5892.30831,0.32053
5890.37957,0.32156
5888.45083,0.32197
5886.52208,0.32178
5884.59334,0.32138
5882.66460,0.32104
5880.73586,0.32125
5878.80711,0.32142
5876.87837,0.32113
5874.94963,0.32114
5873.02089,0.32146
5871.09214,0.32155
5869.16340,0.32155
5867.23466,0.32178
5865.30592,0.32226
5863.37717,0.32270
5861.44843,0.32306
5859.51969,0.32349
5857.59095,0.32376
5855.66220,0.32360
5853.73346,0.32322
5851.80472,0.32294
5849.87598,0.32253
5847.94723,0.32177
5846.01849,0.32098
5844.08975,0.32080
5842.16101,0.32158
5840.23226,0.32207
5838.30352,0.32147
5836.37478,0.32041
5834.44604,0.31897
5832.51729,0.31780
5830.58855,0.31777
5828.65981,0.31810
5826.73107,0.31785
5824.80232,0.31691
5822.87358,0.31575
5820.94484,0.31485
5819.01610,0.31416
5817.08735,0.31392
5815.15861,0.31435
5813.22987,0.31466
5811.30113,0.31478
5809.37238,0.31551
5807.44364,0.31635
5805.51490,0.31630
5803.58616,0.31551
5801.65741,0.31494
5799.72867,0.31528
5797.79993,0.31605
5795.87119,0.31619
5793.94244,0.31524
5792.01370,0.31385
5790.08496,0.31298
5788.15622,0.31308
5786.22747,0.31434
5784.29873,0.31591
5782.36999,0.31644
5780.44125,0.31611
5778.51250,0.31600
5776.58376,0.31640
5774.65502,0.31713
5772.72628,0.31803
5770.79753,0.31847
5768.86879,0.31820
5766.94005,0.31784
5765.01131,0.31792
5763.08256,0.31871
5761.15382,0.32006
5759.22508,0.32119
5757.29634,0.32145
5755.36759,0.32119
5753.43885,0.32117
5751.51011,0.32161
5749.58137,0.32258
5747.65262,0.32377
5745.72388,0.32453
5743.79514,0.32504
5741.86640,0.32547
5739.93765,0.32540
5738.00891,0.32522
5736.08017,0.32554
5734.15143,0.32623
5732.22268,0.32695
5730.29394,0.32715
5728.36520,0.32676
5726.43646,0.32686
5724.50771,0.32764
5722.57897,0.32771
5720.65023,0.32696
5718.72149,0.32694
5716.79274,0.32785
5714.86400,0.32853
5712.93526,0.32839
5711.00652,0.32777
5709.07777,0.32778
5707.14903,0.32871
5705.22029,0.32953
5703.29155,0.33018
5701.36280,0.33095
5699.43406,0.33120
5697.50532,0.33112
5695.57658,0.33150
5693.64783,0.33191
5691.71909,0.33143
5689.79035,0.33048
5687.86161,0.33011
5685.93286,0.33035
5684.00412,0.33087
5682.07538,0.33119
5680.14664,0.33096
5678.21789,0.33083
5676.28915,0.33097
5674.36041,0.33076
5672.43167,0.33079
5670.50292,0.33164
5668.57418,0.33229
5666.64544,0.33238
5664.71670,0.33270
5662.78795,0.33254
5660.85921,0.33141
5658.93047,0.33141
5657.00173,0.33277
5655.07298,0.33307
5653.14424,0.33210
5651.21550,0.33175
5649.28676,0.33275
5647.35801,0.33382
5645.42927,0.33397
5643.50053,0.33392
5641.57179,0.33425
5639.64304,0.33482
5637.71430,0.33541
5635.78556,0.33581
5633.85682,0.33541
5631.92807,0.33383
5629.99933,0.33264
5628.07059,0.33308
5626.14185,0.33418
5624.21310,0.33512
5622.28436,0.33579
5620.35562,0.33640
5618.42688,0.33702
5616.49813,0.33692
5614.56939,0.33614
5612.64065,0.33582
5610.71191,0.33598
5608.78316,0.33607
5606.85442,0.33633
5604.92568,0.33689
5602.99694,0.33739
5601.06819,0.33726
5599.13945,0.33687
5597.21071,0.33715
5595.28197,0.33748
5593.35322,0.33727
5591.42448,0.33739
5589.49574,0.33769
5587.56700,0.33736
5585.63825,0.33691
5583.70951,0.33736
5581.78077,0.33809
5579.85203,0.33778
5577.92328,0.33688
5575.99454,0.33655
5574.06580,0.33653
5572.13706,0.33616
5570.20831,0.33573
5568.27957,0.33614
5566.35083,0.33758
5564.42209,0.33898
5562.49334,0.33997
5560.56460,0.34076
5558.63586,0.34100
5556.70712,0.34089
5554.77837,0.34082
5552.84963,0.34051
5550.92089,0.33997
5548.99215,0.33979
5547.06340,0.34006
5545.13466,0.34029
5543.20592,0.34081
5541.27718,0.34188
5539.34843,0.34229
5537.41969,0.34162
5535.49095,0.34101
5533.56221,0.34066
5531.63346,0.34035
5529.70472,0.34077
5527.77598,0.34172
5525.84724,0.34217
5523.91849,0.34219
5521.98975,0.34204
5520.06101,0.34177
5518.13227,0.34212
5516.20352,0.34326
5514.27478,0.34422
5512.34604,0.34485
5510.41730,0.34537
5508.48855,0.34541
5506.55981,0.34526
5504.63107,0.34535
5502.70233,0.34567
5500.77358,0.34591
5498.84484,0.34599
5496.91610,0.34653
5494.98736,0.34699
5493.05861,0.34667
5491.12987,0.34677
5489.20113,0.34742
5487.27239,0.34721
5485.34365,0.34644
5483.41490,0.34580
5481.48616,0.34520
5479.55742,0.34503
5477.62868,0.34529
5475.69993,0.34546
5473.77119,0.34570
5471.84245,0.34619
5469.91371,0.34662
5467.98496,0.34737
5466.05622,0.34874
5464.12748,0.34949
5462.19874,0.34903
5460.26999,0.34865
5458.34125,0.34893
5456.41251,0.34924
5454.48377,0.34913
5452.55502,0.34871
5450.62628,0.34839
5448.69754,0.34853
5446.76880,0.34911
5444.84005,0.34987
5442.91131,0.35042
5440.98257,0.35040
5439.05383,0.35014
5437.12508,0.35034
5435.19634,0.35120
5433.26760,0.35224
5431.33886,0.35258
5429.41011,0.35228
5427.48137,0.35226
5425.55263,0.35265
5423.62389,0.35298
5421.69514,0.35292
5419.76640,0.35253
5417.83766,0.35264
5415.90892,0.35346
5413.98017,0.35373
5412.05143,0.35314
5410.12269,0.35306
5408.19395,0.35379
5406.26520,0.35433
5404.33646,0.35468
5402.40772,0.35506
5400.47898,0.35505
5398.55023,0.35532
5396.62149,0.35621
5394.69275,0.35596
5392.76401,0.35453
5390.83526,0.35438
5388.90652,0.35535
5386.97778,0.35545
5385.04904,0.35522
5383.12029,0.35550
5381.19155,0.35532
5379.26281,0.35469
5377.33407,0.35455
5375.40532,0.35480
5373.47658,0.35473
5371.54784,0.35461
5369.61910,0.35487
5367.69035,0.35480
5365.76161,0.35414
5363.83287,0.35360
5361.90413,0.35330
5359.97538,0.35305
5358.04664,0.35336
5356.11790,0.35428
5354.18916,0.35461
5352.26041,0.35397
5350.33167,0.35305
5348.40293,0.35193
5346.47419,0.35090
5344.54544,0.35079
5342.61670,0.35141
5340.68796,0.35194
5338.75922,0.35211
5336.83047,0.35176
5334.90173,0.35102
5332.97299,0.35041
5331.04425,0.34965
5329.11550,0.34866
5327.18676,0.34825
5325.25802,0.34827
5323.32928,0.34742
5321.40053,0.34535
5319.47179,0.34352
5317.54305,0.34303
5315.61431,0.34306
5313.68556,0.34243
5311.75682,0.34118
5309.82808,0.33992
5307.89934,0.33904
5305.97059,0.33830
5304.04185,0.33729
5302.11311,0.33596
5300.18437,0.33426
5298.25562,0.33216
5296.32688,0.33004
5294.39814,0.32786
5292.46940,0.32558
5290.54065,0.32391
5288.61191,0.32269
5286.68317,0.32113
5284.75443,0.31915
5282.82568,0.31692
5280.89694,0.31461
5278.96820,0.31205
5277.03946,0.30908
5275.11071,0.30636
5273.18197,0.30413
5271.25323,0.30163
5269.32449,0.29872
5267.39574,0.29591
5265.46700,0.29341
5263.53826,0.29112
5261.60952,0.28872
5259.68077,0.28616
5257.75203,0.28373
5255.82329,0.28160
5253.89455,0.27971
5251.96580,0.27769
5250.03706,0.27518
5248.10832,0.27252
5246.17958,0.27014
5244.25083,0.26824
5242.32209,0.26693
5240.39335,0.26589
5238.46461,0.26480
5236.53586,0.26365
5234.60712,0.26231
5232.67838,0.26103
5230.74964,0.25991
5228.82089,0.25847
5226.89215,0.25726
5224.96341,0.25687
5223.03467,0.25643
5221.10592,0.25540
5219.17718,0.25444
5217.24844,0.25409
5215.31970,0.25406
5213.39095,0.25393
5211.46221,0.25363
5209.53347,0.25303
5207.60473,0.25209
5205.67598,0.25160
5203.74724,0.25218
5201.81850,0.25307
5199.88976,0.25328
5197.96101,0.25301
5196.03227,0.25254
5194.10353,0.25152
5192.17479,0.25043
5190.24604,0.25039
5188.31730,0.25127
5186.38856,0.25213
5184.45982,0.25278
5182.53107,0.25355
5180.60233,0.25447
5178.67359,0.25477
5176.74485,0.25455
5174.81610,0.25462
5172.88736,0.25459
5170.95862,0.25445
5169.02988,0.25508
5167.10113,0.25628
5165.17239,0.25741
5163.24365,0.25875
5161.31491,0.26044
5159.38616,0.26167
5157.45742,0.26219
5155.52868,0.26280
5153.59994,0.26345
5151.67119,0.26345
5149.74245,0.26339
5147.81371,0.26422
5145.88497,0.26532
5143.95622,0.26557
5142.02748,0.26520
5140.09874,0.26535
5138.17000,0.26645
5136.24125,0.26765
5134.31251,0.26832
5132.38377,0.26894
5130.45503,0.26971
5128.52628,0.27029
5126.59754,0.27087
5124.66880,0.27149
5122.74006,0.27180
5120.81131,0.27217
5118.88257,0.27320
5116.95383,0.27449
5115.02509,0.27534
5113.09634,0.27578
5111.16760,0.27601
5109.23886,0.27632
5107.31012,0.27712
5105.38137,0.27832
5103.45263,0.27921
5101.52389,0.27934
5099.59515,0.27945
5097.66640,0.28043
5095.73766,0.28182
5093.80892,0.28260
5091.88018,0.28295
5089.95143,0.28355
5088.02269,0.28430
5086.09395,0.28530
5084.16521,0.28667
5082.23646,0.28763
5080.30772,0.28793
5078.37898,0.28836
5076.45024,0.28888
5074.52149,0.28876
5072.59275,0.28850
5070.66401,0.28896
5068.73527,0.29001
5066.80652,0.29124
5064.87778,0.29208
5062.94904,0.29231
5061.02030,0.29248
5059.09155,0.29285
5057.16281,0.29328
5055.23407,0.29394
5053.30533,0.29462
5051.37658,0.29503
5049.44784,0.29560
5047.51910,0.29674
5045.59036,0.29825
5043.66161,0.29934
5041.73287,0.29955
5039.80413,0.29960
5037.87539,0.29990
5035.94664,0.29986
5034.01790,0.29950
5032.08916,0.29952
5030.16042,0.30020
5028.23167,0.30122
5026.30293,0.30207
5024.37419,0.30250
5022.44545,0.30273
5020.51670,0.30296
5018.58796,0.30329
5016.65922,0.30382
5014.73048,0.30441
5012.80173,0.30512
5010.87299,0.30588
5008.94425,0.30591
5007.01551,0.30513
5005.08676,0.30466
5003.15802,0.30511
5001.22928,0.30575
4999.30054,0.30596
4997.37179,0.30622
4995.44305,0.30671
4993.51431,0.30688
4991.58557,0.30669
4989.65682,0.30667
4987.72808,0.30674
4985.79934,0.30657
4983.87060,0.30662
4981.94185,0.30677
4980.01311,0.30608
4978.08437,0.30475
4976.15563,0.30387
4974.22688,0.30379
4972.29814,0.30401
4970.36940,0.30406
4968.44066,0.30403
4966.51191,0.30404
4964.58317,0.30395
4962.65443,0.30372
4960.72569,0.30319
4958.79694,0.30228
4956.86820,0.30128
4954.93946,0.30051
4953.01072,0.29986
4951.08197,0.29917
4949.15323,0.29869
4947.22449,0.29818
4945.29575,0.29725
4943.36700,0.29646
4941.43826,0.29610
4939.50952,0.29559
4937.58078,0.29461
4935.65204,0.29354
4933.72329,0.29282
4931.79455,0.29251
4929.86581,0.29207
4927.93707,0.29080
4926.00832,0.28917
4924.07958,0.28800
4922.15084,0.28717
4920.22210,0.28644
4918.29335,0.28590
4916.36461,0.28573
4914.43587,0.28582
4912.50713,0.28538
4910.57838,0.28407
4908.64964,0.28267
4906.72090,0.28167
4904.79216,0.28085
4902.86341,0.28010
4900.93467,0.27937
4899.00593,0.27861
4897.07719,0.27787
4895.14844,0.27743
4893.21970,0.27732
4891.29096,0.27698
4889.36222,0.27643
4887.43347,0.27590
4885.50473,0.27512
4883.57599,0.27434
4881.64725,0.27420
4879.71850,0.27448
4877.78976,0.27444
4875.86102,0.27369
4873.93228,0.27266
4872.00353,0.27202
4870.07479,0.27185
4868.14605,0.27147
4866.21731,0.27055
4864.28856,0.26986
4862.35982,0.26996
4860.43108,0.27032
4858.50234,0.27018
4856.57359,0.26908
4854.64485,0.26757
4852.71611,0.26693
4850.78737,0.26702
4848.85862,0.26662
4846.92988,0.26593
4845.00114,0.26553
4843.07240,0.26505
4841.14365,0.26466
4839.21491,0.26428
4837.28617,0.26329
4835.35743,0.26240
4833.42868,0.26235
4831.49994,0.26232
4829.57120,0.26163
4827.64246,0.26085
4825.71371,0.26051
4823.78497,0.26029
4821.85623,0.25999
4819.92749,0.25967
4817.99874,0.25941
4816.07000,0.25917
4814.14126,0.25870
4812.21252,0.25808
4810.28377,0.25766
4808.35503,0.25770
4806.42629,0.25782
4804.49755,0.25750
4802.56880,0.25706
4800.64006,0.25682
4798.71132,0.25670
4796.78258,0.25667
4794.85383,0.25679
4792.92509,0.25690
4790.99635,0.25660
4789.06761,0.25581
4787.13886,0.25512
4785.21012,0.25498
4783.28138,0.25507
4781.35264,0.25498
4779.42389,0.25484
4777.49515,0.25461
4775.56641,0.25424
4773.63767,0.25393
4771.70892,0.25372
4769.78018,0.25341
4767.85144,0.25295
4765.92270,0.25238
4763.99395,0.25180
4762.06521,0.25126
4760.13647,0.25076
4758.20773,0.25056
4756.27898,0.25082
4754.35024,0.25085
4752.42150,0.25001
4750.49276,0.24893
4748.56401,0.24843
4746.63527,0.24843
4744.70653,0.24847
4742.77779,0.24836
4740.84904,0.24828
4738.92030,0.24841
4736.99156,0.24836
4735.06282,0.24787
4733.13407,0.24737
4731.20533,0.24725
4729.27659,0.24726
4727.34785,0.24684
4725.41910,0.24618
4723.49036,0.24607
4721.56162,0.24631
4719.63288,0.24620
4717.70413,0.24593
4715.77539,0.24594
4713.84665,0.24598
4711.91791,0.24581
4709.98916,0.24551
4708.06042,0.24513
4706.13168,0.24484
4704.20294,0.24483
4702.27419,0.24469
4700.34545,0.24418
4698.41671,0.24370
4696.48797,0.24342
4694.55922,0.24322
4692.63048,0.24291
4690.70174,0.24230
4688.77300,0.24188
4686.84425,0.24198
4684.91551,0.24211
4682.98677,0.24179
4681.05803,0.24132
4679.12928,0.24135
4677.20054,0.24171
4675.27180,0.24181
4673.34306,0.24179
4671.41431,0.24202
4669.48557,0.24254
4667.55683,0.24315
4665.62809,0.24381
4663.69934,0.24461
4661.77060,0.24564
4659.84186,0.24670
4657.91312,0.24731
4655.98437,0.24750
4654.05563,0.24774
4652.12689,0.24840
4650.19815,0.24944
4648.26940,0.25030
4646.34066,0.25064
4644.41192,0.25081
4642.48318,0.25123
4640.55443,0.25188
4638.62569,0.25266
4636.69695,0.25343
4634.76821,0.25362
4632.83946,0.25316
4630.91072,0.25287
4628.98198,0.25298
4627.05324,0.25301
4625.12449,0.25309
4623.19575,0.25356
4621.26701,0.25436
4619.33827,0.25511
4617.40952,0.25562
4615.48078,0.25611
4613.55204,0.25669
4611.62330,0.25733
4609.69455,0.25826
4607.76581,0.25938
4605.83707,0.26015
4603.90833,0.26071
4601.97958,0.26152
4600.05084,0.26242
4598.12210,0.26300
4596.19336,0.26342
4594.26461,0.26401
4592.33587,0.26454
4590.40713,0.26484
4588.47839,0.26528
4586.54964,0.26591
4584.62090,0.26638
4582.69216,0.26660
4580.76342,0.26674
4578.83467,0.26684
4576.90593,0.26678
4574.97719,0.26670
4573.04845,0.26700
4571.11970,0.26757
4569.19096,0.26790
4567.26222,0.26807
4565.33348,0.26828
4563.40473,0.26852
4561.47599,0.26908
4559.54725,0.26983
4557.61851,0.27030
4555.68976,0.27066
4553.76102,0.27116
4551.83228,0.27158
4549.90354,0.27154
4547.97479,0.27126
4546.04605,0.27117
4544.11731,0.27128
4542.18857,0.27157
4540.25982,0.27178
4538.33108,0.27129
4536.40234,0.27052
4534.47360,0.27052
4532.54485,0.27113
4530.61611,0.27159
4528.68737,0.27156
4526.75863,0.27088
4524.82988,0.27007
4522.90114,0.27003
4520.97240,0.27044
4519.04366,0.27043
4517.11491,0.26990
4515.18617,0.26920
4513.25743,0.26861
4511.32869,0.26812
4509.39994,0.26757
4507.47120,0.26679
4505.54246,0.26571
4503.61372,0.26464
4501.68497,0.26389
4499.75623,0.26326
4497.82749,0.26247
4495.89875,0.26156
4493.97000,0.26050
4492.04126,0.25922
4490.11252,0.25792
4488.18378,0.25690
4486.25503,0.25597
4484.32629,0.25464
4482.39755,0.25305
4480.46881,0.25144
4478.54006,0.24954
4476.61132,0.24726
4474.68258,0.24503
4472.75384,0.24314
4470.82509,0.24132
4468.89635,0.23914
4466.96761,0.23658
4465.03887,0.23373
4463.11012,0.23065
4461.18138,0.22778
4459.25264,0.22541
4457.32390,0.22287
4455.39515,0.21982
4453.46641,0.21663
4451.53767,0.21335
4449.60893,0.20996
4447.68018,0.20680
4445.75144,0.20410
4443.82270,0.20152
4441.89396,0.19873
4439.96521,0.19590
4438.03647,0.19308
4436.10773,0.19022
4434.17899,0.18760
4432.25024,0.18535
4430.32150,0.18326
4428.39276,0.18126
4426.46402,0.17940
4424.53527,0.17765
4422.60653,0.17626
4420.67779,0.17530
4418.74905,0.17446
4416.82030,0.17359
4414.89156,0.17283
4412.96282,0.17229
4411.03408,0.17214
4409.10533,0.17246
4407.17659,0.17270
4405.24785,0.17256
4403.31911,0.17236
4401.39036,0.17228
4399.46162,0.17252
4397.53288,0.17296
4395.60414,0.17302
4393.67539,0.17275
4391.74665,0.17280
4389.81791,0.17335
4387.88917,0.17382
4385.96043,0.17382
4384.03168,0.17337
4382.10294,0.17265
4380.17420,0.17197
4378.24546,0.17134
4376.31671,0.17054
4374.38797,0.16987
4372.45923,0.16956
4370.53049,0.16946
4368.60174,0.16946
4366.67300,0.16922
4364.74426,0.16855
4362.81552,0.16819
4360.88677,0.16855
4358.95803,0.16885
4357.02929,0.16847
4355.10055,0.16782
4353.17180,0.16756
4351.24306,0.16750
4349.31432,0.16714
4347.38558,0.16673
4345.45683,0.16662
4343.52809,0.16655
4341.59935,0.16640
4339.67061,0.16653
4337.74186,0.16686
4335.81312,0.16698
4333.88438,0.16687
4331.95564,0.16679
4330.02689,0.16681
4328.09815,0.16668
4326.16941,0.16643
4324.24067,0.16653
4322.31192,0.16714
4320.38318,0.16800
4318.45444,0.16881
4316.52570,0.16931
4314.59695,0.16975
4312.66821,0.17035
4310.73947,0.17071
4308.81073,0.17084
4306.88198,0.17131
4304.95324,0.17196
4303.02450,0.17236
4301.09576,0.17240
4299.16701,0.17213
4297.23827,0.17195
4295.30953,0.17222
4293.38079,0.17260
4291.45204,0.17263
4289.52330,0.17250
4287.59456,0.17239
4285.66582,0.17218
4283.73707,0.17187
4281.80833,0.17170
4279.87959,0.17184
4277.95085,0.17216
4276.02210,0.17244
4274.09336,0.17239
4272.16462,0.17220
4270.23588,0.17252
4268.30713,0.17325
4266.37839,0.17372
4264.44965,0.17385
4262.52091,0.17408
4260.59216,0.17461
4258.66342,0.17529
4256.73468,0.17569
4254.80594,0.17555
4252.87719,0.17524
4250.94845,0.17533
4249.01971,0.17580
4247.09097,0.17617
4245.16222,0.17639
4243.23348,0.17696
4241.30474,0.17778
4239.37600,0.17829
4237.44725,0.17854
4235.51851,0.17882
4233.58977,0.17922
4231.66103,0.17974
4229.73228,0.18020
4227.80354,0.18046
4225.87480,0.18056
4223.94606,0.18067
4222.01731,0.18114
4220.08857,0.18178
4218.15983,0.18206
4216.23109,0.18222
4214.30234,0.18272
4212.37360,0.18316
4210.44486,0.18313
4208.51612,0.18305
4206.58737,0.18332
4204.65863,0.18383
4202.72989,0.18438
4200.80115,0.18470
4198.87240,0.18474
4196.94366,0.18448
4195.01492,0.18392
4193.08618,0.18342
4191.15743,0.18329
4189.22869,0.18353
4187.29995,0.18389
4185.37121,0.18391
4183.44246,0.18348
4181.51372,0.18302
4179.58498,0.18297
4177.65624,0.18342
4175.72749,0.18381
4173.79875,0.18372
4171.87001,0.18363
4169.94127,0.18390
4168.01252,0.18407
4166.08378,0.18388
4164.15504,0.18359
4162.22630,0.18329
4160.29755,0.18292
4158.36881,0.18283
4156.44007,0.18307
4154.51133,0.18313
4152.58258,0.18283
4150.65384,0.18250
4148.72510,0.18203
4146.79636,0.18145
4144.86761,0.18109
4142.93887,0.18086
4141.01013,0.18052
4139.08139,0.18009
4137.15264,0.17962
4135.22390,0.17930
4133.29516,0.17938
4131.36642,0.17950
4129.43767,0.17914
4127.50893,0.17852
4125.58019,0.17801
4123.65145,0.17748
4121.72270,0.17684
4119.79396,0.17622
4117.86522,0.17567
4115.93648,0.17515
4114.00773,0.17469
4112.07899,0.17434
4110.15025,0.17391
4108.22151,0.17341
4106.29276,0.17315
4104.36402,0.17298
4102.43528,0.17246
4100.50654,0.17160
4098.57779,0.17077
4096.64905,0.17003
4094.72031,0.16937
4092.79157,0.16865
4090.86282,0.16755
4088.93408,0.16615
4087.00534,0.16498
4085.07660,0.16433
4083.14785,0.16383
4081.21911,0.16300
4079.29037,0.16177
4077.36163,0.16059
4075.43288,0.15981
4073.50414,0.15897
4071.57540,0.15780
4069.64666,0.15660
4067.71791,0.15536
4065.78917,0.15407
4063.86043,0.15323
4061.93169,0.15292
4060.00294,0.15263
4058.07420,0.15208
4056.14546,0.15140
4054.21672,0.15083
4052.28797,0.15048
4050.35923,0.15023
4048.43049,0.14997
4046.50175,0.14972
4044.57300,0.14965
4042.64426,0.14978
4040.71552,0.14980
4038.78678,0.14959
4036.85803,0.14924
4034.92929,0.14870
4033.00055,0.14823
4031.07181,0.14820
4029.14306,0.14836
4027.21432,0.14834
4025.28558,0.14817
4023.35684,0.14797
4021.42809,0.14772
4019.49935,0.14762
4017.57061,0.14785
4015.64187,0.14812
4013.71312,0.14799
4011.78438,0.14774
4009.85564,0.14790
4007.92690,0.14834
4005.99815,0.14847
4004.06941,0.14818
4002.14067,0.14808
4000.21193,0.14862
3998.28318,0.14948
3996.35444,0.15008
3994.42570,0.15035
3992.49696,0.15055
3990.56821,0.15093
3988.63947,0.15154
3986.71073,0.15217
3984.78199,0.15262
3982.85324,0.15295
3980.92450,0.15332
3978.99576,0.15388
3977.06702,0.15454
3975.13827,0.15502
3973.20953,0.15528
3971.28079,0.15567
3969.35205,0.15650
3967.42330,0.15756
3965.49456,0.15858
3963.56582,0.15943
3961.63708,0.16020
3959.70833,0.16089
3957.77959,0.16126
3955.85085,0.16132
3953.92211,0.16167
3951.99336,0.16245
3950.06462,0.16309
3948.13588,0.16360
3946.20714,0.16442
3944.27839,0.16548
3942.34965,0.16635
3940.42091,0.16672
3938.49217,0.16696
3936.56342,0.16750
3934.63468,0.16809
3932.70594,0.16853
3930.77720,0.16895
3928.84845,0.16950
3926.91971,0.17020
3924.99097,0.17091
3923.06223,0.17154
3921.13348,0.17215
3919.20474,0.17261
3917.27600,0.17300
3915.34726,0.17367
3913.41851,0.17454
3911.48977,0.17536
3909.56103,0.17590
3907.63229,0.17621
3905.70354,0.17667
3903.77480,0.17737
3901.84606,0.17810
3899.91732,0.17870
3897.98857,0.17915
3896.05983,0.17951
3894.13109,0.17984
3892.20235,0.18026
3890.27360,0.18081
3888.34486,0.18136
3886.41612,0.18184
3884.48738,0.18213
3882.55863,0.18236
3880.62989,0.18270
3878.70115,0.18325
3876.77241,0.18387
3874.84366,0.18438
3872.91492,0.18479
3870.98618,0.18528
3869.05744,0.18585
3867.12869,0.18622
3865.19995,0.18659
3863.27121,0.18736
3861.34247,0.18814
3859.41372,0.18872
3857.48498,0.18940
3855.55624,0.19014
3853.62750,0.19088
3851.69875,0.19162
3849.77001,0.19195
3847.84127,0.19208
3845.91253,0.19273
3843.98378,0.19382
3842.05504,0.19448
3840.12630,0.19450
3838.19756,0.19431
3836.26882,0.19423
3834.34007,0.19441
3832.41133,0.19478
3830.48259,0.19510
3828.55385,0.19527
3826.62510,0.19555
3824.69636,0.19609
3822.76762,0.19654
3820.83888,0.19659
3818.91013,0.19640
3816.98139,0.19602
3815.05265,0.19560
3813.12391,0.19554
3811.19516,0.19555
3809.26642,0.19539
3807.33768,0.19545
3805.40894,0.19591
3803.48019,0.19627
3801.55145,0.19618
3799.62271,0.19591
3797.69397,0.19584
3795.76522,0.19588
3793.83648,0.19586
3791.90774,0.19574
3789.97900,0.19556
3788.05025,0.19539
3786.12151,0.19522
3784.19277,0.19485
3782.26403,0.19435
3780.33528,0.19414
3778.40654,0.19427
3776.47780,0.19432
3774.54906,0.19406
3772.62031,0.19371
3770.69157,0.19342
3768.76283,0.19313
3766.83409,0.19274
3764.90534,0.19223
3762.97660,0.19179
3761.04786,0.19154
3759.11912,0.19131
3757.19037,0.19091
3755.26163,0.19038
3753.33289,0.18995
3751.40415,0.18968
3749.47540,0.18925
3747.54666,0.18851
3745.61792,0.18753
3743.68918,0.18648
3741.76043,0.18582
3739.83169,0.18542
3737.90295,0.18485
3735.97421,0.18401
3734.04546,0.18297
3732.11672,0.18184
3730.18798,0.18079
3728.25924,0.17961
3726.33049,0.17811
3724.40175,0.17662
3722.47301,0.17540
3720.54427,0.17415
3718.61552,0.17263
3716.68678,0.17112
3714.75804,0.16975
3712.82930,0.16813
3710.90055,0.16619
3708.97181,0.16424
3707.04307,0.16214
3705.11433,0.15960
3703.18558,0.15670
3701.25684,0.15379
3699.32810,0.15109
3697.39936,0.14822
3695.47061,0.14488
3693.54187,0.14134
3691.61313,0.13780
3689.68439,0.13376
3687.75564,0.12906
3685.82690,0.12450
3683.89816,0.12011
3681.96942,0.11511
3680.04067,0.10866
3678.11193,0.10131
3676.18319,0.09602
3674.25445,0.09475
3672.32570,0.09448
3670.39696,0.09260
3668.46822,0.08958
3666.53948,0.08674
3664.61073,0.08413
3662.68199,0.08151
3660.75325,0.07905
3658.82451,0.07687
3656.89576,0.07483
3654.96702,0.07294
3653.03828,0.07126
3651.10954,0.06948
3649.18079,0.06740
3647.25205,0.06557
3645.32331,0.06449
3643.39457,0.06380
3641.46582,0.06296
3639.53708,0.06200
3637.60834,0.06093
3635.67960,0.05974
3633.75085,0.05893
3631.82211,0.05875
3629.89337,0.05859
3627.96463,0.05786
3626.03588,0.05699
3624.10714,0.05644
3622.17840,0.05616
3620.24966,0.05582
3618.32091,0.05512
3616.39217,0.05432
3614.46343,0.05362
3612.53469,0.05308
3610.60594,0.05278
3608.67720,0.05255
3606.74846,0.05236
3604.81972,0.05227
3602.89097,0.05217
3600.96223,0.05201
3599.03349,0.05183
3597.10475,0.05152
3595.17600,0.05115
3593.24726,0.05088
3591.31852,0.05072
3589.38978,0.05070
3587.46103,0.05068
3585.53229,0.05036
3583.60355,0.04994
3581.67481,0.04963
3579.74606,0.04938
3577.81732,0.04922
3575.88858,0.04916
3573.95984,0.04902
3572.03109,0.04894
3570.10235,0.04904
3568.17361,0.04898
3566.24487,0.04883
3564.31612,0.04895
3562.38738,0.04896
3560.45864,0.04853
3558.52990,0.04809
3556.60115,0.04797
3554.67241,0.04793
3552.74367,0.04774
3550.81493,0.04764
3548.88618,0.04772
3546.95744,0.04784
3545.02870,0.04794
3543.09996,0.04797
3541.17121,0.04778
3539.24247,0.04758
3537.31373,0.04765
3535.38499,0.04781
3533.45624,0.04773
3531.52750,0.04749
3529.59876,0.04740
3527.67002,0.04750
3525.74127,0.04752
3523.81253,0.04733
3521.88379,0.04711
3519.95505,0.04713
3518.02630,0.04727
3516.09756,0.04725
3514.16882,0.04724
3512.24008,0.04735
3510.31133,0.04730
3508.38259,0.04720
3506.45385,0.04728
3504.52511,0.04742
3502.59636,0.04750
3500.66762,0.04753
3498.73888,0.04754
3496.81014,0.04759
3494.88139,0.04765
3492.95265,0.04752
3491.02391,0.04714
3489.09517,0.04677
3487.16642,0.04669
3485.23768,0.04682
3483.30894,0.04691
3481.38020,0.04694
3479.45145,0.04701
3477.52271,0.04707
3475.59397,0.04718
3473.66523,0.04737
3471.73648,0.04753
3469.80774,0.04746
3467.87900,0.04716
3465.95026,0.04705
3464.02151,0.04726
3462.09277,0.04738
3460.16403,0.04718
3458.23529,0.04702
3456.30654,0.04710
3454.37780,0.04725
3452.44906,0.04731
3450.52032,0.04738
3448.59157,0.04755
3446.66283,0.04760
3444.73409,0.04744
3442.80535,0.04720
3440.87660,0.04708
3438.94786,0.04710
3437.01912,0.04701
3435.09038,0.04694
3433.16163,0.04714
3431.23289,0.04747
3429.30415,0.04762
3427.37541,0.04746
3425.44666,0.04722
3423.51792,0.04714
3421.58918,0.04715
3419.66044,0.04714
3417.73169,0.04703
3415.80295,0.04682
3413.87421,0.04682
3411.94547,0.04711
3410.01672,0.04738
3408.08798,0.04732
3406.15924,0.04712
3404.23050,0.04715
3402.30175,0.04737
3400.37301,0.04770
3398.44427,0.04798
3396.51553,0.04781
3394.58678,0.04740
3392.65804,0.04725
3390.72930,0.04727
3388.80056,0.04719
3386.87181,0.04705
3384.94307,0.04718
3383.01433,0.04758
3381.08559,0.04780
3379.15684,0.04770
3377.22810,0.04751
3375.29936,0.04740
3373.37062,0.04742
3371.44187,0.04759
3369.51313,0.04770
3367.58439,0.04749
3365.65565,0.04714
3363.72690,0.04719
3361.79816,0.04769
3359.86942,0.04800
3357.94068,0.04775
3356.01193,0.04739
3354.08319,0.04731
3352.15445,0.04746
3350.22571,0.04760
3348.29696,0.04733
3346.36822,0.04683
3344.43948,0.04677
3342.51074,0.04722
3340.58199,0.04762
3338.65325,0.04773
3336.72451,0.04786
3334.79577,0.04812
3332.86702,0.04843
3330.93828,0.04850
3329.00954,0.04804
3327.08080,0.04757
3325.15205,0.04774
3323.22331,0.04797
3321.29457,0.04775
3319.36583,0.04762
3317.43708,0.04783
3315.50834,0.04793
3313.57960,0.04792
3311.65086,0.04816
3309.72211,0.04849
3307.79337,0.04849
3305.86463,0.04813
3303.93589,0.04773
3302.00714,0.04750
3300.07840,0.04756
3298.14966,0.04812
3296.22092,0.04866
3294.29217,0.04856
3292.36343,0.04815
3290.43469,0.04805
3288.50595,0.04829
3286.57721,0.04839
3284.64846,0.04808
3282.71972,0.04770
3280.79098,0.04763
3278.86224,0.04787
3276.93349,0.04830
3275.00475,0.04867
3273.07601,0.04867
3271.14727,0.04836
3269.21852,0.04803
3267.28978,0.04791
3265.36104,0.04819
3263.43230,0.04854
3261.50355,0.04866
3259.57481,0.04884
3257.64607,0.04907
3255.71733,0.04908
3253.78858,0.04888
3251.85984,0.04850
3249.93110,0.04819
3248.00236,0.04821
3246.07361,0.04841
3244.14487,0.04867
3242.21613,0.04902
3240.28739,0.04931
3238.35864,0.04943
3236.42990,0.04959
3234.50116,0.04986
3232.57242,0.05004
3230.64367,0.04999
3228.71493,0.04985
3226.78619,0.04982
3224.85745,0.04990
3222.92870,0.04993
3220.99996,0.04981
3219.07122,0.04962
3217.14248,0.04967
3215.21373,0.04994
3213.28499,0.05003
3211.35625,0.04994
3209.42751,0.04996
3207.49876,0.05021
3205.57002,0.05045
3203.64128,0.05034
3201.71254,0.05001
3199.78379,0.04986
3197.85505,0.04995
3195.92631,0.05021
3193.99757,0.05061
3192.06882,0.05085
3190.14008,0.05075
3188.21134,0.05041
3186.28260,0.05010
3184.35385,0.05010
3182.42511,0.05031
3180.49637,0.05056
3178.56763,0.05096
3176.63888,0.05121
3174.71014,0.05104
3172.78140,0.05078
3170.85266,0.05089
3168.92391,0.05129
3166.99517,0.05145
3165.06643,0.05119
3163.13769,0.05091
3161.20894,0.05089
3159.28020,0.05108
3157.35146,0.05128
3155.42272,0.05143
3153.49397,0.05155
3151.56523,0.05159
3149.63649,0.05163
3147.70775,0.05190
3145.77900,0.05226
3143.85026,0.05242
3141.92152,0.05246
3139.99278,0.05247
3138.06403,0.05236
3136.13529,0.05225
3134.20655,0.05231
3132.27781,0.05255
3130.34906,0.05283
3128.42032,0.05292
3126.49158,0.05281
3124.56284,0.05269
3122.63409,0.05269
3120.70535,0.05272
3118.77661,0.05267
3116.84787,0.05255
3114.91912,0.05254
3112.99038,0.05279
3111.06164,0.05307
3109.13290,0.05315
3107.20415,0.05314
3105.27541,0.05325
3103.34667,0.05332
3101.41793,0.05316
3099.48918,0.05294
3097.56044,0.05295
3095.63170,0.05317
3093.70296,0.05340
3091.77421,0.05357
3089.84547,0.05353
3087.91673,0.05316
3085.98799,0.05275
3084.05924,0.05265
3082.13050,0.05274
3080.20176,0.05276
3078.27302,0.05270
3076.34427,0.05268
3074.41553,0.05279
3072.48679,0.05287
3070.55805,0.05280
3068.62930,0.05263
3066.70056,0.05240
3064.77182,0.05215
3062.84308,0.05206
3060.91433,0.05217
3058.98559,0.05252
3057.05685,0.05303
3055.12811,0.05335
3053.19936,0.05340
3051.27062,0.05325
3049.34188,0.05290
3047.41314,0.05268
3045.48439,0.05276
3043.55565,0.05284
3041.62691,0.05281
3039.69817,0.05270
3037.76942,0.05246
3035.84068,0.05230
3033.91194,0.05242
3031.98320,0.05267
3030.05445,0.05275
3028.12571,0.05258
3026.19697,0.05217
3024.26823,0.05176
3022.33948,0.05161
3020.41074,0.05159
3018.48200,0.05149
3016.55326,0.05118
3014.62451,0.05065
3012.69577,0.05020
3010.76703,0.04990
3008.83829,0.04952
3006.90954,0.04908
3004.98080,0.04872
3003.05206,0.04842
3001.12332,0.04816
2999.19457,0.04787
2997.26583,0.04738
2995.33709,0.04686
2993.40835,0.04675
2991.47960,0.04688
2989.55086,0.04671
2987.62212,0.04634
2985.69338,0.04621
2983.76463,0.04626
2981.83589,0.04616
2979.90715,0.04604
2977.97841,0.04620
2976.04966,0.04651
2974.12092,0.04662
2972.19218,0.04654
2970.26344,0.04655
2968.33469,0.04676
2966.40595,0.04700
2964.47721,0.04710
2962.54847,0.04713
2960.61972,0.04724
2958.69098,0.04741
2956.76224,0.04762
2954.83350,0.04775
2952.90475,0.04753
2950.97601,0.04723
2949.04727,0.04730
2947.11853,0.04759
2945.18978,0.04779
2943.26104,0.04787
2941.33230,0.04771
2939.40356,0.04746
2937.47481,0.04749
2935.54607,0.04782
2933.61733,0.04830
2931.68859,0.04879
2929.75984,0.04911
2927.83110,0.04923
2925.90236,0.04931
2923.97362,0.04953
2922.04487,0.04980
2920.11613,0.05009
2918.18739,0.05055
2916.25865,0.05084
2914.32990,0.05057
2912.40116,0.05012
2910.47242,0.04993
2908.54368,0.04991
2906.61493,0.04989
2904.68619,0.04975
2902.75745,0.04955
2900.82871,0.04947
2898.89996,0.04957
2896.97122,0.04982
2895.04248,0.04990
2893.11374,0.04956
2891.18499,0.04925
2889.25625,0.04935
2887.32751,0.04961
2885.39877,0.04969
2883.47002,0.04957
2881.54128,0.04936
2879.61254,0.04921
2877.68380,0.04929
2875.75505,0.04951
2873.82631,0.04965
2871.89757,0.04983
2869.96883,0.05018
2868.04008,0.05051
2866.11134,0.05060
2864.18260,0.05044
2862.25386,0.05025
2860.32511,0.05027
2858.39637,0.05044
2856.46763,0.05069
2854.53889,0.05110
2852.61014,0.05163
2850.68140,0.05203
2848.75266,0.05205
2846.82392,0.05185
2844.89517,0.05184
2842.96643,0.05211
2841.03769,0.05242
2839.10895,0.05268
2837.18020,0.05295
2835.25146,0.05326
2833.32272,0.05365
2831.39398,0.05395
2829.46523,0.05404
2827.53649,0.05412
2825.60775,0.05436
2823.67901,0.05466
2821.75026,0.05498
2819.82152,0.05542
2817.89278,0.05583
2815.96404,0.05606
2814.03529,0.05623
2812.10655,0.05655
2810.17781,0.05696
2808.24907,0.05723
2806.32032,0.05746
2804.39158,0.05775
2802.46284,0.05792
2800.53410,0.05813
2798.60535,0.05858
2796.67661,0.05899
2794.74787,0.05928
2792.81913,0.05977
2790.89038,0.06030
2788.96164,0.06048
2787.03290,0.06049
2785.10416,0.06060
2783.17541,0.06066
2781.24667,0.06069
2779.31793,0.06091
2777.38919,0.06125
2775.46044,0.06151
2773.53170,0.06171
2771.60296,0.06188
2769.67422,0.06205
2767.74547,0.06231
2765.81673,0.06259
2763.88799,0.06277
2761.95925,0.06290
2760.03050,0.06297
2758.10176,0.06296
2756.17302,0.06301
2754.24428,0.06314
2752.31553,0.06315
2750.38679,0.06313
2748.45805,0.06330
2746.52931,0.06358
2744.60056,0.06387
2742.67182,0.06415
2740.74308,0.06431
2738.81434,0.06439
2736.88560,0.06454
2734.95685,0.06471
2733.02811,0.06483
2731.09937,0.06492
2729.17063,0.06503
2727.24188,0.06529
2725.31314,0.06571
2723.38440,0.06614
2721.45566,0.06643
2719.52691,0.06663
2717.59817,0.06686
2715.66943,0.06714
2713.74069,0.06745
2711.81194,0.06781
2709.88320,0.06822
2707.95446,0.06855
2706.02572,0.06887
2704.09697,0.06928
2702.16823,0.06961
2700.23949,0.06958
2698.31075,0.06948
2696.38200,0.06982
2694.45326,0.07053
2692.52452,0.07120
2690.59578,0.07164
2688.66703,0.07193
2686.73829,0.07219
2684.80955,0.07251
2682.88081,0.07279
2680.95206,0.07289
2679.02332,0.07301
2677.09458,0.07334
2675.16584,0.07375
2673.23709,0.07400
2671.30835,0.07403
2669.37961,0.07404
2667.45087,0.07431
2665.52212,0.07475
2663.59338,0.07503
2661.66464,0.07507
2659.73590,0.07508
2657.80715,0.07531
2655.87841,0.07573
2653.94967,0.07607
2652.02093,0.07631
2650.09218,0.07651
2648.16344,0.07669
2646.23470,0.07703
2644.30596,0.07742
2642.37721,0.07758
2640.44847,0.07765
2638.51973,0.07773
2636.59099,0.07785
2634.66224,0.07817
2632.73350,0.07865
2630.80476,0.07904
2628.87602,0.07935
2626.94727,0.07972
2625.01853,0.08006
2623.08979,0.08015
2621.16105,0.08007
2619.23230,0.08002
2617.30356,0.08003
2615.37482,0.08010
2613.44608,0.08029
2611.51733,0.08053
2609.58859,0.08082
2607.65985,0.08122
2605.73111,0.08151
2603.80236,0.08152
2601.87362,0.08149
2599.94488,0.08153
2598.01614,0.08157
2596.08739,0.08163
2594.15865,0.08173
2592.22991,0.08195
2590.30117,0.08234
2588.37242,0.08267
2586.44368,0.08282
2584.51494,0.08298
2582.58620,0.08325
2580.65745,0.08352
2578.72871,0.08369
2576.79997,0.08375
2574.87123,0.08387
2572.94248,0.08418
2571.01374,0.08450
2569.08500,0.08471
2567.15626,0.08477
2565.22751,0.08475
2563.29877,0.08486
2561.37003,0.08499
2559.44129,0.08506
2557.51254,0.08523
2555.58380,0.08544
2553.65506,0.08560
2551.72632,0.08572
2549.79757,0.08573
2547.86883,0.08581
2545.94009,0.08608
2544.01135,0.08631
2542.08260,0.08643
2540.15386,0.08662
2538.22512,0.08692
2536.29638,0.08714
2534.36763,0.08725
2532.43889,0.08744
2530.51015,0.08773
2528.58141,0.08805
2526.65266,0.08836
2524.72392,0.08867
2522.79518,0.08900
2520.86644,0.08932
2518.93769,0.08953
2517.00895,0.08961
2515.08021,0.08970
2513.15147,0.09005
2511.22272,0.09062
2509.29398,0.09118
2507.36524,0.09153
2505.43650,0.09166
2503.50775,0.09183
2501.57901,0.09210
2499.65027,0.09234
2497.72153,0.09257
2495.79278,0.09289
2493.86404,0.09323
2491.93530,0.09354
2490.00656,0.09384
2488.07781,0.09416
2486.14907,0.09448
2484.22033,0.09477
2482.29159,0.09500
2480.36284,0.09527
2478.43410,0.09555
2476.50536,0.09577
2474.57662,0.09609
2472.64787,0.09657
2470.71913,0.09691
2468.79039,0.09715
2466.86165,0.09750
2464.93290,0.09787
2463.00416,0.09817
2461.07542,0.09852
2459.14668,0.09885
2457.21793,0.09901
2455.28919,0.09913
2453.36045,0.09929
2451.43171,0.09948
2449.50296,0.09963
2447.57422,0.09971
2445.64548,0.09985
2443.71674,0.10013
2441.78799,0.10052
2439.85925,0.10086
2437.93051,0.10115
2436.00177,0.10153
2434.07302,0.10183
2432.14428,0.10196
2430.21554,0.10214
2428.28680,0.10240
2426.35805,0.10257
2424.42931,0.10279
2422.50057,0.10320
2420.57183,0.10372
2418.64308,0.10422
2416.71434,0.10459
2414.78560,0.10480
2412.85686,0.10494
2410.92811,0.10518
2408.99937,0.10553
2407.07063,0.10591
2405.14189,0.10616
2403.21314,0.10632
2401.28440,0.10657
2399.35566,0.10691
2397.42692,0.10722
2395.49817,0.10751
2393.56943,0.10776
2391.64069,0.10784
2389.71195,0.10776
2387.78320,0.10783
2385.85446,0.10816
2383.92572,0.10848
2381.99698,0.10860
2380.06823,0.10864
2378.13949,0.10872
2376.21075,0.10890
2374.28201,0.10909
2372.35326,0.10925
2370.42452,0.10948
2368.49578,0.10974
2366.56704,0.10985
2364.63829,0.10986
2362.70955,0.11002
2360.78081,0.11037
2358.85207,0.11079
2356.92332,0.11113
2354.99458,0.11129
2353.06584,0.11136
2351.13710,0.11157
2349.20835,0.11195
2347.27961,0.11226
2345.35087,0.11240
2343.42213,0.11247
2341.49338,0.11257
2339.56464,0.11268
2337.63590,0.11282
2335.70716,0.11306
2333.77841,0.11331
2331.84967,0.11343
2329.92093,0.11349
2327.99219,0.11354
2326.06344,0.11360
2324.13470,0.11375
2322.20596,0.11402
2320.27722,0.11422
2318.34847,0.11430
2316.41973,0.11441
2314.49099,0.11460
2312.56225,0.11483
2310.63350,0.11507
2308.70476,0.11514
2306.77602,0.11508
2304.84728,0.11511
2302.91853,0.11529
2300.98979,0.11556
2299.06105,0.11573
2297.13231,0.11576
2295.20356,0.11589
2293.27482,0.11614
2291.34608,0.11645
2289.41734,0.11681
2287.48859,0.11710
2285.55985,0.11717
2283.63111,0.11716
2281.70237,0.11721
2279.77362,0.11733
2277.84488,0.11743
2275.91614,0.11744
2273.98740,0.11739
2272.05865,0.11737
2270.12991,0.11739
2268.20117,0.11737
2266.27243,0.11722
2264.34368,0.11710
2262.41494,0.11723
2260.48620,0.11742
2258.55746,0.11738
2256.62871,0.11712
2254.69997,0.11695
2252.77123,0.11692
2250.84249,0.11681
2248.91374,0.11659
2246.98500,0.11643
2245.05626,0.11626
2243.12752,0.11605
2241.19877,0.11600
2239.27003,0.11612
2237.34129,0.11619
2235.41255,0.11619
2233.48380,0.11628
2231.55506,0.11650
2229.62632,0.11675
2227.69758,0.11685
2225.76883,0.11678
2223.84009,0.11671
2221.91135,0.11671
2219.98261,0.11673
2218.05386,0.11671
2216.12512,0.11667
2214.19638,0.11655
2212.26764,0.11635
2210.33889,0.11616
2208.41015,0.11604
2206.48141,0.11593
2204.55267,0.11580
2202.62392,0.11573
2200.69518,0.11567
2198.76644,0.11547
2196.83770,0.11513
2194.90895,0.11474
2192.98021,0.11436
2191.05147,0.11394
2189.12273,0.11344
2187.19399,0.11290
2185.26524,0.11239
2183.33650,0.11197
2181.40776,0.11151
2179.47902,0.11087
2177.55027,0.11018
2175.62153,0.10961
2173.69279,0.10914
2171.76405,0.10868
2169.83530,0.10824
2167.90656,0.10778
2165.97782,0.10731
2164.04908,0.10685
2162.12033,0.10634
2160.19159,0.10574
2158.26285,0.10517
2156.33411,0.10478
2154.40536,0.10456
2152.47662,0.10430
2150.54788,0.10385
2148.61914,0.10339
2146.69039,0.10301
2144.76165,0.10263
2142.83291,0.10227
2140.90417,0.10210
2138.97542,0.10209
2137.04668,0.10194
2135.11794,0.10158
2133.18920,0.10119
2131.26045,0.10091
2129.33171,0.10081
2127.40297,0.10083
2125.47423,0.10075
2123.54548,0.10053
2121.61674,0.10035
2119.68800,0.10024
2117.75926,0.09995
2115.83051,0.09951
2113.90177,0.09936
2111.97303,0.09953
2110.04429,0.09957
2108.11554,0.09939
2106.18680,0.09921
2104.25806,0.09911
2102.32932,0.09903
2100.40057,0.09897
2098.47183,0.09898
2096.54309,0.09899
2094.61435,0.09889
2092.68560,0.09880
2090.75686,0.09883
2088.82812,0.09897
2086.89938,0.09905
2084.97063,0.09891
2083.04189,0.09866
2081.11315,0.09855
2079.18441,0.09848
2077.25566,0.09836
2075.32692,0.09834
2073.39818,0.09844
2071.46944,0.09846
2069.54069,0.09832
2067.61195,0.09819
2065.68321,0.09831
2063.75447,0.09851
2061.82572,0.09854
2059.89698,0.09856
2057.96824,0.09878
2056.03950,0.09897
2054.11075,0.09892
2052.18201,0.09877
2050.25327,0.09876
2048.32453,0.09899
2046.39578,0.09928
2044.46704,0.09942
2042.53830,0.09935
2040.60956,0.09926
2038.68081,0.09928
2036.75207,0.09935
2034.82333,0.09939
2032.89459,0.09939
2030.96584,0.09931
2029.03710,0.09926
2027.10836,0.09932
2025.17962,0.09940
2023.25087,0.09953
2021.32213,0.09982
2019.39339,0.10014
2017.46465,0.10034
2015.53590,0.10054
2013.60716,0.10080
2011.67842,0.10098
2009.74968,0.10111
2007.82093,0.10130
2005.89219,0.10145
2003.96345,0.10151
2002.03471,0.10167
2000.10596,0.10194
1998.17722,0.10226
1996.24848,0.10251
1994.31974,0.10267
1992.39099,0.10293
1990.46225,0.10324
1988.53351,0.10339
1986.60477,0.10335
1984.67602,0.10328
1982.74728,0.10332
1980.81854,0.10337
1978.88980,0.10331
1976.96105,0.10324
1975.03231,0.10327
1973.10357,0.10327
1971.17483,0.10324
1969.24608,0.10315
1967.31734,0.10291
1965.38860,0.10267
1963.45986,0.10252
1961.53111,0.10249
1959.60237,0.10249
1957.67363,0.10244
1955.74489,0.10238
1953.81614,0.10241
1951.88740,0.10258
1949.95866,0.10292
1948.02992,0.10333
1946.10117,0.10368
1944.17243,0.10395
1942.24369,0.10424
1940.31495,0.10463
1938.38620,0.10505
1936.45746,0.10534
1934.52872,0.10552
1932.59998,0.10572
1930.67123,0.10596
1928.74249,0.10617
1926.81375,0.10632
1924.88501,0.10652
1922.95626,0.10677
1921.02752,0.10688
1919.09878,0.10684
1917.17004,0.10678
1915.24129,0.10680
1913.31255,0.10700
1911.38381,0.10738
1909.45507,0.10763
1907.52632,0.10749
1905.59758,0.10718
1903.66884,0.10704
1901.74010,0.10704
1899.81135,0.10697
1897.88261,0.10670
1895.95387,0.10635
1894.02513,0.10604
1892.09638,0.10572
1890.16764,0.10544
1888.23890,0.10533
1886.31016,0.10532
1884.38141,0.10532
1882.45267,0.10526
1880.52393,0.10507
1878.59519,0.10475
1876.66644,0.10438
1874.73770,0.10399
1872.80896,0.10371
1870.88022,0.10345
1868.95147,0.10288
1867.02273,0.10203
1865.09399,0.10130
1863.16525,0.10079
1861.23650,0.10029
1859.30776,0.09969
1857.37902,0.09891
1855.45028,0.09797
1853.52153,0.09704
1851.59279,0.09622
1849.66405,0.09542
1847.73531,0.09453
1845.80656,0.09352
1843.87782,0.09240
1841.94908,0.09127
1840.02034,0.09014
1838.09159,0.08896
1836.16285,0.08780
1834.23411,0.08665
1832.30537,0.08547
1830.37662,0.08412
1828.44788,0.08271
1826.51914,0.08138
1824.59040,0.07993
1822.66165,0.07834
1820.73291,0.07692
1818.80417,0.07572
1816.87543,0.07455
1814.94668,0.07323
1813.01794,0.07179
1811.08920,0.07031
1809.16046,0.06881
1807.23171,0.06726
1805.30297,0.06574
1803.37423,0.06421
1801.44549,0.06254
1799.51674,0.06077
1797.58800,0.05910
1795.65926,0.05766
1793.73052,0.05626
1791.80177,0.05469
1789.87303,0.05314
1787.94429,0.05171
1786.01555,0.05014
1784.08680,0.04841
1782.15806,0.04677
1780.22932,0.04519
1778.30058,0.04357
1776.37183,0.04199
1774.44309,0.04037
1772.51435,0.03871
1770.58561,0.03734
1768.65686,0.03624
1766.72812,0.03508
1764.79938,0.03383
1762.87064,0.03261
1760.94189,0.03156
1759.01315,0.03068
1757.08441,0.02979
1755.15567,0.02897
1753.22692,0.02854
1751.29818,0.02864
1749.36944,0.02940
1747.44070,0.03081
1745.51195,0.03265
1743.58321,0.03478
1741.65447,0.03736
1739.72573,0.04048
1737.79698,0.04377
1735.86824,0.04719
1733.93950,0.05118
1732.01076,0.05490
1730.08201,0.05775
1728.15327,0.06017
1726.22453,0.06223
1724.29579,0.06386
1722.36704,0.06500
1720.43830,0.06561
1718.50956,0.06571
1716.58082,0.06527
1714.65207,0.06461
1712.72333,0.06411
1710.79459,0.06368
1708.86585,0.06312
1706.93710,0.06240
1705.00836,0.06164
1703.07962,0.06102
1701.15088,0.06030
1699.22213,0.05940
1697.29339,0.05859
1695.36465,0.05776
1693.43591,0.05713
1691.50716,0.05693
1689.57842,0.05681
1687.64968,0.05655
1685.72094,0.05619
1683.79219,0.05559
1681.86345,0.05505
1679.93471,0.05487
1678.00597,0.05467
1676.07722,0.05426
1674.14848,0.05391
1672.21974,0.05370
1670.29100,0.05342
1668.36225,0.05313
1666.43351,0.05302
1664.50477,0.05290
1662.57603,0.05265
1660.64728,0.05240
1658.71854,0.05234
1656.78980,0.05244
1654.86106,0.05252
1652.93231,0.05235
1651.00357,0.05222
1649.07483,0.05217
1647.14609,0.05178
1645.21735,0.05117
1643.28860,0.05081
1641.35986,0.05070
1639.43112,0.05075
1637.50238,0.05095
1635.57363,0.05116
1633.64489,0.05112
1631.71615,0.05099
1629.78741,0.05095
1627.85866,0.05094
1625.92992,0.05097
1624.00118,0.05097
1622.07244,0.05085
1620.14369,0.05068
1618.21495,0.05054
1616.28621,0.05048
1614.35747,0.05055
1612.42872,0.05058
1610.49998,0.05053
1608.57124,0.05055
1606.64250,0.05057
1604.71375,0.05037
1602.78501,0.04997
1600.85627,0.04972
1598.92753,0.04991
1596.99878,0.05032
1595.07004,0.05064
1593.14130,0.05085
1591.21256,0.05093
1589.28381,0.05089
1587.35507,0.05089
1585.42633,0.05079
1583.49759,0.05042
1581.56884,0.05010
1579.64010,0.05014
1577.71136,0.05049
1575.78262,0.05102
1573.85387,0.05154
1571.92513,0.05194
1569.99639,0.05215
1568.06765,0.05202
1566.13890,0.05162
1564.21016,0.05128
1562.28142,0.05111
1560.35268,0.05078
1558.42393,0.05000
1556.49519,0.04933
1554.56645,0.04920
1552.63771,0.04930
1550.70896,0.04930
1548.78022,0.04907
1546.85148,0.04881
1544.92274,0.04868
1542.99399,0.04866
1541.06525,0.04849
1539.13651,0.04807
1537.20777,0.04772
1535.27902,0.04769
1533.35028,0.04783
1531.42154,0.04792
1529.49280,0.04793
1527.56405,0.04790
1525.63531,0.04776
1523.70657,0.04757
1521.77783,0.04736
1519.84908,0.04698
1517.92034,0.04649
1515.99160,0.04605
1514.06286,0.04571
1512.13411,0.04557
1510.20537,0.04581
1508.27663,0.04628
1506.34789,0.04647
1504.41914,0.04634
1502.49040,0.04630
1500.56166,0.04639
1498.63292,0.04663
1496.70417,0.04685
1494.77543,0.04671
1492.84669,0.04636
1490.91795,0.04601
1488.98920,0.04560
1487.06046,0.04503
1485.13172,0.04437
1483.20298,0.04371
1481.27423,0.04304
1479.34549,0.04252
1477.41675,0.04224
1475.48801,0.04207
1473.55926,0.04199
1471.63052,0.04205
1469.70178,0.04216
1467.77304,0.04230
1465.84429,0.04251
1463.91555,0.04276
1461.98681,0.04297
1460.05807,0.04302
1458.12932,0.04281
1456.20058,0.04258
1454.27184,0.04267
1452.34310,0.04298
1450.41435,0.04344
1448.48561,0.04402
1446.55687,0.04454
1444.62813,0.04482
1442.69938,0.04488
1440.77064,0.04491
1438.84190,0.04501
1436.91316,0.04499
1434.98441,0.04487
1433.05567,0.04478
1431.12693,0.04470
1429.19819,0.04450
1427.26944,0.04412
1425.34070,0.04373
1423.41196,0.04355
1421.48322,0.04340
1419.55447,0.04292
1417.62573,0.04242
1415.69699,0.04240
1413.76825,0.04275
1411.83950,0.04318
1409.91076,0.04356
1407.98202,0.04387
1406.05328,0.04408
1404.12453,0.04399
1402.19579,0.04364
1400.26705,0.04334
1398.33831,0.04321
1396.40956,0.04307
1394.48082,0.04281
1392.55208,0.04257
1390.62334,0.04239
1388.69459,0.04234
1386.76585,0.04252
1384.83711,0.04279
1382.90837,0.04300
1380.97962,0.04313
1379.05088,0.04319
1377.12214,0.04333
1375.19340,0.04360
1373.26465,0.04382
1371.33591,0.04394
1369.40717,0.04402
1367.47843,0.04401
1365.54968,0.04385
1363.62094,0.04358
1361.69220,0.04330
1359.76346,0.04306
1357.83471,0.04284
1355.90597,0.04270
1353.97723,0.04254
1352.04849,0.04224
1350.11974,0.04198
1348.19100,0.04192
1346.26226,0.04196
1344.33352,0.04188
1342.40477,0.04170
1340.47603,0.04155
1338.54729,0.04140
1336.61855,0.04108
1334.68980,0.04061
1332.76106,0.04034
1330.83232,0.04037
1328.90358,0.04045
1326.97483,0.04037
1325.04609,0.04014
1323.11735,0.03995
1321.18861,0.03989
1319.25986,0.03982
1317.33112,0.03951
1315.40238,0.03905
1313.47364,0.03874
1311.54489,0.03864
1309.61615,0.03863
1307.68741,0.03862
1305.75867,0.03852
1303.82992,0.03842
1301.90118,0.03853
1299.97244,0.03885
1298.04370,0.03910
1296.11495,0.03903
1294.18621,0.03885
1292.25747,0.03888
1290.32873,0.03898
1288.39998,0.03897
1286.47124,0.03888
1284.54250,0.03857
1282.61376,0.03821
1280.68501,0.03826
1278.75627,0.03869
1276.82753,0.03908
1274.89879,0.03931
1272.97004,0.03954
1271.04130,0.03981
1269.11256,0.04007
1267.18382,0.04041
1265.25507,0.04087
1263.32633,0.04125
1261.39759,0.04144
1259.46885,0.04157
1257.54010,0.04170
1255.61136,0.04187
1253.68262,0.04205
1251.75388,0.04220
1249.82513,0.04235
1247.89639,0.04250
1245.96765,0.04263
1244.03891,0.04276
1242.11016,0.04300
1240.18142,0.04344
1238.25268,0.04380
1236.32394,0.04384
1234.39519,0.04369
1232.46645,0.04366
1230.53771,0.04381
1228.60897,0.04383
1226.68022,0.04376
1224.75148,0.04386
1222.82274,0.04408
1220.89400,0.04419
1218.96525,0.04421
1217.03651,0.04432
1215.10777,0.04453
1213.17903,0.04477
1211.25028,0.04499
1209.32154,0.04506
1207.39280,0.04496
1205.46406,0.04487
1203.53531,0.04484
1201.60657,0.04491
1199.67783,0.04515
1197.74909,0.04557
1195.82034,0.04599
1193.89160,0.04635
1191.96286,0.04670
1190.03412,0.04702
1188.10537,0.04722
1186.17663,0.04730
1184.24789,0.04736
1182.31915,0.04754
1180.39040,0.04790
1178.46166,0.04830
1176.53292,0.04862
1174.60418,0.04890
1172.67543,0.04930
1170.74669,0.04987
1168.81795,0.05050
1166.88921,0.05113
1164.96046,0.05180
1163.03172,0.05258
1161.10298,0.05352
1159.17424,0.05449
1157.24549,0.05536
1155.31675,0.05610
1153.38801,0.05669
1151.45927,0.05708
1149.53052,0.05731
1147.60178,0.05745
1145.67304,0.05748
1143.74430,0.05753
1141.81555,0.05757
1139.88681,0.05746
1137.95807,0.05718
1136.02933,0.05680
1134.10058,0.05637
1132.17184,0.05608
1130.24310,0.05602
1128.31436,0.05599
1126.38561,0.05600
1124.45687,0.05624
1122.52813,0.05651
1120.59939,0.05651
1118.67064,0.05634
1116.74190,0.05642
1114.81316,0.05702
1112.88442,0.05775
1110.95567,0.05800
1109.02693,0.05801
1107.09819,0.05826
1105.16945,0.05857
1103.24070,0.05895
1101.31196,0.05950
1099.38322,0.05983
1097.45448,0.06004
1095.52574,0.06047
1093.59699,0.06073
1091.66825,0.06056
1089.73951,0.06028
1087.81077,0.06002
1085.88202,0.05975
1083.95328,0.05952
1082.02454,0.05938
1080.09580,0.05936
1078.16705,0.05948
1076.23831,0.05970
1074.30957,0.06004
1072.38083,0.06063
1070.45208,0.06134
1068.52334,0.06187
1066.59460,0.06232
1064.66586,0.06302
1062.73711,0.06379
1060.80837,0.06436
1058.87963,0.06472
1056.95089,0.06495
1055.02214,0.06514
1053.09340,0.06540
1051.16466,0.06579
1049.23592,0.06620
1047.30717,0.06634
1045.37843,0.06622
1043.44969,0.06632
1041.52095,0.06683
1039.59220,0.06726
1037.66346,0.06738
1035.73472,0.06746
1033.80598,0.06771
1031.87723,0.06808
1029.94849,0.06845
1028.01975,0.06868
1026.09101,0.06870
1024.16226,0.06857
1022.23352,0.06864
1020.30478,0.06898
1018.37604,0.06924
1016.44729,0.06926
1014.51855,0.06921
1012.58981,0.06915
1010.66107,0.06913
1008.73232,0.06918
1006.80358,0.06922
1004.87484,0.06916
1002.94610,0.06908
1001.01735,0.06918
999.08861,0.06930
997.15987,0.06912
995.23113,0.06881
993.30238,0.06879
991.37364,0.06895
989.44490,0.06903
987.51616,0.06909
985.58741,0.06919
983.65867,0.06948
981.72993,0.06991
979.80119,0.07009
977.87244,0.06991
975.94370,0.06961
974.01496,0.06933
972.08622,0.06914
970.15747,0.06900
968.22873,0.06890
966.29999,0.06880
964.37125,0.06870
962.44250,0.06857
960.51376,0.06842
958.58502,0.06834
956.65628,0.06832
954.72753,0.06824
952.79879,0.06821
950.87005,0.06829
948.94131,0.06828
947.01256,0.06782
945.08382,0.06713
943.15508,0.06680
941.22634,0.06679
939.29759,0.06676
937.36885,0.06662
935.44011,0.06633
933.51137,0.06589
931.58262,0.06567
929.65388,0.06591
927.72514,0.06623
925.79640,0.06625
923.86765,0.06604
921.93891,0.06578
920.01017,0.06559
918.08143,0.06564
916.15268,0.06574
914.22394,0.06560
912.29520,0.06530
910.36646,0.06501
908.43771,0.06494
906.50897,0.06500
904.58023,0.06485
902.65149,0.06447
900.72274,0.06413
898.79400,0.06410
896.86526,0.06441
894.93652,0.06485
893.00777,0.06521
891.07903,0.06544
889.15029,0.06565
887.22155,0.06596
885.29280,0.06616
883.36406,0.06611
881.43532,0.06601
879.50658,0.06595
877.57783,0.06578
875.64909,0.06551
873.72035,0.06520
871.79161,0.06491
869.86286,0.06476
867.93412,0.06464
866.00538,0.06440
864.07664,0.06414
862.14789,0.06381
860.21915,0.06342
858.29041,0.06325
856.36167,0.06319
854.43292,0.06284
852.50418,0.06233
850.57544,0.06200
848.64670,0.06191
846.71795,0.06200
844.78921,0.06196
842.86047,0.06158
840.93173,0.06118
839.00298,0.06103
837.07424,0.06091
835.14550,0.06071
833.21676,0.06066
831.28801,0.06084
829.35927,0.06109
827.43053,0.06133
825.50179,0.06154
823.57304,0.06154
821.64430,0.06131
819.71556,0.06125
817.78682,0.06146
815.85807,0.06145
813.92933,0.06126
812.00059,0.06131
810.07185,0.06162
808.14310,0.06208
806.21436,0.06272
804.28562,0.06326
802.35688,0.06340
800.42813,0.06335
798.49939,0.06327
796.57065,0.06328
794.64191,0.06348
792.71316,0.06340
790.78442,0.06277
788.85568,0.06217
786.92694,0.06200
784.99819,0.06188
783.06945,0.06153
781.14071,0.06118
779.21197,0.06090
777.28322,0.06056
775.35448,0.06029
773.42574,0.06032
771.49700,0.06058
769.56825,0.06073
767.63951,0.06080
765.71077,0.06088
763.78203,0.06075
761.85328,0.06051
759.92454,0.06034
757.99580,0.06029
756.06706,0.06034
754.13831,0.06014
752.20957,0.05966
750.28083,0.05940
748.35209,0.05944
746.42334,0.05971
744.49460,0.06010
742.56586,0.06019
740.63712,0.06000
738.70837,0.06018
736.77963,0.06087
734.85089,0.06149
732.92215,0.06179
730.99340,0.06213
729.06466,0.06276
727.13592,0.06334
725.20718,0.06329
723.27843,0.06264
721.34969,0.06211
719.42095,0.06207
717.49221,0.06211
715.56346,0.06193
713.63472,0.06172
711.70598,0.06170
709.77724,0.06180
707.84849,0.06190
705.91975,0.06205
703.99101,0.06231
702.06227,0.06250
700.13352,0.06287
698.20478,0.06381
696.27604,0.06499
694.34730,0.06591
692.41855,0.06669
690.48981,0.06754
688.56107,0.06845
686.63233,0.06936
684.70358,0.06998
682.77484,0.07006
680.84610,0.07010
678.91736,0.07016
676.98861,0.07007
675.05987,0.07019
673.13113,0.07037
671.20239,0.07005
669.27364,0.06877
667.34490,0.06674
665.41616,0.06469
663.48742,0.06273
661.55867,0.06136
659.62993,0.06104
657.70119,0.06092
655.77245,0.06060
653.84370,0.06022
651.91496,0.05966
649.98622,0.05905
648.05748,0.05862
646.12873,0.05844
644.19999,0.05848
642.27125,0.05842
640.34251,0.05813
638.41376,0.05793
636.48502,0.05788
634.55628,0.05769
632.62754,0.05717
630.69879,0.05636
628.77005,0.05588
626.84131,0.05606
624.91257,0.05608
622.98382,0.05541
621.05508,0.05529
619.12634,0.05637
617.19760,0.05725
615.26885,0.05734
613.34011,0.05700
611.41137,0.05658
609.48263,0.05726
607.55388,0.05857
605.62514,0.05825
603.69640,0.05665
601.76766,0.05608
599.83891,0.05688
