7497.03301,0.04064
7495.10426,0.04377
7493.17552,0.04315
7491.24677,0.03864
7489.31803,0.03239
7487.38928,0.03082
7485.46054,0.03535
7483.53179,0.04047
7481.60305,0.04319
7479.67430,0.04326
7477.74556,0.04160
7475.81681,0.04172
7473.88807,0.04321
7471.95932,0.04194
7470.03057,0.03877
7468.10183,0.03998
7466.17308,0.04628
7464.24434,0.04929
7462.31559,0.04644
7460.38685,0.04603
7458.45810,0.04898
7456.52936,0.04789
7454.60061,0.04170
7452.67187,0.03741
7450.74312,0.03865
7448.81438,0.04133
7446.88563,0.03970
7444.95689,0.03754
7443.02814,0.03870
7441.09940,0.03913
7439.17065,0.03741
7437.24190,0.03556
7435.31316,0.03327
7433.38441,0.03135
7431.45567,0.02948
7429.52692,0.03130
7427.59818,0.03757
7425.66943,0.04025
7423.74069,0.03615
7421.81194,0.03305
7419.88320,0.03582
7417.95445,0.04113
7416.02571,0.04363
7414.09696,0.04352
7412.16822,0.04291
7410.23947,0.04218
7408.31073,0.04134
7406.38198,0.04033
7404.45323,0.03876
7402.52449,0.03750
7400.59574,0.03699
7398.66700,0.03920
7396.73825,0.04356
7394.80951,0.04526
7392.88076,0.04214
7390.95202,0.03839
7389.02327,0.03803
7387.09453,0.03849
7385.16578,0.03760
7383.23704,0.03835
7381.30829,0.04015
7379.37955,0.04074
7377.45080,0.04112
7375.52205,0.04252
7373.59331,0.04303
7371.66456,0.04187
7369.73582,0.03997
7367.80707,0.03728
7365.87833,0.03502
7363.94958,0.03669
7362.02084,0.04085
7360.09209,0.04183
7358.16335,0.03967
7356.23460,0.03954
7354.30586,0.04060
7352.37711,0.03883
7350.44837,0.03443
7348.51962,0.03221
7346.59088,0.03461
7344.66213,0.03768
7342.73338,0.03831
7340.80464,0.03876
7338.87589,0.03992
7336.94715,0.04131
7335.01840,0.04131
7333.08966,0.04003
7331.16091,0.03956
7329.23217,0.03925
7327.30342,0.03567
7325.37468,0.03225
7323.44593,0.03416
7321.51719,0.03885
7319.58844,0.04068
7317.65970,0.04069
7315.73095,0.04392
7313.80221,0.04769
7311.87346,0.04549
7309.94471,0.03949
7308.01597,0.03688
7306.08722,0.03863
7304.15848,0.03989
7302.22973,0.03927
7300.30099,0.03825
7298.37224,0.03863
7296.44350,0.03916
7294.51475,0.03828
7292.58601,0.03688
7290.65726,0.03565
7288.72852,0.03604
7286.79977,0.03769
7284.87103,0.03812
7282.94228,0.03740
7281.01353,0.03549
7279.08479,0.03368
7277.15604,0.03482
7275.22730,0.03779
7273.29855,0.03822
7271.36981,0.03606
7269.44106,0.03549
7267.51232,0.03780
7265.58357,0.04065
7263.65483,0.04201
7261.72608,0.04191
7259.79734,0.04042
7257.86859,0.03721
7255.93985,0.03639
7254.01110,0.03927
7252.08236,0.04013
7250.15361,0.03762
7248.22486,0.03690
7246.29612,0.03920
7244.36737,0.04019
7242.43863,0.03877
7240.50988,0.03899
7238.58114,0.04091
7236.65239,0.04135
7234.72365,0.03981
7232.79490,0.03763
7230.86616,0.03665
7228.93741,0.03794
7227.00867,0.03960
7225.07992,0.03850
7223.15118,0.03555
7221.22243,0.03512
7219.29369,0.03829
7217.36494,0.04329
7215.43619,0.04441
7213.50745,0.03835
7211.57870,0.03235
7209.64996,0.03285
7207.72121,0.03463
7205.79247,0.03379
7203.86372,0.03344
7201.93498,0.03365
7200.00623,0.03228
7198.07749,0.03242
7196.14874,0.03606
7194.22000,0.03967
7192.29125,0.03956
7190.36251,0.03725
7188.43376,0.03708
7186.50501,0.03900
7184.57627,0.03901
7182.64752,0.03849
7180.71878,0.03918
7178.79003,0.03824
7176.86129,0.03696
7174.93254,0.03701
7173.00380,0.03664
7171.07505,0.03765
7169.14631,0.03889
7167.21756,0.03754
7165.28882,0.03607
7163.36007,0.03522
7161.43133,0.03270
7159.50258,0.02980
7157.57384,0.02894
7155.64509,0.02979
7153.71634,0.03208
7151.78760,0.03681
7149.85885,0.04289
7147.93011,0.04599
7146.00136,0.04389
7144.07262,0.03930
7142.14387,0.03438
7140.21513,0.03205
7138.28638,0.03419
7136.35764,0.03800
7134.42889,0.04208
7132.50015,0.04488
7130.57140,0.04343
7128.64266,0.04026
7126.71391,0.03821
7124.78516,0.03564
7122.85642,0.03334
7120.92767,0.03576
7118.99893,0.04174
7117.07018,0.04382
7115.14144,0.03985
7113.21269,0.03590
7111.28395,0.03748
7109.35520,0.04321
7107.42646,0.04533
7105.49771,0.04065
7103.56897,0.03609
7101.64022,0.03633
7099.71148,0.03860
7097.78273,0.04060
7095.85399,0.04097
7093.92524,0.03948
7091.99649,0.04019
7090.06775,0.04276
7088.13900,0.04151
7086.21026,0.03885
7084.28151,0.03947
7082.35277,0.04091
7080.42402,0.04070
7078.49528,0.03918
7076.56653,0.03707
7074.63779,0.03731
7072.70904,0.03970
7070.78030,0.04035
7068.85155,0.03755
7066.92281,0.03387
7064.99406,0.03431
7063.06532,0.03781
7061.13657,0.03823
7059.20782,0.03619
7057.27908,0.03513
7055.35033,0.03618
7053.42159,0.03985
7051.49284,0.04185
7049.56410,0.03938
7047.63535,0.03758
7045.70661,0.03832
7043.77786,0.04023
7041.84912,0.04301
7039.92037,0.04438
7037.99163,0.04190
7036.06288,0.03807
7034.13414,0.03578
7032.20539,0.03618
7030.27664,0.03965
7028.34790,0.04285
7026.41915,0.04241
7024.49041,0.04020
7022.56166,0.03834
7020.63292,0.03812
7018.70417,0.03927
7016.77543,0.04062
7014.84668,0.04261
7012.91794,0.04317
7010.98919,0.04051
7009.06045,0.03764
7007.13170,0.03592
7005.20296,0.03456
7003.27421,0.03429
7001.34547,0.03662
6999.41672,0.04066
6997.48797,0.04316
6995.55923,0.04104
6993.63048,0.03675
6991.70174,0.03582
6989.77299,0.03814
6987.84425,0.03930
6985.91550,0.03868
6983.98676,0.03826
6982.05801,0.03727
6980.12927,0.03498
6978.20052,0.03461
6976.27178,0.03682
6974.34303,0.03756
6972.41429,0.03499
6970.48554,0.03325
6968.55680,0.03486
6966.62805,0.03911
6964.69930,0.04170
6962.77056,0.04102
6960.84181,0.03959
6958.91307,0.03877
6956.98432,0.03713
6955.05558,0.03503
6953.12683,0.03447
6951.19809,0.03658
6949.26934,0.04001
6947.34060,0.04260
6945.41185,0.04185
6943.48311,0.03865
6941.55436,0.03666
6939.62562,0.03603
6937.69687,0.03568
6935.76812,0.03675
6933.83938,0.03890
6931.91063,0.04144
6929.98189,0.04267
6928.05314,0.04037
6926.12440,0.03695
6924.19565,0.03817
6922.26691,0.04202
6920.33816,0.04300
6918.40942,0.04181
6916.48067,0.04082
6914.55193,0.03823
6912.62318,0.03582
6910.69444,0.03729
6908.76569,0.03943
6906.83695,0.03751
6904.90820,0.03412
6902.97945,0.03386
6901.05071,0.03641
6899.12196,0.03902
6897.19322,0.03982
6895.26447,0.03863
6893.33573,0.03705
6891.40698,0.03551
6889.47824,0.03465
6887.54949,0.03575
6885.62075,0.03810
6883.69200,0.03985
6881.76326,0.04006
6879.83451,0.03884
6877.90577,0.03725
6875.97702,0.03532
6874.04828,0.03386
6872.11953,0.03389
6870.19078,0.03353
6868.26204,0.03207
6866.33329,0.03210
6864.40455,0.03466
6862.47580,0.03757
6860.54706,0.03871
6858.61831,0.03781
6856.68957,0.03616
6854.76082,0.03694
6852.83208,0.03953
6850.90333,0.04070
6848.97459,0.04143
6847.04584,0.04235
6845.11710,0.04245
6843.18835,0.04178
6841.25960,0.04048
6839.33086,0.03979
6837.40211,0.03947
6835.47337,0.03784
6833.54462,0.03558
6831.61588,0.03486
6829.68713,0.03552
6827.75839,0.03525
6825.82964,0.03402
6823.90090,0.03518
6821.97215,0.03916
6820.04341,0.04111
6818.11466,0.03879
6816.18592,0.03623
6814.25717,0.03649
6812.32843,0.03782
6810.39968,0.03831
6808.47093,0.03821
6806.54219,0.03840
6804.61344,0.03918
6802.68470,0.03829
6800.75595,0.03559
6798.82721,0.03486
6796.89846,0.03611
6794.96972,0.03622
6793.04097,0.03521
6791.11223,0.03424
6789.18348,0.03316
6787.25474,0.03366
6785.32599,0.03664
6783.39725,0.03837
6781.46850,0.03661
6779.53975,0.03412
6777.61101,0.03398
6775.68226,0.03628
6773.75352,0.03958
6771.82477,0.04166
6769.89603,0.04109
6767.96728,0.04025
6766.03854,0.04148
6764.10979,0.04226
6762.18105,0.04097
6760.25230,0.03963
6758.32356,0.03942
6756.39481,0.03851
6754.46607,0.03772
6752.53732,0.03779
6750.60858,0.03764
6748.67983,0.03700
6746.75108,0.03720
6744.82234,0.03796
6742.89359,0.03700
6740.96485,0.03487
6739.03610,0.03492
6737.10736,0.03689
6735.17861,0.03828
6733.24987,0.03850
6731.32112,0.03835
6729.39238,0.03792
6727.46363,0.03804
6725.53489,0.03898
6723.60614,0.03887
6721.67740,0.03742
6719.74865,0.03609
6717.81991,0.03504
6715.89116,0.03450
6713.96241,0.03488
6712.03367,0.03647
6710.10492,0.03952
6708.17618,0.04093
6706.24743,0.03895
6704.31869,0.03710
6702.38994,0.03724
6700.46120,0.03864
6698.53245,0.03966
6696.60371,0.03879
6694.67496,0.03706
6692.74622,0.03668
6690.81747,0.03782
6688.88873,0.03854
6686.95998,0.03904
6685.03123,0.04076
6683.10249,0.04224
6681.17374,0.04207
6679.24500,0.04081
6677.31625,0.04028
6675.38751,0.04139
6673.45876,0.04243
6671.53002,0.04110
6669.60127,0.03889
6667.67253,0.03800
6665.74378,0.03756
6663.81504,0.03636
6661.88629,0.03634
6659.95755,0.03933
6658.02880,0.04166
6656.10006,0.03904
6654.17131,0.03501
6652.24256,0.03462
6650.31382,0.03748
6648.38507,0.03874
6646.45633,0.03634
6644.52758,0.03406
6642.59884,0.03472
6640.67009,0.03554
6638.74135,0.03436
6636.81260,0.03329
6634.88386,0.03461
6632.95511,0.03792
6631.02637,0.04065
6629.09762,0.04046
6627.16888,0.03874
6625.24013,0.03692
6623.31139,0.03551
6621.38264,0.03587
6619.45389,0.03678
6617.52515,0.03609
6615.59640,0.03522
6613.66766,0.03556
6611.73891,0.03717
6609.81017,0.03970
6607.88142,0.04141
6605.95268,0.04006
6604.02393,0.03718
6602.09519,0.03612
6600.16644,0.03746
6598.23770,0.03941
6596.30895,0.04009
6594.38021,0.03887
6592.45146,0.03720
6590.52271,0.03606
6588.59397,0.03525
6586.66522,0.03479
6584.73648,0.03500
6582.80773,0.03635
6580.87899,0.03781
6578.95024,0.03778
6577.02150,0.03611
6575.09275,0.03393
6573.16401,0.03353
6571.23526,0.03433
6569.30652,0.03430
6567.37777,0.03473
6565.44903,0.03544
6563.52028,0.03524
6561.59154,0.03555
6559.66279,0.03694
6557.73404,0.03799
6555.80530,0.03829
6553.87655,0.03859
6551.94781,0.03774
6550.01906,0.03546
6548.09032,0.03468
6546.16157,0.03615
6544.23283,0.03717
6542.30408,0.03708
6540.37534,0.03749
6538.44659,0.03863
6536.51785,0.03841
6534.58910,0.03634
6532.66036,0.03512
6530.73161,0.03599
6528.80287,0.03737
6526.87412,0.03791
6524.94537,0.03738
6523.01663,0.03728
6521.08788,0.03788
6519.15914,0.03778
6517.23039,0.03709
6515.30165,0.03742
6513.37290,0.03802
6511.44416,0.03704
6509.51541,0.03636
6507.58667,0.03747
6505.65792,0.03819
6503.72918,0.03769
6501.80043,0.03671
6499.87169,0.03591
6497.94294,0.03523
6496.01419,0.03443
6494.08545,0.03412
6492.15670,0.03533
6490.22796,0.03763
6488.29921,0.03858
6486.37047,0.03768
6484.44172,0.03711
6482.51298,0.03654
6480.58423,0.03610
6478.65549,0.03802
6476.72674,0.04098
6474.79800,0.04146
6472.86925,0.03925
6470.94051,0.03627
6469.01176,0.03393
6467.08302,0.03302
6465.15427,0.03365
6463.22552,0.03510
6461.29678,0.03656
6459.36803,0.03812
6457.43929,0.03985
6455.51054,0.04031
6453.58180,0.03906
6451.65305,0.03824
6449.72431,0.03881
6447.79556,0.03865
6445.86682,0.03725
6443.93807,0.03620
6442.00933,0.03580
6440.08058,0.03584
6438.15184,0.03632
6436.22309,0.03690
6434.29434,0.03716
6432.36560,0.03635
6430.43685,0.03566
6428.50811,0.03635
6426.57936,0.03680
6424.65062,0.03612
6422.72187,0.03565
6420.79313,0.03573
6418.86438,0.03606
6416.93564,0.03755
6415.00689,0.04008
6413.07815,0.04079
6411.14940,0.03863
6409.22066,0.03614
6407.29191,0.03506
6405.36317,0.03506
6403.43442,0.03630
6401.50567,0.03831
6399.57693,0.03942
6397.64818,0.03926
6395.71944,0.03841
6393.79069,0.03756
6391.86195,0.03678
6389.93320,0.03521
6388.00446,0.03458
6386.07571,0.03636
6384.14697,0.03742
6382.21822,0.03655
6380.28948,0.03653
6378.36073,0.03789
6376.43199,0.03965
6374.50324,0.04060
6372.57450,0.03887
6370.64575,0.03548
6368.71700,0.03357
6366.78826,0.03403
6364.85951,0.03510
6362.93077,0.03524
6361.00202,0.03537
6359.07328,0.03607
6357.14453,0.03699
6355.21579,0.03847
6353.28704,0.03975
6351.35830,0.03920
6349.42955,0.03631
6347.50081,0.03310
6345.57206,0.03255
6343.64332,0.03350
6341.71457,0.03387
6339.78582,0.03430
6337.85708,0.03551
6335.92833,0.03742
6333.99959,0.03894
6332.07084,0.03900
6330.14210,0.03850
6328.21335,0.03813
6326.28461,0.03793
6324.35586,0.03777
6322.42712,0.03678
6320.49837,0.03475
6318.56963,0.03371
6316.64088,0.03486
6314.71214,0.03580
6312.78339,0.03446
6310.85465,0.03332
6308.92590,0.03474
6306.99715,0.03642
6305.06841,0.03630
6303.13966,0.03597
6301.21092,0.03689
6299.28217,0.03798
6297.35343,0.03805
6295.42468,0.03808
6293.49594,0.03872
6291.56719,0.03891
6289.63845,0.03813
6287.70970,0.03628
6285.78096,0.03413
6283.85221,0.03490
6281.92347,0.03959
6279.99472,0.04309
6278.06598,0.04177
6276.13723,0.03936
6274.20848,0.03928
6272.27974,0.04031
6270.35099,0.04023
6268.42225,0.03848
6266.49350,0.03652
6264.56476,0.03586
6262.63601,0.03706
6260.70727,0.03930
6258.77852,0.03954
6256.84978,0.03685
6254.92103,0.03459
6252.99229,0.03496
6251.06354,0.03635
6249.13480,0.03692
6247.20605,0.03665
6245.27730,0.03649
6243.34856,0.03702
6241.41981,0.03753
6239.49107,0.03776
6237.56232,0.03842
6235.63358,0.03876
6233.70483,0.03812
6231.77609,0.03818
6229.84734,0.03977
6227.91860,0.04110
6225.98985,0.04077
6224.06111,0.03909
6222.13236,0.03713
6220.20362,0.03611
6218.27487,0.03602
6216.34613,0.03657
6214.41738,0.03862
6212.48863,0.04034
6210.55989,0.03943
6208.63114,0.03785
6206.70240,0.03727
6204.77365,0.03635
6202.84491,0.03454
6200.91616,0.03317
6198.98742,0.03376
6197.05867,0.03608
6195.12993,0.03810
6193.20118,0.03821
6191.27244,0.03683
6189.34369,0.03546
6187.41495,0.03470
6185.48620,0.03472
6183.55746,0.03558
6181.62871,0.03640
6179.69996,0.03624
6177.77122,0.03499
6175.84247,0.03384
6173.91373,0.03405
6171.98498,0.03495
6170.05624,0.03554
6168.12749,0.03549
6166.19875,0.03425
6164.27000,0.03287
6162.34126,0.03351
6160.41251,0.03520
6158.48377,0.03484
6156.55502,0.03349
6154.62628,0.03433
6152.69753,0.03656
6150.76878,0.03798
6148.84004,0.03823
6146.91129,0.03750
6144.98255,0.03668
6143.05380,0.03658
6141.12506,0.03681
6139.19631,0.03675
6137.26757,0.03693
6135.33882,0.03702
6133.41008,0.03592
6131.48133,0.03471
6129.55259,0.03496
6127.62384,0.03673
6125.69510,0.03844
6123.76635,0.03788
6121.83761,0.03572
6119.90886,0.03485
6117.98011,0.03625
6116.05137,0.03788
6114.12262,0.03797
6112.19388,0.03751
6110.26513,0.03792
6108.33639,0.03892
6106.40764,0.03944
6104.47890,0.03923
6102.55015,0.03839
6100.62141,0.03696
6098.69266,0.03595
6096.76392,0.03595
6094.83517,0.03657
6092.90643,0.03695
6090.97768,0.03657
6089.04893,0.03597
6087.12019,0.03587
6085.19144,0.03576
6083.26270,0.03554
6081.33395,0.03587
6079.40521,0.03668
6077.47646,0.03778
6075.54772,0.03903
6073.61897,0.03943
6071.69023,0.03900
6069.76148,0.03882
6067.83274,0.03923
6065.90399,0.03935
6063.97525,0.03847
6062.04650,0.03740
6060.11776,0.03701
6058.18901,0.03744
6056.26026,0.03867
6054.33152,0.03943
6052.40277,0.03895
6050.47403,0.03871
6048.54528,0.03958
6046.61654,0.04001
6044.68779,0.03910
6042.75905,0.03799
6040.83030,0.03772
6038.90156,0.03784
6036.97281,0.03765
6035.04407,0.03750
6033.11532,0.03793
6031.18658,0.03795
6029.25783,0.03725
6027.32909,0.03674
6025.40034,0.03624
6023.47159,0.03617
6021.54285,0.03708
6019.61410,0.03673
6017.68536,0.03478
6015.75661,0.03482
6013.82787,0.03705
6011.89912,0.03822
6009.97038,0.03784
6008.04163,0.03728
6006.11289,0.03737
6004.18414,0.03800
6002.25540,0.03784
6000.32665,0.03653
5998.39791,0.03559
5996.46916,0.03596
5994.54041,0.03693
5992.61167,0.03711
5990.68292,0.03581
5988.75418,0.03401
5986.82543,0.03357
5984.89669,0.03428
5982.96794,0.03498
5981.03920,0.03557
5979.11045,0.03573
5977.18171,0.03566
5975.25296,0.03608
5973.32422,0.03626
5971.39547,0.03565
5969.46673,0.03535
5967.53798,0.03658
5965.60924,0.03856
5963.68049,0.03923
5961.75174,0.03824
5959.82300,0.03716
5957.89425,0.03698
5955.96551,0.03730
5954.03676,0.03748
5952.10802,0.03716
5950.17927,0.03640
5948.25053,0.03562
5946.32178,0.03544
5944.39304,0.03634
5942.46429,0.03730
5940.53555,0.03731
5938.60680,0.03708
5936.67806,0.03737
5934.74931,0.03755
5932.82057,0.03668
5930.89182,0.03509
5928.96307,0.03383
5927.03433,0.03419
5925.10558,0.03654
5923.17684,0.03869
5921.24809,0.03925
5919.31935,0.03865
5917.39060,0.03749
5915.46186,0.03713
5913.53311,0.03802
5911.60437,0.03878
5909.67562,0.03918
5907.74688,0.03963
5905.81813,0.03948
5903.88939,0.03846
5901.96064,0.03724
5900.03189,0.03679
5898.10315,0.03750
5896.17440,0.03810
5894.24566,0.03798
5892.31691,0.03821
5890.38817,0.03862
5888.45942,0.03798
5886.53068,0.03743
5884.60193,0.03821
5882.67319,0.03870
5880.74444,0.03763
5878.81570,0.03625
5876.88695,0.03600
5874.95821,0.03653
5873.02946,0.03678
5871.10072,0.03704
5869.17197,0.03766
5867.24322,0.03821
5865.31448,0.03858
5863.38573,0.03902
5861.45699,0.03950
5859.52824,0.03972
5857.59950,0.03930
5855.67075,0.03816
5853.74201,0.03691
5851.81326,0.03622
5849.88452,0.03588
5847.95577,0.03563
5846.02703,0.03561
5844.09828,0.03614
5842.16954,0.03722
5840.24079,0.03839
5838.31205,0.03885
5836.38330,0.03813
5834.45455,0.03726
5832.52581,0.03738
5830.59706,0.03801
5828.66832,0.03838
5826.73957,0.03752
5824.81083,0.03557
5822.88208,0.03511
5820.95334,0.03652
5819.02459,0.03714
5817.09585,0.03691
5815.16710,0.03677
5813.23836,0.03655
5811.30961,0.03711
5809.38087,0.03826
5807.45212,0.03880
5805.52337,0.03887
5803.59463,0.03901
5801.66588,0.03942
5799.73714,0.03934
5797.80839,0.03846
5795.87965,0.03764
5793.95090,0.03684
5792.02216,0.03583
5790.09341,0.03553
5788.16467,0.03592
5786.23592,0.03562
5784.30718,0.03479
5782.37843,0.03556
5780.44969,0.03792
5778.52094,0.03881
5776.59220,0.03730
5774.66345,0.03643
5772.73470,0.03766
5770.80596,0.03837
5768.87721,0.03690
5766.94847,0.03543
5765.01972,0.03551
5763.09098,0.03651
5761.16223,0.03765
5759.23349,0.03789
5757.30474,0.03741
5755.37600,0.03746
5753.44725,0.03769
5751.51851,0.03778
5749.58976,0.03829
5747.66102,0.03896
5745.73227,0.03890
5743.80352,0.03792
5741.87478,0.03671
5739.94603,0.03612
5738.01729,0.03686
5736.08854,0.03853
5734.15980,0.03951
5732.23105,0.03927
5730.30231,0.03864
5728.37356,0.03795
5726.44482,0.03716
5724.51607,0.03694
5722.58733,0.03748
5720.65858,0.03828
5718.72984,0.03955
5716.80109,0.04055
5714.87235,0.03996
5712.94360,0.03862
5711.01485,0.03765
5709.08611,0.03703
5707.15736,0.03709
5705.22862,0.03777
5703.29987,0.03775
5701.37113,0.03703
5699.44238,0.03705
5697.51364,0.03769
5695.58489,0.03754
5693.65615,0.03680
5691.72740,0.03707
5689.79866,0.03814
5687.86991,0.03834
5685.94117,0.03788
5684.01242,0.03776
5682.08368,0.03808
5680.15493,0.03813
5678.22618,0.03749
5676.29744,0.03729
5674.36869,0.03791
5672.43995,0.03817
5670.51120,0.03803
5668.58246,0.03801
5666.65371,0.03781
5664.72497,0.03763
5662.79622,0.03762
5660.86748,0.03731
5658.93873,0.03716
5657.00999,0.03729
5655.08124,0.03685
5653.15250,0.03620
5651.22375,0.03606
5649.29500,0.03666
5647.36626,0.03820
5645.43751,0.03949
5643.50877,0.03876
5641.58002,0.03652
5639.65128,0.03536
5637.72253,0.03610
5635.79379,0.03717
5633.86504,0.03791
5631.93630,0.03815
5630.00755,0.03713
5628.07881,0.03600
5626.15006,0.03594
5624.22132,0.03604
5622.29257,0.03596
5620.36383,0.03646
5618.43508,0.03730
5616.50633,0.03806
5614.57759,0.03874
5612.64884,0.03893
5610.72010,0.03869
5608.79135,0.03864
5606.86261,0.03864
5604.93386,0.03842
5603.00512,0.03786
5601.07637,0.03713
5599.14763,0.03705
5597.21888,0.03751
5595.29014,0.03763
5593.36139,0.03790
5591.43265,0.03883
5589.50390,0.03954
5587.57516,0.03924
5585.64641,0.03813
5583.71766,0.03698
5581.78892,0.03654
5579.86017,0.03692
5577.93143,0.03784
5576.00268,0.03876
5574.07394,0.03924
5572.14519,0.03888
5570.21645,0.03811
5568.28770,0.03826
5566.35896,0.03930
5564.43021,0.03969
5562.50147,0.03915
5560.57272,0.03898
5558.64398,0.03952
5556.71523,0.03923
5554.78648,0.03802
5552.85774,0.03756
5550.92899,0.03805
5549.00025,0.03850
5547.07150,0.03861
5545.14276,0.03872
5543.21401,0.03888
5541.28527,0.03881
5539.35652,0.03917
5537.42778,0.04024
5535.49903,0.04079
5533.57029,0.03998
5531.64154,0.03848
5529.71280,0.03730
5527.78405,0.03683
5525.85531,0.03715
5523.92656,0.03815
5521.99781,0.03953
5520.06907,0.04071
5518.14032,0.04030
5516.21158,0.03814
5514.28283,0.03657
5512.35409,0.03671
5510.42534,0.03747
5508.49660,0.03805
5506.56785,0.03824
5504.63911,0.03848
5502.71036,0.03895
5500.78162,0.03892
5498.85287,0.03857
5496.92413,0.03850
5494.99538,0.03874
5493.06664,0.03925
5491.13789,0.03916
5489.20914,0.03845
5487.28040,0.03824
5485.35165,0.03823
5483.42291,0.03776
5481.49416,0.03746
5479.56542,0.03814
5477.63667,0.03956
5475.70793,0.04037
5473.77918,0.03986
5471.85044,0.03857
5469.92169,0.03716
5467.99295,0.03618
5466.06420,0.03637
5464.13546,0.03742
5462.20671,0.03812
5460.27796,0.03832
5458.34922,0.03888
5456.42047,0.03976
5454.49173,0.04038
5452.56298,0.04047
5450.63424,0.03978
5448.70549,0.03863
5446.77675,0.03787
5444.84800,0.03755
5442.91926,0.03766
5440.99051,0.03824
5439.06177,0.03866
5437.13302,0.03884
5435.20428,0.03903
5433.27553,0.03868
5431.34679,0.03814
5429.41804,0.03842
5427.48929,0.03909
5425.56055,0.03896
5423.63180,0.03794
5421.70306,0.03695
5419.77431,0.03699
5417.84557,0.03811
5415.91682,0.03926
5413.98808,0.03941
5412.05933,0.03866
5410.13059,0.03808
5408.20184,0.03820
5406.27310,0.03838
5404.34435,0.03823
5402.41561,0.03795
5400.48686,0.03805
5398.55811,0.03898
5396.62937,0.04020
5394.70062,0.04041
5392.77188,0.03908
5390.84313,0.03773
5388.91439,0.03809
5386.98564,0.03943
5385.05690,0.03983
5383.12815,0.03922
5381.19941,0.03859
5379.27066,0.03790
5377.34192,0.03745
5375.41317,0.03844
5373.48443,0.04000
5371.55568,0.04013
5369.62694,0.03939
5367.69819,0.03922
5365.76944,0.03906
5363.84070,0.03866
5361.91195,0.03893
5359.98321,0.03968
5358.05446,0.04016
5356.12572,0.04007
5354.19697,0.03944
5352.26823,0.03887
5350.33948,0.03877
5348.41074,0.03869
5346.48199,0.03856
5344.55325,0.03894
5342.62450,0.03956
5340.69576,0.03961
5338.76701,0.03915
5336.83827,0.03875
5334.90952,0.03869
5332.98077,0.03858
5331.05203,0.03828
5329.12328,0.03819
5327.19454,0.03818
5325.26579,0.03828
5323.33705,0.03895
5321.40830,0.03998
5319.47956,0.04053
5317.55081,0.04030
5315.62207,0.03973
5313.69332,0.03875
5311.76458,0.03739
5309.83583,0.03668
5307.90709,0.03686
5305.97834,0.03729
5304.04959,0.03788
5302.12085,0.03850
5300.19210,0.03870
5298.26336,0.03842
5296.33461,0.03814
5294.40587,0.03856
5292.47712,0.03958
5290.54838,0.04049
5288.61963,0.04074
5286.69089,0.03987
5284.76214,0.03877
5282.83340,0.03908
5280.90465,0.03986
5278.97591,0.03904
5277.04716,0.03772
5275.11842,0.03782
5273.18967,0.03895
5271.26092,0.04040
5269.33218,0.04175
5267.40343,0.04219
5265.47469,0.04191
5263.54594,0.04154
5261.61720,0.04093
5259.68845,0.04016
5257.75971,0.03965
5255.83096,0.03902
5253.90222,0.03800
5251.97347,0.03723
5250.04473,0.03748
5248.11598,0.03880
5246.18724,0.03974
5244.25849,0.03922
5242.32975,0.03854
5240.40100,0.03872
5238.47225,0.03887
5236.54351,0.03846
5234.61476,0.03816
5232.68602,0.03820
5230.75727,0.03838
5228.82853,0.03864
5226.89978,0.03877
5224.97104,0.03887
5223.04229,0.03939
5221.11355,0.03994
5219.18480,0.03995
5217.25606,0.03965
5215.32731,0.03949
5213.39857,0.03986
5211.46982,0.04057
5209.54107,0.04055
5207.61233,0.03939
5205.68358,0.03789
5203.75484,0.03686
5201.82609,0.03698
5199.89735,0.03849
5197.96860,0.04028
5196.03986,0.04094
5194.11111,0.04077
5192.18237,0.04048
5190.25362,0.03995
5188.32488,0.03923
5186.39613,0.03915
5184.46739,0.03966
5182.53864,0.03972
5180.60990,0.03949
5178.68115,0.03963
5176.75240,0.03986
5174.82366,0.03999
5172.89491,0.04008
5170.96617,0.04007
5169.03742,0.04018
5167.10868,0.04045
5165.17993,0.04035
5163.25119,0.03981
5161.32244,0.03932
5159.39370,0.03899
5157.46495,0.03903
5155.53621,0.03962
5153.60746,0.04021
5151.67872,0.04038
5149.74997,0.04027
5147.82123,0.04043
5145.89248,0.04094
5143.96373,0.04093
5142.03499,0.03998
5140.10624,0.03874
5138.17750,0.03803
5136.24875,0.03814
5134.32001,0.03843
5132.39126,0.03832
5130.46252,0.03844
5128.53377,0.03927
5126.60503,0.04006
5124.67628,0.04018
5122.74754,0.03969
5120.81879,0.03915
5118.89005,0.03897
5116.96130,0.03875
5115.03255,0.03831
5113.10381,0.03819
5111.17506,0.03854
5109.24632,0.03910
5107.31757,0.03945
5105.38883,0.03914
5103.46008,0.03872
5101.53134,0.03921
5099.60259,0.04006
5097.67385,0.04016
5095.74510,0.03962
5093.81636,0.03936
5091.88761,0.03995
5089.95887,0.04060
5088.03012,0.04071
5086.10138,0.04076
5084.17263,0.04078
5082.24388,0.04041
5080.31514,0.03975
5078.38639,0.03917
5076.45765,0.03904
5074.52890,0.03956
5072.60016,0.04030
5070.67141,0.04032
5068.74267,0.03959
5066.81392,0.03891
5064.88518,0.03879
5062.95643,0.03936
5061.02769,0.03984
5059.09894,0.03939
5057.17020,0.03872
5055.24145,0.03877
5053.31270,0.03893
5051.38396,0.03859
5049.45521,0.03820
5047.52647,0.03818
5045.59772,0.03845
5043.66898,0.03910
5041.74023,0.03982
5039.81149,0.04004
5037.88274,0.04001
5035.95400,0.03976
5034.02525,0.03934
5032.09651,0.03939
5030.16776,0.03971
5028.23902,0.03964
5026.31027,0.03930
5024.38153,0.03931
5022.45278,0.03952
5020.52403,0.03897
5018.59529,0.03793
5016.66654,0.03792
5014.73780,0.03892
5012.80905,0.03972
5010.88031,0.03997
5008.95156,0.04011
5007.02282,0.04057
5005.09407,0.04112
5003.16533,0.04132
5001.23658,0.04117
4999.30784,0.04065
4997.37909,0.04017
4995.45035,0.04013
4993.52160,0.04000
4991.59286,0.03961
4989.66411,0.03960
4987.73536,0.03985
4985.80662,0.03985
4983.87787,0.03990
4981.94913,0.04008
4980.02038,0.04002
4978.09164,0.03981
4976.16289,0.03965
4974.23415,0.03977
4972.30540,0.03992
4970.37666,0.03948
4968.44791,0.03889
4966.51917,0.03905
4964.59042,0.03986
4962.66168,0.04048
4960.73293,0.04045
4958.80418,0.04023
4956.87544,0.03987
4954.94669,0.03898
4953.01795,0.03836
4951.08920,0.03880
4949.16046,0.03933
4947.23171,0.03942
4945.30297,0.03983
4943.37422,0.04025
4941.44548,0.03988
4939.51673,0.03931
4937.58799,0.03922
4935.65924,0.03943
4933.73050,0.03963
4931.80175,0.03989
4929.87301,0.04024
4927.94426,0.04028
4926.01551,0.03998
4924.08677,0.03966
4922.15802,0.03953
4920.22928,0.03974
4918.30053,0.03993
4916.37179,0.03976
4914.44304,0.03964
4912.51430,0.03954
4910.58555,0.03930
4908.65681,0.03926
4906.72806,0.03948
4904.79932,0.03973
4902.87057,0.03995
4900.94183,0.04014
4899.01308,0.04020
4897.08434,0.03999
4895.15559,0.03959
4893.22684,0.03943
4891.29810,0.03959
4889.36935,0.03960
4887.44061,0.03939
4885.51186,0.03937
4883.58312,0.03960
4881.65437,0.03970
4879.72563,0.03945
4877.79688,0.03912
4875.86814,0.03917
4873.93939,0.03966
4872.01065,0.04012
4870.08190,0.04018
4868.15316,0.04006
4866.22441,0.03996
4864.29566,0.03956
4862.36692,0.03909
4860.43817,0.03917
4858.50943,0.03950
4856.58068,0.03954
4854.65194,0.03932
4852.72319,0.03901
4850.79445,0.03878
4848.86570,0.03880
4846.93696,0.03916
4845.00821,0.03968
4843.07947,0.03995
4841.15072,0.03985
4839.22198,0.03988
4837.29323,0.04030
4835.36449,0.04052
4833.43574,0.04041
4831.50699,0.04039
4829.57825,0.04032
4827.64950,0.04034
4825.72076,0.04075
4823.79201,0.04099
4821.86327,0.04066
4819.93452,0.04034
4818.00578,0.04040
4816.07703,0.04036
4814.14829,0.03999
4812.21954,0.03946
4810.29080,0.03919
4808.36205,0.03954
4806.43331,0.04034
4804.50456,0.04074
4802.57582,0.04031
4800.64707,0.03980
4798.71832,0.04003
4796.78958,0.04059
4794.86083,0.04073
4792.93209,0.04064
4791.00334,0.04064
4789.07460,0.04034
4787.14585,0.03976
4785.21711,0.03948
4783.28836,0.03969
4781.35962,0.03994
4779.43087,0.03979
4777.50213,0.03957
4775.57338,0.03978
4773.64464,0.04016
4771.71589,0.04004
4769.78714,0.03968
4767.85840,0.03999
4765.92965,0.04072
4764.00091,0.04091
4762.07216,0.04053
4760.14342,0.04008
4758.21467,0.03973
4756.28593,0.03974
4754.35718,0.04016
4752.42844,0.04034
4750.49969,0.04011
4748.57095,0.04013
4746.64220,0.04062
4744.71346,0.04119
4742.78471,0.04108
4740.85597,0.04024
4738.92722,0.03972
4736.99847,0.04013
4735.06973,0.04078
4733.14098,0.04098
4731.21224,0.04094
4729.28349,0.04089
4727.35475,0.04068
4725.42600,0.04033
4723.49726,0.04015
4721.56851,0.04039
4719.63977,0.04094
4717.71102,0.04126
4715.78228,0.04115
4713.85353,0.04099
4711.92479,0.04063
4709.99604,0.03987
4708.06729,0.03945
4706.13855,0.03976
4704.20980,0.04014
4702.28106,0.04003
4700.35231,0.03986
4698.42357,0.04022
4696.49482,0.04063
4694.56608,0.04047
4692.63733,0.04026
4690.70859,0.04054
4688.77984,0.04077
4686.85110,0.04065
4684.92235,0.04073
4682.99361,0.04103
4681.06486,0.04096
4679.13612,0.04036
4677.20737,0.03960
4675.27862,0.03932
4673.34988,0.03974
4671.42113,0.04047
4669.49239,0.04094
4667.56364,0.04106
4665.63490,0.04117
4663.70615,0.04110
4661.77741,0.04052
4659.84866,0.04015
4657.91992,0.04060
4655.99117,0.04110
4654.06243,0.04071
4652.13368,0.03995
4650.20494,0.03985
4648.27619,0.04035
4646.34745,0.04079
4644.41870,0.04108
4642.48995,0.04119
4640.56121,0.04125
4638.63246,0.04140
4636.70372,0.04122
4634.77497,0.04060
4632.84623,0.04020
4630.91748,0.04012
4628.98874,0.03990
4627.05999,0.03974
4625.13125,0.04017
4623.20250,0.04081
4621.27376,0.04118
4619.34501,0.04143
4617.41627,0.04175
4615.48752,0.04190
4613.55877,0.04168
4611.63003,0.04125
4609.70128,0.04075
4607.77254,0.04026
4605.84379,0.04012
4603.91505,0.04047
4601.98630,0.04074
4600.05756,0.04038
4598.12881,0.03983
4596.20007,0.03973
4594.27132,0.03967
4592.34258,0.03952
4590.41383,0.04008
4588.48509,0.04087
4586.55634,0.04081
4584.62760,0.04036
4582.69885,0.04020
4580.77010,0.04014
4578.84136,0.04016
4576.91261,0.04051
4574.98387,0.04107
4573.05512,0.04131
4571.12638,0.04078
4569.19763,0.03991
4567.26889,0.03952
4565.34014,0.03972
4563.41140,0.04025
4561.48265,0.04109
4559.55391,0.04186
4557.62516,0.04168
4555.69642,0.04058
4553.76767,0.03968
4551.83893,0.03965
4549.91018,0.04008
4547.98143,0.04055
4546.05269,0.04096
4544.12394,0.04119
4542.19520,0.04102
4540.26645,0.04044
4538.33771,0.03986
4536.40896,0.03984
4534.48022,0.04028
4532.55147,0.04073
4530.62273,0.04113
4528.69398,0.04135
4526.76524,0.04123
4524.83649,0.04096
4522.90775,0.04073
4520.97900,0.04045
4519.05025,0.04013
4517.12151,0.04005
4515.19276,0.04021
4513.26402,0.04046
4511.33527,0.04088
4509.40653,0.04127
4507.47778,0.04117
4505.54904,0.04079
4503.62029,0.04081
4501.69155,0.04113
4499.76280,0.04108
4497.83406,0.04068
4495.90531,0.04070
4493.97657,0.04105
4492.04782,0.04103
4490.11908,0.04071
4488.19033,0.04041
4486.26158,0.04019
4484.33284,0.04021
4482.40409,0.04045
4480.47535,0.04047
4478.54660,0.04026
4476.61786,0.04035
4474.68911,0.04070
4472.76037,0.04101
4470.83162,0.04125
4468.90288,0.04125
4466.97413,0.04104
4465.04539,0.04080
4463.11664,0.04052
4461.18790,0.04029
4459.25915,0.04035
4457.33041,0.04090
4455.40166,0.04159
4453.47291,0.04178
4451.54417,0.04157
4449.61542,0.04138
4447.68668,0.04117
4445.75793,0.04096
4443.82919,0.04091
4441.90044,0.04101
4439.97170,0.04110
4438.04295,0.04085
4436.11421,0.04035
4434.18546,0.04035
4432.25672,0.04096
4430.32797,0.04122
4428.39923,0.04095
4426.47048,0.04082
4424.54173,0.04087
4422.61299,0.04084
4420.68424,0.04071
4418.75550,0.04046
4416.82675,0.04014
4414.89801,0.03997
4412.96926,0.04008
4411.04052,0.04016
4409.11177,0.03992
4407.18303,0.03956
4405.25428,0.03943
4403.32554,0.03944
4401.39679,0.03917
4399.46805,0.03892
4397.53930,0.03936
4395.61056,0.04008
4393.68181,0.04013
4391.75306,0.03968
4389.82432,0.03970
4387.89557,0.04021
4385.96683,0.04053
4384.03808,0.04053
4382.10934,0.04035
4380.18059,0.03999
4378.25185,0.03974
4376.32310,0.03955
4374.39436,0.03911
4372.46561,0.03871
4370.53687,0.03866
4368.60812,0.03871
4366.67938,0.03877
4364.75063,0.03892
4362.82189,0.03910
4360.89314,0.03926
4358.96439,0.03934
4357.03565,0.03933
4355.10690,0.03930
4353.17816,0.03928
4351.24941,0.03915
4349.32067,0.03883
4347.39192,0.03850
4345.46318,0.03842
4343.53443,0.03855
4341.60569,0.03876
4339.67694,0.03891
4337.74820,0.03890
4335.81945,0.03873
4333.89071,0.03864
4331.96196,0.03870
4330.03321,0.03869
4328.10447,0.03857
4326.17572,0.03844
4324.24698,0.03855
4322.31823,0.03897
4320.38949,0.03909
4318.46074,0.03879
4316.53200,0.03868
4314.60325,0.03891
4312.67451,0.03913
4310.74576,0.03917
4308.81702,0.03913
4306.88827,0.03923
4304.95953,0.03938
4303.03078,0.03921
4301.10204,0.03884
4299.17329,0.03883
4297.24454,0.03914
4295.31580,0.03938
4293.38705,0.03942
4291.45831,0.03932
4289.52956,0.03920
4287.60082,0.03929
4285.67207,0.03952
4283.74333,0.03968
4281.81458,0.03967
4279.88584,0.03953
4277.95709,0.03932
4276.02835,0.03924
4274.09960,0.03930
4272.17086,0.03941
4270.24211,0.03969
4268.31336,0.03980
4266.38462,0.03942
4264.45587,0.03913
4262.52713,0.03924
4260.59838,0.03961
4258.66964,0.04024
4256.74089,0.04060
4254.81215,0.04008
4252.88340,0.03931
4250.95466,0.03917
4249.02591,0.03941
4247.09717,0.03956
4245.16842,0.03967
4243.23968,0.03971
4241.31093,0.03963
4239.38219,0.03957
4237.45344,0.03953
4235.52469,0.03949
4233.59595,0.03927
4231.66720,0.03876
4229.73846,0.03840
4227.80971,0.03859
4225.88097,0.03915
4223.95222,0.03955
4222.02348,0.03939
4220.09473,0.03918
4218.16599,0.03954
4216.23724,0.04016
4214.30850,0.04048
4212.37975,0.04032
4210.45101,0.03992
4208.52226,0.03978
4206.59352,0.04007
4204.66477,0.04041
4202.73602,0.04038
4200.80728,0.04004
4198.87853,0.03988
4196.94979,0.04002
4195.02104,0.04024
4193.09230,0.04046
4191.16355,0.04059
4189.23481,0.04058
4187.30606,0.04043
4185.37732,0.04011
4183.44857,0.03976
4181.51983,0.03958
4179.59108,0.03962
4177.66234,0.03986
4175.73359,0.04013
4173.80484,0.04008
4171.87610,0.03974
4169.94735,0.03944
4168.01861,0.03928
4166.08986,0.03918
4164.16112,0.03919
4162.23237,0.03963
4160.30363,0.04031
4158.37488,0.04058
4156.44614,0.04057
4154.51739,0.04058
4152.58865,0.04045
4150.65990,0.04020
4148.73116,0.04002
4146.80241,0.03996
4144.87367,0.04007
4142.94492,0.04027
4141.01617,0.04032
4139.08743,0.04024
4137.15868,0.04019
4135.22994,0.04004
4133.30119,0.03970
4131.37245,0.03954
4129.44370,0.03977
4127.51496,0.04022
4125.58621,0.04056
4123.65747,0.04056
4121.72872,0.04042
4119.79998,0.04041
4117.87123,0.04042
4115.94249,0.04042
4114.01374,0.04056
4112.08500,0.04061
4110.15625,0.04043
4108.22750,0.04021
4106.29876,0.04016
4104.37001,0.04038
4102.44127,0.04065
4100.51252,0.04066
4098.58378,0.04050
4096.65503,0.04051
4094.72629,0.04059
4092.79754,0.04033
4090.86880,0.03998
4088.94005,0.03980
4087.01131,0.03973
4085.08256,0.03985
4083.15382,0.03994
4081.22507,0.03979
4079.29632,0.03967
4077.36758,0.03967
4075.43883,0.03987
4073.51009,0.04023
4071.58134,0.04044
4069.65260,0.04036
4067.72385,0.04004
4065.79511,0.03985
4063.86636,0.04011
4061.93762,0.04049
4060.00887,0.04069
4058.08013,0.04073
4056.15138,0.04075
4054.22264,0.04086
4052.29389,0.04102
4050.36515,0.04097
4048.43640,0.04072
4046.50765,0.04054
4044.57891,0.04049
4042.65016,0.04050
4040.72142,0.04058
4038.79267,0.04075
4036.86393,0.04099
4034.93518,0.04125
4033.00644,0.04135
4031.07769,0.04130
4029.14895,0.04142
4027.22020,0.04160
4025.29146,0.04150
4023.36271,0.04131
4021.43397,0.04132
4019.50522,0.04128
4017.57648,0.04117
4015.64773,0.04119
4013.71898,0.04126
4011.79024,0.04131
4009.86149,0.04147
4007.93275,0.04153
4006.00400,0.04131
4004.07526,0.04095
4002.14651,0.04070
4000.21777,0.04076
3998.28902,0.04103
3996.36028,0.04122
3994.43153,0.04131
3992.50279,0.04143
3990.57404,0.04152
3988.64530,0.04158
3986.71655,0.04162
3984.78780,0.04160
3982.85906,0.04171
3980.93031,0.04200
3979.00157,0.04219
3977.07282,0.04209
3975.14408,0.04184
3973.21533,0.04169
3971.28659,0.04181
3969.35784,0.04208
3967.42910,0.04217
3965.50035,0.04193
3963.57161,0.04159
3961.64286,0.04157
3959.71412,0.04173
3957.78537,0.04158
3955.85663,0.04136
3953.92788,0.04156
3951.99913,0.04213
3950.07039,0.04253
3948.14164,0.04241
3946.21290,0.04202
3944.28415,0.04162
3942.35541,0.04135
3940.42666,0.04140
3938.49792,0.04167
3936.56917,0.04200
3934.64043,0.04205
3932.71168,0.04181
3930.78294,0.04168
3928.85419,0.04176
3926.92545,0.04192
3924.99670,0.04214
3923.06795,0.04218
3921.13921,0.04196
3919.21046,0.04182
3917.28172,0.04184
3915.35297,0.04196
3913.42423,0.04217
3911.49548,0.04227
3909.56674,0.04207
3907.63799,0.04182
3905.70925,0.04176
3903.78050,0.04178
3901.85176,0.04181
3899.92301,0.04192
3897.99427,0.04199
3896.06552,0.04195
3894.13678,0.04204
3892.20803,0.04235
3890.27928,0.04244
3888.35054,0.04218
3886.42179,0.04194
3884.49305,0.04183
3882.56430,0.04179
3880.63556,0.04193
3878.70681,0.04216
3876.77807,0.04223
3874.84932,0.04212
3872.92058,0.04200
3870.99183,0.04194
3869.06309,0.04190
3867.13434,0.04184
3865.20560,0.04172
3863.27685,0.04164
3861.34811,0.04158
3859.41936,0.04150
3857.49061,0.04158
3855.56187,0.04191
3853.63312,0.04216
3851.70438,0.04199
3849.77563,0.04179
3847.84689,0.04196
3845.91814,0.04239
3843.98940,0.04270
3842.06065,0.04270
3840.13191,0.04261
3838.20316,0.04263
3836.27442,0.04262
3834.34567,0.04246
3832.41693,0.04244
3830.48818,0.04264
3828.55943,0.04275
3826.63069,0.04285
3824.70194,0.04313
3822.77320,0.04324
3820.84445,0.04287
3818.91571,0.04242
3816.98696,0.04237
3815.05822,0.04256
3813.12947,0.04257
3811.20073,0.04235
3809.27198,0.04205
3807.34324,0.04183
3805.41449,0.04185
3803.48575,0.04197
3801.55700,0.04175
3799.62826,0.04138
3797.69951,0.04147
3795.77076,0.04193
3793.84202,0.04229
3791.91327,0.04240
3789.98453,0.04247
3788.05578,0.04262
3786.12704,0.04274
3784.19829,0.04286
3782.26955,0.04298
3780.34080,0.04286
3778.41206,0.04264
3776.48331,0.04256
3774.55457,0.04259
3772.62582,0.04264
3770.69708,0.04267
3768.76833,0.04270
3766.83959,0.04273
3764.91084,0.04262
3762.98209,0.04247
3761.05335,0.04238
3759.12460,0.04241
3757.19586,0.04267
3755.26711,0.04300
3753.33837,0.04315
3751.40962,0.04316
3749.48088,0.04316
3747.55213,0.04315
3745.62339,0.04310
3743.69464,0.04275
3741.76590,0.04227
3739.83715,0.04200
3737.90841,0.04208
3735.97966,0.04246
3734.05091,0.04271
3732.12217,0.04255
3730.19342,0.04227
3728.26468,0.04219
3726.33593,0.04240
3724.40719,0.04262
3722.47844,0.04252
3720.54970,0.04235
3718.62095,0.04245
3716.69221,0.04256
3714.76346,0.04258
3712.83472,0.04267
3710.90597,0.04261
3708.97723,0.04253
3707.04848,0.04273
3705.11974,0.04284
3703.19099,0.04262
3701.26224,0.04229
3699.33350,0.04224
3697.40475,0.04243
3695.47601,0.04252
3693.54726,0.04265
3691.61852,0.04291
3689.68977,0.04285
3687.76103,0.04245
3685.83228,0.04231
3683.90354,0.04238
3681.97479,0.04235
3680.04605,0.04233
3678.11730,0.04235
3676.18856,0.04216
3674.25981,0.04184
3672.33107,0.04174
3670.40232,0.04184
3668.47357,0.04180
3666.54483,0.04160
3664.61608,0.04140
3662.68734,0.04142
3660.75859,0.04182
3658.82985,0.04232
3656.90110,0.04267
3654.97236,0.04289
3653.04361,0.04298
3651.11487,0.04300
3649.18612,0.04283
3647.25738,0.04237
3645.32863,0.04211
3643.39989,0.04219
3641.47114,0.04204
3639.54239,0.04161
3637.61365,0.04148
3635.68490,0.04175
3633.75616,0.04211
3631.82741,0.04228
3629.89867,0.04206
3627.96992,0.04171
3626.04118,0.04162
3624.11243,0.04174
3622.18369,0.04189
3620.25494,0.04193
3618.32620,0.04175
3616.39745,0.04136
3614.46871,0.04095
3612.53996,0.04087
3610.61122,0.04102
3608.68247,0.04120
3606.75372,0.04141
3604.82498,0.04169
3602.89623,0.04206
3600.96749,0.04226
3599.03874,0.04209
3597.11000,0.04193
3595.18125,0.04207
3593.25251,0.04203
3591.32376,0.04158
3589.39502,0.04110
3587.46627,0.04080
3585.53753,0.04065
3583.60878,0.04072
3581.68004,0.04095
3579.75129,0.04117
3577.82254,0.04123
3575.89380,0.04094
3573.96505,0.04064
3572.03631,0.04078
3570.10756,0.04108
3568.17882,0.04119
3566.25007,0.04131
3564.32133,0.04148
3562.39258,0.04133
3560.46384,0.04099
3558.53509,0.04102
3556.60635,0.04132
3554.67760,0.04144
3552.74886,0.04137
3550.82011,0.04131
3548.89137,0.04125
3546.96262,0.04097
3545.03387,0.04060
3543.10513,0.04045
3541.17638,0.04054
3539.24764,0.04081
3537.31889,0.04098
3535.39015,0.04078
3533.46140,0.04053
3531.53266,0.04056
3529.60391,0.04064
3527.67517,0.04065
3525.74642,0.04073
3523.81768,0.04079
3521.88893,0.04073
3519.96019,0.04053
3518.03144,0.04025
3516.10270,0.04006
3514.17395,0.04006
3512.24520,0.04025
3510.31646,0.04057
3508.38771,0.04078
3506.45897,0.04068
3504.53022,0.04023
3502.60148,0.04003
3500.67273,0.04038
3498.74399,0.04064
3496.81524,0.04045
3494.88650,0.04011
3492.95775,0.03986
3491.02901,0.03966
3489.10026,0.03955
3487.17152,0.03980
3485.24277,0.04027
3483.31402,0.04046
3481.38528,0.04030
3479.45653,0.04015
3477.52779,0.04004
3475.59904,0.03986
3473.67030,0.03974
3471.74155,0.03976
3469.81281,0.03974
3467.88406,0.03958
3465.95532,0.03947
3464.02657,0.03950
3462.09783,0.03957
3460.16908,0.03957
3458.24034,0.03933
3456.31159,0.03902
3454.38285,0.03895
3452.45410,0.03917
3450.52535,0.03943
3448.59661,0.03942
3446.66786,0.03915
3444.73912,0.03889
3442.81037,0.03883
3440.88163,0.03892
3438.95288,0.03903
3437.02414,0.03908
3435.09539,0.03891
3433.16665,0.03855
3431.23790,0.03832
3429.30916,0.03843
3427.38041,0.03884
3425.45167,0.03914
3423.52292,0.03881
3421.59418,0.03806
3419.66543,0.03765
3417.73668,0.03771
3415.80794,0.03777
3413.87919,0.03784
3411.95045,0.03823
3410.02170,0.03861
3408.09296,0.03847
3406.16421,0.03801
3404.23547,0.03778
3402.30672,0.03798
3400.37798,0.03840
3398.44923,0.03879
3396.52049,0.03901
3394.59174,0.03908
3392.66300,0.03899
3390.73425,0.03876
3388.80550,0.03871
3386.87676,0.03903
3384.94801,0.03930
3383.01927,0.03928
3381.09052,0.03914
3379.16178,0.03899
3377.23303,0.03884
3375.30429,0.03884
3373.37554,0.03888
3371.44680,0.03862
3369.51805,0.03833
3367.58931,0.03862
3365.66056,0.03931
3363.73182,0.03983
3361.80307,0.03971
3359.87433,0.03912
3357.94558,0.03877
3356.01683,0.03879
3354.08809,0.03883
3352.15934,0.03892
3350.23060,0.03902
3348.30185,0.03892
3346.37311,0.03872
3344.44436,0.03851
3342.51562,0.03830
3340.58687,0.03812
3338.65813,0.03798
3336.72938,0.03811
3334.80064,0.03845
3332.87189,0.03881
3330.94315,0.03920
3329.01440,0.03935
3327.08566,0.03925
3325.15691,0.03911
3323.22816,0.03892
3321.29942,0.03872
3319.37067,0.03844
3317.44193,0.03826
3315.51318,0.03857
3313.58444,0.03914
3311.65569,0.03942
3309.72695,0.03921
3307.79820,0.03853
3305.86946,0.03782
3303.94071,0.03765
3302.01197,0.03784
3300.08322,0.03788
3298.15448,0.03778
3296.22573,0.03796
3294.29698,0.03843
3292.36824,0.03872
3290.43949,0.03874
3288.51075,0.03873
3286.58200,0.03874
3284.65326,0.03869
3282.72451,0.03853
3280.79577,0.03835
3278.86702,0.03833
3276.93828,0.03846
3275.00953,0.03864
3273.08079,0.03904
3271.15204,0.03948
3269.22330,0.03949
3267.29455,0.03933
3265.36581,0.03925
3263.43706,0.03916
3261.50831,0.03933
3259.57957,0.03978
3257.65082,0.03994
3255.72208,0.03950
3253.79333,0.03881
3251.86459,0.03864
3249.93584,0.03906
3248.00710,0.03953
3246.07835,0.03981
3244.14961,0.03982
3242.22086,0.03964
3240.29212,0.03951
3238.36337,0.03936
3236.43463,0.03911
3234.50588,0.03890
3232.57713,0.03873
3230.64839,0.03862
3228.71964,0.03887
3226.79090,0.03945
3224.86215,0.03961
3222.93341,0.03916
3221.00466,0.03870
3219.07592,0.03875
3217.14717,0.03923
3215.21843,0.03942
3213.28968,0.03895
3211.36094,0.03855
3209.43219,0.03863
3207.50345,0.03872
3205.57470,0.03889
3203.64596,0.03943
3201.71721,0.03993
3199.78846,0.03998
3197.85972,0.03970
3195.93097,0.03947
3194.00223,0.03952
3192.07348,0.03943
3190.14474,0.03902
3188.21599,0.03890
3186.28725,0.03927
3184.35850,0.03960
3182.42976,0.03968
3180.50101,0.03978
3178.57227,0.03982
3176.64352,0.03974
3174.71478,0.03970
3172.78603,0.03981
3170.85729,0.03985
3168.92854,0.03967
3166.99979,0.03943
3165.07105,0.03931
3163.14230,0.03955
3161.21356,0.04005
3159.28481,0.04013
3157.35607,0.03975
3155.42732,0.03941
3153.49858,0.03927
3151.56983,0.03941
3149.64109,0.03966
3147.71234,0.03970
3145.78360,0.03964
3143.85485,0.03961
3141.92611,0.03956
3139.99736,0.03954
3138.06861,0.03959
3136.13987,0.03964
3134.21112,0.03960
3132.28238,0.03955
3130.35363,0.03966
3128.42489,0.03978
3126.49614,0.03979
3124.56740,0.03982
3122.63865,0.03980
3120.70991,0.03964
3118.78116,0.03957
3116.85242,0.03973
3114.92367,0.03977
3112.99493,0.03952
3111.06618,0.03937
3109.13744,0.03933
3107.20869,0.03902
3105.27994,0.03863
3103.35120,0.03858
3101.42245,0.03875
3099.49371,0.03888
3097.56496,0.03887
3095.63622,0.03871
3093.70747,0.03855
3091.77873,0.03841
3089.84998,0.03835
3087.92124,0.03851
3085.99249,0.03865
3084.06375,0.03845
3082.13500,0.03803
3080.20626,0.03773
3078.27751,0.03777
3076.34877,0.03811
3074.42002,0.03846
3072.49127,0.03853
3070.56253,0.03817
3068.63378,0.03774
3066.70504,0.03757
3064.77629,0.03749
3062.84755,0.03743
3060.91880,0.03766
3058.99006,0.03812
3057.06131,0.03834
3055.13257,0.03814
3053.20382,0.03787
3051.27508,0.03778
3049.34633,0.03773
3047.41759,0.03773
3045.48884,0.03786
3043.56009,0.03797
3041.63135,0.03789
3039.70260,0.03755
3037.77386,0.03734
3035.84511,0.03744
3033.91637,0.03734
3031.98762,0.03705
3030.05888,0.03702
3028.13013,0.03704
3026.20139,0.03688
3024.27264,0.03665
3022.34390,0.03640
3020.41515,0.03624
3018.48641,0.03625
3016.55766,0.03628
3014.62892,0.03606
3012.70017,0.03565
3010.77142,0.03535
3008.84268,0.03506
3006.91393,0.03461
3004.98519,0.03416
3003.05644,0.03374
3001.12770,0.03333
2999.19895,0.03311
2997.27021,0.03290
2995.34146,0.03244
2993.41272,0.03181
2991.48397,0.03116
2989.55523,0.03055
2987.62648,0.03012
2985.69774,0.02984
2983.76899,0.02941
2981.84025,0.02883
2979.91150,0.02834
2977.98275,0.02809
2976.05401,0.02795
2974.12526,0.02764
2972.19652,0.02725
2970.26777,0.02711
2968.33903,0.02720
2966.41028,0.02724
2964.48154,0.02711
2962.55279,0.02698
2960.62405,0.02700
2958.69530,0.02713
2956.76656,0.02733
2954.83781,0.02757
2952.90907,0.02776
2950.98032,0.02787
2949.05157,0.02804
2947.12283,0.02821
2945.19408,0.02816
2943.26534,0.02782
2941.33659,0.02739
2939.40785,0.02731
2937.47910,0.02771
2935.55036,0.02811
2933.62161,0.02813
2931.69287,0.02791
2929.76412,0.02754
2927.83538,0.02733
2925.90663,0.02763
2923.97789,0.02809
2922.04914,0.02823
2920.12040,0.02833
2918.19165,0.02866
2916.26290,0.02904
2914.33416,0.02918
2912.40541,0.02912
2910.47667,0.02903
2908.54792,0.02901
2906.61918,0.02914
2904.69043,0.02927
2902.76169,0.02936
2900.83294,0.02948
2898.90420,0.02957
2896.97545,0.02974
2895.04671,0.03014
2893.11796,0.03046
2891.18922,0.03041
2889.26047,0.03009
2887.33172,0.02982
2885.40298,0.02962
2883.47423,0.02942
2881.54549,0.02938
2879.61674,0.02942
2877.68800,0.02925
2875.75925,0.02903
2873.83051,0.02897
2871.90176,0.02910
2869.97302,0.02928
2868.04427,0.02936
2866.11553,0.02941
2864.18678,0.02939
2862.25804,0.02924
2860.32929,0.02921
2858.40055,0.02940
2856.47180,0.02959
2854.54305,0.02966
2852.61431,0.02975
2850.68556,0.03000
2848.75682,0.03030
2846.82807,0.03062
2844.89933,0.03123
2842.97058,0.03202
2841.04184,0.03249
2839.11309,0.03265
2837.18435,0.03288
2835.25560,0.03327
2833.32686,0.03371
2831.39811,0.03411
2829.46937,0.03436
2827.54062,0.03438
2825.61188,0.03452
2823.68313,0.03499
2821.75438,0.03537
2819.82564,0.03542
2817.89689,0.03539
2815.96815,0.03549
2814.03940,0.03568
2812.11066,0.03604
2810.18191,0.03656
2808.25317,0.03690
2806.32442,0.03694
2804.39568,0.03703
2802.46693,0.03734
2800.53819,0.03773
2798.60944,0.03803
2796.68070,0.03817
2794.75195,0.03833
2792.82320,0.03861
2790.89446,0.03880
2788.96571,0.03871
2787.03697,0.03850
2785.10822,0.03835
2783.17948,0.03835
2781.25073,0.03859
2779.32199,0.03908
2777.39324,0.03957
2775.46450,0.03977
2773.53575,0.03975
2771.60701,0.03973
2769.67826,0.03963
2767.74952,0.03946
2765.82077,0.03947
2763.89203,0.03971
2761.96328,0.03997
2760.03453,0.04007
2758.10579,0.04006
2756.17704,0.03998
2754.24830,0.03990
2752.31955,0.03985
2750.39081,0.03965
2748.46206,0.03937
2746.53332,0.03927
2744.60457,0.03932
2742.67583,0.03933
2740.74708,0.03937
2738.81834,0.03949
2736.88959,0.03943
2734.96085,0.03923
2733.03210,0.03938
2731.10336,0.03982
2729.17461,0.04007
2727.24586,0.04022
2725.31712,0.04052
2723.38837,0.04073
2721.45963,0.04058
2719.53088,0.04037
2717.60214,0.04040
2715.67339,0.04057
2713.74465,0.04069
2711.81590,0.04068
2709.88716,0.04054
2707.95841,0.04046
2706.02967,0.04052
2704.10092,0.04053
2702.17218,0.04054
2700.24343,0.04076
2698.31468,0.04114
2696.38594,0.04138
2694.45719,0.04130
2692.52845,0.04100
2690.59970,0.04069
2688.67096,0.04060
2686.74221,0.04077
2684.81347,0.04088
2682.88472,0.04082
2680.95598,0.04090
2679.02723,0.04113
2677.09849,0.04123
2675.16974,0.04124
2673.24100,0.04133
2671.31225,0.04135
2669.38351,0.04119
2667.45476,0.04108
2665.52601,0.04115
2663.59727,0.04133
2661.66852,0.04158
2659.73978,0.04170
2657.81103,0.04156
2655.88229,0.04139
2653.95354,0.04146
2652.02480,0.04175
2650.09605,0.04196
2648.16731,0.04195
2646.23856,0.04193
2644.30982,0.04199
2642.38107,0.04197
2640.45233,0.04196
2638.52358,0.04199
2636.59484,0.04188
2634.66609,0.04164
2632.73734,0.04156
2630.80860,0.04163
2628.87985,0.04168
2626.95111,0.04168
2625.02236,0.04164
2623.09362,0.04155
2621.16487,0.04142
2619.23613,0.04129
2617.30738,0.04139
2615.37864,0.04173
2613.44989,0.04190
2611.52115,0.04181
2609.59240,0.04173
2607.66366,0.04171
2605.73491,0.04167
2603.80616,0.04167
2601.87742,0.04171
2599.94867,0.04175
2598.01993,0.04187
2596.09118,0.04198
2594.16244,0.04200
2592.23369,0.04204
2590.30495,0.04215
2588.37620,0.04218
2586.44746,0.04213
2584.51871,0.04204
2582.58997,0.04200
2580.66122,0.04211
2578.73248,0.04223
2576.80373,0.04215
2574.87499,0.04210
2572.94624,0.04225
2571.01749,0.04239
2569.08875,0.04234
2567.16000,0.04221
2565.23126,0.04216
2563.30251,0.04222
2561.37377,0.04226
2559.44502,0.04221
2557.51628,0.04223
2555.58753,0.04227
2553.65879,0.04216
2551.73004,0.04208
2549.80130,0.04218
2547.87255,0.04225
2545.94381,0.04228
2544.01506,0.04241
2542.08631,0.04270
2540.15757,0.04306
2538.22882,0.04318
2536.30008,0.04292
2534.37133,0.04260
2532.44259,0.04249
2530.51384,0.04250
2528.58510,0.04257
2526.65635,0.04269
2524.72761,0.04277
2522.79886,0.04274
2520.87012,0.04279
2518.94137,0.04302
2517.01263,0.04319
2515.08388,0.04325
2513.15514,0.04335
2511.22639,0.04339
2509.29764,0.04326
2507.36890,0.04315
2505.44015,0.04326
2503.51141,0.04349
2501.58266,0.04353
2499.65392,0.04345
2497.72517,0.04351
2495.79643,0.04366
2493.86768,0.04368
2491.93894,0.04359
2490.01019,0.04363
2488.08145,0.04383
2486.15270,0.04387
2484.22396,0.04366
2482.29521,0.04365
2480.36647,0.04388
2478.43772,0.04406
2476.50897,0.04412
2474.58023,0.04402
2472.65148,0.04385
2470.72274,0.04371
2468.79399,0.04370
2466.86525,0.04392
2464.93650,0.04424
2463.00776,0.04446
2461.07901,0.04452
2459.15027,0.04447
2457.22152,0.04439
2455.29278,0.04436
2453.36403,0.04431
2451.43529,0.04422
2449.50654,0.04410
2447.57779,0.04406
2445.64905,0.04406
2443.72030,0.04390
2441.79156,0.04366
2439.86281,0.04355
2437.93407,0.04357
2436.00532,0.04365
2434.07658,0.04375
2432.14783,0.04373
2430.21909,0.04362
2428.29034,0.04348
2426.36160,0.04331
2424.43285,0.04318
2422.50411,0.04318
2420.57536,0.04319
2418.64662,0.04310
2416.71787,0.04309
2414.78912,0.04338
2412.86038,0.04369
2410.93163,0.04359
2409.00289,0.04326
2407.07414,0.04309
2405.14540,0.04307
2403.21665,0.04306
2401.28791,0.04314
2399.35916,0.04320
2397.43042,0.04314
2395.50167,0.04305
2393.57293,0.04299
2391.64418,0.04301
2389.71544,0.04314
2387.78669,0.04328
2385.85795,0.04332
2383.92920,0.04323
2382.00045,0.04309
2380.07171,0.04301
2378.14296,0.04303
2376.21422,0.04306
2374.28547,0.04312
2372.35673,0.04329
2370.42798,0.04352
2368.49924,0.04364
2366.57049,0.04361
2364.64175,0.04354
2362.71300,0.04350
2360.78426,0.04352
2358.85551,0.04372
2356.92677,0.04403
2354.99802,0.04425
2353.06927,0.04431
2351.14053,0.04424
2349.21178,0.04416
2347.28304,0.04413
2345.35429,0.04412
2343.42555,0.04405
2341.49680,0.04392
2339.56806,0.04396
2337.63931,0.04426
2335.71057,0.04450
2333.78182,0.04456
2331.85308,0.04459
2329.92433,0.04466
2327.99559,0.04467
2326.06684,0.04466
2324.13810,0.04463
2322.20935,0.04457
2320.28060,0.04461
2318.35186,0.04479
2316.42311,0.04490
2314.49437,0.04477
2312.56562,0.04454
2310.63688,0.04453
2308.70813,0.04468
2306.77939,0.04479
2304.85064,0.04489
2302.92190,0.04495
2300.99315,0.04488
2299.06441,0.04473
2297.13566,0.04453
2295.20692,0.04443
2293.27817,0.04459
2291.34943,0.04473
2289.42068,0.04461
2287.49193,0.04455
2285.56319,0.04469
2283.63444,0.04465
2281.70570,0.04443
2279.77695,0.04430
2277.84821,0.04431
2275.91946,0.04439
2273.99072,0.04439
2272.06197,0.04438
2270.13323,0.04462
2268.20448,0.04493
2266.27574,0.04495
2264.34699,0.04484
2262.41825,0.04495
2260.48950,0.04511
2258.56075,0.04506
2256.63201,0.04485
2254.70326,0.04464
2252.77452,0.04458
2250.84577,0.04464
2248.91703,0.04464
2246.98828,0.04465
2245.05954,0.04479
2243.13079,0.04491
2241.20205,0.04492
2239.27330,0.04487
2237.34456,0.04484
2235.41581,0.04481
2233.48707,0.04478
2231.55832,0.04479
2229.62958,0.04477
2227.70083,0.04480
2225.77208,0.04496
2223.84334,0.04509
2221.91459,0.04513
2219.98585,0.04503
2218.05710,0.04482
2216.12836,0.04481
2214.19961,0.04492
2212.27087,0.04490
2210.34212,0.04485
2208.41338,0.04482
2206.48463,0.04483
2204.55589,0.04494
2202.62714,0.04494
2200.69840,0.04476
2198.76965,0.04470
2196.84090,0.04492
2194.91216,0.04523
2192.98341,0.04536
2191.05467,0.04529
2189.12592,0.04518
2187.19718,0.04522
2185.26843,0.04536
2183.33969,0.04539
2181.41094,0.04536
2179.48220,0.04540
2177.55345,0.04544
2175.62471,0.04539
2173.69596,0.04526
2171.76722,0.04518
2169.83847,0.04520
2167.90973,0.04530
2165.98098,0.04539
2164.05223,0.04526
2162.12349,0.04508
2160.19474,0.04504
2158.26600,0.04506
2156.33725,0.04515
2154.40851,0.04537
2152.47976,0.04546
2150.55102,0.04535
2148.62227,0.04535
2146.69353,0.04546
2144.76478,0.04546
2142.83604,0.04532
2140.90729,0.04513
2138.97855,0.04495
2137.04980,0.04489
2135.12106,0.04505
2133.19231,0.04525
2131.26356,0.04522
2129.33482,0.04506
2127.40607,0.04500
2125.47733,0.04511
2123.54858,0.04532
2121.61984,0.04540
2119.69109,0.04521
2117.76235,0.04506
2115.83360,0.04519
2113.90486,0.04535
2111.97611,0.04529
2110.04737,0.04508
2108.11862,0.04485
2106.18988,0.04463
2104.26113,0.04450
2102.33238,0.04468
2100.40364,0.04502
2098.47489,0.04515
2096.54615,0.04499
2094.61740,0.04482
2092.68866,0.04493
2090.75991,0.04518
2088.83117,0.04521
2086.90242,0.04506
2084.97368,0.04497
2083.04493,0.04487
2081.11619,0.04471
2079.18744,0.04457
2077.25870,0.04451
2075.32995,0.04450
2073.40121,0.04451
2071.47246,0.04456
2069.54371,0.04463
2067.61497,0.04456
2065.68622,0.04435
2063.75748,0.04427
2061.82873,0.04442
2059.89999,0.04465
2057.97124,0.04479
2056.04250,0.04477
2054.11375,0.04464
2052.18501,0.04459
2050.25626,0.04464
2048.32752,0.04464
2046.39877,0.04464
2044.47003,0.04476
2042.54128,0.04487
2040.61254,0.04489
2038.68379,0.04488
2036.75504,0.04485
2034.82630,0.04487
2032.89755,0.04493
2030.96881,0.04495
2029.04006,0.04495
2027.11132,0.04490
2025.18257,0.04477
2023.25383,0.04459
2021.32508,0.04451
2019.39634,0.04451
2017.46759,0.04454
2015.53885,0.04463
2013.61010,0.04475
2011.68136,0.04479
2009.75261,0.04474
2007.82386,0.04471
2005.89512,0.04482
2003.96637,0.04500
2002.03763,0.04510
2000.10888,0.04497
1998.18014,0.04465
1996.25139,0.04440
1994.32265,0.04431
1992.39390,0.04434
1990.46516,0.04445
1988.53641,0.04456
1986.60767,0.04462
1984.67892,0.04461
1982.75018,0.04449
1980.82143,0.04435
1978.89269,0.04423
1976.96394,0.04412
1975.03519,0.04406
1973.10645,0.04400
1971.17770,0.04385
1969.24896,0.04372
1967.32021,0.04372
1965.39147,0.04370
1963.46272,0.04349
1961.53398,0.04317
1959.60523,0.04293
1957.67649,0.04281
1955.74774,0.04274
1953.81900,0.04267
1951.89025,0.04249
1949.96151,0.04230
1948.03276,0.04226
1946.10402,0.04226
1944.17527,0.04219
1942.24652,0.04226
1940.31778,0.04257
1938.38903,0.04289
1936.46029,0.04297
1934.53154,0.04292
1932.60280,0.04293
1930.67405,0.04303
1928.74531,0.04320
1926.81656,0.04334
1924.88782,0.04343
1922.95907,0.04343
1921.03033,0.04339
1919.10158,0.04343
1917.17284,0.04358
1915.24409,0.04371
1913.31534,0.04373
1911.38660,0.04369
1909.45785,0.04369
1907.52911,0.04376
1905.60036,0.04379
1903.67162,0.04372
1901.74287,0.04368
1899.81413,0.04378
1897.88538,0.04384
1895.95664,0.04371
1894.02789,0.04352
1892.09915,0.04349
1890.17040,0.04355
1888.24166,0.04364
1886.31291,0.04369
1884.38417,0.04364
1882.45542,0.04358
1880.52667,0.04353
1878.59793,0.04338
1876.66918,0.04325
1874.74044,0.04338
1872.81169,0.04358
1870.88295,0.04359
1868.95420,0.04350
1867.02546,0.04339
1865.09671,0.04327
1863.16797,0.04317
1861.23922,0.04301
1859.31048,0.04276
1857.38173,0.04260
1855.45299,0.04260
1853.52424,0.04260
1851.59549,0.04257
1849.66675,0.04258
1847.73800,0.04259
1845.80926,0.04255
1843.88051,0.04254
1841.95177,0.04245
1840.02302,0.04226
1838.09428,0.04214
1836.16553,0.04212
1834.23679,0.04203
1832.30804,0.04176
1830.37930,0.04135
1828.45055,0.04088
1826.52181,0.04046
1824.59306,0.04019
1822.66432,0.04021
1820.73557,0.04048
1818.80682,0.04073
1816.87808,0.04078
1814.94933,0.04069
1813.02059,0.04060
1811.09184,0.04056
1809.16310,0.04058
1807.23435,0.04062
1805.30561,0.04062
1803.37686,0.04049
1801.44812,0.04028
1799.51937,0.04019
1797.59063,0.04017
1795.66188,0.03996
1793.73314,0.03962
1791.80439,0.03941
1789.87565,0.03941
1787.94690,0.03945
1786.01815,0.03938
1784.08941,0.03909
1782.16066,0.03862
1780.23192,0.03826
1778.30317,0.03802
1776.37443,0.03770
1774.44568,0.03732
1772.51694,0.03706
1770.58819,0.03694
1768.65945,0.03674
1766.73070,0.03635
1764.80196,0.03587
1762.87321,0.03539
1760.94447,0.03496
1759.01572,0.03460
1757.08697,0.03414
1755.15823,0.03359
1753.22948,0.03304
1751.30074,0.03237
1749.37199,0.03160
1747.44325,0.03096
1745.51450,0.03036
1743.58576,0.02973
1741.65701,0.02908
1739.72827,0.02831
1737.79952,0.02759
1735.87078,0.02710
1733.94203,0.02655
1732.01329,0.02592
1730.08454,0.02558
1728.15580,0.02567
1726.22705,0.02603
1724.29830,0.02657
1722.36956,0.02722
1720.44081,0.02781
1718.51207,0.02834
1716.58332,0.02884
1714.65458,0.02917
1712.72583,0.02937
1710.79709,0.02955
1708.86834,0.02970
1706.93960,0.02980
1705.01085,0.02999
1703.08211,0.03037
1701.15336,0.03072
1699.22462,0.03093
1697.29587,0.03127
1695.36713,0.03177
1693.43838,0.03222
1691.50963,0.03263
1689.58089,0.03304
1687.65214,0.03333
1685.72340,0.03340
1683.79465,0.03312
1681.86591,0.03283
1679.93716,0.03290
1678.00842,0.03322
1676.07967,0.03348
1674.15093,0.03360
1672.22218,0.03365
1670.29344,0.03369
1668.36469,0.03380
1666.43595,0.03414
1664.50720,0.03472
1662.57845,0.03525
1660.64971,0.03545
1658.72096,0.03558
1656.79222,0.03585
1654.86347,0.03617
1652.93473,0.03643
1651.00598,0.03659
1649.07724,0.03665
1647.14849,0.03661
1645.21975,0.03648
1643.29100,0.03652
1641.36226,0.03688
1639.43351,0.03733
1637.50477,0.03755
1635.57602,0.03738
1633.64728,0.03720
1631.71853,0.03725
1629.78978,0.03728
1627.86104,0.03719
1625.93229,0.03707
1624.00355,0.03704
1622.07480,0.03707
1620.14606,0.03702
1618.21731,0.03674
1616.28857,0.03624
1614.35982,0.03586
1612.43108,0.03584
1610.50233,0.03608
1608.57359,0.03629
1606.64484,0.03623
1604.71610,0.03619
1602.78735,0.03638
1600.85861,0.03642
1598.92986,0.03616
1597.00111,0.03603
1595.07237,0.03620
1593.14362,0.03641
1591.21488,0.03640
1589.28613,0.03618
1587.35739,0.03578
1585.42864,0.03510
1583.49990,0.03433
1581.57115,0.03382
1579.64241,0.03354
1577.71366,0.03327
1575.78492,0.03317
1573.85617,0.03345
1571.92743,0.03394
1569.99868,0.03435
1568.06993,0.03461
1566.14119,0.03490
1564.21244,0.03511
1562.28370,0.03507
1560.35495,0.03481
1558.42621,0.03454
1556.49746,0.03467
1554.56872,0.03496
1552.63997,0.03501
1550.71123,0.03491
1548.78248,0.03490
1546.85374,0.03503
1544.92499,0.03530
1542.99625,0.03559
1541.06750,0.03570
1539.13876,0.03558
1537.21001,0.03547
1535.28126,0.03546
1533.35252,0.03545
1531.42377,0.03538
1529.49503,0.03516
1527.56628,0.03482
1525.63754,0.03473
1523.70879,0.03510
1521.78005,0.03546
1519.85130,0.03539
1517.92256,0.03506
1515.99381,0.03467
1514.06507,0.03438
1512.13632,0.03420
1510.20758,0.03386
1508.27883,0.03315
1506.35008,0.03220
1504.42134,0.03172
1502.49259,0.03208
1500.56385,0.03295
1498.63510,0.03378
1496.70636,0.03422
1494.77761,0.03429
1492.84887,0.03419
1490.92012,0.03392
1488.99138,0.03350
1487.06263,0.03304
1485.13389,0.03266
1483.20514,0.03245
1481.27640,0.03215
1479.34765,0.03157
1477.41891,0.03091
1475.49016,0.03024
1473.56141,0.02940
1471.63267,0.02842
1469.70392,0.02767
1467.77518,0.02728
1465.84643,0.02711
1463.91769,0.02718
1461.98894,0.02750
1460.06020,0.02787
1458.13145,0.02819
1456.20271,0.02838
1454.27396,0.02844
1452.34522,0.02850
1450.41647,0.02859
1448.48773,0.02864
1446.55898,0.02860
1444.63024,0.02862
1442.70149,0.02870
1440.77274,0.02852
1438.84400,0.02808
1436.91525,0.02769
1434.98651,0.02764
1433.05776,0.02788
1431.12902,0.02804
1429.20027,0.02797
1427.27153,0.02783
1425.34278,0.02783
1423.41404,0.02815
1421.48529,0.02868
1419.55655,0.02902
1417.62780,0.02903
1415.69906,0.02885
1413.77031,0.02861
1411.84156,0.02845
1409.91282,0.02844
1407.98407,0.02849
1406.05533,0.02869
1404.12658,0.02911
1402.19784,0.02955
1400.26909,0.02988
1398.34035,0.03006
1396.41160,0.02992
1394.48286,0.02939
1392.55411,0.02881
1390.62537,0.02844
1388.69662,0.02814
1386.76788,0.02785
1384.83913,0.02764
1382.91039,0.02746
1380.98164,0.02748
1379.05289,0.02787
1377.12415,0.02836
1375.19540,0.02867
1373.26666,0.02888
1371.33791,0.02910
1369.40917,0.02930
1367.48042,0.02938
1365.55168,0.02928
1363.62293,0.02911
1361.69419,0.02891
1359.76544,0.02862
1357.83670,0.02842
1355.90795,0.02844
1353.97921,0.02844
1352.05046,0.02827
1350.12172,0.02820
1348.19297,0.02822
1346.26422,0.02813
1344.33548,0.02786
1342.40673,0.02752
1340.47799,0.02717
1338.54924,0.02688
1336.62050,0.02674
1334.69175,0.02683
1332.76301,0.02702
1330.83426,0.02709
1328.90552,0.02703
1326.97677,0.02692
1325.04803,0.02679
1323.11928,0.02670
1321.19054,0.02653
1319.26179,0.02633
1317.33304,0.02626
1315.40430,0.02632
1313.47555,0.02640
1311.54681,0.02638
1309.61806,0.02628
1307.68932,0.02617
1305.76057,0.02615
1303.83183,0.02622
1301.90308,0.02610
1299.97434,0.02578
1298.04559,0.02557
1296.11685,0.02546
1294.18810,0.02533
1292.25936,0.02508
1290.33061,0.02478
1288.40187,0.02466
1286.47312,0.02463
1284.54437,0.02447
1282.61563,0.02434
1280.68688,0.02442
1278.75814,0.02467
1276.82939,0.02513
1274.90065,0.02601
1272.97190,0.02723
1271.04316,0.02837
1269.11441,0.02911
1267.18567,0.02953
1265.25692,0.02976
1263.32818,0.02978
1261.39943,0.02958
1259.47069,0.02939
1257.54194,0.02938
1255.61320,0.02952
1253.68445,0.02971
1251.75570,0.02994
1249.82696,0.03031
1247.89821,0.03075
1245.96947,0.03085
1244.04072,0.03063
1242.11198,0.03052
1240.18323,0.03059
1238.25449,0.03079
1236.32574,0.03103
1234.39700,0.03111
1232.46825,0.03105
1230.53951,0.03101
1228.61076,0.03109
1226.68202,0.03132
1224.75327,0.03147
1222.82452,0.03143
1220.89578,0.03143
1218.96703,0.03149
1217.03829,0.03138
1215.10954,0.03103
1213.18080,0.03071
1211.25205,0.03063
1209.32331,0.03060
1207.39456,0.03049
1205.46582,0.03038
1203.53707,0.03028
1201.60833,0.03023
1199.67958,0.03019
1197.75084,0.03016
1195.82209,0.03034
1193.89335,0.03068
1191.96460,0.03086
1190.03585,0.03096
1188.10711,0.03111
1186.17836,0.03127
1184.24962,0.03145
1182.32087,0.03153
1180.39213,0.03130
1178.46338,0.03081
1176.53464,0.03044
1174.60589,0.03033
1172.67715,0.03035
1170.74840,0.03038
1168.81966,0.03049
1166.89091,0.03058
1164.96217,0.03045
1163.03342,0.03022
1161.10467,0.03004
1159.17593,0.02983
1157.24718,0.02971
1155.31844,0.02988
1153.38969,0.02998
1151.46095,0.02964
1149.53220,0.02915
1147.60346,0.02887
1145.67471,0.02887
1143.74597,0.02884
1141.81722,0.02849
1139.88848,0.02809
1137.95973,0.02798
1136.03099,0.02789
1134.10224,0.02752
1132.17350,0.02704
1130.24475,0.02661
1128.31600,0.02635
1126.38726,0.02627
1124.45851,0.02616
1122.52977,0.02591
1120.60102,0.02593
1118.67228,0.02661
1116.74353,0.02731
1114.81479,0.02733
1112.88604,0.02725
1110.95730,0.02742
1109.02855,0.02752
1107.09981,0.02774
1105.17106,0.02838
1103.24232,0.02915
1101.31357,0.02956
1099.38483,0.02959
1097.45608,0.02962
1095.52733,0.02980
1093.59859,0.02977
1091.66984,0.02949
1089.74110,0.02926
1087.81235,0.02911
1085.88361,0.02905
1083.95486,0.02930
1082.02612,0.02985
1080.09737,0.03032
1078.16863,0.03060
1076.23988,0.03082
1074.31114,0.03100
1072.38239,0.03109
1070.45365,0.03112
1068.52490,0.03122
1066.59615,0.03135
1064.66741,0.03143
1062.73866,0.03156
1060.80992,0.03167
1058.88117,0.03169
1056.95243,0.03181
1055.02368,0.03197
1053.09494,0.03201
1051.16619,0.03185
1049.23745,0.03163
1047.30870,0.03179
1045.37996,0.03208
1043.45121,0.03190
1041.52247,0.03147
1039.59372,0.03132
1037.66498,0.03143
1035.73623,0.03150
1033.80748,0.03144
1031.87874,0.03141
1029.94999,0.03138
1028.02125,0.03118
1026.09250,0.03069
1024.16376,0.02984
1022.23501,0.02898
1020.30627,0.02875
1018.37752,0.02937
1016.44878,0.03032
1014.52003,0.03100
1012.59129,0.03135
1010.66254,0.03165
1008.73380,0.03189
1006.80505,0.03199
1004.87631,0.03197
1002.94756,0.03192
1001.01881,0.03187
999.09007,0.03185
997.16132,0.03175
995.23258,0.03149
993.30383,0.03120
991.37509,0.03096
989.44634,0.03062
987.51760,0.03023
985.58885,0.03001
983.66011,0.02994
981.73136,0.02990
979.80262,0.02989
977.87387,0.02995
975.94513,0.03001
974.01638,0.02996
972.08763,0.02985
970.15889,0.02976
968.23014,0.02964
966.30140,0.02948
964.37265,0.02937
962.44391,0.02936
960.51516,0.02934
958.58642,0.02932
956.65767,0.02947
954.72893,0.02968
952.80018,0.02984
950.87144,0.03018
948.94269,0.03050
947.01395,0.03054
945.08520,0.03065
943.15646,0.03102
941.22771,0.03136
939.29896,0.03158
937.37022,0.03158
935.44147,0.03108
933.51273,0.03047
931.58398,0.03042
929.65524,0.03077
927.72649,0.03092
925.79775,0.03088
923.86900,0.03096
921.94026,0.03114
920.01151,0.03122
918.08277,0.03131
916.15402,0.03159
914.22528,0.03178
912.29653,0.03165
910.36779,0.03148
908.43904,0.03162
906.51029,0.03191
904.58155,0.03205
902.65280,0.03238
900.72406,0.03295
898.79531,0.03321
896.86657,0.03322
894.93782,0.03327
893.00908,0.03321
891.08033,0.03290
889.15159,0.03258
887.22284,0.03258
885.29410,0.03285
883.36535,0.03281
881.43661,0.03204
879.50786,0.03094
877.57911,0.03031
875.65037,0.03020
873.72162,0.03034
871.79288,0.03098
869.86413,0.03196
867.93539,0.03252
866.00664,0.03248
864.07790,0.03242
862.14915,0.03252
860.22041,0.03250
858.29166,0.03242
856.36292,0.03242
854.43417,0.03235
852.50543,0.03216
850.57668,0.03201
848.64794,0.03192
846.71919,0.03184
844.79044,0.03188
842.86170,0.03203
840.93295,0.03219
839.00421,0.03221
837.07546,0.03210
835.14672,0.03223
833.21797,0.03260
831.28923,0.03281
829.36048,0.03295
827.43174,0.03312
825.50299,0.03342
823.57425,0.03382
821.64550,0.03389
819.71676,0.03372
817.78801,0.03378
815.85926,0.03407
813.93052,0.03445
812.00177,0.03491
810.07303,0.03518
808.14428,0.03488
806.21554,0.03438
804.28679,0.03430
802.35805,0.03434
800.42930,0.03400
798.50056,0.03342
796.57181,0.03300
794.64307,0.03290
792.71432,0.03287
790.78558,0.03269
788.85683,0.03270
786.92809,0.03295
784.99934,0.03292
783.07059,0.03275
781.14185,0.03282
779.21310,0.03283
777.28436,0.03264
775.35561,0.03261
773.42687,0.03256
771.49812,0.03211
769.56938,0.03170
767.64063,0.03186
765.71189,0.03227
763.78314,0.03230
761.85440,0.03194
759.92565,0.03170
757.99691,0.03180
756.06816,0.03181
754.13942,0.03155
752.21067,0.03132
750.28192,0.03129
748.35318,0.03136
746.42443,0.03129
744.49569,0.03070
742.56694,0.02978
740.63820,0.02886
738.70945,0.02741
736.78071,0.02568
734.85196,0.02528
732.92322,0.02643
730.99447,0.02786
729.06573,0.02893
727.13698,0.02987
725.20824,0.03100
723.27949,0.03213
721.35074,0.03272
719.42200,0.03256
717.49325,0.03212
715.56451,0.03186
713.63576,0.03176
711.70702,0.03169
709.77827,0.03144
707.84953,0.03056
705.92078,0.02932
703.99204,0.02855
702.06329,0.02859
700.13455,0.02917
698.20580,0.02967
696.27706,0.02985
694.34831,0.02995
692.41957,0.03002
690.49082,0.02996
688.56207,0.02971
686.63333,0.02956
684.70458,0.02988
682.77584,0.03017
680.84709,0.02991
678.91835,0.02977
676.98960,0.03015
675.06086,0.03040
673.13211,0.03041
671.20337,0.03065
669.27462,0.03078
667.34588,0.03059
665.41713,0.03036
663.48839,0.02997
661.55964,0.02946
659.63090,0.02926
657.70215,0.02914
655.77340,0.02852
653.84466,0.02718
651.91591,0.02552
649.98717,0.02490
648.05842,0.02579
646.12968,0.02644
644.20093,0.02589
642.27219,0.02546
640.34344,0.02592
638.41470,0.02624
636.48595,0.02558
634.55721,0.02473
632.62846,0.02485
630.69972,0.02546
628.77097,0.02580
626.84222,0.02611
624.91348,0.02648
622.98473,0.02647
621.05599,0.02564
619.12724,0.02445
617.19850,0.02430
615.26975,0.02517
613.34101,0.02525
611.41226,0.02447
609.48352,0.02476
607.55477,0.02652
605.62603,0.02839
603.69728,0.02967
601.76854,0.03046
599.83979,0.03082
