7497.03301,0.04429
7495.10426,0.04815
7493.17552,0.04772
7491.24677,0.04269
7489.31803,0.03522
7487.38928,0.02944
7485.46054,0.03003
7483.53179,0.03498
7481.60305,0.03710
7479.67430,0.03553
7477.74556,0.03281
7475.81681,0.03303
7473.88807,0.03724
7471.95932,0.03972
7470.03057,0.03684
7468.10183,0.03263
7466.17308,0.03158
7464.24434,0.03460
7462.31559,0.03875
7460.38685,0.03881
7458.45810,0.03405
7456.52936,0.03175
7454.60061,0.03504
7452.67187,0.03952
7450.74312,0.03930
7448.81438,0.03508
7446.88563,0.03294
7444.95689,0.03496
7443.02814,0.03680
7441.09940,0.03622
7439.17065,0.03482
7437.24190,0.03634
7435.31316,0.04255
7433.38441,0.04723
7431.45567,0.04290
7429.52692,0.03587
7427.59818,0.03538
7425.66943,0.03714
7423.74069,0.03659
7421.81194,0.03724
7419.88320,0.03801
7417.95445,0.03673
7416.02571,0.03621
7414.09696,0.03915
7412.16822,0.04207
7410.23947,0.04322
7408.31073,0.04434
7406.38198,0.04500
7404.45323,0.04200
7402.52449,0.03707
7400.59574,0.03659
7398.66700,0.03885
7396.73825,0.03758
7394.80951,0.03439
7392.88076,0.03334
7390.95202,0.03267
7389.02327,0.02811
7387.09453,0.02397
7385.16578,0.02663
7383.23704,0.03364
7381.30829,0.03763
7379.37955,0.03861
7377.45080,0.03961
7375.52205,0.03970
7373.59331,0.03871
7371.66456,0.03840
7369.73582,0.03802
7367.80707,0.03753
7365.87833,0.03714
7363.94958,0.03641
7362.02084,0.03721
7360.09209,0.04076
7358.16335,0.04237
7356.23460,0.04160
7354.30586,0.04305
7352.37711,0.04439
7350.44837,0.03971
7348.51962,0.03241
7346.59088,0.03067
7344.66213,0.03446
7342.73338,0.03859
7340.80464,0.04166
7338.87589,0.04314
7336.94715,0.04392
7335.01840,0.04614
7333.08966,0.04657
7331.16091,0.04311
7329.23217,0.04017
7327.30342,0.03842
7325.37468,0.03589
7323.44593,0.03348
7321.51719,0.03167
7319.58844,0.03271
7317.65970,0.03666
7315.73095,0.03846
7313.80221,0.03841
7311.87346,0.03851
7309.94471,0.03809
7308.01597,0.04059
7306.08722,0.04579
7304.15848,0.04534
7302.22973,0.03760
7300.30099,0.02864
7298.37224,0.02569
7296.44350,0.03099
7294.51475,0.03793
7292.58601,0.03785
7290.65726,0.03360
7288.72852,0.03314
7286.79977,0.03451
7284.87103,0.03285
7282.94228,0.03114
7281.01353,0.03071
7279.08479,0.02923
7277.15604,0.02675
7275.22730,0.02564
7273.29855,0.02747
7271.36981,0.03015
7269.44106,0.03095
7267.51232,0.03163
7265.58357,0.03516
7263.65483,0.03900
7261.72608,0.03925
7259.79734,0.03772
7257.86859,0.03717
7255.93985,0.03854
7254.01110,0.04084
7252.08236,0.04123
7250.15361,0.03897
7248.22486,0.03776
7246.29612,0.03885
7244.36737,0.03962
7242.43863,0.03999
7240.50988,0.04177
7238.58114,0.04420
7236.65239,0.04554
7234.72365,0.04361
7232.79490,0.03926
7230.86616,0.03597
7228.93741,0.03594
7227.00867,0.03861
7225.07992,0.04145
7223.15118,0.04368
7221.22243,0.04445
7219.29369,0.04207
7217.36494,0.03892
7215.43619,0.03761
7213.50745,0.03672
7211.57870,0.03474
7209.64996,0.03339
7207.72121,0.03531
7205.79247,0.03976
7203.86372,0.04165
7201.93498,0.03999
7200.00623,0.03886
7198.07749,0.03835
7196.14874,0.03594
7194.22000,0.03531
7192.29125,0.04006
7190.36251,0.04532
7188.43376,0.04480
7186.50501,0.03977
7184.57627,0.03682
7182.64752,0.03854
7180.71878,0.03979
7178.79003,0.03850
7176.86129,0.03761
7174.93254,0.03806
7173.00380,0.03911
7171.07505,0.03945
7169.14631,0.03792
7167.21756,0.03577
7165.28882,0.03410
7163.36007,0.03276
7161.43133,0.03252
7159.50258,0.03376
7157.57384,0.03392
7155.64509,0.03205
7153.71634,0.03119
7151.78760,0.03400
7149.85885,0.03878
7147.93011,0.04207
7146.00136,0.04172
7144.07262,0.03864
7142.14387,0.03580
7140.21513,0.03559
7138.28638,0.03857
7136.35764,0.04287
7134.42889,0.04481
7132.50015,0.04348
7130.57140,0.04152
7128.64266,0.04014
7126.71391,0.03869
7124.78516,0.03880
7122.85642,0.03998
7120.92767,0.03964
7118.99893,0.03907
7117.07018,0.04027
7115.14144,0.04087
7113.21269,0.03852
7111.28395,0.03504
7109.35520,0.03450
7107.42646,0.03627
7105.49771,0.03789
7103.56897,0.04022
7101.64022,0.04203
7099.71148,0.04129
7097.78273,0.04065
7095.85399,0.04175
7093.92524,0.04118
7091.99649,0.03819
7090.06775,0.03733
7088.13900,0.03843
7086.21026,0.03881
7084.28151,0.03850
7082.35277,0.03779
7080.42402,0.03667
7078.49528,0.03585
7076.56653,0.03576
7074.63779,0.03717
7072.70904,0.03868
7070.78030,0.03874
7068.85155,0.03898
7066.92281,0.03942
7064.99406,0.03732
7063.06532,0.03412
7061.13657,0.03448
7059.20782,0.03862
7057.27908,0.04116
7055.35033,0.03777
7053.42159,0.03295
7051.49284,0.03414
7049.56410,0.03834
7047.63535,0.03848
7045.70661,0.03479
7043.77786,0.03316
7041.84912,0.03595
7039.92037,0.03859
7037.99163,0.03789
7036.06288,0.03681
7034.13414,0.03785
7032.20539,0.04032
7030.27664,0.04097
7028.34790,0.03775
7026.41915,0.03354
7024.49041,0.03172
7022.56166,0.03273
7020.63292,0.03552
7018.70417,0.03727
7016.77543,0.03630
7014.84668,0.03576
7012.91794,0.03676
7010.98919,0.03607
7009.06045,0.03562
7007.13170,0.03883
7005.20296,0.04060
7003.27421,0.03680
7001.34547,0.03308
6999.41672,0.03444
6997.48797,0.03824
6995.55923,0.03967
6993.63048,0.03922
6991.70174,0.03928
6989.77299,0.03863
6987.84425,0.03656
6985.91550,0.03606
6983.98676,0.03870
6982.05801,0.04195
6980.12927,0.04158
6978.20052,0.03842
6976.27178,0.03749
6974.34303,0.03888
6972.41429,0.03854
6970.48554,0.03721
6968.55680,0.03813
6966.62805,0.04031
6964.69930,0.04123
6962.77056,0.03998
6960.84181,0.03804
6958.91307,0.03875
6956.98432,0.04033
6955.05558,0.03830
6953.12683,0.03422
6951.19809,0.03284
6949.26934,0.03538
6947.34060,0.03937
6945.41185,0.04125
6943.48311,0.04076
6941.55436,0.04114
6939.62562,0.04178
6937.69687,0.03899
6935.76812,0.03519
6933.83938,0.03576
6931.91063,0.03880
6929.98189,0.03885
6928.05314,0.03707
6926.12440,0.03707
6924.19565,0.03891
6922.26691,0.04121
6920.33816,0.04202
6918.40942,0.03983
6916.48067,0.03628
6914.55193,0.03448
6912.62318,0.03554
6910.69444,0.03808
6908.76569,0.04049
6906.83695,0.04128
6904.90820,0.04089
6902.97945,0.03970
6901.05071,0.03804
6899.12196,0.03716
6897.19322,0.03726
6895.26447,0.03833
6893.33573,0.04059
6891.40698,0.04057
6889.47824,0.03811
6887.54949,0.03848
6885.62075,0.04156
6883.69200,0.04166
6881.76326,0.03825
6879.83451,0.03592
6877.90577,0.03672
6875.97702,0.03897
6874.04828,0.04046
6872.11953,0.03901
6870.19078,0.03505
6868.26204,0.03321
6866.33329,0.03547
6864.40455,0.03730
6862.47580,0.03555
6860.54706,0.03447
6858.61831,0.03866
6856.68957,0.04409
6854.76082,0.04435
6852.83208,0.04013
6850.90333,0.03584
6848.97459,0.03431
6847.04584,0.03550
6845.11710,0.03668
6843.18835,0.03760
6841.25960,0.03909
6839.33086,0.03891
6837.40211,0.03744
6835.47337,0.03817
6833.54462,0.03993
6831.61588,0.04089
6829.68713,0.04193
6827.75839,0.04275
6825.82964,0.04126
6823.90090,0.03830
6821.97215,0.03630
6820.04341,0.03523
6818.11466,0.03520
6816.18592,0.03776
6814.25717,0.04083
6812.32843,0.04107
6810.39968,0.03926
6808.47093,0.03865
6806.54219,0.04007
6804.61344,0.04156
6802.68470,0.04232
6800.75595,0.04182
6798.82721,0.03954
6796.89846,0.03740
6794.96972,0.03659
6793.04097,0.03583
6791.11223,0.03320
6789.18348,0.03110
6787.25474,0.03259
6785.32599,0.03551
6783.39725,0.03762
6781.46850,0.03855
6779.53975,0.03803
6777.61101,0.03778
6775.68226,0.03902
6773.75352,0.04086
6771.82477,0.04165
6769.89603,0.04092
6767.96728,0.03948
6766.03854,0.03767
6764.10979,0.03527
6762.18105,0.03346
6760.25230,0.03306
6758.32356,0.03252
6756.39481,0.03245
6754.46607,0.03468
6752.53732,0.03631
6750.60858,0.03635
6748.67983,0.03723
6746.75108,0.03857
6744.82234,0.03887
6742.89359,0.03893
6740.96485,0.04001
6739.03610,0.04120
6737.10736,0.04064
6735.17861,0.03961
6733.24987,0.03974
6731.32112,0.03994
6729.39238,0.03879
6727.46363,0.03717
6725.53489,0.03739
6723.60614,0.03843
6721.67740,0.03692
6719.74865,0.03498
6717.81991,0.03552
6715.89116,0.03634
6713.96241,0.03674
6712.03367,0.03803
6710.10492,0.03838
6708.17618,0.03682
6706.24743,0.03515
6704.31869,0.03497
6702.38994,0.03651
6700.46120,0.03839
6698.53245,0.03931
6696.60371,0.03889
6694.67496,0.03787
6692.74622,0.03758
6690.81747,0.03763
6688.88873,0.03821
6686.95998,0.03848
6685.03123,0.03707
6683.10249,0.03676
6681.17374,0.03801
6679.24500,0.03763
6677.31625,0.03619
6675.38751,0.03552
6673.45876,0.03562
6671.53002,0.03694
6669.60127,0.03913
6667.67253,0.04036
6665.74378,0.03897
6663.81504,0.03477
6661.88629,0.03159
6659.95755,0.03266
6658.02880,0.03591
6656.10006,0.03932
6654.17131,0.04117
6652.24256,0.03982
6650.31382,0.03880
6648.38507,0.04021
6646.45633,0.04060
6644.52758,0.03935
6642.59884,0.03835
6640.67009,0.03792
6638.74135,0.03846
6636.81260,0.03955
6634.88386,0.03969
6632.95511,0.03858
6631.02637,0.03781
6629.09762,0.03738
6627.16888,0.03553
6625.24013,0.03334
6623.31139,0.03428
6621.38264,0.03761
6619.45389,0.03887
6617.52515,0.03717
6615.59640,0.03631
6613.66766,0.03753
6611.73891,0.03877
6609.81017,0.03939
6607.88142,0.03944
6605.95268,0.03773
6604.02393,0.03522
6602.09519,0.03452
6600.16644,0.03570
6598.23770,0.03614
6596.30895,0.03498
6594.38021,0.03473
6592.45146,0.03541
6590.52271,0.03445
6588.59397,0.03323
6586.66522,0.03442
6584.73648,0.03712
6582.80773,0.03880
6580.87899,0.03816
6578.95024,0.03631
6577.02150,0.03592
6575.09275,0.03766
6573.16401,0.03972
6571.23526,0.04067
6569.30652,0.04023
6567.37777,0.03854
6565.44903,0.03666
6563.52028,0.03480
6561.59154,0.03272
6559.66279,0.03130
6557.73404,0.03129
6555.80530,0.03221
6553.87655,0.03366
6551.94781,0.03555
6550.01906,0.03758
6548.09032,0.03810
6546.16157,0.03653
6544.23283,0.03448
6542.30408,0.03393
6540.37534,0.03532
6538.44659,0.03721
6536.51785,0.03875
6534.58910,0.04118
6532.66036,0.04403
6530.73161,0.04485
6528.80287,0.04304
6526.87412,0.04069
6524.94537,0.03943
6523.01663,0.03772
6521.08788,0.03488
6519.15914,0.03363
6517.23039,0.03520
6515.30165,0.03784
6513.37290,0.03821
6511.44416,0.03551
6509.51541,0.03368
6507.58667,0.03484
6505.65792,0.03617
6503.72918,0.03663
6501.80043,0.03815
6499.87169,0.04023
6497.94294,0.04125
6496.01419,0.04173
6494.08545,0.04168
6492.15670,0.04057
6490.22796,0.03887
6488.29921,0.03757
6486.37047,0.03709
6484.44172,0.03680
6482.51298,0.03648
6480.58423,0.03634
6478.65549,0.03560
6476.72674,0.03478
6474.79800,0.03448
6472.86925,0.03429
6470.94051,0.03388
6469.01176,0.03324
6467.08302,0.03314
6465.15427,0.03432
6463.22552,0.03670
6461.29678,0.03972
6459.36803,0.04149
6457.43929,0.04065
6455.51054,0.03789
6453.58180,0.03508
6451.65305,0.03384
6449.72431,0.03453
6447.79556,0.03578
6445.86682,0.03667
6443.93807,0.03736
6442.00933,0.03767
6440.08058,0.03721
6438.15184,0.03593
6436.22309,0.03415
6434.29434,0.03321
6432.36560,0.03425
6430.43685,0.03620
6428.50811,0.03687
6426.57936,0.03713
6424.65062,0.03811
6422.72187,0.03775
6420.79313,0.03566
6418.86438,0.03440
6416.93564,0.03514
6415.00689,0.03605
6413.07815,0.03594
6411.14940,0.03642
6409.22066,0.03748
6407.29191,0.03753
6405.36317,0.03593
6403.43442,0.03378
6401.50567,0.03325
6399.57693,0.03446
6397.64818,0.03580
6395.71944,0.03615
6393.79069,0.03538
6391.86195,0.03505
6389.93320,0.03503
6388.00446,0.03484
6386.07571,0.03572
6384.14697,0.03646
6382.21822,0.03589
6380.28948,0.03605
6378.36073,0.03763
6376.43199,0.03883
6374.50324,0.03871
6372.57450,0.03844
6370.64575,0.03856
6368.71700,0.03786
6366.78826,0.03549
6364.85951,0.03345
6362.93077,0.03423
6361.00202,0.03654
6359.07328,0.03747
6357.14453,0.03690
6355.21579,0.03587
6353.28704,0.03490
6351.35830,0.03479
6349.42955,0.03595
6347.50081,0.03641
6345.57206,0.03579
6343.64332,0.03726
6341.71457,0.04026
6339.78582,0.04102
6337.85708,0.03977
6335.92833,0.03826
6333.99959,0.03627
6332.07084,0.03422
6330.14210,0.03476
6328.21335,0.03772
6326.28461,0.03867
6324.35586,0.03727
6322.42712,0.03686
6320.49837,0.03730
6318.56963,0.03812
6316.64088,0.03947
6314.71214,0.03989
6312.78339,0.03894
6310.85465,0.03712
6308.92590,0.03503
6306.99715,0.03383
6305.06841,0.03420
6303.13966,0.03575
6301.21092,0.03746
6299.28217,0.03847
6297.35343,0.03815
6295.42468,0.03653
6293.49594,0.03509
6291.56719,0.03468
6289.63845,0.03494
6287.70970,0.03618
6285.78096,0.03749
6283.85221,0.03755
6281.92347,0.03741
6279.99472,0.03761
6278.06598,0.03734
6276.13723,0.03685
6274.20848,0.03668
6272.27974,0.03723
6270.35099,0.03874
6268.42225,0.04008
6266.49350,0.04025
6264.56476,0.03980
6262.63601,0.03838
6260.70727,0.03611
6258.77852,0.03414
6256.84978,0.03318
6254.92103,0.03325
6252.99229,0.03476
6251.06354,0.03721
6249.13480,0.03804
6247.20605,0.03656
6245.27730,0.03599
6243.34856,0.03703
6241.41981,0.03765
6239.49107,0.03780
6237.56232,0.03791
6235.63358,0.03738
6233.70483,0.03594
6231.77609,0.03487
6229.84734,0.03608
6227.91860,0.03844
6225.98985,0.03875
6224.06111,0.03757
6222.13236,0.03785
6220.20362,0.03855
6218.27487,0.03692
6216.34613,0.03455
6214.41738,0.03460
6212.48863,0.03651
6210.55989,0.03833
6208.63114,0.03930
6206.70240,0.03902
6204.77365,0.03871
6202.84491,0.03985
6200.91616,0.04041
6198.98742,0.03850
6197.05867,0.03601
6195.12993,0.03554
6193.20118,0.03684
6191.27244,0.03764
6189.34369,0.03712
6187.41495,0.03695
6185.48620,0.03734
6183.55746,0.03708
6181.62871,0.03784
6179.69996,0.04026
6177.77122,0.04070
6175.84247,0.03827
6173.91373,0.03615
6171.98498,0.03560
6170.05624,0.03568
6168.12749,0.03600
6166.19875,0.03606
6164.27000,0.03547
6162.34126,0.03586
6160.41251,0.03785
6158.48377,0.03924
6156.55502,0.03911
6154.62628,0.03787
6152.69753,0.03591
6150.76878,0.03484
6148.84004,0.03496
6146.91129,0.03528
6144.98255,0.03600
6143.05380,0.03679
6141.12506,0.03719
6139.19631,0.03734
6137.26757,0.03706
6135.33882,0.03652
6133.41008,0.03613
6131.48133,0.03591
6129.55259,0.03582
6127.62384,0.03573
6125.69510,0.03570
6123.76635,0.03626
6121.83761,0.03791
6119.90886,0.03890
6117.98011,0.03741
6116.05137,0.03605
6114.12262,0.03740
6112.19388,0.03907
6110.26513,0.03870
6108.33639,0.03763
6106.40764,0.03677
6104.47890,0.03631
6102.55015,0.03707
6100.62141,0.03845
6098.69266,0.03954
6096.76392,0.04050
6094.83517,0.04076
6092.90643,0.03939
6090.97768,0.03769
6089.04893,0.03741
6087.12019,0.03828
6085.19144,0.03952
6083.26270,0.04018
6081.33395,0.03975
6079.40521,0.03894
6077.47646,0.03830
6075.54772,0.03833
6073.61897,0.03852
6071.69023,0.03781
6069.76148,0.03649
6067.83274,0.03612
6065.90399,0.03763
6063.97525,0.03924
6062.04650,0.03905
6060.11776,0.03760
6058.18901,0.03609
6056.26026,0.03571
6054.33152,0.03643
6052.40277,0.03678
6050.47403,0.03648
6048.54528,0.03629
6046.61654,0.03641
6044.68779,0.03725
6042.75905,0.03812
6040.83030,0.03779
6038.90156,0.03698
6036.97281,0.03679
6035.04407,0.03651
6033.11532,0.03654
6031.18658,0.03803
6029.25783,0.03914
6027.32909,0.03784
6025.40034,0.03622
6023.47159,0.03610
6021.54285,0.03623
6019.61410,0.03586
6017.68536,0.03527
6015.75661,0.03488
6013.82787,0.03568
6011.89912,0.03739
6009.97038,0.03806
6008.04163,0.03662
6006.11289,0.03428
6004.18414,0.03334
6002.25540,0.03479
6000.32665,0.03694
5998.39791,0.03808
5996.46916,0.03787
5994.54041,0.03672
5992.61167,0.03592
5990.68292,0.03608
5988.75418,0.03641
5986.82543,0.03653
5984.89669,0.03658
5982.96794,0.03697
5981.03920,0.03748
5979.11045,0.03787
5977.18171,0.03790
5975.25296,0.03721
5973.32422,0.03661
5971.39547,0.03736
5969.46673,0.03953
5967.53798,0.04147
5965.60924,0.04113
5963.68049,0.03914
5961.75174,0.03794
5959.82300,0.03824
5957.89425,0.03918
5955.96551,0.03999
5954.03676,0.03986
5952.10802,0.03862
5950.17927,0.03710
5948.25053,0.03630
5946.32178,0.03669
5944.39304,0.03725
5942.46429,0.03690
5940.53555,0.03642
5938.60680,0.03647
5936.67806,0.03681
5934.74931,0.03749
5932.82057,0.03784
5930.89182,0.03694
5928.96307,0.03570
5927.03433,0.03524
5925.10558,0.03562
5923.17684,0.03669
5921.24809,0.03744
5919.31935,0.03746
5917.39060,0.03765
5915.46186,0.03770
5913.53311,0.03705
5911.60437,0.03612
5909.67562,0.03559
5907.74688,0.03598
5905.81813,0.03677
5903.88939,0.03697
5901.96064,0.03659
5900.03189,0.03596
5898.10315,0.03616
5896.17440,0.03763
5894.24566,0.03874
5892.31691,0.03884
5890.38817,0.03911
5888.45942,0.03948
5886.53068,0.03906
5884.60193,0.03861
5882.67319,0.03866
5880.74444,0.03863
5878.81570,0.03878
5876.88695,0.03839
5874.95821,0.03714
5873.02946,0.03695
5871.10072,0.03805
5869.17197,0.03817
5867.24322,0.03744
5865.31448,0.03739
5863.38573,0.03734
5861.45699,0.03669
5859.52824,0.03651
5857.59950,0.03692
5855.67075,0.03685
5853.74201,0.03644
5851.81326,0.03660
5849.88452,0.03721
5847.95577,0.03783
5846.02703,0.03775
5844.09828,0.03659
5842.16954,0.03515
5840.24079,0.03467
5838.31205,0.03554
5836.38330,0.03605
5834.45455,0.03572
5832.52581,0.03596
5830.59706,0.03600
5828.66832,0.03512
5826.73957,0.03485
5824.81083,0.03585
5822.88208,0.03686
5820.95334,0.03697
5819.02459,0.03645
5817.09585,0.03608
5815.16710,0.03639
5813.23836,0.03692
5811.30961,0.03709
5809.38087,0.03716
5807.45212,0.03772
5805.52337,0.03829
5803.59463,0.03765
5801.66588,0.03633
5799.73714,0.03565
5797.80839,0.03579
5795.87965,0.03608
5793.95090,0.03607
5792.02216,0.03638
5790.09341,0.03733
5788.16467,0.03830
5786.23592,0.03861
5784.30718,0.03829
5782.37843,0.03822
5780.44969,0.03801
5778.52094,0.03742
5776.59220,0.03735
5774.66345,0.03774
5772.73470,0.03830
5770.80596,0.03866
5768.87721,0.03815
5766.94847,0.03737
5765.01972,0.03696
5763.09098,0.03661
5761.16223,0.03602
5759.23349,0.03518
5757.30474,0.03456
5755.37600,0.03488
5753.44725,0.03560
5751.51851,0.03535
5749.58976,0.03474
5747.66102,0.03495
5745.73227,0.03539
5743.80352,0.03588
5741.87478,0.03671
5739.94603,0.03767
5738.01729,0.03845
5736.08854,0.03867
5734.15980,0.03874
5732.23105,0.03931
5730.30231,0.03966
5728.37356,0.03906
5726.44482,0.03797
5724.51607,0.03732
5722.58733,0.03774
5720.65858,0.03893
5718.72984,0.03975
5716.80109,0.03982
5714.87235,0.03944
5712.94360,0.03863
5711.01485,0.03755
5709.08611,0.03681
5707.15736,0.03691
5705.22862,0.03789
5703.29987,0.03868
5701.37113,0.03788
5699.44238,0.03619
5697.51364,0.03521
5695.58489,0.03498
5693.65615,0.03528
5691.72740,0.03615
5689.79866,0.03709
5687.86991,0.03781
5685.94117,0.03839
5684.01242,0.03801
5682.08368,0.03668
5680.15493,0.03620
5678.22618,0.03683
5676.29744,0.03723
5674.36869,0.03735
5672.43995,0.03789
5670.51120,0.03838
5668.58246,0.03828
5666.65371,0.03835
5664.72497,0.03858
5662.79622,0.03825
5660.86748,0.03781
5658.93873,0.03766
5657.00999,0.03718
5655.08124,0.03654
5653.15250,0.03676
5651.22375,0.03778
5649.29500,0.03821
5647.36626,0.03728
5645.43751,0.03606
5643.50877,0.03587
5641.58002,0.03611
5639.65128,0.03604
5637.72253,0.03646
5635.79379,0.03730
5633.86504,0.03778
5631.93630,0.03821
5630.00755,0.03852
5628.07881,0.03840
5626.15006,0.03835
5624.22132,0.03888
5622.29257,0.03947
5620.36383,0.03886
5618.43508,0.03763
5616.50633,0.03754
5614.57759,0.03786
5612.64884,0.03729
5610.72010,0.03668
5608.79135,0.03713
5606.86261,0.03839
5604.93386,0.03930
5603.00512,0.03862
5601.07637,0.03677
5599.14763,0.03615
5597.21888,0.03768
5595.29014,0.03915
5593.36139,0.03895
5591.43265,0.03822
5589.50390,0.03814
5587.57516,0.03799
5585.64641,0.03729
5583.71766,0.03713
5581.78892,0.03781
5579.86017,0.03848
5577.93143,0.03883
5576.00268,0.03895
5574.07394,0.03887
5572.14519,0.03840
5570.21645,0.03758
5568.28770,0.03685
5566.35896,0.03637
5564.43021,0.03645
5562.50147,0.03740
5560.57272,0.03833
5558.64398,0.03819
5556.71523,0.03743
5554.78648,0.03709
5552.85774,0.03772
5550.92899,0.03903
5549.00025,0.03944
5547.07150,0.03850
5545.14276,0.03767
5543.21401,0.03708
5541.28527,0.03618
5539.35652,0.03606
5537.42778,0.03736
5535.49903,0.03883
5533.57029,0.03931
5531.64154,0.03903
5529.71280,0.03856
5527.78405,0.03822
5525.85531,0.03796
5523.92656,0.03800
5521.99781,0.03833
5520.06907,0.03793
5518.14032,0.03687
5516.21158,0.03668
5514.28283,0.03693
5512.35409,0.03623
5510.42534,0.03587
5508.49660,0.03704
5506.56785,0.03814
5504.63911,0.03834
5502.71036,0.03806
5500.78162,0.03725
5498.85287,0.03637
5496.92413,0.03625
5494.99538,0.03653
5493.06664,0.03635
5491.13789,0.03618
5489.20914,0.03693
5487.28040,0.03833
5485.35165,0.03953
5483.42291,0.03964
5481.49416,0.03841
5479.56542,0.03684
5477.63667,0.03650
5475.70793,0.03741
5473.77918,0.03820
5471.85044,0.03854
5469.92169,0.03867
5467.99295,0.03821
5466.06420,0.03751
5464.13546,0.03722
5462.20671,0.03727
5460.27796,0.03749
5458.34922,0.03797
5456.42047,0.03874
5454.49173,0.03911
5452.56298,0.03831
5450.63424,0.03717
5448.70549,0.03724
5446.77675,0.03868
5444.84800,0.03987
5442.91926,0.03936
5440.99051,0.03793
5439.06177,0.03744
5437.13302,0.03821
5435.20428,0.03890
5433.27553,0.03846
5431.34679,0.03764
5429.41804,0.03749
5427.48929,0.03796
5425.56055,0.03842
5423.63180,0.03837
5421.70306,0.03808
5419.77431,0.03854
5417.84557,0.03976
5415.91682,0.04055
5413.98808,0.04075
5412.05933,0.04079
5410.13059,0.04013
5408.20184,0.03875
5406.27310,0.03771
5404.34435,0.03756
5402.41561,0.03808
5400.48686,0.03880
5398.55811,0.03895
5396.62937,0.03844
5394.70062,0.03803
5392.77188,0.03807
5390.84313,0.03831
5388.91439,0.03835
5386.98564,0.03808
5385.05690,0.03779
5383.12815,0.03765
5381.19941,0.03765
5379.27066,0.03794
5377.34192,0.03835
5375.41317,0.03847
5373.48443,0.03860
5371.55568,0.03890
5369.62694,0.03871
5367.69819,0.03800
5365.76944,0.03768
5363.84070,0.03808
5361.91195,0.03861
5359.98321,0.03850
5358.05446,0.03766
5356.12572,0.03689
5354.19697,0.03700
5352.26823,0.03778
5350.33948,0.03876
5348.41074,0.03954
5346.48199,0.03968
5344.55325,0.03920
5342.62450,0.03852
5340.69576,0.03781
5338.76701,0.03758
5336.83827,0.03825
5334.90952,0.03873
5332.98077,0.03857
5331.05203,0.03888
5329.12328,0.03931
5327.19454,0.03915
5325.26579,0.03911
5323.33705,0.03935
5321.40830,0.03934
5319.47956,0.03884
5317.55081,0.03823
5315.62207,0.03822
5313.69332,0.03863
5311.76458,0.03874
5309.83583,0.03854
5307.90709,0.03809
5305.97834,0.03738
5304.04959,0.03723
5302.12085,0.03805
5300.19210,0.03873
5298.26336,0.03859
5296.33461,0.03828
5294.40587,0.03836
5292.47712,0.03862
5290.54838,0.03881
5288.61963,0.03888
5286.69089,0.03847
5284.76214,0.03758
5282.83340,0.03735
5280.90465,0.03828
5278.97591,0.03908
5277.04716,0.03884
5275.11842,0.03835
5273.18967,0.03828
5271.26092,0.03840
5269.33218,0.03851
5267.40343,0.03857
5265.47469,0.03863
5263.54594,0.03907
5261.61720,0.03995
5259.68845,0.04028
5257.75971,0.03959
5255.83096,0.03886
5253.90222,0.03883
5251.97347,0.03910
5250.04473,0.03930
5248.11598,0.03903
5246.18724,0.03811
5244.25849,0.03708
5242.32975,0.03644
5240.40100,0.03659
5238.47225,0.03755
5236.54351,0.03845
5234.61476,0.03887
5232.68602,0.03876
5230.75727,0.03822
5228.82853,0.03791
5226.89978,0.03779
5224.97104,0.03752
5223.04229,0.03758
5221.11355,0.03815
5219.18480,0.03854
5217.25606,0.03851
5215.32731,0.03874
5213.39857,0.03940
5211.46982,0.03969
5209.54107,0.03908
5207.61233,0.03814
5205.68358,0.03761
5203.75484,0.03748
5201.82609,0.03769
5199.89735,0.03825
5197.96860,0.03883
5196.03986,0.03908
5194.11111,0.03908
5192.18237,0.03886
5190.25362,0.03866
5188.32488,0.03898
5186.39613,0.03941
5184.46739,0.03932
5182.53864,0.03895
5180.60990,0.03858
5178.68115,0.03839
5176.75240,0.03848
5174.82366,0.03848
5172.89491,0.03837
5170.96617,0.03843
5169.03742,0.03863
5167.10868,0.03905
5165.17993,0.03962
5163.25119,0.03976
5161.32244,0.03920
5159.39370,0.03851
5157.46495,0.03822
5155.53621,0.03848
5153.60746,0.03924
5151.67872,0.03963
5149.74997,0.03920
5147.82123,0.03892
5145.89248,0.03929
5143.96373,0.03955
5142.03499,0.03940
5140.10624,0.03947
5138.17750,0.03967
5136.24875,0.03922
5134.32001,0.03826
5132.39126,0.03751
5130.46252,0.03740
5128.53377,0.03779
5126.60503,0.03842
5124.67628,0.03945
5122.74754,0.04030
5120.81879,0.03983
5118.89005,0.03868
5116.96130,0.03827
5115.03255,0.03864
5113.10381,0.03922
5111.17506,0.03944
5109.24632,0.03905
5107.31757,0.03899
5105.38883,0.03975
5103.46008,0.04045
5101.53134,0.04039
5099.60259,0.03984
5097.67385,0.03942
5095.74510,0.03943
5093.81636,0.03961
5091.88761,0.03949
5089.95887,0.03904
5088.03012,0.03895
5086.10138,0.03948
5084.17263,0.03978
5082.24388,0.03966
5080.31514,0.04004
5078.38639,0.04060
5076.45765,0.04007
5074.52890,0.03897
5072.60016,0.03872
5070.67141,0.03967
5068.74267,0.04086
5066.81392,0.04108
5064.88518,0.04056
5062.95643,0.04003
5061.02769,0.03923
5059.09894,0.03844
5057.17020,0.03857
5055.24145,0.03933
5053.31270,0.03998
5051.38396,0.04040
5049.45521,0.04020
5047.52647,0.03935
5045.59772,0.03872
5043.66898,0.03866
5041.74023,0.03878
5039.81149,0.03882
5037.88274,0.03868
5035.95400,0.03846
5034.02525,0.03851
5032.09651,0.03888
5030.16776,0.03910
5028.23902,0.03909
5026.31027,0.03950
5024.38153,0.04034
5022.45278,0.04077
5020.52403,0.04060
5018.59529,0.04025
5016.66654,0.03999
5014.73780,0.03990
5012.80905,0.03975
5010.88031,0.03938
5008.95156,0.03909
5007.02282,0.03909
5005.09407,0.03918
5003.16533,0.03915
5001.23658,0.03901
4999.30784,0.03894
4997.37909,0.03927
4995.45035,0.03981
4993.52160,0.04002
4991.59286,0.03985
4989.66411,0.03960
4987.73536,0.03977
4985.80662,0.04039
4983.87787,0.04060
4981.94913,0.04004
4980.02038,0.03950
4978.09164,0.03943
4976.16289,0.03967
4974.23415,0.03998
4972.30540,0.04009
4970.37666,0.03992
4968.44791,0.03970
4966.51917,0.03949
4964.59042,0.03917
4962.66168,0.03890
4960.73293,0.03894
4958.80418,0.03915
4956.87544,0.03932
4954.94669,0.03941
4953.01795,0.03941
4951.08920,0.03930
4949.16046,0.03951
4947.23171,0.03997
4945.30297,0.03987
4943.37422,0.03931
4941.44548,0.03926
4939.51673,0.03962
4937.58799,0.03949
4935.65924,0.03893
4933.73050,0.03873
4931.80175,0.03891
4929.87301,0.03909
4927.94426,0.03937
4926.01551,0.03983
4924.08677,0.04011
4922.15802,0.04018
4920.22928,0.04013
4918.30053,0.03961
4916.37179,0.03894
4914.44304,0.03867
4912.51430,0.03853
4910.58555,0.03855
4908.65681,0.03902
4906.72806,0.03991
4904.79932,0.04079
4902.87057,0.04111
4900.94183,0.04062
4899.01308,0.03968
4897.08434,0.03910
4895.15559,0.03923
4893.22684,0.03953
4891.29810,0.03960
4889.36935,0.03935
4887.44061,0.03903
4885.51186,0.03915
4883.58312,0.03982
4881.65437,0.04051
4879.72563,0.04082
4877.79688,0.04077
4875.86814,0.04056
4873.93939,0.04027
4872.01065,0.04015
4870.08190,0.04041
4868.15316,0.04094
4866.22441,0.04130
4864.29566,0.04099
4862.36692,0.04018
4860.43817,0.03983
4858.50943,0.04014
4856.58068,0.04016
4854.65194,0.03974
4852.72319,0.03953
4850.79445,0.03948
4848.86570,0.03935
4846.93696,0.03926
4845.00821,0.03940
4843.07947,0.03985
4841.15072,0.04017
4839.22198,0.04022
4837.29323,0.04033
4835.36449,0.04019
4833.43574,0.03972
4831.50699,0.03930
4829.57825,0.03903
4827.64950,0.03896
4825.72076,0.03911
4823.79201,0.03946
4821.86327,0.03994
4819.93452,0.04022
4818.00578,0.04006
4816.07703,0.03970
4814.14829,0.03959
4812.21954,0.03992
4810.29080,0.04029
4808.36205,0.04035
4806.43331,0.04020
4804.50456,0.04010
4802.57582,0.04018
4800.64707,0.04018
4798.71832,0.03995
4796.78958,0.03973
4794.86083,0.03937
4792.93209,0.03905
4791.00334,0.03941
4789.07460,0.04022
4787.14585,0.04089
4785.21711,0.04122
4783.28836,0.04111
4781.35962,0.04058
4779.43087,0.04016
4777.50213,0.04011
4775.57338,0.04000
4773.64464,0.03956
4771.71589,0.03923
4769.78714,0.03960
4767.85840,0.04033
4765.92965,0.04067
4764.00091,0.04066
4762.07216,0.04027
4760.14342,0.03949
4758.21467,0.03903
4756.28593,0.03922
4754.35718,0.03964
4752.42844,0.03998
4750.49969,0.04024
4748.57095,0.04029
4746.64220,0.03982
4744.71346,0.03922
4742.78471,0.03920
4740.85597,0.03958
4738.92722,0.03977
4736.99847,0.03993
4735.06973,0.04028
4733.14098,0.04039
4731.21224,0.03990
4729.28349,0.03935
4727.35475,0.03926
4725.42600,0.03944
4723.49726,0.03989
4721.56851,0.04036
4719.63977,0.04030
4717.71102,0.03993
4715.78228,0.03979
4713.85353,0.03992
4711.92479,0.03990
4709.99604,0.03959
4708.06729,0.03924
4706.13855,0.03914
4704.20980,0.03956
4702.28106,0.04026
4700.35231,0.04060
4698.42357,0.04050
4696.49482,0.04030
4694.56608,0.04007
4692.63733,0.04010
4690.70859,0.04039
4688.77984,0.04045
4686.85110,0.04047
4684.92235,0.04056
4682.99361,0.04048
4681.06486,0.04050
4679.13612,0.04064
4677.20737,0.04061
4675.27862,0.04057
4673.34988,0.04059
4671.42113,0.04044
4669.49239,0.04022
4667.56364,0.04029
4665.63490,0.04057
4663.70615,0.04092
4661.77741,0.04117
4659.84866,0.04113
4657.91992,0.04096
4655.99117,0.04085
4654.06243,0.04053
4652.13368,0.03990
4650.20494,0.03955
4648.27619,0.03963
4646.34745,0.03969
4644.41870,0.03963
4642.48995,0.03963
4640.56121,0.03962
4638.63246,0.03951
4636.70372,0.03953
4634.77497,0.03951
4632.84623,0.03938
4630.91748,0.03969
4628.98874,0.04025
4627.05999,0.04028
4625.13125,0.03994
4623.20250,0.03973
4621.27376,0.03967
4619.34501,0.04003
4617.41627,0.04068
4615.48752,0.04092
4613.55877,0.04072
4611.63003,0.04037
4609.70128,0.03996
4607.77254,0.03967
4605.84379,0.03969
4603.91505,0.03992
4601.98630,0.04014
4600.05756,0.04022
4598.12881,0.04019
4596.20007,0.04017
4594.27132,0.04004
4592.34258,0.03975
4590.41383,0.03984
4588.48509,0.04049
4586.55634,0.04091
4584.62760,0.04051
4582.69885,0.03990
4580.77010,0.03990
4578.84136,0.04043
4576.91261,0.04088
4574.98387,0.04089
4573.05512,0.04048
4571.12638,0.04018
4569.19763,0.04057
4567.26889,0.04130
4565.34014,0.04140
4563.41140,0.04079
4561.48265,0.04026
4559.55391,0.04032
4557.62516,0.04061
4555.69642,0.04063
4553.76767,0.04044
4551.83893,0.04045
4549.91018,0.04064
4547.98143,0.04075
4546.05269,0.04075
4544.12394,0.04059
4542.19520,0.04021
4540.26645,0.04008
4538.33771,0.04043
4536.40896,0.04062
4534.48022,0.04052
4532.55147,0.04078
4530.62273,0.04129
4528.69398,0.04137
4526.76524,0.04103
4524.83649,0.04091
4522.90775,0.04111
4520.97900,0.04113
4519.05025,0.04081
4517.12151,0.04052
4515.19276,0.04044
4513.26402,0.04026
4511.33527,0.04012
4509.40653,0.04043
4507.47778,0.04076
4505.54904,0.04075
4503.62029,0.04075
4501.69155,0.04084
4499.76280,0.04096
4497.83406,0.04115
4495.90531,0.04119
4493.97657,0.04099
4492.04782,0.04098
4490.11908,0.04125
4488.19033,0.04140
4486.26158,0.04120
4484.33284,0.04096
4482.40409,0.04092
4480.47535,0.04074
4478.54660,0.04036
4476.61786,0.04031
4474.68911,0.04056
4472.76037,0.04058
4470.83162,0.04023
4468.90288,0.03989
4466.97413,0.04003
4465.04539,0.04061
4463.11664,0.04105
4461.18790,0.04109
4459.25915,0.04100
4457.33041,0.04092
4455.40166,0.04079
4453.47291,0.04045
4451.54417,0.04016
4449.61542,0.04022
4447.68668,0.04031
4445.75793,0.04028
4443.82919,0.04053
4441.90044,0.04093
4439.97170,0.04089
4438.04295,0.04061
4436.11421,0.04053
4434.18546,0.04040
4432.25672,0.03999
4430.32797,0.03971
4428.39923,0.03995
4426.47048,0.04039
4424.54173,0.04054
4422.61299,0.04044
4420.68424,0.04028
4418.75550,0.04035
4416.82675,0.04061
4414.89801,0.04041
4412.96926,0.03961
4411.04052,0.03899
4409.11177,0.03926
4407.18303,0.04003
4405.25428,0.04018
4403.32554,0.03958
4401.39679,0.03901
4399.46805,0.03889
4397.53930,0.03920
4395.61056,0.03962
4393.68181,0.03982
4391.75306,0.03969
4389.82432,0.03932
4387.89557,0.03909
4385.96683,0.03927
4384.03808,0.03957
4382.10934,0.03968
4380.18059,0.03978
4378.25185,0.03989
4376.32310,0.03981
4374.39436,0.03975
4372.46561,0.03964
4370.53687,0.03930
4368.60812,0.03907
4366.67938,0.03916
4364.75063,0.03947
4362.82189,0.03961
4360.89314,0.03919
4358.96439,0.03859
4357.03565,0.03839
4355.10690,0.03859
4353.17816,0.03882
4351.24941,0.03894
4349.32067,0.03899
4347.39192,0.03883
4345.46318,0.03832
4343.53443,0.03781
4341.60569,0.03774
4339.67694,0.03791
4337.74820,0.03804
4335.81945,0.03811
4333.89071,0.03822
4331.96196,0.03831
4330.03321,0.03813
4328.10447,0.03796
4326.17572,0.03811
4324.24698,0.03838
4322.31823,0.03858
4320.38949,0.03850
4318.46074,0.03830
4316.53200,0.03838
4314.60325,0.03840
4312.67451,0.03796
4310.74576,0.03768
4308.81702,0.03810
4306.88827,0.03873
4304.95953,0.03906
4303.03078,0.03908
4301.10204,0.03902
4299.17329,0.03902
4297.24454,0.03909
4295.31580,0.03910
4293.38705,0.03889
4291.45831,0.03870
4289.52956,0.03887
4287.60082,0.03926
4285.67207,0.03956
4283.74333,0.03944
4281.81458,0.03926
4279.88584,0.03943
4277.95709,0.03948
4276.02835,0.03925
4274.09960,0.03914
4272.17086,0.03910
4270.24211,0.03892
4268.31336,0.03887
4266.38462,0.03909
4264.45587,0.03908
4262.52713,0.03882
4260.59838,0.03887
4258.66964,0.03932
4256.74089,0.03970
4254.81215,0.03963
4252.88340,0.03935
4250.95466,0.03923
4249.02591,0.03912
4247.09717,0.03883
4245.16842,0.03876
4243.23968,0.03911
4241.31093,0.03942
4239.38219,0.03950
4237.45344,0.03948
4235.52469,0.03933
4233.59595,0.03896
4231.66720,0.03865
4229.73846,0.03851
4227.80971,0.03836
4225.88097,0.03835
4223.95222,0.03866
4222.02348,0.03898
4220.09473,0.03903
4218.16599,0.03916
4216.23724,0.03955
4214.30850,0.03958
4212.37975,0.03898
4210.45101,0.03847
4208.52226,0.03849
4206.59352,0.03881
4204.66477,0.03918
4202.73602,0.03944
4200.80728,0.03955
4198.87853,0.03963
4196.94979,0.03977
4195.02104,0.03990
4193.09230,0.03984
4191.16355,0.03956
4189.23481,0.03926
4187.30606,0.03899
4185.37732,0.03864
4183.44857,0.03840
4181.51983,0.03856
4179.59108,0.03892
4177.66234,0.03908
4175.73359,0.03910
4173.80484,0.03902
4171.87610,0.03876
4169.94735,0.03871
4168.01861,0.03911
4166.08986,0.03959
4164.16112,0.03979
4162.23237,0.03983
4160.30363,0.03978
4158.37488,0.03960
4156.44614,0.03944
4154.51739,0.03950
4152.58865,0.03962
4150.65990,0.03959
4148.73116,0.03953
4146.80241,0.03963
4144.87367,0.03984
4142.94492,0.04008
4141.01617,0.04018
4139.08743,0.04009
4137.15868,0.04006
4135.22994,0.04030
4133.30119,0.04076
4131.37245,0.04096
4129.44370,0.04056
4127.51496,0.04011
4125.58621,0.04018
4123.65747,0.04055
4121.72872,0.04076
4119.79998,0.04054
4117.87123,0.04009
4115.94249,0.03999
4114.01374,0.04035
4112.08500,0.04058
4110.15625,0.04045
4108.22750,0.04033
4106.29876,0.04024
4104.37001,0.04005
4102.44127,0.03991
4100.51252,0.03992
4098.58378,0.04012
4096.65503,0.04028
4094.72629,0.04020
4092.79754,0.04008
4090.86880,0.03996
4088.94005,0.03967
4087.01131,0.03957
4085.08256,0.03996
4083.15382,0.04022
4081.22507,0.03992
4079.29632,0.03955
4077.36758,0.03951
4075.43883,0.03967
4073.51009,0.03981
4071.58134,0.03974
4069.65260,0.03951
4067.72385,0.03946
4065.79511,0.03978
4063.86636,0.04024
4061.93762,0.04049
4060.00887,0.04041
4058.08013,0.04010
4056.15138,0.03990
4054.22264,0.04008
4052.29389,0.04036
4050.36515,0.04024
4048.43640,0.03998
4046.50765,0.04026
4044.57891,0.04086
4042.65016,0.04107
4040.72142,0.04076
4038.79267,0.04031
4036.86393,0.04018
4034.93518,0.04044
4033.00644,0.04070
4031.07769,0.04078
4029.14895,0.04094
4027.22020,0.04114
4025.29146,0.04112
4023.36271,0.04098
4021.43397,0.04081
4019.50522,0.04064
4017.57648,0.04055
4015.64773,0.04045
4013.71898,0.04028
4011.79024,0.04035
4009.86149,0.04072
4007.93275,0.04098
4006.00400,0.04076
4004.07526,0.04024
4002.14651,0.04004
4000.21777,0.04030
3998.28902,0.04066
3996.36028,0.04085
3994.43153,0.04077
3992.50279,0.04067
3990.57404,0.04087
3988.64530,0.04124
3986.71655,0.04140
3984.78780,0.04126
3982.85906,0.04109
3980.93031,0.04097
3979.00157,0.04079
3977.07282,0.04075
3975.14408,0.04096
3973.21533,0.04129
3971.28659,0.04160
3969.35784,0.04162
3967.42910,0.04139
3965.50035,0.04136
3963.57161,0.04142
3961.64286,0.04138
3959.71412,0.04154
3957.78537,0.04178
3955.85663,0.04167
3953.92788,0.04133
3951.99913,0.04120
3950.07039,0.04131
3948.14164,0.04138
3946.21290,0.04131
3944.28415,0.04119
3942.35541,0.04107
3940.42666,0.04099
3938.49792,0.04108
3936.56917,0.04138
3934.64043,0.04153
3932.71168,0.04128
3930.78294,0.04109
3928.85419,0.04130
3926.92545,0.04149
3924.99670,0.04139
3923.06795,0.04134
3921.13921,0.04155
3919.21046,0.04180
3917.28172,0.04185
3915.35297,0.04189
3913.42423,0.04201
3911.49548,0.04193
3909.56674,0.04158
3907.63799,0.04126
3905.70925,0.04121
3903.78050,0.04135
3901.85176,0.04143
3899.92301,0.04141
3897.99427,0.04140
3896.06552,0.04145
3894.13678,0.04163
3892.20803,0.04191
3890.27928,0.04206
3888.35054,0.04195
3886.42179,0.04174
3884.49305,0.04173
3882.56430,0.04199
3880.63556,0.04223
3878.70681,0.04233
3876.77807,0.04232
3874.84932,0.04223
3872.92058,0.04226
3870.99183,0.04241
3869.06309,0.04228
3867.13434,0.04189
3865.20560,0.04166
3863.27685,0.04169
3861.34811,0.04183
3859.41936,0.04218
3857.49061,0.04283
3855.56187,0.04340
3853.63312,0.04317
3851.70438,0.04215
3849.77563,0.04152
3847.84689,0.04153
3845.91814,0.04170
3843.98940,0.04176
3842.06065,0.04175
3840.13191,0.04173
3838.20316,0.04168
3836.27442,0.04166
3834.34567,0.04176
3832.41693,0.04184
3830.48818,0.04169
3828.55943,0.04159
3826.63069,0.04187
3824.70194,0.04231
3822.77320,0.04279
3820.84445,0.04324
3818.91571,0.04312
3816.98696,0.04229
3815.05822,0.04164
3813.12947,0.04166
3811.20073,0.04185
3809.27198,0.04181
3807.34324,0.04170
3805.41449,0.04184
3803.48575,0.04206
3801.55700,0.04199
3799.62826,0.04173
3797.69951,0.04158
3795.77076,0.04173
3793.84202,0.04219
3791.91327,0.04255
3789.98453,0.04250
3788.05578,0.04226
3786.12704,0.04200
3784.19829,0.04188
3782.26955,0.04213
3780.34080,0.04252
3778.41206,0.04275
3776.48331,0.04277
3774.55457,0.04265
3772.62582,0.04261
3770.69708,0.04270
3768.76833,0.04280
3766.83959,0.04281
3764.91084,0.04261
3762.98209,0.04216
3761.05335,0.04173
3759.12460,0.04170
3757.19586,0.04203
3755.26711,0.04228
3753.33837,0.04240
3751.40962,0.04265
3749.48088,0.04282
3747.55213,0.04261
3745.62339,0.04214
3743.69464,0.04172
3741.76590,0.04178
3739.83715,0.04210
3737.90841,0.04229
3735.97966,0.04234
3734.05091,0.04244
3732.12217,0.04254
3730.19342,0.04251
3728.26468,0.04243
3726.33593,0.04223
3724.40719,0.04195
3722.47844,0.04190
3720.54970,0.04201
3718.62095,0.04203
3716.69221,0.04212
3714.76346,0.04231
3712.83472,0.04229
3710.90597,0.04217
3708.97723,0.04224
3707.04848,0.04238
3705.11974,0.04233
3703.19099,0.04215
3701.26224,0.04207
3699.33350,0.04224
3697.40475,0.04236
3695.47601,0.04220
3693.54726,0.04201
3691.61852,0.04202
3689.68977,0.04220
3687.76103,0.04241
3685.83228,0.04248
3683.90354,0.04235
3681.97479,0.04214
3680.04605,0.04203
3678.11730,0.04189
3676.18856,0.04170
3674.25981,0.04179
3672.33107,0.04213
3670.40232,0.04227
3668.47357,0.04216
3666.54483,0.04218
3664.61608,0.04233
3662.68734,0.04244
3660.75859,0.04247
3658.82985,0.04239
3656.90110,0.04223
3654.97236,0.04212
3653.04361,0.04212
3651.11487,0.04211
3649.18612,0.04195
3647.25738,0.04181
3645.32863,0.04184
3643.39989,0.04188
3641.47114,0.04183
3639.54239,0.04171
3637.61365,0.04159
3635.68490,0.04150
3633.75616,0.04155
3631.82741,0.04170
3629.89867,0.04172
3627.96992,0.04173
3626.04118,0.04180
3624.11243,0.04155
3622.18369,0.04106
3620.25494,0.04083
3618.32620,0.04081
3616.39745,0.04085
3614.46871,0.04121
3612.53996,0.04171
3610.61122,0.04162
3608.68247,0.04108
3606.75372,0.04090
3604.82498,0.04110
3602.89623,0.04123
3600.96749,0.04119
3599.03874,0.04110
3597.11000,0.04089
3595.18125,0.04063
3593.25251,0.04067
3591.32376,0.04096
3589.39502,0.04109
3587.46627,0.04088
3585.53753,0.04056
3583.60878,0.04045
3581.68004,0.04041
3579.75129,0.04025
3577.82254,0.04015
3575.89380,0.04029
3573.96505,0.04054
3572.03631,0.04086
3570.10756,0.04131
3568.17882,0.04155
3566.25007,0.04116
3564.32133,0.04057
3562.39258,0.04046
3560.46384,0.04060
3558.53509,0.04044
3556.60635,0.04035
3554.67760,0.04067
3552.74886,0.04094
3550.82011,0.04090
3548.89137,0.04080
3546.96262,0.04072
3545.03387,0.04072
3543.10513,0.04071
3541.17638,0.04052
3539.24764,0.04035
3537.31889,0.04038
3535.39015,0.04038
3533.46140,0.04023
3531.53266,0.04011
3529.60391,0.04009
3527.67517,0.04014
3525.74642,0.04016
3523.81768,0.04007
3521.88893,0.03991
3519.96019,0.03975
3518.03144,0.03967
3516.10270,0.03972
3514.17395,0.03998
3512.24520,0.04047
3510.31646,0.04077
3508.38771,0.04063
3506.45897,0.04041
3504.53022,0.04035
3502.60148,0.04041
3500.67273,0.04041
3498.74399,0.04017
3496.81524,0.03990
3494.88650,0.03988
3492.95775,0.03975
3491.02901,0.03925
3489.10026,0.03898
3487.17152,0.03927
3485.24277,0.03944
3483.31402,0.03916
3481.38528,0.03900
3479.45653,0.03914
3477.52779,0.03927
3475.59904,0.03942
3473.67030,0.03957
3471.74155,0.03959
3469.81281,0.03952
3467.88406,0.03930
3465.95532,0.03884
3464.02657,0.03843
3462.09783,0.03839
3460.16908,0.03873
3458.24034,0.03917
3456.31159,0.03934
3454.38285,0.03919
3452.45410,0.03895
3450.52535,0.03877
3448.59661,0.03862
3446.66786,0.03850
3444.73912,0.03859
3442.81037,0.03869
3440.88163,0.03836
3438.95288,0.03784
3437.02414,0.03768
3435.09539,0.03762
3433.16665,0.03734
3431.23790,0.03729
3429.30916,0.03748
3427.38041,0.03727
3425.45167,0.03676
3423.52292,0.03654
3421.59418,0.03688
3419.66543,0.03737
3417.73668,0.03765
3415.80794,0.03784
3413.87919,0.03800
3411.95045,0.03799
3410.02170,0.03789
3408.09296,0.03792
3406.16421,0.03818
3404.23547,0.03831
3402.30672,0.03813
3400.37798,0.03797
3398.44923,0.03811
3396.52049,0.03832
3394.59174,0.03828
3392.66300,0.03823
3390.73425,0.03848
3388.80550,0.03859
3386.87676,0.03835
3384.94801,0.03827
3383.01927,0.03853
3381.09052,0.03867
3379.16178,0.03849
3377.23303,0.03830
3375.30429,0.03829
3373.37554,0.03847
3371.44680,0.03855
3369.51805,0.03806
3367.58931,0.03734
3365.66056,0.03716
3363.73182,0.03753
3361.80307,0.03804
3359.87433,0.03838
3357.94558,0.03848
3356.01683,0.03853
3354.08809,0.03874
3352.15934,0.03889
3350.23060,0.03872
3348.30185,0.03835
3346.37311,0.03807
3344.44436,0.03809
3342.51562,0.03828
3340.58687,0.03847
3338.65813,0.03866
3336.72938,0.03861
3334.80064,0.03822
3332.87189,0.03807
3330.94315,0.03823
3329.01440,0.03825
3327.08566,0.03809
3325.15691,0.03788
3323.22816,0.03751
3321.29942,0.03718
3319.37067,0.03729
3317.44193,0.03781
3315.51318,0.03828
3313.58444,0.03840
3311.65569,0.03829
3309.72695,0.03817
3307.79820,0.03808
3305.86946,0.03827
3303.94071,0.03884
3302.01197,0.03907
3300.08322,0.03851
3298.15448,0.03784
3296.22573,0.03771
3294.29698,0.03795
3292.36824,0.03805
3290.43949,0.03779
3288.51075,0.03752
3286.58200,0.03768
3284.65326,0.03809
3282.72451,0.03829
3280.79577,0.03840
3278.86702,0.03875
3276.93828,0.03919
3275.00953,0.03937
3273.08079,0.03925
3271.15204,0.03923
3269.22330,0.03933
3267.29455,0.03892
3265.36581,0.03818
3263.43706,0.03808
3261.50831,0.03858
3259.57957,0.03894
3257.65082,0.03888
3255.72208,0.03847
3253.79333,0.03802
3251.86459,0.03796
3249.93584,0.03815
3248.00710,0.03814
3246.07835,0.03784
3244.14961,0.03776
3242.22086,0.03835
3240.29212,0.03919
3238.36337,0.03962
3236.43463,0.03962
3234.50588,0.03942
3232.57713,0.03919
3230.64839,0.03896
3228.71964,0.03848
3226.79090,0.03802
3224.86215,0.03807
3222.93341,0.03846
3221.00466,0.03875
3219.07592,0.03886
3217.14717,0.03877
3215.21843,0.03856
3213.28968,0.03844
3211.36094,0.03847
3209.43219,0.03865
3207.50345,0.03886
3205.57470,0.03896
3203.64596,0.03900
3201.71721,0.03905
3199.78846,0.03912
3197.85972,0.03914
3195.93097,0.03889
3194.00223,0.03854
3192.07348,0.03857
3190.14474,0.03895
3188.21599,0.03917
3186.28725,0.03910
3184.35850,0.03895
3182.42976,0.03893
3180.50101,0.03914
3178.57227,0.03929
3176.64352,0.03920
3174.71478,0.03929
3172.78603,0.03970
3170.85729,0.04001
3168.92854,0.03993
3166.99979,0.03968
3165.07105,0.03950
3163.14230,0.03936
3161.21356,0.03928
3159.28481,0.03937
3157.35607,0.03950
3155.42732,0.03947
3153.49858,0.03932
3151.56983,0.03910
3149.64109,0.03892
3147.71234,0.03909
3145.78360,0.03956
3143.85485,0.03992
3141.92611,0.04002
3139.99736,0.03992
3138.06861,0.03966
3136.13987,0.03932
3134.21112,0.03898
3132.28238,0.03878
3130.35363,0.03887
3128.42489,0.03913
3126.49614,0.03912
3124.56740,0.03897
3122.63865,0.03886
3120.70991,0.03875
3118.78116,0.03875
3116.85242,0.03894
3114.92367,0.03910
3112.99493,0.03910
3111.06618,0.03912
3109.13744,0.03931
3107.20869,0.03942
3105.27994,0.03927
3103.35120,0.03910
3101.42245,0.03910
3099.49371,0.03916
3097.56496,0.03913
3095.63622,0.03892
3093.70747,0.03859
3091.77873,0.03844
3089.84998,0.03851
3087.92124,0.03850
3085.99249,0.03843
3084.06375,0.03843
3082.13500,0.03831
3080.20626,0.03800
3078.27751,0.03790
3076.34877,0.03814
3074.42002,0.03830
3072.49127,0.03811
3070.56253,0.03777
3068.63378,0.03753
3066.70504,0.03745
3064.77629,0.03740
3062.84755,0.03731
3060.91880,0.03727
3058.99006,0.03725
3057.06131,0.03711
3055.13257,0.03707
3053.20382,0.03728
3051.27508,0.03743
3049.34633,0.03737
3047.41759,0.03734
3045.48884,0.03740
3043.56009,0.03740
3041.63135,0.03722
3039.70260,0.03698
3037.77386,0.03686
3035.84511,0.03693
3033.91637,0.03717
3031.98762,0.03739
3030.05888,0.03744
3028.13013,0.03730
3026.20139,0.03704
3024.27264,0.03677
3022.34390,0.03641
3020.41515,0.03592
3018.48641,0.03555
3016.55766,0.03537
3014.62892,0.03520
3012.70017,0.03491
3010.77142,0.03461
3008.84268,0.03455
3006.91393,0.03472
3004.98519,0.03479
3003.05644,0.03444
3001.12770,0.03375
2999.19895,0.03290
2997.27021,0.03200
2995.34146,0.03127
2993.41272,0.03072
2991.48397,0.03028
2989.55523,0.02997
2987.62648,0.02968
2985.69774,0.02930
2983.76899,0.02893
2981.84025,0.02854
2979.91150,0.02818
2977.98275,0.02795
2976.05401,0.02782
2974.12526,0.02773
2972.19652,0.02759
2970.26777,0.02736
2968.33903,0.02698
2966.41028,0.02673
2964.48154,0.02699
2962.55279,0.02756
2960.62405,0.02779
2958.69530,0.02755
2956.76656,0.02733
2954.83781,0.02755
2952.90907,0.02799
2950.98032,0.02811
2949.05157,0.02781
2947.12283,0.02747
2945.19408,0.02732
2943.26534,0.02726
2941.33659,0.02717
2939.40785,0.02714
2937.47910,0.02734
2935.55036,0.02775
2933.62161,0.02801
2931.69287,0.02797
2929.76412,0.02796
2927.83538,0.02807
2925.90663,0.02809
2923.97789,0.02806
2922.04914,0.02815
2920.12040,0.02827
2918.19165,0.02833
2916.26290,0.02844
2914.33416,0.02865
2912.40541,0.02877
2910.47667,0.02878
2908.54792,0.02879
2906.61918,0.02881
2904.69043,0.02899
2902.76169,0.02934
2900.83294,0.02937
2898.90420,0.02911
2896.97545,0.02930
2895.04671,0.02976
2893.11796,0.02978
2891.18922,0.02957
2889.26047,0.02955
2887.33172,0.02957
2885.40298,0.02948
2883.47423,0.02943
2881.54549,0.02943
2879.61674,0.02931
2877.68800,0.02904
2875.75925,0.02892
2873.83051,0.02909
2871.90176,0.02924
2869.97302,0.02916
2868.04427,0.02902
2866.11553,0.02900
2864.18678,0.02915
2862.25804,0.02946
2860.32929,0.02968
2858.40055,0.02961
2856.47180,0.02952
2854.54305,0.02961
2852.61431,0.02982
2850.68556,0.03017
2848.75682,0.03057
2846.82807,0.03090
2844.89933,0.03128
2842.97058,0.03172
2841.04184,0.03209
2839.11309,0.03233
2837.18435,0.03263
2835.25560,0.03311
2833.32686,0.03363
2831.39811,0.03408
2829.46937,0.03437
2827.54062,0.03445
2825.61188,0.03447
2823.68313,0.03467
2821.75438,0.03495
2819.82564,0.03511
2817.89689,0.03517
2815.96815,0.03525
2814.03940,0.03542
2812.11066,0.03573
2810.18191,0.03611
2808.25317,0.03640
2806.32442,0.03675
2804.39568,0.03719
2802.46693,0.03725
2800.53819,0.03697
2798.60944,0.03702
2796.68070,0.03740
2794.75195,0.03767
2792.82320,0.03781
2790.89446,0.03803
2788.96571,0.03840
2787.03697,0.03879
2785.10822,0.03887
2783.17948,0.03865
2781.25073,0.03857
2779.32199,0.03868
2777.39324,0.03891
2775.46450,0.03929
2773.53575,0.03955
2771.60701,0.03949
2769.67826,0.03931
2767.74952,0.03922
2765.82077,0.03924
2763.89203,0.03936
2761.96328,0.03954
2760.03453,0.03963
2758.10579,0.03957
2756.17704,0.03956
2754.24830,0.03958
2752.31955,0.03940
2750.39081,0.03917
2748.46206,0.03919
2746.53332,0.03941
2744.60457,0.03958
2742.67583,0.03949
2740.74708,0.03927
2738.81834,0.03911
2736.88959,0.03894
2734.96085,0.03870
2733.03210,0.03860
2731.10336,0.03878
2729.17461,0.03910
2727.24586,0.03934
2725.31712,0.03952
2723.38837,0.03976
2721.45963,0.03993
2719.53088,0.04009
2717.60214,0.04032
2715.67339,0.04044
2713.74465,0.04030
2711.81590,0.04018
2709.88716,0.04036
2707.95841,0.04071
2706.02967,0.04092
2704.10092,0.04094
2702.17218,0.04097
2700.24343,0.04107
2698.31468,0.04094
2696.38594,0.04054
2694.45719,0.04036
2692.52845,0.04059
2690.59970,0.04075
2688.67096,0.04069
2686.74221,0.04081
2684.81347,0.04110
2682.88472,0.04126
2680.95598,0.04121
2679.02723,0.04096
2677.09849,0.04068
2675.16974,0.04053
2673.24100,0.04054
2671.31225,0.04070
2669.38351,0.04098
2667.45476,0.04119
2665.52601,0.04114
2663.59727,0.04087
2661.66852,0.04067
2659.73978,0.04075
2657.81103,0.04094
2655.88229,0.04108
2653.95354,0.04137
2652.02480,0.04172
2650.09605,0.04167
2648.16731,0.04140
2646.23856,0.04148
2644.30982,0.04171
2642.38107,0.04173
2640.45233,0.04168
2638.52358,0.04169
2636.59484,0.04164
2634.66609,0.04154
2632.73734,0.04145
2630.80860,0.04146
2628.87985,0.04160
2626.95111,0.04164
2625.02236,0.04147
2623.09362,0.04130
2621.16487,0.04128
2619.23613,0.04145
2617.30738,0.04171
2615.37864,0.04175
2613.44989,0.04157
2611.52115,0.04152
2609.59240,0.04156
2607.66366,0.04149
2605.73491,0.04147
2603.80616,0.04158
2601.87742,0.04167
2599.94867,0.04161
2598.01993,0.04152
2596.09118,0.04145
2594.16244,0.04145
2592.23369,0.04163
2590.30495,0.04183
2588.37620,0.04188
2586.44746,0.04187
2584.51871,0.04185
2582.58997,0.04178
2580.66122,0.04167
2578.73248,0.04168
2576.80373,0.04179
2574.87499,0.04185
2572.94624,0.04186
2571.01749,0.04190
2569.08875,0.04195
2567.16000,0.04184
2565.23126,0.04164
2563.30251,0.04162
2561.37377,0.04178
2559.44502,0.04192
2557.51628,0.04197
2555.58753,0.04187
2553.65879,0.04182
2551.73004,0.04203
2549.80130,0.04211
2547.87255,0.04188
2545.94381,0.04183
2544.01506,0.04217
2542.08631,0.04244
2540.15757,0.04237
2538.22882,0.04216
2536.30008,0.04199
2534.37133,0.04197
2532.44259,0.04201
2530.51384,0.04186
2528.58510,0.04182
2526.65635,0.04213
2524.72761,0.04244
2522.79886,0.04256
2520.87012,0.04263
2518.94137,0.04259
2517.01263,0.04242
2515.08388,0.04236
2513.15514,0.04252
2511.22639,0.04275
2509.29764,0.04280
2507.36890,0.04260
2505.44015,0.04247
2503.51141,0.04259
2501.58266,0.04276
2499.65392,0.04290
2497.72517,0.04307
2495.79643,0.04313
2493.86768,0.04304
2491.93894,0.04302
2490.01019,0.04315
2488.08145,0.04320
2486.15270,0.04311
2484.22396,0.04308
2482.29521,0.04325
2480.36647,0.04341
2478.43772,0.04353
2476.50897,0.04368
2474.58023,0.04367
2472.65148,0.04352
2470.72274,0.04355
2468.79399,0.04375
2466.86525,0.04374
2464.93650,0.04356
2463.00776,0.04355
2461.07901,0.04362
2459.15027,0.04357
2457.22152,0.04355
2455.29278,0.04353
2453.36403,0.04337
2451.43529,0.04323
2449.50654,0.04325
2447.57779,0.04331
2445.64905,0.04342
2443.72030,0.04365
2441.79156,0.04376
2439.86281,0.04364
2437.93407,0.04350
2436.00532,0.04340
2434.07658,0.04329
2432.14783,0.04320
2430.21909,0.04311
2428.29034,0.04300
2426.36160,0.04292
2424.43285,0.04299
2422.50411,0.04312
2420.57536,0.04304
2418.64662,0.04289
2416.71787,0.04295
2414.78912,0.04303
2412.86038,0.04303
2410.93163,0.04313
2409.00289,0.04322
2407.07414,0.04313
2405.14540,0.04297
2403.21665,0.04279
2401.28791,0.04272
2399.35916,0.04285
2397.43042,0.04292
2395.50167,0.04288
2393.57293,0.04298
2391.64418,0.04310
2389.71544,0.04299
2387.78669,0.04277
2385.85795,0.04267
2383.92920,0.04265
2382.00045,0.04266
2380.07171,0.04268
2378.14296,0.04275
2376.21422,0.04283
2374.28547,0.04282
2372.35673,0.04275
2370.42798,0.04281
2368.49924,0.04302
2366.57049,0.04329
2364.64175,0.04348
2362.71300,0.04352
2360.78426,0.04347
2358.85551,0.04343
2356.92677,0.04347
2354.99802,0.04359
2353.06927,0.04357
2351.14053,0.04342
2349.21178,0.04342
2347.28304,0.04362
2345.35429,0.04383
2343.42555,0.04394
2341.49680,0.04398
2339.56806,0.04399
2337.63931,0.04400
2335.71057,0.04414
2333.78182,0.04444
2331.85308,0.04463
2329.92433,0.04448
2327.99559,0.04429
2326.06684,0.04437
2324.13810,0.04454
2322.20935,0.04466
2320.28060,0.04473
2318.35186,0.04476
2316.42311,0.04469
2314.49437,0.04463
2312.56562,0.04473
2310.63688,0.04494
2308.70813,0.04496
2306.77939,0.04467
2304.85064,0.04434
2302.92190,0.04415
2300.99315,0.04412
2299.06441,0.04433
2297.13566,0.04461
2295.20692,0.04462
2293.27817,0.04438
2291.34943,0.04426
2289.42068,0.04437
2287.49193,0.04449
2285.56319,0.04443
2283.63444,0.04427
2281.70570,0.04418
2279.77695,0.04410
2277.84821,0.04399
2275.91946,0.04391
2273.99072,0.04386
2272.06197,0.04395
2270.13323,0.04416
2268.20448,0.04425
2266.27574,0.04422
2264.34699,0.04423
2262.41825,0.04421
2260.48950,0.04423
2258.56075,0.04438
2256.63201,0.04436
2254.70326,0.04422
2252.77452,0.04422
2250.84577,0.04424
2248.91703,0.04419
2246.98828,0.04433
2245.05954,0.04461
2243.13079,0.04472
2241.20205,0.04466
2239.27330,0.04462
2237.34456,0.04456
2235.41581,0.04435
2233.48707,0.04418
2231.55832,0.04428
2229.62958,0.04452
2227.70083,0.04467
2225.77208,0.04466
2223.84334,0.04450
2221.91459,0.04432
2219.98585,0.04418
2218.05710,0.04409
2216.12836,0.04413
2214.19961,0.04426
2212.27087,0.04446
2210.34212,0.04471
2208.41338,0.04484
2206.48463,0.04482
2204.55589,0.04473
2202.62714,0.04464
2200.69840,0.04458
2198.76965,0.04455
2196.84090,0.04459
2194.91216,0.04465
2192.98341,0.04475
2191.05467,0.04491
2189.12592,0.04499
2187.19718,0.04501
2185.26843,0.04504
2183.33969,0.04503
2181.41094,0.04500
2179.48220,0.04498
2177.55345,0.04494
2175.62471,0.04489
2173.69596,0.04486
2171.76722,0.04498
2169.83847,0.04511
2167.90973,0.04510
2165.98098,0.04499
2164.05223,0.04491
2162.12349,0.04479
2160.19474,0.04469
2158.26600,0.04476
2156.33725,0.04494
2154.40851,0.04502
2152.47976,0.04497
2150.55102,0.04488
2148.62227,0.04485
2146.69353,0.04485
2144.76478,0.04487
2142.83604,0.04489
2140.90729,0.04471
2138.97855,0.04445
2137.04980,0.04448
2135.12106,0.04471
2133.19231,0.04480
2131.26356,0.04479
2129.33482,0.04477
2127.40607,0.04465
2125.47733,0.04454
2123.54858,0.04456
2121.61984,0.04478
2119.69109,0.04501
2117.76235,0.04500
2115.83360,0.04476
2113.90486,0.04462
2111.97611,0.04470
2110.04737,0.04483
2108.11862,0.04483
2106.18988,0.04475
2104.26113,0.04469
2102.33238,0.04463
2100.40364,0.04454
2098.47489,0.04452
2096.54615,0.04463
2094.61740,0.04474
2092.68866,0.04483
2090.75991,0.04493
2088.83117,0.04494
2086.90242,0.04469
2084.97368,0.04447
2083.04493,0.04459
2081.11619,0.04472
2079.18744,0.04457
2077.25870,0.04445
2075.32995,0.04446
2073.40121,0.04449
2071.47246,0.04441
2069.54371,0.04423
2067.61497,0.04416
2065.68622,0.04438
2063.75748,0.04461
2061.82873,0.04464
2059.89999,0.04456
2057.97124,0.04435
2056.04250,0.04417
2054.11375,0.04418
2052.18501,0.04433
2050.25626,0.04444
2048.32752,0.04450
2046.39877,0.04461
2044.47003,0.04472
2042.54128,0.04469
2040.61254,0.04456
2038.68379,0.04446
2036.75504,0.04449
2034.82630,0.04456
2032.89755,0.04455
2030.96881,0.04449
2029.04006,0.04451
2027.11132,0.04464
2025.18257,0.04476
2023.25383,0.04476
2021.32508,0.04471
2019.39634,0.04457
2017.46759,0.04442
2015.53885,0.04430
2013.61010,0.04420
2011.68136,0.04422
2009.75261,0.04431
2007.82386,0.04433
2005.89512,0.04444
2003.96637,0.04456
2002.03763,0.04444
2000.10888,0.04422
1998.18014,0.04416
1996.25139,0.04425
1994.32265,0.04422
1992.39390,0.04410
1990.46516,0.04413
1988.53641,0.04424
1986.60767,0.04417
1984.67892,0.04389
1982.75018,0.04358
1980.82143,0.04345
1978.89269,0.04353
1976.96394,0.04359
1975.03519,0.04355
1973.10645,0.04358
1971.17770,0.04377
1969.24896,0.04378
1967.32021,0.04354
1965.39147,0.04332
1963.46272,0.04313
1961.53398,0.04289
1959.60523,0.04268
1957.67649,0.04245
1955.74774,0.04217
1953.81900,0.04208
1951.89025,0.04212
1949.96151,0.04203
1948.03276,0.04193
1946.10402,0.04205
1944.17527,0.04221
1942.24652,0.04233
1940.31778,0.04247
1938.38903,0.04256
1936.46029,0.04262
1934.53154,0.04274
1932.60280,0.04292
1930.67405,0.04308
1928.74531,0.04312
1926.81656,0.04311
1924.88782,0.04314
1922.95907,0.04324
1921.03033,0.04338
1919.10158,0.04347
1917.17284,0.04355
1915.24409,0.04365
1913.31534,0.04367
1911.38660,0.04351
1909.45785,0.04335
1907.52911,0.04335
1905.60036,0.04343
1903.67162,0.04338
1901.74287,0.04326
1899.81413,0.04313
1897.88538,0.04296
1895.95664,0.04291
1894.02789,0.04297
1892.09915,0.04303
1890.17040,0.04313
1888.24166,0.04329
1886.31291,0.04334
1884.38417,0.04333
1882.45542,0.04341
1880.52667,0.04349
1878.59793,0.04336
1876.66918,0.04313
1874.74044,0.04300
1872.81169,0.04294
1870.88295,0.04295
1868.95420,0.04302
1867.02546,0.04306
1865.09671,0.04306
1863.16797,0.04303
1861.23922,0.04297
1859.31048,0.04288
1857.38173,0.04285
1855.45299,0.04290
1853.52424,0.04286
1851.59549,0.04263
1849.66675,0.04230
1847.73800,0.04204
1845.80926,0.04200
1843.88051,0.04215
1841.95177,0.04221
1840.02302,0.04204
1838.09428,0.04178
1836.16553,0.04158
1834.23679,0.04145
1832.30804,0.04124
1830.37930,0.04088
1828.45055,0.04047
1826.52181,0.04014
1824.59306,0.03993
1822.66432,0.03990
1820.73557,0.04004
1818.80682,0.04035
1816.87808,0.04065
1814.94933,0.04076
1813.02059,0.04073
1811.09184,0.04054
1809.16310,0.04025
1807.23435,0.04010
1805.30561,0.04018
1803.37686,0.04031
1801.44812,0.04029
1799.51937,0.04006
1797.59063,0.03972
1795.66188,0.03940
1793.73314,0.03921
1791.80439,0.03916
1789.87565,0.03919
1787.94690,0.03918
1786.01815,0.03895
1784.08941,0.03858
1782.16066,0.03833
1780.23192,0.03817
1778.30317,0.03792
1776.37443,0.03771
1774.44568,0.03766
1772.51694,0.03752
1770.58819,0.03722
1768.65945,0.03695
1766.73070,0.03667
1764.80196,0.03626
1762.87321,0.03573
1760.94447,0.03515
1759.01572,0.03466
1757.08697,0.03415
1755.15823,0.03356
1753.22948,0.03300
1751.30074,0.03233
1749.37199,0.03160
1747.44325,0.03099
1745.51450,0.03045
1743.58576,0.02987
1741.65701,0.02926
1739.72827,0.02858
1737.79952,0.02787
1735.87078,0.02718
1733.94203,0.02654
1732.01329,0.02603
1730.08454,0.02576
1728.15580,0.02583
1726.22705,0.02620
1724.29830,0.02662
1722.36956,0.02708
1720.44081,0.02761
1718.51207,0.02824
1716.58332,0.02884
1714.65458,0.02921
1712.72583,0.02933
1710.79709,0.02932
1708.86834,0.02938
1706.93960,0.02956
1705.01085,0.02973
1703.08211,0.02992
1701.15336,0.03033
1699.22462,0.03090
1697.29587,0.03135
1695.36713,0.03176
1693.43838,0.03222
1691.50963,0.03268
1689.58089,0.03312
1687.65214,0.03343
1685.72340,0.03343
1683.79465,0.03305
1681.86591,0.03273
1679.93716,0.03273
1678.00842,0.03292
1676.07967,0.03312
1674.15093,0.03315
1672.22218,0.03318
1670.29344,0.03338
1668.36469,0.03370
1666.43595,0.03409
1664.50720,0.03444
1662.57845,0.03461
1660.64971,0.03472
1658.72096,0.03499
1656.79222,0.03537
1654.86347,0.03571
1652.93473,0.03598
1651.00598,0.03613
1649.07724,0.03622
1647.14849,0.03640
1645.21975,0.03664
1643.29100,0.03677
1641.36226,0.03682
1639.43351,0.03680
1637.50477,0.03673
1635.57602,0.03670
1633.64728,0.03679
1631.71853,0.03692
1629.78978,0.03689
1627.86104,0.03676
1625.93229,0.03669
1624.00355,0.03663
1622.07480,0.03654
1620.14606,0.03649
1618.21731,0.03635
1616.28857,0.03597
1614.35982,0.03559
1612.43108,0.03551
1610.50233,0.03570
1608.57359,0.03592
1606.64484,0.03602
1604.71610,0.03601
1602.78735,0.03602
1600.85861,0.03619
1598.92986,0.03633
1597.00111,0.03623
1595.07237,0.03606
1593.14362,0.03603
1591.21488,0.03611
1589.28613,0.03600
1587.35739,0.03557
1585.42864,0.03498
1583.49990,0.03441
1581.57115,0.03381
1579.64241,0.03325
1577.71366,0.03305
1575.78492,0.03326
1573.85617,0.03365
1571.92743,0.03406
1569.99868,0.03442
1568.06993,0.03466
1566.14119,0.03473
1564.21244,0.03473
1562.28370,0.03486
1560.35495,0.03503
1558.42621,0.03493
1556.49746,0.03478
1554.56872,0.03484
1552.63997,0.03498
1550.71123,0.03506
1548.78248,0.03515
1546.85374,0.03533
1544.92499,0.03553
1542.99625,0.03563
1541.06750,0.03558
1539.13876,0.03531
1537.21001,0.03501
1535.28126,0.03486
1533.35252,0.03481
1531.42377,0.03484
1529.49503,0.03489
1527.56628,0.03478
1525.63754,0.03456
1523.70879,0.03454
1521.78005,0.03467
1519.85130,0.03461
1517.92256,0.03439
1515.99381,0.03422
1514.06507,0.03400
1512.13632,0.03362
1510.20758,0.03321
1508.27883,0.03267
1506.35008,0.03197
1504.42134,0.03176
1502.49259,0.03238
1500.56385,0.03337
1498.63510,0.03410
1496.70636,0.03429
1494.77761,0.03425
1492.84887,0.03414
1490.92012,0.03384
1488.99138,0.03350
1487.06263,0.03319
1485.13389,0.03271
1483.20514,0.03207
1481.27640,0.03142
1479.34765,0.03088
1477.41891,0.03032
1475.49016,0.02969
1473.56141,0.02905
1471.63267,0.02842
1469.70392,0.02795
1467.77518,0.02770
1465.84643,0.02752
1463.91769,0.02742
1461.98894,0.02753
1460.06020,0.02782
1458.13145,0.02795
1456.20271,0.02788
1454.27396,0.02795
1452.34522,0.02816
1450.41647,0.02840
1448.48773,0.02853
1446.55898,0.02849
1444.63024,0.02843
1442.70149,0.02836
1440.77274,0.02823
1438.84400,0.02797
1436.91525,0.02751
1434.98651,0.02725
1433.05776,0.02739
1431.12902,0.02760
1429.20027,0.02763
1427.27153,0.02764
1425.34278,0.02784
1423.41404,0.02821
1421.48529,0.02857
1419.55655,0.02879
1417.62780,0.02882
1415.69906,0.02873
1413.77031,0.02846
1411.84156,0.02809
1409.91282,0.02796
1407.98407,0.02822
1406.05533,0.02871
1404.12658,0.02915
1402.19784,0.02940
1400.26909,0.02956
1398.34035,0.02967
1396.41160,0.02955
1394.48286,0.02909
1392.55411,0.02854
1390.62537,0.02818
1388.69662,0.02797
1386.76788,0.02777
1384.83913,0.02763
1382.91039,0.02759
1380.98164,0.02752
1379.05289,0.02745
1377.12415,0.02762
1375.19540,0.02804
1373.26666,0.02841
1371.33791,0.02864
1369.40917,0.02880
1367.48042,0.02893
1365.55168,0.02896
1363.62293,0.02889
1361.69419,0.02875
1359.76544,0.02862
1357.83670,0.02853
1355.90795,0.02841
1353.97921,0.02816
1352.05046,0.02795
1350.12172,0.02792
1348.19297,0.02787
1346.26422,0.02761
1344.33548,0.02731
1342.40673,0.02721
1340.47799,0.02722
1338.54924,0.02704
1336.62050,0.02660
1334.69175,0.02625
1332.76301,0.02622
1330.83426,0.02645
1328.90552,0.02664
1326.97677,0.02658
1325.04803,0.02632
1323.11928,0.02615
1321.19054,0.02626
1319.26179,0.02642
1317.33304,0.02639
1315.40430,0.02630
1313.47555,0.02625
1311.54681,0.02620
1309.61806,0.02612
1307.68932,0.02593
1305.76057,0.02570
1303.83183,0.02570
1301.90308,0.02589
1299.97434,0.02598
1298.04559,0.02583
1296.11685,0.02554
1294.18810,0.02532
1292.25936,0.02514
1290.33061,0.02486
1288.40187,0.02452
1286.47312,0.02427
1284.54437,0.02419
1282.61563,0.02429
1280.68688,0.02449
1278.75814,0.02473
1276.82939,0.02517
1274.90065,0.02592
1272.97190,0.02690
1271.04316,0.02787
1269.11441,0.02863
1267.18567,0.02930
1265.25692,0.02992
1263.32818,0.03015
1261.39943,0.02984
1259.47069,0.02934
1257.54194,0.02908
1255.61320,0.02910
1253.68445,0.02927
1251.75570,0.02949
1249.82696,0.02972
1247.89821,0.03003
1245.96947,0.03033
1244.04072,0.03043
1242.11198,0.03050
1240.18323,0.03068
1238.25449,0.03074
1236.32574,0.03059
1234.39700,0.03052
1232.46825,0.03063
1230.53951,0.03080
1228.61076,0.03089
1226.68202,0.03082
1224.75327,0.03081
1222.82452,0.03102
1220.89578,0.03125
1218.96703,0.03127
1217.03829,0.03117
1215.10954,0.03105
1213.18080,0.03092
1211.25205,0.03097
1209.32331,0.03119
1207.39456,0.03120
1205.46582,0.03098
1203.53707,0.03076
1201.60833,0.03066
1199.67958,0.03073
1197.75084,0.03095
1195.82209,0.03108
1193.89335,0.03092
1191.96460,0.03066
1190.03585,0.03045
1188.10711,0.03045
1186.17836,0.03082
1184.24962,0.03127
1182.32087,0.03137
1180.39213,0.03103
1178.46338,0.03056
1176.53464,0.03034
1174.60589,0.03022
1172.67715,0.02997
1170.74840,0.02980
1168.81966,0.02989
1166.89091,0.03019
1164.96217,0.03050
1163.03342,0.03061
1161.10467,0.03043
1159.17593,0.03008
1157.24718,0.02976
1155.31844,0.02956
1153.38969,0.02944
1151.46095,0.02933
1149.53220,0.02926
1147.60346,0.02933
1145.67471,0.02939
1143.74597,0.02925
1141.81722,0.02895
1139.88848,0.02857
1137.95973,0.02824
1136.03099,0.02803
1134.10224,0.02773
1132.17350,0.02720
1130.24475,0.02660
1128.31600,0.02621
1126.38726,0.02604
1124.45851,0.02595
1122.52977,0.02601
1120.60102,0.02630
1118.67228,0.02676
1116.74353,0.02728
1114.81479,0.02771
1112.88604,0.02788
1110.95730,0.02780
1109.02855,0.02776
1107.09981,0.02806
1105.17106,0.02860
1103.24232,0.02897
1101.31357,0.02908
1099.38483,0.02907
1097.45608,0.02910
1095.52733,0.02921
1093.59859,0.02929
1091.66984,0.02929
1089.74110,0.02908
1087.81235,0.02882
1085.88361,0.02891
1083.95486,0.02928
1082.02612,0.02962
1080.09737,0.02985
1078.16863,0.03003
1076.23988,0.03024
1074.31114,0.03040
1072.38239,0.03052
1070.45365,0.03082
1068.52490,0.03123
1066.59615,0.03153
1064.66741,0.03162
1062.73866,0.03150
1060.80992,0.03135
1058.88117,0.03144
1056.95243,0.03159
1055.02368,0.03171
1053.09494,0.03210
1051.16619,0.03260
1049.23745,0.03268
1047.30870,0.03225
1045.37996,0.03167
1043.45121,0.03126
1041.52247,0.03106
1039.59372,0.03097
1037.66498,0.03091
1035.73623,0.03097
1033.80748,0.03113
1031.87874,0.03120
1029.94999,0.03097
1028.02125,0.03060
1026.09250,0.03034
1024.16376,0.02985
1022.23501,0.02907
1020.30627,0.02881
1018.37752,0.02936
1016.44878,0.03014
1014.52003,0.03086
1012.59129,0.03140
1010.66254,0.03172
1008.73380,0.03189
1006.80505,0.03188
1004.87631,0.03178
1002.94756,0.03163
1001.01881,0.03125
999.09007,0.03079
997.16132,0.03066
995.23258,0.03090
993.30383,0.03115
991.37509,0.03117
989.44634,0.03092
987.51760,0.03049
985.58885,0.03019
983.66011,0.03022
981.73136,0.03035
979.80262,0.03022
977.87387,0.02991
975.94513,0.02967
974.01638,0.02949
972.08763,0.02938
970.15889,0.02945
968.23014,0.02962
966.30140,0.02958
964.37265,0.02943
962.44391,0.02950
960.51516,0.02966
958.58642,0.02963
956.65767,0.02957
954.72893,0.02971
952.80018,0.02986
950.87144,0.02998
948.94269,0.03009
947.01395,0.03003
945.08520,0.03003
943.15646,0.03025
941.22771,0.03051
939.29896,0.03079
937.37022,0.03118
935.44147,0.03153
933.51273,0.03161
931.58398,0.03136
929.65524,0.03097
927.72649,0.03081
925.79775,0.03098
923.86900,0.03121
921.94026,0.03138
920.01151,0.03153
918.08277,0.03158
916.15402,0.03161
914.22528,0.03180
912.29653,0.03197
910.36779,0.03196
908.43904,0.03192
906.51029,0.03198
904.58155,0.03211
902.65280,0.03223
900.72406,0.03233
898.79531,0.03236
896.86657,0.03215
894.93782,0.03196
893.00908,0.03210
891.08033,0.03247
889.15159,0.03276
887.22284,0.03258
885.29410,0.03191
883.36535,0.03127
881.43661,0.03103
879.50786,0.03077
877.57911,0.03014
875.65037,0.02956
873.72162,0.02966
871.79288,0.03039
869.86413,0.03118
867.93539,0.03174
866.00664,0.03220
864.07790,0.03241
862.14915,0.03207
860.22041,0.03180
858.29166,0.03206
856.36292,0.03220
854.43417,0.03207
852.50543,0.03226
850.57668,0.03279
848.64794,0.03311
846.71919,0.03294
844.79044,0.03270
842.86170,0.03275
840.93295,0.03277
839.00421,0.03259
837.07546,0.03243
835.14672,0.03231
833.21797,0.03219
831.28923,0.03222
829.36048,0.03247
827.43174,0.03281
825.50299,0.03316
823.57425,0.03352
821.64550,0.03398
819.71676,0.03440
817.78801,0.03444
815.85926,0.03440
813.93052,0.03460
812.00177,0.03474
810.07303,0.03474
808.14428,0.03480
806.21554,0.03469
804.28679,0.03416
802.35805,0.03372
800.42930,0.03386
798.50056,0.03406
796.57181,0.03374
794.64307,0.03342
792.71432,0.03360
790.78558,0.03382
788.85683,0.03370
786.92809,0.03360
784.99934,0.03356
783.07059,0.03314
781.14185,0.03255
779.21310,0.03240
777.28436,0.03241
775.35561,0.03206
773.42687,0.03169
771.49812,0.03173
769.56938,0.03189
767.64063,0.03187
765.71189,0.03195
763.78314,0.03224
761.85440,0.03222
759.92565,0.03194
757.99691,0.03196
756.06816,0.03206
754.13942,0.03169
752.21067,0.03105
750.28192,0.03063
748.35318,0.03053
746.42443,0.03043
744.49569,0.02997
742.56694,0.02923
740.63820,0.02844
738.70945,0.02756
736.78071,0.02678
734.85196,0.02656
732.92322,0.02696
730.99447,0.02766
729.06573,0.02864
727.13698,0.02970
725.20824,0.03029
723.27949,0.03066
721.35074,0.03129
719.42200,0.03194
717.49325,0.03217
715.56451,0.03194
713.63576,0.03151
711.70702,0.03087
709.77827,0.03021
707.84953,0.02994
705.92078,0.02995
703.99204,0.02970
702.06329,0.02907
700.13455,0.02864
698.20580,0.02877
696.27706,0.02933
694.34831,0.03015
692.41957,0.03056
690.49082,0.03018
688.56207,0.02976
686.63333,0.02972
684.70458,0.02961
682.77584,0.02946
680.84709,0.02932
678.91835,0.02898
676.98960,0.02889
675.06086,0.02933
673.13211,0.02968
671.20337,0.02971
669.27462,0.02980
667.34588,0.02985
665.41713,0.02959
663.48839,0.02953
661.55964,0.02987
659.63090,0.02997
657.70215,0.02928
655.77340,0.02819
653.84466,0.02763
651.91591,0.02772
649.98717,0.02786
648.05842,0.02756
646.12968,0.02724
644.20093,0.02758
642.27219,0.02791
640.34344,0.02736
638.41470,0.02670
636.48595,0.02690
634.55721,0.02707
632.62846,0.02607
630.69972,0.02488
628.77097,0.02475
626.84222,0.02549
624.91348,0.02632
622.98473,0.02667
621.05599,0.02679
619.12724,0.02726
617.19850,0.02761
615.26975,0.02662
613.34101,0.02528
611.41226,0.02564
609.48352,0.02674
607.55477,0.02713
605.62603,0.02715
603.69728,0.02738
601.76854,0.02845
599.83979,0.02925
