7497.03301,0.08352
7495.10426,0.09474
7493.17552,0.10129
7491.24677,0.09974
7489.31803,0.09709
7487.38928,0.09386
7485.46054,0.09076
7483.53179,0.09106
7481.60305,0.09201
7479.67430,0.09169
7477.74556,0.09148
7475.81681,0.09008
7473.88807,0.09017
7471.95932,0.09390
7470.03057,0.09454
7468.10183,0.09254
7466.17308,0.09478
7464.24434,0.09825
7462.31559,0.09702
7460.38685,0.09214
7458.45810,0.08898
7456.52936,0.09313
7454.60061,0.10237
7452.67187,0.10711
7450.74312,0.10320
7448.81438,0.09686
7446.88563,0.09397
7444.95689,0.09279
7443.02814,0.09024
7441.09940,0.08898
7439.17065,0.09185
7437.24190,0.09577
7435.31316,0.09603
7433.38441,0.09465
7431.45567,0.09685
7429.52692,0.10160
7427.59818,0.10331
7425.66943,0.09973
7423.74069,0.09474
7421.81194,0.09326
7419.88320,0.09448
7417.95445,0.09522
7416.02571,0.09576
7414.09696,0.09563
7412.16822,0.09268
7410.23947,0.09062
7408.31073,0.09265
7406.38198,0.09354
7404.45323,0.08960
7402.52449,0.08663
7400.59574,0.08767
7398.66700,0.08772
7396.73825,0.08560
7394.80951,0.08563
7392.88076,0.08738
7390.95202,0.08944
7389.02327,0.09262
7387.09453,0.09653
7385.16578,0.09867
7383.23704,0.09797
7381.30829,0.09727
7379.37955,0.09945
7377.45080,0.10120
7375.52205,0.09843
7373.59331,0.09304
7371.66456,0.08730
7369.73582,0.08229
7367.80707,0.08227
7365.87833,0.08729
7363.94958,0.09263
7362.02084,0.09362
7360.09209,0.08885
7358.16335,0.08427
7356.23460,0.08395
7354.30586,0.08633
7352.37711,0.08953
7350.44837,0.09151
7348.51962,0.09314
7346.59088,0.09475
7344.66213,0.09522
7342.73338,0.09441
7340.80464,0.09080
7338.87589,0.08787
7336.94715,0.09052
7335.01840,0.09412
7333.08966,0.09425
7331.16091,0.09407
7329.23217,0.09490
7327.30342,0.09348
7325.37468,0.08969
7323.44593,0.08631
7321.51719,0.08588
7319.58844,0.08846
7317.65970,0.09117
7315.73095,0.09258
7313.80221,0.09343
7311.87346,0.09501
7309.94471,0.09747
7308.01597,0.09696
7306.08722,0.09308
7304.15848,0.08929
7302.22973,0.08584
7300.30099,0.08544
7298.37224,0.08980
7296.44350,0.09189
7294.51475,0.09129
7292.58601,0.09289
7290.65726,0.09391
7288.72852,0.09194
7286.79977,0.08865
7284.87103,0.08678
7282.94228,0.08779
7281.01353,0.08769
7279.08479,0.08731
7277.15604,0.09137
7275.22730,0.09568
7273.29855,0.09525
7271.36981,0.09374
7269.44106,0.09325
7267.51232,0.09230
7265.58357,0.09156
7263.65483,0.09278
7261.72608,0.09529
7259.79734,0.09722
7257.86859,0.09922
7255.93985,0.09955
7254.01110,0.09617
7252.08236,0.09444
7250.15361,0.09614
7248.22486,0.09681
7246.29612,0.09702
7244.36737,0.09869
7242.43863,0.09838
7240.50988,0.09396
7238.58114,0.09022
7236.65239,0.09229
7234.72365,0.09741
7232.79490,0.10014
7230.86616,0.09980
7228.93741,0.09806
7227.00867,0.09666
7225.07992,0.09641
7223.15118,0.09611
7221.22243,0.09666
7219.29369,0.09810
7217.36494,0.09704
7215.43619,0.09426
7213.50745,0.09522
7211.57870,0.09768
7209.64996,0.09543
7207.72121,0.09196
7205.79247,0.09276
7203.86372,0.09376
7201.93498,0.09049
7200.00623,0.08603
7198.07749,0.08469
7196.14874,0.08632
7194.22000,0.08909
7192.29125,0.09189
7190.36251,0.09346
7188.43376,0.09393
7186.50501,0.09385
7184.57627,0.09267
7182.64752,0.09305
7180.71878,0.09476
7178.79003,0.09266
7176.86129,0.08865
7174.93254,0.08714
7173.00380,0.08637
7171.07505,0.08708
7169.14631,0.09305
7167.21756,0.10042
7165.28882,0.10147
7163.36007,0.09725
7161.43133,0.09382
7159.50258,0.09388
7157.57384,0.09614
7155.64509,0.09794
7153.71634,0.09751
7151.78760,0.09433
7149.85885,0.08960
7147.93011,0.08655
7146.00136,0.08730
7144.07262,0.08933
7142.14387,0.09001
7140.21513,0.09027
7138.28638,0.08969
7136.35764,0.08861
7134.42889,0.08930
7132.50015,0.09133
7130.57140,0.09296
7128.64266,0.09290
7126.71391,0.09157
7124.78516,0.09165
7122.85642,0.09422
7120.92767,0.09554
7118.99893,0.09260
7117.07018,0.09134
7115.14144,0.09547
7113.21269,0.09879
7111.28395,0.09812
7109.35520,0.09619
7107.42646,0.09529
7105.49771,0.09561
7103.56897,0.09612
7101.64022,0.09635
7099.71148,0.09533
7097.78273,0.09305
7095.85399,0.09260
7093.92524,0.09499
7091.99649,0.09540
7090.06775,0.09135
7088.13900,0.08683
7086.21026,0.08537
7084.28151,0.08701
7082.35277,0.08970
7080.42402,0.09193
7078.49528,0.09435
7076.56653,0.09528
7074.63779,0.09181
7072.70904,0.08627
7070.78030,0.08526
7068.85155,0.09020
7066.92281,0.09563
7064.99406,0.09707
7063.06532,0.09406
7061.13657,0.09093
7059.20782,0.09207
7057.27908,0.09333
7055.35033,0.09176
7053.42159,0.09265
7051.49284,0.09590
7049.56410,0.09632
7047.63535,0.09561
7045.70661,0.09636
7043.77786,0.09604
7041.84912,0.09355
7039.92037,0.09046
7037.99163,0.08723
7036.06288,0.08610
7034.13414,0.08973
7032.20539,0.09478
7030.27664,0.09604
7028.34790,0.09383
7026.41915,0.09186
7024.49041,0.09207
7022.56166,0.09274
7020.63292,0.09241
7018.70417,0.09252
7016.77543,0.09354
7014.84668,0.09310
7012.91794,0.09085
7010.98919,0.09040
7009.06045,0.09357
7007.13170,0.09645
7005.20296,0.09620
7003.27421,0.09534
7001.34547,0.09541
6999.41672,0.09502
6997.48797,0.09507
6995.55923,0.09694
6993.63048,0.09814
6991.70174,0.09648
6989.77299,0.09331
6987.84425,0.09053
6985.91550,0.09128
6983.98676,0.09704
6982.05801,0.10072
6980.12927,0.09730
6978.20052,0.09440
6976.27178,0.09637
6974.34303,0.09704
6972.41429,0.09523
6970.48554,0.09426
6968.55680,0.09313
6966.62805,0.09128
6964.69930,0.09120
6962.77056,0.09303
6960.84181,0.09258
6958.91307,0.08927
6956.98432,0.08721
6955.05558,0.08742
6953.12683,0.08867
6951.19809,0.09112
6949.26934,0.09465
6947.34060,0.09711
6945.41185,0.09724
6943.48311,0.09689
6941.55436,0.09700
6939.62562,0.09612
6937.69687,0.09375
6935.76812,0.09175
6933.83938,0.09148
6931.91063,0.09234
6929.98189,0.09355
6928.05314,0.09492
6926.12440,0.09591
6924.19565,0.09500
6922.26691,0.09210
6920.33816,0.08905
6918.40942,0.08734
6916.48067,0.08772
6914.55193,0.08917
6912.62318,0.08959
6910.69444,0.08873
6908.76569,0.08941
6906.83695,0.09290
6904.90820,0.09515
6902.97945,0.09327
6901.05071,0.09097
6899.12196,0.09216
6897.19322,0.09493
6895.26447,0.09572
6893.33573,0.09483
6891.40698,0.09419
6889.47824,0.09408
6887.54949,0.09338
6885.62075,0.09251
6883.69200,0.09249
6881.76326,0.09168
6879.83451,0.08996
6877.90577,0.09019
6875.97702,0.09195
6874.04828,0.09340
6872.11953,0.09485
6870.19078,0.09561
6868.26204,0.09492
6866.33329,0.09418
6864.40455,0.09510
6862.47580,0.09741
6860.54706,0.09858
6858.61831,0.09854
6856.68957,0.09832
6854.76082,0.09717
6852.83208,0.09607
6850.90333,0.09522
6848.97459,0.09347
6847.04584,0.09251
6845.11710,0.09342
6843.18835,0.09515
6841.25960,0.09671
6839.33086,0.09641
6837.40211,0.09404
6835.47337,0.09224
6833.54462,0.09267
6831.61588,0.09455
6829.68713,0.09615
6827.75839,0.09647
6825.82964,0.09606
6823.90090,0.09619
6821.97215,0.09698
6820.04341,0.09646
6818.11466,0.09366
6816.18592,0.09144
6814.25717,0.09195
6812.32843,0.09456
6810.39968,0.09771
6808.47093,0.09908
6806.54219,0.09811
6804.61344,0.09697
6802.68470,0.09627
6800.75595,0.09577
6798.82721,0.09612
6796.89846,0.09728
6794.96972,0.09779
6793.04097,0.09608
6791.11223,0.09414
6789.18348,0.09437
6787.25474,0.09426
6785.32599,0.09257
6783.39725,0.09182
6781.46850,0.09416
6779.53975,0.09826
6777.61101,0.09945
6775.68226,0.09596
6773.75352,0.09284
6771.82477,0.09362
6769.89603,0.09539
6767.96728,0.09566
6766.03854,0.09429
6764.10979,0.09260
6762.18105,0.09351
6760.25230,0.09494
6758.32356,0.09329
6756.39481,0.09190
6754.46607,0.09380
6752.53732,0.09602
6750.60858,0.09657
6748.67983,0.09704
6746.75108,0.09691
6744.82234,0.09381
6742.89359,0.09061
6740.96485,0.09209
6739.03610,0.09552
6737.10736,0.09595
6735.17861,0.09530
6733.24987,0.09548
6731.32112,0.09444
6729.39238,0.09214
6727.46363,0.09067
6725.53489,0.09098
6723.60614,0.09181
6721.67740,0.09182
6719.74865,0.09212
6717.81991,0.09359
6715.89116,0.09450
6713.96241,0.09366
6712.03367,0.09225
6710.10492,0.09060
6708.17618,0.08880
6706.24743,0.08887
6704.31869,0.09195
6702.38994,0.09534
6700.46120,0.09537
6698.53245,0.09291
6696.60371,0.09139
6694.67496,0.09174
6692.74622,0.09335
6690.81747,0.09526
6688.88873,0.09632
6686.95998,0.09642
6685.03123,0.09536
6683.10249,0.09299
6681.17374,0.09198
6679.24500,0.09379
6677.31625,0.09467
6675.38751,0.09268
6673.45876,0.09121
6671.53002,0.09244
6669.60127,0.09541
6667.67253,0.09818
6665.74378,0.09835
6663.81504,0.09577
6661.88629,0.09453
6659.95755,0.09647
6658.02880,0.09745
6656.10006,0.09445
6654.17131,0.09039
6652.24256,0.08983
6650.31382,0.09329
6648.38507,0.09669
6646.45633,0.09732
6644.52758,0.09651
6642.59884,0.09526
6640.67009,0.09317
6638.74135,0.09163
6636.81260,0.09171
6634.88386,0.09252
6632.95511,0.09438
6631.02637,0.09733
6629.09762,0.09859
6627.16888,0.09682
6625.24013,0.09441
6623.31139,0.09282
6621.38264,0.09161
6619.45389,0.09131
6617.52515,0.09170
6615.59640,0.09226
6613.66766,0.09253
6611.73891,0.09151
6609.81017,0.09104
6607.88142,0.09168
6605.95268,0.09084
6604.02393,0.08932
6602.09519,0.08913
6600.16644,0.08990
6598.23770,0.09165
6596.30895,0.09482
6594.38021,0.09815
6592.45146,0.09958
6590.52271,0.09774
6588.59397,0.09339
6586.66522,0.09059
6584.73648,0.09208
6582.80773,0.09450
6580.87899,0.09431
6578.95024,0.09293
6577.02150,0.09263
6575.09275,0.09343
6573.16401,0.09344
6571.23526,0.09156
6569.30652,0.08988
6567.37777,0.09018
6565.44903,0.09181
6563.52028,0.09415
6561.59154,0.09606
6559.66279,0.09509
6557.73404,0.09320
6555.80530,0.09535
6553.87655,0.09960
6551.94781,0.10064
6550.01906,0.09866
6548.09032,0.09650
6546.16157,0.09503
6544.23283,0.09342
6542.30408,0.09214
6540.37534,0.09263
6538.44659,0.09501
6536.51785,0.09767
6534.58910,0.09902
6532.66036,0.09909
6530.73161,0.09793
6528.80287,0.09581
6526.87412,0.09459
6524.94537,0.09510
6523.01663,0.09633
6521.08788,0.09675
6519.15914,0.09538
6517.23039,0.09376
6515.30165,0.09432
6513.37290,0.09646
6511.44416,0.09796
6509.51541,0.09714
6507.58667,0.09457
6505.65792,0.09295
6503.72918,0.09357
6501.80043,0.09567
6499.87169,0.09730
6497.94294,0.09644
6496.01419,0.09482
6494.08545,0.09582
6492.15670,0.09786
6490.22796,0.09691
6488.29921,0.09400
6486.37047,0.09247
6484.44172,0.09222
6482.51298,0.09259
6480.58423,0.09402
6478.65549,0.09534
6476.72674,0.09505
6474.79800,0.09344
6472.86925,0.09228
6470.94051,0.09264
6469.01176,0.09371
6467.08302,0.09464
6465.15427,0.09518
6463.22552,0.09526
6461.29678,0.09526
6459.36803,0.09509
6457.43929,0.09447
6455.51054,0.09416
6453.58180,0.09453
6451.65305,0.09424
6449.72431,0.09244
6447.79556,0.09082
6445.86682,0.09068
6443.93807,0.09081
6442.00933,0.09063
6440.08058,0.09108
6438.15184,0.09284
6436.22309,0.09524
6434.29434,0.09700
6432.36560,0.09720
6430.43685,0.09542
6428.50811,0.09343
6426.57936,0.09330
6424.65062,0.09364
6422.72187,0.09307
6420.79313,0.09237
6418.86438,0.09210
6416.93564,0.09235
6415.00689,0.09278
6413.07815,0.09311
6411.14940,0.09427
6409.22066,0.09619
6407.29191,0.09675
6405.36317,0.09547
6403.43442,0.09478
6401.50567,0.09566
6399.57693,0.09692
6397.64818,0.09775
6395.71944,0.09746
6393.79069,0.09580
6391.86195,0.09487
6389.93320,0.09563
6388.00446,0.09647
6386.07571,0.09645
6384.14697,0.09578
6382.21822,0.09566
6380.28948,0.09751
6378.36073,0.10011
6376.43199,0.10010
6374.50324,0.09637
6372.57450,0.09318
6370.64575,0.09454
6368.71700,0.09712
6366.78826,0.09686
6364.85951,0.09637
6362.93077,0.09741
6361.00202,0.09704
6359.07328,0.09491
6357.14453,0.09355
6355.21579,0.09371
6353.28704,0.09462
6351.35830,0.09510
6349.42955,0.09488
6347.50081,0.09491
6345.57206,0.09565
6343.64332,0.09641
6341.71457,0.09594
6339.78582,0.09422
6337.85708,0.09288
6335.92833,0.09269
6333.99959,0.09260
6332.07084,0.09252
6330.14210,0.09390
6328.21335,0.09508
6326.28461,0.09445
6324.35586,0.09464
6322.42712,0.09632
6320.49837,0.09745
6318.56963,0.09745
6316.64088,0.09639
6314.71214,0.09503
6312.78339,0.09455
6310.85465,0.09507
6308.92590,0.09497
6306.99715,0.09343
6305.06841,0.09210
6303.13966,0.09202
6301.21092,0.09282
6299.28217,0.09408
6297.35343,0.09477
6295.42468,0.09469
6293.49594,0.09502
6291.56719,0.09621
6289.63845,0.09714
6287.70970,0.09711
6285.78096,0.09651
6283.85221,0.09547
6281.92347,0.09465
6279.99472,0.09518
6278.06598,0.09637
6276.13723,0.09662
6274.20848,0.09606
6272.27974,0.09608
6270.35099,0.09699
6268.42225,0.09785
6266.49350,0.09808
6264.56476,0.09766
6262.63601,0.09717
6260.70727,0.09755
6258.77852,0.09821
6256.84978,0.09792
6254.92103,0.09686
6252.99229,0.09576
6251.06354,0.09474
6249.13480,0.09386
6247.20605,0.09335
6245.27730,0.09353
6243.34856,0.09456
6241.41981,0.09545
6239.49107,0.09498
6237.56232,0.09426
6235.63358,0.09461
6233.70483,0.09579
6231.77609,0.09775
6229.84734,0.09931
6227.91860,0.09895
6225.98985,0.09745
6224.06111,0.09616
6222.13236,0.09596
6220.20362,0.09656
6218.27487,0.09667
6216.34613,0.09635
6214.41738,0.09665
6212.48863,0.09770
6210.55989,0.09812
6208.63114,0.09761
6206.70240,0.09712
6204.77365,0.09633
6202.84491,0.09535
6200.91616,0.09518
6198.98742,0.09560
6197.05867,0.09585
6195.12993,0.09654
6193.20118,0.09782
6191.27244,0.09851
6189.34369,0.09856
6187.41495,0.09831
6185.48620,0.09729
6183.55746,0.09630
6181.62871,0.09638
6179.69996,0.09667
6177.77122,0.09604
6175.84247,0.09504
6173.91373,0.09462
6171.98498,0.09536
6170.05624,0.09648
6168.12749,0.09631
6166.19875,0.09534
6164.27000,0.09515
6162.34126,0.09528
6160.41251,0.09504
6158.48377,0.09497
6156.55502,0.09485
6154.62628,0.09449
6152.69753,0.09469
6150.76878,0.09452
6148.84004,0.09340
6146.91129,0.09254
6144.98255,0.09261
6143.05380,0.09452
6141.12506,0.09727
6139.19631,0.09812
6137.26757,0.09776
6135.33882,0.09733
6133.41008,0.09632
6131.48133,0.09572
6129.55259,0.09623
6127.62384,0.09717
6125.69510,0.09784
6123.76635,0.09757
6121.83761,0.09689
6119.90886,0.09657
6117.98011,0.09685
6116.05137,0.09766
6114.12262,0.09752
6112.19388,0.09537
6110.26513,0.09313
6108.33639,0.09313
6106.40764,0.09427
6104.47890,0.09398
6102.55015,0.09279
6100.62141,0.09295
6098.69266,0.09427
6096.76392,0.09509
6094.83517,0.09560
6092.90643,0.09692
6090.97768,0.09834
6089.04893,0.09828
6087.12019,0.09683
6085.19144,0.09564
6083.26270,0.09544
6081.33395,0.09583
6079.40521,0.09648
6077.47646,0.09618
6075.54772,0.09485
6073.61897,0.09490
6071.69023,0.09663
6069.76148,0.09716
6067.83274,0.09566
6065.90399,0.09428
6063.97525,0.09401
6062.04650,0.09485
6060.11776,0.09648
6058.18901,0.09689
6056.26026,0.09498
6054.33152,0.09250
6052.40277,0.09181
6050.47403,0.09330
6048.54528,0.09522
6046.61654,0.09596
6044.68779,0.09616
6042.75905,0.09674
6040.83030,0.09645
6038.90156,0.09554
6036.97281,0.09552
6035.04407,0.09539
6033.11532,0.09508
6031.18658,0.09562
6029.25783,0.09571
6027.32909,0.09464
6025.40034,0.09391
6023.47159,0.09432
6021.54285,0.09461
6019.61410,0.09408
6017.68536,0.09392
6015.75661,0.09419
6013.82787,0.09378
6011.89912,0.09288
6009.97038,0.09220
6008.04163,0.09203
6006.11289,0.09286
6004.18414,0.09404
6002.25540,0.09444
6000.32665,0.09491
5998.39791,0.09618
5996.46916,0.09695
5994.54041,0.09560
5992.61167,0.09270
5990.68292,0.09105
5988.75418,0.09147
5986.82543,0.09232
5984.89669,0.09291
5982.96794,0.09298
5981.03920,0.09249
5979.11045,0.09238
5977.18171,0.09325
5975.25296,0.09456
5973.32422,0.09525
5971.39547,0.09531
5969.46673,0.09538
5967.53798,0.09498
5965.60924,0.09419
5963.68049,0.09427
5961.75174,0.09397
5959.82300,0.09194
5957.89425,0.09007
5955.96551,0.08950
5954.03676,0.08973
5952.10802,0.09017
5950.17927,0.08991
5948.25053,0.08929
5946.32178,0.08977
5944.39304,0.09145
5942.46429,0.09253
5940.53555,0.09168
5938.60680,0.09004
5936.67806,0.08971
5934.74931,0.09098
5932.82057,0.09175
5930.89182,0.09033
5928.96307,0.08812
5927.03433,0.08773
5925.10558,0.08971
5923.17684,0.09172
5921.24809,0.09135
5919.31935,0.08962
5917.39060,0.08913
5915.46186,0.08967
5913.53311,0.09011
5911.60437,0.09077
5909.67562,0.09135
5907.74688,0.09103
5905.81813,0.08986
5903.88939,0.08874
5901.96064,0.08935
5900.03189,0.09156
5898.10315,0.09281
5896.17440,0.09167
5894.24566,0.08990
5892.31691,0.08963
5890.38817,0.09044
5888.45942,0.09055
5886.53068,0.09035
5884.60193,0.09095
5882.67319,0.09158
5880.74444,0.09184
5878.81570,0.09206
5876.88695,0.09193
5874.95821,0.09173
5873.02946,0.09109
5871.10072,0.08985
5869.17197,0.09001
5867.24322,0.09217
5865.31448,0.09373
5863.38573,0.09315
5861.45699,0.09172
5859.52824,0.09077
5857.59950,0.09055
5855.67075,0.09105
5853.74201,0.09177
5851.81326,0.09175
5849.88452,0.09100
5847.95577,0.09081
5846.02703,0.09167
5844.09828,0.09233
5842.16954,0.09150
5840.24079,0.08986
5838.31205,0.08957
5836.38330,0.09058
5834.45455,0.09106
5832.52581,0.09132
5830.59706,0.09180
5828.66832,0.09155
5826.73957,0.09100
5824.81083,0.09118
5822.88208,0.09187
5820.95334,0.09228
5819.02459,0.09165
5817.09585,0.09087
5815.16710,0.09104
5813.23836,0.09117
5811.30961,0.09088
5809.38087,0.09109
5807.45212,0.09136
5805.52337,0.09082
5803.59463,0.08970
5801.66588,0.08890
5799.73714,0.08931
5797.80839,0.09031
5795.87965,0.09082
5793.95090,0.09120
5792.02216,0.09156
5790.09341,0.09155
5788.16467,0.09149
5786.23592,0.09145
5784.30718,0.09107
5782.37843,0.09060
5780.44969,0.09059
5778.52094,0.09087
5776.59220,0.09081
5774.66345,0.09043
5772.73470,0.09007
5770.80596,0.08940
5768.87721,0.08910
5766.94847,0.09067
5765.01972,0.09240
5763.09098,0.09184
5761.16223,0.09051
5759.23349,0.09055
5757.30474,0.09159
5755.37600,0.09249
5753.44725,0.09278
5751.51851,0.09224
5749.58976,0.09093
5747.66102,0.08989
5745.73227,0.09036
5743.80352,0.09215
5741.87478,0.09335
5739.94603,0.09280
5738.01729,0.09151
5736.08854,0.09098
5734.15980,0.09108
5732.23105,0.09104
5730.30231,0.09107
5728.37356,0.09137
5726.44482,0.09174
5724.51607,0.09190
5722.58733,0.09181
5720.65858,0.09210
5718.72984,0.09309
5716.80109,0.09360
5714.87235,0.09299
5712.94360,0.09218
5711.01485,0.09151
5709.08611,0.09080
5707.15736,0.09080
5705.22862,0.09171
5703.29987,0.09256
5701.37113,0.09277
5699.44238,0.09288
5697.51364,0.09326
5695.58489,0.09305
5693.65615,0.09224
5691.72740,0.09222
5689.79866,0.09309
5687.86991,0.09331
5685.94117,0.09238
5684.01242,0.09181
5682.08368,0.09235
5680.15493,0.09301
5678.22618,0.09337
5676.29744,0.09361
5674.36869,0.09347
5672.43995,0.09326
5670.51120,0.09363
5668.58246,0.09451
5666.65371,0.09529
5664.72497,0.09513
5662.79622,0.09408
5660.86748,0.09319
5658.93873,0.09311
5657.00999,0.09345
5655.08124,0.09357
5653.15250,0.09378
5651.22375,0.09470
5649.29500,0.09511
5647.36626,0.09417
5645.43751,0.09377
5643.50877,0.09442
5641.58002,0.09448
5639.65128,0.09407
5637.72253,0.09404
5635.79379,0.09386
5633.86504,0.09345
5631.93630,0.09391
5630.00755,0.09543
5628.07881,0.09656
5626.15006,0.09585
5624.22132,0.09373
5622.29257,0.09251
5620.36383,0.09314
5618.43508,0.09410
5616.50633,0.09447
5614.57759,0.09470
5612.64884,0.09501
5610.72010,0.09543
5608.79135,0.09600
5606.86261,0.09690
5604.93386,0.09823
5603.00512,0.09895
5601.07637,0.09811
5599.14763,0.09664
5597.21888,0.09620
5595.29014,0.09682
5593.36139,0.09729
5591.43265,0.09750
5589.50390,0.09776
5587.57516,0.09775
5585.64641,0.09735
5583.71766,0.09714
5581.78892,0.09759
5579.86017,0.09807
5577.93143,0.09769
5576.00268,0.09667
5574.07394,0.09578
5572.14519,0.09535
5570.21645,0.09519
5568.28770,0.09513
5566.35896,0.09505
5564.43021,0.09505
5562.50147,0.09553
5560.57272,0.09657
5558.64398,0.09728
5556.71523,0.09684
5554.78648,0.09568
5552.85774,0.09492
5550.92899,0.09498
5549.00025,0.09556
5547.07150,0.09650
5545.14276,0.09723
5543.21401,0.09698
5541.28527,0.09643
5539.35652,0.09603
5537.42778,0.09532
5535.49903,0.09525
5533.57029,0.09643
5531.64154,0.09739
5529.71280,0.09739
5527.78405,0.09712
5525.85531,0.09708
5523.92656,0.09728
5521.99781,0.09751
5520.06907,0.09758
5518.14032,0.09740
5516.21158,0.09656
5514.28283,0.09550
5512.35409,0.09525
5510.42534,0.09542
5508.49660,0.09573
5506.56785,0.09661
5504.63911,0.09733
5502.71036,0.09703
5500.78162,0.09634
5498.85287,0.09646
5496.92413,0.09728
5494.99538,0.09788
5493.06664,0.09803
5491.13789,0.09773
5489.20914,0.09751
5487.28040,0.09790
5485.35165,0.09796
5483.42291,0.09748
5481.49416,0.09783
5479.56542,0.09889
5477.63667,0.09931
5475.70793,0.09910
5473.77918,0.09883
5471.85044,0.09814
5469.92169,0.09713
5467.99295,0.09681
5466.06420,0.09726
5464.13546,0.09785
5462.20671,0.09786
5460.27796,0.09699
5458.34922,0.09636
5456.42047,0.09687
5454.49173,0.09783
5452.56298,0.09802
5450.63424,0.09733
5448.70549,0.09717
5446.77675,0.09776
5444.84800,0.09771
5442.91926,0.09735
5440.99051,0.09798
5439.06177,0.09904
5437.13302,0.09928
5435.20428,0.09905
5433.27553,0.09881
5431.34679,0.09822
5429.41804,0.09732
5427.48929,0.09678
5425.56055,0.09733
5423.63180,0.09842
5421.70306,0.09881
5419.77431,0.09874
5417.84557,0.09874
5415.91682,0.09855
5413.98808,0.09835
5412.05933,0.09829
5410.13059,0.09835
5408.20184,0.09878
5406.27310,0.09970
5404.34435,0.10090
5402.41561,0.10137
5400.48686,0.10047
5398.55811,0.09930
5396.62937,0.09886
5394.70062,0.09893
5392.77188,0.09924
5390.84313,0.09967
5388.91439,0.10002
5386.98564,0.10031
5385.05690,0.10042
5383.12815,0.10000
5381.19941,0.09978
5379.27066,0.10032
5377.34192,0.10034
5375.41317,0.09931
5373.48443,0.09859
5371.55568,0.09851
5369.62694,0.09869
5367.69819,0.09895
5365.76944,0.09918
5363.84070,0.09984
5361.91195,0.10074
5359.98321,0.10091
5358.05446,0.10080
5356.12572,0.10112
5354.19697,0.10112
5352.26823,0.10062
5350.33948,0.10057
5348.41074,0.10114
5346.48199,0.10170
5344.55325,0.10162
5342.62450,0.10105
5340.69576,0.10074
5338.76701,0.10041
5336.83827,0.09938
5334.90952,0.09839
5332.98077,0.09844
5331.05203,0.09910
5329.12328,0.09962
5327.19454,0.10014
5325.26579,0.10054
5323.33705,0.10057
5321.40830,0.10043
5319.47956,0.10041
5317.55081,0.10025
5315.62207,0.09999
5313.69332,0.09987
5311.76458,0.09933
5309.83583,0.09843
5307.90709,0.09822
5305.97834,0.09901
5304.04959,0.10012
5302.12085,0.10077
5300.19210,0.10077
5298.26336,0.10038
5296.33461,0.09990
5294.40587,0.09953
5292.47712,0.09937
5290.54838,0.09942
5288.61963,0.09935
5286.69089,0.09922
5284.76214,0.09956
5282.83340,0.10042
5280.90465,0.10098
5278.97591,0.10029
5277.04716,0.09881
5275.11842,0.09800
5273.18967,0.09820
5271.26092,0.09871
5269.33218,0.09921
5267.40343,0.09974
5265.47469,0.10010
5263.54594,0.09977
5261.61720,0.09896
5259.68845,0.09907
5257.75971,0.09990
5255.83096,0.09978
5253.90222,0.09905
5251.97347,0.09903
5250.04473,0.09920
5248.11598,0.09907
5246.18724,0.09933
5244.25849,0.09955
5242.32975,0.09899
5240.40100,0.09842
5238.47225,0.09857
5236.54351,0.09892
5234.61476,0.09847
5232.68602,0.09728
5230.75727,0.09681
5228.82853,0.09769
5226.89978,0.09899
5224.97104,0.09982
5223.04229,0.10039
5221.11355,0.10104
5219.18480,0.10104
5217.25606,0.10012
5215.32731,0.09941
5213.39857,0.09916
5211.46982,0.09864
5209.54107,0.09796
5207.61233,0.09785
5205.68358,0.09867
5203.75484,0.09983
5201.82609,0.10020
5199.89735,0.09974
5197.96860,0.09959
5196.03986,0.10028
5194.11111,0.10082
5192.18237,0.10039
5190.25362,0.09950
5188.32488,0.09896
5186.39613,0.09891
5184.46739,0.09932
5182.53864,0.09980
5180.60990,0.09953
5178.68115,0.09906
5176.75240,0.09950
5174.82366,0.10011
5172.89491,0.09966
5170.96617,0.09868
5169.03742,0.09855
5167.10868,0.09910
5165.17993,0.09905
5163.25119,0.09869
5161.32244,0.09898
5159.39370,0.09958
5157.46495,0.09943
5155.53621,0.09847
5153.60746,0.09800
5151.67872,0.09870
5149.74997,0.09955
5147.82123,0.09945
5145.89248,0.09868
5143.96373,0.09832
5142.03499,0.09898
5140.10624,0.09982
5138.17750,0.09959
5136.24875,0.09870
5134.32001,0.09824
5132.39126,0.09810
5130.46252,0.09799
5128.53377,0.09802
5126.60503,0.09868
5124.67628,0.09985
5122.74754,0.10026
5120.81879,0.09983
5118.89005,0.09971
5116.96130,0.09952
5115.03255,0.09874
5113.10381,0.09861
5111.17506,0.09937
5109.24632,0.09957
5107.31757,0.09916
5105.38883,0.09883
5103.46008,0.09852
5101.53134,0.09854
5099.60259,0.09907
5097.67385,0.09957
5095.74510,0.09960
5093.81636,0.09914
5091.88761,0.09850
5089.95887,0.09800
5088.03012,0.09783
5086.10138,0.09818
5084.17263,0.09895
5082.24388,0.09967
5080.31514,0.10016
5078.38639,0.10028
5076.45765,0.09990
5074.52890,0.09943
5072.60016,0.09918
5070.67141,0.09923
5068.74267,0.09959
5066.81392,0.10007
5064.88518,0.10018
5062.95643,0.09951
5061.02769,0.09873
5059.09894,0.09864
5057.17020,0.09893
5055.24145,0.09932
5053.31270,0.10000
5051.38396,0.10054
5049.45521,0.10030
5047.52647,0.09953
5045.59772,0.09889
5043.66898,0.09880
5041.74023,0.09884
5039.81149,0.09860
5037.88274,0.09843
5035.95400,0.09842
5034.02525,0.09885
5032.09651,0.09968
5030.16776,0.09963
5028.23902,0.09844
5026.31027,0.09761
5024.38153,0.09763
5022.45278,0.09777
5020.52403,0.09813
5018.59529,0.09878
5016.66654,0.09910
5014.73780,0.09907
5012.80905,0.09909
5010.88031,0.09919
5008.95156,0.09906
5007.02282,0.09854
5005.09407,0.09820
5003.16533,0.09826
5001.23658,0.09840
4999.30784,0.09845
4997.37909,0.09824
4995.45035,0.09798
4993.52160,0.09808
4991.59286,0.09826
4989.66411,0.09828
4987.73536,0.09810
4985.80662,0.09772
4983.87787,0.09719
4981.94913,0.09662
4980.02038,0.09653
4978.09164,0.09692
4976.16289,0.09733
4974.23415,0.09764
4972.30540,0.09751
4970.37666,0.09682
4968.44791,0.09633
4966.51917,0.09624
4964.59042,0.09614
4962.66168,0.09602
4960.73293,0.09604
4958.80418,0.09589
4956.87544,0.09542
4954.94669,0.09496
4953.01795,0.09468
4951.08920,0.09458
4949.16046,0.09475
4947.23171,0.09509
4945.30297,0.09512
4943.37422,0.09472
4941.44548,0.09458
4939.51673,0.09488
4937.58799,0.09496
4935.65924,0.09453
4933.73050,0.09395
4931.80175,0.09351
4929.87301,0.09315
4927.94426,0.09307
4926.01551,0.09341
4924.08677,0.09361
4922.15802,0.09364
4920.22928,0.09385
4918.30053,0.09382
4916.37179,0.09333
4914.44304,0.09291
4912.51430,0.09300
4910.58555,0.09342
4908.65681,0.09373
4906.72806,0.09377
4904.79932,0.09366
4902.87057,0.09348
4900.94183,0.09322
4899.01308,0.09295
4897.08434,0.09257
4895.15559,0.09226
4893.22684,0.09257
4891.29810,0.09272
4889.36935,0.09187
4887.44061,0.09106
4885.51186,0.09098
4883.58312,0.09119
4881.65437,0.09171
4879.72563,0.09249
4877.79688,0.09297
4875.86814,0.09312
4873.93939,0.09300
4872.01065,0.09258
4870.08190,0.09225
4868.15316,0.09237
4866.22441,0.09236
4864.29566,0.09171
4862.36692,0.09122
4860.43817,0.09110
4858.50943,0.09104
4856.58068,0.09165
4854.65194,0.09262
4852.72319,0.09293
4850.79445,0.09277
4848.86570,0.09266
4846.93696,0.09296
4845.00821,0.09358
4843.07947,0.09386
4841.15072,0.09373
4839.22198,0.09338
4837.29323,0.09301
4835.36449,0.09296
4833.43574,0.09302
4831.50699,0.09299
4829.57825,0.09289
4827.64950,0.09254
4825.72076,0.09232
4823.79201,0.09281
4821.86327,0.09382
4819.93452,0.09472
4818.00578,0.09525
4816.07703,0.09562
4814.14829,0.09604
4812.21954,0.09641
4810.29080,0.09652
4808.36205,0.09617
4806.43331,0.09546
4804.50456,0.09483
4802.57582,0.09459
4800.64707,0.09509
4798.71832,0.09613
4796.78958,0.09663
4794.86083,0.09633
4792.93209,0.09598
4791.00334,0.09583
4789.07460,0.09577
4787.14585,0.09593
4785.21711,0.09631
4783.28836,0.09673
4781.35962,0.09695
4779.43087,0.09679
4777.50213,0.09656
4775.57338,0.09660
4773.64464,0.09658
4771.71589,0.09633
4769.78714,0.09619
4767.85840,0.09628
4765.92965,0.09664
4764.00091,0.09720
4762.07216,0.09733
4760.14342,0.09689
4758.21467,0.09638
4756.28593,0.09599
4754.35718,0.09603
4752.42844,0.09645
4750.49969,0.09662
4748.57095,0.09656
4746.64220,0.09672
4744.71346,0.09720
4742.78471,0.09769
4740.85597,0.09773
4738.92722,0.09721
4736.99847,0.09666
4735.06973,0.09644
4733.14098,0.09638
4731.21224,0.09622
4729.28349,0.09580
4727.35475,0.09543
4725.42600,0.09538
4723.49726,0.09516
4721.56851,0.09437
4719.63977,0.09378
4717.71102,0.09393
4715.78228,0.09429
4713.85353,0.09466
4711.92479,0.09524
4709.99604,0.09572
4708.06729,0.09550
4706.13855,0.09482
4704.20980,0.09434
4702.28106,0.09424
4700.35231,0.09440
4698.42357,0.09455
4696.49482,0.09451
4694.56608,0.09444
4692.63733,0.09429
4690.70859,0.09399
4688.77984,0.09383
4686.85110,0.09388
4684.92235,0.09370
4682.99361,0.09333
4681.06486,0.09321
4679.13612,0.09324
4677.20737,0.09290
4675.27862,0.09236
4673.34988,0.09208
4671.42113,0.09206
4669.49239,0.09209
4667.56364,0.09202
4665.63490,0.09199
4663.70615,0.09221
4661.77741,0.09254
4659.84866,0.09281
4657.91992,0.09296
4655.99117,0.09299
4654.06243,0.09283
4652.13368,0.09239
4650.20494,0.09218
4648.27619,0.09246
4646.34745,0.09246
4644.41870,0.09201
4642.48995,0.09182
4640.56121,0.09189
4638.63246,0.09185
4636.70372,0.09221
4634.77497,0.09301
4632.84623,0.09307
4630.91748,0.09198
4628.98874,0.09087
4627.05999,0.09047
4625.13125,0.09068
4623.20250,0.09136
4621.27376,0.09207
4619.34501,0.09238
4617.41627,0.09246
4615.48752,0.09253
4613.55877,0.09265
4611.63003,0.09288
4609.70128,0.09323
4607.77254,0.09358
4605.84379,0.09384
4603.91505,0.09387
4601.98630,0.09362
4600.05756,0.09332
4598.12881,0.09325
4596.20007,0.09344
4594.27132,0.09351
4592.34258,0.09331
4590.41383,0.09337
4588.48509,0.09387
4586.55634,0.09422
4584.62760,0.09411
4582.69885,0.09377
4580.77010,0.09356
4578.84136,0.09364
4576.91261,0.09370
4574.98387,0.09371
4573.05512,0.09415
4571.12638,0.09445
4569.19763,0.09393
4567.26889,0.09346
4565.34014,0.09386
4563.41140,0.09449
4561.48265,0.09466
4559.55391,0.09473
4557.62516,0.09496
4555.69642,0.09479
4553.76767,0.09416
4551.83893,0.09387
4549.91018,0.09412
4547.98143,0.09452
4546.05269,0.09489
4544.12394,0.09510
4542.19520,0.09496
4540.26645,0.09489
4538.33771,0.09531
4536.40896,0.09569
4534.48022,0.09535
4532.55147,0.09455
4530.62273,0.09408
4528.69398,0.09418
4526.76524,0.09440
4524.83649,0.09427
4522.90775,0.09391
4520.97900,0.09377
4519.05025,0.09378
4517.12151,0.09373
4515.19276,0.09383
4513.26402,0.09418
4511.33527,0.09458
4509.40653,0.09491
4507.47778,0.09496
4505.54904,0.09471
4503.62029,0.09448
4501.69155,0.09442
4499.76280,0.09423
4497.83406,0.09382
4495.90531,0.09377
4493.97657,0.09402
4492.04782,0.09384
4490.11908,0.09346
4488.19033,0.09329
4486.26158,0.09313
4484.33284,0.09298
4482.40409,0.09298
4480.47535,0.09296
4478.54660,0.09276
4476.61786,0.09255
4474.68911,0.09235
4472.76037,0.09205
4470.83162,0.09185
4468.90288,0.09172
4466.97413,0.09131
4465.04539,0.09076
4463.11664,0.09027
4461.18790,0.08972
4459.25915,0.08920
4457.33041,0.08871
4455.40166,0.08802
4453.47291,0.08730
4451.54417,0.08667
4449.61542,0.08627
4447.68668,0.08617
4445.75793,0.08597
4443.82919,0.08539
4441.90044,0.08438
4439.97170,0.08323
4438.04295,0.08245
4436.11421,0.08194
4434.18546,0.08145
4432.25672,0.08095
4430.32797,0.08038
4428.39923,0.07980
4426.47048,0.07936
4424.54173,0.07918
4422.61299,0.07916
4420.68424,0.07881
4418.75550,0.07803
4416.82675,0.07726
4414.89801,0.07674
4412.96926,0.07639
4411.04052,0.07608
4409.11177,0.07571
4407.18303,0.07546
4405.25428,0.07565
4403.32554,0.07627
4401.39679,0.07679
4399.46805,0.07677
4397.53930,0.07649
4395.61056,0.07630
4393.68181,0.07616
4391.75306,0.07601
4389.82432,0.07578
4387.89557,0.07547
4385.96683,0.07511
4384.03808,0.07480
4382.10934,0.07462
4380.18059,0.07427
4378.25185,0.07371
4376.32310,0.07346
4374.39436,0.07363
4372.46561,0.07355
4370.53687,0.07302
4368.60812,0.07252
4366.67938,0.07214
4364.75063,0.07179
4362.82189,0.07161
4360.89314,0.07167
4358.96439,0.07184
4357.03565,0.07170
4355.10690,0.07143
4353.17816,0.07156
4351.24941,0.07169
4349.32067,0.07127
4347.39192,0.07083
4345.46318,0.07089
4343.53443,0.07126
4341.60569,0.07140
4339.67694,0.07140
4337.74820,0.07172
4335.81945,0.07206
4333.89071,0.07182
4331.96196,0.07122
4330.03321,0.07104
4328.10447,0.07149
4326.17572,0.07195
4324.24698,0.07188
4322.31823,0.07171
4320.38949,0.07208
4318.46074,0.07272
4316.53200,0.07332
4314.60325,0.07388
4312.67451,0.07422
4310.74576,0.07433
4308.81702,0.07427
4306.88827,0.07415
4304.95953,0.07416
4303.03078,0.07410
4301.10204,0.07388
4299.17329,0.07384
4297.24454,0.07418
4295.31580,0.07469
4293.38705,0.07502
4291.45831,0.07533
4289.52956,0.07601
4287.60082,0.07676
4285.67207,0.07699
4283.74333,0.07663
4281.81458,0.07607
4279.88584,0.07568
4277.95709,0.07549
4276.02835,0.07535
4274.09960,0.07522
4272.17086,0.07520
4270.24211,0.07529
4268.31336,0.07540
4266.38462,0.07554
4264.45587,0.07574
4262.52713,0.07584
4260.59838,0.07572
4258.66964,0.07561
4256.74089,0.07571
4254.81215,0.07584
4252.88340,0.07595
4250.95466,0.07613
4249.02591,0.07633
4247.09717,0.07654
4245.16842,0.07682
4243.23968,0.07710
4241.31093,0.07726
4239.38219,0.07719
4237.45344,0.07702
4235.52469,0.07705
4233.59595,0.07713
4231.66720,0.07692
4229.73846,0.07654
4227.80971,0.07641
4225.88097,0.07675
4223.95222,0.07720
4222.02348,0.07730
4220.09473,0.07726
4218.16599,0.07741
4216.23724,0.07771
4214.30850,0.07804
4212.37975,0.07845
4210.45101,0.07879
4208.52226,0.07889
4206.59352,0.07903
4204.66477,0.07921
4202.73602,0.07920
4200.80728,0.07932
4198.87853,0.07983
4196.94979,0.08036
4195.02104,0.08043
4193.09230,0.08008
4191.16355,0.07976
4189.23481,0.07983
4187.30606,0.08005
4185.37732,0.08003
4183.44857,0.07986
4181.51983,0.07989
4179.59108,0.08012
4177.66234,0.08012
4175.73359,0.07978
4173.80484,0.07946
4171.87610,0.07941
4169.94735,0.07947
4168.01861,0.07952
4166.08986,0.07962
4164.16112,0.07965
4162.23237,0.07963
4160.30363,0.07978
4158.37488,0.07991
4156.44614,0.07980
4154.51739,0.07966
4152.58865,0.07973
4150.65990,0.07977
4148.73116,0.07952
4146.80241,0.07938
4144.87367,0.07971
4142.94492,0.08006
4141.01617,0.08010
4139.08743,0.08007
4137.15868,0.08019
4135.22994,0.08048
4133.30119,0.08059
4131.37245,0.08026
4129.44370,0.07988
4127.51496,0.07978
4125.58621,0.07974
4123.65747,0.07961
4121.72872,0.07951
4119.79998,0.07944
4117.87123,0.07935
4115.94249,0.07940
4114.01374,0.07964
4112.08500,0.07990
4110.15625,0.08002
4108.22750,0.07982
4106.29876,0.07930
4104.37001,0.07891
4102.44127,0.07888
4100.51252,0.07885
4098.58378,0.07859
4096.65503,0.07846
4094.72629,0.07858
4092.79754,0.07842
4090.86880,0.07816
4088.94005,0.07829
4087.01131,0.07828
4085.08256,0.07770
4083.15382,0.07713
4081.22507,0.07691
4079.29632,0.07660
4077.36758,0.07606
4075.43883,0.07572
4073.51009,0.07568
4071.58134,0.07571
4069.65260,0.07566
4067.72385,0.07544
4065.79511,0.07519
4063.86636,0.07504
4061.93762,0.07458
4060.00887,0.07390
4058.08013,0.07371
4056.15138,0.07399
4054.22264,0.07425
4052.29389,0.07427
4050.36515,0.07423
4048.43640,0.07442
4046.50765,0.07466
4044.57891,0.07452
4042.65016,0.07414
4040.72142,0.07386
4038.79267,0.07370
4036.86393,0.07374
4034.93518,0.07396
4033.00644,0.07416
4031.07769,0.07425
4029.14895,0.07426
4027.22020,0.07427
4025.29146,0.07435
4023.36271,0.07433
4021.43397,0.07428
4019.50522,0.07434
4017.57648,0.07428
4015.64773,0.07414
4013.71898,0.07432
4011.79024,0.07469
4009.86149,0.07490
4007.93275,0.07492
4006.00400,0.07488
4004.07526,0.07493
4002.14651,0.07507
4000.21777,0.07504
3998.28902,0.07502
3996.36028,0.07533
3994.43153,0.07575
3992.50279,0.07618
3990.57404,0.07663
3988.64530,0.07688
3986.71655,0.07702
3984.78780,0.07720
3982.85906,0.07721
3980.93031,0.07718
3979.00157,0.07743
3977.07282,0.07765
3975.14408,0.07772
3973.21533,0.07808
3971.28659,0.07868
3969.35784,0.07901
3967.42910,0.07917
3965.50035,0.07949
3963.57161,0.07976
3961.64286,0.07972
3959.71412,0.07972
3957.78537,0.08013
3955.85663,0.08075
3953.92788,0.08121
3951.99913,0.08128
3950.07039,0.08106
3948.14164,0.08091
3946.21290,0.08099
3944.28415,0.08128
3942.35541,0.08177
3940.42666,0.08233
3938.49792,0.08280
3936.56917,0.08301
3934.64043,0.08306
3932.71168,0.08325
3930.78294,0.08349
3928.85419,0.08363
3926.92545,0.08375
3924.99670,0.08386
3923.06795,0.08386
3921.13921,0.08387
3919.21046,0.08390
3917.28172,0.08386
3915.35297,0.08393
3913.42423,0.08439
3911.49548,0.08513
3909.56674,0.08572
3907.63799,0.08598
3905.70925,0.08612
3903.78050,0.08624
3901.85176,0.08619
3899.92301,0.08589
3897.99427,0.08568
3896.06552,0.08590
3894.13678,0.08625
3892.20803,0.08620
3890.27928,0.08598
3888.35054,0.08625
3886.42179,0.08662
3884.49305,0.08659
3882.56430,0.08643
3880.63556,0.08621
3878.70681,0.08610
3876.77807,0.08645
3874.84932,0.08705
3872.92058,0.08750
3870.99183,0.08742
3869.06309,0.08703
3867.13434,0.08722
3865.20560,0.08768
3863.27685,0.08771
3861.34811,0.08754
3859.41936,0.08778
3857.49061,0.08851
3855.56187,0.08893
3853.63312,0.08822
3851.70438,0.08759
3849.77563,0.08808
3847.84689,0.08889
3845.91814,0.08931
3843.98940,0.08909
3842.06065,0.08876
3840.13191,0.08894
3838.20316,0.08919
3836.27442,0.08901
3834.34567,0.08896
3832.41693,0.08921
3830.48818,0.08942
3828.55943,0.08973
3826.63069,0.09015
3824.70194,0.09047
3822.77320,0.09055
3820.84445,0.09016
3818.91571,0.08983
3816.98696,0.08984
3815.05822,0.08960
3813.12947,0.08949
3811.20073,0.08980
3809.27198,0.09005
3807.34324,0.09016
3805.41449,0.09072
3803.48575,0.09135
3801.55700,0.09109
3799.62826,0.09050
3797.69951,0.09048
3795.77076,0.09072
3793.84202,0.09108
3791.91327,0.09147
3789.98453,0.09170
3788.05578,0.09200
3786.12704,0.09235
3784.19829,0.09243
3782.26955,0.09237
3780.34080,0.09222
3778.41206,0.09204
3776.48331,0.09217
3774.55457,0.09253
3772.62582,0.09293
3770.69708,0.09331
3768.76833,0.09361
3766.83959,0.09381
3764.91084,0.09385
3762.98209,0.09384
3761.05335,0.09384
3759.12460,0.09369
3757.19586,0.09355
3755.26711,0.09356
3753.33837,0.09346
3751.40962,0.09314
3749.48088,0.09326
3747.55213,0.09429
3745.62339,0.09519
3743.69464,0.09475
3741.76590,0.09405
3739.83715,0.09419
3737.90841,0.09459
3735.97966,0.09470
3734.05091,0.09451
3732.12217,0.09439
3730.19342,0.09471
3728.26468,0.09521
3726.33593,0.09518
3724.40719,0.09472
3722.47844,0.09451
3720.54970,0.09475
3718.62095,0.09520
3716.69221,0.09557
3714.76346,0.09577
3712.83472,0.09564
3710.90597,0.09516
3708.97723,0.09489
3707.04848,0.09481
3705.11974,0.09452
3703.19099,0.09399
3701.26224,0.09358
3699.33350,0.09368
3697.40475,0.09400
3695.47601,0.09407
3693.54726,0.09396
3691.61852,0.09390
3689.68977,0.09339
3687.76103,0.09248
3685.83228,0.09218
3683.90354,0.09230
3681.97479,0.09227
3680.04605,0.09202
3678.11730,0.09150
3676.18856,0.09060
3674.25981,0.08981
3672.33107,0.08942
3670.40232,0.08865
3668.47357,0.08734
3666.54483,0.08640
3664.61608,0.08599
3662.68734,0.08560
3660.75859,0.08512
3658.82985,0.08478
3656.90110,0.08430
3654.97236,0.08359
3653.04361,0.08320
3651.11487,0.08302
3649.18612,0.08241
3647.25738,0.08142
3645.32863,0.08063
3643.39989,0.08033
3641.47114,0.08035
3639.54239,0.08025
3637.61365,0.08002
3635.68490,0.07974
3633.75616,0.07931
3631.82741,0.07881
3629.89867,0.07805
3627.96992,0.07727
3626.04118,0.07718
3624.11243,0.07712
3622.18369,0.07664
3620.25494,0.07623
3618.32620,0.07594
3616.39745,0.07571
3614.46871,0.07575
3612.53996,0.07570
3610.61122,0.07540
3608.68247,0.07519
3606.75372,0.07524
3604.82498,0.07548
3602.89623,0.07552
3600.96749,0.07492
3599.03874,0.07413
3597.11000,0.07387
3595.18125,0.07386
3593.25251,0.07359
3591.32376,0.07325
3589.39502,0.07310
3587.46627,0.07305
3585.53753,0.07294
3583.60878,0.07255
3581.68004,0.07210
3579.75129,0.07194
3577.82254,0.07189
3575.89380,0.07159
3573.96505,0.07099
3572.03631,0.07040
3570.10756,0.07015
3568.17882,0.07020
3566.25007,0.07022
3564.32133,0.06992
3562.39258,0.06933
3560.46384,0.06869
3558.53509,0.06819
3556.60635,0.06804
3554.67760,0.06806
3552.74886,0.06786
3550.82011,0.06747
3548.89137,0.06709
3546.96262,0.06674
3545.03387,0.06636
3543.10513,0.06596
3541.17638,0.06575
3539.24764,0.06571
3537.31889,0.06559
3535.39015,0.06517
3533.46140,0.06456
3531.53266,0.06416
3529.60391,0.06410
3527.67517,0.06403
3525.74642,0.06371
3523.81768,0.06341
3521.88893,0.06345
3519.96019,0.06335
3518.03144,0.06279
3516.10270,0.06236
3514.17395,0.06245
3512.24520,0.06258
3510.31646,0.06231
3508.38771,0.06176
3506.45897,0.06119
3504.53022,0.06074
3502.60148,0.06053
3500.67273,0.06048
3498.74399,0.06041
3496.81524,0.06033
3494.88650,0.06025
3492.95775,0.06006
3491.02901,0.05978
3489.10026,0.05957
3487.17152,0.05945
3485.24277,0.05900
3483.31402,0.05819
3481.38528,0.05750
3479.45653,0.05705
3477.52779,0.05668
3475.59904,0.05632
3473.67030,0.05588
3471.74155,0.05541
3469.81281,0.05507
3467.88406,0.05462
3465.95532,0.05382
3464.02657,0.05295
3462.09783,0.05244
3460.16908,0.05217
3458.24034,0.05172
3456.31159,0.05111
3454.38285,0.05055
3452.45410,0.05008
3450.52535,0.04983
3448.59661,0.04987
3446.66786,0.04984
3444.73912,0.04953
3442.81037,0.04915
3440.88163,0.04902
3438.95288,0.04891
3437.02414,0.04845
3435.09539,0.04782
3433.16665,0.04730
3431.23790,0.04671
3429.30916,0.04596
3427.38041,0.04524
3425.45167,0.04465
3423.52292,0.04413
3421.59418,0.04368
3419.66543,0.04314
3417.73668,0.04235
3415.80794,0.04154
3413.87919,0.04087
3411.95045,0.04024
3410.02170,0.03959
3408.09296,0.03888
3406.16421,0.03814
3404.23547,0.03766
3402.30672,0.03763
3400.37798,0.03771
3398.44923,0.03739
3396.52049,0.03664
3394.59174,0.03579
3392.66300,0.03504
3390.73425,0.03450
3388.80550,0.03422
3386.87676,0.03412
3384.94801,0.03397
3383.01927,0.03368
3381.09052,0.03326
3379.16178,0.03264
3377.23303,0.03211
3375.30429,0.03187
3373.37554,0.03166
3371.44680,0.03160
3369.51805,0.03181
3367.58931,0.03179
3365.66056,0.03129
3363.73182,0.03076
3361.80307,0.03066
3359.87433,0.03081
3357.94558,0.03082
3356.01683,0.03061
3354.08809,0.03038
3352.15934,0.03038
3350.23060,0.03059
3348.30185,0.03079
3346.37311,0.03094
3344.44436,0.03092
3342.51562,0.03066
3340.58687,0.03034
3338.65813,0.03011
3336.72938,0.03011
3334.80064,0.03034
3332.87189,0.03028
3330.94315,0.02986
3329.01440,0.02962
3327.08566,0.02981
3325.15691,0.03008
3323.22816,0.03005
3321.29942,0.02962
3319.37067,0.02915
3317.44193,0.02901
3315.51318,0.02912
3313.58444,0.02906
3311.65569,0.02884
3309.72695,0.02887
3307.79820,0.02917
3305.86946,0.02936
3303.94071,0.02932
3302.01197,0.02931
3300.08322,0.02939
3298.15448,0.02937
3296.22573,0.02922
3294.29698,0.02902
3292.36824,0.02888
3290.43949,0.02893
3288.51075,0.02925
3286.58200,0.02959
3284.65326,0.02969
3282.72451,0.02973
3280.79577,0.02987
3278.86702,0.02994
3276.93828,0.02986
3275.00953,0.02988
3273.08079,0.03017
3271.15204,0.03040
3269.22330,0.03032
3267.29455,0.03026
3265.36581,0.03032
3263.43706,0.03033
3261.50831,0.03051
3259.57957,0.03103
3257.65082,0.03160
3255.72208,0.03196
3253.79333,0.03214
3251.86459,0.03220
3249.93584,0.03219
3248.00710,0.03223
3246.07835,0.03227
3244.14961,0.03229
3242.22086,0.03247
3240.29212,0.03272
3238.36337,0.03293
3236.43463,0.03328
3234.50588,0.03380
3232.57713,0.03425
3230.64839,0.03445
3228.71964,0.03463
3226.79090,0.03491
3224.86215,0.03520
3222.93341,0.03546
3221.00466,0.03551
3219.07592,0.03536
3217.14717,0.03531
3215.21843,0.03540
3213.28968,0.03546
3211.36094,0.03553
3209.43219,0.03586
3207.50345,0.03622
3205.57470,0.03626
3203.64596,0.03613
3201.71721,0.03607
3199.78846,0.03628
3197.85972,0.03660
3195.93097,0.03672
3194.00223,0.03659
3192.07348,0.03652
3190.14474,0.03677
3188.21599,0.03706
3186.28725,0.03724
3184.35850,0.03755
3182.42976,0.03779
3180.50101,0.03784
3178.57227,0.03805
3176.64352,0.03849
3174.71478,0.03892
3172.78603,0.03935
3170.85729,0.03969
3168.92854,0.03977
3166.99979,0.03969
3165.07105,0.03971
3163.14230,0.03993
3161.21356,0.04013
3159.28481,0.04020
3157.35607,0.04026
3155.42732,0.04041
3153.49858,0.04072
3151.56983,0.04100
3149.64109,0.04078
3147.71234,0.04030
3145.78360,0.04015
3143.85485,0.04023
3141.92611,0.04021
3139.99736,0.04027
3138.06861,0.04058
3136.13987,0.04079
3134.21112,0.04066
3132.28238,0.04052
3130.35363,0.04045
3128.42489,0.04016
3126.49614,0.03996
3124.56740,0.04018
3122.63865,0.04043
3120.70991,0.04054
3118.78116,0.04072
3116.85242,0.04082
3114.92367,0.04063
3112.99493,0.04032
3111.06618,0.04017
3109.13744,0.03997
3107.20869,0.03955
3105.27994,0.03937
3103.35120,0.03982
3101.42245,0.04049
3099.49371,0.04067
3097.56496,0.04027
3095.63622,0.03981
3093.70747,0.03953
3091.77873,0.03926
3089.84998,0.03886
3087.92124,0.03834
3085.99249,0.03788
3084.06375,0.03774
3082.13500,0.03789
3080.20626,0.03802
3078.27751,0.03807
3076.34877,0.03805
3074.42002,0.03783
3072.49127,0.03751
3070.56253,0.03727
3068.63378,0.03711
3066.70504,0.03696
3064.77629,0.03688
3062.84755,0.03684
3060.91880,0.03664
3058.99006,0.03638
3057.06131,0.03632
3055.13257,0.03653
3053.20382,0.03698
3051.27508,0.03746
3049.34633,0.03764
3047.41759,0.03753
3045.48884,0.03733
3043.56009,0.03715
3041.63135,0.03695
3039.70260,0.03659
3037.77386,0.03610
3035.84511,0.03568
3033.91637,0.03532
3031.98762,0.03503
3030.05888,0.03483
3028.13013,0.03474
3026.20139,0.03494
3024.27264,0.03543
3022.34390,0.03588
3020.41515,0.03607
3018.48641,0.03620
3016.55766,0.03639
3014.62892,0.03651
3012.70017,0.03645
3010.77142,0.03612
3008.84268,0.03560
3006.91393,0.03511
3004.98519,0.03450
3003.05644,0.03365
3001.12770,0.03285
2999.19895,0.03240
2997.27021,0.03219
2995.34146,0.03190
2993.41272,0.03138
2991.48397,0.03068
2989.55523,0.03000
2987.62648,0.02953
2985.69774,0.02918
2983.76899,0.02883
2981.84025,0.02858
2979.91150,0.02835
2977.98275,0.02801
2976.05401,0.02773
2974.12526,0.02751
2972.19652,0.02725
2970.26777,0.02711
2968.33903,0.02709
2966.41028,0.02712
2964.48154,0.02737
2962.55279,0.02772
2960.62405,0.02789
2958.69530,0.02795
2956.76656,0.02808
2954.83781,0.02820
2952.90907,0.02814
2950.98032,0.02803
2949.05157,0.02806
2947.12283,0.02810
2945.19408,0.02788
2943.26534,0.02744
2941.33659,0.02704
2939.40785,0.02679
2937.47910,0.02664
2935.55036,0.02664
2933.62161,0.02683
2931.69287,0.02705
2929.76412,0.02699
2927.83538,0.02688
2925.90663,0.02710
2923.97789,0.02746
2922.04914,0.02764
2920.12040,0.02759
2918.19165,0.02748
2916.26290,0.02741
2914.33416,0.02736
2912.40541,0.02734
2910.47667,0.02727
2908.54792,0.02725
2906.61918,0.02750
2904.69043,0.02786
2902.76169,0.02809
2900.83294,0.02815
2898.90420,0.02819
2896.97545,0.02838
2895.04671,0.02859
2893.11796,0.02861
2891.18922,0.02858
2889.26047,0.02859
2887.33172,0.02858
2885.40298,0.02858
2883.47423,0.02853
2881.54549,0.02832
2879.61674,0.02812
2877.68800,0.02807
2875.75925,0.02820
2873.83051,0.02846
2871.90176,0.02865
2869.97302,0.02864
2868.04427,0.02870
2866.11553,0.02897
2864.18678,0.02927
2862.25804,0.02939
2860.32929,0.02939
2858.40055,0.02948
2856.47180,0.02968
2854.54305,0.03000
2852.61431,0.03049
2850.68556,0.03103
2848.75682,0.03134
2846.82807,0.03153
2844.89933,0.03202
2842.97058,0.03287
2841.04184,0.03382
2839.11309,0.03456
2837.18435,0.03502
2835.25560,0.03541
2833.32686,0.03585
2831.39811,0.03639
2829.46937,0.03700
2827.54062,0.03764
2825.61188,0.03821
2823.68313,0.03873
2821.75438,0.03928
2819.82564,0.03981
2817.89689,0.04022
2815.96815,0.04053
2814.03940,0.04080
2812.11066,0.04114
2810.18191,0.04160
2808.25317,0.04219
2806.32442,0.04268
2804.39568,0.04288
2802.46693,0.04289
2800.53819,0.04290
2798.60944,0.04300
2796.68070,0.04318
2794.75195,0.04335
2792.82320,0.04349
2790.89446,0.04365
2788.96571,0.04381
2787.03697,0.04398
2785.10822,0.04426
2783.17948,0.04467
2781.25073,0.04516
2779.32199,0.04573
2777.39324,0.04628
2775.46450,0.04656
2773.53575,0.04661
2771.60701,0.04671
2769.67826,0.04699
2767.74952,0.04729
2765.82077,0.04751
2763.89203,0.04766
2761.96328,0.04777
2760.03453,0.04792
2758.10579,0.04818
2756.17704,0.04850
2754.24830,0.04878
2752.31955,0.04903
2750.39081,0.04930
2748.46206,0.04955
2746.53332,0.04969
2744.60457,0.04983
2742.67583,0.05003
2740.74708,0.05016
2738.81834,0.05018
2736.88959,0.05042
2734.96085,0.05088
2733.03210,0.05127
2731.10336,0.05155
2729.17461,0.05189
2727.24586,0.05230
2725.31712,0.05273
2723.38837,0.05329
2721.45963,0.05393
2719.53088,0.05447
2717.60214,0.05487
2715.67339,0.05523
2713.74465,0.05574
2711.81590,0.05644
2709.88716,0.05707
2707.95841,0.05743
2706.02967,0.05764
2704.10092,0.05795
2702.17218,0.05845
2700.24343,0.05908
2698.31468,0.05976
2696.38594,0.06050
2694.45719,0.06116
2692.52845,0.06161
2690.59970,0.06193
2688.67096,0.06220
2686.74221,0.06245
2684.81347,0.06279
2682.88472,0.06321
2680.95598,0.06353
2679.02723,0.06386
2677.09849,0.06428
2675.16974,0.06460
2673.24100,0.06487
2671.31225,0.06520
2669.38351,0.06552
2667.45476,0.06578
2665.52601,0.06606
2663.59727,0.06637
2661.66852,0.06664
2659.73978,0.06681
2657.81103,0.06688
2655.88229,0.06698
2653.95354,0.06720
2652.02480,0.06747
2650.09605,0.06771
2648.16731,0.06789
2646.23856,0.06793
2644.30982,0.06793
2642.38107,0.06819
2640.45233,0.06863
2638.52358,0.06888
2636.59484,0.06891
2634.66609,0.06895
2632.73734,0.06918
2630.80860,0.06957
2628.87985,0.07004
2626.95111,0.07043
2625.02236,0.07062
2623.09362,0.07078
2621.16487,0.07108
2619.23613,0.07142
2617.30738,0.07168
2615.37864,0.07184
2613.44989,0.07188
2611.52115,0.07185
2609.59240,0.07174
2607.66366,0.07152
2605.73491,0.07127
2603.80616,0.07116
2601.87742,0.07116
2599.94867,0.07099
2598.01993,0.07074
2596.09118,0.07070
2594.16244,0.07081
2592.23369,0.07081
2590.30495,0.07073
2588.37620,0.07077
2586.44746,0.07087
2584.51871,0.07087
2582.58997,0.07088
2580.66122,0.07110
2578.73248,0.07159
2576.80373,0.07217
2574.87499,0.07268
2572.94624,0.07305
2571.01749,0.07338
2569.08875,0.07373
2567.16000,0.07407
2565.23126,0.07434
2563.30251,0.07465
2561.37377,0.07495
2559.44502,0.07521
2557.51628,0.07553
2555.58753,0.07579
2553.65879,0.07593
2551.73004,0.07613
2549.80130,0.07647
2547.87255,0.07675
2545.94381,0.07675
2544.01506,0.07660
2542.08631,0.07656
2540.15757,0.07666
2538.22882,0.07686
2536.30008,0.07711
2534.37133,0.07733
2532.44259,0.07746
2530.51384,0.07756
2528.58510,0.07769
2526.65635,0.07787
2524.72761,0.07801
2522.79886,0.07798
2520.87012,0.07790
2518.94137,0.07810
2517.01263,0.07842
2515.08388,0.07845
2513.15514,0.07834
2511.22639,0.07841
2509.29764,0.07860
2507.36890,0.07872
2505.44015,0.07865
2503.51141,0.07850
2501.58266,0.07842
2499.65392,0.07837
2497.72517,0.07832
2495.79643,0.07841
2493.86768,0.07877
2491.93894,0.07918
2490.01019,0.07937
2488.08145,0.07937
2486.15270,0.07939
2484.22396,0.07960
2482.29521,0.07990
2480.36647,0.08020
2478.43772,0.08038
2476.50897,0.08032
2474.58023,0.08026
2472.65148,0.08054
2470.72274,0.08097
2468.79399,0.08113
2466.86525,0.08118
2464.93650,0.08145
2463.00776,0.08176
2461.07901,0.08181
2459.15027,0.08169
2457.22152,0.08165
2455.29278,0.08176
2453.36403,0.08189
2451.43529,0.08194
2449.50654,0.08195
2447.57779,0.08215
2445.64905,0.08260
2443.72030,0.08300
2441.79156,0.08314
2439.86281,0.08301
2437.93407,0.08285
2436.00532,0.08294
2434.07658,0.08330
2432.14783,0.08357
2430.21909,0.08357
2428.29034,0.08358
2426.36160,0.08367
2424.43285,0.08364
2422.50411,0.08354
2420.57536,0.08351
2418.64662,0.08345
2416.71787,0.08333
2414.78912,0.08331
2412.86038,0.08340
2410.93163,0.08339
2409.00289,0.08323
2407.07414,0.08310
2405.14540,0.08301
2403.21665,0.08298
2401.28791,0.08308
2399.35916,0.08305
2397.43042,0.08277
2395.50167,0.08253
2393.57293,0.08250
2391.64418,0.08259
2389.71544,0.08277
2387.78669,0.08290
2385.85795,0.08280
2383.92920,0.08249
2382.00045,0.08223
2380.07171,0.08221
2378.14296,0.08231
2376.21422,0.08223
2374.28547,0.08200
2372.35673,0.08182
2370.42798,0.08152
2368.49924,0.08121
2366.57049,0.08125
2364.64175,0.08151
2362.71300,0.08158
2360.78426,0.08138
2358.85551,0.08124
2356.92677,0.08124
2354.99802,0.08113
2353.06927,0.08089
2351.14053,0.08074
2349.21178,0.08069
2347.28304,0.08059
2345.35429,0.08047
2343.42555,0.08042
2341.49680,0.08028
2339.56806,0.08009
2337.63931,0.08013
2335.71057,0.08036
2333.78182,0.08054
2331.85308,0.08065
2329.92433,0.08069
2327.99559,0.08066
2326.06684,0.08053
2324.13810,0.08016
2322.20935,0.07960
2320.28060,0.07929
2318.35186,0.07919
2316.42311,0.07899
2314.49437,0.07880
2312.56562,0.07873
2310.63688,0.07863
2308.70813,0.07848
2306.77939,0.07832
2304.85064,0.07809
2302.92190,0.07774
2300.99315,0.07732
2299.06441,0.07692
2297.13566,0.07646
2295.20692,0.07601
2293.27817,0.07566
2291.34943,0.07535
2289.42068,0.07494
2287.49193,0.07444
2285.56319,0.07399
2283.63444,0.07372
2281.70570,0.07357
2279.77695,0.07326
2277.84821,0.07278
2275.91946,0.07241
2273.99072,0.07225
2272.06197,0.07218
2270.13323,0.07215
2268.20448,0.07219
2266.27574,0.07231
2264.34699,0.07243
2262.41825,0.07255
2260.48950,0.07272
2258.56075,0.07282
2256.63201,0.07278
2254.70326,0.07256
2252.77452,0.07210
2250.84577,0.07136
2248.91703,0.07024
2246.98828,0.06864
2245.05954,0.06660
2243.13079,0.06439
2241.20205,0.06260
2239.27330,0.06162
2237.34456,0.06151
2235.41581,0.06244
2233.48707,0.06456
2231.55832,0.06763
2229.62958,0.07088
2227.70083,0.07350
2225.77208,0.07523
2223.84334,0.07635
2221.91459,0.07702
2219.98585,0.07730
2218.05710,0.07756
2216.12836,0.07805
2214.19961,0.07843
2212.27087,0.07850
2210.34212,0.07857
2208.41338,0.07885
2206.48463,0.07913
2204.55589,0.07927
2202.62714,0.07941
2200.69840,0.07967
2198.76965,0.07993
2196.84090,0.08002
2194.91216,0.07989
2192.98341,0.07966
2191.05467,0.07957
2189.12592,0.07965
2187.19718,0.07971
2185.26843,0.07982
2183.33969,0.08007
2181.41094,0.08032
2179.48220,0.08047
2177.55345,0.08063
2175.62471,0.08087
2173.69596,0.08098
2171.76722,0.08082
2169.83847,0.08064
2167.90973,0.08068
2165.98098,0.08074
2164.05223,0.08075
2162.12349,0.08089
2160.19474,0.08100
2158.26600,0.08082
2156.33725,0.08069
2154.40851,0.08094
2152.47976,0.08124
2150.55102,0.08122
2148.62227,0.08103
2146.69353,0.08097
2144.76478,0.08119
2142.83604,0.08152
2140.90729,0.08166
2138.97855,0.08155
2137.04980,0.08143
2135.12106,0.08140
2133.19231,0.08140
2131.26356,0.08129
2129.33482,0.08110
2127.40607,0.08101
2125.47733,0.08110
2123.54858,0.08121
2121.61984,0.08125
2119.69109,0.08126
2117.76235,0.08122
2115.83360,0.08118
2113.90486,0.08111
2111.97611,0.08089
2110.04737,0.08067
2108.11862,0.08073
2106.18988,0.08097
2104.26113,0.08105
2102.33238,0.08084
2100.40364,0.08054
2098.47489,0.08039
2096.54615,0.08030
2094.61740,0.08018
2092.68866,0.08012
2090.75991,0.08005
2088.83117,0.07994
2086.90242,0.07983
2084.97368,0.07974
2083.04493,0.07959
2081.11619,0.07931
2079.18744,0.07898
2077.25870,0.07888
2075.32995,0.07898
2073.40121,0.07906
2071.47246,0.07901
2069.54371,0.07887
2067.61497,0.07880
2065.68622,0.07882
2063.75748,0.07869
2061.82873,0.07833
2059.89999,0.07805
2057.97124,0.07797
2056.04250,0.07794
2054.11375,0.07799
2052.18501,0.07807
2050.25626,0.07794
2048.32752,0.07762
2046.39877,0.07737
2044.47003,0.07729
2042.54128,0.07729
2040.61254,0.07718
2038.68379,0.07688
2036.75504,0.07659
2034.82630,0.07642
2032.89755,0.07616
2030.96881,0.07582
2029.04006,0.07560
2027.11132,0.07545
2025.18257,0.07524
2023.25383,0.07506
2021.32508,0.07506
2019.39634,0.07499
2017.46759,0.07470
2015.53885,0.07444
2013.61010,0.07431
2011.68136,0.07414
2009.75261,0.07391
2007.82386,0.07377
2005.89512,0.07376
2003.96637,0.07372
2002.03763,0.07361
2000.10888,0.07348
1998.18014,0.07330
1996.25139,0.07306
1994.32265,0.07277
1992.39390,0.07239
1990.46516,0.07202
1988.53641,0.07184
1986.60767,0.07188
1984.67892,0.07200
1982.75018,0.07200
1980.82143,0.07184
1978.89269,0.07158
1976.96394,0.07125
1975.03519,0.07092
1973.10645,0.07061
1971.17770,0.07034
1969.24896,0.07011
1967.32021,0.06999
1965.39147,0.06994
1963.46272,0.06975
1961.53398,0.06944
1959.60523,0.06920
1957.67649,0.06896
1955.74774,0.06862
1953.81900,0.06825
1951.89025,0.06808
1949.96151,0.06831
1948.03276,0.06876
1946.10402,0.06906
1944.17527,0.06923
1942.24652,0.06957
1940.31778,0.07002
1938.38903,0.07031
1936.46029,0.07048
1934.53154,0.07075
1932.60280,0.07108
1930.67405,0.07130
1928.74531,0.07139
1926.81656,0.07131
1924.88782,0.07113
1922.95907,0.07098
1921.03033,0.07094
1919.10158,0.07087
1917.17284,0.07068
1915.24409,0.07055
1913.31534,0.07051
1911.38660,0.07034
1909.45785,0.07014
1907.52911,0.07008
1905.60036,0.06999
1903.67162,0.06965
1901.74287,0.06925
1899.81413,0.06903
1897.88538,0.06889
1895.95664,0.06863
1894.02789,0.06843
1892.09915,0.06836
1890.17040,0.06818
1888.24166,0.06789
1886.31291,0.06770
1884.38417,0.06767
1882.45542,0.06778
1880.52667,0.06794
1878.59793,0.06806
1876.66918,0.06814
1874.74044,0.06829
1872.81169,0.06857
1870.88295,0.06896
1868.95420,0.06938
1867.02546,0.06981
1865.09671,0.07024
1863.16797,0.07045
1861.23922,0.07045
1859.31048,0.07047
1857.38173,0.07055
1855.45299,0.07049
1853.52424,0.07019
1851.59549,0.06984
1849.66675,0.06958
1847.73800,0.06938
1845.80926,0.06908
1843.88051,0.06859
1841.95177,0.06809
1840.02302,0.06764
1838.09428,0.06704
1836.16553,0.06636
1834.23679,0.06576
1832.30804,0.06524
1830.37930,0.06458
1828.45055,0.06373
1826.52181,0.06300
1824.59306,0.06244
1822.66432,0.06183
1820.73557,0.06115
1818.80682,0.06041
1816.87808,0.05955
1814.94933,0.05878
1813.02059,0.05833
1811.09184,0.05792
1809.16310,0.05726
1807.23435,0.05654
1805.30561,0.05600
1803.37686,0.05570
1801.44812,0.05545
1799.51937,0.05505
1797.59063,0.05467
1795.66188,0.05446
1793.73314,0.05416
1791.80439,0.05350
1789.87565,0.05269
1787.94690,0.05203
1786.01815,0.05144
1784.08941,0.05084
1782.16066,0.05028
1780.23192,0.04965
1778.30317,0.04896
1776.37443,0.04819
1774.44568,0.04722
1772.51694,0.04618
1770.58819,0.04542
1768.65945,0.04478
1766.73070,0.04381
1764.80196,0.04261
1762.87321,0.04144
1760.94447,0.04028
1759.01572,0.03902
1757.08697,0.03752
1755.15823,0.03594
1753.22948,0.03431
1751.30074,0.03243
1749.37199,0.03056
1747.44325,0.02919
1745.51450,0.02818
1743.58576,0.02728
1741.65701,0.02645
1739.72827,0.02585
1737.79952,0.02572
1735.87078,0.02604
1733.94203,0.02640
1732.01329,0.02656
1730.08454,0.02665
1728.15580,0.02669
1726.22705,0.02668
1724.29830,0.02683
1722.36956,0.02724
1720.44081,0.02765
1718.51207,0.02772
1716.58332,0.02750
1714.65458,0.02736
1712.72583,0.02743
1710.79709,0.02761
1708.86834,0.02770
1706.93960,0.02771
1705.01085,0.02782
1703.08211,0.02801
1701.15336,0.02802
1699.22462,0.02773
1697.29587,0.02739
1695.36713,0.02725
1693.43838,0.02745
1691.50963,0.02768
1689.58089,0.02766
1687.65214,0.02763
1685.72340,0.02782
1683.79465,0.02787
1681.86591,0.02760
1679.93716,0.02746
1678.00842,0.02740
1676.07967,0.02718
1674.15093,0.02703
1672.22218,0.02708
1670.29344,0.02701
1668.36469,0.02679
1666.43595,0.02683
1664.50720,0.02703
1662.57845,0.02704
1660.64971,0.02687
1658.72096,0.02678
1656.79222,0.02681
1654.86347,0.02672
1652.93473,0.02623
1651.00598,0.02593
1649.07724,0.02606
1647.14849,0.02631
1645.21975,0.02653
1643.29100,0.02663
1641.36226,0.02670
1639.43351,0.02701
1637.50477,0.02749
1635.57602,0.02785
1633.64728,0.02806
1631.71853,0.02826
1629.78978,0.02852
1627.86104,0.02873
1625.93229,0.02873
1624.00355,0.02851
1622.07480,0.02817
1620.14606,0.02794
1618.21731,0.02780
1616.28857,0.02753
1614.35982,0.02718
1612.43108,0.02689
1610.50233,0.02654
1608.57359,0.02616
1606.64484,0.02590
1604.71610,0.02578
1602.78735,0.02570
1600.85861,0.02572
1598.92986,0.02586
1597.00111,0.02602
1595.07237,0.02619
1593.14362,0.02650
1591.21488,0.02687
1589.28613,0.02703
1587.35739,0.02716
1585.42864,0.02752
1583.49990,0.02790
1581.57115,0.02812
1579.64241,0.02824
1577.71366,0.02813
1575.78492,0.02756
1573.85617,0.02689
1571.92743,0.02639
1569.99868,0.02584
1568.06993,0.02529
1566.14119,0.02498
1564.21244,0.02480
1562.28370,0.02470
1560.35495,0.02459
1558.42621,0.02425
1556.49746,0.02390
1554.56872,0.02387
1552.63997,0.02404
1550.71123,0.02421
1548.78248,0.02433
1546.85374,0.02466
1544.92499,0.02525
1542.99625,0.02573
1541.06750,0.02577
1539.13876,0.02569
1537.21001,0.02590
1535.28126,0.02619
1533.35252,0.02637
1531.42377,0.02652
1529.49503,0.02673
1527.56628,0.02694
1525.63754,0.02716
1523.70879,0.02744
1521.78005,0.02758
1519.85130,0.02759
1517.92256,0.02761
1515.99381,0.02758
1514.06507,0.02754
1512.13632,0.02753
1510.20758,0.02755
1508.27883,0.02767
1506.35008,0.02793
1504.42134,0.02832
1502.49259,0.02875
1500.56385,0.02911
1498.63510,0.02932
1496.70636,0.02926
1494.77761,0.02902
1492.84887,0.02908
1490.92012,0.02946
1488.99138,0.02965
1487.06263,0.02949
1485.13389,0.02929
1483.20514,0.02915
1481.27640,0.02893
1479.34765,0.02861
1477.41891,0.02835
1475.49016,0.02832
1473.56141,0.02834
1471.63267,0.02814
1469.70392,0.02799
1467.77518,0.02800
1465.84643,0.02791
1463.91769,0.02770
1461.98894,0.02751
1460.06020,0.02732
1458.13145,0.02702
1456.20271,0.02669
1454.27396,0.02666
1452.34522,0.02695
1450.41647,0.02737
1448.48773,0.02777
1446.55898,0.02812
1444.63024,0.02842
1442.70149,0.02868
1440.77274,0.02894
1438.84400,0.02927
1436.91525,0.02964
1434.98651,0.03000
1433.05776,0.03031
1431.12902,0.03042
1429.20027,0.03027
1427.27153,0.03006
1425.34278,0.02985
1423.41404,0.02968
1421.48529,0.02952
1419.55655,0.02917
1417.62780,0.02871
1415.69906,0.02843
1413.77031,0.02834
1411.84156,0.02836
1409.91282,0.02865
1407.98407,0.02914
1406.05533,0.02943
1404.12658,0.02935
1402.19784,0.02925
1400.26909,0.02934
1398.34035,0.02938
1396.41160,0.02924
1394.48286,0.02904
1392.55411,0.02891
1390.62537,0.02879
1388.69662,0.02858
1386.76788,0.02828
1384.83913,0.02795
1382.91039,0.02761
1380.98164,0.02729
1379.05289,0.02695
1377.12415,0.02669
1375.19540,0.02683
1373.26666,0.02731
1371.33791,0.02778
1369.40917,0.02818
1367.48042,0.02867
1365.55168,0.02923
1363.62293,0.02966
1361.69419,0.02980
1359.76544,0.02966
1357.83670,0.02939
1355.90795,0.02913
1353.97921,0.02894
1352.05046,0.02881
1350.12172,0.02860
1348.19297,0.02826
1346.26422,0.02804
1344.33548,0.02803
1342.40673,0.02814
1340.47799,0.02830
1338.54924,0.02841
1336.62050,0.02842
1334.69175,0.02835
1332.76301,0.02820
1330.83426,0.02802
1328.90552,0.02786
1326.97677,0.02765
1325.04803,0.02746
1323.11928,0.02732
1321.19054,0.02705
1319.26179,0.02662
1317.33304,0.02627
1315.40430,0.02619
1313.47555,0.02632
1311.54681,0.02641
1309.61806,0.02626
1307.68932,0.02601
1305.76057,0.02598
1303.83183,0.02607
1301.90308,0.02603
1299.97434,0.02601
1298.04559,0.02615
1296.11685,0.02633
1294.18810,0.02640
1292.25936,0.02635
1290.33061,0.02632
1288.40187,0.02643
1286.47312,0.02661
1284.54437,0.02671
1282.61563,0.02666
1280.68688,0.02666
1278.75814,0.02671
1276.82939,0.02662
1274.90065,0.02641
1272.97190,0.02628
1271.04316,0.02629
1269.11441,0.02626
1267.18567,0.02613
1265.25692,0.02602
1263.32818,0.02596
1261.39943,0.02595
1259.47069,0.02595
1257.54194,0.02586
1255.61320,0.02576
1253.68445,0.02573
1251.75570,0.02572
1249.82696,0.02573
1247.89821,0.02571
1245.96947,0.02553
1244.04072,0.02523
1242.11198,0.02503
1240.18323,0.02502
1238.25449,0.02502
1236.32574,0.02506
1234.39700,0.02532
1232.46825,0.02565
1230.53951,0.02588
1228.61076,0.02612
1226.68202,0.02637
1224.75327,0.02645
1222.82452,0.02650
1220.89578,0.02658
1218.96703,0.02666
1217.03829,0.02693
1215.10954,0.02728
1213.18080,0.02745
1211.25205,0.02761
1209.32331,0.02790
1207.39456,0.02798
1205.46582,0.02768
1203.53707,0.02730
1201.60833,0.02721
1199.67958,0.02746
1197.75084,0.02770
1195.82209,0.02776
1193.89335,0.02774
1191.96460,0.02765
1190.03585,0.02754
1188.10711,0.02752
1186.17836,0.02757
1184.24962,0.02753
1182.32087,0.02731
1180.39213,0.02705
1178.46338,0.02682
1176.53464,0.02653
1174.60589,0.02623
1172.67715,0.02618
1170.74840,0.02624
1168.81966,0.02609
1166.89091,0.02593
1164.96217,0.02604
1163.03342,0.02609
1161.10467,0.02582
1159.17593,0.02554
1157.24718,0.02554
1155.31844,0.02551
1153.38969,0.02522
1151.46095,0.02479
1149.53220,0.02442
1147.60346,0.02438
1145.67471,0.02469
1143.74597,0.02496
1141.81722,0.02506
1139.88848,0.02510
1137.95973,0.02513
1136.03099,0.02513
1134.10224,0.02507
1132.17350,0.02509
1130.24475,0.02534
1128.31600,0.02567
1126.38726,0.02588
1124.45851,0.02604
1122.52977,0.02641
1120.60102,0.02688
1118.67228,0.02712
1116.74353,0.02713
1114.81479,0.02724
1112.88604,0.02767
1110.95730,0.02823
1109.02855,0.02876
1107.09981,0.02907
1105.17106,0.02901
1103.24232,0.02880
1101.31357,0.02871
1099.38483,0.02873
1097.45608,0.02877
1095.52733,0.02903
1093.59859,0.02970
1091.66984,0.03032
1089.74110,0.03045
1087.81235,0.03023
1085.88361,0.03013
1083.95486,0.03027
1082.02612,0.03032
1080.09737,0.03041
1078.16863,0.03072
1076.23988,0.03094
1074.31114,0.03087
1072.38239,0.03080
1070.45365,0.03103
1068.52490,0.03148
1066.59615,0.03170
1064.66741,0.03150
1062.73866,0.03122
1060.80992,0.03140
1058.88117,0.03216
1056.95243,0.03286
1055.02368,0.03288
1053.09494,0.03237
1051.16619,0.03204
1049.23745,0.03231
1047.30870,0.03271
1045.37996,0.03276
1043.45121,0.03283
1041.52247,0.03304
1039.59372,0.03300
1037.66498,0.03283
1035.73623,0.03282
1033.80748,0.03271
1031.87874,0.03238
1029.94999,0.03227
1028.02125,0.03257
1026.09250,0.03289
1024.16376,0.03290
1022.23501,0.03271
1020.30627,0.03261
1018.37752,0.03264
1016.44878,0.03281
1014.52003,0.03312
1012.59129,0.03341
1010.66254,0.03347
1008.73380,0.03355
1006.80505,0.03381
1004.87631,0.03379
1002.94756,0.03349
1001.01881,0.03345
999.09007,0.03384
997.16132,0.03456
995.23258,0.03527
993.30383,0.03565
991.37509,0.03591
989.44634,0.03640
987.51760,0.03704
985.58885,0.03750
983.66011,0.03773
981.73136,0.03780
979.80262,0.03778
977.87387,0.03771
975.94513,0.03753
974.01638,0.03733
972.08763,0.03733
970.15889,0.03741
968.23014,0.03733
966.30140,0.03718
964.37265,0.03723
962.44391,0.03741
960.51516,0.03754
958.58642,0.03761
956.65767,0.03783
954.72893,0.03832
952.80018,0.03882
950.87144,0.03907
948.94269,0.03907
947.01395,0.03881
945.08520,0.03820
943.15646,0.03739
941.22771,0.03679
939.29896,0.03657
937.37022,0.03640
935.44147,0.03602
933.51273,0.03557
931.58398,0.03527
929.65524,0.03530
927.72649,0.03553
925.79775,0.03572
923.86900,0.03597
921.94026,0.03635
920.01151,0.03657
918.08277,0.03643
916.15402,0.03608
914.22528,0.03602
912.29653,0.03650
910.36779,0.03720
908.43904,0.03758
906.51029,0.03766
904.58155,0.03794
902.65280,0.03845
900.72406,0.03887
898.79531,0.03932
896.86657,0.03992
894.93782,0.04034
893.00908,0.04045
891.08033,0.04014
889.15159,0.03936
887.22284,0.03855
885.29410,0.03798
883.36535,0.03761
881.43661,0.03735
879.50786,0.03683
877.57911,0.03604
875.65037,0.03559
873.72162,0.03585
871.79288,0.03628
869.86413,0.03634
867.93539,0.03618
866.00664,0.03606
864.07790,0.03611
862.14915,0.03636
860.22041,0.03667
858.29166,0.03698
856.36292,0.03719
854.43417,0.03719
852.50543,0.03730
850.57668,0.03763
848.64794,0.03762
846.71919,0.03735
844.79044,0.03748
842.86170,0.03787
840.93295,0.03795
839.00421,0.03774
837.07546,0.03746
835.14672,0.03728
833.21797,0.03714
831.28923,0.03682
829.36048,0.03633
827.43174,0.03572
825.50299,0.03505
823.57425,0.03459
821.64550,0.03444
819.71676,0.03454
817.78801,0.03450
815.85926,0.03418
813.93052,0.03406
812.00177,0.03432
810.07303,0.03472
808.14428,0.03531
806.21554,0.03602
804.28679,0.03656
802.35805,0.03690
800.42930,0.03720
798.50056,0.03749
796.57181,0.03764
794.64307,0.03751
792.71432,0.03729
790.78558,0.03727
788.85683,0.03733
786.92809,0.03719
784.99934,0.03668
783.07059,0.03593
781.14185,0.03533
779.21310,0.03490
777.28436,0.03435
775.35561,0.03369
773.42687,0.03311
771.49812,0.03273
769.56938,0.03252
767.64063,0.03223
765.71189,0.03163
763.78314,0.03098
761.85440,0.03078
759.92565,0.03098
757.99691,0.03135
756.06816,0.03197
754.13942,0.03299
752.21067,0.03413
750.28192,0.03510
748.35318,0.03585
746.42443,0.03633
744.49569,0.03663
742.56694,0.03693
740.63820,0.03718
738.70945,0.03719
736.78071,0.03718
734.85196,0.03755
732.92322,0.03819
730.99447,0.03861
729.06573,0.03867
727.13698,0.03840
725.20824,0.03798
723.27949,0.03773
721.35074,0.03762
719.42200,0.03714
717.49325,0.03605
715.56451,0.03454
713.63576,0.03283
711.70702,0.03115
709.77827,0.02978
707.84953,0.02920
705.92078,0.02961
703.99204,0.03033
702.06329,0.03080
700.13455,0.03128
698.20580,0.03227
696.27706,0.03375
694.34831,0.03502
692.41957,0.03582
690.49082,0.03627
688.56207,0.03624
686.63333,0.03591
684.70458,0.03556
682.77584,0.03521
680.84709,0.03504
678.91835,0.03511
676.98960,0.03500
675.06086,0.03479
673.13211,0.03482
671.20337,0.03475
669.27462,0.03460
667.34588,0.03492
665.41713,0.03566
663.48839,0.03627
661.55964,0.03634
659.63090,0.03604
657.70215,0.03570
655.77340,0.03554
653.84466,0.03544
651.91591,0.03507
649.98717,0.03516
648.05842,0.03633
646.12968,0.03748
644.20093,0.03728
642.27219,0.03640
640.34344,0.03649
638.41470,0.03728
636.48595,0.03738
634.55721,0.03697
632.62846,0.03689
630.69972,0.03704
628.77097,0.03705
626.84222,0.03657
624.91348,0.03594
622.98473,0.03649
621.05599,0.03796
619.12724,0.03885
617.19850,0.03886
615.26975,0.03805
613.34101,0.03743
611.41226,0.03843
609.48352,0.03928
607.55477,0.03802
605.62603,0.03681
603.69728,0.03725
601.76854,0.03751
599.83979,0.03638
