7497.03301,0.09502
7495.10426,0.09958
7493.17552,0.10286
7491.24677,0.10305
7489.31803,0.10163
7487.38928,0.09947
7485.46054,0.09531
7483.53179,0.09244
7481.60305,0.09458
7479.67430,0.09619
7477.74556,0.09196
7475.81681,0.08652
7473.88807,0.08547
7471.95932,0.08861
7470.03057,0.09224
7468.10183,0.09428
7466.17308,0.09546
7464.24434,0.09532
7462.31559,0.09543
7460.38685,0.09847
7458.45810,0.10082
7456.52936,0.09992
7454.60061,0.09985
7452.67187,0.10212
7450.74312,0.10280
7448.81438,0.10000
7446.88563,0.09435
7444.95689,0.08893
7443.02814,0.08870
7441.09940,0.09316
7439.17065,0.09683
7437.24190,0.09851
7435.31316,0.09729
7433.38441,0.08989
7431.45567,0.08275
7429.52692,0.08464
7427.59818,0.09172
7425.66943,0.09602
7423.74069,0.09267
7421.81194,0.08538
7419.88320,0.08408
7417.95445,0.08787
7416.02571,0.09090
7414.09696,0.09305
7412.16822,0.09443
7410.23947,0.09575
7408.31073,0.09819
7406.38198,0.09989
7404.45323,0.09964
7402.52449,0.09964
7400.59574,0.10033
7398.66700,0.09988
7396.73825,0.09827
7394.80951,0.09633
7392.88076,0.09407
7390.95202,0.09179
7389.02327,0.09071
7387.09453,0.09092
7385.16578,0.09216
7383.23704,0.09434
7381.30829,0.09441
7379.37955,0.09192
7377.45080,0.09129
7375.52205,0.09405
7373.59331,0.09773
7371.66456,0.09950
7369.73582,0.09730
7367.80707,0.09265
7365.87833,0.08916
7363.94958,0.08898
7362.02084,0.09365
7360.09209,0.10009
7358.16335,0.10044
7356.23460,0.09645
7354.30586,0.09537
7352.37711,0.09530
7350.44837,0.09351
7348.51962,0.09253
7346.59088,0.09216
7344.66213,0.09128
7342.73338,0.09126
7340.80464,0.09208
7338.87589,0.09265
7336.94715,0.09331
7335.01840,0.09331
7333.08966,0.09186
7331.16091,0.09033
7329.23217,0.09022
7327.30342,0.09210
7325.37468,0.09614
7323.44593,0.10004
7321.51719,0.10100
7319.58844,0.10008
7317.65970,0.09912
7315.73095,0.09607
7313.80221,0.09141
7311.87346,0.08920
7309.94471,0.08996
7308.01597,0.09072
7306.08722,0.09162
7304.15848,0.09480
7302.22973,0.09683
7300.30099,0.09384
7298.37224,0.09140
7296.44350,0.09213
7294.51475,0.09133
7292.58601,0.08980
7290.65726,0.08979
7288.72852,0.09012
7286.79977,0.09158
7284.87103,0.09398
7282.94228,0.09406
7281.01353,0.09234
7279.08479,0.09302
7277.15604,0.09474
7275.22730,0.09466
7273.29855,0.09459
7271.36981,0.09405
7269.44106,0.09137
7267.51232,0.08919
7265.58357,0.08973
7263.65483,0.09235
7261.72608,0.09593
7259.79734,0.09816
7257.86859,0.09735
7255.93985,0.09668
7254.01110,0.09707
7252.08236,0.09463
7250.15361,0.09045
7248.22486,0.08859
7246.29612,0.08896
7244.36737,0.09153
7242.43863,0.09661
7240.50988,0.09998
7238.58114,0.09772
7236.65239,0.09353
7234.72365,0.09294
7232.79490,0.09457
7230.86616,0.09492
7228.93741,0.09528
7227.00867,0.09621
7225.07992,0.09726
7223.15118,0.09861
7221.22243,0.09688
7219.29369,0.09110
7217.36494,0.08757
7215.43619,0.08912
7213.50745,0.09176
7211.57870,0.09270
7209.64996,0.09309
7207.72121,0.09419
7205.79247,0.09528
7203.86372,0.09534
7201.93498,0.09627
7200.00623,0.09900
7198.07749,0.10038
7196.14874,0.09950
7194.22000,0.10004
7192.29125,0.10052
7190.36251,0.09659
7188.43376,0.09234
7186.50501,0.09150
7184.57627,0.09001
7182.64752,0.08746
7180.71878,0.08656
7178.79003,0.08724
7176.86129,0.08895
7174.93254,0.09108
7173.00380,0.09122
7171.07505,0.08803
7169.14631,0.08558
7167.21756,0.08747
7165.28882,0.09052
7163.36007,0.09096
7161.43133,0.08877
7159.50258,0.08858
7157.57384,0.09156
7155.64509,0.09152
7153.71634,0.08869
7151.78760,0.08968
7149.85885,0.09363
7147.93011,0.09627
7146.00136,0.09724
7144.07262,0.09536
7142.14387,0.08894
7140.21513,0.08297
7138.28638,0.08310
7136.35764,0.08628
7134.42889,0.08647
7132.50015,0.08463
7130.57140,0.08536
7128.64266,0.08770
7126.71391,0.08701
7124.78516,0.08437
7122.85642,0.08606
7120.92767,0.09197
7118.99893,0.09493
7117.07018,0.09355
7115.14144,0.09224
7113.21269,0.09237
7111.28395,0.09288
7109.35520,0.09324
7107.42646,0.09290
7105.49771,0.09304
7103.56897,0.09487
7101.64022,0.09640
7099.71148,0.09637
7097.78273,0.09524
7095.85399,0.09349
7093.92524,0.09284
7091.99649,0.09329
7090.06775,0.09380
7088.13900,0.09396
7086.21026,0.09399
7084.28151,0.09546
7082.35277,0.09645
7080.42402,0.09354
7078.49528,0.09052
7076.56653,0.09186
7074.63779,0.09527
7072.70904,0.09750
7070.78030,0.09737
7068.85155,0.09454
7066.92281,0.09134
7064.99406,0.09062
7063.06532,0.09309
7061.13657,0.09649
7059.20782,0.09663
7057.27908,0.09348
7055.35033,0.09171
7053.42159,0.09265
7051.49284,0.09257
7049.56410,0.08910
7047.63535,0.08502
7045.70661,0.08369
7043.77786,0.08505
7041.84912,0.08862
7039.92037,0.09405
7037.99163,0.09718
7036.06288,0.09561
7034.13414,0.09262
7032.20539,0.09144
7030.27664,0.09327
7028.34790,0.09708
7026.41915,0.09867
7024.49041,0.09643
7022.56166,0.09394
7020.63292,0.09446
7018.70417,0.09567
7016.77543,0.09521
7014.84668,0.09466
7012.91794,0.09514
7010.98919,0.09599
7009.06045,0.09615
7007.13170,0.09484
7005.20296,0.09374
7003.27421,0.09443
7001.34547,0.09601
6999.41672,0.09546
6997.48797,0.09127
6995.55923,0.08790
6993.63048,0.08957
6991.70174,0.09265
6989.77299,0.09350
6987.84425,0.09408
6985.91550,0.09590
6983.98676,0.09729
6982.05801,0.09746
6980.12927,0.09678
6978.20052,0.09482
6976.27178,0.09238
6974.34303,0.09198
6972.41429,0.09325
6970.48554,0.09368
6968.55680,0.09280
6966.62805,0.09366
6964.69930,0.09658
6962.77056,0.09793
6960.84181,0.09707
6958.91307,0.09627
6956.98432,0.09603
6955.05558,0.09518
6953.12683,0.09326
6951.19809,0.09167
6949.26934,0.09206
6947.34060,0.09365
6945.41185,0.09341
6943.48311,0.09103
6941.55436,0.08947
6939.62562,0.09010
6937.69687,0.09091
6935.76812,0.09103
6933.83938,0.09293
6931.91063,0.09725
6929.98189,0.09929
6928.05314,0.09595
6926.12440,0.09152
6924.19565,0.09014
6922.26691,0.09048
6920.33816,0.09176
6918.40942,0.09431
6916.48067,0.09590
6914.55193,0.09518
6912.62318,0.09491
6910.69444,0.09640
6908.76569,0.09759
6906.83695,0.09803
6904.90820,0.09790
6902.97945,0.09671
6901.05071,0.09562
6899.12196,0.09601
6897.19322,0.09795
6895.26447,0.09958
6893.33573,0.09849
6891.40698,0.09492
6889.47824,0.09206
6887.54949,0.09184
6885.62075,0.09240
6883.69200,0.09141
6881.76326,0.08942
6879.83451,0.08819
6877.90577,0.08917
6875.97702,0.09221
6874.04828,0.09399
6872.11953,0.09257
6870.19078,0.09064
6868.26204,0.09076
6866.33329,0.09188
6864.40455,0.09170
6862.47580,0.09088
6860.54706,0.09183
6858.61831,0.09345
6856.68957,0.09407
6854.76082,0.09584
6852.83208,0.09736
6850.90333,0.09486
6848.97459,0.09185
6847.04584,0.09226
6845.11710,0.09363
6843.18835,0.09467
6841.25960,0.09604
6839.33086,0.09659
6837.40211,0.09608
6835.47337,0.09504
6833.54462,0.09348
6831.61588,0.09282
6829.68713,0.09288
6827.75839,0.09254
6825.82964,0.09338
6823.90090,0.09559
6821.97215,0.09698
6820.04341,0.09661
6818.11466,0.09515
6816.18592,0.09398
6814.25717,0.09345
6812.32843,0.09363
6810.39968,0.09450
6808.47093,0.09583
6806.54219,0.09672
6804.61344,0.09496
6802.68470,0.09147
6800.75595,0.09031
6798.82721,0.09191
6796.89846,0.09328
6794.96972,0.09343
6793.04097,0.09469
6791.11223,0.09740
6789.18348,0.09929
6787.25474,0.09907
6785.32599,0.09723
6783.39725,0.09445
6781.46850,0.09100
6779.53975,0.08926
6777.61101,0.09152
6775.68226,0.09526
6773.75352,0.09601
6771.82477,0.09226
6769.89603,0.08747
6767.96728,0.08582
6766.03854,0.08709
6764.10979,0.09025
6762.18105,0.09462
6760.25230,0.09642
6758.32356,0.09480
6756.39481,0.09305
6754.46607,0.09216
6752.53732,0.09297
6750.60858,0.09553
6748.67983,0.09690
6746.75108,0.09676
6744.82234,0.09663
6742.89359,0.09641
6740.96485,0.09598
6739.03610,0.09575
6737.10736,0.09612
6735.17861,0.09659
6733.24987,0.09630
6731.32112,0.09493
6729.39238,0.09372
6727.46363,0.09531
6725.53489,0.09821
6723.60614,0.09855
6721.67740,0.09629
6719.74865,0.09329
6717.81991,0.09179
6715.89116,0.09314
6713.96241,0.09531
6712.03367,0.09601
6710.10492,0.09553
6708.17618,0.09534
6706.24743,0.09597
6704.31869,0.09643
6702.38994,0.09616
6700.46120,0.09520
6698.53245,0.09313
6696.60371,0.09127
6694.67496,0.09086
6692.74622,0.09071
6690.81747,0.09091
6688.88873,0.09230
6686.95998,0.09248
6685.03123,0.09063
6683.10249,0.09048
6681.17374,0.09401
6679.24500,0.09813
6677.31625,0.09923
6675.38751,0.09777
6673.45876,0.09591
6671.53002,0.09382
6669.60127,0.09166
6667.67253,0.08983
6665.74378,0.08793
6663.81504,0.08711
6661.88629,0.08881
6659.95755,0.09130
6658.02880,0.09096
6656.10006,0.08737
6654.17131,0.08453
6652.24256,0.08602
6650.31382,0.09081
6648.38507,0.09438
6646.45633,0.09415
6644.52758,0.09198
6642.59884,0.09140
6640.67009,0.09424
6638.74135,0.09686
6636.81260,0.09483
6634.88386,0.09120
6632.95511,0.09114
6631.02637,0.09381
6629.09762,0.09580
6627.16888,0.09671
6625.24013,0.09712
6623.31139,0.09660
6621.38264,0.09577
6619.45389,0.09535
6617.52515,0.09387
6615.59640,0.09179
6613.66766,0.09145
6611.73891,0.09241
6609.81017,0.09377
6607.88142,0.09644
6605.95268,0.09909
6604.02393,0.09879
6602.09519,0.09649
6600.16644,0.09538
6598.23770,0.09517
6596.30895,0.09491
6594.38021,0.09565
6592.45146,0.09658
6590.52271,0.09511
6588.59397,0.09208
6586.66522,0.09075
6584.73648,0.09135
6582.80773,0.09216
6580.87899,0.09350
6578.95024,0.09562
6577.02150,0.09620
6575.09275,0.09365
6573.16401,0.09106
6571.23526,0.09159
6569.30652,0.09347
6567.37777,0.09475
6565.44903,0.09602
6563.52028,0.09614
6561.59154,0.09435
6559.66279,0.09310
6557.73404,0.09354
6555.80530,0.09434
6553.87655,0.09453
6551.94781,0.09494
6550.01906,0.09663
6548.09032,0.09766
6546.16157,0.09634
6544.23283,0.09471
6542.30408,0.09443
6540.37534,0.09368
6538.44659,0.09234
6536.51785,0.09263
6534.58910,0.09403
6532.66036,0.09507
6530.73161,0.09514
6528.80287,0.09325
6526.87412,0.09126
6524.94537,0.09202
6523.01663,0.09343
6521.08788,0.09284
6519.15914,0.09214
6517.23039,0.09213
6515.30165,0.09180
6513.37290,0.09223
6511.44416,0.09374
6509.51541,0.09426
6507.58667,0.09330
6505.65792,0.09314
6503.72918,0.09426
6501.80043,0.09547
6499.87169,0.09618
6497.94294,0.09491
6496.01419,0.09199
6494.08545,0.09007
6492.15670,0.09009
6490.22796,0.09214
6488.29921,0.09565
6486.37047,0.09891
6484.44172,0.10069
6482.51298,0.10040
6480.58423,0.09895
6478.65549,0.09746
6476.72674,0.09567
6474.79800,0.09415
6472.86925,0.09347
6470.94051,0.09323
6469.01176,0.09413
6467.08302,0.09575
6465.15427,0.09602
6463.22552,0.09495
6461.29678,0.09381
6459.36803,0.09344
6457.43929,0.09455
6455.51054,0.09711
6453.58180,0.09905
6451.65305,0.09842
6449.72431,0.09686
6447.79556,0.09594
6445.86682,0.09525
6443.93807,0.09571
6442.00933,0.09707
6440.08058,0.09734
6438.15184,0.09673
6436.22309,0.09644
6434.29434,0.09636
6432.36560,0.09579
6430.43685,0.09510
6428.50811,0.09424
6426.57936,0.09292
6424.65062,0.09310
6422.72187,0.09455
6420.79313,0.09492
6418.86438,0.09506
6416.93564,0.09540
6415.00689,0.09493
6413.07815,0.09428
6411.14940,0.09442
6409.22066,0.09501
6407.29191,0.09578
6405.36317,0.09644
6403.43442,0.09525
6401.50567,0.09260
6399.57693,0.09185
6397.64818,0.09353
6395.71944,0.09494
6393.79069,0.09500
6391.86195,0.09487
6389.93320,0.09467
6388.00446,0.09407
6386.07571,0.09409
6384.14697,0.09509
6382.21822,0.09560
6380.28948,0.09423
6378.36073,0.09222
6376.43199,0.09195
6374.50324,0.09296
6372.57450,0.09372
6370.64575,0.09399
6368.71700,0.09346
6366.78826,0.09320
6364.85951,0.09461
6362.93077,0.09633
6361.00202,0.09689
6359.07328,0.09675
6357.14453,0.09659
6355.21579,0.09618
6353.28704,0.09560
6351.35830,0.09601
6349.42955,0.09686
6347.50081,0.09737
6345.57206,0.09836
6343.64332,0.09878
6341.71457,0.09780
6339.78582,0.09718
6337.85708,0.09717
6335.92833,0.09650
6333.99959,0.09574
6332.07084,0.09558
6330.14210,0.09601
6328.21335,0.09717
6326.28461,0.09787
6324.35586,0.09747
6322.42712,0.09744
6320.49837,0.09768
6318.56963,0.09668
6316.64088,0.09543
6314.71214,0.09592
6312.78339,0.09665
6310.85465,0.09622
6308.92590,0.09589
6306.99715,0.09492
6305.06841,0.09265
6303.13966,0.09180
6301.21092,0.09377
6299.28217,0.09680
6297.35343,0.09807
6295.42468,0.09704
6293.49594,0.09599
6291.56719,0.09545
6289.63845,0.09450
6287.70970,0.09406
6285.78096,0.09528
6283.85221,0.09741
6281.92347,0.09802
6279.99472,0.09660
6278.06598,0.09534
6276.13723,0.09560
6274.20848,0.09735
6272.27974,0.09890
6270.35099,0.09849
6268.42225,0.09767
6266.49350,0.09769
6264.56476,0.09773
6262.63601,0.09777
6260.70727,0.09731
6258.77852,0.09565
6256.84978,0.09430
6254.92103,0.09366
6252.99229,0.09252
6251.06354,0.09159
6249.13480,0.09159
6247.20605,0.09180
6245.27730,0.09182
6243.34856,0.09232
6241.41981,0.09398
6239.49107,0.09546
6237.56232,0.09524
6235.63358,0.09405
6233.70483,0.09365
6231.77609,0.09480
6229.84734,0.09555
6227.91860,0.09409
6225.98985,0.09297
6224.06111,0.09463
6222.13236,0.09688
6220.20362,0.09689
6218.27487,0.09508
6216.34613,0.09337
6214.41738,0.09271
6212.48863,0.09286
6210.55989,0.09287
6208.63114,0.09248
6206.70240,0.09353
6204.77365,0.09636
6202.84491,0.09840
6200.91616,0.09851
6198.98742,0.09786
6197.05867,0.09749
6195.12993,0.09723
6193.20118,0.09619
6191.27244,0.09479
6189.34369,0.09376
6187.41495,0.09298
6185.48620,0.09324
6183.55746,0.09506
6181.62871,0.09660
6179.69996,0.09706
6177.77122,0.09791
6175.84247,0.09896
6173.91373,0.09863
6171.98498,0.09738
6170.05624,0.09640
6168.12749,0.09620
6166.19875,0.09681
6164.27000,0.09749
6162.34126,0.09709
6160.41251,0.09611
6158.48377,0.09607
6156.55502,0.09650
6154.62628,0.09648
6152.69753,0.09591
6150.76878,0.09443
6148.84004,0.09365
6146.91129,0.09508
6144.98255,0.09676
6143.05380,0.09666
6141.12506,0.09599
6139.19631,0.09679
6137.26757,0.09844
6135.33882,0.09901
6133.41008,0.09847
6131.48133,0.09821
6129.55259,0.09823
6127.62384,0.09699
6125.69510,0.09528
6123.76635,0.09542
6121.83761,0.09672
6119.90886,0.09676
6117.98011,0.09589
6116.05137,0.09538
6114.12262,0.09447
6112.19388,0.09327
6110.26513,0.09350
6108.33639,0.09533
6106.40764,0.09675
6104.47890,0.09669
6102.55015,0.09640
6100.62141,0.09650
6098.69266,0.09649
6096.76392,0.09655
6094.83517,0.09682
6092.90643,0.09659
6090.97768,0.09630
6089.04893,0.09739
6087.12019,0.09875
6085.19144,0.09791
6083.26270,0.09552
6081.33395,0.09430
6079.40521,0.09459
6077.47646,0.09469
6075.54772,0.09434
6073.61897,0.09413
6071.69023,0.09417
6069.76148,0.09443
6067.83274,0.09483
6065.90399,0.09533
6063.97525,0.09553
6062.04650,0.09474
6060.11776,0.09341
6058.18901,0.09322
6056.26026,0.09440
6054.33152,0.09562
6052.40277,0.09641
6050.47403,0.09619
6048.54528,0.09482
6046.61654,0.09377
6044.68779,0.09349
6042.75905,0.09292
6040.83030,0.09231
6038.90156,0.09299
6036.97281,0.09508
6035.04407,0.09694
6033.11532,0.09710
6031.18658,0.09642
6029.25783,0.09596
6027.32909,0.09491
6025.40034,0.09376
6023.47159,0.09341
6021.54285,0.09285
6019.61410,0.09264
6017.68536,0.09439
6015.75661,0.09627
6013.82787,0.09576
6011.89912,0.09363
6009.97038,0.09231
6008.04163,0.09249
6006.11289,0.09277
6004.18414,0.09274
6002.25540,0.09362
6000.32665,0.09489
5998.39791,0.09551
5996.46916,0.09625
5994.54041,0.09705
5992.61167,0.09668
5990.68292,0.09566
5988.75418,0.09559
5986.82543,0.09615
5984.89669,0.09567
5982.96794,0.09441
5981.03920,0.09378
5979.11045,0.09326
5977.18171,0.09213
5975.25296,0.09156
5973.32422,0.09216
5971.39547,0.09312
5969.46673,0.09388
5967.53798,0.09401
5965.60924,0.09357
5963.68049,0.09329
5961.75174,0.09294
5959.82300,0.09255
5957.89425,0.09335
5955.96551,0.09522
5954.03676,0.09626
5952.10802,0.09568
5950.17927,0.09431
5948.25053,0.09324
5946.32178,0.09290
5944.39304,0.09277
5942.46429,0.09243
5940.53555,0.09209
5938.60680,0.09174
5936.67806,0.09169
5934.74931,0.09235
5932.82057,0.09329
5930.89182,0.09356
5928.96307,0.09262
5927.03433,0.09101
5925.10558,0.08990
5923.17684,0.08985
5921.24809,0.09046
5919.31935,0.09161
5917.39060,0.09313
5915.46186,0.09372
5913.53311,0.09354
5911.60437,0.09372
5909.67562,0.09346
5907.74688,0.09261
5905.81813,0.09218
5903.88939,0.09212
5901.96064,0.09196
5900.03189,0.09148
5898.10315,0.09085
5896.17440,0.09035
5894.24566,0.09002
5892.31691,0.09022
5890.38817,0.09099
5888.45942,0.09149
5886.53068,0.09106
5884.60193,0.09047
5882.67319,0.09114
5880.74444,0.09278
5878.81570,0.09362
5876.88695,0.09300
5874.95821,0.09179
5873.02946,0.09115
5871.10072,0.09130
5869.17197,0.09109
5867.24322,0.09000
5865.31448,0.08900
5863.38573,0.08903
5861.45699,0.08987
5859.52824,0.09000
5857.59950,0.08873
5855.67075,0.08760
5853.74201,0.08797
5851.81326,0.08920
5849.88452,0.09006
5847.95577,0.09078
5846.02703,0.09194
5844.09828,0.09251
5842.16954,0.09143
5840.24079,0.08981
5838.31205,0.08939
5836.38330,0.09019
5834.45455,0.09056
5832.52581,0.08978
5830.59706,0.08937
5828.66832,0.09041
5826.73957,0.09193
5824.81083,0.09271
5822.88208,0.09235
5820.95334,0.09165
5819.02459,0.09170
5817.09585,0.09181
5815.16710,0.09125
5813.23836,0.09083
5811.30961,0.09088
5809.38087,0.09087
5807.45212,0.09063
5805.52337,0.09050
5803.59463,0.09045
5801.66588,0.09045
5799.73714,0.09114
5797.80839,0.09242
5795.87965,0.09278
5793.95090,0.09185
5792.02216,0.09120
5790.09341,0.09200
5788.16467,0.09325
5786.23592,0.09333
5784.30718,0.09204
5782.37843,0.09088
5780.44969,0.09086
5778.52094,0.09116
5776.59220,0.09158
5774.66345,0.09228
5772.73470,0.09202
5770.80596,0.09077
5768.87721,0.09004
5766.94847,0.09005
5765.01972,0.09017
5763.09098,0.09051
5761.16223,0.09093
5759.23349,0.09086
5757.30474,0.09025
5755.37600,0.08969
5753.44725,0.08970
5751.51851,0.08997
5749.58976,0.09017
5747.66102,0.09061
5745.73227,0.09120
5743.80352,0.09151
5741.87478,0.09120
5739.94603,0.08971
5738.01729,0.08782
5736.08854,0.08786
5734.15980,0.08979
5732.23105,0.09110
5730.30231,0.09113
5728.37356,0.09136
5726.44482,0.09212
5724.51607,0.09214
5722.58733,0.09136
5720.65858,0.09068
5718.72984,0.09053
5716.80109,0.09140
5714.87235,0.09245
5712.94360,0.09273
5711.01485,0.09286
5709.08611,0.09290
5707.15736,0.09253
5705.22862,0.09238
5703.29987,0.09306
5701.37113,0.09404
5699.44238,0.09391
5697.51364,0.09303
5695.58489,0.09322
5693.65615,0.09445
5691.72740,0.09513
5689.79866,0.09456
5687.86991,0.09360
5685.94117,0.09286
5684.01242,0.09241
5682.08368,0.09293
5680.15493,0.09409
5678.22618,0.09454
5676.29744,0.09476
5674.36869,0.09573
5672.43995,0.09654
5670.51120,0.09647
5668.58246,0.09562
5666.65371,0.09410
5664.72497,0.09320
5662.79622,0.09385
5660.86748,0.09497
5658.93873,0.09538
5657.00999,0.09470
5655.08124,0.09375
5653.15250,0.09388
5651.22375,0.09467
5649.29500,0.09518
5647.36626,0.09593
5645.43751,0.09680
5643.50877,0.09695
5641.58002,0.09656
5639.65128,0.09607
5637.72253,0.09573
5635.79379,0.09557
5633.86504,0.09505
5631.93630,0.09455
5630.00755,0.09493
5628.07881,0.09588
5626.15006,0.09643
5624.22132,0.09577
5622.29257,0.09456
5620.36383,0.09429
5618.43508,0.09486
5616.50633,0.09557
5614.57759,0.09602
5612.64884,0.09601
5610.72010,0.09589
5608.79135,0.09559
5606.86261,0.09492
5604.93386,0.09485
5603.00512,0.09596
5601.07637,0.09727
5599.14763,0.09772
5597.21888,0.09709
5595.29014,0.09592
5593.36139,0.09559
5591.43265,0.09664
5589.50390,0.09767
5587.57516,0.09741
5585.64641,0.09632
5583.71766,0.09581
5581.78892,0.09630
5579.86017,0.09672
5577.93143,0.09669
5576.00268,0.09686
5574.07394,0.09744
5572.14519,0.09805
5570.21645,0.09822
5568.28770,0.09765
5566.35896,0.09702
5564.43021,0.09737
5562.50147,0.09786
5560.57272,0.09709
5558.64398,0.09592
5556.71523,0.09562
5554.78648,0.09602
5552.85774,0.09620
5550.92899,0.09566
5549.00025,0.09538
5547.07150,0.09606
5545.14276,0.09676
5543.21401,0.09678
5541.28527,0.09696
5539.35652,0.09811
5537.42778,0.09894
5535.49903,0.09823
5533.57029,0.09734
5531.64154,0.09744
5529.71280,0.09711
5527.78405,0.09537
5525.85531,0.09416
5523.92656,0.09487
5521.99781,0.09617
5520.06907,0.09667
5518.14032,0.09678
5516.21158,0.09709
5514.28283,0.09730
5512.35409,0.09734
5510.42534,0.09740
5508.49660,0.09728
5506.56785,0.09679
5504.63911,0.09641
5502.71036,0.09710
5500.78162,0.09837
5498.85287,0.09869
5496.92413,0.09798
5494.99538,0.09733
5493.06664,0.09726
5491.13789,0.09736
5489.20914,0.09726
5487.28040,0.09735
5485.35165,0.09748
5483.42291,0.09698
5481.49416,0.09637
5479.56542,0.09639
5477.63667,0.09696
5475.70793,0.09784
5473.77918,0.09856
5471.85044,0.09841
5469.92169,0.09741
5467.99295,0.09672
5466.06420,0.09704
5464.13546,0.09768
5462.20671,0.09816
5460.27796,0.09880
5458.34922,0.09932
5456.42047,0.09879
5454.49173,0.09808
5452.56298,0.09860
5450.63424,0.09922
5448.70549,0.09848
5446.77675,0.09736
5444.84800,0.09730
5442.91926,0.09802
5440.99051,0.09866
5439.06177,0.09900
5437.13302,0.09901
5435.20428,0.09877
5433.27553,0.09856
5431.34679,0.09837
5429.41804,0.09820
5427.48929,0.09831
5425.56055,0.09872
5423.63180,0.09941
5421.70306,0.10017
5419.77431,0.10033
5417.84557,0.09962
5415.91682,0.09835
5413.98808,0.09737
5412.05933,0.09741
5410.13059,0.09807
5408.20184,0.09852
5406.27310,0.09854
5404.34435,0.09854
5402.41561,0.09876
5400.48686,0.09937
5398.55811,0.10004
5396.62937,0.09973
5394.70062,0.09862
5392.77188,0.09779
5390.84313,0.09757
5388.91439,0.09773
5386.98564,0.09786
5385.05690,0.09789
5383.12815,0.09795
5381.19941,0.09814
5379.27066,0.09879
5377.34192,0.09971
5375.41317,0.10011
5373.48443,0.09987
5371.55568,0.09941
5369.62694,0.09906
5367.69819,0.09911
5365.76944,0.09975
5363.84070,0.10044
5361.91195,0.10034
5359.98321,0.09983
5358.05446,0.09978
5356.12572,0.09991
5354.19697,0.09952
5352.26823,0.09862
5350.33948,0.09786
5348.41074,0.09790
5346.48199,0.09853
5344.55325,0.09893
5342.62450,0.09881
5340.69576,0.09883
5338.76701,0.09942
5336.83827,0.10001
5334.90952,0.09992
5332.98077,0.09931
5331.05203,0.09873
5329.12328,0.09861
5327.19454,0.09871
5325.26579,0.09852
5323.33705,0.09860
5321.40830,0.09941
5319.47956,0.10011
5317.55081,0.10017
5315.62207,0.10000
5313.69332,0.10007
5311.76458,0.10052
5309.83583,0.10077
5307.90709,0.10021
5305.97834,0.09932
5304.04959,0.09897
5302.12085,0.09909
5300.19210,0.09909
5298.26336,0.09903
5296.33461,0.09930
5294.40587,0.09970
5292.47712,0.09995
5290.54838,0.10007
5288.61963,0.09994
5286.69089,0.09949
5284.76214,0.09916
5282.83340,0.09940
5280.90465,0.10015
5278.97591,0.10104
5277.04716,0.10139
5275.11842,0.10053
5273.18967,0.09907
5271.26092,0.09796
5269.33218,0.09754
5267.40343,0.09821
5265.47469,0.09956
5263.54594,0.10066
5261.61720,0.10144
5259.68845,0.10155
5257.75971,0.10065
5255.83096,0.10019
5253.90222,0.10116
5251.97347,0.10228
5250.04473,0.10231
5248.11598,0.10144
5246.18724,0.10061
5244.25849,0.10045
5242.32975,0.10065
5240.40100,0.10047
5238.47225,0.10006
5236.54351,0.09993
5234.61476,0.09987
5232.68602,0.09952
5230.75727,0.09907
5228.82853,0.09922
5226.89978,0.09991
5224.97104,0.10012
5223.04229,0.09975
5221.11355,0.09901
5219.18480,0.09824
5217.25606,0.09843
5215.32731,0.09938
5213.39857,0.10022
5211.46982,0.10057
5209.54107,0.10012
5207.61233,0.09926
5205.68358,0.09921
5203.75484,0.09996
5201.82609,0.10052
5199.89735,0.10086
5197.96860,0.10117
5196.03986,0.10119
5194.11111,0.10108
5192.18237,0.10102
5190.25362,0.10093
5188.32488,0.10075
5186.39613,0.10062
5184.46739,0.10046
5182.53864,0.10006
5180.60990,0.09948
5178.68115,0.09895
5176.75240,0.09906
5174.82366,0.10002
5172.89491,0.10086
5170.96617,0.10105
5169.03742,0.10122
5167.10868,0.10164
5165.17993,0.10173
5163.25119,0.10109
5161.32244,0.10036
5159.39370,0.10034
5157.46495,0.10027
5155.53621,0.09949
5153.60746,0.09900
5151.67872,0.09937
5149.74997,0.09992
5147.82123,0.09998
5145.89248,0.09955
5143.96373,0.09906
5142.03499,0.09899
5140.10624,0.09921
5138.17750,0.09910
5136.24875,0.09907
5134.32001,0.09976
5132.39126,0.10062
5130.46252,0.10079
5128.53377,0.10052
5126.60503,0.10027
5124.67628,0.09970
5122.74754,0.09899
5120.81879,0.09886
5118.89005,0.09916
5116.96130,0.09929
5115.03255,0.09912
5113.10381,0.09916
5111.17506,0.09973
5109.24632,0.10020
5107.31757,0.10029
5105.38883,0.10047
5103.46008,0.10063
5101.53134,0.10038
5099.60259,0.09985
5097.67385,0.09927
5095.74510,0.09880
5093.81636,0.09865
5091.88761,0.09882
5089.95887,0.09918
5088.03012,0.09948
5086.10138,0.09971
5084.17263,0.10001
5082.24388,0.10045
5080.31514,0.10098
5078.38639,0.10093
5076.45765,0.10015
5074.52890,0.09946
5072.60016,0.09935
5070.67141,0.09977
5068.74267,0.10025
5066.81392,0.10059
5064.88518,0.10106
5062.95643,0.10137
5061.02769,0.10116
5059.09894,0.10057
5057.17020,0.09958
5055.24145,0.09867
5053.31270,0.09851
5051.38396,0.09879
5049.45521,0.09897
5047.52647,0.09889
5045.59772,0.09887
5043.66898,0.09944
5041.74023,0.10019
5039.81149,0.10005
5037.88274,0.09927
5035.95400,0.09890
5034.02525,0.09904
5032.09651,0.09952
5030.16776,0.10025
5028.23902,0.10012
5026.31027,0.09886
5024.38153,0.09846
5022.45278,0.09959
5020.52403,0.10022
5018.59529,0.09946
5016.66654,0.09863
5014.73780,0.09852
5012.80905,0.09877
5010.88031,0.09905
5008.95156,0.09929
5007.02282,0.09912
5005.09407,0.09835
5003.16533,0.09789
5001.23658,0.09814
4999.30784,0.09823
4997.37909,0.09794
4995.45035,0.09782
4993.52160,0.09794
4991.59286,0.09809
4989.66411,0.09808
4987.73536,0.09799
4985.80662,0.09798
4983.87787,0.09790
4981.94913,0.09763
4980.02038,0.09734
4978.09164,0.09703
4976.16289,0.09696
4974.23415,0.09720
4972.30540,0.09710
4970.37666,0.09640
4968.44791,0.09607
4966.51917,0.09661
4964.59042,0.09694
4962.66168,0.09629
4960.73293,0.09548
4958.80418,0.09544
4956.87544,0.09597
4954.94669,0.09629
4953.01795,0.09603
4951.08920,0.09552
4949.16046,0.09514
4947.23171,0.09492
4945.30297,0.09477
4943.37422,0.09435
4941.44548,0.09383
4939.51673,0.09403
4937.58799,0.09473
4935.65924,0.09475
4933.73050,0.09392
4931.80175,0.09285
4929.87301,0.09213
4927.94426,0.09229
4926.01551,0.09319
4924.08677,0.09365
4922.15802,0.09325
4920.22928,0.09290
4918.30053,0.09306
4916.37179,0.09328
4914.44304,0.09326
4912.51430,0.09314
4910.58555,0.09328
4908.65681,0.09361
4906.72806,0.09355
4904.79932,0.09294
4902.87057,0.09227
4900.94183,0.09177
4899.01308,0.09145
4897.08434,0.09175
4895.15559,0.09248
4893.22684,0.09284
4891.29810,0.09274
4889.36935,0.09254
4887.44061,0.09259
4885.51186,0.09303
4883.58312,0.09317
4881.65437,0.09241
4879.72563,0.09159
4877.79688,0.09154
4875.86814,0.09197
4873.93939,0.09242
4872.01065,0.09272
4870.08190,0.09280
4868.15316,0.09282
4866.22441,0.09291
4864.29566,0.09288
4862.36692,0.09279
4860.43817,0.09272
4858.50943,0.09266
4856.58068,0.09277
4854.65194,0.09310
4852.72319,0.09333
4850.79445,0.09314
4848.86570,0.09274
4846.93696,0.09241
4845.00821,0.09228
4843.07947,0.09246
4841.15072,0.09281
4839.22198,0.09325
4837.29323,0.09376
4835.36449,0.09404
4833.43574,0.09400
4831.50699,0.09358
4829.57825,0.09304
4827.64950,0.09289
4825.72076,0.09320
4823.79201,0.09377
4821.86327,0.09429
4819.93452,0.09454
4818.00578,0.09473
4816.07703,0.09511
4814.14829,0.09555
4812.21954,0.09578
4810.29080,0.09575
4808.36205,0.09574
4806.43331,0.09579
4804.50456,0.09577
4802.57582,0.09555
4800.64707,0.09519
4798.71832,0.09519
4796.78958,0.09551
4794.86083,0.09532
4792.93209,0.09490
4791.00334,0.09531
4789.07460,0.09631
4787.14585,0.09686
4785.21711,0.09693
4783.28836,0.09699
4781.35962,0.09715
4779.43087,0.09727
4777.50213,0.09697
4775.57338,0.09626
4773.64464,0.09586
4771.71589,0.09609
4769.78714,0.09640
4767.85840,0.09669
4765.92965,0.09720
4764.00091,0.09732
4762.07216,0.09682
4760.14342,0.09657
4758.21467,0.09695
4756.28593,0.09689
4754.35718,0.09596
4752.42844,0.09546
4750.49969,0.09587
4748.57095,0.09635
4746.64220,0.09656
4744.71346,0.09643
4742.78471,0.09593
4740.85597,0.09562
4738.92722,0.09557
4736.99847,0.09541
4735.06973,0.09564
4733.14098,0.09638
4731.21224,0.09680
4729.28349,0.09659
4727.35475,0.09611
4725.42600,0.09574
4723.49726,0.09564
4721.56851,0.09580
4719.63977,0.09593
4717.71102,0.09558
4715.78228,0.09487
4713.85353,0.09436
4711.92479,0.09426
4709.99604,0.09402
4708.06729,0.09333
4706.13855,0.09284
4704.20980,0.09287
4702.28106,0.09302
4700.35231,0.09316
4698.42357,0.09337
4696.49482,0.09340
4694.56608,0.09327
4692.63733,0.09349
4690.70859,0.09400
4688.77984,0.09423
4686.85110,0.09391
4684.92235,0.09336
4682.99361,0.09307
4681.06486,0.09268
4679.13612,0.09209
4677.20737,0.09211
4675.27862,0.09266
4673.34988,0.09295
4671.42113,0.09286
4669.49239,0.09263
4667.56364,0.09246
4665.63490,0.09241
4663.70615,0.09230
4661.77741,0.09221
4659.84866,0.09218
4657.91992,0.09209
4655.99117,0.09229
4654.06243,0.09305
4652.13368,0.09365
4650.20494,0.09346
4648.27619,0.09280
4646.34745,0.09248
4644.41870,0.09271
4642.48995,0.09282
4640.56121,0.09246
4638.63246,0.09214
4636.70372,0.09215
4634.77497,0.09218
4632.84623,0.09199
4630.91748,0.09172
4628.98874,0.09161
4627.05999,0.09184
4625.13125,0.09250
4623.20250,0.09309
4621.27376,0.09302
4619.34501,0.09260
4617.41627,0.09243
4615.48752,0.09246
4613.55877,0.09247
4611.63003,0.09253
4609.70128,0.09257
4607.77254,0.09243
4605.84379,0.09246
4603.91505,0.09295
4601.98630,0.09345
4600.05756,0.09351
4598.12881,0.09335
4596.20007,0.09350
4594.27132,0.09407
4592.34258,0.09454
4590.41383,0.09456
4588.48509,0.09429
4586.55634,0.09397
4584.62760,0.09371
4582.69885,0.09360
4580.77010,0.09359
4578.84136,0.09362
4576.91261,0.09371
4574.98387,0.09377
4573.05512,0.09383
4571.12638,0.09418
4569.19763,0.09463
4567.26889,0.09458
4565.34014,0.09423
4563.41140,0.09409
4561.48265,0.09406
4559.55391,0.09413
4557.62516,0.09438
4555.69642,0.09468
4553.76767,0.09503
4551.83893,0.09544
4549.91018,0.09566
4547.98143,0.09538
4546.05269,0.09493
4544.12394,0.09504
4542.19520,0.09549
4540.26645,0.09555
4538.33771,0.09528
4536.40896,0.09514
4534.48022,0.09528
4532.55147,0.09542
4530.62273,0.09535
4528.69398,0.09538
4526.76524,0.09563
4524.83649,0.09576
4522.90775,0.09576
4520.97900,0.09572
4519.05025,0.09549
4517.12151,0.09534
4515.19276,0.09544
4513.26402,0.09534
4511.33527,0.09493
4509.40653,0.09471
4507.47778,0.09476
4505.54904,0.09486
4503.62029,0.09483
4501.69155,0.09467
4499.76280,0.09461
4497.83406,0.09436
4495.90531,0.09357
4493.97657,0.09273
4492.04782,0.09229
4490.11908,0.09224
4488.19033,0.09243
4486.26158,0.09271
4484.33284,0.09283
4482.40409,0.09276
4480.47535,0.09262
4478.54660,0.09236
4476.61786,0.09218
4474.68911,0.09228
4472.76037,0.09228
4470.83162,0.09187
4468.90288,0.09143
4466.97413,0.09111
4465.04539,0.09062
4463.11664,0.09000
4461.18790,0.08957
4459.25915,0.08928
4457.33041,0.08903
4455.40166,0.08884
4453.47291,0.08860
4451.54417,0.08797
4449.61542,0.08700
4447.68668,0.08613
4445.75793,0.08544
4443.82919,0.08483
4441.90044,0.08449
4439.97170,0.08435
4438.04295,0.08395
4436.11421,0.08322
4434.18546,0.08246
4432.25672,0.08162
4430.32797,0.08038
4428.39923,0.07917
4426.47048,0.07887
4424.54173,0.07907
4422.61299,0.07865
4420.68424,0.07767
4418.75550,0.07701
4416.82675,0.07692
4414.89801,0.07693
4412.96926,0.07667
4411.04052,0.07609
4409.11177,0.07561
4407.18303,0.07562
4405.25428,0.07591
4403.32554,0.07586
4401.39679,0.07540
4399.46805,0.07522
4397.53930,0.07546
4395.61056,0.07538
4393.68181,0.07485
4391.75306,0.07455
4389.82432,0.07470
4387.89557,0.07519
4385.96683,0.07560
4384.03808,0.07539
4382.10934,0.07488
4380.18059,0.07460
4378.25185,0.07434
4376.32310,0.07387
4374.39436,0.07349
4372.46561,0.07355
4370.53687,0.07380
4368.60812,0.07351
4366.67938,0.07256
4364.75063,0.07179
4362.82189,0.07177
4360.89314,0.07196
4358.96439,0.07206
4357.03565,0.07239
4355.10690,0.07263
4353.17816,0.07217
4351.24941,0.07135
4349.32067,0.07086
4347.39192,0.07083
4345.46318,0.07110
4343.53443,0.07123
4341.60569,0.07093
4339.67694,0.07073
4337.74820,0.07106
4335.81945,0.07152
4333.89071,0.07170
4331.96196,0.07164
4330.03321,0.07167
4328.10447,0.07204
4326.17572,0.07243
4324.24698,0.07255
4322.31823,0.07273
4320.38949,0.07312
4318.46074,0.07330
4316.53200,0.07322
4314.60325,0.07306
4312.67451,0.07290
4310.74576,0.07329
4308.81702,0.07438
4306.88827,0.07526
4304.95953,0.07554
4303.03078,0.07576
4301.10204,0.07623
4299.17329,0.07656
4297.24454,0.07637
4295.31580,0.07592
4293.38705,0.07560
4291.45831,0.07539
4289.52956,0.07529
4287.60082,0.07544
4285.67207,0.07585
4283.74333,0.07601
4281.81458,0.07566
4279.88584,0.07549
4277.95709,0.07595
4276.02835,0.07633
4274.09960,0.07619
4272.17086,0.07589
4270.24211,0.07573
4268.31336,0.07560
4266.38462,0.07540
4264.45587,0.07541
4262.52713,0.07563
4260.59838,0.07567
4258.66964,0.07552
4256.74089,0.07567
4254.81215,0.07607
4252.88340,0.07609
4250.95466,0.07581
4249.02591,0.07579
4247.09717,0.07610
4245.16842,0.07649
4243.23968,0.07679
4241.31093,0.07698
4239.38219,0.07713
4237.45344,0.07730
4235.52469,0.07735
4233.59595,0.07710
4231.66720,0.07691
4229.73846,0.07705
4227.80971,0.07711
4225.88097,0.07694
4223.95222,0.07696
4222.02348,0.07733
4220.09473,0.07770
4218.16599,0.07787
4216.23724,0.07796
4214.30850,0.07817
4212.37975,0.07863
4210.45101,0.07913
4208.52226,0.07935
4206.59352,0.07934
4204.66477,0.07917
4202.73602,0.07885
4200.80728,0.07867
4198.87853,0.07897
4196.94979,0.07956
4195.02104,0.08001
4193.09230,0.08025
4191.16355,0.08035
4189.23481,0.08042
4187.30606,0.08048
4185.37732,0.08024
4183.44857,0.07978
4181.51983,0.07951
4179.59108,0.07934
4177.66234,0.07926
4175.73359,0.07941
4173.80484,0.07943
4171.87610,0.07934
4169.94735,0.07956
4168.01861,0.07984
4166.08986,0.07994
4164.16112,0.07993
4162.23237,0.07984
4160.30363,0.07987
4158.37488,0.08008
4156.44614,0.08020
4154.51739,0.08017
4152.58865,0.08011
4150.65990,0.07996
4148.73116,0.07985
4146.80241,0.08014
4144.87367,0.08057
4142.94492,0.08053
4141.01617,0.08012
4139.08743,0.07992
4137.15868,0.07988
4135.22994,0.07966
4133.30119,0.07942
4131.37245,0.07944
4129.44370,0.07963
4127.51496,0.07987
4125.58621,0.08022
4123.65747,0.08051
4121.72872,0.08044
4119.79998,0.08005
4117.87123,0.07960
4115.94249,0.07934
4114.01374,0.07919
4112.08500,0.07911
4110.15625,0.07928
4108.22750,0.07959
4106.29876,0.07969
4104.37001,0.07960
4102.44127,0.07944
4100.51252,0.07918
4098.58378,0.07881
4096.65503,0.07848
4094.72629,0.07815
4092.79754,0.07786
4090.86880,0.07764
4088.94005,0.07753
4087.01131,0.07749
4085.08256,0.07728
4083.15382,0.07683
4081.22507,0.07639
4079.29632,0.07622
4077.36758,0.07620
4075.43883,0.07607
4073.51009,0.07592
4071.58134,0.07598
4069.65260,0.07589
4067.72385,0.07531
4065.79511,0.07487
4063.86636,0.07494
4061.93762,0.07508
4060.00887,0.07501
4058.08013,0.07486
4056.15138,0.07473
4054.22264,0.07454
4052.29389,0.07420
4050.36515,0.07391
4048.43640,0.07399
4046.50765,0.07427
4044.57891,0.07430
4042.65016,0.07397
4040.72142,0.07369
4038.79267,0.07384
4036.86393,0.07423
4034.93518,0.07450
4033.00644,0.07466
4031.07769,0.07464
4029.14895,0.07443
4027.22020,0.07433
4025.29146,0.07445
4023.36271,0.07462
4021.43397,0.07469
4019.50522,0.07472
4017.57648,0.07489
4015.64773,0.07507
4013.71898,0.07519
4011.79024,0.07542
4009.86149,0.07566
4007.93275,0.07560
4006.00400,0.07527
4004.07526,0.07505
4002.14651,0.07523
4000.21777,0.07559
3998.28902,0.07586
3996.36028,0.07615
3994.43153,0.07643
3992.50279,0.07643
3990.57404,0.07619
3988.64530,0.07607
3986.71655,0.07635
3984.78780,0.07679
3982.85906,0.07701
3980.93031,0.07706
3979.00157,0.07729
3977.07282,0.07780
3975.14408,0.07831
3973.21533,0.07856
3971.28659,0.07858
3969.35784,0.07874
3967.42910,0.07932
3965.50035,0.07995
3963.57161,0.08015
3961.64286,0.08007
3959.71412,0.08008
3957.78537,0.08030
3955.85663,0.08070
3953.92788,0.08105
3951.99913,0.08113
3950.07039,0.08120
3948.14164,0.08144
3946.21290,0.08167
3944.28415,0.08208
3942.35541,0.08272
3940.42666,0.08306
3938.49792,0.08306
3936.56917,0.08307
3934.64043,0.08318
3932.71168,0.08341
3930.78294,0.08365
3928.85419,0.08381
3926.92545,0.08405
3924.99670,0.08430
3923.06795,0.08446
3921.13921,0.08458
3919.21046,0.08458
3917.28172,0.08456
3915.35297,0.08476
3913.42423,0.08510
3911.49548,0.08536
3909.56674,0.08547
3907.63799,0.08553
3905.70925,0.08564
3903.78050,0.08568
3901.85176,0.08558
3899.92301,0.08562
3897.99427,0.08599
3896.06552,0.08632
3894.13678,0.08626
3892.20803,0.08596
3890.27928,0.08585
3888.35054,0.08620
3886.42179,0.08686
3884.49305,0.08734
3882.56430,0.08727
3880.63556,0.08685
3878.70681,0.08679
3876.77807,0.08718
3874.84932,0.08747
3872.92058,0.08774
3870.99183,0.08815
3869.06309,0.08838
3867.13434,0.08841
3865.20560,0.08816
3863.27685,0.08760
3861.34811,0.08738
3859.41936,0.08789
3857.49061,0.08878
3855.56187,0.08917
3853.63312,0.08851
3851.70438,0.08791
3849.77563,0.08822
3847.84689,0.08878
3845.91814,0.08907
3843.98940,0.08906
3842.06065,0.08918
3840.13191,0.08952
3838.20316,0.08934
3836.27442,0.08875
3834.34567,0.08848
3832.41693,0.08851
3830.48818,0.08885
3828.55943,0.08947
3826.63069,0.09000
3824.70194,0.09033
3822.77320,0.09047
3820.84445,0.09044
3818.91571,0.09065
3816.98696,0.09076
3815.05822,0.09023
3813.12947,0.08992
3811.20073,0.09038
3809.27198,0.09115
3807.34324,0.09150
3805.41449,0.09135
3803.48575,0.09129
3801.55700,0.09119
3799.62826,0.09095
3797.69951,0.09088
3795.77076,0.09104
3793.84202,0.09138
3791.91327,0.09158
3789.98453,0.09158
3788.05578,0.09163
3786.12704,0.09178
3784.19829,0.09200
3782.26955,0.09226
3780.34080,0.09246
3778.41206,0.09262
3776.48331,0.09296
3774.55457,0.09331
3772.62582,0.09332
3770.69708,0.09307
3768.76833,0.09279
3766.83959,0.09286
3764.91084,0.09332
3762.98209,0.09385
3761.05335,0.09424
3759.12460,0.09426
3757.19586,0.09404
3755.26711,0.09420
3753.33837,0.09467
3751.40962,0.09470
3749.48088,0.09435
3747.55213,0.09446
3745.62339,0.09458
3743.69464,0.09428
3741.76590,0.09459
3739.83715,0.09546
3737.90841,0.09596
3735.97966,0.09585
3734.05091,0.09561
3732.12217,0.09549
3730.19342,0.09557
3728.26468,0.09588
3726.33593,0.09599
3724.40719,0.09570
3722.47844,0.09554
3720.54970,0.09562
3718.62095,0.09575
3716.69221,0.09599
3714.76346,0.09626
3712.83472,0.09639
3710.90597,0.09637
3708.97723,0.09627
3707.04848,0.09616
3705.11974,0.09615
3703.19099,0.09616
3701.26224,0.09605
3699.33350,0.09593
3697.40475,0.09591
3695.47601,0.09591
3693.54726,0.09577
3691.61852,0.09558
3689.68977,0.09533
3687.76103,0.09483
3685.83228,0.09453
3683.90354,0.09446
3681.97479,0.09428
3680.04605,0.09427
3678.11730,0.09441
3676.18856,0.09390
3674.25981,0.09311
3672.33107,0.09308
3670.40232,0.09320
3668.47357,0.09277
3666.54483,0.09212
3664.61608,0.09171
3662.68734,0.09156
3660.75859,0.09134
3658.82985,0.09086
3656.90110,0.09016
3654.97236,0.08983
3653.04361,0.09017
3651.11487,0.09020
3649.18612,0.08931
3647.25738,0.08826
3645.32863,0.08776
3643.39989,0.08764
3641.47114,0.08753
3639.54239,0.08721
3637.61365,0.08683
3635.68490,0.08678
3633.75616,0.08711
3631.82741,0.08730
3629.89867,0.08679
3627.96992,0.08577
3626.04118,0.08515
3624.11243,0.08496
3622.18369,0.08498
3620.25494,0.08499
3618.32620,0.08482
3616.39745,0.08459
3614.46871,0.08429
3612.53996,0.08400
3610.61122,0.08383
3608.68247,0.08364
3606.75372,0.08327
3604.82498,0.08294
3602.89623,0.08299
3600.96749,0.08321
3599.03874,0.08316
3597.11000,0.08279
3595.18125,0.08235
3593.25251,0.08205
3591.32376,0.08186
3589.39502,0.08165
3587.46627,0.08128
3585.53753,0.08068
3583.60878,0.08018
3581.68004,0.08007
3579.75129,0.08005
3577.82254,0.07977
3575.89380,0.07939
3573.96505,0.07906
3572.03631,0.07876
3570.10756,0.07855
3568.17882,0.07844
3566.25007,0.07817
3564.32133,0.07785
3562.39258,0.07785
3560.46384,0.07787
3558.53509,0.07739
3556.60635,0.07661
3554.67760,0.07609
3552.74886,0.07587
3550.82011,0.07572
3548.89137,0.07561
3546.96262,0.07537
3545.03387,0.07483
3543.10513,0.07422
3541.17638,0.07366
3539.24764,0.07310
3537.31889,0.07264
3535.39015,0.07249
3533.46140,0.07229
3531.53266,0.07161
3529.60391,0.07083
3527.67517,0.07050
3525.74642,0.07041
3523.81768,0.07037
3521.88893,0.07042
3519.96019,0.07036
3518.03144,0.07010
3516.10270,0.06974
3514.17395,0.06920
3512.24520,0.06861
3510.31646,0.06811
3508.38771,0.06764
3506.45897,0.06737
3504.53022,0.06727
3502.60148,0.06696
3500.67273,0.06663
3498.74399,0.06649
3496.81524,0.06620
3494.88650,0.06572
3492.95775,0.06526
3491.02901,0.06482
3489.10026,0.06446
3487.17152,0.06412
3485.24277,0.06359
3483.31402,0.06296
3481.38528,0.06243
3479.45653,0.06175
3477.52779,0.06084
3475.59904,0.06004
3473.67030,0.05938
3471.74155,0.05873
3469.81281,0.05812
3467.88406,0.05732
3465.95532,0.05630
3464.02657,0.05549
3462.09783,0.05485
3460.16908,0.05391
3458.24034,0.05295
3456.31159,0.05254
3454.38285,0.05244
3452.45410,0.05222
3450.52535,0.05203
3448.59661,0.05193
3446.66786,0.05167
3444.73912,0.05130
3442.81037,0.05103
3440.88163,0.05083
3438.95288,0.05051
3437.02414,0.05010
3435.09539,0.04966
3433.16665,0.04910
3431.23790,0.04827
3429.30916,0.04723
3427.38041,0.04622
3425.45167,0.04542
3423.52292,0.04483
3421.59418,0.04444
3419.66543,0.04386
3417.73668,0.04289
3415.80794,0.04198
3413.87919,0.04130
3411.95045,0.04049
3410.02170,0.03964
3408.09296,0.03907
3406.16421,0.03873
3404.23547,0.03831
3402.30672,0.03767
3400.37798,0.03695
3398.44923,0.03641
3396.52049,0.03601
3394.59174,0.03550
3392.66300,0.03501
3390.73425,0.03469
3388.80550,0.03440
3386.87676,0.03411
3384.94801,0.03372
3383.01927,0.03330
3381.09052,0.03318
3379.16178,0.03316
3377.23303,0.03288
3375.30429,0.03253
3373.37554,0.03217
3371.44680,0.03175
3369.51805,0.03147
3367.58931,0.03151
3365.66056,0.03164
3363.73182,0.03152
3361.80307,0.03110
3359.87433,0.03075
3357.94558,0.03077
3356.01683,0.03092
3354.08809,0.03085
3352.15934,0.03070
3350.23060,0.03069
3348.30185,0.03086
3346.37311,0.03105
3344.44436,0.03092
3342.51562,0.03050
3340.58687,0.03014
3338.65813,0.03005
3336.72938,0.03021
3334.80064,0.03022
3332.87189,0.02985
3330.94315,0.02934
3329.01440,0.02902
3327.08566,0.02912
3325.15691,0.02937
3323.22816,0.02931
3321.29942,0.02903
3319.37067,0.02893
3317.44193,0.02915
3315.51318,0.02940
3313.58444,0.02953
3311.65569,0.02973
3309.72695,0.02991
3307.79820,0.02968
3305.86946,0.02930
3303.94071,0.02923
3302.01197,0.02925
3300.08322,0.02930
3298.15448,0.02950
3296.22573,0.02960
3294.29698,0.02943
3292.36824,0.02915
3290.43949,0.02919
3288.51075,0.02954
3286.58200,0.02974
3284.65326,0.02976
3282.72451,0.02975
3280.79577,0.02971
3278.86702,0.02977
3276.93828,0.02987
3275.00953,0.02982
3273.08079,0.02978
3271.15204,0.03000
3269.22330,0.03030
3267.29455,0.03028
3265.36581,0.03005
3263.43706,0.02998
3261.50831,0.03021
3259.57957,0.03047
3257.65082,0.03062
3255.72208,0.03091
3253.79333,0.03139
3251.86459,0.03182
3249.93584,0.03217
3248.00710,0.03248
3246.07835,0.03278
3244.14961,0.03306
3242.22086,0.03307
3240.29212,0.03272
3238.36337,0.03262
3236.43463,0.03311
3234.50588,0.03361
3232.57713,0.03377
3230.64839,0.03400
3228.71964,0.03448
3226.79090,0.03479
3224.86215,0.03493
3222.93341,0.03524
3221.00466,0.03554
3219.07592,0.03562
3217.14717,0.03568
3215.21843,0.03579
3213.28968,0.03592
3211.36094,0.03604
3209.43219,0.03596
3207.50345,0.03566
3205.57470,0.03546
3203.64596,0.03555
3201.71721,0.03571
3199.78846,0.03592
3197.85972,0.03629
3195.93097,0.03680
3194.00223,0.03718
3192.07348,0.03718
3190.14474,0.03706
3188.21599,0.03724
3186.28725,0.03743
3184.35850,0.03738
3182.42976,0.03755
3180.50101,0.03795
3178.57227,0.03812
3176.64352,0.03818
3174.71478,0.03842
3172.78603,0.03890
3170.85729,0.03949
3168.92854,0.03983
3166.99979,0.03970
3165.07105,0.03944
3163.14230,0.03959
3161.21356,0.04011
3159.28481,0.04048
3157.35607,0.04038
3155.42732,0.04015
3153.49858,0.04017
3151.56983,0.04042
3149.64109,0.04061
3147.71234,0.04056
3145.78360,0.04046
3143.85485,0.04062
3141.92611,0.04090
3139.99736,0.04104
3138.06861,0.04084
3136.13987,0.04044
3134.21112,0.04034
3132.28238,0.04051
3130.35363,0.04049
3128.42489,0.04044
3126.49614,0.04061
3124.56740,0.04073
3122.63865,0.04070
3120.70991,0.04071
3118.78116,0.04070
3116.85242,0.04056
3114.92367,0.04048
3112.99493,0.04059
3111.06618,0.04081
3109.13744,0.04094
3107.20869,0.04084
3105.27994,0.04042
3103.35120,0.03998
3101.42245,0.03976
3099.49371,0.03977
3097.56496,0.04006
3095.63622,0.04033
3093.70747,0.04020
3091.77873,0.03980
3089.84998,0.03929
3087.92124,0.03862
3085.99249,0.03802
3084.06375,0.03777
3082.13500,0.03786
3080.20626,0.03804
3078.27751,0.03815
3076.34877,0.03825
3074.42002,0.03831
3072.49127,0.03813
3070.56253,0.03783
3068.63378,0.03766
3066.70504,0.03741
3064.77629,0.03683
3062.84755,0.03633
3060.91880,0.03634
3058.99006,0.03665
3057.06131,0.03695
3055.13257,0.03720
3053.20382,0.03744
3051.27508,0.03764
3049.34633,0.03773
3047.41759,0.03770
3045.48884,0.03760
3043.56009,0.03751
3041.63135,0.03741
3039.70260,0.03722
3037.77386,0.03676
3035.84511,0.03606
3033.91637,0.03541
3031.98762,0.03495
3030.05888,0.03474
3028.13013,0.03481
3026.20139,0.03486
3024.27264,0.03475
3022.34390,0.03489
3020.41515,0.03552
3018.48641,0.03610
3016.55766,0.03624
3014.62892,0.03617
3012.70017,0.03610
3010.77142,0.03598
3008.84268,0.03564
3006.91393,0.03504
3004.98519,0.03433
3003.05644,0.03375
3001.12770,0.03335
2999.19895,0.03293
2997.27021,0.03233
2995.34146,0.03160
2993.41272,0.03087
2991.48397,0.03035
2989.55523,0.03009
2987.62648,0.02973
2985.69774,0.02906
2983.76899,0.02846
2981.84025,0.02819
2979.91150,0.02794
2977.98275,0.02756
2976.05401,0.02742
2974.12526,0.02757
2972.19652,0.02769
2970.26777,0.02769
2968.33903,0.02763
2966.41028,0.02751
2964.48154,0.02754
2962.55279,0.02781
2960.62405,0.02800
2958.69530,0.02809
2956.76656,0.02835
2954.83781,0.02850
2952.90907,0.02822
2950.98032,0.02777
2949.05157,0.02747
2947.12283,0.02736
2945.19408,0.02745
2943.26534,0.02761
2941.33659,0.02754
2939.40785,0.02711
2937.47910,0.02666
2935.55036,0.02654
2933.62161,0.02663
2931.69287,0.02672
2929.76412,0.02683
2927.83538,0.02699
2925.90663,0.02703
2923.97789,0.02689
2922.04914,0.02694
2920.12040,0.02727
2918.19165,0.02761
2916.26290,0.02780
2914.33416,0.02774
2912.40541,0.02761
2910.47667,0.02770
2908.54792,0.02790
2906.61918,0.02784
2904.69043,0.02754
2902.76169,0.02738
2900.83294,0.02755
2898.90420,0.02785
2896.97545,0.02813
2895.04671,0.02833
2893.11796,0.02839
2891.18922,0.02837
2889.26047,0.02835
2887.33172,0.02835
2885.40298,0.02836
2883.47423,0.02841
2881.54549,0.02851
2879.61674,0.02859
2877.68800,0.02857
2875.75925,0.02849
2873.83051,0.02843
2871.90176,0.02840
2869.97302,0.02846
2868.04427,0.02874
2866.11553,0.02916
2864.18678,0.02947
2862.25804,0.02949
2860.32929,0.02932
2858.40055,0.02925
2856.47180,0.02949
2854.54305,0.02982
2852.61431,0.03007
2850.68556,0.03046
2848.75682,0.03115
2846.82807,0.03186
2844.89933,0.03248
2842.97058,0.03302
2841.04184,0.03348
2839.11309,0.03409
2837.18435,0.03503
2835.25560,0.03595
2833.32686,0.03659
2831.39811,0.03710
2829.46937,0.03757
2827.54062,0.03803
2825.61188,0.03860
2823.68313,0.03922
2821.75438,0.03976
2819.82564,0.04020
2817.89689,0.04039
2815.96815,0.04046
2814.03940,0.04075
2812.11066,0.04126
2810.18191,0.04176
2808.25317,0.04206
2806.32442,0.04219
2804.39568,0.04242
2802.46693,0.04272
2800.53819,0.04300
2798.60944,0.04315
2796.68070,0.04316
2794.75195,0.04322
2792.82320,0.04346
2790.89446,0.04377
2788.96571,0.04403
2787.03697,0.04435
2785.10822,0.04484
2783.17948,0.04538
2781.25073,0.04561
2779.32199,0.04555
2777.39324,0.04569
2775.46450,0.04612
2773.53575,0.04656
2771.60701,0.04689
2769.67826,0.04715
2767.74952,0.04745
2765.82077,0.04779
2763.89203,0.04801
2761.96328,0.04804
2760.03453,0.04808
2758.10579,0.04821
2756.17704,0.04836
2754.24830,0.04854
2752.31955,0.04882
2750.39081,0.04914
2748.46206,0.04932
2746.53332,0.04927
2744.60457,0.04930
2742.67583,0.04956
2740.74708,0.04984
2738.81834,0.05017
2736.88959,0.05059
2734.96085,0.05092
2733.03210,0.05120
2731.10336,0.05158
2729.17461,0.05207
2727.24586,0.05261
2725.31712,0.05318
2723.38837,0.05369
2721.45963,0.05416
2719.53088,0.05466
2717.60214,0.05518
2715.67339,0.05563
2713.74465,0.05596
2711.81590,0.05634
2709.88716,0.05686
2707.95841,0.05737
2706.02967,0.05781
2704.10092,0.05828
2702.17218,0.05873
2700.24343,0.05906
2698.31468,0.05937
2696.38594,0.05993
2694.45719,0.06068
2692.52845,0.06130
2690.59970,0.06169
2688.67096,0.06209
2686.74221,0.06269
2684.81347,0.06333
2682.88472,0.06377
2680.95598,0.06393
2679.02723,0.06396
2677.09849,0.06409
2675.16974,0.06434
2673.24100,0.06455
2671.31225,0.06473
2669.38351,0.06494
2667.45476,0.06527
2665.52601,0.06577
2663.59727,0.06618
2661.66852,0.06642
2659.73978,0.06673
2657.81103,0.06704
2655.88229,0.06710
2653.95354,0.06712
2652.02480,0.06741
2650.09605,0.06779
2648.16731,0.06802
2646.23856,0.06818
2644.30982,0.06835
2642.38107,0.06838
2640.45233,0.06827
2638.52358,0.06827
2636.59484,0.06846
2634.66609,0.06868
2632.73734,0.06897
2630.80860,0.06939
2628.87985,0.06982
2626.95111,0.07013
2625.02236,0.07039
2623.09362,0.07083
2621.16487,0.07132
2619.23613,0.07157
2617.30738,0.07148
2615.37864,0.07136
2613.44989,0.07142
2611.52115,0.07151
2609.59240,0.07151
2607.66366,0.07167
2605.73491,0.07179
2603.80616,0.07145
2601.87742,0.07098
2599.94867,0.07088
2598.01993,0.07090
2596.09118,0.07079
2594.16244,0.07072
2592.23369,0.07077
2590.30495,0.07077
2588.37620,0.07075
2586.44746,0.07074
2584.51871,0.07074
2582.58997,0.07086
2580.66122,0.07117
2578.73248,0.07160
2576.80373,0.07209
2574.87499,0.07257
2572.94624,0.07293
2571.01749,0.07312
2569.08875,0.07330
2567.16000,0.07365
2565.23126,0.07410
2563.30251,0.07439
2561.37377,0.07463
2559.44502,0.07502
2557.51628,0.07546
2555.58753,0.07575
2553.65879,0.07598
2551.73004,0.07616
2549.80130,0.07610
2547.87255,0.07600
2545.94381,0.07618
2544.01506,0.07656
2542.08631,0.07687
2540.15757,0.07705
2538.22882,0.07722
2536.30008,0.07743
2534.37133,0.07761
2532.44259,0.07775
2530.51384,0.07780
2528.58510,0.07769
2526.65635,0.07752
2524.72761,0.07760
2522.79886,0.07794
2520.87012,0.07815
2518.94137,0.07809
2517.01263,0.07801
2515.08388,0.07807
2513.15514,0.07824
2511.22639,0.07839
2509.29764,0.07837
2507.36890,0.07825
2505.44015,0.07820
2503.51141,0.07830
2501.58266,0.07852
2499.65392,0.07872
2497.72517,0.07883
2495.79643,0.07893
2493.86768,0.07897
2491.93894,0.07894
2490.01019,0.07901
2488.08145,0.07923
2486.15270,0.07944
2484.22396,0.07968
2482.29521,0.08005
2480.36647,0.08050
2478.43772,0.08084
2476.50897,0.08091
2474.58023,0.08092
2472.65148,0.08119
2470.72274,0.08154
2468.79399,0.08157
2466.86525,0.08131
2464.93650,0.08119
2463.00776,0.08151
2461.07901,0.08193
2459.15027,0.08205
2457.22152,0.08202
2455.29278,0.08207
2453.36403,0.08207
2451.43529,0.08194
2449.50654,0.08195
2447.57779,0.08216
2445.64905,0.08231
2443.72030,0.08241
2441.79156,0.08257
2439.86281,0.08274
2437.93407,0.08288
2436.00532,0.08309
2434.07658,0.08339
2432.14783,0.08362
2430.21909,0.08375
2428.29034,0.08390
2426.36160,0.08398
2424.43285,0.08389
2422.50411,0.08382
2420.57536,0.08389
2418.64662,0.08390
2416.71787,0.08379
2414.78912,0.08358
2412.86038,0.08332
2410.93163,0.08317
2409.00289,0.08314
2407.07414,0.08313
2405.14540,0.08312
2403.21665,0.08303
2401.28791,0.08294
2399.35916,0.08299
2397.43042,0.08303
2395.50167,0.08290
2393.57293,0.08269
2391.64418,0.08255
2389.71544,0.08260
2387.78669,0.08277
2385.85795,0.08271
2383.92920,0.08240
2382.00045,0.08207
2380.07171,0.08187
2378.14296,0.08169
2376.21422,0.08153
2374.28547,0.08160
2372.35673,0.08177
2370.42798,0.08180
2368.49924,0.08177
2366.57049,0.08169
2364.64175,0.08155
2362.71300,0.08141
2360.78426,0.08129
2358.85551,0.08125
2356.92677,0.08125
2354.99802,0.08124
2353.06927,0.08118
2351.14053,0.08102
2349.21178,0.08079
2347.28304,0.08055
2345.35429,0.08028
2343.42555,0.08003
2341.49680,0.07994
2339.56806,0.08003
2337.63931,0.08026
2335.71057,0.08055
2333.78182,0.08082
2331.85308,0.08084
2329.92433,0.08055
2327.99559,0.08027
2326.06684,0.08021
2324.13810,0.08023
2322.20935,0.08014
2320.28060,0.07993
2318.35186,0.07972
2316.42311,0.07959
2314.49437,0.07950
2312.56562,0.07944
2310.63688,0.07930
2308.70813,0.07886
2306.77939,0.07841
2304.85064,0.07823
2302.92190,0.07800
2300.99315,0.07750
2299.06441,0.07699
2297.13566,0.07663
2295.20692,0.07627
2293.27817,0.07587
2291.34943,0.07548
2289.42068,0.07506
2287.49193,0.07462
2285.56319,0.07418
2283.63444,0.07374
2281.70570,0.07332
2279.77695,0.07297
2277.84821,0.07276
2275.91946,0.07270
2273.99072,0.07259
2272.06197,0.07239
2270.13323,0.07231
2268.20448,0.07238
2266.27574,0.07248
2264.34699,0.07261
2262.41825,0.07277
2260.48950,0.07286
2258.56075,0.07282
2256.63201,0.07265
2254.70326,0.07242
2252.77452,0.07205
2250.84577,0.07132
2248.91703,0.07017
2246.98828,0.06853
2245.05954,0.06646
2243.13079,0.06439
2241.20205,0.06278
2239.27330,0.06176
2237.34456,0.06153
2235.41581,0.06242
2233.48707,0.06448
2231.55832,0.06735
2229.62958,0.07039
2227.70083,0.07303
2225.77208,0.07502
2223.84334,0.07641
2221.91459,0.07734
2219.98585,0.07787
2218.05710,0.07823
2216.12836,0.07860
2214.19961,0.07890
2212.27087,0.07905
2210.34212,0.07908
2208.41338,0.07914
2206.48463,0.07922
2204.55589,0.07924
2202.62714,0.07927
2200.69840,0.07940
2198.76965,0.07963
2196.84090,0.07986
2194.91216,0.07996
2192.98341,0.07996
2191.05467,0.07993
2189.12592,0.07995
2187.19718,0.08003
2185.26843,0.08014
2183.33969,0.08030
2181.41094,0.08043
2179.48220,0.08047
2177.55345,0.08054
2175.62471,0.08077
2173.69596,0.08103
2171.76722,0.08112
2169.83847,0.08105
2167.90973,0.08097
2165.98098,0.08100
2164.05223,0.08107
2162.12349,0.08106
2160.19474,0.08098
2158.26600,0.08102
2156.33725,0.08126
2154.40851,0.08157
2152.47976,0.08172
2150.55102,0.08165
2148.62227,0.08151
2146.69353,0.08150
2144.76478,0.08163
2142.83604,0.08162
2140.90729,0.08137
2138.97855,0.08115
2137.04980,0.08120
2135.12106,0.08146
2133.19231,0.08176
2131.26356,0.08202
2129.33482,0.08209
2127.40607,0.08186
2125.47733,0.08153
2123.54858,0.08127
2121.61984,0.08107
2119.69109,0.08098
2117.76235,0.08103
2115.83360,0.08119
2113.90486,0.08140
2111.97611,0.08151
2110.04737,0.08141
2108.11862,0.08115
2106.18988,0.08089
2104.26113,0.08073
2102.33238,0.08059
2100.40364,0.08054
2098.47489,0.08056
2096.54615,0.08043
2094.61740,0.08027
2092.68866,0.08028
2090.75991,0.08029
2088.83117,0.08012
2086.90242,0.07994
2084.97368,0.07996
2083.04493,0.07999
2081.11619,0.07980
2079.18744,0.07951
2077.25870,0.07933
2075.32995,0.07921
2073.40121,0.07917
2071.47246,0.07930
2069.54371,0.07947
2067.61497,0.07941
2065.68622,0.07919
2063.75748,0.07901
2061.82873,0.07878
2059.89999,0.07862
2057.97124,0.07865
2056.04250,0.07869
2054.11375,0.07856
2052.18501,0.07836
2050.25626,0.07821
2048.32752,0.07804
2046.39877,0.07784
2044.47003,0.07767
2042.54128,0.07750
2040.61254,0.07724
2038.68379,0.07694
2036.75504,0.07669
2034.82630,0.07656
2032.89755,0.07641
2030.96881,0.07615
2029.04006,0.07584
2027.11132,0.07559
2025.18257,0.07538
2023.25383,0.07510
2021.32508,0.07484
2019.39634,0.07477
2017.46759,0.07469
2015.53885,0.07444
2013.61010,0.07419
2011.68136,0.07409
2009.75261,0.07411
2007.82386,0.07410
2005.89512,0.07399
2003.96637,0.07378
2002.03763,0.07358
2000.10888,0.07350
1998.18014,0.07346
1996.25139,0.07328
1994.32265,0.07298
1992.39390,0.07276
1990.46516,0.07260
1988.53641,0.07237
1986.60767,0.07212
1984.67892,0.07204
1982.75018,0.07213
1980.82143,0.07209
1978.89269,0.07188
1976.96394,0.07166
1975.03519,0.07138
1973.10645,0.07097
1971.17770,0.07054
1969.24896,0.07030
1967.32021,0.07007
1965.39147,0.06962
1963.46272,0.06926
1961.53398,0.06918
1959.60523,0.06902
1957.67649,0.06867
1955.74774,0.06839
1953.81900,0.06835
1951.89025,0.06843
1949.96151,0.06860
1948.03276,0.06889
1946.10402,0.06918
1944.17527,0.06940
1942.24652,0.06959
1940.31778,0.06983
1938.38903,0.07018
1936.46029,0.07062
1934.53154,0.07099
1932.60280,0.07123
1930.67405,0.07142
1928.74531,0.07155
1926.81656,0.07161
1924.88782,0.07162
1922.95907,0.07156
1921.03033,0.07148
1919.10158,0.07136
1917.17284,0.07116
1915.24409,0.07107
1913.31534,0.07105
1911.38660,0.07080
1909.45785,0.07042
1907.52911,0.07014
1905.60036,0.06990
1903.67162,0.06958
1901.74287,0.06919
1899.81413,0.06890
1897.88538,0.06878
1895.95664,0.06864
1894.02789,0.06840
1892.09915,0.06814
1890.17040,0.06804
1888.24166,0.06813
1886.31291,0.06821
1884.38417,0.06811
1882.45542,0.06797
1880.52667,0.06788
1878.59793,0.06796
1876.66918,0.06823
1874.74044,0.06850
1872.81169,0.06870
1870.88295,0.06900
1868.95420,0.06943
1867.02546,0.06981
1865.09671,0.07008
1863.16797,0.07027
1861.23922,0.07040
1859.31048,0.07052
1857.38173,0.07058
1855.45299,0.07052
1853.52424,0.07033
1851.59549,0.07003
1849.66675,0.06972
1847.73800,0.06945
1845.80926,0.06912
1843.88051,0.06867
1841.95177,0.06828
1840.02302,0.06797
1838.09428,0.06753
1836.16553,0.06685
1834.23679,0.06594
1832.30804,0.06497
1830.37930,0.06427
1828.45055,0.06393
1826.52181,0.06355
1824.59306,0.06282
1822.66432,0.06188
1820.73557,0.06107
1818.80682,0.06053
1816.87808,0.06007
1814.94933,0.05937
1813.02059,0.05855
1811.09184,0.05788
1809.16310,0.05742
1807.23435,0.05696
1805.30561,0.05640
1803.37686,0.05586
1801.44812,0.05530
1799.51937,0.05474
1797.59063,0.05432
1795.66188,0.05399
1793.73314,0.05359
1791.80439,0.05308
1789.87565,0.05245
1787.94690,0.05176
1786.01815,0.05114
1784.08941,0.05060
1782.16066,0.04999
1780.23192,0.04930
1778.30317,0.04866
1776.37443,0.04821
1774.44568,0.04773
1772.51694,0.04691
1770.58819,0.04584
1768.65945,0.04483
1766.73070,0.04392
1764.80196,0.04298
1762.87321,0.04187
1760.94447,0.04053
1759.01572,0.03908
1757.08697,0.03752
1755.15823,0.03584
1753.22948,0.03401
1751.30074,0.03201
1749.37199,0.03025
1747.44325,0.02898
1745.51450,0.02800
1743.58576,0.02728
1741.65701,0.02680
1739.72827,0.02655
1737.79952,0.02642
1735.87078,0.02631
1733.94203,0.02624
1732.01329,0.02630
1730.08454,0.02648
1728.15580,0.02675
1726.22705,0.02705
1724.29830,0.02720
1722.36956,0.02708
1720.44081,0.02695
1718.51207,0.02713
1716.58332,0.02742
1714.65458,0.02746
1712.72583,0.02732
1710.79709,0.02716
1708.86834,0.02718
1706.93960,0.02735
1705.01085,0.02746
1703.08211,0.02752
1701.15336,0.02768
1699.22462,0.02781
1697.29587,0.02777
1695.36713,0.02763
1693.43838,0.02758
1691.50963,0.02770
1689.58089,0.02786
1687.65214,0.02805
1685.72340,0.02813
1683.79465,0.02775
1681.86591,0.02726
1679.93716,0.02715
1678.00842,0.02721
1676.07967,0.02734
1674.15093,0.02761
1672.22218,0.02775
1670.29344,0.02742
1668.36469,0.02693
1666.43595,0.02659
1664.50720,0.02635
1662.57845,0.02633
1660.64971,0.02651
1658.72096,0.02660
1656.79222,0.02648
1654.86347,0.02622
1652.93473,0.02593
1651.00598,0.02581
1649.07724,0.02589
1647.14849,0.02598
1645.21975,0.02606
1643.29100,0.02634
1641.36226,0.02685
1639.43351,0.02739
1637.50477,0.02789
1635.57602,0.02834
1633.64728,0.02855
1631.71853,0.02860
1629.78978,0.02872
1627.86104,0.02889
1625.93229,0.02885
1624.00355,0.02851
1622.07480,0.02821
1620.14606,0.02810
1618.21731,0.02792
1616.28857,0.02743
1614.35982,0.02691
1612.43108,0.02667
1610.50233,0.02649
1608.57359,0.02625
1606.64484,0.02610
1604.71610,0.02607
1602.78735,0.02614
1600.85861,0.02627
1598.92986,0.02640
1597.00111,0.02658
1595.07237,0.02691
1593.14362,0.02721
1591.21488,0.02730
1589.28613,0.02742
1587.35739,0.02762
1585.42864,0.02765
1583.49990,0.02766
1581.57115,0.02792
1579.64241,0.02820
1577.71366,0.02806
1575.78492,0.02751
1573.85617,0.02694
1571.92743,0.02650
1569.99868,0.02617
1568.06993,0.02586
1566.14119,0.02547
1564.21244,0.02509
1562.28370,0.02480
1560.35495,0.02452
1558.42621,0.02425
1556.49746,0.02439
1554.56872,0.02464
1552.63997,0.02466
1550.71123,0.02455
1548.78248,0.02452
1546.85374,0.02459
1544.92499,0.02468
1542.99625,0.02490
1541.06750,0.02534
1539.13876,0.02564
1537.21001,0.02572
1535.28126,0.02589
1533.35252,0.02618
1531.42377,0.02652
1529.49503,0.02692
1527.56628,0.02726
1525.63754,0.02737
1523.70879,0.02736
1521.78005,0.02750
1519.85130,0.02773
1517.92256,0.02780
1515.99381,0.02769
1514.06507,0.02764
1512.13632,0.02785
1510.20758,0.02821
1508.27883,0.02840
1506.35008,0.02830
1504.42134,0.02828
1502.49259,0.02856
1500.56385,0.02896
1498.63510,0.02911
1496.70636,0.02893
1494.77761,0.02891
1492.84887,0.02926
1490.92012,0.02969
1488.99138,0.02995
1487.06263,0.02991
1485.13389,0.02957
1483.20514,0.02910
1481.27640,0.02873
1479.34765,0.02851
1477.41891,0.02849
1475.49016,0.02859
1473.56141,0.02851
1471.63267,0.02824
1469.70392,0.02804
1467.77518,0.02785
1465.84643,0.02768
1463.91769,0.02776
1461.98894,0.02796
1460.06020,0.02791
1458.13145,0.02753
1456.20271,0.02714
1454.27396,0.02712
1452.34522,0.02738
1450.41647,0.02759
1448.48773,0.02762
1446.55898,0.02774
1444.63024,0.02817
1442.70149,0.02878
1440.77274,0.02919
1438.84400,0.02927
1436.91525,0.02938
1434.98651,0.02970
1433.05776,0.02998
1431.12902,0.03006
1429.20027,0.03002
1427.27153,0.02995
1425.34278,0.02975
1423.41404,0.02948
1421.48529,0.02920
1419.55655,0.02887
1417.62780,0.02863
1415.69906,0.02856
1413.77031,0.02855
1411.84156,0.02859
1409.91282,0.02867
1407.98407,0.02886
1406.05533,0.02916
1404.12658,0.02938
1402.19784,0.02943
1400.26909,0.02940
1398.34035,0.02931
1396.41160,0.02921
1394.48286,0.02910
1392.55411,0.02894
1390.62537,0.02884
1388.69662,0.02877
1386.76788,0.02854
1384.83913,0.02817
1382.91039,0.02778
1380.98164,0.02749
1379.05289,0.02730
1377.12415,0.02713
1375.19540,0.02713
1373.26666,0.02750
1371.33791,0.02795
1369.40917,0.02831
1367.48042,0.02877
1365.55168,0.02935
1363.62293,0.02985
1361.69419,0.02997
1359.76544,0.02977
1357.83670,0.02955
1355.90795,0.02938
1353.97921,0.02920
1352.05046,0.02903
1350.12172,0.02882
1348.19297,0.02859
1346.26422,0.02841
1344.33548,0.02831
1342.40673,0.02828
1340.47799,0.02830
1338.54924,0.02840
1336.62050,0.02853
1334.69175,0.02855
1332.76301,0.02844
1330.83426,0.02827
1328.90552,0.02803
1326.97677,0.02782
1325.04803,0.02780
1323.11928,0.02768
1321.19054,0.02720
1319.26179,0.02666
1317.33304,0.02644
1315.40430,0.02642
1313.47555,0.02630
1311.54681,0.02608
1309.61806,0.02603
1307.68932,0.02619
1305.76057,0.02632
1303.83183,0.02629
1301.90308,0.02621
1299.97434,0.02617
1298.04559,0.02617
1296.11685,0.02634
1294.18810,0.02667
1292.25936,0.02691
1290.33061,0.02696
1288.40187,0.02697
1286.47312,0.02693
1284.54437,0.02683
1282.61563,0.02676
1280.68688,0.02668
1278.75814,0.02659
1276.82939,0.02663
1274.90065,0.02676
1272.97190,0.02686
1271.04316,0.02689
1269.11441,0.02685
1267.18567,0.02666
1265.25692,0.02628
1263.32818,0.02595
1261.39943,0.02590
1259.47069,0.02613
1257.54194,0.02631
1255.61320,0.02623
1253.68445,0.02598
1251.75570,0.02576
1249.82696,0.02574
1247.89821,0.02575
1245.96947,0.02547
1244.04072,0.02519
1242.11198,0.02520
1240.18323,0.02536
1238.25449,0.02550
1236.32574,0.02563
1234.39700,0.02575
1232.46825,0.02575
1230.53951,0.02568
1228.61076,0.02569
1226.68202,0.02589
1224.75327,0.02618
1222.82452,0.02643
1220.89578,0.02657
1218.96703,0.02670
1217.03829,0.02698
1215.10954,0.02739
1213.18080,0.02771
1211.25205,0.02780
1209.32331,0.02763
1207.39456,0.02742
1205.46582,0.02756
1203.53707,0.02800
1201.60833,0.02819
1199.67958,0.02793
1197.75084,0.02770
1195.82209,0.02768
1193.89335,0.02763
1191.96460,0.02754
1190.03585,0.02756
1188.10711,0.02760
1186.17836,0.02750
1184.24962,0.02737
1182.32087,0.02727
1180.39213,0.02713
1178.46338,0.02696
1176.53464,0.02678
1174.60589,0.02664
1172.67715,0.02656
1170.74840,0.02646
1168.81966,0.02638
1166.89091,0.02632
1164.96217,0.02620
1163.03342,0.02607
1161.10467,0.02593
1159.17593,0.02570
1157.24718,0.02551
1155.31844,0.02550
1153.38969,0.02544
1151.46095,0.02525
1149.53220,0.02505
1147.60346,0.02491
1145.67471,0.02485
1143.74597,0.02503
1141.81722,0.02550
1139.88848,0.02584
1137.95973,0.02574
1136.03099,0.02553
1134.10224,0.02560
1132.17350,0.02569
1130.24475,0.02573
1128.31600,0.02610
1126.38726,0.02670
1124.45851,0.02695
1122.52977,0.02670
1120.60102,0.02653
1118.67228,0.02669
1116.74353,0.02701
1114.81479,0.02751
1112.88604,0.02800
1110.95730,0.02821
1109.02855,0.02833
1107.09981,0.02854
1105.17106,0.02875
1103.24232,0.02892
1101.31357,0.02898
1099.38483,0.02899
1097.45608,0.02927
1095.52733,0.02968
1093.59859,0.02978
1091.66984,0.02968
1089.74110,0.02975
1087.81235,0.02992
1085.88361,0.02998
1083.95486,0.03020
1082.02612,0.03063
1080.09737,0.03083
1078.16863,0.03079
1076.23988,0.03093
1074.31114,0.03128
1072.38239,0.03167
1070.45365,0.03201
1068.52490,0.03216
1066.59615,0.03222
1064.66741,0.03229
1062.73866,0.03210
1060.80992,0.03178
1058.88117,0.03176
1056.95243,0.03194
1055.02368,0.03197
1053.09494,0.03185
1051.16619,0.03188
1049.23745,0.03236
1047.30870,0.03293
1045.37996,0.03295
1043.45121,0.03250
1041.52247,0.03213
1039.59372,0.03210
1037.66498,0.03241
1035.73623,0.03282
1033.80748,0.03290
1031.87874,0.03270
1029.94999,0.03266
1028.02125,0.03286
1026.09250,0.03293
1024.16376,0.03276
1022.23501,0.03281
1020.30627,0.03323
1018.37752,0.03360
1016.44878,0.03379
1014.52003,0.03390
1012.59129,0.03400
1010.66254,0.03407
1008.73380,0.03411
1006.80505,0.03420
1004.87631,0.03435
1002.94756,0.03453
1001.01881,0.03475
999.09007,0.03483
997.16132,0.03485
995.23258,0.03523
993.30383,0.03596
991.37509,0.03660
989.44634,0.03690
987.51760,0.03697
985.58885,0.03713
983.66011,0.03746
981.73136,0.03762
979.80262,0.03742
977.87387,0.03719
975.94513,0.03718
974.01638,0.03721
972.08763,0.03713
970.15889,0.03711
968.23014,0.03719
966.30140,0.03726
964.37265,0.03735
962.44391,0.03745
960.51516,0.03760
958.58642,0.03799
956.65767,0.03851
954.72893,0.03883
952.80018,0.03876
950.87144,0.03846
948.94269,0.03825
947.01395,0.03810
945.08520,0.03773
943.15646,0.03712
941.22771,0.03656
939.29896,0.03637
937.37022,0.03638
935.44147,0.03616
933.51273,0.03582
931.58398,0.03569
929.65524,0.03577
927.72649,0.03587
925.79775,0.03594
923.86900,0.03605
921.94026,0.03617
920.01151,0.03628
918.08277,0.03652
916.15402,0.03679
914.22528,0.03691
912.29653,0.03682
910.36779,0.03674
908.43904,0.03698
906.51029,0.03762
904.58155,0.03848
902.65280,0.03925
900.72406,0.03976
898.79531,0.04009
896.86657,0.04029
894.93782,0.04032
893.00908,0.04015
891.08033,0.03975
889.15159,0.03914
887.22284,0.03856
885.29410,0.03803
883.36535,0.03737
881.43661,0.03684
879.50786,0.03658
877.57911,0.03623
875.65037,0.03577
873.72162,0.03552
871.79288,0.03569
869.86413,0.03611
867.93539,0.03644
866.00664,0.03661
864.07790,0.03684
862.14915,0.03719
860.22041,0.03733
858.29166,0.03735
856.36292,0.03753
854.43417,0.03761
852.50543,0.03760
850.57668,0.03778
848.64794,0.03805
846.71919,0.03828
844.79044,0.03843
842.86170,0.03827
840.93295,0.03766
839.00421,0.03707
837.07546,0.03718
835.14672,0.03757
833.21797,0.03737
831.28923,0.03670
829.36048,0.03624
827.43174,0.03602
825.50299,0.03557
823.57425,0.03492
821.64550,0.03436
819.71676,0.03398
817.78801,0.03395
815.85926,0.03420
813.93052,0.03450
812.00177,0.03479
810.07303,0.03496
808.14428,0.03511
806.21554,0.03555
804.28679,0.03620
802.35805,0.03672
800.42930,0.03691
798.50056,0.03683
796.57181,0.03681
794.64307,0.03709
792.71432,0.03752
790.78558,0.03775
788.85683,0.03754
786.92809,0.03692
784.99934,0.03627
783.07059,0.03586
781.14185,0.03553
779.21310,0.03515
777.28436,0.03463
775.35561,0.03381
773.42687,0.03299
771.49812,0.03246
769.56938,0.03209
767.64063,0.03190
765.71189,0.03179
763.78314,0.03153
761.85440,0.03141
759.92565,0.03167
757.99691,0.03212
756.06816,0.03269
754.13942,0.03339
752.21067,0.03418
750.28192,0.03486
748.35318,0.03525
746.42443,0.03556
744.49569,0.03609
742.56694,0.03665
740.63820,0.03695
738.70945,0.03696
736.78071,0.03702
734.85196,0.03748
732.92322,0.03816
730.99447,0.03871
729.06573,0.03903
727.13698,0.03898
725.20824,0.03848
723.27949,0.03775
721.35074,0.03698
719.42200,0.03605
717.49325,0.03485
715.56451,0.03367
713.63576,0.03261
711.70702,0.03138
709.77827,0.03008
707.84953,0.02924
705.92078,0.02920
703.99204,0.02982
702.06329,0.03065
700.13455,0.03157
698.20580,0.03287
696.27706,0.03446
694.34831,0.03560
692.41957,0.03602
690.49082,0.03619
688.56207,0.03624
686.63333,0.03606
684.70458,0.03592
682.77584,0.03593
680.84709,0.03594
678.91835,0.03582
676.98960,0.03543
675.06086,0.03496
673.13211,0.03482
671.20337,0.03506
669.27462,0.03526
667.34588,0.03509
665.41713,0.03476
663.48839,0.03496
661.55964,0.03567
659.63090,0.03629
657.70215,0.03641
655.77340,0.03625
653.84466,0.03649
651.91591,0.03701
649.98717,0.03701
648.05842,0.03665
646.12968,0.03653
644.20093,0.03651
642.27219,0.03645
640.34344,0.03678
638.41470,0.03718
636.48595,0.03711
634.55721,0.03705
632.62846,0.03755
630.69972,0.03836
628.77097,0.03838
626.84222,0.03746
624.91348,0.03659
622.98473,0.03605
621.05599,0.03629
619.12724,0.03741
617.19850,0.03808
615.26975,0.03783
613.34101,0.03728
611.41226,0.03676
609.48352,0.03649
607.55477,0.03616
605.62603,0.03561
603.69728,0.03580
601.76854,0.03686
599.83979,0.03741
