7497.03301,0.09730
7495.10426,0.09582
7493.17552,0.09417
7491.24677,0.09429
7489.31803,0.09483
7487.38928,0.09329
7485.46054,0.09073
7483.53179,0.09108
7481.60305,0.09093
7479.67430,0.08843
7477.74556,0.08841
7475.81681,0.09216
7473.88807,0.09488
7471.95932,0.09303
7470.03057,0.09081
7468.10183,0.09144
7466.17308,0.09118
7464.24434,0.09115
7462.31559,0.09510
7460.38685,0.09861
7458.45810,0.09839
7456.52936,0.09764
7454.60061,0.09598
7452.67187,0.09200
7450.74312,0.08768
7448.81438,0.08708
7446.88563,0.09087
7444.95689,0.09305
7443.02814,0.09064
7441.09940,0.08928
7439.17065,0.09080
7437.24190,0.09187
7435.31316,0.09279
7433.38441,0.09548
7431.45567,0.09767
7429.52692,0.09827
7427.59818,0.09928
7425.66943,0.10257
7423.74069,0.10589
7421.81194,0.10338
7419.88320,0.09474
7417.95445,0.08792
7416.02571,0.08827
7414.09696,0.09300
7412.16822,0.09637
7410.23947,0.09549
7408.31073,0.09146
7406.38198,0.08816
7404.45323,0.08868
7402.52449,0.09160
7400.59574,0.09422
7398.66700,0.09703
7396.73825,0.09937
7394.80951,0.09831
7392.88076,0.09506
7390.95202,0.09408
7389.02327,0.09559
7387.09453,0.09734
7385.16578,0.09776
7383.23704,0.09516
7381.30829,0.09139
7379.37955,0.09126
7377.45080,0.09464
7375.52205,0.09664
7373.59331,0.09563
7371.66456,0.09499
7369.73582,0.09586
7367.80707,0.09535
7365.87833,0.09269
7363.94958,0.09271
7362.02084,0.09764
7360.09209,0.10263
7358.16335,0.10471
7356.23460,0.10477
7354.30586,0.10406
7352.37711,0.10390
7350.44837,0.10184
7348.51962,0.09691
7346.59088,0.09410
7344.66213,0.09505
7342.73338,0.09621
7340.80464,0.09637
7338.87589,0.09624
7336.94715,0.09756
7335.01840,0.09875
7333.08966,0.09449
7331.16091,0.08738
7329.23217,0.08593
7327.30342,0.08941
7325.37468,0.09095
7323.44593,0.09135
7321.51719,0.09390
7319.58844,0.09564
7317.65970,0.09458
7315.73095,0.09355
7313.80221,0.09482
7311.87346,0.09643
7309.94471,0.09665
7308.01597,0.09596
7306.08722,0.09401
7304.15848,0.09175
7302.22973,0.09122
7300.30099,0.09174
7298.37224,0.09212
7296.44350,0.09167
7294.51475,0.09071
7292.58601,0.09227
7290.65726,0.09636
7288.72852,0.09754
7286.79977,0.09506
7284.87103,0.09285
7282.94228,0.09195
7281.01353,0.09295
7279.08479,0.09558
7277.15604,0.09596
7275.22730,0.09313
7273.29855,0.08905
7271.36981,0.08639
7269.44106,0.08732
7267.51232,0.09000
7265.58357,0.09116
7263.65483,0.09051
7261.72608,0.09054
7259.79734,0.09311
7257.86859,0.09546
7255.93985,0.09643
7254.01110,0.09739
7252.08236,0.09610
7250.15361,0.09159
7248.22486,0.08864
7246.29612,0.09029
7244.36737,0.09263
7242.43863,0.09247
7240.50988,0.09315
7238.58114,0.09532
7236.65239,0.09619
7234.72365,0.09716
7232.79490,0.10027
7230.86616,0.10105
7228.93741,0.09773
7227.00867,0.09499
7225.07992,0.09416
7223.15118,0.09331
7221.22243,0.09110
7219.29369,0.08807
7217.36494,0.08628
7215.43619,0.08531
7213.50745,0.08568
7211.57870,0.08866
7209.64996,0.09102
7207.72121,0.08964
7205.79247,0.08740
7203.86372,0.08807
7201.93498,0.09084
7200.00623,0.09314
7198.07749,0.09449
7196.14874,0.09355
7194.22000,0.09113
7192.29125,0.09199
7190.36251,0.09567
7188.43376,0.09585
7186.50501,0.09193
7184.57627,0.08848
7182.64752,0.08813
7180.71878,0.09134
7178.79003,0.09530
7176.86129,0.09643
7174.93254,0.09574
7173.00380,0.09480
7171.07505,0.09359
7169.14631,0.09237
7167.21756,0.09160
7165.28882,0.09155
7163.36007,0.09271
7161.43133,0.09503
7159.50258,0.09675
7157.57384,0.09600
7155.64509,0.09424
7153.71634,0.09363
7151.78760,0.09343
7149.85885,0.09161
7147.93011,0.09013
7146.00136,0.09081
7144.07262,0.09111
7142.14387,0.09073
7140.21513,0.09199
7138.28638,0.09378
7136.35764,0.09467
7134.42889,0.09584
7132.50015,0.09833
7130.57140,0.10075
7128.64266,0.09964
7126.71391,0.09410
7124.78516,0.08909
7122.85642,0.08943
7120.92767,0.09473
7118.99893,0.09924
7117.07018,0.09818
7115.14144,0.09465
7113.21269,0.09415
7111.28395,0.09575
7109.35520,0.09508
7107.42646,0.09221
7105.49771,0.09183
7103.56897,0.09426
7101.64022,0.09544
7099.71148,0.09513
7097.78273,0.09534
7095.85399,0.09634
7093.92524,0.09725
7091.99649,0.09543
7090.06775,0.09105
7088.13900,0.08830
7086.21026,0.08840
7084.28151,0.08909
7082.35277,0.08915
7080.42402,0.08948
7078.49528,0.09085
7076.56653,0.09233
7074.63779,0.09457
7072.70904,0.09780
7070.78030,0.09937
7068.85155,0.09863
7066.92281,0.09767
7064.99406,0.09700
7063.06532,0.09595
7061.13657,0.09531
7059.20782,0.09571
7057.27908,0.09586
7055.35033,0.09550
7053.42159,0.09412
7051.49284,0.09052
7049.56410,0.08785
7047.63535,0.09016
7045.70661,0.09431
7043.77786,0.09518
7041.84912,0.09315
7039.92037,0.09145
7037.99163,0.09204
7036.06288,0.09315
7034.13414,0.09132
7032.20539,0.08768
7030.27664,0.08694
7028.34790,0.08977
7026.41915,0.09322
7024.49041,0.09685
7022.56166,0.09863
7020.63292,0.09556
7018.70417,0.09161
7016.77543,0.09119
7014.84668,0.09262
7012.91794,0.09344
7010.98919,0.09410
7009.06045,0.09448
7007.13170,0.09255
7005.20296,0.08983
7003.27421,0.08966
7001.34547,0.09200
6999.41672,0.09526
6997.48797,0.09798
6995.55923,0.09793
6993.63048,0.09629
6991.70174,0.09654
6989.77299,0.09765
6987.84425,0.09823
6985.91550,0.09847
6983.98676,0.09699
6982.05801,0.09561
6980.12927,0.09571
6978.20052,0.09520
6976.27178,0.09372
6974.34303,0.09264
6972.41429,0.09288
6970.48554,0.09374
6968.55680,0.09399
6966.62805,0.09405
6964.69930,0.09474
6962.77056,0.09597
6960.84181,0.09762
6958.91307,0.09913
6956.98432,0.09830
6955.05558,0.09437
6953.12683,0.09063
6951.19809,0.09109
6949.26934,0.09424
6947.34060,0.09571
6945.41185,0.09509
6943.48311,0.09450
6941.55436,0.09498
6939.62562,0.09489
6937.69687,0.09305
6935.76812,0.09239
6933.83938,0.09356
6931.91063,0.09334
6929.98189,0.09240
6928.05314,0.09406
6926.12440,0.09602
6924.19565,0.09533
6922.26691,0.09389
6920.33816,0.09401
6918.40942,0.09535
6916.48067,0.09517
6914.55193,0.09382
6912.62318,0.09460
6910.69444,0.09690
6908.76569,0.09853
6906.83695,0.09859
6904.90820,0.09782
6902.97945,0.09773
6901.05071,0.09735
6899.12196,0.09697
6897.19322,0.09943
6895.26447,0.10293
6893.33573,0.10259
6891.40698,0.09872
6889.47824,0.09678
6887.54949,0.09910
6885.62075,0.10169
6883.69200,0.10133
6881.76326,0.09872
6879.83451,0.09533
6877.90577,0.09458
6875.97702,0.09778
6874.04828,0.09920
6872.11953,0.09562
6870.19078,0.09276
6868.26204,0.09339
6866.33329,0.09353
6864.40455,0.09250
6862.47580,0.09219
6860.54706,0.09239
6858.61831,0.09154
6856.68957,0.09003
6854.76082,0.09090
6852.83208,0.09372
6850.90333,0.09580
6848.97459,0.09680
6847.04584,0.09636
6845.11710,0.09538
6843.18835,0.09614
6841.25960,0.09662
6839.33086,0.09405
6837.40211,0.09092
6835.47337,0.08983
6833.54462,0.09032
6831.61588,0.09290
6829.68713,0.09664
6827.75839,0.09801
6825.82964,0.09640
6823.90090,0.09378
6821.97215,0.09223
6820.04341,0.09372
6818.11466,0.09743
6816.18592,0.10035
6814.25717,0.10048
6812.32843,0.09855
6810.39968,0.09671
6808.47093,0.09608
6806.54219,0.09547
6804.61344,0.09436
6802.68470,0.09432
6800.75595,0.09453
6798.82721,0.09346
6796.89846,0.09339
6794.96972,0.09517
6793.04097,0.09712
6791.11223,0.09773
6789.18348,0.09631
6787.25474,0.09402
6785.32599,0.09300
6783.39725,0.09273
6781.46850,0.09209
6779.53975,0.09312
6777.61101,0.09516
6775.68226,0.09494
6773.75352,0.09358
6771.82477,0.09236
6769.89603,0.09117
6767.96728,0.09118
6766.03854,0.09174
6764.10979,0.09137
6762.18105,0.09147
6760.25230,0.09174
6758.32356,0.09102
6756.39481,0.09171
6754.46607,0.09382
6752.53732,0.09535
6750.60858,0.09665
6748.67983,0.09706
6746.75108,0.09614
6744.82234,0.09601
6742.89359,0.09713
6740.96485,0.09727
6739.03610,0.09575
6737.10736,0.09361
6735.17861,0.09220
6733.24987,0.09159
6731.32112,0.09172
6729.39238,0.09411
6727.46363,0.09585
6725.53489,0.09360
6723.60614,0.09145
6721.67740,0.09190
6719.74865,0.09327
6717.81991,0.09492
6715.89116,0.09576
6713.96241,0.09533
6712.03367,0.09559
6710.10492,0.09669
6708.17618,0.09624
6706.24743,0.09376
6704.31869,0.09229
6702.38994,0.09415
6700.46120,0.09738
6698.53245,0.09933
6696.60371,0.09865
6694.67496,0.09476
6692.74622,0.09109
6690.81747,0.09117
6688.88873,0.09277
6686.95998,0.09311
6685.03123,0.09403
6683.10249,0.09611
6681.17374,0.09666
6679.24500,0.09576
6677.31625,0.09543
6675.38751,0.09555
6673.45876,0.09606
6671.53002,0.09675
6669.60127,0.09554
6667.67253,0.09191
6665.74378,0.08891
6663.81504,0.08909
6661.88629,0.09109
6659.95755,0.09279
6658.02880,0.09401
6656.10006,0.09460
6654.17131,0.09490
6652.24256,0.09474
6650.31382,0.09418
6648.38507,0.09434
6646.45633,0.09356
6644.52758,0.09242
6642.59884,0.09383
6640.67009,0.09487
6638.74135,0.09385
6636.81260,0.09357
6634.88386,0.09452
6632.95511,0.09534
6631.02637,0.09539
6629.09762,0.09500
6627.16888,0.09463
6625.24013,0.09414
6623.31139,0.09320
6621.38264,0.09197
6619.45389,0.09145
6617.52515,0.09243
6615.59640,0.09412
6613.66766,0.09428
6611.73891,0.09200
6609.81017,0.08976
6607.88142,0.09026
6605.95268,0.09303
6604.02393,0.09588
6602.09519,0.09664
6600.16644,0.09511
6598.23770,0.09362
6596.30895,0.09321
6594.38021,0.09315
6592.45146,0.09425
6590.52271,0.09609
6588.59397,0.09597
6586.66522,0.09442
6584.73648,0.09450
6582.80773,0.09590
6580.87899,0.09611
6578.95024,0.09539
6577.02150,0.09509
6575.09275,0.09499
6573.16401,0.09480
6571.23526,0.09503
6569.30652,0.09559
6567.37777,0.09541
6565.44903,0.09447
6563.52028,0.09479
6561.59154,0.09616
6559.66279,0.09517
6557.73404,0.09270
6555.80530,0.09324
6553.87655,0.09591
6551.94781,0.09640
6550.01906,0.09519
6548.09032,0.09520
6546.16157,0.09566
6544.23283,0.09525
6542.30408,0.09503
6540.37534,0.09586
6538.44659,0.09772
6536.51785,0.09837
6534.58910,0.09635
6532.66036,0.09517
6530.73161,0.09629
6528.80287,0.09640
6526.87412,0.09596
6524.94537,0.09700
6523.01663,0.09754
6521.08788,0.09657
6519.15914,0.09601
6517.23039,0.09615
6515.30165,0.09651
6513.37290,0.09684
6511.44416,0.09587
6509.51541,0.09365
6507.58667,0.09222
6505.65792,0.09255
6503.72918,0.09392
6501.80043,0.09494
6499.87169,0.09504
6497.94294,0.09432
6496.01419,0.09329
6494.08545,0.09310
6492.15670,0.09416
6490.22796,0.09589
6488.29921,0.09745
6486.37047,0.09793
6484.44172,0.09753
6482.51298,0.09674
6480.58423,0.09572
6478.65549,0.09461
6476.72674,0.09420
6474.79800,0.09471
6472.86925,0.09484
6470.94051,0.09404
6469.01176,0.09363
6467.08302,0.09445
6465.15427,0.09517
6463.22552,0.09417
6461.29678,0.09240
6459.36803,0.09187
6457.43929,0.09276
6455.51054,0.09309
6453.58180,0.09169
6451.65305,0.09126
6449.72431,0.09391
6447.79556,0.09648
6445.86682,0.09694
6443.93807,0.09705
6442.00933,0.09718
6440.08058,0.09638
6438.15184,0.09540
6436.22309,0.09588
6434.29434,0.09675
6432.36560,0.09550
6430.43685,0.09369
6428.50811,0.09429
6426.57936,0.09642
6424.65062,0.09770
6422.72187,0.09796
6420.79313,0.09724
6418.86438,0.09512
6416.93564,0.09292
6415.00689,0.09185
6413.07815,0.09134
6411.14940,0.09158
6409.22066,0.09375
6407.29191,0.09674
6405.36317,0.09747
6403.43442,0.09530
6401.50567,0.09324
6399.57693,0.09403
6397.64818,0.09667
6395.71944,0.09861
6393.79069,0.09885
6391.86195,0.09838
6389.93320,0.09856
6388.00446,0.09890
6386.07571,0.09833
6384.14697,0.09720
6382.21822,0.09631
6380.28948,0.09552
6378.36073,0.09481
6376.43199,0.09508
6374.50324,0.09563
6372.57450,0.09514
6370.64575,0.09442
6368.71700,0.09456
6366.78826,0.09521
6364.85951,0.09609
6362.93077,0.09662
6361.00202,0.09631
6359.07328,0.09641
6357.14453,0.09649
6355.21579,0.09548
6353.28704,0.09513
6351.35830,0.09505
6349.42955,0.09353
6347.50081,0.09222
6345.57206,0.09276
6343.64332,0.09489
6341.71457,0.09729
6339.78582,0.09854
6337.85708,0.09893
6335.92833,0.09888
6333.99959,0.09792
6332.07084,0.09628
6330.14210,0.09473
6328.21335,0.09373
6326.28461,0.09325
6324.35586,0.09333
6322.42712,0.09466
6320.49837,0.09608
6318.56963,0.09584
6316.64088,0.09521
6314.71214,0.09528
6312.78339,0.09538
6310.85465,0.09587
6308.92590,0.09668
6306.99715,0.09730
6305.06841,0.09856
6303.13966,0.10005
6301.21092,0.10020
6299.28217,0.09982
6297.35343,0.09947
6295.42468,0.09783
6293.49594,0.09603
6291.56719,0.09599
6289.63845,0.09639
6287.70970,0.09607
6285.78096,0.09494
6283.85221,0.09382
6281.92347,0.09476
6279.99472,0.09640
6278.06598,0.09578
6276.13723,0.09436
6274.20848,0.09522
6272.27974,0.09754
6270.35099,0.09778
6268.42225,0.09525
6266.49350,0.09301
6264.56476,0.09304
6262.63601,0.09382
6260.70727,0.09390
6258.77852,0.09368
6256.84978,0.09359
6254.92103,0.09409
6252.99229,0.09488
6251.06354,0.09434
6249.13480,0.09324
6247.20605,0.09434
6245.27730,0.09710
6243.34856,0.09947
6241.41981,0.10062
6239.49107,0.09947
6237.56232,0.09748
6235.63358,0.09760
6233.70483,0.09891
6231.77609,0.09853
6229.84734,0.09660
6227.91860,0.09580
6225.98985,0.09677
6224.06111,0.09750
6222.13236,0.09711
6220.20362,0.09633
6218.27487,0.09627
6216.34613,0.09726
6214.41738,0.09788
6212.48863,0.09721
6210.55989,0.09643
6208.63114,0.09623
6206.70240,0.09583
6204.77365,0.09524
6202.84491,0.09485
6200.91616,0.09456
6198.98742,0.09478
6197.05867,0.09543
6195.12993,0.09547
6193.20118,0.09490
6191.27244,0.09478
6189.34369,0.09557
6187.41495,0.09666
6185.48620,0.09715
6183.55746,0.09733
6181.62871,0.09777
6179.69996,0.09845
6177.77122,0.09894
6175.84247,0.09838
6173.91373,0.09671
6171.98498,0.09510
6170.05624,0.09462
6168.12749,0.09562
6166.19875,0.09621
6164.27000,0.09454
6162.34126,0.09344
6160.41251,0.09480
6158.48377,0.09581
6156.55502,0.09636
6154.62628,0.09792
6152.69753,0.09879
6150.76878,0.09805
6148.84004,0.09679
6146.91129,0.09609
6144.98255,0.09616
6143.05380,0.09593
6141.12506,0.09505
6139.19631,0.09436
6137.26757,0.09475
6135.33882,0.09594
6133.41008,0.09614
6131.48133,0.09509
6129.55259,0.09504
6127.62384,0.09591
6125.69510,0.09562
6123.76635,0.09471
6121.83761,0.09480
6119.90886,0.09639
6117.98011,0.09890
6116.05137,0.10001
6114.12262,0.09909
6112.19388,0.09802
6110.26513,0.09731
6108.33639,0.09644
6106.40764,0.09529
6104.47890,0.09471
6102.55015,0.09546
6100.62141,0.09597
6098.69266,0.09531
6096.76392,0.09479
6094.83517,0.09497
6092.90643,0.09572
6090.97768,0.09671
6089.04893,0.09677
6087.12019,0.09582
6085.19144,0.09527
6083.26270,0.09561
6081.33395,0.09618
6079.40521,0.09659
6077.47646,0.09687
6075.54772,0.09680
6073.61897,0.09655
6071.69023,0.09727
6069.76148,0.09846
6067.83274,0.09796
6065.90399,0.09601
6063.97525,0.09476
6062.04650,0.09524
6060.11776,0.09694
6058.18901,0.09805
6056.26026,0.09762
6054.33152,0.09688
6052.40277,0.09742
6050.47403,0.09871
6048.54528,0.09836
6046.61654,0.09599
6044.68779,0.09402
6042.75905,0.09361
6040.83030,0.09390
6038.90156,0.09454
6036.97281,0.09517
6035.04407,0.09543
6033.11532,0.09602
6031.18658,0.09689
6029.25783,0.09693
6027.32909,0.09590
6025.40034,0.09529
6023.47159,0.09627
6021.54285,0.09697
6019.61410,0.09515
6017.68536,0.09236
6015.75661,0.09122
6013.82787,0.09220
6011.89912,0.09454
6009.97038,0.09681
6008.04163,0.09782
6006.11289,0.09816
6004.18414,0.09828
6002.25540,0.09713
6000.32665,0.09477
5998.39791,0.09313
5996.46916,0.09343
5994.54041,0.09444
5992.61167,0.09435
5990.68292,0.09404
5988.75418,0.09482
5986.82543,0.09539
5984.89669,0.09536
5982.96794,0.09576
5981.03920,0.09563
5979.11045,0.09447
5977.18171,0.09350
5975.25296,0.09339
5973.32422,0.09376
5971.39547,0.09391
5969.46673,0.09376
5967.53798,0.09379
5965.60924,0.09427
5963.68049,0.09457
5961.75174,0.09401
5959.82300,0.09354
5957.89425,0.09383
5955.96551,0.09423
5954.03676,0.09451
5952.10802,0.09437
5950.17927,0.09302
5948.25053,0.09093
5946.32178,0.08988
5944.39304,0.09018
5942.46429,0.09088
5940.53555,0.09204
5938.60680,0.09309
5936.67806,0.09325
5934.74931,0.09326
5932.82057,0.09371
5930.89182,0.09395
5928.96307,0.09287
5927.03433,0.09100
5925.10558,0.09043
5923.17684,0.09162
5921.24809,0.09270
5919.31935,0.09245
5917.39060,0.09157
5915.46186,0.09074
5913.53311,0.09017
5911.60437,0.08967
5909.67562,0.08923
5907.74688,0.08982
5905.81813,0.09114
5903.88939,0.09162
5901.96064,0.09106
5900.03189,0.09034
5898.10315,0.09048
5896.17440,0.09178
5894.24566,0.09304
5892.31691,0.09280
5890.38817,0.09153
5888.45942,0.09040
5886.53068,0.08982
5884.60193,0.09047
5882.67319,0.09216
5880.74444,0.09302
5878.81570,0.09248
5876.88695,0.09237
5874.95821,0.09334
5873.02946,0.09379
5871.10072,0.09321
5869.17197,0.09205
5867.24322,0.09078
5865.31448,0.09065
5863.38573,0.09188
5861.45699,0.09229
5859.52824,0.09132
5857.59950,0.09074
5855.67075,0.09112
5853.74201,0.09212
5851.81326,0.09309
5849.88452,0.09331
5847.95577,0.09272
5846.02703,0.09129
5844.09828,0.09008
5842.16954,0.09009
5840.24079,0.09029
5838.31205,0.09022
5836.38330,0.09095
5834.45455,0.09245
5832.52581,0.09348
5830.59706,0.09328
5828.66832,0.09225
5826.73957,0.09127
5824.81083,0.09081
5822.88208,0.09079
5820.95334,0.09073
5819.02459,0.09009
5817.09585,0.08955
5815.16710,0.09025
5813.23836,0.09158
5811.30961,0.09195
5809.38087,0.09117
5807.45212,0.09054
5805.52337,0.09050
5803.59463,0.09033
5801.66588,0.09008
5799.73714,0.08992
5797.80839,0.08961
5795.87965,0.08954
5793.95090,0.08999
5792.02216,0.09060
5790.09341,0.09105
5788.16467,0.09108
5786.23592,0.09066
5784.30718,0.09051
5782.37843,0.09050
5780.44969,0.09032
5778.52094,0.09095
5776.59220,0.09205
5774.66345,0.09211
5772.73470,0.09154
5770.80596,0.09118
5768.87721,0.09088
5766.94847,0.09060
5765.01972,0.09025
5763.09098,0.08964
5761.16223,0.08908
5759.23349,0.08920
5757.30474,0.08990
5755.37600,0.09018
5753.44725,0.08991
5751.51851,0.08987
5749.58976,0.09026
5747.66102,0.09103
5745.73227,0.09178
5743.80352,0.09143
5741.87478,0.09017
5739.94603,0.08954
5738.01729,0.08974
5736.08854,0.09013
5734.15980,0.09071
5732.23105,0.09166
5730.30231,0.09277
5728.37356,0.09314
5726.44482,0.09215
5724.51607,0.09087
5722.58733,0.09065
5720.65858,0.09152
5718.72984,0.09229
5716.80109,0.09224
5714.87235,0.09222
5712.94360,0.09301
5711.01485,0.09426
5709.08611,0.09477
5707.15736,0.09380
5705.22862,0.09227
5703.29987,0.09103
5701.37113,0.09045
5699.44238,0.09117
5697.51364,0.09283
5695.58489,0.09413
5693.65615,0.09439
5691.72740,0.09389
5689.79866,0.09313
5687.86991,0.09218
5685.94117,0.09144
5684.01242,0.09162
5682.08368,0.09211
5680.15493,0.09218
5678.22618,0.09322
5676.29744,0.09521
5674.36869,0.09590
5672.43995,0.09527
5670.51120,0.09454
5668.58246,0.09383
5666.65371,0.09324
5664.72497,0.09254
5662.79622,0.09200
5660.86748,0.09274
5658.93873,0.09446
5657.00999,0.09602
5655.08124,0.09717
5653.15250,0.09728
5651.22375,0.09605
5649.29500,0.09491
5647.36626,0.09498
5645.43751,0.09587
5643.50877,0.09642
5641.58002,0.09615
5639.65128,0.09561
5637.72253,0.09501
5635.79379,0.09460
5633.86504,0.09494
5631.93630,0.09545
5630.00755,0.09586
5628.07881,0.09655
5626.15006,0.09679
5624.22132,0.09648
5622.29257,0.09660
5620.36383,0.09696
5618.43508,0.09637
5616.50633,0.09465
5614.57759,0.09323
5612.64884,0.09337
5610.72010,0.09457
5608.79135,0.09565
5606.86261,0.09644
5604.93386,0.09737
5603.00512,0.09785
5601.07637,0.09726
5599.14763,0.09626
5597.21888,0.09588
5595.29014,0.09586
5593.36139,0.09529
5591.43265,0.09487
5589.50390,0.09561
5587.57516,0.09631
5585.64641,0.09557
5583.71766,0.09428
5581.78892,0.09441
5579.86017,0.09590
5577.93143,0.09709
5576.00268,0.09756
5574.07394,0.09794
5572.14519,0.09817
5570.21645,0.09795
5568.28770,0.09759
5566.35896,0.09731
5564.43021,0.09694
5562.50147,0.09637
5560.57272,0.09595
5558.64398,0.09656
5556.71523,0.09802
5554.78648,0.09891
5552.85774,0.09862
5550.92899,0.09761
5549.00025,0.09636
5547.07150,0.09534
5545.14276,0.09502
5543.21401,0.09525
5541.28527,0.09556
5539.35652,0.09584
5537.42778,0.09615
5535.49903,0.09649
5533.57029,0.09685
5531.64154,0.09728
5529.71280,0.09764
5527.78405,0.09783
5525.85531,0.09780
5523.92656,0.09716
5521.99781,0.09611
5520.06907,0.09554
5518.14032,0.09576
5516.21158,0.09670
5514.28283,0.09775
5512.35409,0.09757
5510.42534,0.09614
5508.49660,0.09521
5506.56785,0.09560
5504.63911,0.09646
5502.71036,0.09700
5500.78162,0.09710
5498.85287,0.09690
5496.92413,0.09658
5494.99538,0.09620
5493.06664,0.09583
5491.13789,0.09599
5489.20914,0.09677
5487.28040,0.09759
5485.35165,0.09780
5483.42291,0.09707
5481.49416,0.09623
5479.56542,0.09616
5477.63667,0.09671
5475.70793,0.09764
5473.77918,0.09840
5471.85044,0.09849
5469.92169,0.09819
5467.99295,0.09787
5466.06420,0.09769
5464.13546,0.09776
5462.20671,0.09837
5460.27796,0.09941
5458.34922,0.10037
5456.42047,0.10060
5454.49173,0.10008
5452.56298,0.09958
5450.63424,0.09917
5448.70549,0.09860
5446.77675,0.09839
5444.84800,0.09858
5442.91926,0.09859
5440.99051,0.09823
5439.06177,0.09849
5437.13302,0.09950
5435.20428,0.09944
5433.27553,0.09830
5431.34679,0.09792
5429.41804,0.09842
5427.48929,0.09855
5425.56055,0.09803
5423.63180,0.09820
5421.70306,0.09941
5419.77431,0.09997
5417.84557,0.09983
5415.91682,0.10021
5413.98808,0.10059
5412.05933,0.10027
5410.13059,0.09938
5408.20184,0.09850
5406.27310,0.09867
5404.34435,0.09981
5402.41561,0.10018
5400.48686,0.09923
5398.55811,0.09839
5396.62937,0.09833
5394.70062,0.09844
5392.77188,0.09866
5390.84313,0.09922
5388.91439,0.09979
5386.98564,0.10019
5385.05690,0.10069
5383.12815,0.10089
5381.19941,0.10053
5379.27066,0.10060
5377.34192,0.10082
5375.41317,0.09964
5373.48443,0.09809
5371.55568,0.09827
5369.62694,0.09963
5367.69819,0.10048
5365.76944,0.10043
5363.84070,0.09974
5361.91195,0.09922
5359.98321,0.09927
5358.05446,0.09925
5356.12572,0.09950
5354.19697,0.10016
5352.26823,0.10021
5350.33948,0.10009
5348.41074,0.10056
5346.48199,0.10091
5344.55325,0.10082
5342.62450,0.10106
5340.69576,0.10153
5338.76701,0.10171
5336.83827,0.10183
5334.90952,0.10153
5332.98077,0.10049
5331.05203,0.09952
5329.12328,0.09909
5327.19454,0.09895
5325.26579,0.09928
5323.33705,0.10027
5321.40830,0.10118
5319.47956,0.10131
5317.55081,0.10099
5315.62207,0.10099
5313.69332,0.10127
5311.76458,0.10111
5309.83583,0.10046
5307.90709,0.10031
5305.97834,0.10102
5304.04959,0.10164
5302.12085,0.10116
5300.19210,0.10020
5298.26336,0.10029
5296.33461,0.10121
5294.40587,0.10158
5292.47712,0.10119
5290.54838,0.10064
5288.61963,0.10048
5286.69089,0.10041
5284.76214,0.09950
5282.83340,0.09846
5280.90465,0.09856
5278.97591,0.09925
5277.04716,0.09954
5275.11842,0.09929
5273.18967,0.09914
5271.26092,0.09964
5269.33218,0.10046
5267.40343,0.10065
5265.47469,0.09974
5263.54594,0.09881
5261.61720,0.09894
5259.68845,0.09907
5257.75971,0.09835
5255.83096,0.09771
5253.90222,0.09810
5251.97347,0.09910
5250.04473,0.09977
5248.11598,0.09982
5246.18724,0.09961
5244.25849,0.09940
5242.32975,0.09898
5240.40100,0.09831
5238.47225,0.09832
5236.54351,0.09913
5234.61476,0.09919
5232.68602,0.09821
5230.75727,0.09749
5228.82853,0.09766
5226.89978,0.09835
5224.97104,0.09892
5223.04229,0.09895
5221.11355,0.09859
5219.18480,0.09831
5217.25606,0.09838
5215.32731,0.09877
5213.39857,0.09907
5211.46982,0.09899
5209.54107,0.09879
5207.61233,0.09856
5205.68358,0.09837
5203.75484,0.09890
5201.82609,0.09990
5199.89735,0.10033
5197.96860,0.10027
5196.03986,0.10026
5194.11111,0.10024
5192.18237,0.10021
5190.25362,0.10012
5188.32488,0.09973
5186.39613,0.09914
5184.46739,0.09874
5182.53864,0.09882
5180.60990,0.09920
5178.68115,0.09932
5176.75240,0.09909
5174.82366,0.09886
5172.89491,0.09897
5170.96617,0.09956
5169.03742,0.10023
5167.10868,0.10022
5165.17993,0.09957
5163.25119,0.09920
5161.32244,0.09947
5159.39370,0.09987
5157.46495,0.09995
5155.53621,0.09983
5153.60746,0.10016
5151.67872,0.10086
5149.74997,0.10089
5147.82123,0.10018
5145.89248,0.09939
5143.96373,0.09879
5142.03499,0.09850
5140.10624,0.09848
5138.17750,0.09876
5136.24875,0.09919
5134.32001,0.09932
5132.39126,0.09893
5130.46252,0.09840
5128.53377,0.09818
5126.60503,0.09829
5124.67628,0.09849
5122.74754,0.09890
5120.81879,0.09928
5118.89005,0.09924
5116.96130,0.09933
5115.03255,0.09989
5113.10381,0.10027
5111.17506,0.10021
5109.24632,0.10007
5107.31757,0.09987
5105.38883,0.09966
5103.46008,0.09973
5101.53134,0.10005
5099.60259,0.10032
5097.67385,0.10036
5095.74510,0.09999
5093.81636,0.09924
5091.88761,0.09882
5089.95887,0.09917
5088.03012,0.09983
5086.10138,0.10018
5084.17263,0.10030
5082.24388,0.10045
5080.31514,0.10033
5078.38639,0.09983
5076.45765,0.09960
5074.52890,0.09990
5072.60016,0.09998
5070.67141,0.09970
5068.74267,0.09988
5066.81392,0.10016
5064.88518,0.09958
5062.95643,0.09889
5061.02769,0.09920
5059.09894,0.10000
5057.17020,0.10012
5055.24145,0.09957
5053.31270,0.09937
5051.38396,0.09953
5049.45521,0.09932
5047.52647,0.09891
5045.59772,0.09862
5043.66898,0.09827
5041.74023,0.09813
5039.81149,0.09835
5037.88274,0.09841
5035.95400,0.09837
5034.02525,0.09882
5032.09651,0.09949
5030.16776,0.09962
5028.23902,0.09919
5026.31027,0.09857
5024.38153,0.09838
5022.45278,0.09911
5020.52403,0.10004
5018.59529,0.10041
5016.66654,0.10028
5014.73780,0.09966
5012.80905,0.09902
5010.88031,0.09894
5008.95156,0.09927
5007.02282,0.09962
5005.09407,0.09953
5003.16533,0.09870
5001.23658,0.09772
4999.30784,0.09734
4997.37909,0.09740
4995.45035,0.09751
4993.52160,0.09764
4991.59286,0.09771
4989.66411,0.09801
4987.73536,0.09864
4985.80662,0.09857
4983.87787,0.09745
4981.94913,0.09663
4980.02038,0.09655
4978.09164,0.09639
4976.16289,0.09579
4974.23415,0.09541
4972.30540,0.09590
4970.37666,0.09648
4968.44791,0.09648
4966.51917,0.09623
4964.59042,0.09590
4962.66168,0.09586
4960.73293,0.09620
4958.80418,0.09629
4956.87544,0.09599
4954.94669,0.09551
4953.01795,0.09508
4951.08920,0.09502
4949.16046,0.09526
4947.23171,0.09547
4945.30297,0.09558
4943.37422,0.09544
4941.44548,0.09513
4939.51673,0.09515
4937.58799,0.09549
4935.65924,0.09564
4933.73050,0.09543
4931.80175,0.09517
4929.87301,0.09503
4927.94426,0.09478
4926.01551,0.09429
4924.08677,0.09383
4922.15802,0.09388
4920.22928,0.09448
4918.30053,0.09501
4916.37179,0.09494
4914.44304,0.09446
4912.51430,0.09395
4910.58555,0.09346
4908.65681,0.09310
4906.72806,0.09306
4904.79932,0.09324
4902.87057,0.09326
4900.94183,0.09300
4899.01308,0.09304
4897.08434,0.09355
4895.15559,0.09387
4893.22684,0.09366
4891.29810,0.09320
4889.36935,0.09275
4887.44061,0.09235
4885.51186,0.09211
4883.58312,0.09213
4881.65437,0.09233
4879.72563,0.09253
4877.79688,0.09282
4875.86814,0.09306
4873.93939,0.09284
4872.01065,0.09247
4870.08190,0.09255
4868.15316,0.09284
4866.22441,0.09280
4864.29566,0.09249
4862.36692,0.09246
4860.43817,0.09275
4858.50943,0.09293
4856.58068,0.09303
4854.65194,0.09309
4852.72319,0.09303
4850.79445,0.09296
4848.86570,0.09298
4846.93696,0.09313
4845.00821,0.09321
4843.07947,0.09337
4841.15072,0.09385
4839.22198,0.09442
4837.29323,0.09482
4835.36449,0.09476
4833.43574,0.09415
4831.50699,0.09356
4829.57825,0.09334
4827.64950,0.09347
4825.72076,0.09375
4823.79201,0.09369
4821.86327,0.09341
4819.93452,0.09367
4818.00578,0.09424
4816.07703,0.09422
4814.14829,0.09361
4812.21954,0.09326
4810.29080,0.09370
4808.36205,0.09449
4806.43331,0.09510
4804.50456,0.09542
4802.57582,0.09543
4800.64707,0.09543
4798.71832,0.09574
4796.78958,0.09602
4794.86083,0.09602
4792.93209,0.09600
4791.00334,0.09602
4789.07460,0.09590
4787.14585,0.09555
4785.21711,0.09534
4783.28836,0.09594
4781.35962,0.09692
4779.43087,0.09738
4777.50213,0.09762
4775.57338,0.09780
4773.64464,0.09746
4771.71589,0.09684
4769.78714,0.09638
4767.85840,0.09628
4765.92965,0.09677
4764.00091,0.09743
4762.07216,0.09744
4760.14342,0.09693
4758.21467,0.09683
4756.28593,0.09704
4754.35718,0.09699
4752.42844,0.09703
4750.49969,0.09728
4748.57095,0.09708
4746.64220,0.09659
4744.71346,0.09676
4742.78471,0.09745
4740.85597,0.09752
4738.92722,0.09709
4736.99847,0.09707
4735.06973,0.09725
4733.14098,0.09701
4731.21224,0.09633
4729.28349,0.09585
4727.35475,0.09607
4725.42600,0.09627
4723.49726,0.09599
4721.56851,0.09587
4719.63977,0.09602
4717.71102,0.09600
4715.78228,0.09583
4713.85353,0.09566
4711.92479,0.09559
4709.99604,0.09561
4708.06729,0.09529
4706.13855,0.09454
4704.20980,0.09397
4702.28106,0.09370
4700.35231,0.09343
4698.42357,0.09352
4696.49482,0.09416
4694.56608,0.09446
4692.63733,0.09407
4690.70859,0.09388
4688.77984,0.09398
4686.85110,0.09360
4684.92235,0.09294
4682.99361,0.09266
4681.06486,0.09278
4679.13612,0.09329
4677.20737,0.09380
4675.27862,0.09382
4673.34988,0.09383
4671.42113,0.09399
4669.49239,0.09378
4667.56364,0.09337
4665.63490,0.09313
4663.70615,0.09319
4661.77741,0.09346
4659.84866,0.09363
4657.91992,0.09363
4655.99117,0.09364
4654.06243,0.09363
4652.13368,0.09360
4650.20494,0.09350
4648.27619,0.09309
4646.34745,0.09265
4644.41870,0.09267
4642.48995,0.09272
4640.56121,0.09260
4638.63246,0.09266
4636.70372,0.09261
4634.77497,0.09226
4632.84623,0.09228
4630.91748,0.09280
4628.98874,0.09328
4627.05999,0.09322
4625.13125,0.09262
4623.20250,0.09222
4621.27376,0.09247
4619.34501,0.09310
4617.41627,0.09375
4615.48752,0.09406
4613.55877,0.09377
4611.63003,0.09305
4609.70128,0.09251
4607.77254,0.09267
4605.84379,0.09315
4603.91505,0.09351
4601.98630,0.09400
4600.05756,0.09446
4598.12881,0.09447
4596.20007,0.09430
4594.27132,0.09415
4592.34258,0.09417
4590.41383,0.09462
4588.48509,0.09509
4586.55634,0.09509
4584.62760,0.09491
4582.69885,0.09501
4580.77010,0.09516
4578.84136,0.09495
4576.91261,0.09446
4574.98387,0.09419
4573.05512,0.09444
4571.12638,0.09496
4569.19763,0.09530
4567.26889,0.09512
4565.34014,0.09450
4563.41140,0.09399
4561.48265,0.09377
4559.55391,0.09372
4557.62516,0.09392
4555.69642,0.09449
4553.76767,0.09503
4551.83893,0.09499
4549.91018,0.09468
4547.98143,0.09475
4546.05269,0.09508
4544.12394,0.09514
4542.19520,0.09504
4540.26645,0.09507
4538.33771,0.09495
4536.40896,0.09454
4534.48022,0.09428
4532.55147,0.09426
4530.62273,0.09429
4528.69398,0.09453
4526.76524,0.09488
4524.83649,0.09487
4522.90775,0.09452
4520.97900,0.09454
4519.05025,0.09499
4517.12151,0.09528
4515.19276,0.09555
4513.26402,0.09581
4511.33527,0.09558
4509.40653,0.09506
4507.47778,0.09441
4505.54904,0.09389
4503.62029,0.09399
4501.69155,0.09426
4499.76280,0.09421
4497.83406,0.09417
4495.90531,0.09425
4493.97657,0.09415
4492.04782,0.09406
4490.11908,0.09406
4488.19033,0.09391
4486.26158,0.09369
4484.33284,0.09341
4482.40409,0.09317
4480.47535,0.09334
4478.54660,0.09354
4476.61786,0.09315
4474.68911,0.09247
4472.76037,0.09230
4470.83162,0.09244
4468.90288,0.09201
4466.97413,0.09106
4465.04539,0.09024
4463.11664,0.08979
4461.18790,0.08954
4459.25915,0.08933
4457.33041,0.08907
4455.40166,0.08884
4453.47291,0.08850
4451.54417,0.08775
4449.61542,0.08680
4447.68668,0.08603
4445.75793,0.08544
4443.82919,0.08472
4441.90044,0.08387
4439.97170,0.08317
4438.04295,0.08257
4436.11421,0.08200
4434.18546,0.08160
4432.25672,0.08128
4430.32797,0.08089
4428.39923,0.08045
4426.47048,0.07986
4424.54173,0.07904
4422.61299,0.07827
4420.68424,0.07781
4418.75550,0.07754
4416.82675,0.07709
4414.89801,0.07643
4412.96926,0.07610
4411.04052,0.07638
4409.11177,0.07675
4407.18303,0.07665
4405.25428,0.07635
4403.32554,0.07631
4401.39679,0.07640
4399.46805,0.07637
4397.53930,0.07631
4395.61056,0.07630
4393.68181,0.07632
4391.75306,0.07623
4389.82432,0.07601
4387.89557,0.07577
4385.96683,0.07556
4384.03808,0.07528
4382.10934,0.07480
4380.18059,0.07432
4378.25185,0.07419
4376.32310,0.07421
4374.39436,0.07400
4372.46561,0.07358
4370.53687,0.07330
4368.60812,0.07322
4366.67938,0.07306
4364.75063,0.07292
4362.82189,0.07284
4360.89314,0.07256
4358.96439,0.07216
4357.03565,0.07192
4355.10690,0.07197
4353.17816,0.07212
4351.24941,0.07210
4349.32067,0.07191
4347.39192,0.07164
4345.46318,0.07145
4343.53443,0.07159
4341.60569,0.07192
4339.67694,0.07206
4337.74820,0.07183
4335.81945,0.07138
4333.89071,0.07121
4331.96196,0.07148
4330.03321,0.07174
4328.10447,0.07175
4326.17572,0.07184
4324.24698,0.07231
4322.31823,0.07289
4320.38949,0.07315
4318.46074,0.07306
4316.53200,0.07305
4314.60325,0.07358
4312.67451,0.07437
4310.74576,0.07449
4308.81702,0.07404
4306.88827,0.07420
4304.95953,0.07482
4303.03078,0.07484
4301.10204,0.07460
4299.17329,0.07496
4297.24454,0.07559
4295.31580,0.07587
4293.38705,0.07582
4291.45831,0.07562
4289.52956,0.07549
4287.60082,0.07553
4285.67207,0.07563
4283.74333,0.07597
4281.81458,0.07654
4279.88584,0.07665
4277.95709,0.07624
4276.02835,0.07602
4274.09960,0.07624
4272.17086,0.07630
4270.24211,0.07582
4268.31336,0.07528
4266.38462,0.07525
4264.45587,0.07554
4262.52713,0.07577
4260.59838,0.07604
4258.66964,0.07636
4256.74089,0.07642
4254.81215,0.07639
4252.88340,0.07658
4250.95466,0.07663
4249.02591,0.07642
4247.09717,0.07647
4245.16842,0.07683
4243.23968,0.07708
4241.31093,0.07691
4239.38219,0.07635
4237.45344,0.07599
4235.52469,0.07624
4233.59595,0.07669
4231.66720,0.07695
4229.73846,0.07709
4227.80971,0.07726
4225.88097,0.07768
4223.95222,0.07836
4222.02348,0.07860
4220.09473,0.07821
4218.16599,0.07785
4216.23724,0.07792
4214.30850,0.07843
4212.37975,0.07908
4210.45101,0.07925
4208.52226,0.07896
4206.59352,0.07878
4204.66477,0.07897
4202.73602,0.07932
4200.80728,0.07960
4198.87853,0.07978
4196.94979,0.07987
4195.02104,0.07997
4193.09230,0.08016
4191.16355,0.08026
4189.23481,0.07995
4187.30606,0.07951
4185.37732,0.07954
4183.44857,0.07993
4181.51983,0.08008
4179.59108,0.08016
4177.66234,0.08044
4175.73359,0.08055
4173.80484,0.08038
4171.87610,0.08032
4169.94735,0.08038
4168.01861,0.08031
4166.08986,0.08016
4164.16112,0.08011
4162.23237,0.08002
4160.30363,0.07986
4158.37488,0.08002
4156.44614,0.08046
4154.51739,0.08065
4152.58865,0.08051
4150.65990,0.08036
4148.73116,0.08040
4146.80241,0.08059
4144.87367,0.08084
4142.94492,0.08093
4141.01617,0.08075
4139.08743,0.08054
4137.15868,0.08051
4135.22994,0.08049
4133.30119,0.08039
4131.37245,0.08026
4129.44370,0.08014
4127.51496,0.08007
4125.58621,0.08004
4123.65747,0.07994
4121.72872,0.07980
4119.79998,0.07977
4117.87123,0.07978
4115.94249,0.07985
4114.01374,0.08005
4112.08500,0.08012
4110.15625,0.07999
4108.22750,0.07994
4106.29876,0.07987
4104.37001,0.07959
4102.44127,0.07934
4100.51252,0.07922
4098.58378,0.07918
4096.65503,0.07908
4094.72629,0.07870
4092.79754,0.07825
4090.86880,0.07796
4088.94005,0.07784
4087.01131,0.07788
4085.08256,0.07775
4083.15382,0.07726
4081.22507,0.07688
4079.29632,0.07682
4077.36758,0.07679
4075.43883,0.07657
4073.51009,0.07614
4071.58134,0.07571
4069.65260,0.07550
4067.72385,0.07545
4065.79511,0.07521
4063.86636,0.07462
4061.93762,0.07410
4060.00887,0.07402
4058.08013,0.07426
4056.15138,0.07451
4054.22264,0.07464
4052.29389,0.07467
4050.36515,0.07470
4048.43640,0.07471
4046.50765,0.07448
4044.57891,0.07403
4042.65016,0.07369
4040.72142,0.07365
4038.79267,0.07381
4036.86393,0.07407
4034.93518,0.07431
4033.00644,0.07433
4031.07769,0.07415
4029.14895,0.07407
4027.22020,0.07429
4025.29146,0.07455
4023.36271,0.07460
4021.43397,0.07460
4019.50522,0.07466
4017.57648,0.07463
4015.64773,0.07451
4013.71898,0.07458
4011.79024,0.07475
4009.86149,0.07476
4007.93275,0.07492
4006.00400,0.07534
4004.07526,0.07548
4002.14651,0.07530
4000.21777,0.07528
3998.28902,0.07555
3996.36028,0.07594
3994.43153,0.07637
3992.50279,0.07657
3990.57404,0.07646
3988.64530,0.07632
3986.71655,0.07643
3984.78780,0.07680
3982.85906,0.07709
3980.93031,0.07713
3979.00157,0.07724
3977.07282,0.07765
3975.14408,0.07804
3973.21533,0.07801
3971.28659,0.07785
3969.35784,0.07817
3967.42910,0.07894
3965.50035,0.07968
3963.57161,0.08011
3961.64286,0.08020
3959.71412,0.08015
3957.78537,0.08020
3955.85663,0.08038
3953.92788,0.08071
3951.99913,0.08126
3950.07039,0.08188
3948.14164,0.08233
3946.21290,0.08250
3944.28415,0.08248
3942.35541,0.08245
3940.42666,0.08250
3938.49792,0.08253
3936.56917,0.08266
3934.64043,0.08311
3932.71168,0.08363
3930.78294,0.08382
3928.85419,0.08375
3926.92545,0.08386
3924.99670,0.08407
3923.06795,0.08413
3921.13921,0.08433
3919.21046,0.08462
3917.28172,0.08465
3915.35297,0.08471
3913.42423,0.08492
3911.49548,0.08512
3909.56674,0.08543
3907.63799,0.08570
3905.70925,0.08577
3903.78050,0.08583
3901.85176,0.08583
3899.92301,0.08577
3897.99427,0.08591
3896.06552,0.08623
3894.13678,0.08637
3892.20803,0.08608
3890.27928,0.08573
3888.35054,0.08585
3886.42179,0.08628
3884.49305,0.08676
3882.56430,0.08715
3880.63556,0.08716
3878.70681,0.08695
3876.77807,0.08703
3874.84932,0.08736
3872.92058,0.08777
3870.99183,0.08797
3869.06309,0.08784
3867.13434,0.08782
3865.20560,0.08784
3863.27685,0.08770
3861.34811,0.08771
3859.41936,0.08795
3857.49061,0.08867
3855.56187,0.08978
3853.63312,0.08981
3851.70438,0.08858
3849.77563,0.08811
3847.84689,0.08845
3845.91814,0.08887
3843.98940,0.08906
3842.06065,0.08913
3840.13191,0.08935
3838.20316,0.08951
3836.27442,0.08941
3834.34567,0.08926
3832.41693,0.08915
3830.48818,0.08919
3828.55943,0.08942
3826.63069,0.08966
3824.70194,0.09012
3822.77320,0.09079
3820.84445,0.09099
3818.91571,0.09088
3816.98696,0.09088
3815.05822,0.09068
3813.12947,0.09050
3811.20073,0.09069
3809.27198,0.09112
3807.34324,0.09139
3805.41449,0.09152
3803.48575,0.09169
3801.55700,0.09141
3799.62826,0.09094
3797.69951,0.09097
3795.77076,0.09109
3793.84202,0.09115
3791.91327,0.09136
3789.98453,0.09170
3788.05578,0.09195
3786.12704,0.09198
3784.19829,0.09199
3782.26955,0.09215
3780.34080,0.09217
3778.41206,0.09192
3776.48331,0.09173
3774.55457,0.09186
3772.62582,0.09231
3770.69708,0.09272
3768.76833,0.09281
3766.83959,0.09291
3764.91084,0.09322
3762.98209,0.09350
3761.05335,0.09368
3759.12460,0.09368
3757.19586,0.09373
3755.26711,0.09414
3753.33837,0.09446
3751.40962,0.09424
3749.48088,0.09393
3747.55213,0.09411
3745.62339,0.09425
3743.69464,0.09393
3741.76590,0.09402
3739.83715,0.09466
3737.90841,0.09537
3735.97966,0.09565
3734.05091,0.09506
3732.12217,0.09425
3730.19342,0.09416
3728.26468,0.09456
3726.33593,0.09481
3724.40719,0.09480
3722.47844,0.09465
3720.54970,0.09437
3718.62095,0.09409
3716.69221,0.09396
3714.76346,0.09406
3712.83472,0.09416
3710.90597,0.09398
3708.97723,0.09375
3707.04848,0.09361
3705.11974,0.09349
3703.19099,0.09331
3701.26224,0.09300
3699.33350,0.09254
3697.40475,0.09201
3695.47601,0.09143
3693.54726,0.09096
3691.61852,0.09055
3689.68977,0.08983
3687.76103,0.08883
3685.83228,0.08798
3683.90354,0.08725
3681.97479,0.08663
3680.04605,0.08618
3678.11730,0.08556
3676.18856,0.08418
3674.25981,0.08255
3672.33107,0.08168
3670.40232,0.08108
3668.47357,0.08025
3666.54483,0.07930
3664.61608,0.07825
3662.68734,0.07718
3660.75859,0.07638
3658.82985,0.07598
3656.90110,0.07555
3654.97236,0.07475
3653.04361,0.07408
3651.11487,0.07378
3649.18612,0.07320
3647.25738,0.07217
3645.32863,0.07140
3643.39989,0.07092
3641.47114,0.07039
3639.54239,0.06979
3637.61365,0.06900
3635.68490,0.06815
3633.75616,0.06774
3631.82741,0.06775
3629.89867,0.06759
3627.96992,0.06700
3626.04118,0.06640
3624.11243,0.06615
3622.18369,0.06618
3620.25494,0.06615
3618.32620,0.06585
3616.39745,0.06545
3614.46871,0.06515
3612.53996,0.06495
3610.61122,0.06485
3608.68247,0.06479
3606.75372,0.06443
3604.82498,0.06398
3602.89623,0.06390
3600.96749,0.06380
3599.03874,0.06345
3597.11000,0.06313
3595.18125,0.06300
3593.25251,0.06309
3591.32376,0.06310
3589.39502,0.06288
3587.46627,0.06255
3585.53753,0.06205
3583.60878,0.06145
3581.68004,0.06112
3579.75129,0.06106
3577.82254,0.06098
3575.89380,0.06084
3573.96505,0.06068
3572.03631,0.06045
3570.10756,0.06026
3568.17882,0.06022
3566.25007,0.06002
3564.32133,0.05959
3562.39258,0.05929
3560.46384,0.05910
3558.53509,0.05906
3556.60635,0.05921
3554.67760,0.05906
3552.74886,0.05835
3550.82011,0.05767
3548.89137,0.05750
3546.96262,0.05750
3545.03387,0.05737
3543.10513,0.05703
3541.17638,0.05653
3539.24764,0.05617
3537.31889,0.05622
3535.39015,0.05635
3533.46140,0.05625
3531.53266,0.05591
3529.60391,0.05544
3527.67517,0.05526
3525.74642,0.05541
3523.81768,0.05525
3521.88893,0.05472
3519.96019,0.05453
3518.03144,0.05483
3516.10270,0.05498
3514.17395,0.05465
3512.24520,0.05432
3510.31646,0.05433
3508.38771,0.05437
3506.45897,0.05409
3504.53022,0.05364
3502.60148,0.05342
3500.67273,0.05351
3498.74399,0.05348
3496.81524,0.05326
3494.88650,0.05331
3492.95775,0.05363
3491.02901,0.05388
3489.10026,0.05390
3487.17152,0.05368
3485.24277,0.05325
3483.31402,0.05266
3481.38528,0.05217
3479.45653,0.05192
3477.52779,0.05158
3475.59904,0.05126
3473.67030,0.05130
3471.74155,0.05128
3469.81281,0.05086
3467.88406,0.05025
3465.95532,0.04972
3464.02657,0.04936
3462.09783,0.04907
3460.16908,0.04877
3458.24034,0.04842
3456.31159,0.04791
3454.38285,0.04728
3452.45410,0.04689
3450.52535,0.04680
3448.59661,0.04664
3446.66786,0.04643
3444.73912,0.04641
3442.81037,0.04647
3440.88163,0.04652
3438.95288,0.04648
3437.02414,0.04608
3435.09539,0.04538
3433.16665,0.04471
3431.23790,0.04430
3429.30916,0.04395
3427.38041,0.04339
3425.45167,0.04287
3423.52292,0.04248
3421.59418,0.04186
3419.66543,0.04116
3417.73668,0.04079
3415.80794,0.04059
3413.87919,0.04022
3411.95045,0.03973
3410.02170,0.03919
3408.09296,0.03857
3406.16421,0.03790
3404.23547,0.03736
3402.30672,0.03714
3400.37798,0.03718
3398.44923,0.03714
3396.52049,0.03657
3394.59174,0.03567
3392.66300,0.03503
3390.73425,0.03458
3388.80550,0.03388
3386.87676,0.03322
3384.94801,0.03305
3383.01927,0.03313
3381.09052,0.03312
3379.16178,0.03316
3377.23303,0.03320
3375.30429,0.03273
3373.37554,0.03184
3371.44680,0.03126
3369.51805,0.03120
3367.58931,0.03125
3365.66056,0.03118
3363.73182,0.03095
3361.80307,0.03080
3359.87433,0.03092
3357.94558,0.03092
3356.01683,0.03052
3354.08809,0.03012
3352.15934,0.02998
3350.23060,0.03005
3348.30185,0.03028
3346.37311,0.03046
3344.44436,0.03040
3342.51562,0.03029
3340.58687,0.03031
3338.65813,0.03037
3336.72938,0.03043
3334.80064,0.03042
3332.87189,0.03025
3330.94315,0.02984
3329.01440,0.02929
3327.08566,0.02909
3325.15691,0.02948
3323.22816,0.02996
3321.29942,0.03012
3319.37067,0.03014
3317.44193,0.03013
3315.51318,0.02998
3313.58444,0.02972
3311.65569,0.02944
3309.72695,0.02925
3307.79820,0.02920
3305.86946,0.02909
3303.94071,0.02896
3302.01197,0.02906
3300.08322,0.02929
3298.15448,0.02941
3296.22573,0.02943
3294.29698,0.02950
3292.36824,0.02954
3290.43949,0.02951
3288.51075,0.02944
3286.58200,0.02928
3284.65326,0.02922
3282.72451,0.02940
3280.79577,0.02958
3278.86702,0.02964
3276.93828,0.02963
3275.00953,0.02982
3273.08079,0.03032
3271.15204,0.03069
3269.22330,0.03077
3267.29455,0.03094
3265.36581,0.03111
3263.43706,0.03120
3261.50831,0.03137
3259.57957,0.03151
3257.65082,0.03149
3255.72208,0.03141
3253.79333,0.03143
3251.86459,0.03156
3249.93584,0.03170
3248.00710,0.03185
3246.07835,0.03187
3244.14961,0.03186
3242.22086,0.03226
3240.29212,0.03294
3238.36337,0.03344
3236.43463,0.03373
3234.50588,0.03386
3232.57713,0.03378
3230.64839,0.03358
3228.71964,0.03359
3226.79090,0.03401
3224.86215,0.03450
3222.93341,0.03466
3221.00466,0.03476
3219.07592,0.03503
3217.14717,0.03516
3215.21843,0.03502
3213.28968,0.03494
3211.36094,0.03504
3209.43219,0.03517
3207.50345,0.03530
3205.57470,0.03555
3203.64596,0.03584
3201.71721,0.03604
3199.78846,0.03616
3197.85972,0.03611
3195.93097,0.03605
3194.00223,0.03620
3192.07348,0.03646
3190.14474,0.03673
3188.21599,0.03693
3186.28725,0.03699
3184.35850,0.03716
3182.42976,0.03748
3180.50101,0.03771
3178.57227,0.03799
3176.64352,0.03843
3174.71478,0.03882
3172.78603,0.03902
3170.85729,0.03920
3168.92854,0.03951
3166.99979,0.03980
3165.07105,0.03985
3163.14230,0.03964
3161.21356,0.03937
3159.28481,0.03945
3157.35607,0.03982
3155.42732,0.04010
3153.49858,0.04013
3151.56983,0.03986
3149.64109,0.03954
3147.71234,0.03958
3145.78360,0.03992
3143.85485,0.04026
3141.92611,0.04034
3139.99736,0.04026
3138.06861,0.04032
3136.13987,0.04046
3134.21112,0.04026
3132.28238,0.03976
3130.35363,0.03958
3128.42489,0.03975
3126.49614,0.03982
3124.56740,0.03980
3122.63865,0.03989
3120.70991,0.03998
3118.78116,0.03998
3116.85242,0.03982
3114.92367,0.03959
3112.99493,0.03970
3111.06618,0.04002
3109.13744,0.04009
3107.20869,0.04011
3105.27994,0.04038
3103.35120,0.04049
3101.42245,0.04033
3099.49371,0.04022
3097.56496,0.04011
3095.63622,0.03986
3093.70747,0.03957
3091.77873,0.03919
3089.84998,0.03874
3087.92124,0.03835
3085.99249,0.03800
3084.06375,0.03781
3082.13500,0.03797
3080.20626,0.03825
3078.27751,0.03820
3076.34877,0.03785
3074.42002,0.03764
3072.49127,0.03774
3070.56253,0.03789
3068.63378,0.03774
3066.70504,0.03728
3064.77629,0.03662
3062.84755,0.03605
3060.91880,0.03620
3058.99006,0.03678
3057.06131,0.03700
3055.13257,0.03691
3053.20382,0.03700
3051.27508,0.03720
3049.34633,0.03725
3047.41759,0.03722
3045.48884,0.03724
3043.56009,0.03720
3041.63135,0.03697
3039.70260,0.03664
3037.77386,0.03645
3035.84511,0.03628
3033.91637,0.03575
3031.98762,0.03501
3030.05888,0.03461
3028.13013,0.03467
3026.20139,0.03490
3024.27264,0.03514
3022.34390,0.03541
3020.41515,0.03573
3018.48641,0.03607
3016.55766,0.03631
3014.62892,0.03630
3012.70017,0.03619
3010.77142,0.03619
3008.84268,0.03605
3006.91393,0.03559
3004.98519,0.03510
3003.05644,0.03462
3001.12770,0.03392
2999.19895,0.03308
2997.27021,0.03235
2995.34146,0.03178
2993.41272,0.03130
2991.48397,0.03084
2989.55523,0.03025
2987.62648,0.02953
2985.69774,0.02888
2983.76899,0.02843
2981.84025,0.02810
2979.91150,0.02785
2977.98275,0.02767
2976.05401,0.02754
2974.12526,0.02745
2972.19652,0.02731
2970.26777,0.02714
2968.33903,0.02703
2966.41028,0.02697
2964.48154,0.02702
2962.55279,0.02721
2960.62405,0.02760
2958.69530,0.02808
2956.76656,0.02854
2954.83781,0.02882
2952.90907,0.02870
2950.98032,0.02832
2949.05157,0.02808
2947.12283,0.02799
2945.19408,0.02774
2943.26534,0.02741
2941.33659,0.02732
2939.40785,0.02729
2937.47910,0.02709
2935.55036,0.02691
2933.62161,0.02696
2931.69287,0.02716
2929.76412,0.02721
2927.83538,0.02714
2925.90663,0.02724
2923.97789,0.02755
2922.04914,0.02781
2920.12040,0.02786
2918.19165,0.02787
2916.26290,0.02781
2914.33416,0.02764
2912.40541,0.02755
2910.47667,0.02754
2908.54792,0.02753
2906.61918,0.02760
2904.69043,0.02778
2902.76169,0.02789
2900.83294,0.02780
2898.90420,0.02776
2896.97545,0.02801
2895.04671,0.02834
2893.11796,0.02848
2891.18922,0.02841
2889.26047,0.02837
2887.33172,0.02838
2885.40298,0.02832
2883.47423,0.02833
2881.54549,0.02843
2879.61674,0.02842
2877.68800,0.02834
2875.75925,0.02839
2873.83051,0.02859
2871.90176,0.02874
2869.97302,0.02879
2868.04427,0.02882
2866.11553,0.02880
2864.18678,0.02881
2862.25804,0.02898
2860.32929,0.02929
2858.40055,0.02966
2856.47180,0.02989
2854.54305,0.02990
2852.61431,0.03009
2850.68556,0.03071
2848.75682,0.03150
2846.82807,0.03227
2844.89933,0.03287
2842.97058,0.03329
2841.04184,0.03374
2839.11309,0.03429
2837.18435,0.03479
2835.25560,0.03525
2833.32686,0.03571
2831.39811,0.03612
2829.46937,0.03663
2827.54062,0.03746
2825.61188,0.03828
2823.68313,0.03886
2821.75438,0.03939
2819.82564,0.03995
2817.89689,0.04038
2815.96815,0.04065
2814.03940,0.04094
2812.11066,0.04130
2810.18191,0.04160
2808.25317,0.04179
2806.32442,0.04203
2804.39568,0.04236
2802.46693,0.04266
2800.53819,0.04296
2798.60944,0.04327
2796.68070,0.04336
2794.75195,0.04328
2792.82320,0.04339
2790.89446,0.04381
2788.96571,0.04429
2787.03697,0.04476
2785.10822,0.04516
2783.17948,0.04539
2781.25073,0.04557
2779.32199,0.04581
2777.39324,0.04600
2775.46450,0.04624
2773.53575,0.04670
2771.60701,0.04715
2769.67826,0.04733
2767.74952,0.04738
2765.82077,0.04763
2763.89203,0.04803
2761.96328,0.04824
2760.03453,0.04825
2758.10579,0.04843
2756.17704,0.04882
2754.24830,0.04912
2752.31955,0.04935
2750.39081,0.04959
2748.46206,0.04980
2746.53332,0.04999
2744.60457,0.05018
2742.67583,0.05033
2740.74708,0.05045
2738.81834,0.05053
2736.88959,0.05074
2734.96085,0.05121
2733.03210,0.05172
2731.10336,0.05208
2729.17461,0.05242
2727.24586,0.05279
2725.31712,0.05322
2723.38837,0.05378
2721.45963,0.05427
2719.53088,0.05469
2717.60214,0.05523
2715.67339,0.05572
2713.74465,0.05606
2711.81590,0.05643
2709.88716,0.05685
2707.95841,0.05717
2706.02967,0.05760
2704.10092,0.05824
2702.17218,0.05884
2700.24343,0.05924
2698.31468,0.05961
2696.38594,0.06024
2694.45719,0.06108
2692.52845,0.06176
2690.59970,0.06211
2688.67096,0.06232
2686.74221,0.06277
2684.81347,0.06344
2682.88472,0.06396
2680.95598,0.06430
2679.02723,0.06469
2677.09849,0.06505
2675.16974,0.06518
2673.24100,0.06521
2671.31225,0.06528
2669.38351,0.06537
2667.45476,0.06556
2665.52601,0.06590
2663.59727,0.06624
2661.66852,0.06658
2659.73978,0.06683
2657.81103,0.06690
2655.88229,0.06698
2653.95354,0.06713
2652.02480,0.06726
2650.09605,0.06752
2648.16731,0.06787
2646.23856,0.06816
2644.30982,0.06839
2642.38107,0.06857
2640.45233,0.06862
2638.52358,0.06875
2636.59484,0.06913
2634.66609,0.06943
2632.73734,0.06952
2630.80860,0.06976
2628.87985,0.07020
2626.95111,0.07069
2625.02236,0.07126
2623.09362,0.07173
2621.16487,0.07189
2619.23613,0.07197
2617.30738,0.07220
2615.37864,0.07236
2613.44989,0.07228
2611.52115,0.07213
2609.59240,0.07199
2607.66366,0.07172
2605.73491,0.07130
2603.80616,0.07099
2601.87742,0.07092
2599.94867,0.07086
2598.01993,0.07074
2596.09118,0.07081
2594.16244,0.07102
2592.23369,0.07110
2590.30495,0.07103
2588.37620,0.07103
2586.44746,0.07117
2584.51871,0.07127
2582.58997,0.07132
2580.66122,0.07156
2578.73248,0.07207
2576.80373,0.07255
2574.87499,0.07273
2572.94624,0.07298
2571.01749,0.07345
2569.08875,0.07386
2567.16000,0.07424
2565.23126,0.07465
2563.30251,0.07497
2561.37377,0.07527
2559.44502,0.07573
2557.51628,0.07613
2555.58753,0.07630
2553.65879,0.07649
2551.73004,0.07672
2549.80130,0.07676
2547.87255,0.07668
2545.94381,0.07672
2544.01506,0.07686
2542.08631,0.07697
2540.15757,0.07706
2538.22882,0.07718
2536.30008,0.07746
2534.37133,0.07792
2532.44259,0.07837
2530.51384,0.07855
2528.58510,0.07840
2526.65635,0.07822
2524.72761,0.07813
2522.79886,0.07805
2520.87012,0.07809
2518.94137,0.07831
2517.01263,0.07842
2515.08388,0.07850
2513.15514,0.07870
2511.22639,0.07875
2509.29764,0.07870
2507.36890,0.07891
2505.44015,0.07927
2503.51141,0.07937
2501.58266,0.07924
2499.65392,0.07918
2497.72517,0.07916
2495.79643,0.07918
2493.86768,0.07945
2491.93894,0.07976
2490.01019,0.07968
2488.08145,0.07940
2486.15270,0.07947
2484.22396,0.07984
2482.29521,0.08018
2480.36647,0.08047
2478.43772,0.08072
2476.50897,0.08082
2474.58023,0.08088
2472.65148,0.08093
2470.72274,0.08097
2468.79399,0.08130
2466.86525,0.08179
2464.93650,0.08205
2463.00776,0.08205
2461.07901,0.08206
2459.15027,0.08221
2457.22152,0.08240
2455.29278,0.08247
2453.36403,0.08238
2451.43529,0.08220
2449.50654,0.08217
2447.57779,0.08241
2445.64905,0.08278
2443.72030,0.08302
2441.79156,0.08306
2439.86281,0.08311
2437.93407,0.08322
2436.00532,0.08331
2434.07658,0.08342
2432.14783,0.08360
2430.21909,0.08377
2428.29034,0.08380
2426.36160,0.08378
2424.43285,0.08388
2422.50411,0.08405
2420.57536,0.08406
2418.64662,0.08386
2416.71787,0.08364
2414.78912,0.08355
2412.86038,0.08353
2410.93163,0.08343
2409.00289,0.08326
2407.07414,0.08315
2405.14540,0.08315
2403.21665,0.08327
2401.28791,0.08342
2399.35916,0.08351
2397.43042,0.08349
2395.50167,0.08334
2393.57293,0.08310
2391.64418,0.08291
2389.71544,0.08278
2387.78669,0.08264
2385.85795,0.08256
2383.92920,0.08256
2382.00045,0.08252
2380.07171,0.08251
2378.14296,0.08276
2376.21422,0.08322
2374.28547,0.08349
2372.35673,0.08345
2370.42798,0.08345
2368.49924,0.08368
2366.57049,0.08376
2364.64175,0.08355
2362.71300,0.08339
2360.78426,0.08347
2358.85551,0.08345
2356.92677,0.08315
2354.99802,0.08284
2353.06927,0.08265
2351.14053,0.08238
2349.21178,0.08201
2347.28304,0.08173
2345.35429,0.08172
2343.42555,0.08187
2341.49680,0.08194
2339.56806,0.08186
2337.63931,0.08178
2335.71057,0.08188
2333.78182,0.08216
2331.85308,0.08244
2329.92433,0.08246
2327.99559,0.08224
2326.06684,0.08204
2324.13810,0.08200
2322.20935,0.08198
2320.28060,0.08168
2318.35186,0.08102
2316.42311,0.08039
2314.49437,0.08009
2312.56562,0.07979
2310.63688,0.07929
2308.70813,0.07884
2306.77939,0.07851
2304.85064,0.07825
2302.92190,0.07799
2300.99315,0.07761
2299.06441,0.07714
2297.13566,0.07674
2295.20692,0.07646
2293.27817,0.07614
2291.34943,0.07572
2289.42068,0.07518
2287.49193,0.07463
2285.56319,0.07428
2283.63444,0.07405
2281.70570,0.07367
2279.77695,0.07325
2277.84821,0.07308
2275.91946,0.07312
2273.99072,0.07312
2272.06197,0.07305
2270.13323,0.07298
2268.20448,0.07291
2266.27574,0.07290
2264.34699,0.07299
2262.41825,0.07311
2260.48950,0.07315
2258.56075,0.07318
2256.63201,0.07316
2254.70326,0.07294
2252.77452,0.07237
2250.84577,0.07135
2248.91703,0.06992
2246.98828,0.06828
2245.05954,0.06651
2243.13079,0.06453
2241.20205,0.06263
2239.27330,0.06138
2237.34456,0.06115
2235.41581,0.06218
2233.48707,0.06448
2231.55832,0.06765
2229.62958,0.07093
2227.70083,0.07359
2225.77208,0.07534
2223.84334,0.07633
2221.91459,0.07700
2219.98585,0.07757
2218.05710,0.07808
2216.12836,0.07848
2214.19961,0.07867
2212.27087,0.07864
2210.34212,0.07865
2208.41338,0.07880
2206.48463,0.07903
2204.55589,0.07937
2202.62714,0.07970
2200.69840,0.07977
2198.76965,0.07971
2196.84090,0.07966
2194.91216,0.07968
2192.98341,0.07987
2191.05467,0.08003
2189.12592,0.08002
2187.19718,0.07998
2185.26843,0.08004
2183.33969,0.08017
2181.41094,0.08033
2179.48220,0.08056
2177.55345,0.08079
2175.62471,0.08096
2173.69596,0.08100
2171.76722,0.08092
2169.83847,0.08086
2167.90973,0.08087
2165.98098,0.08092
2164.05223,0.08099
2162.12349,0.08104
2160.19474,0.08110
2158.26600,0.08119
2156.33725,0.08119
2154.40851,0.08107
2152.47976,0.08098
2150.55102,0.08104
2148.62227,0.08122
2146.69353,0.08145
2144.76478,0.08156
2142.83604,0.08159
2140.90729,0.08165
2138.97855,0.08168
2137.04980,0.08157
2135.12106,0.08133
2133.19231,0.08103
2131.26356,0.08081
2129.33482,0.08089
2127.40607,0.08119
2125.47733,0.08138
2123.54858,0.08132
2121.61984,0.08124
2119.69109,0.08127
2117.76235,0.08142
2115.83360,0.08153
2113.90486,0.08142
2111.97611,0.08116
2110.04737,0.08088
2108.11862,0.08069
2106.18988,0.08066
2104.26113,0.08062
2102.33238,0.08046
2100.40364,0.08030
2098.47489,0.08026
2096.54615,0.08020
2094.61740,0.08000
2092.68866,0.07984
2090.75991,0.07987
2088.83117,0.08002
2086.90242,0.07996
2084.97368,0.07957
2083.04493,0.07909
2081.11619,0.07887
2079.18744,0.07902
2077.25870,0.07918
2075.32995,0.07906
2073.40121,0.07880
2071.47246,0.07859
2069.54371,0.07856
2067.61497,0.07873
2065.68622,0.07884
2063.75748,0.07867
2061.82873,0.07837
2059.89999,0.07811
2057.97124,0.07783
2056.04250,0.07748
2054.11375,0.07729
2052.18501,0.07739
2050.25626,0.07750
2048.32752,0.07748
2046.39877,0.07743
2044.47003,0.07735
2042.54128,0.07713
2040.61254,0.07678
2038.68379,0.07657
2036.75504,0.07650
2034.82630,0.07631
2032.89755,0.07608
2030.96881,0.07585
2029.04006,0.07556
2027.11132,0.07534
2025.18257,0.07526
2023.25383,0.07513
2021.32508,0.07480
2019.39634,0.07449
2017.46759,0.07430
2015.53885,0.07412
2013.61010,0.07398
2011.68136,0.07397
2009.75261,0.07395
2007.82386,0.07376
2005.89512,0.07360
2003.96637,0.07353
2002.03763,0.07338
2000.10888,0.07314
1998.18014,0.07297
1996.25139,0.07293
1994.32265,0.07290
1992.39390,0.07273
1990.46516,0.07241
1988.53641,0.07218
1986.60767,0.07214
1984.67892,0.07212
1982.75018,0.07201
1980.82143,0.07178
1978.89269,0.07155
1976.96394,0.07146
1975.03519,0.07141
1973.10645,0.07117
1971.17770,0.07079
1969.24896,0.07043
1967.32021,0.07001
1965.39147,0.06963
1963.46272,0.06939
1961.53398,0.06908
1959.60523,0.06872
1957.67649,0.06857
1955.74774,0.06864
1953.81900,0.06874
1951.89025,0.06884
1949.96151,0.06891
1948.03276,0.06896
1946.10402,0.06917
1944.17527,0.06953
1942.24652,0.06980
1940.31778,0.06999
1938.38903,0.07032
1936.46029,0.07074
1934.53154,0.07095
1932.60280,0.07100
1930.67405,0.07115
1928.74531,0.07139
1926.81656,0.07147
1924.88782,0.07147
1922.95907,0.07153
1921.03033,0.07161
1919.10158,0.07161
1917.17284,0.07139
1915.24409,0.07102
1913.31534,0.07070
1911.38660,0.07049
1909.45785,0.07032
1907.52911,0.07007
1905.60036,0.06981
1903.67162,0.06963
1901.74287,0.06945
1899.81413,0.06916
1897.88538,0.06886
1895.95664,0.06865
1894.02789,0.06850
1892.09915,0.06838
1890.17040,0.06831
1888.24166,0.06833
1886.31291,0.06838
1884.38417,0.06834
1882.45542,0.06828
1880.52667,0.06835
1878.59793,0.06841
1876.66918,0.06839
1874.74044,0.06850
1872.81169,0.06880
1870.88295,0.06914
1868.95420,0.06946
1867.02546,0.06974
1865.09671,0.07005
1863.16797,0.07047
1861.23922,0.07080
1859.31048,0.07084
1857.38173,0.07076
1855.45299,0.07069
1853.52424,0.07054
1851.59549,0.07027
1849.66675,0.06993
1847.73800,0.06959
1845.80926,0.06921
1843.88051,0.06870
1841.95177,0.06817
1840.02302,0.06773
1838.09428,0.06727
1836.16553,0.06669
1834.23679,0.06604
1832.30804,0.06543
1830.37930,0.06482
1828.45055,0.06416
1826.52181,0.06340
1824.59306,0.06251
1822.66432,0.06169
1820.73557,0.06098
1818.80682,0.06019
1816.87808,0.05947
1814.94933,0.05894
1813.02059,0.05846
1811.09184,0.05789
1809.16310,0.05726
1807.23435,0.05668
1805.30561,0.05617
1803.37686,0.05572
1801.44812,0.05533
1799.51937,0.05495
1797.59063,0.05461
1795.66188,0.05440
1793.73314,0.05414
1791.80439,0.05356
1789.87565,0.05288
1787.94690,0.05244
1786.01815,0.05209
1784.08941,0.05147
1782.16066,0.05048
1780.23192,0.04946
1778.30317,0.04866
1776.37443,0.04811
1774.44568,0.04765
1772.51694,0.04702
1770.58819,0.04616
1768.65945,0.04512
1766.73070,0.04390
1764.80196,0.04279
1762.87321,0.04175
1760.94447,0.04054
1759.01572,0.03919
1757.08697,0.03753
1755.15823,0.03572
1753.22948,0.03419
1751.30074,0.03274
1749.37199,0.03113
1747.44325,0.02963
1745.51450,0.02843
1743.58576,0.02765
1741.65701,0.02723
1739.72827,0.02688
1737.79952,0.02663
1735.87078,0.02658
1733.94203,0.02651
1732.01329,0.02646
1730.08454,0.02668
1728.15580,0.02699
1726.22705,0.02715
1724.29830,0.02720
1722.36956,0.02722
1720.44081,0.02733
1718.51207,0.02754
1716.58332,0.02763
1714.65458,0.02752
1712.72583,0.02744
1710.79709,0.02754
1708.86834,0.02765
1706.93960,0.02761
1705.01085,0.02760
1703.08211,0.02788
1701.15336,0.02819
1699.22462,0.02813
1697.29587,0.02795
1695.36713,0.02780
1693.43838,0.02766
1691.50963,0.02757
1689.58089,0.02753
1687.65214,0.02775
1685.72340,0.02808
1683.79465,0.02778
1681.86591,0.02724
1679.93716,0.02736
1678.00842,0.02777
1676.07967,0.02788
1674.15093,0.02757
1672.22218,0.02730
1670.29344,0.02719
1668.36469,0.02696
1666.43595,0.02676
1664.50720,0.02680
1662.57845,0.02688
1660.64971,0.02677
1658.72096,0.02658
1656.79222,0.02655
1654.86347,0.02665
1652.93473,0.02656
1651.00598,0.02633
1649.07724,0.02632
1647.14849,0.02638
1645.21975,0.02634
1643.29100,0.02635
1641.36226,0.02652
1639.43351,0.02693
1637.50477,0.02754
1635.57602,0.02811
1633.64728,0.02838
1631.71853,0.02852
1629.78978,0.02870
1627.86104,0.02875
1625.93229,0.02853
1624.00355,0.02822
1622.07480,0.02801
1620.14606,0.02796
1618.21731,0.02786
1616.28857,0.02749
1614.35982,0.02703
1612.43108,0.02660
1610.50233,0.02614
1608.57359,0.02582
1606.64484,0.02587
1604.71610,0.02608
1602.78735,0.02613
1600.85861,0.02620
1598.92986,0.02645
1597.00111,0.02659
1595.07237,0.02663
1593.14362,0.02682
1591.21488,0.02711
1589.28613,0.02738
1587.35739,0.02770
1585.42864,0.02799
1583.49990,0.02809
1581.57115,0.02802
1579.64241,0.02795
1577.71366,0.02785
1575.78492,0.02748
1573.85617,0.02706
1571.92743,0.02678
1569.99868,0.02639
1568.06993,0.02583
1566.14119,0.02529
1564.21244,0.02490
1562.28370,0.02475
1560.35495,0.02475
1558.42621,0.02466
1556.49746,0.02452
1554.56872,0.02444
1552.63997,0.02437
1550.71123,0.02431
1548.78248,0.02439
1546.85374,0.02477
1544.92499,0.02532
1542.99625,0.02574
1541.06750,0.02585
1539.13876,0.02573
1537.21001,0.02578
1535.28126,0.02609
1533.35252,0.02644
1531.42377,0.02668
1529.49503,0.02688
1527.56628,0.02712
1525.63754,0.02744
1523.70879,0.02781
1521.78005,0.02807
1519.85130,0.02810
1517.92256,0.02802
1515.99381,0.02791
1514.06507,0.02792
1512.13632,0.02813
1510.20758,0.02838
1508.27883,0.02851
1506.35008,0.02841
1504.42134,0.02833
1502.49259,0.02854
1500.56385,0.02885
1498.63510,0.02900
1496.70636,0.02898
1494.77761,0.02902
1492.84887,0.02916
1490.92012,0.02928
1488.99138,0.02933
1487.06263,0.02932
1485.13389,0.02926
1483.20514,0.02906
1481.27640,0.02871
1479.34765,0.02853
1477.41891,0.02849
1475.49016,0.02829
1473.56141,0.02797
1471.63267,0.02778
1469.70392,0.02780
1467.77518,0.02780
1465.84643,0.02774
1463.91769,0.02771
1461.98894,0.02762
1460.06020,0.02732
1458.13145,0.02685
1456.20271,0.02652
1454.27396,0.02666
1452.34522,0.02702
1450.41647,0.02733
1448.48773,0.02757
1446.55898,0.02788
1444.63024,0.02820
1442.70149,0.02842
1440.77274,0.02868
1438.84400,0.02905
1436.91525,0.02933
1434.98651,0.02952
1433.05776,0.02984
1431.12902,0.03022
1429.20027,0.03047
1427.27153,0.03050
1425.34278,0.03033
1423.41404,0.03006
1421.48529,0.02975
1419.55655,0.02934
1417.62780,0.02889
1415.69906,0.02862
1413.77031,0.02855
1411.84156,0.02864
1409.91282,0.02882
1407.98407,0.02901
1406.05533,0.02917
1404.12658,0.02915
1402.19784,0.02912
1400.26909,0.02927
1398.34035,0.02942
1396.41160,0.02929
1394.48286,0.02901
1392.55411,0.02892
1390.62537,0.02906
1388.69662,0.02913
1386.76788,0.02881
1384.83913,0.02821
1382.91039,0.02774
1380.98164,0.02741
1379.05289,0.02714
1377.12415,0.02701
1375.19540,0.02713
1373.26666,0.02747
1371.33791,0.02793
1369.40917,0.02839
1367.48042,0.02887
1365.55168,0.02939
1363.62293,0.02975
1361.69419,0.02982
1359.76544,0.02969
1357.83670,0.02948
1355.90795,0.02918
1353.97921,0.02892
1352.05046,0.02876
1350.12172,0.02864
1348.19297,0.02846
1346.26422,0.02813
1344.33548,0.02782
1342.40673,0.02795
1340.47799,0.02848
1338.54924,0.02888
1336.62050,0.02894
1334.69175,0.02876
1332.76301,0.02855
1330.83426,0.02841
1328.90552,0.02824
1326.97677,0.02799
1325.04803,0.02768
1323.11928,0.02730
1321.19054,0.02696
1319.26179,0.02671
1317.33304,0.02656
1315.40430,0.02649
1313.47555,0.02648
1311.54681,0.02644
1309.61806,0.02635
1307.68932,0.02630
1305.76057,0.02629
1303.83183,0.02627
1301.90308,0.02628
1299.97434,0.02639
1298.04559,0.02660
1296.11685,0.02673
1294.18810,0.02666
1292.25936,0.02650
1290.33061,0.02645
1288.40187,0.02653
1286.47312,0.02658
1284.54437,0.02650
1282.61563,0.02644
1280.68688,0.02650
1278.75814,0.02656
1276.82939,0.02651
1274.90065,0.02649
1272.97190,0.02647
1271.04316,0.02634
1269.11441,0.02626
1267.18567,0.02629
1265.25692,0.02639
1263.32818,0.02649
1261.39943,0.02634
1259.47069,0.02590
1257.54194,0.02561
1255.61320,0.02564
1253.68445,0.02578
1251.75570,0.02577
1249.82696,0.02561
1247.89821,0.02546
1245.96947,0.02536
1244.04072,0.02514
1242.11198,0.02496
1240.18323,0.02510
1238.25449,0.02535
1236.32574,0.02538
1234.39700,0.02537
1232.46825,0.02559
1230.53951,0.02582
1228.61076,0.02584
1226.68202,0.02581
1224.75327,0.02582
1222.82452,0.02599
1220.89578,0.02642
1218.96703,0.02687
1217.03829,0.02716
1215.10954,0.02733
1213.18080,0.02746
1211.25205,0.02758
1209.32331,0.02754
1207.39456,0.02727
1205.46582,0.02711
1203.53707,0.02733
1201.60833,0.02756
1199.67958,0.02746
1197.75084,0.02741
1195.82209,0.02762
1193.89335,0.02773
1191.96460,0.02756
1190.03585,0.02742
1188.10711,0.02750
1186.17836,0.02748
1184.24962,0.02716
1182.32087,0.02681
1180.39213,0.02670
1178.46338,0.02683
1176.53464,0.02685
1174.60589,0.02654
1172.67715,0.02610
1170.74840,0.02577
1168.81966,0.02561
1166.89091,0.02558
1164.96217,0.02550
1163.03342,0.02545
1161.10467,0.02565
1159.17593,0.02581
1157.24718,0.02569
1155.31844,0.02559
1153.38969,0.02547
1151.46095,0.02524
1149.53220,0.02502
1147.60346,0.02483
1145.67471,0.02477
1143.74597,0.02491
1141.81722,0.02504
1139.88848,0.02513
1137.95973,0.02522
1136.03099,0.02515
1134.10224,0.02497
1132.17350,0.02495
1130.24475,0.02516
1128.31600,0.02552
1126.38726,0.02602
1124.45851,0.02660
1122.52977,0.02710
1120.60102,0.02735
1118.67228,0.02739
1116.74353,0.02742
1114.81479,0.02753
1112.88604,0.02769
1110.95730,0.02794
1109.02855,0.02835
1107.09981,0.02864
1105.17106,0.02862
1103.24232,0.02856
1101.31357,0.02877
1099.38483,0.02917
1097.45608,0.02950
1095.52733,0.02975
1093.59859,0.03004
1091.66984,0.03039
1089.74110,0.03068
1087.81235,0.03068
1085.88361,0.03048
1083.95486,0.03026
1082.02612,0.03018
1080.09737,0.03036
1078.16863,0.03059
1076.23988,0.03076
1074.31114,0.03103
1072.38239,0.03143
1070.45365,0.03162
1068.52490,0.03158
1066.59615,0.03168
1064.66741,0.03197
1062.73866,0.03209
1060.80992,0.03195
1058.88117,0.03178
1056.95243,0.03181
1055.02368,0.03186
1053.09494,0.03173
1051.16619,0.03167
1049.23745,0.03202
1047.30870,0.03249
1045.37996,0.03252
1043.45121,0.03229
1041.52247,0.03239
1039.59372,0.03256
1037.66498,0.03249
1035.73623,0.03255
1033.80748,0.03274
1031.87874,0.03261
1029.94999,0.03239
1028.02125,0.03241
1026.09250,0.03247
1024.16376,0.03255
1022.23501,0.03275
1020.30627,0.03294
1018.37752,0.03312
1016.44878,0.03335
1014.52003,0.03359
1012.59129,0.03394
1010.66254,0.03437
1008.73380,0.03469
1006.80505,0.03478
1004.87631,0.03469
1002.94756,0.03462
1001.01881,0.03476
999.09007,0.03511
997.16132,0.03557
995.23258,0.03603
993.30383,0.03628
991.37509,0.03639
989.44634,0.03661
987.51760,0.03697
985.58885,0.03728
983.66011,0.03759
981.73136,0.03803
979.80262,0.03829
977.87387,0.03799
975.94513,0.03743
974.01638,0.03718
972.08763,0.03733
970.15889,0.03757
968.23014,0.03771
966.30140,0.03772
964.37265,0.03766
962.44391,0.03774
960.51516,0.03797
958.58642,0.03804
956.65767,0.03805
954.72893,0.03823
952.80018,0.03838
950.87144,0.03842
948.94269,0.03845
947.01395,0.03836
945.08520,0.03797
943.15646,0.03744
941.22771,0.03710
939.29896,0.03698
937.37022,0.03702
935.44147,0.03697
933.51273,0.03649
931.58398,0.03593
929.65524,0.03581
927.72649,0.03599
925.79775,0.03605
923.86900,0.03593
921.94026,0.03601
920.01151,0.03624
918.08277,0.03641
916.15402,0.03672
914.22528,0.03714
912.29653,0.03744
910.36779,0.03770
908.43904,0.03806
906.51029,0.03843
904.58155,0.03872
902.65280,0.03892
900.72406,0.03904
898.79531,0.03905
896.86657,0.03900
894.93782,0.03921
893.00908,0.03960
891.08033,0.03962
889.15159,0.03913
887.22284,0.03831
885.29410,0.03742
883.36535,0.03690
881.43661,0.03689
879.50786,0.03692
877.57911,0.03662
875.65037,0.03615
873.72162,0.03569
871.79288,0.03550
869.86413,0.03558
867.93539,0.03562
866.00664,0.03565
864.07790,0.03589
862.14915,0.03634
860.22041,0.03695
858.29166,0.03753
856.36292,0.03785
854.43417,0.03782
852.50543,0.03760
850.57668,0.03747
848.64794,0.03750
846.71919,0.03764
844.79044,0.03782
842.86170,0.03778
840.93295,0.03747
839.00421,0.03715
837.07546,0.03687
835.14672,0.03655
833.21797,0.03614
831.28923,0.03568
829.36048,0.03543
827.43174,0.03557
825.50299,0.03558
823.57425,0.03512
821.64550,0.03460
819.71676,0.03415
817.78801,0.03384
815.85926,0.03402
813.93052,0.03452
812.00177,0.03476
810.07303,0.03490
808.14428,0.03529
806.21554,0.03581
804.28679,0.03613
802.35805,0.03614
800.42930,0.03640
798.50056,0.03725
796.57181,0.03800
794.64307,0.03796
792.71432,0.03749
790.78558,0.03733
788.85683,0.03739
786.92809,0.03709
784.99934,0.03638
783.07059,0.03544
781.14185,0.03453
779.21310,0.03400
777.28436,0.03391
775.35561,0.03382
773.42687,0.03348
771.49812,0.03311
769.56938,0.03258
767.64063,0.03194
765.71189,0.03175
763.78314,0.03204
761.85440,0.03224
759.92565,0.03215
757.99691,0.03209
756.06816,0.03213
754.13942,0.03235
752.21067,0.03304
750.28192,0.03397
748.35318,0.03470
746.42443,0.03525
744.49569,0.03567
742.56694,0.03608
740.63820,0.03680
738.70945,0.03741
736.78071,0.03756
734.85196,0.03772
732.92322,0.03802
730.99447,0.03816
729.06573,0.03802
727.13698,0.03756
725.20824,0.03712
723.27949,0.03711
721.35074,0.03723
719.42200,0.03701
717.49325,0.03609
715.56451,0.03432
713.63576,0.03229
711.70702,0.03051
709.77827,0.02909
707.84953,0.02837
705.92078,0.02855
703.99204,0.02911
702.06329,0.02967
700.13455,0.03049
698.20580,0.03168
696.27706,0.03293
694.34831,0.03372
692.41957,0.03392
690.49082,0.03401
688.56207,0.03434
686.63333,0.03473
684.70458,0.03482
682.77584,0.03481
680.84709,0.03514
678.91835,0.03562
676.98960,0.03596
675.06086,0.03574
673.13211,0.03483
671.20337,0.03409
669.27462,0.03425
667.34588,0.03492
665.41713,0.03553
663.48839,0.03566
661.55964,0.03563
659.63090,0.03608
657.70215,0.03627
655.77340,0.03551
653.84466,0.03488
651.91591,0.03509
649.98717,0.03550
648.05842,0.03566
646.12968,0.03547
644.20093,0.03502
642.27219,0.03520
640.34344,0.03657
638.41470,0.03772
636.48595,0.03721
634.55721,0.03615
632.62846,0.03635
630.69972,0.03699
628.77097,0.03710
626.84222,0.03753
624.91348,0.03831
622.98473,0.03853
621.05599,0.03795
619.12724,0.03694
617.19850,0.03616
615.26975,0.03599
613.34101,0.03617
611.41226,0.03617
609.48352,0.03596
607.55477,0.03604
605.62603,0.03669
603.69728,0.03721
601.76854,0.03666
599.83979,0.03503
