7497.03301,0.08938
7495.10426,0.09408
7493.17552,0.09612
7491.24677,0.09437
7489.31803,0.09185
7487.38928,0.08857
7485.46054,0.08683
7483.53179,0.08878
7481.60305,0.09221
7479.67430,0.09399
7477.74556,0.09345
7475.81681,0.09184
7473.88807,0.09126
7471.95932,0.09254
7470.03057,0.09280
7468.10183,0.09046
7466.17308,0.08806
7464.24434,0.08742
7462.31559,0.09048
7460.38685,0.09676
7458.45810,0.10003
7456.52936,0.09887
7454.60061,0.09651
7452.67187,0.09296
7450.74312,0.08891
7448.81438,0.08787
7446.88563,0.08967
7444.95689,0.09055
7443.02814,0.09118
7441.09940,0.09266
7439.17065,0.09250
7437.24190,0.09194
7435.31316,0.09313
7433.38441,0.09450
7431.45567,0.09243
7429.52692,0.08782
7427.59818,0.08590
7425.66943,0.08722
7423.74069,0.08872
7421.81194,0.08993
7419.88320,0.09338
7417.95445,0.09806
7416.02571,0.09737
7414.09696,0.09327
7412.16822,0.09275
7410.23947,0.09469
7408.31073,0.09696
7406.38198,0.09875
7404.45323,0.09800
7402.52449,0.09524
7400.59574,0.09040
7398.66700,0.08500
7396.73825,0.08442
7394.80951,0.08807
7392.88076,0.09097
7390.95202,0.09273
7389.02327,0.09393
7387.09453,0.09475
7385.16578,0.09556
7383.23704,0.09461
7381.30829,0.09229
7379.37955,0.09121
7377.45080,0.09137
7375.52205,0.09315
7373.59331,0.09456
7371.66456,0.09212
7369.73582,0.09076
7367.80707,0.09563
7365.87833,0.10108
7363.94958,0.10034
7362.02084,0.09360
7360.09209,0.08791
7358.16335,0.08964
7356.23460,0.09549
7354.30586,0.09902
7352.37711,0.10000
7350.44837,0.09887
7348.51962,0.09509
7346.59088,0.09118
7344.66213,0.08965
7342.73338,0.09088
7340.80464,0.09280
7338.87589,0.09192
7336.94715,0.08935
7335.01840,0.08938
7333.08966,0.09188
7331.16091,0.09305
7329.23217,0.09335
7327.30342,0.09399
7325.37468,0.09334
7323.44593,0.09323
7321.51719,0.09397
7319.58844,0.09208
7317.65970,0.09041
7315.73095,0.09110
7313.80221,0.09108
7311.87346,0.09264
7309.94471,0.09866
7308.01597,0.10201
7306.08722,0.09986
7304.15848,0.09949
7302.22973,0.10179
7300.30099,0.10093
7298.37224,0.09781
7296.44350,0.09574
7294.51475,0.09338
7292.58601,0.09101
7290.65726,0.09117
7288.72852,0.09188
7286.79977,0.09045
7284.87103,0.08940
7282.94228,0.09092
7281.01353,0.09295
7279.08479,0.09534
7277.15604,0.09654
7275.22730,0.09267
7273.29855,0.08723
7271.36981,0.08657
7269.44106,0.08889
7267.51232,0.09034
7265.58357,0.09125
7263.65483,0.09279
7261.72608,0.09431
7259.79734,0.09483
7257.86859,0.09341
7255.93985,0.09150
7254.01110,0.09169
7252.08236,0.09381
7250.15361,0.09522
7248.22486,0.09461
7246.29612,0.09241
7244.36737,0.09070
7242.43863,0.09194
7240.50988,0.09485
7238.58114,0.09483
7236.65239,0.09233
7234.72365,0.09109
7232.79490,0.09110
7230.86616,0.08956
7228.93741,0.08760
7227.00867,0.09034
7225.07992,0.09574
7223.15118,0.09615
7221.22243,0.09294
7219.29369,0.09079
7217.36494,0.08974
7215.43619,0.09018
7213.50745,0.09152
7211.57870,0.09210
7209.64996,0.09122
7207.72121,0.08799
7205.79247,0.08444
7203.86372,0.08516
7201.93498,0.09044
7200.00623,0.09603
7198.07749,0.09889
7196.14874,0.09984
7194.22000,0.10169
7192.29125,0.10325
7190.36251,0.10133
7188.43376,0.09804
7186.50501,0.09495
7184.57627,0.09076
7182.64752,0.08932
7180.71878,0.09307
7178.79003,0.09669
7176.86129,0.09728
7174.93254,0.09610
7173.00380,0.09433
7171.07505,0.09429
7169.14631,0.09662
7167.21756,0.09886
7165.28882,0.09849
7163.36007,0.09650
7161.43133,0.09509
7159.50258,0.09405
7157.57384,0.09467
7155.64509,0.09772
7153.71634,0.09779
7151.78760,0.09322
7149.85885,0.08962
7147.93011,0.08994
7146.00136,0.09091
7144.07262,0.09043
7142.14387,0.09047
7140.21513,0.09219
7138.28638,0.09621
7136.35764,0.09985
7134.42889,0.09915
7132.50015,0.09899
7130.57140,0.10061
7128.64266,0.09744
7126.71391,0.09227
7124.78516,0.09010
7122.85642,0.08990
7120.92767,0.09259
7118.99893,0.09619
7117.07018,0.09611
7115.14144,0.09440
7113.21269,0.09489
7111.28395,0.09633
7109.35520,0.09682
7107.42646,0.09642
7105.49771,0.09538
7103.56897,0.09370
7101.64022,0.09246
7099.71148,0.09250
7097.78273,0.09201
7095.85399,0.09072
7093.92524,0.09113
7091.99649,0.09266
7090.06775,0.09281
7088.13900,0.09119
7086.21026,0.08969
7084.28151,0.09056
7082.35277,0.09385
7080.42402,0.09624
7078.49528,0.09521
7076.56653,0.09230
7074.63779,0.09000
7072.70904,0.09063
7070.78030,0.09413
7068.85155,0.09729
7066.92281,0.09958
7064.99406,0.10050
7063.06532,0.09806
7061.13657,0.09416
7059.20782,0.09318
7057.27908,0.09596
7055.35033,0.09888
7053.42159,0.09790
7051.49284,0.09291
7049.56410,0.08802
7047.63535,0.08684
7045.70661,0.08929
7043.77786,0.09370
7041.84912,0.09766
7039.92037,0.09982
7037.99163,0.09978
7036.06288,0.09746
7034.13414,0.09529
7032.20539,0.09470
7030.27664,0.09373
7028.34790,0.09215
7026.41915,0.09127
7024.49041,0.09137
7022.56166,0.09117
7020.63292,0.08930
7018.70417,0.08823
7016.77543,0.09008
7014.84668,0.09152
7012.91794,0.09172
7010.98919,0.09347
7009.06045,0.09557
7007.13170,0.09395
7005.20296,0.08928
7003.27421,0.08725
7001.34547,0.08959
6999.41672,0.09173
6997.48797,0.09118
6995.55923,0.08920
6993.63048,0.08678
6991.70174,0.08595
6989.77299,0.08843
6987.84425,0.09175
6985.91550,0.09280
6983.98676,0.09085
6982.05801,0.08760
6980.12927,0.08579
6978.20052,0.08586
6976.27178,0.08700
6974.34303,0.08911
6972.41429,0.09146
6970.48554,0.09303
6968.55680,0.09476
6966.62805,0.09697
6964.69930,0.09683
6962.77056,0.09528
6960.84181,0.09645
6958.91307,0.09869
6956.98432,0.09892
6955.05558,0.09812
6953.12683,0.09672
6951.19809,0.09520
6949.26934,0.09484
6947.34060,0.09464
6945.41185,0.09393
6943.48311,0.09492
6941.55436,0.09756
6939.62562,0.09841
6937.69687,0.09644
6935.76812,0.09457
6933.83938,0.09549
6931.91063,0.09770
6929.98189,0.09689
6928.05314,0.09435
6926.12440,0.09471
6924.19565,0.09650
6922.26691,0.09657
6920.33816,0.09558
6918.40942,0.09440
6916.48067,0.09336
6914.55193,0.09237
6912.62318,0.09214
6910.69444,0.09242
6908.76569,0.09204
6906.83695,0.09273
6904.90820,0.09533
6902.97945,0.09697
6901.05071,0.09617
6899.12196,0.09481
6897.19322,0.09527
6895.26447,0.09555
6893.33573,0.09388
6891.40698,0.09320
6889.47824,0.09420
6887.54949,0.09391
6885.62075,0.09266
6883.69200,0.09339
6881.76326,0.09575
6879.83451,0.09584
6877.90577,0.09308
6875.97702,0.09220
6874.04828,0.09537
6872.11953,0.09850
6870.19078,0.09885
6868.26204,0.09695
6866.33329,0.09313
6864.40455,0.08954
6862.47580,0.08847
6860.54706,0.08887
6858.61831,0.08961
6856.68957,0.09155
6854.76082,0.09455
6852.83208,0.09708
6850.90333,0.09818
6848.97459,0.09630
6847.04584,0.09271
6845.11710,0.09140
6843.18835,0.09170
6841.25960,0.09337
6839.33086,0.09784
6837.40211,0.10014
6835.47337,0.09661
6833.54462,0.09211
6831.61588,0.09112
6829.68713,0.09212
6827.75839,0.09274
6825.82964,0.09173
6823.90090,0.08912
6821.97215,0.08856
6820.04341,0.09187
6818.11466,0.09466
6816.18592,0.09385
6814.25717,0.09169
6812.32843,0.09126
6810.39968,0.09293
6808.47093,0.09509
6806.54219,0.09635
6804.61344,0.09600
6802.68470,0.09459
6800.75595,0.09354
6798.82721,0.09370
6796.89846,0.09543
6794.96972,0.09783
6793.04097,0.09840
6791.11223,0.09665
6789.18348,0.09537
6787.25474,0.09584
6785.32599,0.09600
6783.39725,0.09400
6781.46850,0.09146
6779.53975,0.09195
6777.61101,0.09506
6775.68226,0.09733
6773.75352,0.09836
6771.82477,0.09827
6769.89603,0.09559
6767.96728,0.09177
6766.03854,0.09102
6764.10979,0.09403
6762.18105,0.09726
6760.25230,0.09791
6758.32356,0.09579
6756.39481,0.09338
6754.46607,0.09355
6752.53732,0.09474
6750.60858,0.09448
6748.67983,0.09339
6746.75108,0.09244
6744.82234,0.09267
6742.89359,0.09377
6740.96485,0.09394
6739.03610,0.09377
6737.10736,0.09372
6735.17861,0.09395
6733.24987,0.09522
6731.32112,0.09568
6729.39238,0.09340
6727.46363,0.09007
6725.53489,0.08891
6723.60614,0.09045
6721.67740,0.09218
6719.74865,0.09252
6717.81991,0.09222
6715.89116,0.09296
6713.96241,0.09406
6712.03367,0.09380
6710.10492,0.09370
6708.17618,0.09534
6706.24743,0.09755
6704.31869,0.09829
6702.38994,0.09750
6700.46120,0.09739
6698.53245,0.09845
6696.60371,0.09896
6694.67496,0.09760
6692.74622,0.09565
6690.81747,0.09568
6688.88873,0.09714
6686.95998,0.09755
6685.03123,0.09648
6683.10249,0.09463
6681.17374,0.09288
6679.24500,0.09161
6677.31625,0.09071
6675.38751,0.09107
6673.45876,0.09346
6671.53002,0.09590
6669.60127,0.09588
6667.67253,0.09422
6665.74378,0.09251
6663.81504,0.09071
6661.88629,0.09040
6659.95755,0.09174
6658.02880,0.09257
6656.10006,0.09303
6654.17131,0.09401
6652.24256,0.09577
6650.31382,0.09753
6648.38507,0.09639
6646.45633,0.09189
6644.52758,0.08863
6642.59884,0.09033
6640.67009,0.09388
6638.74135,0.09445
6636.81260,0.09308
6634.88386,0.09353
6632.95511,0.09580
6631.02637,0.09733
6629.09762,0.09790
6627.16888,0.09847
6625.24013,0.09848
6623.31139,0.09780
6621.38264,0.09698
6619.45389,0.09617
6617.52515,0.09498
6615.59640,0.09366
6613.66766,0.09301
6611.73891,0.09246
6609.81017,0.09213
6607.88142,0.09294
6605.95268,0.09392
6604.02393,0.09421
6602.09519,0.09446
6600.16644,0.09394
6598.23770,0.09228
6596.30895,0.09215
6594.38021,0.09356
6592.45146,0.09426
6590.52271,0.09462
6588.59397,0.09514
6586.66522,0.09532
6584.73648,0.09601
6582.80773,0.09720
6580.87899,0.09680
6578.95024,0.09446
6577.02150,0.09208
6575.09275,0.09149
6573.16401,0.09268
6571.23526,0.09393
6569.30652,0.09468
6567.37777,0.09523
6565.44903,0.09552
6563.52028,0.09599
6561.59154,0.09613
6559.66279,0.09452
6557.73404,0.09265
6555.80530,0.09302
6553.87655,0.09429
6551.94781,0.09487
6550.01906,0.09440
6548.09032,0.09228
6546.16157,0.09084
6544.23283,0.09188
6542.30408,0.09271
6540.37534,0.09210
6538.44659,0.09252
6536.51785,0.09407
6534.58910,0.09487
6532.66036,0.09479
6530.73161,0.09342
6528.80287,0.09158
6526.87412,0.09168
6524.94537,0.09301
6523.01663,0.09448
6521.08788,0.09651
6519.15914,0.09754
6517.23039,0.09690
6515.30165,0.09671
6513.37290,0.09680
6511.44416,0.09544
6509.51541,0.09322
6507.58667,0.09234
6505.65792,0.09314
6503.72918,0.09391
6501.80043,0.09445
6499.87169,0.09560
6497.94294,0.09620
6496.01419,0.09462
6494.08545,0.09227
6492.15670,0.09175
6490.22796,0.09242
6488.29921,0.09313
6486.37047,0.09421
6484.44172,0.09474
6482.51298,0.09423
6480.58423,0.09413
6478.65549,0.09528
6476.72674,0.09628
6474.79800,0.09639
6472.86925,0.09746
6470.94051,0.09929
6469.01176,0.09875
6467.08302,0.09600
6465.15427,0.09477
6463.22552,0.09531
6461.29678,0.09420
6459.36803,0.09172
6457.43929,0.09159
6455.51054,0.09429
6453.58180,0.09720
6451.65305,0.09875
6449.72431,0.09882
6447.79556,0.09757
6445.86682,0.09574
6443.93807,0.09450
6442.00933,0.09425
6440.08058,0.09507
6438.15184,0.09633
6436.22309,0.09649
6434.29434,0.09550
6432.36560,0.09412
6430.43685,0.09294
6428.50811,0.09258
6426.57936,0.09236
6424.65062,0.09132
6422.72187,0.09068
6420.79313,0.09194
6418.86438,0.09359
6416.93564,0.09337
6415.00689,0.09315
6413.07815,0.09528
6411.14940,0.09753
6409.22066,0.09745
6407.29191,0.09643
6405.36317,0.09655
6403.43442,0.09731
6401.50567,0.09691
6399.57693,0.09539
6397.64818,0.09448
6395.71944,0.09488
6393.79069,0.09546
6391.86195,0.09617
6389.93320,0.09779
6388.00446,0.09930
6386.07571,0.09968
6384.14697,0.09904
6382.21822,0.09768
6380.28948,0.09686
6378.36073,0.09668
6376.43199,0.09572
6374.50324,0.09434
6372.57450,0.09430
6370.64575,0.09557
6368.71700,0.09604
6366.78826,0.09409
6364.85951,0.09157
6362.93077,0.09143
6361.00202,0.09322
6359.07328,0.09473
6357.14453,0.09547
6355.21579,0.09572
6353.28704,0.09544
6351.35830,0.09453
6349.42955,0.09414
6347.50081,0.09614
6345.57206,0.09910
6343.64332,0.09935
6341.71457,0.09716
6339.78582,0.09535
6337.85708,0.09499
6335.92833,0.09604
6333.99959,0.09676
6332.07084,0.09531
6330.14210,0.09358
6328.21335,0.09369
6326.28461,0.09447
6324.35586,0.09445
6322.42712,0.09352
6320.49837,0.09242
6318.56963,0.09257
6316.64088,0.09386
6314.71214,0.09464
6312.78339,0.09455
6310.85465,0.09461
6308.92590,0.09579
6306.99715,0.09722
6305.06841,0.09715
6303.13966,0.09657
6301.21092,0.09710
6299.28217,0.09745
6297.35343,0.09671
6295.42468,0.09561
6293.49594,0.09417
6291.56719,0.09318
6289.63845,0.09426
6287.70970,0.09720
6285.78096,0.09925
6283.85221,0.09912
6281.92347,0.09936
6279.99472,0.10023
6278.06598,0.09892
6276.13723,0.09613
6274.20848,0.09476
6272.27974,0.09506
6270.35099,0.09451
6268.42225,0.09357
6266.49350,0.09541
6264.56476,0.09798
6262.63601,0.09753
6260.70727,0.09606
6258.77852,0.09692
6256.84978,0.09868
6254.92103,0.09855
6252.99229,0.09748
6251.06354,0.09700
6249.13480,0.09662
6247.20605,0.09667
6245.27730,0.09797
6243.34856,0.09929
6241.41981,0.09894
6239.49107,0.09750
6237.56232,0.09674
6235.63358,0.09695
6233.70483,0.09809
6231.77609,0.10024
6229.84734,0.10117
6227.91860,0.09888
6225.98985,0.09558
6224.06111,0.09449
6222.13236,0.09537
6220.20362,0.09589
6218.27487,0.09540
6216.34613,0.09450
6214.41738,0.09386
6212.48863,0.09474
6210.55989,0.09676
6208.63114,0.09683
6206.70240,0.09453
6204.77365,0.09379
6202.84491,0.09618
6200.91616,0.09880
6198.98742,0.09942
6197.05867,0.09839
6195.12993,0.09725
6193.20118,0.09745
6191.27244,0.09856
6189.34369,0.09886
6187.41495,0.09820
6185.48620,0.09782
6183.55746,0.09807
6181.62871,0.09808
6179.69996,0.09683
6177.77122,0.09481
6175.84247,0.09342
6173.91373,0.09300
6171.98498,0.09366
6170.05624,0.09501
6168.12749,0.09554
6166.19875,0.09526
6164.27000,0.09498
6162.34126,0.09471
6160.41251,0.09466
6158.48377,0.09469
6156.55502,0.09532
6154.62628,0.09748
6152.69753,0.09942
6150.76878,0.09908
6148.84004,0.09758
6146.91129,0.09687
6144.98255,0.09713
6143.05380,0.09772
6141.12506,0.09806
6139.19631,0.09730
6137.26757,0.09585
6135.33882,0.09564
6133.41008,0.09664
6131.48133,0.09729
6129.55259,0.09777
6127.62384,0.09789
6125.69510,0.09606
6123.76635,0.09292
6121.83761,0.09112
6119.90886,0.09243
6117.98011,0.09579
6116.05137,0.09781
6114.12262,0.09701
6112.19388,0.09538
6110.26513,0.09452
6108.33639,0.09416
6106.40764,0.09448
6104.47890,0.09564
6102.55015,0.09629
6100.62141,0.09540
6098.69266,0.09377
6096.76392,0.09280
6094.83517,0.09281
6092.90643,0.09345
6090.97768,0.09501
6089.04893,0.09713
6087.12019,0.09820
6085.19144,0.09767
6083.26270,0.09639
6081.33395,0.09464
6079.40521,0.09327
6077.47646,0.09385
6075.54772,0.09500
6073.61897,0.09516
6071.69023,0.09613
6069.76148,0.09834
6067.83274,0.09982
6065.90399,0.09965
6063.97525,0.09786
6062.04650,0.09621
6060.11776,0.09654
6058.18901,0.09738
6056.26026,0.09679
6054.33152,0.09577
6052.40277,0.09557
6050.47403,0.09566
6048.54528,0.09593
6046.61654,0.09666
6044.68779,0.09682
6042.75905,0.09583
6040.83030,0.09527
6038.90156,0.09638
6036.97281,0.09758
6035.04407,0.09673
6033.11532,0.09512
6031.18658,0.09525
6029.25783,0.09626
6027.32909,0.09581
6025.40034,0.09450
6023.47159,0.09400
6021.54285,0.09372
6019.61410,0.09293
6017.68536,0.09254
6015.75661,0.09292
6013.82787,0.09350
6011.89912,0.09351
6009.97038,0.09299
6008.04163,0.09324
6006.11289,0.09452
6004.18414,0.09539
6002.25540,0.09519
6000.32665,0.09455
5998.39791,0.09400
5996.46916,0.09368
5994.54041,0.09366
5992.61167,0.09345
5990.68292,0.09281
5988.75418,0.09268
5986.82543,0.09340
5984.89669,0.09403
5982.96794,0.09377
5981.03920,0.09319
5979.11045,0.09292
5977.18171,0.09264
5975.25296,0.09255
5973.32422,0.09304
5971.39547,0.09325
5969.46673,0.09272
5967.53798,0.09244
5965.60924,0.09247
5963.68049,0.09213
5961.75174,0.09198
5959.82300,0.09212
5957.89425,0.09211
5955.96551,0.09266
5954.03676,0.09389
5952.10802,0.09471
5950.17927,0.09403
5948.25053,0.09198
5946.32178,0.09112
5944.39304,0.09254
5942.46429,0.09387
5940.53555,0.09446
5938.60680,0.09495
5936.67806,0.09420
5934.74931,0.09285
5932.82057,0.09258
5930.89182,0.09242
5928.96307,0.09161
5927.03433,0.09101
5925.10558,0.09132
5923.17684,0.09232
5921.24809,0.09298
5919.31935,0.09317
5917.39060,0.09313
5915.46186,0.09241
5913.53311,0.09158
5911.60437,0.09139
5909.67562,0.09157
5907.74688,0.09196
5905.81813,0.09223
5903.88939,0.09179
5901.96064,0.09122
5900.03189,0.09095
5898.10315,0.09035
5896.17440,0.08977
5894.24566,0.09061
5892.31691,0.09235
5890.38817,0.09329
5888.45942,0.09359
5886.53068,0.09391
5884.60193,0.09358
5882.67319,0.09228
5880.74444,0.09062
5878.81570,0.08946
5876.88695,0.08950
5874.95821,0.09069
5873.02946,0.09130
5871.10072,0.09039
5869.17197,0.09012
5867.24322,0.09105
5865.31448,0.09136
5863.38573,0.09141
5861.45699,0.09215
5859.52824,0.09238
5857.59950,0.09109
5855.67075,0.08949
5853.74201,0.08863
5851.81326,0.08847
5849.88452,0.08906
5847.95577,0.08982
5846.02703,0.09070
5844.09828,0.09222
5842.16954,0.09292
5840.24079,0.09193
5838.31205,0.09082
5836.38330,0.09039
5834.45455,0.09015
5832.52581,0.09028
5830.59706,0.09114
5828.66832,0.09165
5826.73957,0.09088
5824.81083,0.08979
5822.88208,0.08920
5820.95334,0.08889
5819.02459,0.08882
5817.09585,0.08905
5815.16710,0.08926
5813.23836,0.08930
5811.30961,0.08924
5809.38087,0.08889
5807.45212,0.08884
5805.52337,0.08997
5803.59463,0.09124
5801.66588,0.09127
5799.73714,0.09089
5797.80839,0.09159
5795.87965,0.09294
5793.95090,0.09325
5792.02216,0.09228
5790.09341,0.09143
5788.16467,0.09155
5786.23592,0.09225
5784.30718,0.09265
5782.37843,0.09237
5780.44969,0.09177
5778.52094,0.09075
5776.59220,0.08958
5774.66345,0.08941
5772.73470,0.09002
5770.80596,0.09022
5768.87721,0.09006
5766.94847,0.08998
5765.01972,0.08955
5763.09098,0.08894
5761.16223,0.08918
5759.23349,0.08978
5757.30474,0.08993
5755.37600,0.09071
5753.44725,0.09171
5751.51851,0.09097
5749.58976,0.08990
5747.66102,0.09082
5745.73227,0.09216
5743.80352,0.09218
5741.87478,0.09169
5739.94603,0.09106
5738.01729,0.09029
5736.08854,0.08998
5734.15980,0.09025
5732.23105,0.09073
5730.30231,0.09151
5728.37356,0.09269
5726.44482,0.09327
5724.51607,0.09245
5722.58733,0.09158
5720.65858,0.09180
5718.72984,0.09208
5716.80109,0.09196
5714.87235,0.09197
5712.94360,0.09188
5711.01485,0.09169
5709.08611,0.09242
5707.15736,0.09425
5705.22862,0.09520
5703.29987,0.09418
5701.37113,0.09290
5699.44238,0.09259
5697.51364,0.09287
5695.58489,0.09317
5693.65615,0.09348
5691.72740,0.09366
5689.79866,0.09359
5687.86991,0.09380
5685.94117,0.09426
5684.01242,0.09421
5682.08368,0.09385
5680.15493,0.09348
5678.22618,0.09278
5676.29744,0.09232
5674.36869,0.09320
5672.43995,0.09476
5670.51120,0.09543
5668.58246,0.09536
5666.65371,0.09533
5664.72497,0.09474
5662.79622,0.09378
5660.86748,0.09418
5658.93873,0.09566
5657.00999,0.09633
5655.08124,0.09583
5653.15250,0.09500
5651.22375,0.09434
5649.29500,0.09410
5647.36626,0.09460
5645.43751,0.09561
5643.50877,0.09625
5641.58002,0.09606
5639.65128,0.09535
5637.72253,0.09474
5635.79379,0.09465
5633.86504,0.09472
5631.93630,0.09435
5630.00755,0.09372
5628.07881,0.09380
5626.15006,0.09521
5624.22132,0.09661
5622.29257,0.09618
5620.36383,0.09472
5618.43508,0.09420
5616.50633,0.09456
5614.57759,0.09464
5612.64884,0.09478
5610.72010,0.09549
5608.79135,0.09650
5606.86261,0.09738
5604.93386,0.09734
5603.00512,0.09643
5601.07637,0.09580
5599.14763,0.09556
5597.21888,0.09556
5595.29014,0.09620
5593.36139,0.09693
5591.43265,0.09718
5589.50390,0.09768
5587.57516,0.09864
5585.64641,0.09867
5583.71766,0.09758
5581.78892,0.09698
5579.86017,0.09706
5577.93143,0.09692
5576.00268,0.09693
5574.07394,0.09747
5572.14519,0.09775
5570.21645,0.09723
5568.28770,0.09657
5566.35896,0.09651
5564.43021,0.09682
5562.50147,0.09701
5560.57272,0.09718
5558.64398,0.09752
5556.71523,0.09758
5554.78648,0.09721
5552.85774,0.09681
5550.92899,0.09628
5549.00025,0.09579
5547.07150,0.09606
5545.14276,0.09647
5543.21401,0.09567
5541.28527,0.09464
5539.35652,0.09519
5537.42778,0.09650
5535.49903,0.09727
5533.57029,0.09778
5531.64154,0.09792
5529.71280,0.09739
5527.78405,0.09688
5525.85531,0.09668
5523.92656,0.09679
5521.99781,0.09736
5520.06907,0.09749
5518.14032,0.09683
5516.21158,0.09658
5514.28283,0.09725
5512.35409,0.09834
5510.42534,0.09919
5508.49660,0.09921
5506.56785,0.09844
5504.63911,0.09764
5502.71036,0.09736
5500.78162,0.09720
5498.85287,0.09700
5496.92413,0.09714
5494.99538,0.09723
5493.06664,0.09694
5491.13789,0.09686
5489.20914,0.09727
5487.28040,0.09747
5485.35165,0.09675
5483.42291,0.09602
5481.49416,0.09701
5479.56542,0.09877
5477.63667,0.09901
5475.70793,0.09792
5473.77918,0.09698
5471.85044,0.09657
5469.92169,0.09663
5467.99295,0.09697
5466.06420,0.09714
5464.13546,0.09716
5462.20671,0.09746
5460.27796,0.09813
5458.34922,0.09879
5456.42047,0.09880
5454.49173,0.09803
5452.56298,0.09726
5450.63424,0.09757
5448.70549,0.09851
5446.77675,0.09877
5444.84800,0.09875
5442.91926,0.09875
5440.99051,0.09830
5439.06177,0.09807
5437.13302,0.09845
5435.20428,0.09831
5433.27553,0.09769
5431.34679,0.09799
5429.41804,0.09872
5427.48929,0.09879
5425.56055,0.09863
5423.63180,0.09845
5421.70306,0.09819
5419.77431,0.09808
5417.84557,0.09788
5415.91682,0.09759
5413.98808,0.09803
5412.05933,0.09901
5410.13059,0.09916
5408.20184,0.09857
5406.27310,0.09830
5404.34435,0.09829
5402.41561,0.09829
5400.48686,0.09870
5398.55811,0.09940
5396.62937,0.09960
5394.70062,0.09904
5392.77188,0.09838
5390.84313,0.09860
5388.91439,0.09992
5386.98564,0.10107
5385.05690,0.10094
5383.12815,0.10039
5381.19941,0.10038
5379.27066,0.10032
5377.34192,0.09977
5375.41317,0.09962
5373.48443,0.10038
5371.55568,0.10079
5369.62694,0.10030
5367.69819,0.09990
5365.76944,0.09982
5363.84070,0.09966
5361.91195,0.09934
5359.98321,0.09919
5358.05446,0.09952
5356.12572,0.09974
5354.19697,0.09957
5352.26823,0.09978
5350.33948,0.10038
5348.41074,0.10072
5346.48199,0.10059
5344.55325,0.10039
5342.62450,0.10026
5340.69576,0.09978
5338.76701,0.09907
5336.83827,0.09862
5334.90952,0.09870
5332.98077,0.09946
5331.05203,0.10047
5329.12328,0.10078
5327.19454,0.10050
5325.26579,0.10052
5323.33705,0.10084
5321.40830,0.10100
5319.47956,0.10129
5317.55081,0.10177
5315.62207,0.10172
5313.69332,0.10128
5311.76458,0.10098
5309.83583,0.10048
5307.90709,0.09985
5305.97834,0.09981
5304.04959,0.10036
5302.12085,0.10078
5300.19210,0.10078
5298.26336,0.10059
5296.33461,0.10058
5294.40587,0.10139
5292.47712,0.10269
5290.54838,0.10295
5288.61963,0.10215
5286.69089,0.10144
5284.76214,0.10092
5282.83340,0.10044
5280.90465,0.10027
5278.97591,0.10044
5277.04716,0.10042
5275.11842,0.09978
5273.18967,0.09910
5271.26092,0.09925
5269.33218,0.09981
5267.40343,0.09984
5265.47469,0.09957
5263.54594,0.09960
5261.61720,0.09985
5259.68845,0.10022
5257.75971,0.10034
5255.83096,0.09978
5253.90222,0.09944
5251.97347,0.09993
5250.04473,0.10037
5248.11598,0.10031
5246.18724,0.10010
5244.25849,0.10005
5242.32975,0.10051
5240.40100,0.10129
5238.47225,0.10160
5236.54351,0.10143
5234.61476,0.10160
5232.68602,0.10177
5230.75727,0.10118
5228.82853,0.10024
5226.89978,0.09943
5224.97104,0.09894
5223.04229,0.09927
5221.11355,0.10023
5219.18480,0.10105
5217.25606,0.10151
5215.32731,0.10174
5213.39857,0.10143
5211.46982,0.10082
5209.54107,0.10062
5207.61233,0.10084
5205.68358,0.10105
5203.75484,0.10077
5201.82609,0.10010
5199.89735,0.09970
5197.96860,0.09955
5196.03986,0.09956
5194.11111,0.10014
5192.18237,0.10083
5190.25362,0.10081
5188.32488,0.10036
5186.39613,0.09995
5184.46739,0.09932
5182.53864,0.09897
5180.60990,0.09959
5178.68115,0.10043
5176.75240,0.10064
5174.82366,0.10063
5172.89491,0.10071
5170.96617,0.10056
5169.03742,0.10061
5167.10868,0.10104
5165.17993,0.10095
5163.25119,0.10002
5161.32244,0.09931
5159.39370,0.09955
5157.46495,0.09988
5155.53621,0.09990
5153.60746,0.10034
5151.67872,0.10080
5149.74997,0.10050
5147.82123,0.09983
5145.89248,0.09942
5143.96373,0.09939
5142.03499,0.09965
5140.10624,0.09993
5138.17750,0.09989
5136.24875,0.09955
5134.32001,0.09915
5132.39126,0.09882
5130.46252,0.09884
5128.53377,0.09968
5126.60503,0.10094
5124.67628,0.10181
5122.74754,0.10200
5120.81879,0.10129
5118.89005,0.10015
5116.96130,0.09967
5115.03255,0.10011
5113.10381,0.10066
5111.17506,0.10046
5109.24632,0.10007
5107.31757,0.10053
5105.38883,0.10149
5103.46008,0.10216
5101.53134,0.10228
5099.60259,0.10176
5097.67385,0.10092
5095.74510,0.10032
5093.81636,0.10002
5091.88761,0.10000
5089.95887,0.10050
5088.03012,0.10114
5086.10138,0.10136
5084.17263,0.10117
5082.24388,0.10064
5080.31514,0.10004
5078.38639,0.09988
5076.45765,0.10000
5074.52890,0.09965
5072.60016,0.09893
5070.67141,0.09879
5068.74267,0.09926
5066.81392,0.09962
5064.88518,0.09971
5062.95643,0.09961
5061.02769,0.09930
5059.09894,0.09906
5057.17020,0.09941
5055.24145,0.10005
5053.31270,0.10007
5051.38396,0.09997
5049.45521,0.10056
5047.52647,0.10107
5045.59772,0.10085
5043.66898,0.10051
5041.74023,0.10049
5039.81149,0.10049
5037.88274,0.10034
5035.95400,0.10023
5034.02525,0.10035
5032.09651,0.10038
5030.16776,0.10000
5028.23902,0.09953
5026.31027,0.09922
5024.38153,0.09933
5022.45278,0.09999
5020.52403,0.10017
5018.59529,0.09969
5016.66654,0.09928
5014.73780,0.09892
5012.80905,0.09871
5010.88031,0.09904
5008.95156,0.09941
5007.02282,0.09912
5005.09407,0.09834
5003.16533,0.09785
5001.23658,0.09814
4999.30784,0.09886
4997.37909,0.09933
4995.45035,0.09913
4993.52160,0.09836
4991.59286,0.09776
4989.66411,0.09784
4987.73536,0.09812
4985.80662,0.09792
4983.87787,0.09734
4981.94913,0.09717
4980.02038,0.09766
4978.09164,0.09793
4976.16289,0.09745
4974.23415,0.09675
4972.30540,0.09652
4970.37666,0.09673
4968.44791,0.09701
4966.51917,0.09716
4964.59042,0.09685
4962.66168,0.09604
4960.73293,0.09548
4958.80418,0.09559
4956.87544,0.09588
4954.94669,0.09591
4953.01795,0.09563
4951.08920,0.09524
4949.16046,0.09529
4947.23171,0.09586
4945.30297,0.09601
4943.37422,0.09548
4941.44548,0.09494
4939.51673,0.09486
4937.58799,0.09510
4935.65924,0.09493
4933.73050,0.09441
4931.80175,0.09418
4929.87301,0.09390
4927.94426,0.09318
4926.01551,0.09264
4924.08677,0.09284
4922.15802,0.09329
4920.22928,0.09341
4918.30053,0.09351
4916.37179,0.09370
4914.44304,0.09382
4912.51430,0.09403
4910.58555,0.09411
4908.65681,0.09370
4906.72806,0.09300
4904.79932,0.09233
4902.87057,0.09197
4900.94183,0.09213
4899.01308,0.09246
4897.08434,0.09265
4895.15559,0.09279
4893.22684,0.09306
4891.29810,0.09350
4889.36935,0.09349
4887.44061,0.09268
4885.51186,0.09201
4883.58312,0.09235
4881.65437,0.09320
4879.72563,0.09346
4877.79688,0.09322
4875.86814,0.09319
4873.93939,0.09323
4872.01065,0.09290
4870.08190,0.09235
4868.15316,0.09239
4866.22441,0.09307
4864.29566,0.09311
4862.36692,0.09237
4860.43817,0.09201
4858.50943,0.09220
4856.58068,0.09260
4854.65194,0.09303
4852.72319,0.09301
4850.79445,0.09262
4848.86570,0.09249
4846.93696,0.09293
4845.00821,0.09362
4843.07947,0.09398
4841.15072,0.09380
4839.22198,0.09323
4837.29323,0.09285
4835.36449,0.09309
4833.43574,0.09348
4831.50699,0.09363
4829.57825,0.09366
4827.64950,0.09369
4825.72076,0.09387
4823.79201,0.09415
4821.86327,0.09436
4819.93452,0.09468
4818.00578,0.09504
4816.07703,0.09517
4814.14829,0.09498
4812.21954,0.09471
4810.29080,0.09480
4808.36205,0.09536
4806.43331,0.09588
4804.50456,0.09585
4802.57582,0.09538
4800.64707,0.09515
4798.71832,0.09548
4796.78958,0.09568
4794.86083,0.09548
4792.93209,0.09561
4791.00334,0.09620
4789.07460,0.09680
4787.14585,0.09718
4785.21711,0.09690
4783.28836,0.09626
4781.35962,0.09640
4779.43087,0.09721
4777.50213,0.09750
4775.57338,0.09717
4773.64464,0.09699
4771.71589,0.09715
4769.78714,0.09712
4767.85840,0.09695
4765.92965,0.09701
4764.00091,0.09704
4762.07216,0.09737
4760.14342,0.09819
4758.21467,0.09828
4756.28593,0.09724
4754.35718,0.09601
4752.42844,0.09533
4750.49969,0.09534
4748.57095,0.09574
4746.64220,0.09629
4744.71346,0.09671
4742.78471,0.09669
4740.85597,0.09659
4738.92722,0.09689
4736.99847,0.09746
4735.06973,0.09771
4733.14098,0.09754
4731.21224,0.09726
4729.28349,0.09680
4727.35475,0.09606
4725.42600,0.09539
4723.49726,0.09510
4721.56851,0.09519
4719.63977,0.09565
4717.71102,0.09610
4715.78228,0.09596
4713.85353,0.09545
4711.92479,0.09503
4709.99604,0.09454
4708.06729,0.09391
4706.13855,0.09361
4704.20980,0.09373
4702.28106,0.09391
4700.35231,0.09401
4698.42357,0.09388
4696.49482,0.09372
4694.56608,0.09406
4692.63733,0.09441
4690.70859,0.09413
4688.77984,0.09379
4686.85110,0.09377
4684.92235,0.09378
4682.99361,0.09375
4681.06486,0.09356
4679.13612,0.09321
4677.20737,0.09296
4675.27862,0.09288
4673.34988,0.09280
4671.42113,0.09251
4669.49239,0.09231
4667.56364,0.09242
4665.63490,0.09272
4663.70615,0.09318
4661.77741,0.09351
4659.84866,0.09339
4657.91992,0.09318
4655.99117,0.09339
4654.06243,0.09384
4652.13368,0.09395
4650.20494,0.09360
4648.27619,0.09337
4646.34745,0.09354
4644.41870,0.09357
4642.48995,0.09335
4640.56121,0.09330
4638.63246,0.09319
4636.70372,0.09294
4634.77497,0.09277
4632.84623,0.09274
4630.91748,0.09275
4628.98874,0.09259
4627.05999,0.09211
4625.13125,0.09173
4623.20250,0.09194
4621.27376,0.09252
4619.34501,0.09303
4617.41627,0.09333
4615.48752,0.09337
4613.55877,0.09320
4611.63003,0.09294
4609.70128,0.09274
4607.77254,0.09249
4605.84379,0.09233
4603.91505,0.09262
4601.98630,0.09312
4600.05756,0.09329
4598.12881,0.09327
4596.20007,0.09352
4594.27132,0.09380
4592.34258,0.09390
4590.41383,0.09415
4588.48509,0.09454
4586.55634,0.09488
4584.62760,0.09508
4582.69885,0.09497
4580.77010,0.09454
4578.84136,0.09413
4576.91261,0.09390
4574.98387,0.09379
4573.05512,0.09407
4571.12638,0.09460
4569.19763,0.09487
4567.26889,0.09481
4565.34014,0.09452
4563.41140,0.09435
4561.48265,0.09467
4559.55391,0.09530
4557.62516,0.09573
4555.69642,0.09574
4553.76767,0.09540
4551.83893,0.09506
4549.91018,0.09495
4547.98143,0.09526
4546.05269,0.09599
4544.12394,0.09648
4542.19520,0.09626
4540.26645,0.09576
4538.33771,0.09551
4536.40896,0.09552
4534.48022,0.09565
4532.55147,0.09581
4530.62273,0.09564
4528.69398,0.09508
4526.76524,0.09468
4524.83649,0.09475
4522.90775,0.09510
4520.97900,0.09545
4519.05025,0.09539
4517.12151,0.09509
4515.19276,0.09508
4513.26402,0.09511
4511.33527,0.09497
4509.40653,0.09492
4507.47778,0.09489
4505.54904,0.09481
4503.62029,0.09479
4501.69155,0.09485
4499.76280,0.09496
4497.83406,0.09490
4495.90531,0.09456
4493.97657,0.09412
4492.04782,0.09375
4490.11908,0.09358
4488.19033,0.09364
4486.26158,0.09360
4484.33284,0.09304
4482.40409,0.09225
4480.47535,0.09202
4478.54660,0.09237
4476.61786,0.09259
4474.68911,0.09231
4472.76037,0.09178
4470.83162,0.09151
4468.90288,0.09155
4466.97413,0.09147
4465.04539,0.09113
4463.11664,0.09072
4461.18790,0.09014
4459.25915,0.08939
4457.33041,0.08895
4455.40166,0.08884
4453.47291,0.08873
4451.54417,0.08831
4449.61542,0.08759
4447.68668,0.08690
4445.75793,0.08625
4443.82919,0.08558
4441.90044,0.08510
4439.97170,0.08460
4438.04295,0.08368
4436.11421,0.08252
4434.18546,0.08153
4432.25672,0.08089
4430.32797,0.08039
4428.39923,0.07981
4426.47048,0.07948
4424.54173,0.07934
4422.61299,0.07877
4420.68424,0.07782
4418.75550,0.07721
4416.82675,0.07705
4414.89801,0.07696
4412.96926,0.07690
4411.04052,0.07703
4409.11177,0.07719
4407.18303,0.07707
4405.25428,0.07659
4403.32554,0.07604
4401.39679,0.07586
4399.46805,0.07595
4397.53930,0.07600
4395.61056,0.07600
4393.68181,0.07616
4391.75306,0.07626
4389.82432,0.07596
4387.89557,0.07538
4385.96683,0.07485
4384.03808,0.07472
4382.10934,0.07505
4380.18059,0.07527
4378.25185,0.07493
4376.32310,0.07439
4374.39436,0.07401
4372.46561,0.07383
4370.53687,0.07376
4368.60812,0.07350
4366.67938,0.07313
4364.75063,0.07312
4362.82189,0.07337
4360.89314,0.07333
4358.96439,0.07292
4357.03565,0.07243
4355.10690,0.07204
4353.17816,0.07184
4351.24941,0.07166
4349.32067,0.07141
4347.39192,0.07149
4345.46318,0.07189
4343.53443,0.07217
4341.60569,0.07259
4339.67694,0.07304
4337.74820,0.07264
4335.81945,0.07176
4333.89071,0.07143
4331.96196,0.07154
4330.03321,0.07169
4328.10447,0.07206
4326.17572,0.07253
4324.24698,0.07271
4322.31823,0.07272
4320.38949,0.07287
4318.46074,0.07294
4316.53200,0.07295
4314.60325,0.07329
4312.67451,0.07385
4310.74576,0.07437
4308.81702,0.07488
4306.88827,0.07517
4304.95953,0.07520
4303.03078,0.07549
4301.10204,0.07594
4299.17329,0.07616
4297.24454,0.07645
4295.31580,0.07691
4293.38705,0.07699
4291.45831,0.07633
4289.52956,0.07546
4287.60082,0.07519
4285.67207,0.07543
4283.74333,0.07579
4281.81458,0.07618
4279.88584,0.07630
4277.95709,0.07613
4276.02835,0.07599
4274.09960,0.07592
4272.17086,0.07572
4270.24211,0.07547
4268.31336,0.07551
4266.38462,0.07581
4264.45587,0.07592
4262.52713,0.07582
4260.59838,0.07588
4258.66964,0.07604
4256.74089,0.07618
4254.81215,0.07633
4252.88340,0.07644
4250.95466,0.07656
4249.02591,0.07685
4247.09717,0.07716
4245.16842,0.07723
4243.23968,0.07707
4241.31093,0.07684
4239.38219,0.07683
4237.45344,0.07716
4235.52469,0.07739
4233.59595,0.07722
4231.66720,0.07718
4229.73846,0.07755
4227.80971,0.07783
4225.88097,0.07772
4223.95222,0.07766
4222.02348,0.07788
4220.09473,0.07842
4218.16599,0.07909
4216.23724,0.07918
4214.30850,0.07880
4212.37975,0.07874
4210.45101,0.07901
4208.52226,0.07922
4206.59352,0.07938
4204.66477,0.07965
4202.73602,0.07987
4200.80728,0.07981
4198.87853,0.07977
4196.94979,0.07996
4195.02104,0.08008
4193.09230,0.08007
4191.16355,0.08022
4189.23481,0.08042
4187.30606,0.08047
4185.37732,0.08047
4183.44857,0.08064
4181.51983,0.08085
4179.59108,0.08075
4177.66234,0.08051
4175.73359,0.08048
4173.80484,0.08045
4171.87610,0.08047
4169.94735,0.08064
4168.01861,0.08064
4166.08986,0.08043
4164.16112,0.08032
4162.23237,0.08036
4160.30363,0.08037
4158.37488,0.08048
4156.44614,0.08083
4154.51739,0.08106
4152.58865,0.08079
4150.65990,0.08019
4148.73116,0.07984
4146.80241,0.08004
4144.87367,0.08036
4142.94492,0.08043
4141.01617,0.08044
4139.08743,0.08036
4137.15868,0.08018
4135.22994,0.08018
4133.30119,0.08036
4131.37245,0.08056
4129.44370,0.08053
4127.51496,0.08021
4125.58621,0.08002
4123.65747,0.08030
4121.72872,0.08072
4119.79998,0.08070
4117.87123,0.08034
4115.94249,0.08021
4114.01374,0.07999
4112.08500,0.07943
4110.15625,0.07921
4108.22750,0.07963
4106.29876,0.08012
4104.37001,0.08017
4102.44127,0.07977
4100.51252,0.07926
4098.58378,0.07890
4096.65503,0.07873
4094.72629,0.07872
4092.79754,0.07877
4090.86880,0.07873
4088.94005,0.07839
4087.01131,0.07771
4085.08256,0.07714
4083.15382,0.07725
4081.22507,0.07785
4079.29632,0.07819
4077.36758,0.07806
4075.43883,0.07771
4073.51009,0.07710
4071.58134,0.07641
4069.65260,0.07591
4067.72385,0.07553
4065.79511,0.07531
4063.86636,0.07513
4061.93762,0.07476
4060.00887,0.07448
4058.08013,0.07466
4056.15138,0.07490
4054.22264,0.07488
4052.29389,0.07492
4050.36515,0.07497
4048.43640,0.07479
4046.50765,0.07463
4044.57891,0.07462
4042.65016,0.07447
4040.72142,0.07418
4038.79267,0.07395
4036.86393,0.07397
4034.93518,0.07436
4033.00644,0.07463
4031.07769,0.07452
4029.14895,0.07444
4027.22020,0.07458
4025.29146,0.07485
4023.36271,0.07504
4021.43397,0.07504
4019.50522,0.07509
4017.57648,0.07520
4015.64773,0.07521
4013.71898,0.07531
4011.79024,0.07553
4009.86149,0.07541
4007.93275,0.07507
4006.00400,0.07524
4004.07526,0.07591
4002.14651,0.07642
4000.21777,0.07643
3998.28902,0.07615
3996.36028,0.07594
3994.43153,0.07582
3992.50279,0.07564
3990.57404,0.07563
3988.64530,0.07609
3986.71655,0.07676
3984.78780,0.07724
3982.85906,0.07746
3980.93031,0.07764
3979.00157,0.07790
3977.07282,0.07809
3975.14408,0.07812
3973.21533,0.07828
3971.28659,0.07870
3969.35784,0.07914
3967.42910,0.07935
3965.50035,0.07947
3963.57161,0.07983
3961.64286,0.08041
3959.71412,0.08089
3957.78537,0.08115
3955.85663,0.08122
3953.92788,0.08131
3951.99913,0.08157
3950.07039,0.08185
3948.14164,0.08197
3946.21290,0.08216
3944.28415,0.08246
3942.35541,0.08256
3940.42666,0.08252
3938.49792,0.08258
3936.56917,0.08275
3934.64043,0.08290
3932.71168,0.08306
3930.78294,0.08331
3928.85419,0.08356
3926.92545,0.08369
3924.99670,0.08384
3923.06795,0.08426
3921.13921,0.08483
3919.21046,0.08526
3917.28172,0.08553
3915.35297,0.08561
3913.42423,0.08555
3911.49548,0.08557
3909.56674,0.08564
3907.63799,0.08580
3905.70925,0.08601
3903.78050,0.08595
3901.85176,0.08564
3899.92301,0.08547
3897.99427,0.08575
3896.06552,0.08626
3894.13678,0.08656
3892.20803,0.08657
3890.27928,0.08664
3888.35054,0.08691
3886.42179,0.08716
3884.49305,0.08728
3882.56430,0.08736
3880.63556,0.08741
3878.70681,0.08744
3876.77807,0.08742
3874.84932,0.08742
3872.92058,0.08777
3870.99183,0.08816
3869.06309,0.08823
3867.13434,0.08829
3865.20560,0.08830
3863.27685,0.08821
3861.34811,0.08834
3859.41936,0.08852
3857.49061,0.08878
3855.56187,0.08913
3853.63312,0.08918
3851.70438,0.08915
3849.77563,0.08936
3847.84689,0.08966
3845.91814,0.08987
3843.98940,0.08981
3842.06065,0.08967
3840.13191,0.08992
3838.20316,0.09021
3836.27442,0.08998
3834.34567,0.08973
3832.41693,0.08980
3830.48818,0.09003
3828.55943,0.09030
3826.63069,0.09044
3824.70194,0.09061
3822.77320,0.09086
3820.84445,0.09094
3818.91571,0.09103
3816.98696,0.09099
3815.05822,0.09076
3813.12947,0.09091
3811.20073,0.09144
3809.27198,0.09197
3807.34324,0.09208
3805.41449,0.09181
3803.48575,0.09157
3801.55700,0.09123
3799.62826,0.09106
3797.69951,0.09138
3795.77076,0.09183
3793.84202,0.09223
3791.91327,0.09241
3789.98453,0.09236
3788.05578,0.09241
3786.12704,0.09242
3784.19829,0.09237
3782.26955,0.09266
3780.34080,0.09303
3778.41206,0.09302
3776.48331,0.09297
3774.55457,0.09304
3772.62582,0.09308
3770.69708,0.09318
3768.76833,0.09339
3766.83959,0.09367
3764.91084,0.09399
3762.98209,0.09423
3761.05335,0.09431
3759.12460,0.09426
3757.19586,0.09425
3755.26711,0.09441
3753.33837,0.09470
3751.40962,0.09495
3749.48088,0.09515
3747.55213,0.09548
3745.62339,0.09548
3743.69464,0.09500
3741.76590,0.09499
3739.83715,0.09560
3737.90841,0.09619
3735.97966,0.09628
3734.05091,0.09582
3732.12217,0.09535
3730.19342,0.09544
3728.26468,0.09596
3726.33593,0.09637
3724.40719,0.09641
3722.47844,0.09620
3720.54970,0.09595
3718.62095,0.09580
3716.69221,0.09593
3714.76346,0.09642
3712.83472,0.09674
3710.90597,0.09650
3708.97723,0.09607
3707.04848,0.09589
3705.11974,0.09607
3703.19099,0.09628
3701.26224,0.09619
3699.33350,0.09598
3697.40475,0.09593
3695.47601,0.09601
3693.54726,0.09622
3691.61852,0.09627
3689.68977,0.09547
3687.76103,0.09439
3685.83228,0.09408
3683.90354,0.09412
3681.97479,0.09404
3680.04605,0.09399
3678.11730,0.09406
3676.18856,0.09365
3674.25981,0.09274
3672.33107,0.09227
3670.40232,0.09213
3668.47357,0.09182
3666.54483,0.09133
3664.61608,0.09077
3662.68734,0.09026
3660.75859,0.08998
3658.82985,0.08983
3656.90110,0.08944
3654.97236,0.08885
3653.04361,0.08849
3651.11487,0.08816
3649.18612,0.08743
3647.25738,0.08645
3645.32863,0.08571
3643.39989,0.08543
3641.47114,0.08546
3639.54239,0.08554
3637.61365,0.08556
3635.68490,0.08546
3633.75616,0.08522
3631.82741,0.08498
3629.89867,0.08459
3627.96992,0.08398
3626.04118,0.08356
3624.11243,0.08333
3622.18369,0.08308
3620.25494,0.08264
3618.32620,0.08219
3616.39745,0.08206
3614.46871,0.08193
3612.53996,0.08172
3610.61122,0.08187
3608.68247,0.08220
3606.75372,0.08217
3604.82498,0.08168
3602.89623,0.08100
3600.96749,0.08054
3599.03874,0.08036
3597.11000,0.08027
3595.18125,0.08015
3593.25251,0.07989
3591.32376,0.07950
3589.39502,0.07929
3587.46627,0.07932
3585.53753,0.07906
3583.60878,0.07858
3581.68004,0.07840
3579.75129,0.07839
3577.82254,0.07803
3575.89380,0.07730
3573.96505,0.07667
3572.03631,0.07642
3570.10756,0.07634
3568.17882,0.07605
3566.25007,0.07561
3564.32133,0.07532
3562.39258,0.07505
3560.46384,0.07484
3558.53509,0.07470
3556.60635,0.07439
3554.67760,0.07406
3552.74886,0.07378
3550.82011,0.07342
3548.89137,0.07308
3546.96262,0.07263
3545.03387,0.07208
3543.10513,0.07180
3541.17638,0.07171
3539.24764,0.07146
3537.31889,0.07096
3535.39015,0.07049
3533.46140,0.07033
3531.53266,0.07027
3529.60391,0.07012
3527.67517,0.06996
3525.74642,0.06981
3523.81768,0.06949
3521.88893,0.06883
3519.96019,0.06808
3518.03144,0.06767
3516.10270,0.06767
3514.17395,0.06762
3512.24520,0.06712
3510.31646,0.06645
3508.38771,0.06609
3506.45897,0.06598
3504.53022,0.06598
3502.60148,0.06609
3500.67273,0.06597
3498.74399,0.06555
3496.81524,0.06526
3494.88650,0.06510
3492.95775,0.06480
3491.02901,0.06422
3489.10026,0.06369
3487.17152,0.06348
3485.24277,0.06322
3483.31402,0.06253
3481.38528,0.06152
3479.45653,0.06074
3477.52779,0.06025
3475.59904,0.05959
3473.67030,0.05887
3471.74155,0.05822
3469.81281,0.05740
3467.88406,0.05660
3465.95532,0.05604
3464.02657,0.05546
3462.09783,0.05487
3460.16908,0.05448
3458.24034,0.05400
3456.31159,0.05318
3454.38285,0.05228
3452.45410,0.05160
3450.52535,0.05133
3448.59661,0.05129
3446.66786,0.05117
3444.73912,0.05108
3442.81037,0.05097
3440.88163,0.05048
3438.95288,0.04974
3437.02414,0.04918
3435.09539,0.04869
3433.16665,0.04804
3431.23790,0.04736
3429.30916,0.04683
3427.38041,0.04643
3425.45167,0.04595
3423.52292,0.04535
3421.59418,0.04472
3419.66543,0.04387
3417.73668,0.04274
3415.80794,0.04174
3413.87919,0.04120
3411.95045,0.04081
3410.02170,0.04027
3408.09296,0.03982
3406.16421,0.03944
3404.23547,0.03882
3402.30672,0.03799
3400.37798,0.03719
3398.44923,0.03653
3396.52049,0.03617
3394.59174,0.03593
3392.66300,0.03552
3390.73425,0.03515
3388.80550,0.03483
3386.87676,0.03426
3384.94801,0.03359
3383.01927,0.03318
3381.09052,0.03296
3379.16178,0.03269
3377.23303,0.03242
3375.30429,0.03215
3373.37554,0.03191
3371.44680,0.03191
3369.51805,0.03201
3367.58931,0.03199
3365.66056,0.03187
3363.73182,0.03179
3361.80307,0.03181
3359.87433,0.03185
3357.94558,0.03170
3356.01683,0.03131
3354.08809,0.03084
3352.15934,0.03060
3350.23060,0.03053
3348.30185,0.03037
3346.37311,0.03020
3344.44436,0.03016
3342.51562,0.03004
3340.58687,0.02981
3338.65813,0.02964
3336.72938,0.02963
3334.80064,0.02978
3332.87189,0.03006
3330.94315,0.03028
3329.01440,0.03031
3327.08566,0.03031
3325.15691,0.03038
3323.22816,0.03013
3321.29942,0.02962
3319.37067,0.02947
3317.44193,0.02967
3315.51318,0.02966
3313.58444,0.02945
3311.65569,0.02942
3309.72695,0.02963
3307.79820,0.02992
3305.86946,0.03016
3303.94071,0.02999
3302.01197,0.02947
3300.08322,0.02889
3298.15448,0.02833
3296.22573,0.02821
3294.29698,0.02877
3292.36824,0.02932
3290.43949,0.02936
3288.51075,0.02935
3286.58200,0.02948
3284.65326,0.02950
3282.72451,0.02940
3280.79577,0.02928
3278.86702,0.02928
3276.93828,0.02970
3275.00953,0.03030
3273.08079,0.03045
3271.15204,0.03024
3269.22330,0.03032
3267.29455,0.03055
3265.36581,0.03053
3263.43706,0.03046
3261.50831,0.03056
3259.57957,0.03080
3257.65082,0.03112
3255.72208,0.03147
3253.79333,0.03178
3251.86459,0.03211
3249.93584,0.03234
3248.00710,0.03229
3246.07835,0.03225
3244.14961,0.03251
3242.22086,0.03301
3240.29212,0.03358
3238.36337,0.03401
3236.43463,0.03413
3234.50588,0.03413
3232.57713,0.03429
3230.64839,0.03448
3228.71964,0.03445
3226.79090,0.03442
3224.86215,0.03474
3222.93341,0.03530
3221.00466,0.03556
3219.07592,0.03544
3217.14717,0.03531
3215.21843,0.03532
3213.28968,0.03538
3211.36094,0.03557
3209.43219,0.03595
3207.50345,0.03623
3205.57470,0.03636
3203.64596,0.03657
3201.71721,0.03691
3199.78846,0.03706
3197.85972,0.03683
3195.93097,0.03650
3194.00223,0.03649
3192.07348,0.03672
3190.14474,0.03689
3188.21599,0.03703
3186.28725,0.03747
3184.35850,0.03819
3182.42976,0.03873
3180.50101,0.03881
3178.57227,0.03877
3176.64352,0.03915
3174.71478,0.03981
3172.78603,0.04003
3170.85729,0.03980
3168.92854,0.03982
3166.99979,0.04006
3165.07105,0.04002
3163.14230,0.03985
3161.21356,0.03998
3159.28481,0.04029
3157.35607,0.04050
3155.42732,0.04070
3153.49858,0.04097
3151.56983,0.04106
3149.64109,0.04086
3147.71234,0.04066
3145.78360,0.04069
3143.85485,0.04092
3141.92611,0.04102
3139.99736,0.04086
3138.06861,0.04060
3136.13987,0.04042
3134.21112,0.04031
3132.28238,0.04009
3130.35363,0.03985
3128.42489,0.03973
3126.49614,0.03979
3124.56740,0.04004
3122.63865,0.04044
3120.70991,0.04073
3118.78116,0.04075
3116.85242,0.04063
3114.92367,0.04071
3112.99493,0.04097
3111.06618,0.04098
3109.13744,0.04063
3107.20869,0.04032
3105.27994,0.04027
3103.35120,0.04027
3101.42245,0.04008
3099.49371,0.03974
3097.56496,0.03966
3095.63622,0.04000
3093.70747,0.04019
3091.77873,0.03968
3089.84998,0.03886
3087.92124,0.03838
3085.99249,0.03838
3084.06375,0.03849
3082.13500,0.03837
3080.20626,0.03824
3078.27751,0.03833
3076.34877,0.03842
3074.42002,0.03834
3072.49127,0.03818
3070.56253,0.03806
3068.63378,0.03784
3066.70504,0.03742
3064.77629,0.03698
3062.84755,0.03676
3060.91880,0.03671
3058.99006,0.03685
3057.06131,0.03717
3055.13257,0.03742
3053.20382,0.03759
3051.27508,0.03775
3049.34633,0.03784
3047.41759,0.03773
3045.48884,0.03747
3043.56009,0.03726
3041.63135,0.03702
3039.70260,0.03654
3037.77386,0.03607
3035.84511,0.03568
3033.91637,0.03519
3031.98762,0.03480
3030.05888,0.03469
3028.13013,0.03473
3026.20139,0.03488
3024.27264,0.03523
3022.34390,0.03563
3020.41515,0.03591
3018.48641,0.03612
3016.55766,0.03641
3014.62892,0.03665
3012.70017,0.03663
3010.77142,0.03644
3008.84268,0.03613
3006.91393,0.03557
3004.98519,0.03488
3003.05644,0.03426
3001.12770,0.03365
2999.19895,0.03304
2997.27021,0.03253
2995.34146,0.03201
2993.41272,0.03125
2991.48397,0.03037
2989.55523,0.02979
2987.62648,0.02951
2985.69774,0.02919
2983.76899,0.02882
2981.84025,0.02842
2979.91150,0.02799
2977.98275,0.02760
2976.05401,0.02720
2974.12526,0.02692
2972.19652,0.02698
2970.26777,0.02718
2968.33903,0.02738
2966.41028,0.02764
2964.48154,0.02789
2962.55279,0.02804
2960.62405,0.02809
2958.69530,0.02805
2956.76656,0.02807
2954.83781,0.02835
2952.90907,0.02867
2950.98032,0.02864
2949.05157,0.02832
2947.12283,0.02788
2945.19408,0.02749
2943.26534,0.02728
2941.33659,0.02712
2939.40785,0.02694
2937.47910,0.02684
2935.55036,0.02678
2933.62161,0.02668
2931.69287,0.02649
2929.76412,0.02646
2927.83538,0.02683
2925.90663,0.02734
2923.97789,0.02768
2922.04914,0.02778
2920.12040,0.02769
2918.19165,0.02752
2916.26290,0.02745
2914.33416,0.02748
2912.40541,0.02746
2910.47667,0.02744
2908.54792,0.02754
2906.61918,0.02774
2904.69043,0.02787
2902.76169,0.02783
2900.83294,0.02782
2898.90420,0.02798
2896.97545,0.02814
2895.04671,0.02821
2893.11796,0.02825
2891.18922,0.02828
2889.26047,0.02826
2887.33172,0.02831
2885.40298,0.02856
2883.47423,0.02885
2881.54549,0.02892
2879.61674,0.02872
2877.68800,0.02847
2875.75925,0.02837
2873.83051,0.02825
2871.90176,0.02804
2869.97302,0.02801
2868.04427,0.02816
2866.11553,0.02830
2864.18678,0.02834
2862.25804,0.02846
2860.32929,0.02893
2858.40055,0.02952
2856.47180,0.02981
2854.54305,0.02997
2852.61431,0.03035
2850.68556,0.03097
2848.75682,0.03159
2846.82807,0.03203
2844.89933,0.03235
2842.97058,0.03285
2841.04184,0.03355
2839.11309,0.03417
2837.18435,0.03468
2835.25560,0.03526
2833.32686,0.03595
2831.39811,0.03666
2829.46937,0.03733
2827.54062,0.03793
2825.61188,0.03848
2823.68313,0.03887
2821.75438,0.03912
2819.82564,0.03963
2817.89689,0.04044
2815.96815,0.04122
2814.03940,0.04177
2812.11066,0.04207
2810.18191,0.04224
2808.25317,0.04239
2806.32442,0.04251
2804.39568,0.04265
2802.46693,0.04285
2800.53819,0.04300
2798.60944,0.04306
2796.68070,0.04323
2794.75195,0.04353
2792.82320,0.04384
2790.89446,0.04410
2788.96571,0.04431
2787.03697,0.04450
2785.10822,0.04472
2783.17948,0.04500
2781.25073,0.04534
2779.32199,0.04561
2777.39324,0.04588
2775.46450,0.04637
2773.53575,0.04691
2771.60701,0.04719
2769.67826,0.04729
2767.74952,0.04745
2765.82077,0.04772
2763.89203,0.04793
2761.96328,0.04796
2760.03453,0.04809
2758.10579,0.04852
2756.17704,0.04900
2754.24830,0.04931
2752.31955,0.04954
2750.39081,0.04971
2748.46206,0.04979
2746.53332,0.04986
2744.60457,0.05000
2742.67583,0.05026
2740.74708,0.05049
2738.81834,0.05052
2736.88959,0.05056
2734.96085,0.05092
2733.03210,0.05140
2731.10336,0.05174
2729.17461,0.05212
2727.24586,0.05263
2725.31712,0.05316
2723.38837,0.05361
2721.45963,0.05401
2719.53088,0.05446
2717.60214,0.05504
2715.67339,0.05573
2713.74465,0.05631
2711.81590,0.05664
2709.88716,0.05691
2707.95841,0.05731
2706.02967,0.05777
2704.10092,0.05818
2702.17218,0.05855
2700.24343,0.05904
2698.31468,0.05972
2696.38594,0.06038
2694.45719,0.06088
2692.52845,0.06127
2690.59970,0.06167
2688.67096,0.06227
2686.74221,0.06301
2684.81347,0.06361
2682.88472,0.06405
2680.95598,0.06437
2679.02723,0.06440
2677.09849,0.06428
2675.16974,0.06440
2673.24100,0.06467
2671.31225,0.06492
2669.38351,0.06531
2667.45476,0.06581
2665.52601,0.06620
2663.59727,0.06648
2661.66852,0.06664
2659.73978,0.06675
2657.81103,0.06692
2655.88229,0.06706
2653.95354,0.06711
2652.02480,0.06721
2650.09605,0.06739
2648.16731,0.06763
2646.23856,0.06794
2644.30982,0.06818
2642.38107,0.06833
2640.45233,0.06845
2638.52358,0.06860
2636.59484,0.06882
2634.66609,0.06913
2632.73734,0.06953
2630.80860,0.06995
2628.87985,0.07027
2626.95111,0.07052
2625.02236,0.07080
2623.09362,0.07112
2621.16487,0.07139
2619.23613,0.07163
2617.30738,0.07188
2615.37864,0.07204
2613.44989,0.07210
2611.52115,0.07213
2609.59240,0.07206
2607.66366,0.07188
2605.73491,0.07172
2603.80616,0.07154
2601.87742,0.07139
2599.94867,0.07138
2598.01993,0.07139
2596.09118,0.07131
2594.16244,0.07123
2592.23369,0.07126
2590.30495,0.07136
2588.37620,0.07133
2586.44746,0.07119
2584.51871,0.07130
2582.58997,0.07163
2580.66122,0.07181
2578.73248,0.07202
2576.80373,0.07252
2574.87499,0.07303
2572.94624,0.07335
2571.01749,0.07360
2569.08875,0.07399
2567.16000,0.07453
2565.23126,0.07500
2563.30251,0.07535
2561.37377,0.07570
2559.44502,0.07598
2557.51628,0.07602
2555.58753,0.07590
2553.65879,0.07592
2551.73004,0.07623
2549.80130,0.07672
2547.87255,0.07705
2545.94381,0.07712
2544.01506,0.07715
2542.08631,0.07724
2540.15757,0.07736
2538.22882,0.07753
2536.30008,0.07757
2534.37133,0.07751
2532.44259,0.07764
2530.51384,0.07795
2528.58510,0.07816
2526.65635,0.07819
2524.72761,0.07819
2522.79886,0.07823
2520.87012,0.07836
2518.94137,0.07867
2517.01263,0.07904
2515.08388,0.07917
2513.15514,0.07909
2511.22639,0.07902
2509.29764,0.07890
2507.36890,0.07869
2505.44015,0.07864
2503.51141,0.07885
2501.58266,0.07921
2499.65392,0.07957
2497.72517,0.07968
2495.79643,0.07950
2493.86768,0.07931
2491.93894,0.07934
2490.01019,0.07961
2488.08145,0.07999
2486.15270,0.08020
2484.22396,0.08032
2482.29521,0.08044
2480.36647,0.08052
2478.43772,0.08064
2476.50897,0.08086
2474.58023,0.08115
2472.65148,0.08142
2470.72274,0.08148
2468.79399,0.08137
2466.86525,0.08131
2464.93650,0.08144
2463.00776,0.08173
2461.07901,0.08209
2459.15027,0.08238
2457.22152,0.08244
2455.29278,0.08233
2453.36403,0.08232
2451.43529,0.08247
2449.50654,0.08260
2447.57779,0.08264
2445.64905,0.08275
2443.72030,0.08290
2441.79156,0.08297
2439.86281,0.08306
2437.93407,0.08323
2436.00532,0.08343
2434.07658,0.08366
2432.14783,0.08385
2430.21909,0.08387
2428.29034,0.08377
2426.36160,0.08375
2424.43285,0.08386
2422.50411,0.08394
2420.57536,0.08387
2418.64662,0.08386
2416.71787,0.08400
2414.78912,0.08411
2412.86038,0.08416
2410.93163,0.08410
2409.00289,0.08391
2407.07414,0.08381
2405.14540,0.08385
2403.21665,0.08372
2401.28791,0.08339
2399.35916,0.08313
2397.43042,0.08312
2395.50167,0.08319
2393.57293,0.08324
2391.64418,0.08338
2389.71544,0.08347
2387.78669,0.08337
2385.85795,0.08323
2383.92920,0.08302
2382.00045,0.08275
2380.07171,0.08263
2378.14296,0.08269
2376.21422,0.08271
2374.28547,0.08260
2372.35673,0.08247
2370.42798,0.08233
2368.49924,0.08197
2366.57049,0.08161
2364.64175,0.08155
2362.71300,0.08170
2360.78426,0.08179
2358.85551,0.08183
2356.92677,0.08192
2354.99802,0.08190
2353.06927,0.08170
2351.14053,0.08142
2349.21178,0.08115
2347.28304,0.08095
2345.35429,0.08088
2343.42555,0.08084
2341.49680,0.08072
2339.56806,0.08057
2337.63931,0.08050
2335.71057,0.08046
2333.78182,0.08041
2331.85308,0.08052
2329.92433,0.08079
2327.99559,0.08099
2326.06684,0.08101
2324.13810,0.08084
2322.20935,0.08053
2320.28060,0.08022
2318.35186,0.07993
2316.42311,0.07969
2314.49437,0.07959
2312.56562,0.07953
2310.63688,0.07935
2308.70813,0.07903
2306.77939,0.07863
2304.85064,0.07822
2302.92190,0.07789
2300.99315,0.07765
2299.06441,0.07742
2297.13566,0.07707
2295.20692,0.07664
2293.27817,0.07625
2291.34943,0.07589
2289.42068,0.07546
2287.49193,0.07503
2285.56319,0.07471
2283.63444,0.07439
2281.70570,0.07389
2279.77695,0.07331
2277.84821,0.07292
2275.91946,0.07280
2273.99072,0.07275
2272.06197,0.07270
2270.13323,0.07269
2268.20448,0.07278
2266.27574,0.07292
2264.34699,0.07305
2262.41825,0.07308
2260.48950,0.07306
2258.56075,0.07311
2256.63201,0.07317
2254.70326,0.07301
2252.77452,0.07256
2250.84577,0.07184
2248.91703,0.07077
2246.98828,0.06917
2245.05954,0.06709
2243.13079,0.06488
2241.20205,0.06300
2239.27330,0.06192
2237.34456,0.06186
2235.41581,0.06274
2233.48707,0.06479
2231.55832,0.06795
2229.62958,0.07137
2227.70083,0.07414
2225.77208,0.07596
2223.84334,0.07701
2221.91459,0.07762
2219.98585,0.07803
2218.05710,0.07834
2216.12836,0.07864
2214.19961,0.07895
2212.27087,0.07918
2210.34212,0.07930
2208.41338,0.07945
2206.48463,0.07968
2204.55589,0.07981
2202.62714,0.07976
2200.69840,0.07978
2198.76965,0.07999
2196.84090,0.08027
2194.91216,0.08042
2192.98341,0.08041
2191.05467,0.08052
2189.12592,0.08078
2187.19718,0.08084
2185.26843,0.08069
2183.33969,0.08057
2181.41094,0.08049
2179.48220,0.08050
2177.55345,0.08071
2175.62471,0.08105
2173.69596,0.08130
2171.76722,0.08151
2169.83847,0.08168
2167.90973,0.08173
2165.98098,0.08177
2164.05223,0.08174
2162.12349,0.08152
2160.19474,0.08133
2158.26600,0.08139
2156.33725,0.08160
2154.40851,0.08178
2152.47976,0.08186
2150.55102,0.08197
2148.62227,0.08214
2146.69353,0.08225
2144.76478,0.08229
2142.83604,0.08230
2140.90729,0.08221
2138.97855,0.08210
2137.04980,0.08209
2135.12106,0.08214
2133.19231,0.08213
2131.26356,0.08204
2129.33482,0.08188
2127.40607,0.08173
2125.47733,0.08169
2123.54858,0.08172
2121.61984,0.08165
2119.69109,0.08155
2117.76235,0.08161
2115.83360,0.08170
2113.90486,0.08156
2111.97611,0.08136
2110.04737,0.08138
2108.11862,0.08143
2106.18988,0.08123
2104.26113,0.08097
2102.33238,0.08092
2100.40364,0.08100
2098.47489,0.08103
2096.54615,0.08101
2094.61740,0.08087
2092.68866,0.08071
2090.75991,0.08070
2088.83117,0.08066
2086.90242,0.08045
2084.97368,0.08030
2083.04493,0.08023
2081.11619,0.08009
2079.18744,0.07992
2077.25870,0.07978
2075.32995,0.07961
2073.40121,0.07943
2071.47246,0.07937
2069.54371,0.07934
2067.61497,0.07919
2065.68622,0.07904
2063.75748,0.07903
2061.82873,0.07911
2059.89999,0.07911
2057.97124,0.07898
2056.04250,0.07879
2054.11375,0.07851
2052.18501,0.07819
2050.25626,0.07801
2048.32752,0.07803
2046.39877,0.07817
2044.47003,0.07824
2042.54128,0.07808
2040.61254,0.07766
2038.68379,0.07723
2036.75504,0.07706
2034.82630,0.07693
2032.89755,0.07660
2030.96881,0.07623
2029.04006,0.07602
2027.11132,0.07581
2025.18257,0.07548
2023.25383,0.07523
2021.32508,0.07515
2019.39634,0.07516
2017.46759,0.07517
2015.53885,0.07504
2013.61010,0.07469
2011.68136,0.07433
2009.75261,0.07423
2007.82386,0.07423
2005.89512,0.07414
2003.96637,0.07404
2002.03763,0.07399
2000.10888,0.07383
1998.18014,0.07358
1996.25139,0.07347
1994.32265,0.07348
1992.39390,0.07338
1990.46516,0.07312
1988.53641,0.07278
1986.60767,0.07244
1984.67892,0.07225
1982.75018,0.07224
1980.82143,0.07236
1978.89269,0.07231
1976.96394,0.07199
1975.03519,0.07156
1973.10645,0.07112
1971.17770,0.07076
1969.24896,0.07054
1967.32021,0.07035
1965.39147,0.07008
1963.46272,0.06965
1961.53398,0.06923
1959.60523,0.06899
1957.67649,0.06886
1955.74774,0.06876
1953.81900,0.06871
1951.89025,0.06874
1949.96151,0.06892
1948.03276,0.06923
1946.10402,0.06953
1944.17527,0.06980
1942.24652,0.07001
1940.31778,0.07022
1938.38903,0.07055
1936.46029,0.07080
1934.53154,0.07096
1932.60280,0.07127
1930.67405,0.07157
1928.74531,0.07164
1926.81656,0.07168
1924.88782,0.07191
1922.95907,0.07205
1921.03033,0.07191
1919.10158,0.07167
1917.17284,0.07144
1915.24409,0.07126
1913.31534,0.07111
1911.38660,0.07087
1909.45785,0.07052
1907.52911,0.07023
1905.60036,0.07001
1903.67162,0.06975
1901.74287,0.06948
1899.81413,0.06929
1897.88538,0.06908
1895.95664,0.06880
1894.02789,0.06869
1892.09915,0.06879
1890.17040,0.06878
1888.24166,0.06853
1886.31291,0.06825
1884.38417,0.06815
1882.45542,0.06815
1880.52667,0.06806
1878.59793,0.06806
1876.66918,0.06840
1874.74044,0.06893
1872.81169,0.06941
1870.88295,0.06984
1868.95420,0.07014
1867.02546,0.07021
1865.09671,0.07032
1863.16797,0.07059
1861.23922,0.07070
1859.31048,0.07054
1857.38173,0.07035
1855.45299,0.07022
1853.52424,0.07025
1851.59549,0.07044
1849.66675,0.07048
1847.73800,0.07025
1845.80926,0.06979
1843.88051,0.06914
1841.95177,0.06857
1840.02302,0.06815
1838.09428,0.06766
1836.16553,0.06699
1834.23679,0.06625
1832.30804,0.06559
1830.37930,0.06496
1828.45055,0.06426
1826.52181,0.06350
1824.59306,0.06271
1822.66432,0.06193
1820.73557,0.06111
1818.80682,0.06039
1816.87808,0.05988
1814.94933,0.05933
1813.02059,0.05865
1811.09184,0.05798
1809.16310,0.05744
1807.23435,0.05700
1805.30561,0.05657
1803.37686,0.05605
1801.44812,0.05555
1799.51937,0.05529
1797.59063,0.05510
1795.66188,0.05465
1793.73314,0.05406
1791.80439,0.05355
1789.87565,0.05313
1787.94690,0.05275
1786.01815,0.05229
1784.08941,0.05159
1782.16066,0.05068
1780.23192,0.04966
1778.30317,0.04878
1776.37443,0.04822
1774.44568,0.04778
1772.51694,0.04712
1770.58819,0.04616
1768.65945,0.04517
1766.73070,0.04419
1764.80196,0.04313
1762.87321,0.04196
1760.94447,0.04074
1759.01572,0.03942
1757.08697,0.03782
1755.15823,0.03604
1753.22948,0.03431
1751.30074,0.03254
1749.37199,0.03070
1747.44325,0.02908
1745.51450,0.02780
1743.58576,0.02695
1741.65701,0.02645
1739.72827,0.02610
1737.79952,0.02586
1735.87078,0.02604
1733.94203,0.02653
1732.01329,0.02671
1730.08454,0.02669
1728.15580,0.02676
1726.22705,0.02691
1724.29830,0.02716
1722.36956,0.02741
1720.44081,0.02755
1718.51207,0.02764
1716.58332,0.02771
1714.65458,0.02770
1712.72583,0.02755
1710.79709,0.02734
1708.86834,0.02726
1706.93960,0.02745
1705.01085,0.02776
1703.08211,0.02791
1701.15336,0.02794
1699.22462,0.02797
1697.29587,0.02788
1695.36713,0.02754
1693.43838,0.02739
1691.50963,0.02766
1689.58089,0.02797
1687.65214,0.02809
1685.72340,0.02807
1683.79465,0.02796
1681.86591,0.02770
1679.93716,0.02737
1678.00842,0.02722
1676.07967,0.02729
1674.15093,0.02734
1672.22218,0.02730
1670.29344,0.02724
1668.36469,0.02721
1666.43595,0.02730
1664.50720,0.02737
1662.57845,0.02711
1660.64971,0.02666
1658.72096,0.02651
1656.79222,0.02671
1654.86347,0.02692
1652.93473,0.02677
1651.00598,0.02644
1649.07724,0.02623
1647.14849,0.02608
1645.21975,0.02611
1643.29100,0.02636
1641.36226,0.02668
1639.43351,0.02710
1637.50477,0.02762
1635.57602,0.02794
1633.64728,0.02813
1631.71853,0.02843
1629.78978,0.02872
1627.86104,0.02882
1625.93229,0.02874
1624.00355,0.02852
1622.07480,0.02828
1620.14606,0.02814
1618.21731,0.02797
1616.28857,0.02756
1614.35982,0.02708
1612.43108,0.02679
1610.50233,0.02663
1608.57359,0.02640
1606.64484,0.02608
1604.71610,0.02597
1602.78735,0.02609
1600.85861,0.02634
1598.92986,0.02672
1597.00111,0.02695
1595.07237,0.02698
1593.14362,0.02701
1591.21488,0.02711
1589.28613,0.02729
1587.35739,0.02752
1585.42864,0.02766
1583.49990,0.02774
1581.57115,0.02788
1579.64241,0.02796
1577.71366,0.02774
1575.78492,0.02730
1573.85617,0.02699
1571.92743,0.02677
1569.99868,0.02637
1568.06993,0.02587
1566.14119,0.02551
1564.21244,0.02526
1562.28370,0.02505
1560.35495,0.02494
1558.42621,0.02488
1556.49746,0.02477
1554.56872,0.02457
1552.63997,0.02431
1550.71123,0.02428
1548.78248,0.02463
1546.85374,0.02496
1544.92499,0.02507
1542.99625,0.02529
1541.06750,0.02573
1539.13876,0.02591
1537.21001,0.02595
1535.28126,0.02613
1533.35252,0.02623
1531.42377,0.02621
1529.49503,0.02633
1527.56628,0.02659
1525.63754,0.02691
1523.70879,0.02730
1521.78005,0.02758
1519.85130,0.02755
1517.92256,0.02738
1515.99381,0.02732
1514.06507,0.02749
1512.13632,0.02785
1510.20758,0.02830
1508.27883,0.02863
1506.35008,0.02851
1504.42134,0.02828
1502.49259,0.02837
1500.56385,0.02864
1498.63510,0.02881
1496.70636,0.02878
1494.77761,0.02880
1492.84887,0.02897
1490.92012,0.02920
1488.99138,0.02939
1487.06263,0.02936
1485.13389,0.02924
1483.20514,0.02914
1481.27640,0.02899
1479.34765,0.02876
1477.41891,0.02846
1475.49016,0.02826
1473.56141,0.02824
1471.63267,0.02829
1469.70392,0.02829
1467.77518,0.02822
1465.84643,0.02803
1463.91769,0.02781
1461.98894,0.02768
1460.06020,0.02766
1458.13145,0.02753
1456.20271,0.02720
1454.27396,0.02713
1452.34522,0.02746
1450.41647,0.02792
1448.48773,0.02826
1446.55898,0.02832
1444.63024,0.02830
1442.70149,0.02851
1440.77274,0.02894
1438.84400,0.02939
1436.91525,0.02974
1434.98651,0.03000
1433.05776,0.03025
1431.12902,0.03051
1429.20027,0.03064
1427.27153,0.03049
1425.34278,0.03009
1423.41404,0.02971
1421.48529,0.02949
1419.55655,0.02922
1417.62780,0.02879
1415.69906,0.02847
1413.77031,0.02838
1411.84156,0.02844
1409.91282,0.02857
1407.98407,0.02863
1406.05533,0.02867
1404.12658,0.02890
1402.19784,0.02927
1400.26909,0.02948
1398.34035,0.02950
1396.41160,0.02950
1394.48286,0.02938
1392.55411,0.02899
1390.62537,0.02864
1388.69662,0.02846
1386.76788,0.02823
1384.83913,0.02790
1382.91039,0.02772
1380.98164,0.02773
1379.05289,0.02763
1377.12415,0.02742
1375.19540,0.02742
1373.26666,0.02774
1371.33791,0.02825
1369.40917,0.02879
1367.48042,0.02924
1365.55168,0.02954
1363.62293,0.02968
1361.69419,0.02971
1359.76544,0.02968
1357.83670,0.02949
1355.90795,0.02917
1353.97921,0.02889
1352.05046,0.02863
1350.12172,0.02838
1348.19297,0.02835
1346.26422,0.02853
1344.33548,0.02865
1342.40673,0.02858
1340.47799,0.02844
1338.54924,0.02831
1336.62050,0.02816
1334.69175,0.02809
1332.76301,0.02820
1330.83426,0.02832
1328.90552,0.02833
1326.97677,0.02826
1325.04803,0.02806
1323.11928,0.02765
1321.19054,0.02714
1319.26179,0.02670
1317.33304,0.02643
1315.40430,0.02630
1313.47555,0.02619
1311.54681,0.02618
1309.61806,0.02634
1307.68932,0.02648
1305.76057,0.02637
1303.83183,0.02614
1301.90308,0.02606
1299.97434,0.02609
1298.04559,0.02608
1296.11685,0.02611
1294.18810,0.02627
1292.25936,0.02638
1290.33061,0.02637
1288.40187,0.02647
1286.47312,0.02660
1284.54437,0.02664
1282.61563,0.02669
1280.68688,0.02664
1278.75814,0.02652
1276.82939,0.02647
1274.90065,0.02638
1272.97190,0.02617
1271.04316,0.02596
1269.11441,0.02586
1267.18567,0.02590
1265.25692,0.02609
1263.32818,0.02629
1261.39943,0.02636
1259.47069,0.02631
1257.54194,0.02626
1255.61320,0.02625
1253.68445,0.02633
1251.75570,0.02645
1249.82696,0.02639
1247.89821,0.02599
1245.96947,0.02556
1244.04072,0.02546
1242.11198,0.02558
1240.18323,0.02561
1238.25449,0.02556
1236.32574,0.02560
1234.39700,0.02566
1232.46825,0.02563
1230.53951,0.02552
1228.61076,0.02551
1226.68202,0.02562
1224.75327,0.02583
1222.82452,0.02627
1220.89578,0.02669
1218.96703,0.02682
1217.03829,0.02691
1215.10954,0.02717
1213.18080,0.02736
1211.25205,0.02747
1209.32331,0.02763
1207.39456,0.02780
1205.46582,0.02791
1203.53707,0.02794
1201.60833,0.02789
1199.67958,0.02780
1197.75084,0.02770
1195.82209,0.02761
1193.89335,0.02758
1191.96460,0.02764
1190.03585,0.02768
1188.10711,0.02757
1186.17836,0.02724
1184.24962,0.02679
1182.32087,0.02651
1180.39213,0.02650
1178.46338,0.02651
1176.53464,0.02653
1174.60589,0.02662
1172.67715,0.02656
1170.74840,0.02631
1168.81966,0.02607
1166.89091,0.02604
1164.96217,0.02608
1163.03342,0.02598
1161.10467,0.02588
1159.17593,0.02600
1157.24718,0.02607
1155.31844,0.02578
1153.38969,0.02528
1151.46095,0.02487
1149.53220,0.02463
1147.60346,0.02468
1145.67471,0.02493
1143.74597,0.02509
1141.81722,0.02508
1139.88848,0.02505
1137.95973,0.02506
1136.03099,0.02506
1134.10224,0.02509
1132.17350,0.02531
1130.24475,0.02555
1128.31600,0.02566
1126.38726,0.02577
1124.45851,0.02598
1122.52977,0.02630
1120.60102,0.02677
1118.67228,0.02712
1116.74353,0.02716
1114.81479,0.02743
1112.88604,0.02805
1110.95730,0.02844
1109.02855,0.02854
1107.09981,0.02866
1105.17106,0.02880
1103.24232,0.02892
1101.31357,0.02907
1099.38483,0.02929
1097.45608,0.02946
1095.52733,0.02959
1093.59859,0.02977
1091.66984,0.02988
1089.74110,0.02983
1087.81235,0.02984
1085.88361,0.03012
1083.95486,0.03041
1082.02612,0.03044
1080.09737,0.03041
1078.16863,0.03052
1076.23988,0.03077
1074.31114,0.03109
1072.38239,0.03135
1070.45365,0.03146
1068.52490,0.03144
1066.59615,0.03145
1064.66741,0.03159
1062.73866,0.03175
1060.80992,0.03172
1058.88117,0.03168
1056.95243,0.03191
1055.02368,0.03221
1053.09494,0.03236
1051.16619,0.03251
1049.23745,0.03262
1047.30870,0.03244
1045.37996,0.03208
1043.45121,0.03206
1041.52247,0.03242
1039.59372,0.03273
1037.66498,0.03287
1035.73623,0.03291
1033.80748,0.03274
1031.87874,0.03259
1029.94999,0.03272
1028.02125,0.03298
1026.09250,0.03318
1024.16376,0.03319
1022.23501,0.03300
1020.30627,0.03282
1018.37752,0.03294
1016.44878,0.03328
1014.52003,0.03349
1012.59129,0.03361
1010.66254,0.03385
1008.73380,0.03404
1006.80505,0.03413
1004.87631,0.03436
1002.94756,0.03470
1001.01881,0.03493
999.09007,0.03512
997.16132,0.03549
995.23258,0.03609
993.30383,0.03655
991.37509,0.03659
989.44634,0.03657
987.51760,0.03686
985.58885,0.03744
983.66011,0.03804
981.73136,0.03818
979.80262,0.03786
977.87387,0.03754
975.94513,0.03735
974.01638,0.03732
972.08763,0.03740
970.15889,0.03736
968.23014,0.03716
966.30140,0.03700
964.37265,0.03704
962.44391,0.03727
960.51516,0.03771
958.58642,0.03844
956.65767,0.03894
954.72893,0.03875
952.80018,0.03836
950.87144,0.03828
948.94269,0.03827
947.01395,0.03801
945.08520,0.03747
943.15646,0.03685
941.22771,0.03641
939.29896,0.03610
937.37022,0.03600
935.44147,0.03614
933.51273,0.03614
931.58398,0.03589
929.65524,0.03560
927.72649,0.03533
925.79775,0.03521
923.86900,0.03542
921.94026,0.03589
920.01151,0.03643
918.08277,0.03687
916.15402,0.03705
914.22528,0.03697
912.29653,0.03697
910.36779,0.03712
908.43904,0.03737
906.51029,0.03777
904.58155,0.03824
902.65280,0.03867
900.72406,0.03917
898.79531,0.03978
896.86657,0.04016
894.93782,0.04012
893.00908,0.03980
891.08033,0.03928
889.15159,0.03871
887.22284,0.03824
885.29410,0.03781
883.36535,0.03742
881.43661,0.03719
879.50786,0.03688
877.57911,0.03630
875.65037,0.03569
873.72162,0.03537
871.79288,0.03553
869.86413,0.03599
867.93539,0.03626
866.00664,0.03628
864.07790,0.03642
862.14915,0.03674
860.22041,0.03693
858.29166,0.03701
856.36292,0.03715
854.43417,0.03731
852.50543,0.03758
850.57668,0.03792
848.64794,0.03803
846.71919,0.03792
844.79044,0.03770
842.86170,0.03729
840.93295,0.03701
839.00421,0.03706
837.07546,0.03695
835.14672,0.03660
833.21797,0.03650
831.28923,0.03670
829.36048,0.03666
827.43174,0.03595
825.50299,0.03495
823.57425,0.03420
821.64550,0.03385
819.71676,0.03397
817.78801,0.03420
815.85926,0.03411
813.93052,0.03390
812.00177,0.03407
810.07303,0.03460
808.14428,0.03507
806.21554,0.03538
804.28679,0.03582
802.35805,0.03644
800.42930,0.03688
798.50056,0.03702
796.57181,0.03714
794.64307,0.03746
792.71432,0.03788
790.78558,0.03824
788.85683,0.03826
786.92809,0.03765
784.99934,0.03691
783.07059,0.03647
781.14185,0.03588
779.21310,0.03494
777.28436,0.03417
775.35561,0.03388
773.42687,0.03378
771.49812,0.03346
769.56938,0.03305
767.64063,0.03267
765.71189,0.03211
763.78314,0.03157
761.85440,0.03158
759.92565,0.03193
757.99691,0.03227
756.06816,0.03277
754.13942,0.03353
752.21067,0.03417
750.28192,0.03438
748.35318,0.03461
746.42443,0.03549
744.49569,0.03653
742.56694,0.03697
740.63820,0.03712
738.70945,0.03731
736.78071,0.03752
734.85196,0.03799
732.92322,0.03855
730.99447,0.03882
729.06573,0.03890
727.13698,0.03877
725.20824,0.03843
723.27949,0.03826
721.35074,0.03812
719.42200,0.03729
717.49325,0.03570
715.56451,0.03410
713.63576,0.03284
711.70702,0.03139
709.77827,0.02985
707.84953,0.02928
705.92078,0.02988
703.99204,0.03076
702.06329,0.03147
700.13455,0.03212
698.20580,0.03286
696.27706,0.03406
694.34831,0.03561
692.41957,0.03636
690.49082,0.03585
688.56207,0.03533
686.63333,0.03577
684.70458,0.03656
682.77584,0.03640
680.84709,0.03541
678.91835,0.03488
676.98960,0.03485
675.06086,0.03484
673.13211,0.03505
671.20337,0.03538
669.27462,0.03555
667.34588,0.03554
665.41713,0.03561
663.48839,0.03603
661.55964,0.03659
659.63090,0.03692
657.70215,0.03688
655.77340,0.03672
653.84466,0.03676
651.91591,0.03691
649.98717,0.03713
648.05842,0.03757
646.12968,0.03802
644.20093,0.03789
642.27219,0.03712
640.34344,0.03625
638.41470,0.03567
636.48595,0.03574
634.55721,0.03621
632.62846,0.03628
630.69972,0.03602
628.77097,0.03636
626.84222,0.03730
624.91348,0.03753
622.98473,0.03699
621.05599,0.03708
619.12724,0.03768
617.19850,0.03832
615.26975,0.03901
613.34101,0.03893
611.41226,0.03797
609.48352,0.03742
607.55477,0.03774
605.62603,0.03814
603.69728,0.03789
601.76854,0.03699
599.83979,0.03620
