5996.40973,0.17967
5994.48101,0.17848
5992.55228,0.17975
5990.62356,0.18317
5988.69483,0.18685
5986.76610,0.18755
5984.83738,0.18640
5982.90865,0.18681
5980.97992,0.18664
5979.05120,0.18497
5977.12247,0.18512
5975.19375,0.18804
5973.26502,0.19124
5971.33629,0.19064
5969.40757,0.18587
5967.47884,0.18251
5965.55011,0.18318
5963.62139,0.18482
5961.69266,0.18621
5959.76394,0.18870
5957.83521,0.19204
5955.90648,0.19586
5953.97776,0.19962
5952.04903,0.20124
5950.12031,0.19871
5948.19158,0.19294
5946.26285,0.18928
5944.33413,0.19000
5942.40540,0.19205
5940.47667,0.19451
5938.54795,0.19566
5936.61922,0.19364
5934.69050,0.19352
5932.76177,0.19799
5930.83304,0.20081
5928.90432,0.19863
5926.97559,0.19819
5925.04686,0.20475
5923.11814,0.21281
5921.18941,0.21531
5919.26069,0.21286
5917.33196,0.21055
5915.40323,0.21060
5913.47451,0.21178
5911.54578,0.21378
5909.61706,0.21613
5907.68833,0.21751
5905.75960,0.21833
5903.83088,0.21937
5901.90215,0.21886
5899.97342,0.21503
5898.04470,0.21148
5896.11597,0.21314
5894.18725,0.21818
5892.25852,0.22068
5890.32979,0.21909
5888.40107,0.21731
5886.47234,0.21809
5884.54361,0.21832
5882.61489,0.21541
5880.68616,0.21289
5878.75744,0.21273
5876.82871,0.21265
5874.89998,0.21272
5872.97126,0.21376
5871.04253,0.21405
5869.11381,0.21276
5867.18508,0.21048
5865.25635,0.20803
5863.32763,0.20725
5861.39890,0.20858
5859.47017,0.21057
5857.54145,0.21225
5855.61272,0.21282
5853.68400,0.21286
5851.75527,0.21297
5849.82654,0.21300
5847.89782,0.21444
5845.96909,0.21547
5844.04036,0.21284
5842.11164,0.20966
5840.18291,0.20965
5838.25419,0.21052
5836.32546,0.20870
5834.39673,0.20649
5832.46801,0.20722
5830.53928,0.21016
5828.61056,0.21371
5826.68183,0.21477
5824.75310,0.21183
5822.82438,0.20782
5820.89565,0.20597
5818.96692,0.20717
5817.03820,0.20836
5815.10947,0.20832
5813.18075,0.20920
5811.25202,0.20929
5809.32329,0.20701
5807.39457,0.20604
5805.46584,0.20885
5803.53711,0.21263
5801.60839,0.21458
5799.67966,0.21398
5797.75094,0.21084
5795.82221,0.20840
5793.89348,0.20990
5791.96476,0.21312
5790.03603,0.21345
5788.10731,0.21006
5786.17858,0.20629
5784.24985,0.20519
5782.32113,0.20670
5780.39240,0.20898
5778.46367,0.21137
5776.53495,0.21420
5774.60622,0.21627
5772.67750,0.21590
5770.74877,0.21300
5768.82004,0.20955
5766.89132,0.20871
5764.96259,0.21149
5763.03386,0.21543
5761.10514,0.21792
5759.17641,0.21847
5757.24769,0.21783
5755.31896,0.21759
5753.39023,0.21839
5751.46151,0.21851
5749.53278,0.21815
5747.60406,0.22045
5745.67533,0.22453
5743.74660,0.22629
5741.81788,0.22489
5739.88915,0.22259
5737.96042,0.22165
5736.03170,0.22208
5734.10297,0.22283
5732.17425,0.22520
5730.24552,0.22929
5728.31679,0.23074
5726.38807,0.22898
5724.45934,0.22847
5722.53061,0.22871
5720.60189,0.22643
5718.67316,0.22349
5716.74444,0.22295
5714.81571,0.22394
5712.88698,0.22497
5710.95826,0.22581
5709.02953,0.22569
5707.10081,0.22551
5705.17208,0.22670
5703.24335,0.22779
5701.31463,0.22714
5699.38590,0.22579
5697.45717,0.22637
5695.52845,0.22831
5693.59972,0.22816
5691.67100,0.22706
5689.74227,0.22827
5687.81354,0.22979
5685.88482,0.22949
5683.95609,0.22776
5682.02736,0.22483
5680.09864,0.22494
5678.16991,0.22979
5676.24119,0.23241
5674.31246,0.23027
5672.38373,0.22920
5670.45501,0.23111
5668.52628,0.23122
5666.59756,0.22816
5664.66883,0.22581
5662.74010,0.22543
5660.81138,0.22585
5658.88265,0.22637
5656.95392,0.22609
5655.02520,0.22465
5653.09647,0.22447
5651.16775,0.22626
5649.23902,0.22668
5647.31029,0.22701
5645.38157,0.22944
5643.45284,0.23061
5641.52411,0.22879
5639.59539,0.22607
5637.66666,0.22518
5635.73794,0.22704
5633.80921,0.23016
5631.88048,0.23333
5629.95176,0.23582
5628.02303,0.23653
5626.09430,0.23499
5624.16558,0.23373
5622.23685,0.23535
5620.30813,0.23779
5618.37940,0.23883
5616.45067,0.23906
5614.52195,0.23699
5612.59322,0.23245
5610.66450,0.23029
5608.73577,0.23168
5606.80704,0.23370
5604.87832,0.23631
5602.94959,0.23859
5601.02086,0.23748
5599.09214,0.23411
5597.16341,0.23166
5595.23469,0.23128
5593.30596,0.23166
5591.37723,0.23186
5589.44851,0.23217
5587.51978,0.23200
5585.59105,0.23150
5583.66233,0.23279
5581.73360,0.23480
5579.80488,0.23307
5577.87615,0.22745
5575.94742,0.22342
5574.01870,0.22410
5572.08997,0.22673
5570.16125,0.22886
5568.23252,0.23116
5566.30379,0.23273
5564.37507,0.23183
5562.44634,0.23053
5560.51761,0.23100
5558.58889,0.23168
5556.66016,0.23090
5554.73144,0.22828
5552.80271,0.22491
5550.87398,0.22347
5548.94526,0.22482
5547.01653,0.22714
5545.08780,0.22893
5543.15908,0.23064
5541.23035,0.23256
5539.30163,0.23399
5537.37290,0.23505
5535.44417,0.23517
5533.51545,0.23307
5531.58672,0.23041
5529.65800,0.22931
5527.72927,0.22856
5525.80054,0.22704
5523.87182,0.22639
5521.94309,0.22781
5520.01436,0.23034
5518.08564,0.23203
5516.15691,0.23162
5514.22819,0.22979
5512.29946,0.22849
5510.37073,0.22844
5508.44201,0.22851
5506.51328,0.22806
5504.58455,0.22787
5502.65583,0.22817
5500.72710,0.22816
5498.79838,0.22778
5496.86965,0.22711
5494.94092,0.22586
5493.01220,0.22544
5491.08347,0.22678
5489.15475,0.22867
5487.22602,0.23035
5485.29729,0.23063
5483.36857,0.22906
5481.43984,0.22737
5479.51111,0.22678
5477.58239,0.22709
5475.65366,0.22821
5473.72494,0.22957
5471.79621,0.22973
5469.86748,0.22869
5467.93876,0.22822
5466.01003,0.22899
5464.08130,0.22967
5462.15258,0.22942
5460.22385,0.22934
5458.29513,0.23045
5456.36640,0.23209
5454.43767,0.23334
5452.50895,0.23373
5450.58022,0.23249
5448.65150,0.22964
5446.72277,0.22765
5444.79404,0.22862
5442.86532,0.23086
5440.93659,0.23258
5439.00786,0.23400
5437.07914,0.23490
5435.15041,0.23535
5433.22169,0.23523
5431.29296,0.23340
5429.36423,0.23082
5427.43551,0.23014
5425.50678,0.23159
5423.57805,0.23396
5421.64933,0.23650
5419.72060,0.23761
5417.79188,0.23576
5415.86315,0.23195
5413.93442,0.22950
5412.00570,0.23041
5410.07697,0.23267
5408.14825,0.23266
5406.21952,0.22983
5404.29079,0.22754
5402.36207,0.22864
5400.43334,0.23246
5398.50461,0.23615
5396.57589,0.23738
5394.64716,0.23644
5392.71844,0.23563
5390.78971,0.23563
5388.86098,0.23496
5386.93226,0.23300
5385.00353,0.23136
5383.07480,0.23184
5381.14608,0.23319
5379.21735,0.23269
5377.28863,0.23108
5375.35990,0.23180
5373.43117,0.23447
5371.50245,0.23582
5369.57372,0.23485
5367.64500,0.23295
5365.71627,0.23156
5363.78754,0.23198
5361.85882,0.23471
5359.93009,0.23765
5358.00136,0.23788
5356.07264,0.23424
5354.14391,0.22837
5352.21519,0.22468
5350.28646,0.22518
5348.35773,0.22722
5346.42901,0.22773
5344.50028,0.22708
5342.57155,0.22751
5340.64283,0.22819
5338.71410,0.22813
5336.78538,0.22847
5334.85665,0.22883
5332.92792,0.22876
5330.99920,0.22947
5329.07047,0.23037
5327.14175,0.23006
5325.21302,0.22921
5323.28429,0.22863
5321.35557,0.22865
5319.42684,0.22949
5317.49811,0.23068
5315.56939,0.23210
5313.64066,0.23367
5311.71194,0.23457
5309.78321,0.23410
5307.85448,0.23302
5305.92576,0.23318
5303.99703,0.23404
5302.06830,0.23327
5300.13958,0.23095
5298.21085,0.22908
5296.28213,0.22884
5294.35340,0.22938
5292.42467,0.22835
5290.49595,0.22579
5288.56722,0.22447
5286.63849,0.22478
5284.70977,0.22476
5282.78104,0.22346
5280.85232,0.22189
5278.92359,0.22163
5276.99486,0.22230
5275.06614,0.22233
5273.13741,0.22102
5271.20869,0.21852
5269.27996,0.21589
5267.35123,0.21372
5265.42251,0.21145
5263.49378,0.20954
5261.56505,0.20928
5259.63633,0.21070
5257.70760,0.21271
5255.77888,0.21433
5253.85015,0.21536
5251.92142,0.21519
5249.99270,0.21337
5248.06397,0.21159
5246.13524,0.21114
5244.20652,0.21133
5242.27779,0.21222
5240.34907,0.21357
5238.42034,0.21436
5236.49161,0.21452
5234.56289,0.21408
5232.63416,0.21283
5230.70544,0.21204
5228.77671,0.21318
5226.84798,0.21530
5224.91926,0.21674
5222.99053,0.21749
5221.06180,0.21804
5219.13308,0.21780
5217.20435,0.21660
5215.27563,0.21543
5213.34690,0.21532
5211.41817,0.21678
5209.48945,0.21917
5207.56072,0.22138
5205.63199,0.22313
5203.70327,0.22393
5201.77454,0.22350
5199.84582,0.22297
5197.91709,0.22327
5195.98836,0.22440
5194.05964,0.22573
5192.13091,0.22647
5190.20219,0.22654
5188.27346,0.22655
5186.34473,0.22689
5184.41601,0.22701
5182.48728,0.22595
5180.55855,0.22430
5178.62983,0.22400
5176.70110,0.22501
5174.77238,0.22580
5172.84365,0.22621
5170.91492,0.22694
5168.98620,0.22718
5167.05747,0.22574
5165.12874,0.22357
5163.20002,0.22261
5161.27129,0.22270
5159.34257,0.22225
5157.41384,0.22137
5155.48511,0.22142
5153.55639,0.22223
5151.62766,0.22243
5149.69894,0.22220
5147.77021,0.22214
5145.84148,0.22149
5143.91276,0.22075
5141.98403,0.22087
5140.05530,0.22111
5138.12658,0.22112
5136.19785,0.22128
5134.26913,0.22122
5132.34040,0.22039
5130.41167,0.21935
5128.48295,0.21915
5126.55422,0.21962
5124.62549,0.21993
5122.69677,0.21958
5120.76804,0.21866
5118.83932,0.21801
5116.91059,0.21797
5114.98186,0.21770
5113.05314,0.21670
5111.12441,0.21601
5109.19569,0.21647
5107.26696,0.21760
5105.33823,0.21910
5103.40951,0.22093
5101.48078,0.22237
5099.55205,0.22315
5097.62333,0.22366
5095.69460,0.22433
5093.76588,0.22473
5091.83715,0.22441
5089.90842,0.22497
5087.97970,0.22735
5086.05097,0.22943
5084.12224,0.22974
5082.19352,0.22942
5080.26479,0.23007
5078.33607,0.23191
5076.40734,0.23364
5074.47861,0.23396
5072.54989,0.23260
5070.62116,0.23065
5068.69244,0.23026
5066.76371,0.23205
5064.83498,0.23372
5062.90626,0.23314
5060.97753,0.23078
5059.04880,0.22834
5057.12008,0.22762
5055.19135,0.22941
5053.26263,0.23188
5051.33390,0.23264
5049.40517,0.23219
5047.47645,0.23258
5045.54772,0.23380
5043.61899,0.23388
5041.69027,0.23252
5039.76154,0.23167
5037.83282,0.23242
5035.90409,0.23363
5033.97536,0.23365
5032.04664,0.23248
5030.11791,0.23145
5028.18919,0.23148
5026.26046,0.23224
5024.33173,0.23225
5022.40301,0.23078
5020.47428,0.22928
5018.54555,0.22912
5016.61683,0.22931
5014.68810,0.22926
5012.75938,0.23040
5010.83065,0.23227
5008.90192,0.23326
5006.97320,0.23402
5005.04447,0.23475
5003.11574,0.23395
5001.18702,0.23169
4999.25829,0.22994
4997.32957,0.22978
4995.40084,0.23141
4993.47211,0.23301
4991.54339,0.23281
4989.61466,0.23207
4987.68594,0.23220
4985.75721,0.23287
4983.82848,0.23347
4981.89976,0.23341
4979.97103,0.23274
4978.04230,0.23196
4976.11358,0.23108
4974.18485,0.23003
4972.25613,0.22936
4970.32740,0.22982
4968.39867,0.23098
4966.46995,0.23146
4964.54122,0.23119
4962.61249,0.23048
4960.68377,0.22949
4958.75504,0.22987
4956.82632,0.23143
4954.89759,0.23186
4952.96886,0.23146
4951.04014,0.23094
4949.11141,0.22978
4947.18269,0.22855
4945.25396,0.22823
4943.32523,0.22875
4941.39651,0.22929
4939.46778,0.22941
4937.53905,0.22943
4935.61033,0.22950
4933.68160,0.22929
4931.75288,0.22871
4929.82415,0.22859
4927.89542,0.22890
4925.96670,0.22868
4924.03797,0.22779
4922.10924,0.22656
4920.18052,0.22559
4918.25179,0.22606
4916.32307,0.22813
4914.39434,0.22961
4912.46561,0.22908
4910.53689,0.22829
4908.60816,0.22841
4906.67943,0.22862
4904.75071,0.22847
4902.82198,0.22796
4900.89326,0.22719
4898.96453,0.22654
4897.03580,0.22611
4895.10708,0.22580
4893.17835,0.22584
4891.24963,0.22571
4889.32090,0.22483
4887.39217,0.22425
4885.46345,0.22496
4883.53472,0.22600
4881.60599,0.22556
4879.67727,0.22417
4877.74854,0.22441
4875.81982,0.22593
4873.89109,0.22595
4871.96236,0.22419
4870.03364,0.22286
4868.10491,0.22351
4866.17618,0.22531
4864.24746,0.22629
4862.31873,0.22582
4860.39001,0.22472
4858.46128,0.22359
4856.53255,0.22289
4854.60383,0.22338
4852.67510,0.22465
4850.74638,0.22521
4848.81765,0.22469
4846.88892,0.22408
4844.96020,0.22417
4843.03147,0.22415
4841.10274,0.22298
4839.17402,0.22110
4837.24529,0.21961
4835.31657,0.21895
4833.38784,0.21811
4831.45911,0.21653
4829.53039,0.21547
4827.60166,0.21576
4825.67293,0.21657
4823.74421,0.21659
4821.81548,0.21546
4819.88676,0.21356
4817.95803,0.21162
4816.02930,0.21128
4814.10058,0.21266
4812.17185,0.21370
4810.24313,0.21369
4808.31440,0.21295
4806.38567,0.21187
4804.45695,0.21099
4802.52822,0.21011
4800.59949,0.20947
4798.67077,0.20957
4796.74204,0.21000
4794.81332,0.21007
4792.88459,0.20965
4790.95586,0.20952
4789.02714,0.20968
4787.09841,0.20966
4785.16968,0.20975
4783.24096,0.20983
4781.31223,0.20981
4779.38351,0.20989
4777.45478,0.21037
4775.52605,0.21145
4773.59733,0.21258
4771.66860,0.21365
4769.73988,0.21461
4767.81115,0.21422
4765.88242,0.21272
4763.95370,0.21171
4762.02497,0.21106
4760.09624,0.20996
4758.16752,0.20864
4756.23879,0.20749
4754.31007,0.20733
4752.38134,0.20805
4750.45261,0.20762
4748.52389,0.20528
4746.59516,0.20267
4744.66643,0.20073
4742.73771,0.19908
4740.80898,0.19776
4738.88026,0.19705
4736.95153,0.19648
4735.02280,0.19555
4733.09408,0.19408
4731.16535,0.19168
4729.23663,0.18842
4727.30790,0.18468
4725.37917,0.18078
4723.45045,0.17814
4721.52172,0.17745
4719.59299,0.17783
4717.66427,0.17848
4715.73554,0.17818
4713.80682,0.17647
4711.87809,0.17492
4709.94936,0.17433
4708.02064,0.17378
4706.09191,0.17233
4704.16318,0.16994
4702.23446,0.16717
4700.30573,0.16432
4698.37701,0.16111
4696.44828,0.15766
4694.51955,0.15489
4692.59083,0.15312
4690.66210,0.15201
4688.73338,0.15119
4686.80465,0.15076
4684.87592,0.15182
4682.94720,0.15517
4681.01847,0.16040
4679.08974,0.16558
4677.16102,0.16844
4675.23229,0.16967
4673.30357,0.17187
4671.37484,0.17518
4669.44611,0.17758
4667.51739,0.17835
4665.58866,0.17863
4663.65993,0.17903
4661.73121,0.17955
4659.80248,0.18056
4657.87376,0.18203
4655.94503,0.18295
4654.01630,0.18242
4652.08758,0.18065
4650.15885,0.17853
4648.23013,0.17663
4646.30140,0.17457
4644.37267,0.17185
4642.44395,0.16890
4640.51522,0.16631
4638.58649,0.16408
4636.65777,0.16259
4634.72904,0.16214
4632.80032,0.16294
4630.87159,0.16542
4628.94286,0.16889
4627.01414,0.17239
4625.08541,0.17594
4623.15668,0.17943
4621.22796,0.18255
4619.29923,0.18574
4617.37051,0.18906
4615.44178,0.19143
4613.51305,0.19277
4611.58433,0.19422
4609.65560,0.19562
4607.72688,0.19620
4605.79815,0.19629
4603.86942,0.19632
4601.94070,0.19554
4600.01197,0.19341
4598.08324,0.19105
4596.15452,0.18902
4594.22579,0.18708
4592.29707,0.18549
4590.36834,0.18399
4588.43961,0.18221
4586.51089,0.18058
4584.58216,0.17974
4582.65343,0.17984
4580.72471,0.18007
4578.79598,0.17997
4576.86726,0.18026
4574.93853,0.18168
4573.00980,0.18435
4571.08108,0.18794
4569.15235,0.19148
4567.22363,0.19426
4565.29490,0.19662
4563.36617,0.19844
4561.43745,0.19922
4559.50872,0.19968
4557.57999,0.20036
4555.65127,0.20074
4553.72254,0.20070
4551.79382,0.20044
4549.86509,0.20016
4547.93636,0.20027
4546.00764,0.20033
4544.07891,0.19951
4542.15018,0.19870
4540.22146,0.19904
4538.29273,0.19968
4536.36401,0.19956
4534.43528,0.19917
4532.50655,0.19915
4530.57783,0.19895
4528.64910,0.19803
4526.72037,0.19715
4524.79165,0.19693
4522.86292,0.19635
4520.93420,0.19447
4519.00547,0.19221
4517.07674,0.19060
4515.14802,0.18951
4513.21929,0.18903
4511.29057,0.18898
4509.36184,0.18797
4507.43311,0.18571
4505.50439,0.18352
4503.57566,0.18168
4501.64693,0.17972
4499.71821,0.17749
4497.78948,0.17472
4495.86076,0.17139
4493.93203,0.16804
4492.00330,0.16533
4490.07458,0.16324
4488.14585,0.16104
4486.21712,0.15850
4484.28840,0.15637
4482.35967,0.15515
4480.43095,0.15407
4478.50222,0.15222
4476.57349,0.15028
4474.64477,0.14895
4472.71604,0.14733
4470.78732,0.14469
4468.85859,0.14116
4466.92986,0.13653
4465.00114,0.13123
4463.07241,0.12670
4461.14368,0.12328
4459.21496,0.12042
4457.28623,0.11860
4455.35751,0.11834
4453.42878,0.11886
4451.50005,0.11955
4449.57133,0.12000
4447.64260,0.11936
4445.71387,0.11746
4443.78515,0.11521
4441.85642,0.11353
4439.92770,0.11281
4437.99897,0.11289
4436.07024,0.11299
4434.14152,0.11281
4432.21279,0.11297
4430.28407,0.11387
4428.35534,0.11478
4426.42661,0.11512
4424.49789,0.11600
4422.56916,0.11826
4420.64043,0.12063
4418.71171,0.12201
4416.78298,0.12312
4414.85426,0.12475
4412.92553,0.12625
4410.99680,0.12668
4409.06808,0.12653
4407.13935,0.12679
4405.21062,0.12729
4403.28190,0.12777
4401.35317,0.12855
4399.42445,0.12979
4397.49572,0.13128
4395.56699,0.13262
4393.63827,0.13351
4391.70954,0.13425
4389.78082,0.13521
4387.85209,0.13649
4385.92336,0.13804
4383.99464,0.13931
4382.06591,0.13960
4380.13718,0.13885
4378.20846,0.13765
4376.27973,0.13697
4374.35101,0.13740
4372.42228,0.13860
4370.49355,0.13967
4368.56483,0.13983
4366.63610,0.13894
4364.70737,0.13761
4362.77865,0.13667
4360.84992,0.13641
4358.92120,0.13645
4356.99247,0.13633
4355.06374,0.13594
4353.13502,0.13549
4351.20629,0.13522
4349.27757,0.13486
4347.34884,0.13404
4345.42011,0.13275
4343.49139,0.13157
4341.56266,0.13087
4339.63393,0.13046
4337.70521,0.13029
4335.77648,0.13016
4333.84776,0.12991
4331.91903,0.13008
4329.99030,0.13090
4328.06158,0.13161
4326.13285,0.13189
4324.20412,0.13203
4322.27540,0.13203
4320.34667,0.13165
4318.41795,0.13092
4316.48922,0.13030
4314.56049,0.13007
4312.63177,0.12969
4310.70304,0.12849
4308.77432,0.12641
4306.84559,0.12415
4304.91686,0.12234
4302.98814,0.12121
4301.05941,0.12028
4299.13068,0.11892
4297.20196,0.11753
4295.27323,0.11693
4293.34451,0.11678
4291.41578,0.11637
4289.48705,0.11611
4287.55833,0.11650
4285.62960,0.11726
4283.70087,0.11815
4281.77215,0.11907
4279.84342,0.11976
4277.91470,0.12008
4275.98597,0.12032
4274.05724,0.12101
4272.12852,0.12212
4270.19979,0.12295
4268.27107,0.12339
4266.34234,0.12387
4264.41361,0.12446
4262.48489,0.12500
4260.55616,0.12550
4258.62743,0.12594
4256.69871,0.12606
4254.76998,0.12580
4252.84126,0.12560
4250.91253,0.12570
4248.98380,0.12533
4247.05508,0.12393
4245.12635,0.12250
4243.19762,0.12238
4241.26890,0.12333
4239.34017,0.12424
4237.41145,0.12461
4235.48272,0.12476
4233.55399,0.12467
4231.62527,0.12395
4229.69654,0.12352
4227.76782,0.12434
4225.83909,0.12550
4223.91036,0.12607
4221.98164,0.12631
4220.05291,0.12660
4218.12418,0.12737
4216.19546,0.12899
4214.26673,0.13093
4212.33801,0.13225
4210.40928,0.13269
4208.48055,0.13243
4206.55183,0.13189
4204.62310,0.13199
4202.69437,0.13287
4200.76565,0.13358
4198.83692,0.13401
4196.90820,0.13438
4194.97947,0.13415
4193.05074,0.13365
4191.12202,0.13353
4189.19329,0.13322
4187.26456,0.13208
4185.33584,0.13008
4183.40711,0.12747
4181.47839,0.12507
4179.54966,0.12391
4177.62093,0.12387
4175.69221,0.12445
4173.76348,0.12572
4171.83476,0.12731
4169.90603,0.12885
4167.97730,0.13051
4166.04858,0.13210
4164.11985,0.13322
4162.19112,0.13419
4160.26240,0.13557
4158.33367,0.13690
4156.40495,0.13742
4154.47622,0.13731
4152.54749,0.13735
4150.61877,0.13808
4148.69004,0.13898
4146.76131,0.13888
4144.83259,0.13762
4142.90386,0.13591
4140.97514,0.13432
4139.04641,0.13315
4137.11768,0.13231
4135.18896,0.13126
4133.26023,0.12999
4131.33151,0.12894
4129.40278,0.12827
4127.47405,0.12817
4125.54533,0.12847
4123.61660,0.12827
4121.68787,0.12727
4119.75915,0.12609
4117.83042,0.12544
4115.90170,0.12518
4113.97297,0.12433
4112.04424,0.12263
4110.11552,0.12062
4108.18679,0.11842
4106.25806,0.11585
4104.32934,0.11292
4102.40061,0.10954
4100.47189,0.10558
4098.54316,0.10127
4096.61443,0.09672
4094.68571,0.09225
4092.75698,0.08873
4090.82826,0.08680
4088.89953,0.08690
4086.97080,0.08895
4085.04208,0.09189
4083.11335,0.09489
4081.18462,0.09812
4079.25590,0.10203
4077.32717,0.10647
4075.39845,0.11089
4073.46972,0.11491
4071.54099,0.11801
4069.61227,0.11999
4067.68354,0.12163
4065.75481,0.12344
4063.82609,0.12518
4061.89736,0.12674
4059.96864,0.12812
4058.03991,0.12938
4056.11118,0.13080
4054.18246,0.13232
4052.25373,0.13351
4050.32501,0.13428
4048.39628,0.13467
4046.46755,0.13475
4044.53883,0.13534
4042.61010,0.13692
4040.68137,0.13857
4038.75265,0.13958
4036.82392,0.14037
4034.89520,0.14125
4032.96647,0.14202
4031.03774,0.14268
4029.10902,0.14342
4027.18029,0.14424
4025.25156,0.14493
4023.32284,0.14513
4021.39411,0.14479
4019.46539,0.14414
4017.53666,0.14398
4015.60793,0.14461
4013.67921,0.14519
4011.75048,0.14508
4009.82176,0.14452
4007.89303,0.14426
4005.96430,0.14455
4004.03558,0.14475
4002.10685,0.14467
4000.17812,0.14489
3998.24940,0.14560
3996.32067,0.14679
3994.39195,0.14784
3992.46322,0.14835
3990.53449,0.14874
3988.60577,0.14909
3986.67704,0.14908
3984.74831,0.14896
3982.81959,0.14925
3980.89086,0.14997
3978.96214,0.15064
3977.03341,0.15082
3975.10468,0.15066
3973.17596,0.15061
3971.24723,0.15080
3969.31851,0.15101
3967.38978,0.15096
3965.46105,0.15072
3963.53233,0.15059
3961.60360,0.15090
3959.67487,0.15168
3957.74615,0.15266
3955.81742,0.15362
3953.88870,0.15448
3951.95997,0.15531
3950.03124,0.15603
3948.10252,0.15646
3946.17379,0.15662
3944.24506,0.15674
3942.31634,0.15718
3940.38761,0.15790
3938.45889,0.15844
3936.53016,0.15858
3934.60143,0.15843
3932.67271,0.15843
3930.74398,0.15871
3928.81526,0.15887
3926.88653,0.15889
3924.95780,0.15933
3923.02908,0.16009
3921.10035,0.16030
3919.17162,0.15967
3917.24290,0.15879
3915.31417,0.15850
3913.38545,0.15896
3911.45672,0.15979
3909.52799,0.16082
3907.59927,0.16191
3905.67054,0.16300
3903.74181,0.16408
3901.81309,0.16499
3899.88436,0.16590
3897.95564,0.16716
3896.02691,0.16820
3894.09818,0.16860
3892.16946,0.16896
3890.24073,0.16997
3888.31201,0.17110
3886.38328,0.17198
3884.45455,0.17283
3882.52583,0.17265
3880.59710,0.17174
3878.66837,0.17176
3876.73965,0.17225
3874.81092,0.17265
3872.88220,0.17325
3870.95347,0.17367
3869.02474,0.17408
3867.09602,0.17411
3865.16729,0.17325
3863.23856,0.17268
3861.30984,0.17299
3859.38111,0.17361
3857.45239,0.17406
3855.52366,0.17450
3853.59493,0.17544
3851.66621,0.17641
3849.73748,0.17616
3847.80876,0.17507
3845.88003,0.17410
3843.95130,0.17359
3842.02258,0.17342
3840.09385,0.17340
3838.16512,0.17392
3836.23640,0.17469
3834.30767,0.17476
3832.37895,0.17429
3830.45022,0.17392
3828.52149,0.17366
3826.59277,0.17360
3824.66404,0.17368
3822.73531,0.17320
3820.80659,0.17271
3818.87786,0.17242
3816.94914,0.17080
3815.02041,0.16861
3813.09168,0.16716
3811.16296,0.16619
3809.23423,0.16531
3807.30550,0.16474
3805.37678,0.16510
3803.44805,0.16570
3801.51933,0.16644
3799.59060,0.16765
3797.66187,0.16847
3795.73315,0.16920
3793.80442,0.16988
3791.87570,0.17014
3789.94697,0.17038
3788.01824,0.17068
3786.08952,0.17073
3784.16079,0.17058
3782.23206,0.17015
3780.30334,0.16933
3778.37461,0.16857
3776.44589,0.16796
3774.51716,0.16740
3772.58843,0.16682
3770.65971,0.16595
3768.73098,0.16497
3766.80225,0.16392
3764.87353,0.16277
3762.94480,0.16162
3761.01608,0.16039
3759.08735,0.15949
3757.15862,0.15953
3755.22990,0.16053
3753.30117,0.16242
3751.37245,0.16557
3749.44372,0.16888
3747.51499,0.16958
3745.58627,0.16765
3743.65754,0.16702
3741.72881,0.16826
3739.80009,0.16839
3737.87136,0.16671
3735.94264,0.16425
3734.01391,0.16205
3732.08518,0.16067
3730.15646,0.16040
3728.22773,0.16104
3726.29900,0.16238
3724.37028,0.16398
3722.44155,0.16535
3720.51283,0.16673
3718.58410,0.16804
3716.65537,0.16876
3714.72665,0.16882
3712.79792,0.16805
3710.86920,0.16575
3708.94047,0.16240
3707.01174,0.15960
3705.08302,0.15730
3703.15429,0.15441
3701.22556,0.15083
3699.29684,0.14744
3697.36811,0.14438
3695.43939,0.14123
3693.51066,0.13737
3691.58193,0.13211
3689.65321,0.12577
3687.72448,0.12039
3685.79575,0.11735
3683.86703,0.11604
3681.93830,0.11572
3680.00958,0.11605
3678.08085,0.11646
3676.15212,0.11616
3674.22340,0.11500
3672.29467,0.11289
3670.36595,0.10957
3668.43722,0.10597
3666.50849,0.10287
3664.57977,0.10014
3662.65104,0.09751
3660.72231,0.09478
3658.79359,0.09196
3656.86486,0.08947
3654.93614,0.08792
3653.00741,0.08703
3651.07868,0.08587
3649.14996,0.08408
3647.22123,0.08203
3645.29250,0.08008
3643.36378,0.07820
3641.43505,0.07659
3639.50633,0.07544
3637.57760,0.07451
3635.64887,0.07377
3633.72015,0.07342
3631.79142,0.07342
3629.86270,0.07348
3627.93397,0.07379
3626.00524,0.07434
3624.07652,0.07494
3622.14779,0.07566
3620.21906,0.07652
3618.29034,0.07732
3616.36161,0.07784
3614.43289,0.07836
3612.50416,0.07928
3610.57543,0.08018
3608.64671,0.08049
3606.71798,0.08042
3604.78925,0.08039
3602.86053,0.08064
3600.93180,0.08126
3599.00308,0.08188
3597.07435,0.08201
3595.14562,0.08181
3593.21690,0.08169
3591.28817,0.08137
3589.35945,0.08045
3587.43072,0.07927
3585.50199,0.07838
3583.57327,0.07753
3581.64454,0.07634
3579.71581,0.07493
3577.78709,0.07338
3575.85836,0.07161
3573.92964,0.06982
3572.00091,0.06828
3570.07218,0.06699
3568.14346,0.06565
3566.21473,0.06416
3564.28600,0.06300
3562.35728,0.06233
3560.42855,0.06154
3558.49983,0.06020
3556.57110,0.05888
3554.64237,0.05814
3552.71365,0.05807
3550.78492,0.05856
3548.85620,0.05935
3546.92747,0.06002
3544.99874,0.06034
3543.07002,0.06036
3541.14129,0.06035
3539.21256,0.06062
3537.28384,0.06123
3535.35511,0.06202
3533.42639,0.06290
3531.49766,0.06401
3529.56893,0.06540
3527.64021,0.06681
3525.71148,0.06799
3523.78275,0.06898
3521.85403,0.06998
3519.92530,0.07109
3517.99658,0.07240
3516.06785,0.07376
3514.13912,0.07483
3512.21040,0.07572
3510.28167,0.07672
3508.35295,0.07763
3506.42422,0.07832
3504.49549,0.07906
3502.56677,0.07995
3500.63804,0.08066
3498.70931,0.08105
3496.78059,0.08134
3494.85186,0.08178
3492.92314,0.08248
3490.99441,0.08339
3489.06568,0.08429
3487.13696,0.08476
3485.20823,0.08449
3483.27950,0.08362
3481.35078,0.08286
3479.42205,0.08282
3477.49333,0.08316
3475.56460,0.08317
3473.63587,0.08273
3471.70715,0.08191
3469.77842,0.08076
3467.84970,0.07960
3465.92097,0.07858
3463.99224,0.07717
3462.06352,0.07510
3460.13479,0.07280
3458.20606,0.07066
3456.27734,0.06857
3454.34861,0.06627
3452.41989,0.06366
3450.49116,0.06110
3448.56243,0.05880
3446.63371,0.05660
3444.70498,0.05422
3442.77625,0.05161
3440.84753,0.04896
3438.91880,0.04649
3436.99008,0.04423
3435.06135,0.04208
3433.13262,0.04017
3431.20390,0.03926
3429.27517,0.03989
3427.34644,0.04170
3425.41772,0.04429
3423.48899,0.04765
3421.56027,0.05175
3419.63154,0.05604
3417.70281,0.06011
3415.77409,0.06399
3413.84536,0.06776
3411.91664,0.07153
3409.98791,0.07533
3408.05918,0.07895
3406.13046,0.08223
3404.20173,0.08516
3402.27300,0.08783
3400.34428,0.09013
3398.41555,0.09175
3396.48683,0.09315
3394.55810,0.09477
3392.62937,0.09674
3390.70065,0.09843
3388.77192,0.09935
3386.84319,0.09978
3384.91447,0.10013
3382.98574,0.10052
3381.05702,0.10098
3379.12829,0.10158
3377.19956,0.10221
3375.27084,0.10279
3373.34211,0.10327
3371.41339,0.10359
3369.48466,0.10375
3367.55593,0.10351
3365.62721,0.10267
3363.69848,0.10152
3361.76975,0.10029
3359.84103,0.09906
3357.91230,0.09796
3355.98358,0.09701
3354.05485,0.09608
3352.12612,0.09495
3350.19740,0.09350
3348.26867,0.09182
3346.33994,0.08992
3344.41122,0.08800
3342.48249,0.08655
3340.55377,0.08576
3338.62504,0.08541
3336.69631,0.08520
3334.76759,0.08509
3332.83886,0.08552
3330.91014,0.08675
3328.98141,0.08808
3327.05268,0.08898
3325.12396,0.08999
3323.19523,0.09142
3321.26650,0.09265
3319.33778,0.09328
3317.40905,0.09335
3315.48033,0.09314
3313.55160,0.09302
3311.62287,0.09290
3309.69415,0.09246
3307.76542,0.09172
3305.83669,0.09078
3303.90797,0.08971
3301.97924,0.08887
3300.05052,0.08842
3298.12179,0.08838
3296.19306,0.08898
3294.26434,0.08999
3292.33561,0.09081
3290.40689,0.09139
3288.47816,0.09196
3286.54943,0.09260
3284.62071,0.09338
3282.69198,0.09425
3280.76325,0.09509
3278.83453,0.09573
3276.90580,0.09593
3274.97708,0.09588
3273.04835,0.09601
3271.11962,0.09635
3269.19090,0.09654
3267.26217,0.09636
3265.33344,0.09571
3263.40472,0.09509
3261.47599,0.09522
3259.54727,0.09586
3257.61854,0.09615
3255.68981,0.09579
3253.76109,0.09511
3251.83236,0.09454
3249.90364,0.09406
3247.97491,0.09343
3246.04618,0.09289
3244.11746,0.09262
3242.18873,0.09236
3240.26000,0.09187
3238.33128,0.09116
3236.40255,0.09064
3234.47383,0.09064
3232.54510,0.09093
3230.61637,0.09125
3228.68765,0.09146
3226.75892,0.09153
3224.83019,0.09189
3222.90147,0.09271
3220.97274,0.09355
3219.04402,0.09415
3217.11529,0.09453
3215.18656,0.09474
3213.25784,0.09489
3211.32911,0.09522
3209.40039,0.09568
3207.47166,0.09575
3205.54293,0.09511
3203.61421,0.09425
3201.68548,0.09368
3199.75675,0.09327
3197.82803,0.09266
3195.89930,0.09207
3193.97058,0.09196
3192.04185,0.09216
3190.11312,0.09211
3188.18440,0.09169
3186.25567,0.09137
3184.32694,0.09132
3182.39822,0.09113
3180.46949,0.09073
3178.54077,0.09050
3176.61204,0.09061
3174.68331,0.09073
3172.75459,0.09049
3170.82586,0.08992
3168.89714,0.08917
3166.96841,0.08840
3165.03968,0.08780
3163.11096,0.08745
3161.18223,0.08703
3159.25350,0.08627
3157.32478,0.08548
3155.39605,0.08498
3153.46733,0.08448
3151.53860,0.08355
3149.60987,0.08233
3147.68115,0.08136
3145.75242,0.08073
3143.82369,0.07997
3141.89497,0.07865
3139.96624,0.07689
3138.03752,0.07516
3136.10879,0.07359
3134.18006,0.07200
3132.25134,0.07047
3130.32261,0.06919
3128.39389,0.06826
3126.46516,0.06776
3124.53643,0.06756
3122.60771,0.06749
3120.67898,0.06729
3118.75025,0.06660
3116.82153,0.06536
3114.89280,0.06364
3112.96408,0.06137
3111.03535,0.05875
3109.10662,0.05633
3107.17790,0.05435
3105.24917,0.05261
3103.32044,0.05138
3101.39172,0.05141
3099.46299,0.05253
3097.53427,0.05379
3095.60554,0.05467
3093.67681,0.05509
3091.74809,0.05477
3089.81936,0.05346
3087.89063,0.05129
3085.96191,0.04885
3084.03318,0.04685
3082.10446,0.04555
3080.17573,0.04484
3078.24700,0.04462
3076.31828,0.04461
3074.38955,0.04438
3072.46083,0.04389
3070.53210,0.04354
3068.60337,0.04346
3066.67465,0.04353
3064.74592,0.04369
3062.81719,0.04360
3060.88847,0.04271
3058.95974,0.04094
3057.03102,0.03910
3055.10229,0.03830
3053.17356,0.03907
3051.24484,0.04134
3049.31611,0.04502
3047.38738,0.04972
3045.45866,0.05424
3043.52993,0.05730
3041.60121,0.05885
3039.67248,0.05952
3037.74375,0.05954
3035.81503,0.05891
3033.88630,0.05775
3031.95758,0.05636
3030.02885,0.05478
3028.10012,0.05257
3026.17140,0.04950
3024.24267,0.04609
3022.31394,0.04272
3020.38522,0.03929
3018.45649,0.03595
3016.52777,0.03301
3014.59904,0.03077
3012.67031,0.02953
3010.74159,0.02909
3008.81286,0.02887
3006.88413,0.02847
3004.95541,0.02779
3003.02668,0.02690
3001.09796,0.02615
2999.16923,0.02589
2997.24050,0.02588
2995.31178,0.02539
2993.38305,0.02442
2991.45433,0.02363
2989.52560,0.02304
2987.59687,0.02219
2985.66815,0.02092
2983.73942,0.01946
2981.81069,0.01793
2979.88197,0.01654
2977.95324,0.01581
2976.02452,0.01581
2974.09579,0.01582
2972.16706,0.01533
2970.23834,0.01476
2968.30961,0.01450
2966.38088,0.01458
2964.45216,0.01485
2962.52343,0.01518
2960.59471,0.01559
2958.66598,0.01606
2956.73725,0.01660
2954.80853,0.01703
2952.87980,0.01725
2950.95108,0.01787
2949.02235,0.01930
2947.09362,0.02125
2945.16490,0.02329
2943.23617,0.02524
2941.30744,0.02693
2939.37872,0.02840
2937.44999,0.02969
2935.52127,0.03064
2933.59254,0.03147
2931.66381,0.03221
2929.73509,0.03234
2927.80636,0.03186
2925.87763,0.03114
2923.94891,0.03019
2922.02018,0.02902
2920.09146,0.02783
2918.16273,0.02650
2916.23400,0.02514
2914.30528,0.02417
2912.37655,0.02326
2910.44783,0.02184
2908.51910,0.02070
2906.59037,0.02091
2904.66165,0.02224
2902.73292,0.02374
2900.80419,0.02502
2898.87547,0.02631
2896.94674,0.02757
2895.01802,0.02833
2893.08929,0.02859
2891.16056,0.02877
2889.23184,0.02907
2887.30311,0.02964
2885.37438,0.03050
2883.44566,0.03129
2881.51693,0.03192
2879.58821,0.03272
2877.65948,0.03373
2875.73075,0.03469
2873.80203,0.03560
2871.87330,0.03654
2869.94458,0.03742
2868.01585,0.03804
2866.08712,0.03834
2864.15840,0.03863
2862.22967,0.03921
2860.30094,0.04000
2858.37222,0.04081
2856.44349,0.04165
2854.51477,0.04229
2852.58604,0.04281
2850.65731,0.04400
2848.72859,0.04646
2846.79986,0.05006
2844.87113,0.05408
2842.94241,0.05800
2841.01368,0.06157
2839.08496,0.06448
2837.15623,0.06688
2835.22750,0.06925
2833.29878,0.07144
2831.37005,0.07326
2829.44133,0.07498
2827.51260,0.07671
2825.58387,0.07814
2823.65515,0.07908
2821.72642,0.07957
2819.79769,0.07954
2817.86897,0.07895
2815.94024,0.07834
2814.01152,0.07806
2812.08279,0.07762
2810.15406,0.07689
2808.22534,0.07663
2806.29661,0.07723
2804.36788,0.07816
2802.43916,0.07905
2800.51043,0.08009
2798.58171,0.08143
2796.65298,0.08317
2794.72425,0.08515
2792.79553,0.08692
2790.86680,0.08849
2788.93808,0.09002
2787.00935,0.09144
2785.08062,0.09268
2783.15190,0.09387
2781.22317,0.09506
2779.29444,0.09611
2777.36572,0.09694
2775.43699,0.09772
2773.50827,0.09858
2771.57954,0.09944
2769.65081,0.10020
2767.72209,0.10081
2765.79336,0.10116
2763.86463,0.10123
2761.93591,0.10123
2760.00718,0.10140
2758.07846,0.10154
2756.14973,0.10144
2754.22100,0.10140
2752.29228,0.10149
2750.36355,0.10134
2748.43483,0.10106
2746.50610,0.10111
2744.57737,0.10162
2742.64865,0.10252
2740.71992,0.10372
2738.79119,0.10529
2736.86247,0.10719
2734.93374,0.10897
2733.00502,0.11050
2731.07629,0.11202
2729.14756,0.11355
2727.21884,0.11494
2725.29011,0.11610
2723.36138,0.11705
2721.43266,0.11786
2719.50393,0.11868
2717.57521,0.11974
2715.64648,0.12089
2713.71775,0.12165
2711.78903,0.12212
2709.86030,0.12281
2707.93157,0.12391
2706.00285,0.12521
2704.07412,0.12641
2702.14540,0.12724
2700.21667,0.12780
2698.28794,0.12830
2696.35922,0.12881
2694.43049,0.12923
2692.50177,0.12957
2690.57304,0.12990
2688.64431,0.13018
2686.71559,0.13019
2684.78686,0.12985
2682.85813,0.12946
2680.92941,0.12932
2679.00068,0.12951
2677.07196,0.12983
2675.14323,0.13002
2673.21450,0.13010
2671.28578,0.13024
2669.35705,0.13036
2667.42832,0.13040
2665.49960,0.13043
2663.57087,0.13020
2661.64215,0.12948
2659.71342,0.12867
2657.78469,0.12799
2655.85597,0.12712
2653.92724,0.12601
2651.99852,0.12496
2650.06979,0.12404
2648.14106,0.12309
2646.21234,0.12183
2644.28361,0.12003
2642.35488,0.11762
2640.42616,0.11490
2638.49743,0.11233
2636.56871,0.11028
2634.63998,0.10880
2632.71125,0.10784
2630.78253,0.10734
2628.85380,0.10713
2626.92507,0.10713
2624.99635,0.10753
2623.06762,0.10829
2621.13890,0.10900
2619.21017,0.10945
2617.28144,0.10972
2615.35272,0.10977
2613.42399,0.10945
2611.49527,0.10897
2609.56654,0.10858
2607.63781,0.10810
2605.70909,0.10736
2603.78036,0.10662
2601.85163,0.10603
2599.92291,0.10537
2597.99418,0.10438
2596.06546,0.10316
2594.13673,0.10187
2592.20800,0.10052
2590.27928,0.09933
2588.35055,0.09841
2586.42182,0.09769
2584.49310,0.09718
2582.56437,0.09690
2580.63565,0.09703
2578.70692,0.09759
2576.77819,0.09814
2574.84947,0.09839
2572.92074,0.09834
2570.99202,0.09797
2569.06329,0.09755
2567.13456,0.09731
2565.20584,0.09699
2563.27711,0.09654
2561.34838,0.09612
2559.41966,0.09581
2557.49093,0.09568
2555.56221,0.09578
2553.63348,0.09595
2551.70475,0.09590
2549.77603,0.09548
2547.84730,0.09496
2545.91857,0.09457
2543.98985,0.09432
2542.06112,0.09422
2540.13240,0.09425
2538.20367,0.09427
2536.27494,0.09424
2534.34622,0.09428
2532.41749,0.09438
2530.48877,0.09471
2528.56004,0.09548
2526.63131,0.09657
2524.70259,0.09764
2522.77386,0.09860
2520.84513,0.09969
2518.91641,0.10099
2516.98768,0.10211
2515.05896,0.10273
2513.13023,0.10301
2511.20150,0.10334
2509.27278,0.10381
2507.34405,0.10424
2505.41532,0.10437
2503.48660,0.10443
2501.55787,0.10480
2499.62915,0.10536
2497.70042,0.10595
2495.77169,0.10689
2493.84297,0.10824
2491.91424,0.10965
2489.98552,0.11101
2488.05679,0.11244
2486.12806,0.11408
2484.19934,0.11575
2482.27061,0.11719
2480.34188,0.11847
2478.41316,0.11986
2476.48443,0.12125
2474.55571,0.12232
2472.62698,0.12312
2470.69825,0.12390
2468.76953,0.12462
2466.84080,0.12508
2464.91207,0.12538
2462.98335,0.12565
2461.05462,0.12582
2459.12590,0.12583
2457.19717,0.12553
2455.26844,0.12485
2453.33972,0.12405
2451.41099,0.12346
2449.48227,0.12319
2447.55354,0.12294
2445.62481,0.12232
2443.69609,0.12124
2441.76736,0.11980
2439.83863,0.11812
2437.90991,0.11627
2435.98118,0.11413
2434.05246,0.11182
2432.12373,0.10981
2430.19500,0.10817
2428.26628,0.10642
2426.33755,0.10448
2424.40882,0.10255
2422.48010,0.10058
2420.55137,0.09849
2418.62265,0.09643
2416.69392,0.09469
2414.76519,0.09322
2412.83647,0.09165
2410.90774,0.09009
2408.97902,0.08876
2407.05029,0.08748
2405.12156,0.08608
2403.19284,0.08469
2401.26411,0.08354
2399.33538,0.08267
2397.40666,0.08184
2395.47793,0.08105
2393.54921,0.08028
2391.62048,0.07957
2389.69175,0.07899
2387.76303,0.07845
2385.83430,0.07768
2383.90557,0.07663
2381.97685,0.07534
2380.04812,0.07381
2378.11940,0.07226
2376.19067,0.07105
2374.26194,0.06993
2372.33322,0.06833
2370.40449,0.06677
2368.47576,0.06586
2366.54704,0.06489
2364.61831,0.06417
2362.68959,0.06453
2360.76086,0.06585
2358.83213,0.06839
2356.90341,0.07205
2354.97468,0.07616
2353.04596,0.07887
2351.11723,0.07822
2349.18850,0.07771
2347.25978,0.08117
2345.33105,0.08475
2343.40232,0.08414
2341.47360,0.08230
2339.54487,0.08119
2337.61615,0.08082
2335.68742,0.08159
2333.75869,0.08327
2331.82997,0.08529
2329.90124,0.08724
2327.97251,0.08907
2326.04379,0.09086
2324.11506,0.09307
2322.18634,0.09606
2320.25761,0.09924
2318.32888,0.10152
2316.40016,0.10315
2314.47143,0.10470
2312.54271,0.10581
2310.61398,0.10651
2308.68525,0.10707
2306.75653,0.10722
2304.82780,0.10660
2302.89907,0.10547
2300.97035,0.10398
2299.04162,0.10195
2297.11290,0.09970
2295.18417,0.09760
2293.25544,0.09566
2291.32672,0.09409
2289.39799,0.09316
2287.46926,0.09280
2285.54054,0.09271
2283.61181,0.09264
2281.68309,0.09259
2279.75436,0.09275
2277.82563,0.09313
2275.89691,0.09354
2273.96818,0.09370
2272.03946,0.09352
2270.11073,0.09307
2268.18200,0.09256
2266.25328,0.09210
2264.32455,0.09164
2262.39582,0.09133
2260.46710,0.09147
2258.53837,0.09203
2256.60965,0.09269
2254.68092,0.09327
2252.75219,0.09391
2250.82347,0.09493
2248.89474,0.09654
2246.96601,0.09807
2245.03729,0.09981
2243.10856,0.10162
2241.17984,0.10315
2239.25111,0.10416
2237.32238,0.10492
2235.39366,0.10585
2233.46493,0.10701
2231.53621,0.10806
2229.60748,0.10877
2227.67875,0.10928
2225.75003,0.10975
2223.82130,0.11020
2221.89257,0.11077
2219.96385,0.11156
2218.03512,0.11221
2216.10640,0.11244
2214.17767,0.11244
2212.24894,0.11257
2210.32022,0.11328
2208.39149,0.11481
2206.46276,0.11667
2204.53404,0.11825
2202.60531,0.11946
2200.67659,0.12051
2198.74786,0.12134
2196.81913,0.12170
2194.89041,0.12176
2192.96168,0.12176
2191.03296,0.12172
2189.10423,0.12149
2187.17550,0.12090
2185.24678,0.11998
2183.31805,0.11893
2181.38932,0.11771
2179.46060,0.11625
2177.53187,0.11471
2175.60315,0.11301
2173.67442,0.11121
2171.74569,0.10960
2169.81697,0.10805
2167.88824,0.10617
2165.95951,0.10385
2164.03079,0.10122
2162.10206,0.09850
2160.17334,0.09589
2158.24461,0.09355
2156.31588,0.09154
2154.38716,0.08979
2152.45843,0.08798
2150.52971,0.08605
2148.60098,0.08433
2146.67225,0.08286
2144.74353,0.08138
2142.81480,0.08000
2140.88607,0.07891
2138.95735,0.07793
2137.02862,0.07702
2135.09990,0.07612
2133.17117,0.07511
2131.24244,0.07390
2129.31372,0.07240
2127.38499,0.07079
2125.45626,0.06945
2123.52754,0.06829
2121.59881,0.06708
2119.67009,0.06602
2117.74136,0.06530
2115.81263,0.06470
2113.88391,0.06413
2111.95518,0.06383
2110.02646,0.06393
2108.09773,0.06417
2106.16900,0.06439
2104.24028,0.06468
2102.31155,0.06511
2100.38282,0.06560
2098.45410,0.06590
2096.52537,0.06624
2094.59665,0.06687
2092.66792,0.06761
2090.73919,0.06844
2088.81047,0.06956
2086.88174,0.07095
2084.95301,0.07244
2083.02429,0.07403
2081.09556,0.07578
2079.16684,0.07767
2077.23811,0.07963
2075.30938,0.08164
2073.38066,0.08372
2071.45193,0.08588
2069.52321,0.08813
2067.59448,0.09064
2065.66575,0.09350
2063.73703,0.09637
2061.80830,0.09892
2059.87957,0.10128
2057.95085,0.10361
2056.02212,0.10578
2054.09340,0.10767
2052.16467,0.10929
2050.23594,0.11071
2048.30722,0.11201
2046.37849,0.11322
2044.44976,0.11419
2042.52104,0.11465
2040.59231,0.11456
2038.66359,0.11421
2036.73486,0.11391
2034.80613,0.11361
2032.87741,0.11291
2030.94868,0.11162
2029.01996,0.10993
2027.09123,0.10819
2025.16250,0.10650
2023.23378,0.10455
2021.30505,0.10225
2019.37632,0.09997
2017.44760,0.09790
2015.51887,0.09600
2013.59015,0.09413
2011.66142,0.09229
2009.73269,0.09049
2007.80397,0.08854
2005.87524,0.08635
2003.94651,0.08411
2002.01779,0.08197
2000.08906,0.07983
1998.16034,0.07768
1996.23161,0.07574
1994.30288,0.07391
1992.37416,0.07199
1990.44543,0.07017
1988.51670,0.06839
1986.58798,0.06639
1984.65925,0.06434
1982.73053,0.06253
1980.80180,0.06093
1978.87307,0.05926
1976.94435,0.05736
1975.01562,0.05521
1973.08690,0.05274
1971.15817,0.04992
1969.22944,0.04692
1967.30072,0.04383
1965.37199,0.04082
1963.44326,0.03836
1961.51454,0.03675
1959.58581,0.03608
1957.65709,0.03651
1955.72836,0.03790
1953.79963,0.03956
1951.87091,0.04111
1949.94218,0.04279
1948.01345,0.04475
1946.08473,0.04687
1944.15600,0.04915
1942.22728,0.05153
1940.29855,0.05367
1938.36982,0.05558
1936.44110,0.05765
1934.51237,0.05990
1932.58365,0.06208
1930.65492,0.06427
1928.72619,0.06657
1926.79747,0.06877
1924.86874,0.07079
1922.94001,0.07281
1921.01129,0.07470
1919.08256,0.07621
1917.15384,0.07740
1915.22511,0.07842
1913.29638,0.07954
1911.36766,0.08087
1909.43893,0.08206
1907.51020,0.08288
1905.58148,0.08355
1903.65275,0.08434
1901.72403,0.08526
1899.79530,0.08610
1897.86657,0.08673
1895.93785,0.08720
1894.00912,0.08775
1892.08040,0.08841
1890.15167,0.08884
1888.22294,0.08869
1886.29422,0.08807
1884.36549,0.08738
1882.43676,0.08681
1880.50804,0.08634
1878.57931,0.08579
1876.65059,0.08496
1874.72186,0.08395
1872.79313,0.08310
1870.86441,0.08232
1868.93568,0.08082
1867.00695,0.07818
1865.07823,0.07520
1863.14950,0.07263
1861.22078,0.07038
1859.29205,0.06817
1857.36332,0.06568
1855.43460,0.06262
1853.50587,0.05914
1851.57715,0.05579
1849.64842,0.05300
1847.71969,0.05073
1845.79097,0.04839
1843.86224,0.04551
1841.93351,0.04266
1840.00479,0.04053
1838.07606,0.03889
1836.14734,0.03728
1834.21861,0.03577
1832.28988,0.03458
1830.36116,0.03356
1828.43243,0.03252
1826.50370,0.03166
1824.57498,0.03104
1822.64625,0.03062
1820.71753,0.03036
1818.78880,0.03019
1816.86007,0.02999
1814.93135,0.02981
1813.00262,0.02969
1811.07390,0.02944
1809.14517,0.02899
1807.21644,0.02853
1805.28772,0.02826
1803.35899,0.02826
1801.43026,0.02837
1799.50154,0.02829
1797.57281,0.02791
1795.64409,0.02745
1793.71536,0.02698
1791.78663,0.02622
1789.85791,0.02508
1787.92918,0.02393
1786.00045,0.02318
1784.07173,0.02288
1782.14300,0.02264
1780.21428,0.02202
1778.28555,0.02104
1776.35682,0.02012
1774.42810,0.01933
1772.49937,0.01832
1770.57065,0.01703
1768.64192,0.01582
1766.71319,0.01476
1764.78447,0.01377
1762.85574,0.01276
1760.92701,0.01177
1758.99829,0.01093
1757.06956,0.01020
1755.14084,0.00958
1753.21211,0.00907
1751.28338,0.00841
1749.35466,0.00736
1747.42593,0.00624
1745.49720,0.00556
1743.56848,0.00550
1741.63975,0.00595
1739.71103,0.00664
1737.78230,0.00751
1735.85357,0.00883
1733.92485,0.01082
1731.99612,0.01282
1730.06740,0.01423
1728.13867,0.01554
1726.20994,0.01711
1724.28122,0.01880
1722.35249,0.02047
1720.42376,0.02228
1718.49504,0.02434
1716.56631,0.02546
1714.63759,0.02442
1712.70886,0.02258
1710.78013,0.02114
1708.85141,0.02007
1706.92268,0.01908
1704.99395,0.01820
1703.06523,0.01780
1701.13650,0.01789
1699.20778,0.01799
1697.27905,0.01758
1695.35032,0.01667
1693.42160,0.01585
1691.49287,0.01546
1689.56415,0.01544
1687.63542,0.01574
1685.70669,0.01637
1683.77797,0.01714
1681.84924,0.01746
1679.92051,0.01733
1677.99179,0.01736
1676.06306,0.01794
1674.13434,0.01900
1672.20561,0.02019
1670.27688,0.02132
1668.34816,0.02215
1666.41943,0.02269
1664.49070,0.02368
1662.56198,0.02532
1660.63325,0.02670
1658.70453,0.02756
1656.77580,0.02870
1654.84707,0.03064
1652.91835,0.03255
1650.98962,0.03305
1649.06090,0.03288
1647.13217,0.03280
1645.20344,0.03268
1643.27472,0.03271
1641.34599,0.03305
1639.41726,0.03360
1637.48854,0.03417
1635.55981,0.03425
1633.63109,0.03354
1631.70236,0.03291
1629.77363,0.03301
1627.84491,0.03361
1625.91618,0.03409
1623.98745,0.03398
1622.05873,0.03323
1620.13000,0.03204
1618.20128,0.03029
1616.27255,0.02801
1614.34382,0.02622
1612.41510,0.02569
1610.48637,0.02634
1608.55764,0.02783
1606.62892,0.02981
1604.70019,0.03206
1602.77147,0.03451
1600.84274,0.03683
1598.91401,0.03847
1596.98529,0.03920
1595.05656,0.03900
1593.12784,0.03776
1591.19911,0.03555
1589.27038,0.03271
1587.34166,0.02945
1585.41293,0.02587
1583.48420,0.02225
1581.55548,0.01930
1579.62675,0.01778
1577.69803,0.01811
1575.76930,0.02009
1573.84057,0.02251
1571.91185,0.02496
1569.98312,0.02803
1568.05439,0.03086
1566.12567,0.03218
1564.19694,0.03299
1562.26822,0.03475
1560.33949,0.03783
1558.41076,0.04052
1556.48204,0.04014
1554.55331,0.03862
1552.62459,0.03764
1550.69586,0.03692
1548.76713,0.03643
1546.83841,0.03668
1544.90968,0.03799
1542.98095,0.03986
1541.05223,0.04023
1539.12350,0.03821
1537.19478,0.03628
1535.26605,0.03506
1533.33732,0.03348
1531.40860,0.03150
1529.47987,0.02997
1527.55114,0.02904
1525.62242,0.02841
1523.69369,0.02813
1521.76497,0.02836
1519.83624,0.02856
1517.90751,0.02779
1515.97879,0.02592
1514.05006,0.02349
1512.12134,0.02093
1510.19261,0.01841
1508.26388,0.01592
1506.33516,0.01384
1504.40643,0.01323
1502.47770,0.01447
1500.54898,0.01743
1498.62025,0.02168
1496.69153,0.02590
1494.76280,0.02850
1492.83407,0.02930
1490.90535,0.02871
1488.97662,0.02668
1487.04789,0.02364
1485.11917,0.02072
1483.19044,0.01846
1481.26172,0.01669
1479.33299,0.01526
1477.40426,0.01423
1475.47554,0.01382
1473.54681,0.01384
1471.61809,0.01354
1469.68936,0.01293
1467.76063,0.01262
1465.83191,0.01257
1463.90318,0.01229
1461.97445,0.01195
1460.04573,0.01210
1458.11700,0.01246
1456.18828,0.01215
1454.25955,0.01140
1452.33082,0.01082
1450.40210,0.01046
1448.47337,0.01030
1446.54464,0.01039
1444.61592,0.01063
1442.68719,0.01092
1440.75847,0.01127
1438.82974,0.01169
1436.90101,0.01205
1434.97229,0.01231
1433.04356,0.01275
1431.11484,0.01351
1429.18611,0.01416
1427.25738,0.01410
1425.32866,0.01335
1423.39993,0.01230
1421.47120,0.01119
1419.54248,0.00993
1417.61375,0.00875
1415.68503,0.00814
1413.75630,0.00809
1411.82757,0.00838
1409.89885,0.00880
1407.97012,0.00923
1406.04139,0.00945
1404.11267,0.00950
1402.18394,0.00970
1400.25522,0.01018
1398.32649,0.01061
1396.39776,0.01072
1394.46904,0.01056
1392.54031,0.01024
1390.61159,0.01000
1388.68286,0.01004
1386.75413,0.01025
1384.82541,0.01037
1382.89668,0.01024
1380.96795,0.00991
1379.03923,0.00960
1377.11050,0.00960
1375.18178,0.00990
1373.25305,0.01007
1371.32432,0.00978
1369.39560,0.00927
1367.46687,0.00896
1365.53814,0.00902
1363.60942,0.00919
1361.68069,0.00930
1359.75197,0.00941
1357.82324,0.00951
1355.89451,0.00936
1353.96579,0.00889
1352.03706,0.00835
1350.10834,0.00810
1348.17961,0.00846
1346.25088,0.00954
1344.32216,0.01102
1342.39343,0.01219
1340.46470,0.01252
1338.53598,0.01214
1336.60725,0.01160
1334.67853,0.01122
1332.74980,0.01084
1330.82107,0.01021
1328.89235,0.00928
1326.96362,0.00834
1325.03489,0.00768
1323.10617,0.00730
1321.17744,0.00699
1319.24872,0.00666
1317.31999,0.00641
1315.39126,0.00624
1313.46254,0.00613
1311.53381,0.00614
1309.60509,0.00603
1307.67636,0.00566
1305.74763,0.00538
1303.81891,0.00549
1301.89018,0.00578
1299.96145,0.00607
1298.03273,0.00645
1296.10400,0.00708
1294.17528,0.00798
1292.24655,0.00913
1290.31782,0.01055
1288.38910,0.01234
1286.46037,0.01444
1284.53164,0.01651
1282.60292,0.01840
1280.67419,0.02027
1278.74547,0.02220
1276.81674,0.02386
1274.88801,0.02514
1272.95929,0.02642
1271.03056,0.02785
1269.10183,0.02893
1267.17311,0.02955
1265.24438,0.03020
1263.31566,0.03091
1261.38693,0.03130
1259.45820,0.03148
1257.52948,0.03175
1255.60075,0.03211
1253.67203,0.03233
1251.74330,0.03223
1249.81457,0.03198
1247.88585,0.03178
1245.95712,0.03140
1244.02839,0.03066
1242.09967,0.02959
1240.17094,0.02826
1238.24222,0.02699
1236.31349,0.02609
1234.38476,0.02529
1232.45604,0.02404
1230.52731,0.02262
1228.59858,0.02168
1226.66986,0.02126
1224.74113,0.02100
1222.81241,0.02069
1220.88368,0.02061
1218.95495,0.02086
1217.02623,0.02109
1215.09750,0.02113
1213.16878,0.02106
1211.24005,0.02086
1209.31132,0.02079
1207.38260,0.02119
1205.45387,0.02178
1203.52514,0.02208
1201.59642,0.02221
1199.66769,0.02249
1197.73897,0.02294
1195.81024,0.02319
1193.88151,0.02285
1191.95279,0.02207
1190.02406,0.02117
1188.09533,0.02023
1186.16661,0.01937
1184.23788,0.01851
1182.30916,0.01739
1180.38043,0.01630
1178.45170,0.01542
1176.52298,0.01451
1174.59425,0.01387
1172.66553,0.01389
1170.73680,0.01429
1168.80807,0.01452
1166.87935,0.01418
1164.95062,0.01342
1163.02189,0.01282
1161.09317,0.01232
1159.16444,0.01137
1157.23572,0.01000
1155.30699,0.00907
1153.37826,0.00907
1151.44954,0.00944
1149.52081,0.00931
1147.59208,0.00873
1145.66336,0.00845
1143.73463,0.00849
1141.80591,0.00856
1139.87718,0.00941
1137.94845,0.01117
1136.01973,0.01311
1134.09100,0.01518
1132.16228,0.01739
1130.23355,0.01927
1128.30482,0.02052
1126.37610,0.02086
1124.44737,0.02056
1122.51864,0.02020
1120.58992,0.01982
1118.66119,0.01945
1116.73247,0.01920
1114.80374,0.01925
1112.87501,0.01950
1110.94629,0.01941
1109.01756,0.01916
1107.08883,0.01931
1105.16011,0.01962
1103.23138,0.01990
1101.30266,0.02058
1099.37393,0.02145
1097.44520,0.02142
1095.51648,0.02041
1093.58775,0.01969
1091.65903,0.01966
1089.73030,0.01956
1087.80157,0.01936
1085.87285,0.01949
1083.94412,0.01951
1082.01539,0.01928
1080.08667,0.01930
1078.15794,0.01935
1076.22922,0.01939
1074.30049,0.01984
1072.37176,0.02072
1070.44304,0.02169
1068.51431,0.02235
1066.58558,0.02297
1064.65686,0.02383
1062.72813,0.02415
1060.79941,0.02331
1058.87068,0.02206
1056.94195,0.02136
1055.01323,0.02094
1053.08450,0.02003
1051.15578,0.01862
1049.22705,0.01750
1047.29832,0.01710
1045.36960,0.01697
1043.44087,0.01671
1041.51214,0.01656
1039.58342,0.01649
1037.65469,0.01635
1035.72597,0.01626
1033.79724,0.01623
1031.86851,0.01598
1029.93979,0.01521
1028.01106,0.01427
1026.08233,0.01431
1024.15361,0.01556
1022.22488,0.01693
1020.29616,0.01765
1018.36743,0.01771
1016.43870,0.01767
1014.50998,0.01874
1012.58125,0.02147
1010.65253,0.02498
1008.72380,0.02851
1006.79507,0.03175
1004.86635,0.03404
1002.93762,0.03511
1001.00889,0.03571
999.08017,0.03637
997.15144,0.03645
995.22272,0.03539
993.29399,0.03339
991.36526,0.03105
989.43654,0.02927
987.50781,0.02837
985.57908,0.02767
983.65036,0.02646
981.72163,0.02457
979.79291,0.02247
977.86418,0.02087
975.93545,0.01998
974.00673,0.01969
972.07800,0.02021
970.14928,0.02152
968.22055,0.02311
966.29182,0.02495
964.36310,0.02723
962.43437,0.02955
960.50564,0.03184
958.57692,0.03463
956.64819,0.03773
954.71947,0.04035
952.79074,0.04228
950.86201,0.04339
948.93329,0.04390
947.00456,0.04457
945.07583,0.04538
943.14711,0.04593
941.21838,0.04654
939.28966,0.04693
937.36093,0.04665
935.43220,0.04635
933.50348,0.04650
931.57475,0.04680
929.64603,0.04723
927.71730,0.04778
925.78857,0.04802
923.85985,0.04811
921.93112,0.04810
920.00239,0.04748
918.07367,0.04627
916.14494,0.04439
914.21622,0.04154
912.28749,0.03839
910.35876,0.03546
908.43004,0.03242
906.50131,0.02920
904.57258,0.02631
902.64386,0.02436
900.71513,0.02350
898.78641,0.02332
896.85768,0.02318
894.92895,0.02301
893.00023,0.02324
891.07150,0.02341
889.14277,0.02261
887.21405,0.02146
885.28532,0.02075
883.35660,0.01954
881.42787,0.01733
879.49914,0.01540
877.57042,0.01449
875.64169,0.01416
873.71297,0.01451
871.78424,0.01578
869.85551,0.01711
867.92679,0.01796
865.99806,0.01867
864.06933,0.01896
862.14061,0.01886
860.21188,0.01905
858.28316,0.01897
856.35443,0.01800
854.42570,0.01708
852.49698,0.01671
850.56825,0.01679
848.63952,0.01749
846.71080,0.01849
844.78207,0.01919
842.85335,0.01945
840.92462,0.01961
838.99589,0.02041
837.06717,0.02189
835.13844,0.02335
833.20972,0.02490
831.28099,0.02709
829.35226,0.02947
827.42354,0.03121
825.49481,0.03242
823.56608,0.03363
821.63736,0.03428
819.70863,0.03371
817.77991,0.03296
815.85118,0.03292
813.92245,0.03329
811.99373,0.03352
810.06500,0.03305
808.13627,0.03209
806.20755,0.03133
804.27882,0.03090
802.35010,0.03038
800.42137,0.02924
798.49264,0.02735
796.56392,0.02507
794.63519,0.02371
792.70647,0.02442
790.77774,0.02605
788.84901,0.02754
786.92029,0.03004
784.99156,0.03371
783.06283,0.03696
781.13411,0.03935
779.20538,0.04156
777.27666,0.04375
775.34793,0.04619
773.41920,0.04886
771.49048,0.05036
769.56175,0.05059
767.63302,0.05131
765.70430,0.05255
763.77557,0.05317
761.84685,0.05273
759.91812,0.05117
757.98939,0.04901
756.06067,0.04675
754.13194,0.04434
752.20322,0.04163
750.27449,0.03817
748.34576,0.03338
746.41704,0.02745
744.48831,0.02119
742.55958,0.01558
740.63086,0.01201
738.70213,0.01087
736.77341,0.01078
734.84468,0.01108
732.91595,0.01250
730.98723,0.01564
729.05850,0.01985
727.12977,0.02325
725.20105,0.02473
723.27232,0.02473
721.34360,0.02441
719.41487,0.02492
717.48614,0.02659
715.55742,0.02873
713.62869,0.03057
711.69997,0.03212
709.77124,0.03366
707.84251,0.03534
705.91379,0.03741
703.98506,0.04025
702.05633,0.04444
700.12761,0.05038
698.19888,0.05750
696.27016,0.06404
694.34143,0.06839
692.41270,0.07043
690.48398,0.07079
688.55525,0.06981
686.62652,0.06794
684.69780,0.06569
682.76907,0.06327
680.84035,0.06114
678.91162,0.06046
676.98289,0.06217
675.05417,0.06519
673.12544,0.06733
671.19672,0.07179
669.26799,0.08283
667.33926,0.08747
665.41054,0.08132
663.48181,0.07980
661.55308,0.08213
659.62436,0.08235
657.69563,0.08072
655.76691,0.08016
653.83818,0.08186
651.90945,0.08513
649.98073,0.08866
648.05200,0.09129
646.12327,0.09262
644.19455,0.09279
642.26582,0.09202
640.33710,0.09040
638.40837,0.08754
636.47964,0.08231
634.55092,0.07497
632.62219,0.06996
630.69347,0.07212
628.76474,0.08050
626.83601,0.08872
624.90729,0.09368
622.97856,0.09662
621.04983,0.09853
619.12111,0.09979
617.19238,0.10041
615.26366,0.10063
613.33493,0.10069
611.40620,0.10101
609.47748,0.10202
607.54875,0.10291
605.62002,0.10299
603.69130,0.10266
601.76257,0.10204
599.83385,0.10118
597.90512,0.10110
595.97639,0.10206
594.04767,0.10241
592.11894,0.10111
590.19022,0.09940
588.26149,0.09825
586.33276,0.09734
584.40404,0.09680
582.47531,0.09669
580.54658,0.09616
578.61786,0.09490
576.68913,0.09295
574.76041,0.09040
572.83168,0.08790
570.90295,0.08551
568.97423,0.08313
567.04550,0.08148
565.11677,0.08043
563.18805,0.07955
561.25932,0.07947
559.33060,0.07940
557.40187,0.07784
555.47314,0.07562
553.54442,0.07378
551.61569,0.07167
549.68697,0.06864
547.75824,0.06508
545.82951,0.06198
543.90079,0.06031
541.97206,0.06026
540.04333,0.05980
538.11461,0.05675
536.18588,0.05279
534.25716,0.05039
532.32843,0.04874
530.39970,0.04650
528.47098,0.04399
526.54225,0.04140
524.61352,0.03868
522.68480,0.03687
520.75607,0.03678
518.82735,0.03733
516.89862,0.03707
514.96989,0.03610
513.04117,0.03407
511.11244,0.03047
509.18371,0.02675
507.25499,0.02490
505.32626,0.02563
503.39754,0.02779
501.46881,0.02981
499.54008,0.03089
497.61136,0.03093
495.68263,0.03153
493.75391,0.03446
491.82518,0.03921
489.89645,0.04424
487.96773,0.04823
486.03900,0.04991
484.11027,0.04904
482.18155,0.04707
480.25282,0.04599
478.32410,0.04634
476.39537,0.04648
474.46664,0.04595
472.53792,0.04680
470.60919,0.04851
468.68046,0.04794
466.75174,0.04575
464.82301,0.04500
462.89429,0.04585
460.96556,0.04592
459.03683,0.04486
457.10811,0.04569
455.17938,0.04840
453.25066,0.04827
451.32193,0.04369
449.39320,0.03837
447.46448,0.03614
445.53575,0.03783
443.60702,0.04066
441.67830,0.03953
439.74957,0.03397
437.82085,0.02989
435.89212,0.02995
433.96339,0.03055
432.03467,0.02844
430.10594,0.02580
428.17721,0.02641
426.24849,0.03050
424.31976,0.03337
422.39104,0.03082
420.46231,0.02774
418.53358,0.03159
416.60486,0.03882
414.67613,0.04095
412.74741,0.04077
410.81868,0.04226
408.88995,0.04116
406.96123,0.03323
405.03250,0.02321
403.10377,0.01547
401.17505,0.01006
399.24632,0.00749
