7497.03301,0.38424
7495.10426,0.38048
7493.17552,0.37926
7491.24677,0.37722
7489.31803,0.37459
7487.38928,0.37523
7485.46054,0.37671
7483.53179,0.37560
7481.60305,0.37230
7479.67430,0.36739
7477.74556,0.36283
7475.81681,0.36039
7473.88807,0.35853
7471.95932,0.35839
7470.03057,0.36130
7468.10183,0.36366
7466.17308,0.36127
7464.24434,0.35430
7462.31559,0.34907
7460.38685,0.34997
7458.45810,0.35357
7456.52936,0.35377
7454.60061,0.34990
7452.67187,0.34843
7450.74312,0.35078
7448.81438,0.35042
7446.88563,0.34553
7444.95689,0.34153
7443.02814,0.34009
7441.09940,0.33782
7439.17065,0.33642
7437.24190,0.33893
7435.31316,0.34183
7433.38441,0.34203
7431.45567,0.34192
7429.52692,0.34241
7427.59818,0.34097
7425.66943,0.33893
7423.74069,0.33825
7421.81194,0.33793
7419.88320,0.33678
7417.95445,0.33507
7416.02571,0.33610
7414.09696,0.33926
7412.16822,0.33975
7410.23947,0.33713
7408.31073,0.33480
7406.38198,0.33317
7404.45323,0.32923
7402.52449,0.32685
7400.59574,0.32985
7398.66700,0.33154
7396.73825,0.32916
7394.80951,0.32942
7392.88076,0.33465
7390.95202,0.33924
7389.02327,0.33774
7387.09453,0.33262
7385.16578,0.33156
7383.23704,0.33490
7381.30829,0.33606
7379.37955,0.33292
7377.45080,0.32656
7375.52205,0.32048
7373.59331,0.31983
7371.66456,0.32268
7369.73582,0.32363
7367.80707,0.32433
7365.87833,0.32810
7363.94958,0.33311
7362.02084,0.33832
7360.09209,0.34163
7358.16335,0.33886
7356.23460,0.33202
7354.30586,0.32650
7352.37711,0.32362
7350.44837,0.32108
7348.51962,0.31782
7346.59088,0.31623
7344.66213,0.31885
7342.73338,0.32294
7340.80464,0.32294
7338.87589,0.31990
7336.94715,0.31775
7335.01840,0.31680
7333.08966,0.31713
7331.16091,0.31726
7329.23217,0.31485
7327.30342,0.31241
7325.37468,0.31280
7323.44593,0.31317
7321.51719,0.31212
7319.58844,0.31253
7317.65970,0.31476
7315.73095,0.31635
7313.80221,0.31585
7311.87346,0.31410
7309.94471,0.31147
7308.01597,0.30734
7306.08722,0.30296
7304.15848,0.30031
7302.22973,0.29968
7300.30099,0.29949
7298.37224,0.29953
7296.44350,0.30074
7294.51475,0.30119
7292.58601,0.29904
7290.65726,0.29652
7288.72852,0.29644
7286.79977,0.29839
7284.87103,0.29922
7282.94228,0.29851
7281.01353,0.29823
7279.08479,0.29686
7277.15604,0.29313
7275.22730,0.28938
7273.29855,0.28836
7271.36981,0.29021
7269.44106,0.28985
7267.51232,0.28697
7265.58357,0.28893
7263.65483,0.29420
7261.72608,0.29555
7259.79734,0.29446
7257.86859,0.29428
7255.93985,0.29282
7254.01110,0.28896
7252.08236,0.28594
7250.15361,0.28410
7248.22486,0.28034
7246.29612,0.27576
7244.36737,0.27330
7242.43863,0.27300
7240.50988,0.27268
7238.58114,0.26989
7236.65239,0.26758
7234.72365,0.26899
7232.79490,0.27244
7230.86616,0.27723
7228.93741,0.28078
7227.00867,0.28003
7225.07992,0.27686
7223.15118,0.27268
7221.22243,0.26785
7219.29369,0.26586
7217.36494,0.26823
7215.43619,0.26825
7213.50745,0.26363
7211.57870,0.26064
7209.64996,0.25875
7207.72121,0.25607
7205.79247,0.25584
7203.86372,0.25724
7201.93498,0.25598
7200.00623,0.25090
7198.07749,0.24666
7196.14874,0.24655
7194.22000,0.24635
7192.29125,0.24299
7190.36251,0.23837
7188.43376,0.23494
7186.50501,0.23379
7184.57627,0.23151
7182.64752,0.22495
7180.71878,0.21887
7178.79003,0.21764
7176.86129,0.21718
7174.93254,0.21266
7173.00380,0.20571
7171.07505,0.19932
7169.14631,0.19317
7167.21756,0.18779
7165.28882,0.18213
7163.36007,0.17328
7161.43133,0.16293
7159.50258,0.15313
7157.57384,0.14361
7155.64509,0.13651
7153.71634,0.13250
7151.78760,0.12994
7149.85885,0.12925
7147.93011,0.12959
7146.00136,0.13057
7144.07262,0.13541
7142.14387,0.14416
7140.21513,0.15439
7138.28638,0.16504
7136.35764,0.17384
7134.42889,0.17914
7132.50015,0.18262
7130.57140,0.18600
7128.64266,0.18817
7126.71391,0.18830
7124.78516,0.18794
7122.85642,0.18908
7120.92767,0.19273
7118.99893,0.19557
7117.07018,0.19322
7115.14144,0.18945
7113.21269,0.18927
7111.28395,0.18961
7109.35520,0.18801
7107.42646,0.18610
7105.49771,0.18436
7103.56897,0.18379
7101.64022,0.18466
7099.71148,0.18441
7097.78273,0.18146
7095.85399,0.17581
7093.92524,0.16896
7091.99649,0.16484
7090.06775,0.16462
7088.13900,0.16360
7086.21026,0.15989
7084.28151,0.15550
7082.35277,0.15083
7080.42402,0.14795
7078.49528,0.14781
7076.56653,0.14612
7074.63779,0.14147
7072.70904,0.13657
7070.78030,0.13196
7068.85155,0.12655
7066.92281,0.12032
7064.99406,0.11421
7063.06532,0.11047
7061.13657,0.10944
7059.20782,0.10952
7057.27908,0.11000
7055.35033,0.11052
7053.42159,0.11141
7051.49284,0.11072
7049.56410,0.10649
7047.63535,0.10392
7045.70661,0.10491
7043.77786,0.10511
7041.84912,0.10553
7039.92037,0.10830
7037.99163,0.11037
7036.06288,0.11086
7034.13414,0.11306
7032.20539,0.11796
7030.27664,0.12492
7028.34790,0.13374
7026.41915,0.14218
7024.49041,0.14788
7022.56166,0.15128
7020.63292,0.15423
7018.70417,0.15656
7016.77543,0.15652
7014.84668,0.15529
7012.91794,0.15547
7010.98919,0.15604
7009.06045,0.15495
7007.13170,0.15245
7005.20296,0.14982
7003.27421,0.14720
7001.34547,0.14556
6999.41672,0.14557
6997.48797,0.14274
6995.55923,0.13609
6993.63048,0.13312
6991.70174,0.13459
6989.77299,0.13316
6987.84425,0.12770
6985.91550,0.12251
6983.98676,0.11872
6982.05801,0.11626
6980.12927,0.11621
6978.20052,0.11751
6976.27178,0.11803
6974.34303,0.11759
6972.41429,0.11642
6970.48554,0.11481
6968.55680,0.11242
6966.62805,0.10842
6964.69930,0.10526
6962.77056,0.10488
6960.84181,0.10392
6958.91307,0.10118
6956.98432,0.09969
6955.05558,0.10021
6953.12683,0.10124
6951.19809,0.10168
6949.26934,0.10191
6947.34060,0.10340
6945.41185,0.10567
6943.48311,0.10830
6941.55436,0.11191
6939.62562,0.11455
6937.69687,0.11617
6935.76812,0.11934
6933.83938,0.12131
6931.91063,0.12003
6929.98189,0.11806
6928.05314,0.11599
6926.12440,0.11444
6924.19565,0.11475
6922.26691,0.11434
6920.33816,0.11063
6918.40942,0.10598
6916.48067,0.10328
6914.55193,0.10248
6912.62318,0.10294
6910.69444,0.10277
6908.76569,0.10019
6906.83695,0.09655
6904.90820,0.09364
6902.97945,0.09214
6901.05071,0.09194
6899.12196,0.09129
6897.19322,0.09029
6895.26447,0.09063
6893.33573,0.09036
6891.40698,0.08815
6889.47824,0.08660
6887.54949,0.08658
6885.62075,0.08905
6883.69200,0.09544
6881.76326,0.10282
6879.83451,0.10687
6877.90577,0.10757
6875.97702,0.10932
6874.04828,0.11540
6872.11953,0.12266
6870.19078,0.12742
6868.26204,0.13035
6866.33329,0.13066
6864.40455,0.12746
6862.47580,0.12422
6860.54706,0.12142
6858.61831,0.11613
6856.68957,0.11022
6854.76082,0.10669
6852.83208,0.10443
6850.90333,0.10159
6848.97459,0.09842
6847.04584,0.09595
6845.11710,0.09357
6843.18835,0.09128
6841.25960,0.09058
6839.33086,0.09213
6837.40211,0.09662
6835.47337,0.10333
6833.54462,0.10848
6831.61588,0.11042
6829.68713,0.11182
6827.75839,0.11373
6825.82964,0.11563
6823.90090,0.11925
6821.97215,0.12440
6820.04341,0.12863
6818.11466,0.13219
6816.18592,0.13654
6814.25717,0.14075
6812.32843,0.14368
6810.39968,0.14634
6808.47093,0.14928
6806.54219,0.15230
6804.61344,0.15713
6802.68470,0.16395
6800.75595,0.16762
6798.82721,0.16509
6796.89846,0.16153
6794.96972,0.16213
6793.04097,0.16529
6791.11223,0.16770
6789.18348,0.16996
6787.25474,0.17307
6785.32599,0.17484
6783.39725,0.17356
6781.46850,0.17137
6779.53975,0.17255
6777.61101,0.17739
6775.68226,0.18157
6773.75352,0.18326
6771.82477,0.18343
6769.89603,0.18267
6767.96728,0.18320
6766.03854,0.18745
6764.10979,0.19234
6762.18105,0.19305
6760.25230,0.18991
6758.32356,0.18738
6756.39481,0.18915
6754.46607,0.19305
6752.53732,0.19438
6750.60858,0.19269
6748.67983,0.19030
6746.75108,0.18915
6744.82234,0.19011
6742.89359,0.19296
6740.96485,0.19562
6739.03610,0.19597
6737.10736,0.19617
6735.17861,0.20003
6733.24987,0.20534
6731.32112,0.20744
6729.39238,0.20678
6727.46363,0.20500
6725.53489,0.20353
6723.60614,0.20465
6721.67740,0.20759
6719.74865,0.20982
6717.81991,0.20997
6715.89116,0.20955
6713.96241,0.21143
6712.03367,0.21381
6710.10492,0.21304
6708.17618,0.20972
6706.24743,0.20778
6704.31869,0.20984
6702.38994,0.21194
6700.46120,0.20864
6698.53245,0.20376
6696.60371,0.20359
6694.67496,0.20527
6692.74622,0.20512
6690.81747,0.20562
6688.88873,0.20719
6686.95998,0.20705
6685.03123,0.20604
6683.10249,0.20577
6681.17374,0.20478
6679.24500,0.20225
6677.31625,0.20035
6675.38751,0.20096
6673.45876,0.20273
6671.53002,0.20299
6669.60127,0.20068
6667.67253,0.19733
6665.74378,0.19529
6663.81504,0.19476
6661.88629,0.19524
6659.95755,0.19610
6658.02880,0.19590
6656.10006,0.19425
6654.17131,0.19229
6652.24256,0.19143
6650.31382,0.19216
6648.38507,0.19270
6646.45633,0.18994
6644.52758,0.18521
6642.59884,0.18328
6640.67009,0.18357
6638.74135,0.18288
6636.81260,0.18189
6634.88386,0.18232
6632.95511,0.18237
6631.02637,0.17925
6629.09762,0.17570
6627.16888,0.17554
6625.24013,0.17539
6623.31139,0.17203
6621.38264,0.16851
6619.45389,0.16624
6617.52515,0.16378
6615.59640,0.16170
6613.66766,0.16003
6611.73891,0.15772
6609.81017,0.15513
6607.88142,0.15277
6605.95268,0.15059
6604.02393,0.14897
6602.09519,0.14771
6600.16644,0.14632
6598.23770,0.14518
6596.30895,0.14396
6594.38021,0.14205
6592.45146,0.14032
6590.52271,0.13970
6588.59397,0.13937
6586.66522,0.13857
6584.73648,0.13878
6582.80773,0.14015
6580.87899,0.14118
6578.95024,0.14213
6577.02150,0.14301
6575.09275,0.14362
6573.16401,0.14440
6571.23526,0.14482
6569.30652,0.14593
6567.37777,0.14907
6565.44903,0.15263
6563.52028,0.15583
6561.59154,0.15808
6559.66279,0.15718
6557.73404,0.15464
6555.80530,0.15428
6553.87655,0.15579
6551.94781,0.15755
6550.01906,0.15955
6548.09032,0.15987
6546.16157,0.15866
6544.23283,0.15939
6542.30408,0.16122
6540.37534,0.16192
6538.44659,0.16259
6536.51785,0.16363
6534.58910,0.16371
6532.66036,0.16251
6530.73161,0.16101
6528.80287,0.15940
6526.87412,0.15786
6524.94537,0.15733
6523.01663,0.15832
6521.08788,0.16057
6519.15914,0.16213
6517.23039,0.16118
6515.30165,0.15870
6513.37290,0.15646
6511.44416,0.15513
6509.51541,0.15496
6507.58667,0.15615
6505.65792,0.15724
6503.72918,0.15588
6501.80043,0.15245
6499.87169,0.15054
6497.94294,0.15157
6496.01419,0.15204
6494.08545,0.14982
6492.15670,0.14857
6490.22796,0.15016
6488.29921,0.15018
6486.37047,0.14687
6484.44172,0.14494
6482.51298,0.14645
6480.58423,0.14809
6478.65549,0.14683
6476.72674,0.14234
6474.79800,0.13670
6472.86925,0.13255
6470.94051,0.13192
6469.01176,0.13453
6467.08302,0.13609
6465.15427,0.13431
6463.22552,0.13203
6461.29678,0.13229
6459.36803,0.13423
6457.43929,0.13457
6455.51054,0.13275
6453.58180,0.13121
6451.65305,0.13135
6449.72431,0.13207
6447.79556,0.13244
6445.86682,0.13336
6443.93807,0.13431
6442.00933,0.13403
6440.08058,0.13381
6438.15184,0.13476
6436.22309,0.13663
6434.29434,0.13969
6432.36560,0.14240
6430.43685,0.14264
6428.50811,0.14210
6426.57936,0.14269
6424.65062,0.14407
6422.72187,0.14665
6420.79313,0.15023
6418.86438,0.15278
6416.93564,0.15291
6415.00689,0.15123
6413.07815,0.14977
6411.14940,0.15051
6409.22066,0.15338
6407.29191,0.15669
6405.36317,0.15941
6403.43442,0.16214
6401.50567,0.16536
6399.57693,0.16742
6397.64818,0.16700
6395.71944,0.16608
6393.79069,0.16756
6391.86195,0.17120
6389.93320,0.17383
6388.00446,0.17429
6386.07571,0.17491
6384.14697,0.17748
6382.21822,0.18102
6380.28948,0.18320
6378.36073,0.18370
6376.43199,0.18445
6374.50324,0.18516
6372.57450,0.18475
6370.64575,0.18442
6368.71700,0.18499
6366.78826,0.18636
6364.85951,0.18795
6362.93077,0.18899
6361.00202,0.19014
6359.07328,0.19174
6357.14453,0.19337
6355.21579,0.19443
6353.28704,0.19364
6351.35830,0.19214
6349.42955,0.19273
6347.50081,0.19426
6345.57206,0.19400
6343.64332,0.19291
6341.71457,0.19337
6339.78582,0.19495
6337.85708,0.19506
6335.92833,0.19370
6333.99959,0.19365
6332.07084,0.19510
6330.14210,0.19601
6328.21335,0.19672
6326.28461,0.19884
6324.35586,0.20174
6322.42712,0.20382
6320.49837,0.20476
6318.56963,0.20486
6316.64088,0.20410
6314.71214,0.20299
6312.78339,0.20237
6310.85465,0.20257
6308.92590,0.20396
6306.99715,0.20576
6305.06841,0.20658
6303.13966,0.20703
6301.21092,0.20804
6299.28217,0.20962
6297.35343,0.21085
6295.42468,0.21081
6293.49594,0.21025
6291.56719,0.21013
6289.63845,0.21019
6287.70970,0.21036
6285.78096,0.21066
6283.85221,0.21057
6281.92347,0.21060
6279.99472,0.21207
6278.06598,0.21491
6276.13723,0.21765
6274.20848,0.21935
6272.27974,0.21978
6270.35099,0.21921
6268.42225,0.21926
6266.49350,0.22058
6264.56476,0.22189
6262.63601,0.22261
6260.70727,0.22320
6258.77852,0.22487
6256.84978,0.22761
6254.92103,0.22920
6252.99229,0.22839
6251.06354,0.22675
6249.13480,0.22674
6247.20605,0.22857
6245.27730,0.22995
6243.34856,0.22972
6241.41981,0.22974
6239.49107,0.23163
6237.56232,0.23373
6235.63358,0.23437
6233.70483,0.23450
6231.77609,0.23523
6229.84734,0.23635
6227.91860,0.23704
6225.98985,0.23690
6224.06111,0.23658
6222.13236,0.23727
6220.20362,0.23891
6218.27487,0.24004
6216.34613,0.24055
6214.41738,0.24163
6212.48863,0.24225
6210.55989,0.24104
6208.63114,0.23995
6206.70240,0.24136
6204.77365,0.24459
6202.84491,0.24660
6200.91616,0.24550
6198.98742,0.24312
6197.05867,0.24224
6195.12993,0.24272
6193.20118,0.24374
6191.27244,0.24576
6189.34369,0.24785
6187.41495,0.24791
6185.48620,0.24572
6183.55746,0.24311
6181.62871,0.24190
6179.69996,0.24205
6177.77122,0.24262
6175.84247,0.24314
6173.91373,0.24325
6171.98498,0.24306
6170.05624,0.24323
6168.12749,0.24395
6166.19875,0.24477
6164.27000,0.24536
6162.34126,0.24576
6160.41251,0.24602
6158.48377,0.24626
6156.55502,0.24702
6154.62628,0.24800
6152.69753,0.24846
6150.76878,0.24936
6148.84004,0.25117
6146.91129,0.25235
6144.98255,0.25191
6143.05380,0.25068
6141.12506,0.25062
6139.19631,0.25208
6137.26757,0.25360
6135.33882,0.25469
6133.41008,0.25478
6131.48133,0.25285
6129.55259,0.25057
6127.62384,0.25032
6125.69510,0.25143
6123.76635,0.25226
6121.83761,0.25299
6119.90886,0.25426
6117.98011,0.25475
6116.05137,0.25308
6114.12262,0.25072
6112.19388,0.24973
6110.26513,0.25001
6108.33639,0.25005
6106.40764,0.25001
6104.47890,0.25122
6102.55015,0.25301
6100.62141,0.25375
6098.69266,0.25291
6096.76392,0.25142
6094.83517,0.25019
6092.90643,0.24901
6090.97768,0.24877
6089.04893,0.24952
6087.12019,0.24925
6085.19144,0.24768
6083.26270,0.24620
6081.33395,0.24549
6079.40521,0.24496
6077.47646,0.24342
6075.54772,0.24110
6073.61897,0.23938
6071.69023,0.23902
6069.76148,0.23888
6067.83274,0.23719
6065.90399,0.23442
6063.97525,0.23301
6062.04650,0.23308
6060.11776,0.23150
6058.18901,0.22764
6056.26026,0.22415
6054.33152,0.22186
6052.40277,0.22001
6050.47403,0.21807
6048.54528,0.21499
6046.61654,0.21154
6044.68779,0.20964
6042.75905,0.20787
6040.83030,0.20455
6038.90156,0.20088
6036.97281,0.19806
6035.04407,0.19629
6033.11532,0.19452
6031.18658,0.19157
6029.25783,0.18772
6027.32909,0.18345
6025.40034,0.17984
6023.47159,0.17778
6021.54285,0.17584
6019.61410,0.17296
6017.68536,0.17057
6015.75661,0.16972
6013.82787,0.16875
6011.89912,0.16616
6009.97038,0.16337
6008.04163,0.16194
6006.11289,0.16166
6004.18414,0.16187
6002.25540,0.16171
6000.32665,0.16044
5998.39791,0.15833
5996.46916,0.15651
5994.54041,0.15590
5992.61167,0.15565
5990.68292,0.15503
5988.75418,0.15452
5986.82543,0.15366
5984.89669,0.15227
5982.96794,0.15114
5981.03920,0.14986
5979.11045,0.14771
5977.18171,0.14553
5975.25296,0.14430
5973.32422,0.14307
5971.39547,0.14124
5969.46673,0.14010
5967.53798,0.13918
5965.60924,0.13669
5963.68049,0.13392
5961.75174,0.13292
5959.82300,0.13216
5957.89425,0.13039
5955.96551,0.13002
5954.03676,0.13192
5952.10802,0.13355
5950.17927,0.13326
5948.25053,0.13166
5946.32178,0.13082
5944.39304,0.13205
5942.46429,0.13378
5940.53555,0.13471
5938.60680,0.13570
5936.67806,0.13742
5934.74931,0.13983
5932.82057,0.14224
5930.89182,0.14350
5928.96307,0.14400
5927.03433,0.14488
5925.10558,0.14606
5923.17684,0.14754
5921.24809,0.14976
5919.31935,0.15182
5917.39060,0.15215
5915.46186,0.15144
5913.53311,0.15207
5911.60437,0.15419
5909.67562,0.15584
5907.74688,0.15624
5905.81813,0.15568
5903.88939,0.15432
5901.96064,0.15346
5900.03189,0.15398
5898.10315,0.15384
5896.17440,0.15216
5894.24566,0.15065
5892.31691,0.14989
5890.38817,0.14980
5888.45942,0.14990
5886.53068,0.14954
5884.60193,0.14925
5882.67319,0.14866
5880.74444,0.14698
5878.81570,0.14548
5876.88695,0.14552
5874.95821,0.14682
5873.02946,0.14822
5871.10072,0.14824
5869.17197,0.14670
5867.24322,0.14553
5865.31448,0.14590
5863.38573,0.14696
5861.45699,0.14817
5859.52824,0.14935
5857.59950,0.14990
5855.67075,0.15057
5853.74201,0.15244
5851.81326,0.15428
5849.88452,0.15427
5847.95577,0.15314
5846.02703,0.15295
5844.09828,0.15354
5842.16954,0.15335
5840.24079,0.15274
5838.31205,0.15245
5836.38330,0.15160
5834.45455,0.15038
5832.52581,0.15047
5830.59706,0.15152
5828.66832,0.15220
5826.73957,0.15226
5824.81083,0.15131
5822.88208,0.14984
5820.95334,0.14989
5819.02459,0.15143
5817.09585,0.15239
5815.16710,0.15224
5813.23836,0.15160
5811.30961,0.15074
5809.38087,0.15018
5807.45212,0.15066
5805.52337,0.15139
5803.59463,0.15143
5801.66588,0.15183
5799.73714,0.15320
5797.80839,0.15445
5795.87965,0.15473
5793.95090,0.15406
5792.02216,0.15354
5790.09341,0.15396
5788.16467,0.15492
5786.23592,0.15563
5784.30718,0.15596
5782.37843,0.15664
5780.44969,0.15718
5778.52094,0.15683
5776.59220,0.15688
5774.66345,0.15773
5772.73470,0.15820
5770.80596,0.15807
5768.87721,0.15796
5766.94847,0.15869
5765.01972,0.16016
5763.09098,0.16144
5761.16223,0.16243
5759.23349,0.16337
5757.30474,0.16403
5755.37600,0.16414
5753.44725,0.16381
5751.51851,0.16344
5749.58976,0.16389
5747.66102,0.16597
5745.73227,0.16873
5743.80352,0.17077
5741.87478,0.17188
5739.94603,0.17236
5738.01729,0.17299
5736.08854,0.17425
5734.15980,0.17568
5732.23105,0.17628
5730.30231,0.17532
5728.37356,0.17373
5726.44482,0.17316
5724.51607,0.17408
5722.58733,0.17581
5720.65858,0.17741
5718.72984,0.17872
5716.80109,0.18018
5714.87235,0.18108
5712.94360,0.18064
5711.01485,0.17966
5709.08611,0.17966
5707.15736,0.18110
5705.22862,0.18309
5703.29987,0.18525
5701.37113,0.18726
5699.44238,0.18783
5697.51364,0.18720
5695.58489,0.18697
5693.65615,0.18784
5691.72740,0.18947
5689.79866,0.19094
5687.86991,0.19137
5685.94117,0.19110
5684.01242,0.19097
5682.08368,0.19094
5680.15493,0.19119
5678.22618,0.19193
5676.29744,0.19254
5674.36869,0.19258
5672.43995,0.19233
5670.51120,0.19233
5668.58246,0.19251
5666.65371,0.19273
5664.72497,0.19310
5662.79622,0.19359
5660.86748,0.19507
5658.93873,0.19701
5657.00999,0.19731
5655.08124,0.19635
5653.15250,0.19533
5651.22375,0.19414
5649.29500,0.19290
5647.36626,0.19176
5645.43751,0.19091
5643.50877,0.19065
5641.58002,0.19048
5639.65128,0.18963
5637.72253,0.18838
5635.79379,0.18779
5633.86504,0.18758
5631.93630,0.18671
5630.00755,0.18585
5628.07881,0.18560
5626.15006,0.18498
5624.22132,0.18408
5622.29257,0.18340
5620.36383,0.18199
5618.43508,0.17989
5616.50633,0.17858
5614.57759,0.17834
5612.64884,0.17818
5610.72010,0.17799
5608.79135,0.17823
5606.86261,0.17787
5604.93386,0.17644
5603.00512,0.17588
5601.07637,0.17665
5599.14763,0.17685
5597.21888,0.17591
5595.29014,0.17512
5593.36139,0.17545
5591.43265,0.17631
5589.50390,0.17644
5587.57516,0.17583
5585.64641,0.17539
5583.71766,0.17565
5581.78892,0.17638
5579.86017,0.17719
5577.93143,0.17808
5576.00268,0.17854
5574.07394,0.17844
5572.14519,0.17870
5570.21645,0.17955
5568.28770,0.18000
5566.35896,0.17951
5564.43021,0.17887
5562.50147,0.17880
5560.57272,0.17944
5558.64398,0.18069
5556.71523,0.18171
5554.78648,0.18205
5552.85774,0.18245
5550.92899,0.18314
5549.00025,0.18368
5547.07150,0.18401
5545.14276,0.18418
5543.21401,0.18418
5541.28527,0.18381
5539.35652,0.18306
5537.42778,0.18285
5535.49903,0.18363
5533.57029,0.18439
5531.64154,0.18425
5529.71280,0.18375
5527.78405,0.18415
5525.85531,0.18531
5523.92656,0.18563
5521.99781,0.18482
5520.06907,0.18403
5518.14032,0.18354
5516.21158,0.18248
5514.28283,0.18063
5512.35409,0.17912
5510.42534,0.17879
5508.49660,0.17942
5506.56785,0.17988
5504.63911,0.17892
5502.71036,0.17700
5500.78162,0.17544
5498.85287,0.17463
5496.92413,0.17445
5494.99538,0.17445
5493.06664,0.17441
5491.13789,0.17417
5489.20914,0.17339
5487.28040,0.17230
5485.35165,0.17144
5483.42291,0.17106
5481.49416,0.17113
5479.56542,0.17128
5477.63667,0.17106
5475.70793,0.17082
5473.77918,0.17123
5471.85044,0.17141
5469.92169,0.17057
5467.99295,0.16977
5466.06420,0.17002
5464.13546,0.17074
5462.20671,0.17070
5460.27796,0.16981
5458.34922,0.16901
5456.42047,0.16863
5454.49173,0.16865
5452.56298,0.16938
5450.63424,0.17029
5448.70549,0.17053
5446.77675,0.17011
5444.84800,0.16958
5442.91926,0.16970
5440.99051,0.17042
5439.06177,0.17070
5437.13302,0.17016
5435.20428,0.16912
5433.27553,0.16799
5431.34679,0.16724
5429.41804,0.16706
5427.48929,0.16687
5425.56055,0.16592
5423.63180,0.16471
5421.70306,0.16418
5419.77431,0.16413
5417.84557,0.16408
5415.91682,0.16424
5413.98808,0.16434
5412.05933,0.16371
5410.13059,0.16299
5408.20184,0.16278
5406.27310,0.16232
5404.34435,0.16129
5402.41561,0.16015
5400.48686,0.15897
5398.55811,0.15801
5396.62937,0.15792
5394.70062,0.15847
5392.77188,0.15853
5390.84313,0.15773
5388.91439,0.15695
5386.98564,0.15662
5385.05690,0.15638
5383.12815,0.15676
5381.19941,0.15786
5379.27066,0.15836
5377.34192,0.15820
5375.41317,0.15821
5373.48443,0.15828
5371.55568,0.15842
5369.62694,0.15897
5367.69819,0.15971
5365.76944,0.16034
5363.84070,0.16109
5361.91195,0.16177
5359.98321,0.16155
5358.05446,0.16049
5356.12572,0.15956
5354.19697,0.15904
5352.26823,0.15877
5350.33948,0.15894
5348.41074,0.15923
5346.48199,0.15933
5344.55325,0.15956
5342.62450,0.15991
5340.69576,0.15979
5338.76701,0.15906
5336.83827,0.15838
5334.90952,0.15811
5332.98077,0.15791
5331.05203,0.15731
5329.12328,0.15610
5327.19454,0.15496
5325.26579,0.15433
5323.33705,0.15338
5321.40830,0.15220
5319.47956,0.15171
5317.55081,0.15151
5315.62207,0.15125
5313.69332,0.15120
5311.76458,0.15071
5309.83583,0.14954
5307.90709,0.14806
5305.97834,0.14638
5304.04959,0.14520
5302.12085,0.14465
5300.19210,0.14407
5298.26336,0.14347
5296.33461,0.14233
5294.40587,0.14051
5292.47712,0.13905
5290.54838,0.13786
5288.61963,0.13627
5286.69089,0.13457
5284.76214,0.13299
5282.83340,0.13160
5280.90465,0.13047
5278.97591,0.12940
5277.04716,0.12825
5275.11842,0.12726
5273.18967,0.12660
5271.26092,0.12570
5269.33218,0.12449
5267.40343,0.12362
5265.47469,0.12295
5263.54594,0.12155
5261.61720,0.11954
5259.68845,0.11812
5257.75971,0.11735
5255.83096,0.11669
5253.90222,0.11608
5251.97347,0.11559
5250.04473,0.11531
5248.11598,0.11506
5246.18724,0.11497
5244.25849,0.11536
5242.32975,0.11547
5240.40100,0.11495
5238.47225,0.11456
5236.54351,0.11450
5234.61476,0.11481
5232.68602,0.11558
5230.75727,0.11655
5228.82853,0.11738
5226.89978,0.11797
5224.97104,0.11844
5223.04229,0.11898
5221.11355,0.11982
5219.18480,0.12092
5217.25606,0.12169
5215.32731,0.12203
5213.39857,0.12266
5211.46982,0.12380
5209.54107,0.12487
5207.61233,0.12534
5205.68358,0.12561
5203.75484,0.12599
5201.82609,0.12614
5199.89735,0.12631
5197.96860,0.12679
5196.03986,0.12712
5194.11111,0.12705
5192.18237,0.12706
5190.25362,0.12783
5188.32488,0.12918
5186.39613,0.13024
5184.46739,0.13041
5182.53864,0.12994
5180.60990,0.12951
5178.68115,0.12937
5176.75240,0.12966
5174.82366,0.13006
5172.89491,0.12974
5170.96617,0.12886
5169.03742,0.12807
5167.10868,0.12802
5165.17993,0.12864
5163.25119,0.12872
5161.32244,0.12814
5159.39370,0.12797
5157.46495,0.12800
5155.53621,0.12728
5153.60746,0.12601
5151.67872,0.12495
5149.74997,0.12438
5147.82123,0.12418
5145.89248,0.12389
5143.96373,0.12337
5142.03499,0.12300
5140.10624,0.12284
5138.17750,0.12276
5136.24875,0.12290
5134.32001,0.12310
5132.39126,0.12275
5130.46252,0.12213
5128.53377,0.12208
5126.60503,0.12217
5124.67628,0.12173
5122.74754,0.12140
5120.81879,0.12166
5118.89005,0.12208
5116.96130,0.12226
5115.03255,0.12232
5113.10381,0.12257
5111.17506,0.12284
5109.24632,0.12277
5107.31757,0.12278
5105.38883,0.12342
5103.46008,0.12441
5101.53134,0.12511
5099.60259,0.12538
5097.67385,0.12552
5095.74510,0.12553
5093.81636,0.12532
5091.88761,0.12498
5089.95887,0.12457
5088.03012,0.12435
5086.10138,0.12493
5084.17263,0.12607
5082.24388,0.12676
5080.31514,0.12693
5078.38639,0.12688
5076.45765,0.12633
5074.52890,0.12559
5072.60016,0.12561
5070.67141,0.12621
5068.74267,0.12646
5066.81392,0.12625
5064.88518,0.12604
5062.95643,0.12590
5061.02769,0.12570
5059.09894,0.12554
5057.17020,0.12570
5055.24145,0.12621
5053.31270,0.12658
5051.38396,0.12656
5049.45521,0.12640
5047.52647,0.12597
5045.59772,0.12498
5043.66898,0.12411
5041.74023,0.12404
5039.81149,0.12428
5037.88274,0.12407
5035.95400,0.12354
5034.02525,0.12296
5032.09651,0.12245
5030.16776,0.12234
5028.23902,0.12241
5026.31027,0.12196
5024.38153,0.12096
5022.45278,0.12015
5020.52403,0.12005
5018.59529,0.12049
5016.66654,0.12103
5014.73780,0.12121
5012.80905,0.12083
5010.88031,0.12031
5008.95156,0.11992
5007.02282,0.11955
5005.09407,0.11918
5003.16533,0.11877
5001.23658,0.11859
4999.30784,0.11882
4997.37909,0.11884
4995.45035,0.11835
4993.52160,0.11799
4991.59286,0.11799
4989.66411,0.11781
4987.73536,0.11739
4985.80662,0.11721
4983.87787,0.11705
4981.94913,0.11683
4980.02038,0.11699
4978.09164,0.11712
4976.16289,0.11678
4974.23415,0.11623
4972.30540,0.11544
4970.37666,0.11429
4968.44791,0.11338
4966.51917,0.11308
4964.59042,0.11295
4962.66168,0.11279
4960.73293,0.11285
4958.80418,0.11321
4956.87544,0.11344
4954.94669,0.11304
4953.01795,0.11235
4951.08920,0.11223
4949.16046,0.11272
4947.23171,0.11290
4945.30297,0.11261
4943.37422,0.11242
4941.44548,0.11209
4939.51673,0.11144
4937.58799,0.11095
4935.65924,0.11096
4933.73050,0.11099
4931.80175,0.11029
4929.87301,0.10935
4927.94426,0.10911
4926.01551,0.10925
4924.08677,0.10918
4922.15802,0.10912
4920.22928,0.10908
4918.30053,0.10881
4916.37179,0.10843
4914.44304,0.10827
4912.51430,0.10832
4910.58555,0.10811
4908.65681,0.10764
4906.72806,0.10743
4904.79932,0.10748
4902.87057,0.10773
4900.94183,0.10794
4899.01308,0.10721
4897.08434,0.10593
4895.15559,0.10561
4893.22684,0.10609
4891.29810,0.10618
4889.36935,0.10573
4887.44061,0.10537
4885.51186,0.10536
4883.58312,0.10527
4881.65437,0.10495
4879.72563,0.10493
4877.79688,0.10525
4875.86814,0.10532
4873.93939,0.10496
4872.01065,0.10448
4870.08190,0.10392
4868.15316,0.10327
4866.22441,0.10303
4864.29566,0.10341
4862.36692,0.10380
4860.43817,0.10389
4858.50943,0.10368
4856.58068,0.10317
4854.65194,0.10288
4852.72319,0.10310
4850.79445,0.10311
4848.86570,0.10238
4846.93696,0.10117
4845.00821,0.10023
4843.07947,0.10014
4841.15072,0.10050
4839.22198,0.10090
4837.29323,0.10133
4835.36449,0.10122
4833.43574,0.10052
4831.50699,0.10038
4829.57825,0.10092
4827.64950,0.10103
4825.72076,0.10050
4823.79201,0.09982
4821.86327,0.09917
4819.93452,0.09849
4818.00578,0.09800
4816.07703,0.09802
4814.14829,0.09835
4812.21954,0.09835
4810.29080,0.09791
4808.36205,0.09745
4806.43331,0.09741
4804.50456,0.09778
4802.57582,0.09789
4800.64707,0.09753
4798.71832,0.09704
4796.78958,0.09653
4794.86083,0.09614
4792.93209,0.09603
4791.00334,0.09577
4789.07460,0.09512
4787.14585,0.09442
4785.21711,0.09373
4783.28836,0.09317
4781.35962,0.09316
4779.43087,0.09337
4777.50213,0.09328
4775.57338,0.09317
4773.64464,0.09293
4771.71589,0.09220
4769.78714,0.09145
4767.85840,0.09088
4765.92965,0.09018
4764.00091,0.08962
4762.07216,0.08950
4760.14342,0.08957
4758.21467,0.08931
4756.28593,0.08858
4754.35718,0.08769
4752.42844,0.08682
4750.49969,0.08601
4748.57095,0.08536
4746.64220,0.08495
4744.71346,0.08489
4742.78471,0.08502
4740.85597,0.08491
4738.92722,0.08429
4736.99847,0.08360
4735.06973,0.08360
4733.14098,0.08403
4731.21224,0.08384
4729.28349,0.08301
4727.35475,0.08243
4725.42600,0.08246
4723.49726,0.08255
4721.56851,0.08231
4719.63977,0.08202
4717.71102,0.08152
4715.78228,0.08061
4713.85353,0.07985
4711.92479,0.07957
4709.99604,0.07966
4708.06729,0.07990
4706.13855,0.07984
4704.20980,0.07927
4702.28106,0.07846
4700.35231,0.07771
4698.42357,0.07710
4696.49482,0.07642
4694.56608,0.07571
4692.63733,0.07501
4690.70859,0.07420
4688.77984,0.07375
4686.85110,0.07385
4684.92235,0.07398
4682.99361,0.07422
4681.06486,0.07467
4679.13612,0.07461
4677.20737,0.07389
4675.27862,0.07347
4673.34988,0.07387
4671.42113,0.07454
4669.49239,0.07479
4667.56364,0.07463
4665.63490,0.07442
4663.70615,0.07451
4661.77741,0.07488
4659.84866,0.07524
4657.91992,0.07525
4655.99117,0.07461
4654.06243,0.07379
4652.13368,0.07365
4650.20494,0.07406
4648.27619,0.07422
4646.34745,0.07376
4644.41870,0.07289
4642.48995,0.07203
4640.56121,0.07147
4638.63246,0.07112
4636.70372,0.07076
4634.77497,0.07040
4632.84623,0.06996
4630.91748,0.06968
4628.98874,0.06975
4627.05999,0.06976
4625.13125,0.06966
4623.20250,0.06971
4621.27376,0.06965
4619.34501,0.06928
4617.41627,0.06878
4615.48752,0.06838
4613.55877,0.06834
4611.63003,0.06841
4609.70128,0.06804
4607.77254,0.06743
4605.84379,0.06695
4603.91505,0.06640
4601.98630,0.06564
4600.05756,0.06496
4598.12881,0.06473
4596.20007,0.06479
4594.27132,0.06465
4592.34258,0.06435
4590.41383,0.06408
4588.48509,0.06388
4586.55634,0.06377
4584.62760,0.06344
4582.69885,0.06292
4580.77010,0.06267
4578.84136,0.06271
4576.91261,0.06265
4574.98387,0.06243
4573.05512,0.06231
4571.12638,0.06235
4569.19763,0.06240
4567.26889,0.06263
4565.34014,0.06297
4563.41140,0.06304
4561.48265,0.06290
4559.55391,0.06271
4557.62516,0.06243
4555.69642,0.06214
4553.76767,0.06196
4551.83893,0.06167
4549.91018,0.06097
4547.98143,0.06026
4546.05269,0.06006
4544.12394,0.05990
4542.19520,0.05913
4540.26645,0.05842
4538.33771,0.05847
4536.40896,0.05880
4534.48022,0.05885
4532.55147,0.05868
4530.62273,0.05852
4528.69398,0.05833
4526.76524,0.05808
4524.83649,0.05800
4522.90775,0.05816
4520.97900,0.05824
4519.05025,0.05815
4517.12151,0.05806
4515.19276,0.05784
4513.26402,0.05749
4511.33527,0.05725
4509.40653,0.05704
4507.47778,0.05689
4505.54904,0.05680
4503.62029,0.05641
4501.69155,0.05607
4499.76280,0.05625
4497.83406,0.05657
4495.90531,0.05664
4493.97657,0.05644
4492.04782,0.05611
4490.11908,0.05601
4488.19033,0.05598
4486.26158,0.05570
4484.33284,0.05561
4482.40409,0.05578
4480.47535,0.05552
4478.54660,0.05505
4476.61786,0.05501
4474.68911,0.05502
4472.76037,0.05459
4470.83162,0.05424
4468.90288,0.05440
4466.97413,0.05467
4465.04539,0.05481
4463.11664,0.05470
4461.18790,0.05453
4459.25915,0.05464
4457.33041,0.05467
4455.40166,0.05430
4453.47291,0.05385
4451.54417,0.05363
4449.61542,0.05366
4447.68668,0.05378
4445.75793,0.05386
4443.82919,0.05388
4441.90044,0.05370
4439.97170,0.05341
4438.04295,0.05319
4436.11421,0.05287
4434.18546,0.05257
4432.25672,0.05291
4430.32797,0.05365
4428.39923,0.05386
4426.47048,0.05352
4424.54173,0.05343
4422.61299,0.05381
4420.68424,0.05419
4418.75550,0.05420
4416.82675,0.05399
4414.89801,0.05373
4412.96926,0.05330
4411.04052,0.05290
4409.11177,0.05290
4407.18303,0.05330
4405.25428,0.05375
4403.32554,0.05401
4401.39679,0.05409
4399.46805,0.05400
4397.53930,0.05378
4395.61056,0.05359
4393.68181,0.05356
4391.75306,0.05362
4389.82432,0.05359
4387.89557,0.05336
4385.96683,0.05312
4384.03808,0.05318
4382.10934,0.05348
4380.18059,0.05358
4378.25185,0.05356
4376.32310,0.05384
4374.39436,0.05417
4372.46561,0.05413
4370.53687,0.05407
4368.60812,0.05414
4366.67938,0.05418
4364.75063,0.05436
4362.82189,0.05449
4360.89314,0.05434
4358.96439,0.05420
4357.03565,0.05425
4355.10690,0.05420
4353.17816,0.05409
4351.24941,0.05410
4349.32067,0.05417
4347.39192,0.05437
4345.46318,0.05448
4343.53443,0.05434
4341.60569,0.05448
4339.67694,0.05493
4337.74820,0.05504
4335.81945,0.05468
4333.89071,0.05424
4331.96196,0.05418
4330.03321,0.05454
4328.10447,0.05491
4326.17572,0.05502
4324.24698,0.05495
4322.31823,0.05477
4320.38949,0.05457
4318.46074,0.05451
4316.53200,0.05456
4314.60325,0.05448
4312.67451,0.05436
4310.74576,0.05443
4308.81702,0.05469
4306.88827,0.05492
4304.95953,0.05498
4303.03078,0.05491
4301.10204,0.05489
4299.17329,0.05506
4297.24454,0.05523
4295.31580,0.05505
4293.38705,0.05466
4291.45831,0.05455
4289.52956,0.05480
4287.60082,0.05513
4285.67207,0.05542
4283.74333,0.05567
4281.81458,0.05580
4279.88584,0.05566
4277.95709,0.05540
4276.02835,0.05517
4274.09960,0.05494
4272.17086,0.05486
4270.24211,0.05494
4268.31336,0.05498
4266.38462,0.05500
4264.45587,0.05503
4262.52713,0.05507
4260.59838,0.05489
4258.66964,0.05441
4256.74089,0.05405
4254.81215,0.05418
4252.88340,0.05464
4250.95466,0.05483
4249.02591,0.05470
4247.09717,0.05464
4245.16842,0.05475
4243.23968,0.05494
4241.31093,0.05501
4239.38219,0.05484
4237.45344,0.05452
4235.52469,0.05420
4233.59595,0.05393
4231.66720,0.05367
4229.73846,0.05363
4227.80971,0.05395
4225.88097,0.05428
4223.95222,0.05442
4222.02348,0.05450
4220.09473,0.05446
4218.16599,0.05415
4216.23724,0.05387
4214.30850,0.05386
4212.37975,0.05376
4210.45101,0.05340
4208.52226,0.05320
4206.59352,0.05337
4204.66477,0.05372
4202.73602,0.05417
4200.80728,0.05441
4198.87853,0.05425
4196.94979,0.05409
4195.02104,0.05407
4193.09230,0.05399
4191.16355,0.05392
4189.23481,0.05411
4187.30606,0.05444
4185.37732,0.05455
4183.44857,0.05449
4181.51983,0.05450
4179.59108,0.05440
4177.66234,0.05405
4175.73359,0.05384
4173.80484,0.05421
4171.87610,0.05478
4169.94735,0.05499
4168.01861,0.05495
4166.08986,0.05476
4164.16112,0.05443
4162.23237,0.05432
4160.30363,0.05441
4158.37488,0.05439
4156.44614,0.05428
4154.51739,0.05424
4152.58865,0.05421
4150.65990,0.05412
4148.73116,0.05412
4146.80241,0.05424
4144.87367,0.05431
4142.94492,0.05437
4141.01617,0.05447
4139.08743,0.05448
4137.15868,0.05444
4135.22994,0.05452
4133.30119,0.05462
4131.37245,0.05468
4129.44370,0.05484
4127.51496,0.05487
4125.58621,0.05462
4123.65747,0.05451
4121.72872,0.05474
4119.79998,0.05489
4117.87123,0.05476
4115.94249,0.05454
4114.01374,0.05453
4112.08500,0.05474
4110.15625,0.05482
4108.22750,0.05472
4106.29876,0.05468
4104.37001,0.05465
4102.44127,0.05458
4100.51252,0.05455
4098.58378,0.05451
4096.65503,0.05445
4094.72629,0.05451
4092.79754,0.05462
4090.86880,0.05465
4088.94005,0.05484
4087.01131,0.05534
4085.08256,0.05576
4083.15382,0.05577
4081.22507,0.05557
4079.29632,0.05540
4077.36758,0.05538
4075.43883,0.05540
4073.51009,0.05524
4071.58134,0.05511
4069.65260,0.05524
4067.72385,0.05521
4065.79511,0.05510
4063.86636,0.05527
4061.93762,0.05533
4060.00887,0.05515
4058.08013,0.05508
4056.15138,0.05498
4054.22264,0.05495
4052.29389,0.05519
4050.36515,0.05541
4048.43640,0.05551
4046.50765,0.05575
4044.57891,0.05602
4042.65016,0.05589
4040.72142,0.05550
4038.79267,0.05534
4036.86393,0.05539
4034.93518,0.05522
4033.00644,0.05487
4031.07769,0.05469
4029.14895,0.05481
4027.22020,0.05506
4025.29146,0.05517
4023.36271,0.05505
4021.43397,0.05484
4019.50522,0.05477
4017.57648,0.05489
4015.64773,0.05503
4013.71898,0.05512
4011.79024,0.05517
4009.86149,0.05522
4007.93275,0.05512
4006.00400,0.05473
4004.07526,0.05445
4002.14651,0.05460
4000.21777,0.05482
3998.28902,0.05494
3996.36028,0.05508
3994.43153,0.05514
3992.50279,0.05503
3990.57404,0.05475
3988.64530,0.05454
3986.71655,0.05465
3984.78780,0.05489
3982.85906,0.05506
3980.93031,0.05510
3979.00157,0.05496
3977.07282,0.05458
3975.14408,0.05428
3973.21533,0.05453
3971.28659,0.05502
3969.35784,0.05507
3967.42910,0.05488
3965.50035,0.05490
3963.57161,0.05492
3961.64286,0.05484
3959.71412,0.05489
3957.78537,0.05506
3955.85663,0.05521
3953.92788,0.05517
3951.99913,0.05496
3950.07039,0.05482
3948.14164,0.05473
3946.21290,0.05468
3944.28415,0.05484
3942.35541,0.05495
3940.42666,0.05480
3938.49792,0.05465
3936.56917,0.05453
3934.64043,0.05443
3932.71168,0.05450
3930.78294,0.05465
3928.85419,0.05463
3926.92545,0.05447
3924.99670,0.05445
3923.06795,0.05466
3921.13921,0.05486
3919.21046,0.05475
3917.28172,0.05449
3915.35297,0.05445
3913.42423,0.05445
3911.49548,0.05428
3909.56674,0.05409
3907.63799,0.05395
3905.70925,0.05369
3903.78050,0.05343
3901.85176,0.05359
3899.92301,0.05397
3897.99427,0.05425
3896.06552,0.05463
3894.13678,0.05504
3892.20803,0.05496
3890.27928,0.05431
3888.35054,0.05379
3886.42179,0.05364
3884.49305,0.05381
3882.56430,0.05436
3880.63556,0.05490
3878.70681,0.05491
3876.77807,0.05460
3874.84932,0.05432
3872.92058,0.05408
3870.99183,0.05372
3869.06309,0.05341
3867.13434,0.05362
3865.20560,0.05416
3863.27685,0.05436
3861.34811,0.05421
3859.41936,0.05417
3857.49061,0.05430
3855.56187,0.05443
3853.63312,0.05438
3851.70438,0.05403
3849.77563,0.05387
3847.84689,0.05405
3845.91814,0.05419
3843.98940,0.05419
3842.06065,0.05429
3840.13191,0.05424
3838.20316,0.05389
3836.27442,0.05383
3834.34567,0.05412
3832.41693,0.05421
3830.48818,0.05409
3828.55943,0.05401
3826.63069,0.05407
3824.70194,0.05438
3822.77320,0.05453
3820.84445,0.05404
3818.91571,0.05363
3816.98696,0.05386
3815.05822,0.05425
3813.12947,0.05444
3811.20073,0.05449
3809.27198,0.05474
3807.34324,0.05523
3805.41449,0.05535
3803.48575,0.05482
3801.55700,0.05411
3799.62826,0.05403
3797.69951,0.05457
3795.77076,0.05497
3793.84202,0.05490
3791.91327,0.05458
3789.98453,0.05430
3788.05578,0.05410
3786.12704,0.05396
3784.19829,0.05401
3782.26955,0.05411
3780.34080,0.05399
3778.41206,0.05381
3776.48331,0.05383
3774.55457,0.05388
3772.62582,0.05371
3770.69708,0.05358
3768.76833,0.05387
3766.83959,0.05412
3764.91084,0.05392
3762.98209,0.05385
3761.05335,0.05414
3759.12460,0.05436
3757.19586,0.05428
3755.26711,0.05400
3753.33837,0.05370
3751.40962,0.05339
3749.48088,0.05320
3747.55213,0.05336
3745.62339,0.05327
3743.69464,0.05283
3741.76590,0.05293
3739.83715,0.05342
3737.90841,0.05374
3735.97966,0.05374
3734.05091,0.05360
3732.12217,0.05361
3730.19342,0.05379
3728.26468,0.05383
3726.33593,0.05370
3724.40719,0.05366
3722.47844,0.05379
3720.54970,0.05389
3718.62095,0.05383
3716.69221,0.05361
3714.76346,0.05344
3712.83472,0.05345
3710.90597,0.05352
3708.97723,0.05351
3707.04848,0.05328
3705.11974,0.05295
3703.19099,0.05279
3701.26224,0.05283
3699.33350,0.05294
3697.40475,0.05301
3695.47601,0.05315
3693.54726,0.05344
3691.61852,0.05358
3689.68977,0.05334
3687.76103,0.05306
3685.83228,0.05302
3683.90354,0.05309
3681.97479,0.05322
3680.04605,0.05335
3678.11730,0.05329
3676.18856,0.05294
3674.25981,0.05265
3672.33107,0.05265
3670.40232,0.05289
3668.47357,0.05315
3666.54483,0.05316
3664.61608,0.05295
3662.68734,0.05269
3660.75859,0.05251
3658.82985,0.05258
3656.90110,0.05273
3654.97236,0.05264
3653.04361,0.05254
3651.11487,0.05256
3649.18612,0.05242
3647.25738,0.05232
3645.32863,0.05255
3643.39989,0.05273
3641.47114,0.05258
3639.54239,0.05259
3637.61365,0.05295
3635.68490,0.05315
3633.75616,0.05323
3631.82741,0.05372
3629.89867,0.05462
3627.96992,0.05553
3626.04118,0.05628
3624.11243,0.05682
3622.18369,0.05686
3620.25494,0.05620
3618.32620,0.05519
3616.39745,0.05446
3614.46871,0.05415
3612.53996,0.05411
3610.61122,0.05418
3608.68247,0.05400
3606.75372,0.05360
3604.82498,0.05336
3602.89623,0.05340
3600.96749,0.05353
3599.03874,0.05339
3597.11000,0.05282
3595.18125,0.05236
3593.25251,0.05258
3591.32376,0.05308
3589.39502,0.05308
3587.46627,0.05281
3585.53753,0.05287
3583.60878,0.05300
3581.68004,0.05293
3579.75129,0.05290
3577.82254,0.05301
3575.89380,0.05301
3573.96505,0.05294
3572.03631,0.05307
3570.10756,0.05317
3568.17882,0.05306
3566.25007,0.05296
3564.32133,0.05308
3562.39258,0.05339
3560.46384,0.05378
3558.53509,0.05397
3556.60635,0.05377
3554.67760,0.05355
3552.74886,0.05364
3550.82011,0.05377
3548.89137,0.05384
3546.96262,0.05423
3545.03387,0.05502
3543.10513,0.05587
3541.17638,0.05683
3539.24764,0.05812
3537.31889,0.05974
3535.39015,0.06160
3533.46140,0.06346
3531.53266,0.06481
3529.60391,0.06529
3527.67517,0.06481
3525.74642,0.06335
3523.81768,0.06123
3521.88893,0.05951
3519.96019,0.05874
3518.03144,0.05841
3516.10270,0.05812
3514.17395,0.05791
3512.24520,0.05785
3510.31646,0.05794
3508.38771,0.05820
3506.45897,0.05847
3504.53022,0.05876
3502.60148,0.05945
3500.67273,0.06048
3498.74399,0.06141
3496.81524,0.06219
3494.88650,0.06301
3492.95775,0.06390
3491.02901,0.06490
3489.10026,0.06611
3487.17152,0.06734
3485.24277,0.06838
3483.31402,0.06928
3481.38528,0.07005
3479.45653,0.07076
3477.52779,0.07157
3475.59904,0.07231
3473.67030,0.07269
3471.74155,0.07294
3469.81281,0.07325
3467.88406,0.07342
3465.95532,0.07332
3464.02657,0.07312
3462.09783,0.07290
3460.16908,0.07263
3458.24034,0.07219
3456.31159,0.07167
3454.38285,0.07126
3452.45410,0.07076
3450.52535,0.06987
3448.59661,0.06868
3446.66786,0.06748
3444.73912,0.06646
3442.81037,0.06568
3440.88163,0.06506
3438.95288,0.06426
3437.02414,0.06302
3435.09539,0.06160
3433.16665,0.06041
3431.23790,0.05933
3429.30916,0.05818
3427.38041,0.05716
3425.45167,0.05645
3423.52292,0.05593
3421.59418,0.05536
3419.66543,0.05473
3417.73668,0.05432
3415.80794,0.05421
3413.87919,0.05410
3411.95045,0.05375
3410.02170,0.05314
3408.09296,0.05253
3406.16421,0.05220
3404.23547,0.05234
3402.30672,0.05307
3400.37798,0.05391
3398.44923,0.05435
3396.52049,0.05478
3394.59174,0.05525
3392.66300,0.05529
3390.73425,0.05497
3388.80550,0.05459
3386.87676,0.05432
3384.94801,0.05451
3383.01927,0.05523
3381.09052,0.05601
3379.16178,0.05637
3377.23303,0.05632
3375.30429,0.05613
3373.37554,0.05600
3371.44680,0.05595
3369.51805,0.05592
3367.58931,0.05568
3365.66056,0.05517
3363.73182,0.05480
3361.80307,0.05473
3359.87433,0.05465
3357.94558,0.05441
3356.01683,0.05411
3354.08809,0.05390
3352.15934,0.05392
3350.23060,0.05420
3348.30185,0.05467
3346.37311,0.05505
3344.44436,0.05503
3342.51562,0.05473
3340.58687,0.05427
3338.65813,0.05383
3336.72938,0.05382
3334.80064,0.05413
3332.87189,0.05416
3330.94315,0.05394
3329.01440,0.05395
3327.08566,0.05412
3325.15691,0.05400
3323.22816,0.05364
3321.29942,0.05342
3319.37067,0.05350
3317.44193,0.05367
3315.51318,0.05367
3313.58444,0.05351
3311.65569,0.05342
3309.72695,0.05351
3307.79820,0.05357
3305.86946,0.05354
3303.94071,0.05345
3302.01197,0.05315
3300.08322,0.05286
3298.15448,0.05301
3296.22573,0.05343
3294.29698,0.05377
3292.36824,0.05381
3290.43949,0.05357
3288.51075,0.05349
3286.58200,0.05359
3284.65326,0.05346
3282.72451,0.05307
3280.79577,0.05282
3278.86702,0.05286
3276.93828,0.05299
3275.00953,0.05296
3273.08079,0.05279
3271.15204,0.05255
3269.22330,0.05231
3267.29455,0.05249
3265.36581,0.05307
3263.43706,0.05341
3261.50831,0.05338
3259.57957,0.05326
3257.65082,0.05313
3255.72208,0.05309
3253.79333,0.05324
3251.86459,0.05336
3249.93584,0.05334
3248.00710,0.05336
3246.07835,0.05344
3244.14961,0.05339
3242.22086,0.05313
3240.29212,0.05288
3238.36337,0.05289
3236.43463,0.05304
3234.50588,0.05317
3232.57713,0.05329
3230.64839,0.05343
3228.71964,0.05355
3226.79090,0.05356
3224.86215,0.05329
3222.93341,0.05276
3221.00466,0.05237
3219.07592,0.05241
3217.14717,0.05281
3215.21843,0.05324
3213.28968,0.05336
3211.36094,0.05322
3209.43219,0.05291
3207.50345,0.05263
3205.57470,0.05269
3203.64596,0.05301
3201.71721,0.05347
3199.78846,0.05400
3197.85972,0.05405
3195.93097,0.05356
3194.00223,0.05324
3192.07348,0.05342
3190.14474,0.05374
3188.21599,0.05380
3186.28725,0.05372
3184.35850,0.05374
3182.42976,0.05362
3180.50101,0.05329
3178.57227,0.05318
3176.64352,0.05339
3174.71478,0.05363
3172.78603,0.05375
3170.85729,0.05366
3168.92854,0.05345
3166.99979,0.05345
3165.07105,0.05361
3163.14230,0.05360
3161.21356,0.05347
3159.28481,0.05359
3157.35607,0.05386
3155.42732,0.05395
3153.49858,0.05391
3151.56983,0.05388
3149.64109,0.05381
3147.71234,0.05391
3145.78360,0.05429
3143.85485,0.05451
3141.92611,0.05419
3139.99736,0.05357
3138.06861,0.05318
3136.13987,0.05313
3134.21112,0.05327
3132.28238,0.05334
3130.35363,0.05311
3128.42489,0.05287
3126.49614,0.05302
3124.56740,0.05338
3122.63865,0.05362
3120.70991,0.05364
3118.78116,0.05347
3116.85242,0.05321
3114.92367,0.05306
3112.99493,0.05320
3111.06618,0.05344
3109.13744,0.05350
3107.20869,0.05345
3105.27994,0.05340
3103.35120,0.05334
3101.42245,0.05338
3099.49371,0.05344
3097.56496,0.05345
3095.63622,0.05327
3093.70747,0.05283
3091.77873,0.05254
3089.84998,0.05259
3087.92124,0.05270
3085.99249,0.05287
3084.06375,0.05317
3082.13500,0.05336
3080.20626,0.05332
3078.27751,0.05323
3076.34877,0.05314
3074.42002,0.05284
3072.49127,0.05243
3070.56253,0.05229
3068.63378,0.05240
3066.70504,0.05247
3064.77629,0.05226
3062.84755,0.05197
3060.91880,0.05195
3058.99006,0.05211
3057.06131,0.05208
3055.13257,0.05180
3053.20382,0.05158
3051.27508,0.05153
3049.34633,0.05132
3047.41759,0.05084
3045.48884,0.05038
3043.56009,0.05021
3041.63135,0.05028
3039.70260,0.05035
3037.77386,0.05014
3035.84511,0.04974
3033.91637,0.04951
3031.98762,0.04945
3030.05888,0.04938
3028.13013,0.04934
3026.20139,0.04934
3024.27264,0.04927
3022.34390,0.04918
3020.41515,0.04899
3018.48641,0.04859
3016.55766,0.04831
3014.62892,0.04835
3012.70017,0.04845
3010.77142,0.04844
3008.84268,0.04837
3006.91393,0.04823
3004.98519,0.04809
3003.05644,0.04812
3001.12770,0.04842
2999.19895,0.04885
2997.27021,0.04905
2995.34146,0.04900
2993.41272,0.04910
2991.48397,0.04940
2989.55523,0.04974
2987.62648,0.05004
2985.69774,0.05019
2983.76899,0.05011
2981.84025,0.05004
2979.91150,0.05009
2977.98275,0.04994
2976.05401,0.04955
2974.12526,0.04925
2972.19652,0.04915
2970.26777,0.04915
2968.33903,0.04919
2966.41028,0.04916
2964.48154,0.04892
2962.55279,0.04856
2960.62405,0.04836
2958.69530,0.04833
2956.76656,0.04843
2954.83781,0.04893
2952.90907,0.04982
2950.98032,0.05062
2949.05157,0.05117
2947.12283,0.05165
2945.19408,0.05207
2943.26534,0.05223
2941.33659,0.05227
2939.40785,0.05262
2937.47910,0.05304
2935.55036,0.05305
2933.62161,0.05290
2931.69287,0.05291
2929.76412,0.05315
2927.83538,0.05364
2925.90663,0.05416
2923.97789,0.05452
2922.04914,0.05475
2920.12040,0.05465
2918.19165,0.05442
2916.26290,0.05445
2914.33416,0.05445
2912.40541,0.05423
2910.47667,0.05397
2908.54792,0.05370
2906.61918,0.05355
2904.69043,0.05364
2902.76169,0.05369
2900.83294,0.05359
2898.90420,0.05348
2896.97545,0.05360
2895.04671,0.05382
2893.11796,0.05374
2891.18922,0.05341
2889.26047,0.05325
2887.33172,0.05337
2885.40298,0.05364
2883.47423,0.05383
2881.54549,0.05382
2879.61674,0.05359
2877.68800,0.05335
2875.75925,0.05330
2873.83051,0.05333
2871.90176,0.05333
2869.97302,0.05334
2868.04427,0.05331
2866.11553,0.05315
2864.18678,0.05303
2862.25804,0.05319
2860.32929,0.05344
2858.40055,0.05355
2856.47180,0.05367
2854.54305,0.05395
2852.61431,0.05413
2850.68556,0.05395
2848.75682,0.05372
2846.82807,0.05375
2844.89933,0.05383
2842.97058,0.05372
2841.04184,0.05353
2839.11309,0.05357
2837.18435,0.05388
2835.25560,0.05413
2833.32686,0.05400
2831.39811,0.05358
2829.46937,0.05336
2827.54062,0.05356
2825.61188,0.05387
2823.68313,0.05408
2821.75438,0.05417
2819.82564,0.05424
2817.89689,0.05440
2815.96815,0.05447
2814.03940,0.05427
2812.11066,0.05415
2810.18191,0.05443
2808.25317,0.05481
2806.32442,0.05485
2804.39568,0.05457
2802.46693,0.05437
2800.53819,0.05447
2798.60944,0.05462
2796.68070,0.05464
2794.75195,0.05480
2792.82320,0.05515
2790.89446,0.05532
2788.96571,0.05515
2787.03697,0.05495
2785.10822,0.05491
2783.17948,0.05504
2781.25073,0.05517
2779.32199,0.05509
2777.39324,0.05488
2775.46450,0.05474
2773.53575,0.05471
2771.60701,0.05480
2769.67826,0.05497
2767.74952,0.05508
2765.82077,0.05495
2763.89203,0.05477
2761.96328,0.05494
2760.03453,0.05536
2758.10579,0.05544
2756.17704,0.05516
2754.24830,0.05491
2752.31955,0.05478
2750.39081,0.05482
2748.46206,0.05502
2746.53332,0.05521
2744.60457,0.05529
2742.67583,0.05522
2740.74708,0.05522
2738.81834,0.05546
2736.88959,0.05559
2734.96085,0.05552
2733.03210,0.05561
2731.10336,0.05582
2729.17461,0.05582
2727.24586,0.05566
2725.31712,0.05566
2723.38837,0.05586
2721.45963,0.05591
2719.53088,0.05574
2717.60214,0.05560
2715.67339,0.05565
2713.74465,0.05582
2711.81590,0.05599
2709.88716,0.05610
2707.95841,0.05606
2706.02967,0.05585
2704.10092,0.05567
2702.17218,0.05563
2700.24343,0.05573
2698.31468,0.05592
2696.38594,0.05606
2694.45719,0.05599
2692.52845,0.05584
2690.59970,0.05579
2688.67096,0.05569
2686.74221,0.05554
2684.81347,0.05557
2682.88472,0.05565
2680.95598,0.05573
2679.02723,0.05593
2677.09849,0.05597
2675.16974,0.05565
2673.24100,0.05531
2671.31225,0.05519
2669.38351,0.05513
2667.45476,0.05506
2665.52601,0.05507
2663.59727,0.05515
2661.66852,0.05508
2659.73978,0.05481
2657.81103,0.05460
2655.88229,0.05470
2653.95354,0.05493
2652.02480,0.05501
2650.09605,0.05492
2648.16731,0.05480
2646.23856,0.05471
2644.30982,0.05467
2642.38107,0.05472
2640.45233,0.05477
2638.52358,0.05467
2636.59484,0.05447
2634.66609,0.05435
2632.73734,0.05444
2630.80860,0.05462
2628.87985,0.05468
2626.95111,0.05444
2625.02236,0.05412
2623.09362,0.05407
2621.16487,0.05420
2619.23613,0.05424
2617.30738,0.05431
2615.37864,0.05456
2613.44989,0.05484
2611.52115,0.05480
2609.59240,0.05443
2607.66366,0.05408
2605.73491,0.05404
2603.80616,0.05416
2601.87742,0.05426
2599.94867,0.05430
2598.01993,0.05424
2596.09118,0.05405
2594.16244,0.05388
2592.23369,0.05386
2590.30495,0.05392
2588.37620,0.05404
2586.44746,0.05421
2584.51871,0.05432
2582.58997,0.05432
2580.66122,0.05433
2578.73248,0.05436
2576.80373,0.05421
2574.87499,0.05398
2572.94624,0.05401
2571.01749,0.05417
2569.08875,0.05424
2567.16000,0.05431
2565.23126,0.05438
2563.30251,0.05437
2561.37377,0.05429
2559.44502,0.05420
2557.51628,0.05413
2555.58753,0.05404
2553.65879,0.05392
2551.73004,0.05380
2549.80130,0.05374
2547.87255,0.05366
2545.94381,0.05357
2544.01506,0.05372
2542.08631,0.05409
2540.15757,0.05426
2538.22882,0.05409
2536.30008,0.05394
2534.37133,0.05392
2532.44259,0.05379
2530.51384,0.05365
2528.58510,0.05378
2526.65635,0.05414
2524.72761,0.05449
2522.79886,0.05464
2520.87012,0.05447
2518.94137,0.05415
2517.01263,0.05399
2515.08388,0.05397
2513.15514,0.05396
2511.22639,0.05396
2509.29764,0.05394
2507.36890,0.05390
2505.44015,0.05395
2503.51141,0.05414
2501.58266,0.05441
2499.65392,0.05453
2497.72517,0.05443
2495.79643,0.05421
2493.86768,0.05395
2491.93894,0.05373
2490.01019,0.05368
2488.08145,0.05379
2486.15270,0.05397
2484.22396,0.05411
2482.29521,0.05408
2480.36647,0.05398
2478.43772,0.05407
2476.50897,0.05423
2474.58023,0.05417
2472.65148,0.05393
2470.72274,0.05373
2468.79399,0.05362
2466.86525,0.05362
2464.93650,0.05373
2463.00776,0.05366
2461.07901,0.05349
2459.15027,0.05360
2457.22152,0.05389
2455.29278,0.05404
2453.36403,0.05403
2451.43529,0.05386
2449.50654,0.05359
2447.57779,0.05332
2445.64905,0.05314
2443.72030,0.05311
2441.79156,0.05318
2439.86281,0.05325
2437.93407,0.05328
2436.00532,0.05323
2434.07658,0.05314
2432.14783,0.05310
2430.21909,0.05321
2428.29034,0.05339
2426.36160,0.05341
2424.43285,0.05324
2422.50411,0.05309
2420.57536,0.05311
2418.64662,0.05321
2416.71787,0.05319
2414.78912,0.05310
2412.86038,0.05311
2410.93163,0.05322
2409.00289,0.05330
2407.07414,0.05324
2405.14540,0.05307
2403.21665,0.05290
2401.28791,0.05279
2399.35916,0.05277
2397.43042,0.05290
2395.50167,0.05303
2393.57293,0.05294
2391.64418,0.05272
2389.71544,0.05263
2387.78669,0.05271
2385.85795,0.05274
2383.92920,0.05264
2382.00045,0.05256
2380.07171,0.05261
2378.14296,0.05274
2376.21422,0.05279
2374.28547,0.05276
2372.35673,0.05278
2370.42798,0.05284
2368.49924,0.05283
2366.57049,0.05273
2364.64175,0.05271
2362.71300,0.05279
2360.78426,0.05278
2358.85551,0.05260
2356.92677,0.05250
2354.99802,0.05259
2353.06927,0.05264
2351.14053,0.05245
2349.21178,0.05217
2347.28304,0.05209
2345.35429,0.05217
2343.42555,0.05224
2341.49680,0.05237
2339.56806,0.05257
2337.63931,0.05259
2335.71057,0.05249
2333.78182,0.05240
2331.85308,0.05231
2329.92433,0.05224
2327.99559,0.05229
2326.06684,0.05244
2324.13810,0.05253
2322.20935,0.05246
2320.28060,0.05232
2318.35186,0.05217
2316.42311,0.05205
2314.49437,0.05201
2312.56562,0.05210
2310.63688,0.05226
2308.70813,0.05232
2306.77939,0.05220
2304.85064,0.05209
2302.92190,0.05209
2300.99315,0.05206
2299.06441,0.05196
2297.13566,0.05189
2295.20692,0.05187
2293.27817,0.05195
2291.34943,0.05206
2289.42068,0.05208
2287.49193,0.05201
2285.56319,0.05192
2283.63444,0.05188
2281.70570,0.05190
2279.77695,0.05197
2277.84821,0.05206
2275.91946,0.05209
2273.99072,0.05204
2272.06197,0.05195
2270.13323,0.05183
2268.20448,0.05174
2266.27574,0.05169
2264.34699,0.05166
2262.41825,0.05178
2260.48950,0.05200
2258.56075,0.05209
2256.63201,0.05200
2254.70326,0.05179
2252.77452,0.05158
2250.84577,0.05150
2248.91703,0.05149
2246.98828,0.05152
2245.05954,0.05163
2243.13079,0.05160
2241.20205,0.05139
2239.27330,0.05129
2237.34456,0.05136
2235.41581,0.05142
2233.48707,0.05145
2231.55832,0.05148
2229.62958,0.05143
2227.70083,0.05136
2225.77208,0.05135
2223.84334,0.05129
2221.91459,0.05113
2219.98585,0.05111
2218.05710,0.05126
2216.12836,0.05135
2214.19961,0.05126
2212.27087,0.05120
2210.34212,0.05131
2208.41338,0.05138
2206.48463,0.05120
2204.55589,0.05099
2202.62714,0.05090
2200.69840,0.05083
2198.76965,0.05069
2196.84090,0.05070
2194.91216,0.05083
2192.98341,0.05087
2191.05467,0.05087
2189.12592,0.05098
2187.19718,0.05108
2185.26843,0.05103
2183.33969,0.05090
2181.41094,0.05076
2179.48220,0.05060
2177.55345,0.05046
2175.62471,0.05045
2173.69596,0.05050
2171.76722,0.05037
2169.83847,0.05015
2167.90973,0.05015
2165.98098,0.05034
2164.05223,0.05049
2162.12349,0.05047
2160.19474,0.05037
2158.26600,0.05027
2156.33725,0.05014
2154.40851,0.05011
2152.47976,0.05015
2150.55102,0.05017
2148.62227,0.05022
2146.69353,0.05029
2144.76478,0.05035
2142.83604,0.05045
2140.90729,0.05047
2138.97855,0.05032
2137.04980,0.05011
2135.12106,0.05008
2133.19231,0.05027
2131.26356,0.05046
2129.33482,0.05039
2127.40607,0.05024
2125.47733,0.05026
2123.54858,0.05027
2121.61984,0.05006
2119.69109,0.04989
2117.76235,0.04996
2115.83360,0.05008
2113.90486,0.05009
2111.97611,0.05003
2110.04737,0.04999
2108.11862,0.05007
2106.18988,0.05019
2104.26113,0.05021
2102.33238,0.05014
2100.40364,0.04994
2098.47489,0.04966
2096.54615,0.04966
2094.61740,0.04987
2092.68866,0.04997
2090.75991,0.04992
2088.83117,0.04983
2086.90242,0.04971
2084.97368,0.04961
2083.04493,0.04968
2081.11619,0.04990
2079.18744,0.04994
2077.25870,0.04972
2075.32995,0.04960
2073.40121,0.04979
2071.47246,0.05000
2069.54371,0.05003
2067.61497,0.04998
2065.68622,0.04991
2063.75748,0.04979
2061.82873,0.04967
2059.89999,0.04973
2057.97124,0.04993
2056.04250,0.04998
2054.11375,0.04978
2052.18501,0.04950
2050.25626,0.04921
2048.32752,0.04898
2046.39877,0.04901
2044.47003,0.04931
2042.54128,0.04965
2040.61254,0.04979
2038.68379,0.04959
2036.75504,0.04930
2034.82630,0.04934
2032.89755,0.04960
2030.96881,0.04974
2029.04006,0.04960
2027.11132,0.04934
2025.18257,0.04925
2023.25383,0.04933
2021.32508,0.04938
2019.39634,0.04940
2017.46759,0.04945
2015.53885,0.04939
2013.61010,0.04927
2011.68136,0.04927
2009.75261,0.04924
2007.82386,0.04913
2005.89512,0.04914
2003.96637,0.04927
2002.03763,0.04925
2000.10888,0.04904
1998.18014,0.04889
1996.25139,0.04896
1994.32265,0.04911
1992.39390,0.04909
1990.46516,0.04895
1988.53641,0.04890
1986.60767,0.04902
1984.67892,0.04920
1982.75018,0.04924
1980.82143,0.04910
1978.89269,0.04902
1976.96394,0.04903
1975.03519,0.04903
1973.10645,0.04908
1971.17770,0.04921
1969.24896,0.04924
1967.32021,0.04909
1965.39147,0.04891
1963.46272,0.04885
1961.53398,0.04900
1959.60523,0.04922
1957.67649,0.04928
1955.74774,0.04914
1953.81900,0.04895
1951.89025,0.04880
1949.96151,0.04882
1948.03276,0.04896
1946.10402,0.04900
1944.17527,0.04891
1942.24652,0.04880
1940.31778,0.04872
1938.38903,0.04869
1936.46029,0.04867
1934.53154,0.04860
1932.60280,0.04859
1930.67405,0.04868
1928.74531,0.04871
1926.81656,0.04867
1924.88782,0.04860
1922.95907,0.04852
1921.03033,0.04850
1919.10158,0.04852
1917.17284,0.04853
1915.24409,0.04853
1913.31534,0.04845
1911.38660,0.04836
1909.45785,0.04825
1907.52911,0.04807
1905.60036,0.04799
1903.67162,0.04801
1901.74287,0.04794
1899.81413,0.04795
1897.88538,0.04806
1895.95664,0.04801
1894.02789,0.04788
1892.09915,0.04788
1890.17040,0.04795
1888.24166,0.04791
1886.31291,0.04780
1884.38417,0.04781
1882.45542,0.04795
1880.52667,0.04791
1878.59793,0.04769
1876.66918,0.04755
1874.74044,0.04750
1872.81169,0.04739
1870.88295,0.04731
1868.95420,0.04741
1867.02546,0.04756
1865.09671,0.04756
1863.16797,0.04746
1861.23922,0.04740
1859.31048,0.04726
1857.38173,0.04701
1855.45299,0.04680
1853.52424,0.04662
1851.59549,0.04652
1849.66675,0.04664
1847.73800,0.04686
1845.80926,0.04690
1843.88051,0.04672
1841.95177,0.04652
1840.02302,0.04639
1838.09428,0.04622
1836.16553,0.04599
1834.23679,0.04581
1832.30804,0.04576
1830.37930,0.04573
1828.45055,0.04565
1826.52181,0.04561
1824.59306,0.04560
1822.66432,0.04555
1820.73557,0.04541
1818.80682,0.04514
1816.87808,0.04494
1814.94933,0.04487
1813.02059,0.04474
1811.09184,0.04459
1809.16310,0.04452
1807.23435,0.04444
1805.30561,0.04429
1803.37686,0.04404
1801.44812,0.04370
1799.51937,0.04341
1797.59063,0.04316
1795.66188,0.04294
1793.73314,0.04280
1791.80439,0.04264
1789.87565,0.04241
1787.94690,0.04228
1786.01815,0.04211
1784.08941,0.04177
1782.16066,0.04144
1780.23192,0.04105
1778.30317,0.04047
1776.37443,0.03985
1774.44568,0.03938
1772.51694,0.03905
1770.58819,0.03869
1768.65945,0.03814
1766.73070,0.03748
1764.80196,0.03686
1762.87321,0.03604
1760.94447,0.03489
1759.01572,0.03365
1757.08697,0.03229
1755.15823,0.03077
1753.22948,0.02917
1751.30074,0.02721
1749.37199,0.02532
1747.44325,0.02460
1745.51450,0.02554
1743.58576,0.02804
1741.65701,0.03207
1739.72827,0.03759
1737.79952,0.04359
1735.87078,0.04973
1733.94203,0.05712
1732.01329,0.06457
1730.08454,0.07065
1728.15580,0.07577
1726.22705,0.07963
1724.29830,0.08190
1722.36956,0.08283
1720.44081,0.08266
1718.51207,0.08107
1716.58332,0.07820
1714.65458,0.07546
1712.72583,0.07326
1710.79709,0.07114
1708.86834,0.06894
1706.93960,0.06679
1705.01085,0.06502
1703.08211,0.06380
1701.15336,0.06254
1699.22462,0.06095
1697.29587,0.05969
1695.36713,0.05891
1693.43838,0.05851
1691.50963,0.05835
1689.58089,0.05822
1687.65214,0.05797
1685.72340,0.05751
1683.79465,0.05704
1681.86591,0.05685
1679.93716,0.05678
1678.00842,0.05663
1676.07967,0.05623
1674.15093,0.05582
1672.22218,0.05569
1670.29344,0.05551
1668.36469,0.05507
1666.43595,0.05469
1664.50720,0.05445
1662.57845,0.05434
1660.64971,0.05434
1658.72096,0.05428
1656.79222,0.05422
1654.86347,0.05405
1652.93473,0.05333
1651.00598,0.05267
1649.07724,0.05279
1647.14849,0.05319
1645.21975,0.05322
1643.29100,0.05296
1641.36226,0.05282
1639.43351,0.05276
1637.50477,0.05262
1635.57602,0.05240
1633.64728,0.05238
1631.71853,0.05241
1629.78978,0.05230
1627.86104,0.05222
1625.93229,0.05228
1624.00355,0.05225
1622.07480,0.05218
1620.14606,0.05229
1618.21731,0.05233
1616.28857,0.05198
1614.35982,0.05169
1612.43108,0.05161
1610.50233,0.05149
1608.57359,0.05147
1606.64484,0.05164
1604.71610,0.05173
1602.78735,0.05165
1600.85861,0.05153
1598.92986,0.05144
1597.00111,0.05141
1595.07237,0.05143
1593.14362,0.05133
1591.21488,0.05103
1589.28613,0.05066
1587.35739,0.05052
1585.42864,0.05065
1583.49990,0.05069
1581.57115,0.05050
1579.64241,0.05028
1577.71366,0.05011
1575.78492,0.04991
1573.85617,0.04985
1571.92743,0.04996
1569.99868,0.04996
1568.06993,0.04974
1566.14119,0.04953
1564.21244,0.04949
1562.28370,0.04950
1560.35495,0.04932
1558.42621,0.04901
1556.49746,0.04880
1554.56872,0.04860
1552.63997,0.04847
1550.71123,0.04851
1548.78248,0.04858
1546.85374,0.04859
1544.92499,0.04856
1542.99625,0.04859
1541.06750,0.04854
1539.13876,0.04814
1537.21001,0.04785
1535.28126,0.04783
1533.35252,0.04773
1531.42377,0.04743
1529.49503,0.04721
1527.56628,0.04712
1525.63754,0.04703
1523.70879,0.04688
1521.78005,0.04663
1519.85130,0.04631
1517.92256,0.04614
1515.99381,0.04605
1514.06507,0.04585
1512.13632,0.04565
1510.20758,0.04563
1508.27883,0.04553
1506.35008,0.04488
1504.42134,0.04414
1502.49259,0.04382
1500.56385,0.04357
1498.63510,0.04306
1496.70636,0.04228
1494.77761,0.04162
1492.84887,0.04144
1490.92012,0.04164
1488.99138,0.04215
1487.06263,0.04287
1485.13389,0.04359
1483.20514,0.04422
1481.27640,0.04481
1479.34765,0.04529
1477.41891,0.04559
1475.49016,0.04579
1473.56141,0.04599
1471.63267,0.04604
1469.70392,0.04600
1467.77518,0.04597
1465.84643,0.04584
1463.91769,0.04567
1461.98894,0.04571
1460.06020,0.04585
1458.13145,0.04582
1456.20271,0.04577
1454.27396,0.04612
1452.34522,0.04680
1450.41647,0.04760
1448.48773,0.04858
1446.55898,0.04966
1444.63024,0.05045
1442.70149,0.05083
1440.77274,0.05103
1438.84400,0.05138
1436.91525,0.05229
1434.98651,0.05375
1433.05776,0.05522
1431.12902,0.05635
1429.20027,0.05690
1427.27153,0.05692
1425.34278,0.05659
1423.41404,0.05591
1421.48529,0.05494
1419.55655,0.05381
1417.62780,0.05277
1415.69906,0.05210
1413.77031,0.05165
1411.84156,0.05114
1409.91282,0.05061
1407.98407,0.05033
1406.05533,0.05010
1404.12658,0.04967
1402.19784,0.04917
1400.26909,0.04878
1398.34035,0.04857
1396.41160,0.04850
1394.48286,0.04840
1392.55411,0.04840
1390.62537,0.04868
1388.69662,0.04907
1386.76788,0.04937
1384.83913,0.04969
1382.91039,0.05019
1380.98164,0.05060
1379.05289,0.05064
1377.12415,0.05041
1375.19540,0.05014
1373.26666,0.05003
1371.33791,0.04999
1369.40917,0.04975
1367.48042,0.04944
1365.55168,0.04936
1363.62293,0.04939
1361.69419,0.04936
1359.76544,0.04941
1357.83670,0.04948
1355.90795,0.04928
1353.97921,0.04892
1352.05046,0.04865
1350.12172,0.04846
1348.19297,0.04823
1346.26422,0.04797
1344.33548,0.04770
1342.40673,0.04743
1340.47799,0.04725
1338.54924,0.04715
1336.62050,0.04693
1334.69175,0.04657
1332.76301,0.04635
1330.83426,0.04631
1328.90552,0.04629
1326.97677,0.04607
1325.04803,0.04559
1323.11928,0.04514
1321.19054,0.04490
1319.26179,0.04465
1317.33304,0.04431
1315.40430,0.04403
1313.47555,0.04379
1311.54681,0.04353
1309.61806,0.04325
1307.68932,0.04292
1305.76057,0.04252
1303.83183,0.04218
1301.90308,0.04186
1299.97434,0.04134
1298.04559,0.04078
1296.11685,0.04040
1294.18810,0.04001
1292.25936,0.03950
1290.33061,0.03891
1288.40187,0.03822
1286.47312,0.03756
1284.54437,0.03722
1282.61563,0.03707
1280.68688,0.03694
1278.75814,0.03707
1276.82939,0.03759
1274.90065,0.03849
1272.97190,0.03978
1271.04316,0.04126
1269.11441,0.04272
1267.18567,0.04401
1265.25692,0.04475
1263.32818,0.04481
1261.39943,0.04452
1259.47069,0.04417
1257.54194,0.04380
1255.61320,0.04339
1253.68445,0.04304
1251.75570,0.04298
1249.82696,0.04327
1247.89821,0.04385
1245.96947,0.04479
1244.04072,0.04624
1242.11198,0.04802
1240.18323,0.04965
1238.25449,0.05085
1236.32574,0.05162
1234.39700,0.05199
1232.46825,0.05221
1230.53951,0.05238
1228.61076,0.05213
1226.68202,0.05138
1224.75327,0.05040
1222.82452,0.04923
1220.89578,0.04790
1218.96703,0.04657
1217.03829,0.04522
1215.10954,0.04372
1213.18080,0.04191
1211.25205,0.04004
1209.32331,0.03860
1207.39456,0.03769
1205.46582,0.03737
1203.53707,0.03778
1201.60833,0.03872
1199.67958,0.04019
1197.75084,0.04246
1195.82209,0.04538
1193.89335,0.04823
1191.96460,0.05057
1190.03585,0.05235
1188.10711,0.05343
1186.17836,0.05374
1184.24962,0.05354
1182.32087,0.05309
1180.39213,0.05257
1178.46338,0.05218
1176.53464,0.05208
1174.60589,0.05215
1172.67715,0.05215
1170.74840,0.05214
1168.81966,0.05232
1166.89091,0.05260
1164.96217,0.05278
1163.03342,0.05306
1161.10467,0.05362
1159.17593,0.05456
1157.24718,0.05638
1155.31844,0.05958
1153.38969,0.06417
1151.46095,0.06978
1149.53220,0.07576
1147.60346,0.08117
1145.67471,0.08504
1143.74597,0.08709
1141.81722,0.08783
1139.88848,0.08782
1137.95973,0.08720
1136.03099,0.08601
1134.10224,0.08459
1132.17350,0.08343
1130.24475,0.08249
1128.31600,0.08131
1126.38726,0.08008
1124.45851,0.07931
1122.52977,0.07864
1120.60102,0.07757
1118.67228,0.07659
1116.74353,0.07630
1114.81479,0.07636
1112.88604,0.07624
1110.95730,0.07600
1109.02855,0.07571
1107.09981,0.07543
1105.17106,0.07527
1103.24232,0.07500
1101.31357,0.07443
1099.38483,0.07395
1097.45608,0.07388
1095.52733,0.07399
1093.59859,0.07379
1091.66984,0.07341
1089.74110,0.07346
1087.81235,0.07379
1085.88361,0.07385
1083.95486,0.07377
1082.02612,0.07383
1080.09737,0.07373
1078.16863,0.07336
1076.23988,0.07312
1074.31114,0.07313
1072.38239,0.07312
1070.45365,0.07311
1068.52490,0.07323
1066.59615,0.07339
1064.66741,0.07363
1062.73866,0.07420
1060.80992,0.07506
1058.88117,0.07614
1056.95243,0.07778
1055.02368,0.08008
1053.09494,0.08254
1051.16619,0.08472
1049.23745,0.08631
1047.30870,0.08716
1045.37996,0.08753
1043.45121,0.08757
1041.52247,0.08726
1039.59372,0.08673
1037.66498,0.08605
1035.73623,0.08525
1033.80748,0.08434
1031.87874,0.08347
1029.94999,0.08261
1028.02125,0.08150
1026.09250,0.08012
1024.16376,0.07866
1022.23501,0.07712
1020.30627,0.07555
1018.37752,0.07405
1016.44878,0.07261
1014.52003,0.07118
1012.59129,0.06955
1010.66254,0.06746
1008.73380,0.06502
1006.80505,0.06258
1004.87631,0.06044
1002.94756,0.05871
1001.01881,0.05754
999.09007,0.05717
997.16132,0.05739
995.23258,0.05765
993.30383,0.05791
991.37509,0.05848
989.44634,0.05920
987.51760,0.05977
985.58885,0.06039
983.66011,0.06112
981.73136,0.06168
979.80262,0.06210
977.87387,0.06244
975.94513,0.06260
974.01638,0.06258
972.08763,0.06241
970.15889,0.06217
968.23014,0.06228
966.30140,0.06289
964.37265,0.06352
962.44391,0.06388
960.51516,0.06407
958.58642,0.06416
956.65767,0.06419
954.72893,0.06420
952.80018,0.06415
950.87144,0.06398
948.94269,0.06374
947.01395,0.06355
945.08520,0.06354
943.15646,0.06366
941.22771,0.06368
939.29896,0.06351
937.37022,0.06330
935.44147,0.06292
933.51273,0.06244
931.58398,0.06242
929.65524,0.06266
927.72649,0.06250
925.79775,0.06208
923.86900,0.06182
921.94026,0.06173
920.01151,0.06166
918.08277,0.06158
916.15402,0.06168
914.22528,0.06215
912.29653,0.06253
910.36779,0.06235
908.43904,0.06204
906.51029,0.06202
904.58155,0.06217
902.65280,0.06247
900.72406,0.06305
898.79531,0.06348
896.86657,0.06348
894.93782,0.06358
893.00908,0.06407
891.08033,0.06462
889.15159,0.06507
887.22284,0.06523
885.29410,0.06512
883.36535,0.06527
881.43661,0.06567
879.50786,0.06593
877.57911,0.06591
875.65037,0.06576
873.72162,0.06573
871.79288,0.06602
869.86413,0.06635
867.93539,0.06624
866.00664,0.06587
864.07790,0.06570
862.14915,0.06551
860.22041,0.06504
858.29166,0.06463
856.36292,0.06432
854.43417,0.06377
852.50543,0.06311
850.57668,0.06265
848.64794,0.06256
846.71919,0.06284
844.79044,0.06324
842.86170,0.06363
840.93295,0.06442
839.00421,0.06577
837.07546,0.06713
835.14672,0.06805
833.21797,0.06842
831.28923,0.06811
829.36048,0.06738
827.43174,0.06711
825.50299,0.06780
823.57425,0.06897
821.64550,0.06994
819.71676,0.07067
817.78801,0.07123
815.85926,0.07145
813.93052,0.07129
812.00177,0.07090
810.07303,0.07072
808.14428,0.07114
806.21554,0.07198
804.28679,0.07271
802.35805,0.07304
800.42930,0.07318
798.50056,0.07344
796.57181,0.07359
794.64307,0.07338
792.71432,0.07316
790.78558,0.07305
788.85683,0.07239
786.92809,0.07097
784.99934,0.06964
783.07059,0.06898
781.14185,0.06865
779.21310,0.06835
777.28436,0.06819
775.35561,0.06818
773.42687,0.06797
771.49812,0.06730
769.56938,0.06623
767.64063,0.06503
765.71189,0.06406
763.78314,0.06350
761.85440,0.06312
759.92565,0.06265
757.99691,0.06201
756.06816,0.06127
754.13942,0.06118
752.21067,0.06255
750.28192,0.06490
748.35318,0.06704
746.42443,0.06866
744.49569,0.07010
742.56694,0.07130
740.63820,0.07166
738.70945,0.07110
736.78071,0.07025
734.85196,0.06947
732.92322,0.06895
730.99447,0.06881
729.06573,0.06867
727.13698,0.06833
725.20824,0.06788
723.27949,0.06720
721.35074,0.06646
719.42200,0.06606
717.49325,0.06598
715.56451,0.06603
713.63576,0.06599
711.70702,0.06555
709.77827,0.06476
707.84953,0.06415
705.92078,0.06419
703.99204,0.06457
702.06329,0.06465
700.13455,0.06442
698.20580,0.06404
696.27706,0.06351
694.34831,0.06303
692.41957,0.06294
690.49082,0.06326
688.56207,0.06382
686.63333,0.06462
684.70458,0.06553
682.77584,0.06644
680.84709,0.06725
678.91835,0.06773
676.98960,0.06800
675.06086,0.06836
673.13211,0.06864
671.20337,0.06864
669.27462,0.06831
667.34588,0.06777
665.41713,0.06742
663.48839,0.06743
661.55964,0.06753
659.63090,0.06705
657.70215,0.06585
655.77340,0.06481
653.84466,0.06461
651.91591,0.06469
649.98717,0.06458
648.05842,0.06464
646.12968,0.06486
644.20093,0.06469
642.27219,0.06426
640.34344,0.06412
638.41470,0.06449
636.48595,0.06514
634.55721,0.06555
632.62846,0.06592
630.69972,0.06704
628.77097,0.06791
626.84222,0.06713
624.91348,0.06600
622.98473,0.06605
621.05599,0.06729
619.12724,0.06852
617.19850,0.06859
615.26975,0.06838
613.34101,0.06894
611.41226,0.06941
609.48352,0.06899
607.55477,0.06872
605.62603,0.06951
603.69728,0.07023
601.76854,0.07063
599.83979,0.07192
