7497.03301,0.38190
7495.10426,0.37821
7493.17552,0.37675
7491.24677,0.38041
7489.31803,0.38416
7487.38928,0.38265
7485.46054,0.37903
7483.53179,0.37611
7481.60305,0.37357
7479.67430,0.36969
7477.74556,0.36580
7475.81681,0.36830
7473.88807,0.37421
7471.95932,0.37529
7470.03057,0.37189
7468.10183,0.36587
7466.17308,0.35714
7464.24434,0.34957
7462.31559,0.34679
7460.38685,0.34607
7458.45810,0.34534
7456.52936,0.34478
7454.60061,0.34375
7452.67187,0.34402
7450.74312,0.34474
7448.81438,0.34251
7446.88563,0.33908
7444.95689,0.33791
7443.02814,0.33921
7441.09940,0.34137
7439.17065,0.34226
7437.24190,0.33958
7435.31316,0.33438
7433.38441,0.33203
7431.45567,0.33393
7429.52692,0.33579
7427.59818,0.33761
7425.66943,0.34190
7423.74069,0.34475
7421.81194,0.34258
7419.88320,0.33713
7417.95445,0.32946
7416.02571,0.32344
7414.09696,0.32515
7412.16822,0.33052
7410.23947,0.33142
7408.31073,0.32913
7406.38198,0.32838
7404.45323,0.32975
7402.52449,0.33079
7400.59574,0.33060
7398.66700,0.33097
7396.73825,0.33249
7394.80951,0.33488
7392.88076,0.33537
7390.95202,0.33254
7389.02327,0.33277
7387.09453,0.33790
7385.16578,0.34014
7383.23704,0.33642
7381.30829,0.33192
7379.37955,0.33111
7377.45080,0.33350
7375.52205,0.33502
7373.59331,0.33512
7371.66456,0.33583
7369.73582,0.33397
7367.80707,0.33046
7365.87833,0.33082
7363.94958,0.33127
7362.02084,0.32765
7360.09209,0.32493
7358.16335,0.32693
7356.23460,0.33098
7354.30586,0.33106
7352.37711,0.32587
7350.44837,0.32295
7348.51962,0.32524
7346.59088,0.32554
7344.66213,0.32159
7342.73338,0.31961
7340.80464,0.32196
7338.87589,0.32189
7336.94715,0.31566
7335.01840,0.31129
7333.08966,0.31412
7331.16091,0.31848
7329.23217,0.31917
7327.30342,0.31650
7325.37468,0.31334
7323.44593,0.31140
7321.51719,0.30913
7319.58844,0.30653
7317.65970,0.30535
7315.73095,0.30531
7313.80221,0.30620
7311.87346,0.30815
7309.94471,0.30997
7308.01597,0.30895
7306.08722,0.30309
7304.15848,0.29741
7302.22973,0.29796
7300.30099,0.30050
7298.37224,0.29888
7296.44350,0.29503
7294.51475,0.29247
7292.58601,0.29142
7290.65726,0.29106
7288.72852,0.29162
7286.79977,0.29336
7284.87103,0.29414
7282.94228,0.29329
7281.01353,0.29285
7279.08479,0.29318
7277.15604,0.29294
7275.22730,0.29051
7273.29855,0.28669
7271.36981,0.28419
7269.44106,0.28348
7267.51232,0.28350
7265.58357,0.28335
7263.65483,0.28301
7261.72608,0.28232
7259.79734,0.28211
7257.86859,0.28389
7255.93985,0.28417
7254.01110,0.28110
7252.08236,0.27835
7250.15361,0.27599
7248.22486,0.27393
7246.29612,0.27301
7244.36737,0.27042
7242.43863,0.26654
7240.50988,0.26471
7238.58114,0.26529
7236.65239,0.26667
7234.72365,0.26641
7232.79490,0.26505
7230.86616,0.26577
7228.93741,0.26882
7227.00867,0.27165
7225.07992,0.27181
7223.15118,0.26948
7221.22243,0.26663
7219.29369,0.26450
7217.36494,0.26351
7215.43619,0.26266
7213.50745,0.26126
7211.57870,0.25804
7209.64996,0.25287
7207.72121,0.24965
7205.79247,0.24997
7203.86372,0.25121
7201.93498,0.25102
7200.00623,0.24797
7198.07749,0.24285
7196.14874,0.23832
7194.22000,0.23654
7192.29125,0.23855
7190.36251,0.24187
7188.43376,0.24051
7186.50501,0.23408
7184.57627,0.22925
7182.64752,0.22792
7180.71878,0.22698
7178.79003,0.22498
7176.86129,0.22111
7174.93254,0.21546
7173.00380,0.20863
7171.07505,0.20036
7169.14631,0.19136
7167.21756,0.18294
7165.28882,0.17617
7163.36007,0.17201
7161.43133,0.16726
7159.50258,0.15677
7157.57384,0.14375
7155.64509,0.13594
7153.71634,0.13233
7151.78760,0.12784
7149.85885,0.12416
7147.93011,0.12403
7146.00136,0.12737
7144.07262,0.13486
7142.14387,0.14398
7140.21513,0.15148
7138.28638,0.15865
7136.35764,0.16591
7134.42889,0.17149
7132.50015,0.17624
7130.57140,0.18117
7128.64266,0.18496
7126.71391,0.18813
7124.78516,0.19197
7122.85642,0.19369
7120.92767,0.19016
7118.99893,0.18542
7117.07018,0.18564
7115.14144,0.18797
7113.21269,0.18793
7111.28395,0.18711
7109.35520,0.18647
7107.42646,0.18563
7105.49771,0.18481
7103.56897,0.18223
7101.64022,0.17787
7099.71148,0.17578
7097.78273,0.17655
7095.85399,0.17439
7093.92524,0.16753
7091.99649,0.16295
7090.06775,0.16535
7088.13900,0.16954
7086.21026,0.16790
7084.28151,0.16115
7082.35277,0.15475
7080.42402,0.14847
7078.49528,0.14037
7076.56653,0.13388
7074.63779,0.13176
7072.70904,0.13131
7070.78030,0.12971
7068.85155,0.12629
7066.92281,0.11994
7064.99406,0.11223
7063.06532,0.10854
7061.13657,0.10930
7059.20782,0.11009
7057.27908,0.10925
7055.35033,0.10751
7053.42159,0.10458
7051.49284,0.10018
7049.56410,0.09781
7047.63535,0.10109
7045.70661,0.10690
7043.77786,0.10933
7041.84912,0.10757
7039.92037,0.10708
7037.99163,0.11128
7036.06288,0.11653
7034.13414,0.11939
7032.20539,0.12200
7030.27664,0.12676
7028.34790,0.13178
7026.41915,0.13501
7024.49041,0.13738
7022.56166,0.14155
7020.63292,0.14901
7018.70417,0.15606
7016.77543,0.15890
7014.84668,0.15889
7012.91794,0.15762
7010.98919,0.15529
7009.06045,0.15173
7007.13170,0.14728
7005.20296,0.14509
7003.27421,0.14515
7001.34547,0.14315
6999.41672,0.13964
6997.48797,0.13830
6995.55923,0.13745
6993.63048,0.13373
6991.70174,0.12914
6989.77299,0.12674
6987.84425,0.12481
6985.91550,0.12170
6983.98676,0.11856
6982.05801,0.11648
6980.12927,0.11570
6978.20052,0.11541
6976.27178,0.11391
6974.34303,0.11082
6972.41429,0.10836
6970.48554,0.10819
6968.55680,0.10899
6966.62805,0.10847
6964.69930,0.10484
6962.77056,0.10001
6960.84181,0.09902
6958.91307,0.10245
6956.98432,0.10617
6955.05558,0.10704
6953.12683,0.10509
6951.19809,0.10389
6949.26934,0.10577
6947.34060,0.10826
6945.41185,0.10988
6943.48311,0.11206
6941.55436,0.11373
6939.62562,0.11354
6937.69687,0.11407
6935.76812,0.11698
6933.83938,0.11963
6931.91063,0.12064
6929.98189,0.11986
6928.05314,0.11651
6926.12440,0.11270
6924.19565,0.11198
6922.26691,0.11362
6920.33816,0.11374
6918.40942,0.11170
6916.48067,0.10984
6914.55193,0.10710
6912.62318,0.10175
6910.69444,0.09683
6908.76569,0.09548
6906.83695,0.09554
6904.90820,0.09463
6902.97945,0.09459
6901.05071,0.09602
6899.12196,0.09564
6897.19322,0.09269
6895.26447,0.09078
6893.33573,0.09167
6891.40698,0.09336
6889.47824,0.09519
6887.54949,0.09684
6885.62075,0.09717
6883.69200,0.09899
6881.76326,0.10406
6879.83451,0.10896
6877.90577,0.11240
6875.97702,0.11549
6874.04828,0.11792
6872.11953,0.12011
6870.19078,0.12356
6868.26204,0.12797
6866.33329,0.13076
6864.40455,0.13022
6862.47580,0.12722
6860.54706,0.12243
6858.61831,0.11627
6856.68957,0.11113
6854.76082,0.10726
6852.83208,0.10194
6850.90333,0.09684
6848.97459,0.09479
6847.04584,0.09325
6845.11710,0.09057
6843.18835,0.08924
6841.25960,0.08943
6839.33086,0.08953
6837.40211,0.09020
6835.47337,0.09259
6833.54462,0.09751
6831.61588,0.10496
6829.68713,0.11254
6827.75839,0.11772
6825.82964,0.12077
6823.90090,0.12324
6821.97215,0.12574
6820.04341,0.12908
6818.11466,0.13328
6816.18592,0.13699
6814.25717,0.14052
6812.32843,0.14533
6810.39968,0.15030
6808.47093,0.15336
6806.54219,0.15502
6804.61344,0.15712
6802.68470,0.16060
6800.75595,0.16339
6798.82721,0.16202
6796.89846,0.15894
6794.96972,0.15924
6793.04097,0.16246
6791.11223,0.16516
6789.18348,0.16588
6787.25474,0.16587
6785.32599,0.16703
6783.39725,0.17005
6781.46850,0.17329
6779.53975,0.17511
6777.61101,0.17657
6775.68226,0.17887
6773.75352,0.18226
6771.82477,0.18621
6769.89603,0.18945
6767.96728,0.19127
6766.03854,0.19130
6764.10979,0.18858
6762.18105,0.18479
6760.25230,0.18437
6758.32356,0.18663
6756.39481,0.18747
6754.46607,0.18706
6752.53732,0.18715
6750.60858,0.18719
6748.67983,0.18605
6746.75108,0.18528
6744.82234,0.18754
6742.89359,0.19256
6740.96485,0.19732
6739.03610,0.19958
6737.10736,0.20094
6735.17861,0.20346
6733.24987,0.20552
6731.32112,0.20503
6729.39238,0.20338
6727.46363,0.20383
6725.53489,0.20530
6723.60614,0.20422
6721.67740,0.20271
6719.74865,0.20424
6717.81991,0.20720
6715.89116,0.20890
6713.96241,0.20811
6712.03367,0.20525
6710.10492,0.20353
6708.17618,0.20463
6706.24743,0.20563
6704.31869,0.20502
6702.38994,0.20438
6700.46120,0.20351
6698.53245,0.20311
6696.60371,0.20452
6694.67496,0.20474
6692.74622,0.20256
6690.81747,0.20204
6688.88873,0.20440
6686.95998,0.20556
6685.03123,0.20416
6683.10249,0.20291
6681.17374,0.20245
6679.24500,0.20145
6677.31625,0.20004
6675.38751,0.19971
6673.45876,0.20013
6671.53002,0.19932
6669.60127,0.19856
6667.67253,0.19952
6665.74378,0.19956
6663.81504,0.19686
6661.88629,0.19445
6659.95755,0.19494
6658.02880,0.19657
6656.10006,0.19654
6654.17131,0.19442
6652.24256,0.19162
6650.31382,0.18999
6648.38507,0.19039
6646.45633,0.19119
6644.52758,0.19034
6642.59884,0.18756
6640.67009,0.18456
6638.74135,0.18342
6636.81260,0.18325
6634.88386,0.18164
6632.95511,0.17777
6631.02637,0.17299
6629.09762,0.17053
6627.16888,0.17170
6625.24013,0.17287
6623.31139,0.17126
6621.38264,0.16935
6619.45389,0.16797
6617.52515,0.16538
6615.59640,0.16277
6613.66766,0.16100
6611.73891,0.15954
6609.81017,0.15826
6607.88142,0.15646
6605.95268,0.15314
6604.02393,0.14833
6602.09519,0.14518
6600.16644,0.14601
6598.23770,0.14668
6596.30895,0.14332
6594.38021,0.13894
6592.45146,0.13740
6590.52271,0.13750
6588.59397,0.13723
6586.66522,0.13745
6584.73648,0.13894
6582.80773,0.14028
6580.87899,0.14066
6578.95024,0.14151
6577.02150,0.14322
6575.09275,0.14436
6573.16401,0.14537
6571.23526,0.14701
6569.30652,0.14819
6567.37777,0.14890
6565.44903,0.14935
6563.52028,0.14958
6561.59154,0.15072
6559.66279,0.15257
6557.73404,0.15396
6555.80530,0.15413
6553.87655,0.15441
6551.94781,0.15766
6550.01906,0.16179
6548.09032,0.16241
6546.16157,0.16100
6544.23283,0.16109
6542.30408,0.16282
6540.37534,0.16424
6538.44659,0.16412
6536.51785,0.16285
6534.58910,0.16124
6532.66036,0.16026
6530.73161,0.16051
6528.80287,0.16122
6526.87412,0.16187
6524.94537,0.16268
6523.01663,0.16304
6521.08788,0.16140
6519.15914,0.15815
6517.23039,0.15589
6515.30165,0.15588
6513.37290,0.15635
6511.44416,0.15500
6509.51541,0.15308
6507.58667,0.15258
6505.65792,0.15176
6503.72918,0.15030
6501.80043,0.15067
6499.87169,0.15196
6497.94294,0.15116
6496.01419,0.14872
6494.08545,0.14679
6492.15670,0.14627
6490.22796,0.14650
6488.29921,0.14602
6486.37047,0.14531
6484.44172,0.14518
6482.51298,0.14432
6480.58423,0.14254
6478.65549,0.14058
6476.72674,0.13921
6474.79800,0.13932
6472.86925,0.13940
6470.94051,0.13826
6469.01176,0.13787
6467.08302,0.13829
6465.15427,0.13705
6463.22552,0.13475
6461.29678,0.13405
6459.36803,0.13505
6457.43929,0.13541
6455.51054,0.13404
6453.58180,0.13192
6451.65305,0.12951
6449.72431,0.12801
6447.79556,0.12905
6445.86682,0.13077
6443.93807,0.13141
6442.00933,0.13254
6440.08058,0.13447
6438.15184,0.13587
6436.22309,0.13695
6434.29434,0.13780
6432.36560,0.13776
6430.43685,0.13801
6428.50811,0.14019
6426.57936,0.14300
6424.65062,0.14370
6422.72187,0.14358
6420.79313,0.14621
6418.86438,0.15050
6416.93564,0.15361
6415.00689,0.15623
6413.07815,0.15830
6411.14940,0.15879
6409.22066,0.15957
6407.29191,0.16130
6405.36317,0.16219
6403.43442,0.16270
6401.50567,0.16373
6399.57693,0.16518
6397.64818,0.16739
6395.71944,0.16888
6393.79069,0.16844
6391.86195,0.16881
6389.93320,0.17155
6388.00446,0.17458
6386.07571,0.17669
6384.14697,0.17749
6382.21822,0.17678
6380.28948,0.17694
6378.36073,0.17908
6376.43199,0.18088
6374.50324,0.18122
6372.57450,0.18099
6370.64575,0.18074
6368.71700,0.18057
6366.78826,0.18053
6364.85951,0.18098
6362.93077,0.18204
6361.00202,0.18324
6359.07328,0.18456
6357.14453,0.18622
6355.21579,0.18792
6353.28704,0.18961
6351.35830,0.19134
6349.42955,0.19253
6347.50081,0.19285
6345.57206,0.19264
6343.64332,0.19230
6341.71457,0.19219
6339.78582,0.19332
6337.85708,0.19583
6335.92833,0.19768
6333.99959,0.19839
6332.07084,0.19900
6330.14210,0.19918
6328.21335,0.19914
6326.28461,0.19939
6324.35586,0.19951
6322.42712,0.20028
6320.49837,0.20201
6318.56963,0.20231
6316.64088,0.20072
6314.71214,0.20015
6312.78339,0.20141
6310.85465,0.20288
6308.92590,0.20402
6306.99715,0.20468
6305.06841,0.20455
6303.13966,0.20423
6301.21092,0.20481
6299.28217,0.20595
6297.35343,0.20597
6295.42468,0.20538
6293.49594,0.20637
6291.56719,0.20859
6289.63845,0.21059
6287.70970,0.21189
6285.78096,0.21171
6283.85221,0.21068
6281.92347,0.21119
6279.99472,0.21290
6278.06598,0.21415
6276.13723,0.21586
6274.20848,0.21778
6272.27974,0.21819
6270.35099,0.21862
6268.42225,0.21996
6266.49350,0.22029
6264.56476,0.22037
6262.63601,0.22131
6260.70727,0.22206
6258.77852,0.22296
6256.84978,0.22462
6254.92103,0.22596
6252.99229,0.22579
6251.06354,0.22528
6249.13480,0.22687
6247.20605,0.23033
6245.27730,0.23283
6243.34856,0.23262
6241.41981,0.23152
6239.49107,0.23161
6237.56232,0.23167
6235.63358,0.23168
6233.70483,0.23374
6231.77609,0.23663
6229.84734,0.23700
6227.91860,0.23533
6225.98985,0.23461
6224.06111,0.23567
6222.13236,0.23737
6220.20362,0.23853
6218.27487,0.23911
6216.34613,0.23985
6214.41738,0.24006
6212.48863,0.23869
6210.55989,0.23759
6208.63114,0.23899
6206.70240,0.24096
6204.77365,0.24105
6202.84491,0.24052
6200.91616,0.24097
6198.98742,0.24192
6197.05867,0.24249
6195.12993,0.24285
6193.20118,0.24371
6191.27244,0.24536
6189.34369,0.24677
6187.41495,0.24643
6185.48620,0.24503
6183.55746,0.24415
6181.62871,0.24330
6179.69996,0.24245
6177.77122,0.24264
6175.84247,0.24321
6173.91373,0.24321
6171.98498,0.24311
6170.05624,0.24335
6168.12749,0.24392
6166.19875,0.24451
6164.27000,0.24496
6162.34126,0.24569
6160.41251,0.24666
6158.48377,0.24698
6156.55502,0.24630
6154.62628,0.24564
6152.69753,0.24542
6150.76878,0.24560
6148.84004,0.24673
6146.91129,0.24816
6144.98255,0.24914
6143.05380,0.25058
6141.12506,0.25253
6139.19631,0.25323
6137.26757,0.25206
6135.33882,0.25072
6133.41008,0.25048
6131.48133,0.25035
6129.55259,0.24980
6127.62384,0.24940
6125.69510,0.24904
6123.76635,0.24899
6121.83761,0.24960
6119.90886,0.25053
6117.98011,0.25203
6116.05137,0.25346
6114.12262,0.25301
6112.19388,0.25094
6110.26513,0.24942
6108.33639,0.24850
6106.40764,0.24673
6104.47890,0.24515
6102.55015,0.24565
6100.62141,0.24736
6098.69266,0.24831
6096.76392,0.24878
6094.83517,0.24907
6092.90643,0.24804
6090.97768,0.24647
6089.04893,0.24588
6087.12019,0.24554
6085.19144,0.24526
6083.26270,0.24614
6081.33395,0.24689
6079.40521,0.24534
6077.47646,0.24206
6075.54772,0.23919
6073.61897,0.23806
6071.69023,0.23780
6069.76148,0.23733
6067.83274,0.23709
6065.90399,0.23678
6063.97525,0.23545
6062.04650,0.23300
6060.11776,0.23011
6058.18901,0.22737
6056.26026,0.22504
6054.33152,0.22307
6052.40277,0.22137
6050.47403,0.21958
6048.54528,0.21659
6046.61654,0.21274
6044.68779,0.20966
6042.75905,0.20692
6040.83030,0.20418
6038.90156,0.20250
6036.97281,0.20071
6035.04407,0.19677
6033.11532,0.19213
6031.18658,0.18865
6029.25783,0.18501
6027.32909,0.18086
6025.40034,0.17783
6023.47159,0.17633
6021.54285,0.17563
6019.61410,0.17453
6017.68536,0.17235
6015.75661,0.16977
6013.82787,0.16744
6011.89912,0.16526
6009.97038,0.16352
6008.04163,0.16278
6006.11289,0.16261
6004.18414,0.16151
6002.25540,0.15898
6000.32665,0.15673
5998.39791,0.15606
5996.46916,0.15636
5994.54041,0.15694
5992.61167,0.15675
5990.68292,0.15544
5988.75418,0.15466
5986.82543,0.15460
5984.89669,0.15383
5982.96794,0.15216
5981.03920,0.15007
5979.11045,0.14822
5977.18171,0.14683
5975.25296,0.14471
5973.32422,0.14169
5971.39547,0.14021
5969.46673,0.14064
5967.53798,0.13997
5965.60924,0.13772
5963.68049,0.13595
5961.75174,0.13468
5959.82300,0.13310
5957.89425,0.13190
5955.96551,0.13117
5954.03676,0.13072
5952.10802,0.13199
5950.17927,0.13419
5948.25053,0.13462
5946.32178,0.13372
5944.39304,0.13312
5942.46429,0.13259
5940.53555,0.13313
5938.60680,0.13600
5936.67806,0.13844
5934.74931,0.13822
5932.82057,0.13829
5930.89182,0.14092
5928.96307,0.14412
5927.03433,0.14576
5925.10558,0.14627
5923.17684,0.14714
5921.24809,0.14878
5919.31935,0.15023
5917.39060,0.15085
5915.46186,0.15122
5913.53311,0.15142
5911.60437,0.15121
5909.67562,0.15121
5907.74688,0.15170
5905.81813,0.15219
5903.88939,0.15221
5901.96064,0.15211
5900.03189,0.15219
5898.10315,0.15195
5896.17440,0.15144
5894.24566,0.15119
5892.31691,0.15112
5890.38817,0.15081
5888.45942,0.14985
5886.53068,0.14853
5884.60193,0.14800
5882.67319,0.14795
5880.74444,0.14722
5878.81570,0.14685
5876.88695,0.14728
5874.95821,0.14716
5873.02946,0.14684
5871.10072,0.14696
5869.17197,0.14719
5867.24322,0.14792
5865.31448,0.14924
5863.38573,0.15012
5861.45699,0.14970
5859.52824,0.14896
5857.59950,0.14938
5855.67075,0.14995
5853.74201,0.14963
5851.81326,0.14971
5849.88452,0.15066
5847.95577,0.15149
5846.02703,0.15243
5844.09828,0.15389
5842.16954,0.15512
5840.24079,0.15557
5838.31205,0.15533
5836.38330,0.15454
5834.45455,0.15318
5832.52581,0.15201
5830.59706,0.15229
5828.66832,0.15320
5826.73957,0.15263
5824.81083,0.15062
5822.88208,0.14896
5820.95334,0.14865
5819.02459,0.14935
5817.09585,0.14995
5815.16710,0.14962
5813.23836,0.14888
5811.30961,0.14896
5809.38087,0.14982
5807.45212,0.15058
5805.52337,0.15103
5803.59463,0.15149
5801.66588,0.15167
5799.73714,0.15139
5797.80839,0.15097
5795.87965,0.15052
5793.95090,0.15043
5792.02216,0.15120
5790.09341,0.15276
5788.16467,0.15433
5786.23592,0.15499
5784.30718,0.15442
5782.37843,0.15334
5780.44969,0.15326
5778.52094,0.15440
5776.59220,0.15551
5774.66345,0.15623
5772.73470,0.15700
5770.80596,0.15796
5768.87721,0.15904
5766.94847,0.15999
5765.01972,0.16071
5763.09098,0.16127
5761.16223,0.16122
5759.23349,0.16076
5757.30474,0.16113
5755.37600,0.16236
5753.44725,0.16376
5751.51851,0.16506
5749.58976,0.16578
5747.66102,0.16593
5745.73227,0.16641
5743.80352,0.16778
5741.87478,0.16955
5739.94603,0.17107
5738.01729,0.17207
5736.08854,0.17269
5734.15980,0.17350
5732.23105,0.17411
5730.30231,0.17366
5728.37356,0.17325
5726.44482,0.17373
5724.51607,0.17396
5722.58733,0.17397
5720.65858,0.17483
5718.72984,0.17617
5716.80109,0.17759
5714.87235,0.17910
5712.94360,0.17972
5711.01485,0.17967
5709.08611,0.18041
5707.15736,0.18169
5705.22862,0.18285
5703.29987,0.18398
5701.37113,0.18485
5699.44238,0.18569
5697.51364,0.18671
5695.58489,0.18720
5693.65615,0.18672
5691.72740,0.18601
5689.79866,0.18609
5687.86991,0.18693
5685.94117,0.18814
5684.01242,0.18930
5682.08368,0.19002
5680.15493,0.19040
5678.22618,0.19024
5676.29744,0.18987
5674.36869,0.19046
5672.43995,0.19189
5670.51120,0.19281
5668.58246,0.19308
5666.65371,0.19333
5664.72497,0.19319
5662.79622,0.19250
5660.86748,0.19237
5658.93873,0.19276
5657.00999,0.19254
5655.08124,0.19184
5653.15250,0.19130
5651.22375,0.19095
5649.29500,0.19094
5647.36626,0.19139
5645.43751,0.19165
5643.50877,0.19099
5641.58002,0.19001
5639.65128,0.18934
5637.72253,0.18819
5635.79379,0.18677
5633.86504,0.18601
5631.93630,0.18549
5630.00755,0.18452
5628.07881,0.18300
5626.15006,0.18152
5624.22132,0.18112
5622.29257,0.18099
5620.36383,0.17967
5618.43508,0.17811
5616.50633,0.17732
5614.57759,0.17652
5612.64884,0.17575
5610.72010,0.17611
5608.79135,0.17725
5606.86261,0.17761
5604.93386,0.17707
5603.00512,0.17655
5601.07637,0.17641
5599.14763,0.17642
5597.21888,0.17610
5595.29014,0.17565
5593.36139,0.17544
5591.43265,0.17526
5589.50390,0.17550
5587.57516,0.17645
5585.64641,0.17699
5583.71766,0.17656
5581.78892,0.17641
5579.86017,0.17684
5577.93143,0.17714
5576.00268,0.17727
5574.07394,0.17730
5572.14519,0.17760
5570.21645,0.17870
5568.28770,0.17982
5566.35896,0.18007
5564.43021,0.17998
5562.50147,0.18027
5560.57272,0.18114
5558.64398,0.18233
5556.71523,0.18272
5554.78648,0.18212
5552.85774,0.18187
5550.92899,0.18223
5549.00025,0.18251
5547.07150,0.18293
5545.14276,0.18336
5543.21401,0.18338
5541.28527,0.18371
5539.35652,0.18427
5537.42778,0.18371
5535.49903,0.18235
5533.57029,0.18163
5531.64154,0.18139
5529.71280,0.18086
5527.78405,0.18035
5525.85531,0.18027
5523.92656,0.18052
5521.99781,0.18107
5520.06907,0.18125
5518.14032,0.18021
5516.21158,0.17893
5514.28283,0.17844
5512.35409,0.17778
5510.42534,0.17623
5508.49660,0.17486
5506.56785,0.17492
5504.63911,0.17560
5502.71036,0.17552
5500.78162,0.17493
5498.85287,0.17421
5496.92413,0.17325
5494.99538,0.17244
5493.06664,0.17204
5491.13789,0.17164
5489.20914,0.17101
5487.28040,0.17072
5485.35165,0.17091
5483.42291,0.17076
5481.49416,0.16986
5479.56542,0.16889
5477.63667,0.16856
5475.70793,0.16862
5473.77918,0.16868
5471.85044,0.16850
5469.92169,0.16785
5467.99295,0.16714
5466.06420,0.16692
5464.13546,0.16705
5462.20671,0.16736
5460.27796,0.16775
5458.34922,0.16791
5456.42047,0.16822
5454.49173,0.16899
5452.56298,0.16893
5450.63424,0.16785
5448.70549,0.16724
5446.77675,0.16731
5444.84800,0.16737
5442.91926,0.16751
5440.99051,0.16791
5439.06177,0.16799
5437.13302,0.16716
5435.20428,0.16620
5433.27553,0.16663
5431.34679,0.16790
5429.41804,0.16836
5427.48929,0.16787
5425.56055,0.16681
5423.63180,0.16561
5421.70306,0.16505
5419.77431,0.16483
5417.84557,0.16410
5415.91682,0.16274
5413.98808,0.16148
5412.05933,0.16110
5410.13059,0.16136
5408.20184,0.16117
5406.27310,0.16000
5404.34435,0.15891
5402.41561,0.15886
5400.48686,0.15879
5398.55811,0.15788
5396.62937,0.15711
5394.70062,0.15699
5392.77188,0.15672
5390.84313,0.15603
5388.91439,0.15552
5386.98564,0.15537
5385.05690,0.15546
5383.12815,0.15590
5381.19941,0.15671
5379.27066,0.15770
5377.34192,0.15825
5375.41317,0.15802
5373.48443,0.15768
5371.55568,0.15776
5369.62694,0.15827
5367.69819,0.15878
5365.76944,0.15872
5363.84070,0.15824
5361.91195,0.15796
5359.98321,0.15806
5358.05446,0.15860
5356.12572,0.15947
5354.19697,0.15987
5352.26823,0.15978
5350.33948,0.15983
5348.41074,0.15983
5346.48199,0.15957
5344.55325,0.15902
5342.62450,0.15821
5340.69576,0.15737
5338.76701,0.15655
5336.83827,0.15604
5334.90952,0.15598
5332.98077,0.15579
5331.05203,0.15530
5329.12328,0.15489
5327.19454,0.15457
5325.26579,0.15387
5323.33705,0.15296
5321.40830,0.15233
5319.47956,0.15174
5317.55081,0.15096
5315.62207,0.15032
5313.69332,0.15000
5311.76458,0.14986
5309.83583,0.14965
5307.90709,0.14917
5305.97834,0.14836
5304.04959,0.14743
5302.12085,0.14668
5300.19210,0.14545
5298.26336,0.14322
5296.33461,0.14106
5294.40587,0.13989
5292.47712,0.13911
5290.54838,0.13746
5288.61963,0.13495
5286.69089,0.13317
5284.76214,0.13257
5282.83340,0.13191
5280.90465,0.13062
5278.97591,0.12920
5277.04716,0.12782
5275.11842,0.12665
5273.18967,0.12570
5271.26092,0.12453
5269.33218,0.12339
5267.40343,0.12234
5265.47469,0.12102
5263.54594,0.11986
5261.61720,0.11917
5259.68845,0.11879
5257.75971,0.11847
5255.83096,0.11782
5253.90222,0.11702
5251.97347,0.11619
5250.04473,0.11521
5248.11598,0.11479
5246.18724,0.11524
5244.25849,0.11551
5242.32975,0.11511
5240.40100,0.11472
5238.47225,0.11475
5236.54351,0.11518
5234.61476,0.11594
5232.68602,0.11631
5230.75727,0.11621
5228.82853,0.11658
5226.89978,0.11739
5224.97104,0.11822
5223.04229,0.11935
5221.11355,0.12043
5219.18480,0.12071
5217.25606,0.12084
5215.32731,0.12174
5213.39857,0.12272
5211.46982,0.12283
5209.54107,0.12270
5207.61233,0.12335
5205.68358,0.12457
5203.75484,0.12543
5201.82609,0.12569
5199.89735,0.12638
5197.96860,0.12794
5196.03986,0.12924
5194.11111,0.12957
5192.18237,0.12956
5190.25362,0.12947
5188.32488,0.12913
5186.39613,0.12888
5184.46739,0.12924
5182.53864,0.12979
5180.60990,0.12996
5178.68115,0.13012
5176.75240,0.13046
5174.82366,0.13059
5172.89491,0.13030
5170.96617,0.12960
5169.03742,0.12895
5167.10868,0.12869
5165.17993,0.12869
5163.25119,0.12876
5161.32244,0.12853
5159.39370,0.12781
5157.46495,0.12684
5155.53621,0.12585
5153.60746,0.12488
5151.67872,0.12402
5149.74997,0.12359
5147.82123,0.12353
5145.89248,0.12330
5143.96373,0.12294
5142.03499,0.12295
5140.10624,0.12292
5138.17750,0.12247
5136.24875,0.12197
5134.32001,0.12183
5132.39126,0.12190
5130.46252,0.12148
5128.53377,0.12061
5126.60503,0.12032
5124.67628,0.12095
5122.74754,0.12187
5120.81879,0.12199
5118.89005,0.12096
5116.96130,0.11972
5115.03255,0.11934
5113.10381,0.12013
5111.17506,0.12130
5109.24632,0.12215
5107.31757,0.12281
5105.38883,0.12311
5103.46008,0.12292
5101.53134,0.12315
5099.60259,0.12408
5097.67385,0.12449
5095.74510,0.12421
5093.81636,0.12414
5091.88761,0.12434
5089.95887,0.12447
5088.03012,0.12477
5086.10138,0.12545
5084.17263,0.12596
5082.24388,0.12601
5080.31514,0.12586
5078.38639,0.12570
5076.45765,0.12574
5074.52890,0.12580
5072.60016,0.12581
5070.67141,0.12587
5068.74267,0.12568
5066.81392,0.12510
5064.88518,0.12450
5062.95643,0.12443
5061.02769,0.12487
5059.09894,0.12520
5057.17020,0.12518
5055.24145,0.12488
5053.31270,0.12465
5051.38396,0.12444
5049.45521,0.12377
5047.52647,0.12320
5045.59772,0.12330
5043.66898,0.12339
5041.74023,0.12317
5039.81149,0.12291
5037.88274,0.12280
5035.95400,0.12294
5034.02525,0.12296
5032.09651,0.12240
5030.16776,0.12171
5028.23902,0.12155
5026.31027,0.12161
5024.38153,0.12147
5022.45278,0.12140
5020.52403,0.12141
5018.59529,0.12118
5016.66654,0.12066
5014.73780,0.11992
5012.80905,0.11937
5010.88031,0.11916
5008.95156,0.11879
5007.02282,0.11835
5005.09407,0.11826
5003.16533,0.11803
5001.23658,0.11753
4999.30784,0.11744
4997.37909,0.11765
4995.45035,0.11744
4993.52160,0.11680
4991.59286,0.11606
4989.66411,0.11555
4987.73536,0.11550
4985.80662,0.11578
4983.87787,0.11632
4981.94913,0.11699
4980.02038,0.11725
4978.09164,0.11677
4976.16289,0.11579
4974.23415,0.11490
4972.30540,0.11467
4970.37666,0.11497
4968.44791,0.11519
4966.51917,0.11530
4964.59042,0.11540
4962.66168,0.11491
4960.73293,0.11377
4958.80418,0.11288
4956.87544,0.11270
4954.94669,0.11286
4953.01795,0.11266
4951.08920,0.11199
4949.16046,0.11158
4947.23171,0.11169
4945.30297,0.11175
4943.37422,0.11139
4941.44548,0.11073
4939.51673,0.11003
4937.58799,0.10948
4935.65924,0.10911
4933.73050,0.10909
4931.80175,0.10956
4929.87301,0.10983
4927.94426,0.10924
4926.01551,0.10858
4924.08677,0.10871
4922.15802,0.10911
4920.22928,0.10878
4918.30053,0.10803
4916.37179,0.10779
4914.44304,0.10793
4912.51430,0.10806
4910.58555,0.10827
4908.65681,0.10837
4906.72806,0.10788
4904.79932,0.10712
4902.87057,0.10664
4900.94183,0.10627
4899.01308,0.10592
4897.08434,0.10559
4895.15559,0.10512
4893.22684,0.10481
4891.29810,0.10492
4889.36935,0.10516
4887.44061,0.10535
4885.51186,0.10526
4883.58312,0.10468
4881.65437,0.10402
4879.72563,0.10369
4877.79688,0.10378
4875.86814,0.10427
4873.93939,0.10455
4872.01065,0.10451
4870.08190,0.10478
4868.15316,0.10506
4866.22441,0.10465
4864.29566,0.10388
4862.36692,0.10332
4860.43817,0.10295
4858.50943,0.10266
4856.58068,0.10252
4854.65194,0.10231
4852.72319,0.10188
4850.79445,0.10138
4848.86570,0.10099
4846.93696,0.10079
4845.00821,0.10090
4843.07947,0.10126
4841.15072,0.10154
4839.22198,0.10155
4837.29323,0.10107
4835.36449,0.10020
4833.43574,0.09989
4831.50699,0.10020
4829.57825,0.10015
4827.64950,0.09943
4825.72076,0.09858
4823.79201,0.09843
4821.86327,0.09874
4819.93452,0.09854
4818.00578,0.09795
4816.07703,0.09738
4814.14829,0.09685
4812.21954,0.09651
4810.29080,0.09648
4808.36205,0.09666
4806.43331,0.09659
4804.50456,0.09611
4802.57582,0.09590
4800.64707,0.09615
4798.71832,0.09614
4796.78958,0.09551
4794.86083,0.09474
4792.93209,0.09442
4791.00334,0.09465
4789.07460,0.09510
4787.14585,0.09530
4785.21711,0.09498
4783.28836,0.09430
4781.35962,0.09359
4779.43087,0.09288
4777.50213,0.09215
4775.57338,0.09159
4773.64464,0.09130
4771.71589,0.09111
4769.78714,0.09081
4767.85840,0.09036
4765.92965,0.08990
4764.00091,0.08948
4762.07216,0.08915
4760.14342,0.08882
4758.21467,0.08829
4756.28593,0.08764
4754.35718,0.08730
4752.42844,0.08707
4750.49969,0.08636
4748.57095,0.08542
4746.64220,0.08489
4744.71346,0.08469
4742.78471,0.08445
4740.85597,0.08404
4738.92722,0.08345
4736.99847,0.08269
4735.06973,0.08232
4733.14098,0.08259
4731.21224,0.08279
4729.28349,0.08259
4727.35475,0.08253
4725.42600,0.08264
4723.49726,0.08254
4721.56851,0.08217
4719.63977,0.08171
4717.71102,0.08129
4715.78228,0.08093
4713.85353,0.08068
4711.92479,0.08061
4709.99604,0.08047
4708.06729,0.08000
4706.13855,0.07936
4704.20980,0.07868
4702.28106,0.07800
4700.35231,0.07761
4698.42357,0.07740
4696.49482,0.07685
4694.56608,0.07583
4692.63733,0.07478
4690.70859,0.07412
4688.77984,0.07380
4686.85110,0.07369
4684.92235,0.07369
4682.99361,0.07379
4681.06486,0.07400
4679.13612,0.07408
4677.20737,0.07394
4675.27862,0.07362
4673.34988,0.07331
4671.42113,0.07350
4669.49239,0.07410
4667.56364,0.07449
4665.63490,0.07432
4663.70615,0.07396
4661.77741,0.07413
4659.84866,0.07472
4657.91992,0.07484
4655.99117,0.07407
4654.06243,0.07297
4652.13368,0.07237
4650.20494,0.07264
4648.27619,0.07323
4646.34745,0.07329
4644.41870,0.07267
4642.48995,0.07188
4640.56121,0.07143
4638.63246,0.07137
4636.70372,0.07121
4634.77497,0.07068
4632.84623,0.07002
4630.91748,0.06956
4628.98874,0.06930
4627.05999,0.06906
4625.13125,0.06896
4623.20250,0.06886
4621.27376,0.06830
4619.34501,0.06736
4617.41627,0.06689
4615.48752,0.06715
4613.55877,0.06741
4611.63003,0.06698
4609.70128,0.06615
4607.77254,0.06579
4605.84379,0.06578
4603.91505,0.06562
4601.98630,0.06547
4600.05756,0.06515
4598.12881,0.06439
4596.20007,0.06376
4594.27132,0.06373
4592.34258,0.06397
4590.41383,0.06386
4588.48509,0.06337
4586.55634,0.06292
4584.62760,0.06257
4582.69885,0.06220
4580.77010,0.06199
4578.84136,0.06207
4576.91261,0.06232
4574.98387,0.06260
4573.05512,0.06278
4571.12638,0.06288
4569.19763,0.06290
4567.26889,0.06267
4565.34014,0.06220
4563.41140,0.06180
4561.48265,0.06146
4559.55391,0.06104
4557.62516,0.06068
4555.69642,0.06063
4553.76767,0.06089
4551.83893,0.06111
4549.91018,0.06118
4547.98143,0.06098
4546.05269,0.06039
4544.12394,0.05986
4542.19520,0.05977
4540.26645,0.05981
4538.33771,0.05967
4536.40896,0.05931
4534.48022,0.05897
4532.55147,0.05888
4530.62273,0.05897
4528.69398,0.05892
4526.76524,0.05849
4524.83649,0.05795
4522.90775,0.05759
4520.97900,0.05731
4519.05025,0.05680
4517.12151,0.05635
4515.19276,0.05655
4513.26402,0.05708
4511.33527,0.05720
4509.40653,0.05709
4507.47778,0.05707
4505.54904,0.05692
4503.62029,0.05653
4501.69155,0.05601
4499.76280,0.05571
4497.83406,0.05577
4495.90531,0.05603
4493.97657,0.05633
4492.04782,0.05635
4490.11908,0.05606
4488.19033,0.05599
4486.26158,0.05626
4484.33284,0.05623
4482.40409,0.05556
4480.47535,0.05467
4478.54660,0.05408
4476.61786,0.05397
4474.68911,0.05429
4472.76037,0.05474
4470.83162,0.05492
4468.90288,0.05467
4466.97413,0.05412
4465.04539,0.05380
4463.11664,0.05391
4461.18790,0.05387
4459.25915,0.05333
4457.33041,0.05290
4455.40166,0.05310
4453.47291,0.05344
4451.54417,0.05349
4449.61542,0.05337
4447.68668,0.05322
4445.75793,0.05312
4443.82919,0.05318
4441.90044,0.05340
4439.97170,0.05348
4438.04295,0.05312
4436.11421,0.05260
4434.18546,0.05247
4432.25672,0.05277
4430.32797,0.05307
4428.39923,0.05316
4426.47048,0.05337
4424.54173,0.05370
4422.61299,0.05380
4420.68424,0.05375
4418.75550,0.05360
4416.82675,0.05340
4414.89801,0.05332
4412.96926,0.05346
4411.04052,0.05385
4409.11177,0.05405
4407.18303,0.05367
4405.25428,0.05307
4403.32554,0.05281
4401.39679,0.05285
4399.46805,0.05300
4397.53930,0.05311
4395.61056,0.05322
4393.68181,0.05341
4391.75306,0.05349
4389.82432,0.05329
4387.89557,0.05317
4385.96683,0.05363
4384.03808,0.05427
4382.10934,0.05416
4380.18059,0.05336
4378.25185,0.05288
4376.32310,0.05299
4374.39436,0.05331
4372.46561,0.05377
4370.53687,0.05416
4368.60812,0.05416
4366.67938,0.05408
4364.75063,0.05413
4362.82189,0.05399
4360.89314,0.05371
4358.96439,0.05374
4357.03565,0.05408
4355.10690,0.05437
4353.17816,0.05459
4351.24941,0.05468
4349.32067,0.05464
4347.39192,0.05463
4345.46318,0.05459
4343.53443,0.05449
4341.60569,0.05453
4339.67694,0.05457
4337.74820,0.05424
4335.81945,0.05386
4333.89071,0.05396
4331.96196,0.05425
4330.03321,0.05433
4328.10447,0.05439
4326.17572,0.05457
4324.24698,0.05463
4322.31823,0.05425
4320.38949,0.05369
4318.46074,0.05367
4316.53200,0.05430
4314.60325,0.05471
4312.67451,0.05438
4310.74576,0.05390
4308.81702,0.05382
4306.88827,0.05396
4304.95953,0.05408
4303.03078,0.05427
4301.10204,0.05450
4299.17329,0.05476
4297.24454,0.05497
4295.31580,0.05491
4293.38705,0.05475
4291.45831,0.05473
4289.52956,0.05466
4287.60082,0.05464
4285.67207,0.05484
4283.74333,0.05502
4281.81458,0.05502
4279.88584,0.05497
4277.95709,0.05495
4276.02835,0.05495
4274.09960,0.05500
4272.17086,0.05487
4270.24211,0.05445
4268.31336,0.05428
4266.38462,0.05459
4264.45587,0.05467
4262.52713,0.05432
4260.59838,0.05414
4258.66964,0.05435
4256.74089,0.05457
4254.81215,0.05462
4252.88340,0.05458
4250.95466,0.05455
4249.02591,0.05441
4247.09717,0.05396
4245.16842,0.05365
4243.23968,0.05387
4241.31093,0.05416
4239.38219,0.05421
4237.45344,0.05418
4235.52469,0.05427
4233.59595,0.05431
4231.66720,0.05419
4229.73846,0.05410
4227.80971,0.05410
4225.88097,0.05416
4223.95222,0.05425
4222.02348,0.05423
4220.09473,0.05414
4218.16599,0.05419
4216.23724,0.05443
4214.30850,0.05456
4212.37975,0.05437
4210.45101,0.05404
4208.52226,0.05382
4206.59352,0.05385
4204.66477,0.05424
4202.73602,0.05475
4200.80728,0.05490
4198.87853,0.05476
4196.94979,0.05455
4195.02104,0.05431
4193.09230,0.05418
4191.16355,0.05426
4189.23481,0.05461
4187.30606,0.05483
4185.37732,0.05440
4183.44857,0.05381
4181.51983,0.05385
4179.59108,0.05436
4177.66234,0.05459
4175.73359,0.05430
4173.80484,0.05366
4171.87610,0.05313
4169.94735,0.05312
4168.01861,0.05357
4166.08986,0.05407
4164.16112,0.05435
4162.23237,0.05441
4160.30363,0.05436
4158.37488,0.05448
4156.44614,0.05471
4154.51739,0.05460
4152.58865,0.05423
4150.65990,0.05400
4148.73116,0.05386
4146.80241,0.05364
4144.87367,0.05353
4142.94492,0.05360
4141.01617,0.05380
4139.08743,0.05417
4137.15868,0.05457
4135.22994,0.05469
4133.30119,0.05445
4131.37245,0.05418
4129.44370,0.05417
4127.51496,0.05427
4125.58621,0.05431
4123.65747,0.05440
4121.72872,0.05453
4119.79998,0.05446
4117.87123,0.05425
4115.94249,0.05430
4114.01374,0.05448
4112.08500,0.05436
4110.15625,0.05416
4108.22750,0.05418
4106.29876,0.05436
4104.37001,0.05462
4102.44127,0.05473
4100.51252,0.05459
4098.58378,0.05440
4096.65503,0.05427
4094.72629,0.05420
4092.79754,0.05422
4090.86880,0.05434
4088.94005,0.05465
4087.01131,0.05501
4085.08256,0.05510
4083.15382,0.05491
4081.22507,0.05468
4079.29632,0.05445
4077.36758,0.05419
4075.43883,0.05416
4073.51009,0.05457
4071.58134,0.05498
4069.65260,0.05498
4067.72385,0.05483
4065.79511,0.05498
4063.86636,0.05534
4061.93762,0.05551
4060.00887,0.05539
4058.08013,0.05521
4056.15138,0.05501
4054.22264,0.05485
4052.29389,0.05484
4050.36515,0.05494
4048.43640,0.05502
4046.50765,0.05501
4044.57891,0.05494
4042.65016,0.05503
4040.72142,0.05508
4038.79267,0.05492
4036.86393,0.05483
4034.93518,0.05500
4033.00644,0.05527
4031.07769,0.05544
4029.14895,0.05551
4027.22020,0.05540
4025.29146,0.05496
4023.36271,0.05445
4021.43397,0.05419
4019.50522,0.05415
4017.57648,0.05429
4015.64773,0.05450
4013.71898,0.05445
4011.79024,0.05426
4009.86149,0.05427
4007.93275,0.05443
4006.00400,0.05458
4004.07526,0.05472
4002.14651,0.05478
4000.21777,0.05476
3998.28902,0.05472
3996.36028,0.05459
3994.43153,0.05441
3992.50279,0.05441
3990.57404,0.05451
3988.64530,0.05453
3986.71655,0.05456
3984.78780,0.05459
3982.85906,0.05462
3980.93031,0.05472
3979.00157,0.05474
3977.07282,0.05461
3975.14408,0.05453
3973.21533,0.05443
3971.28659,0.05435
3969.35784,0.05446
3967.42910,0.05472
3965.50035,0.05483
3963.57161,0.05482
3961.64286,0.05494
3959.71412,0.05513
3957.78537,0.05530
3955.85663,0.05537
3953.92788,0.05515
3951.99913,0.05479
3950.07039,0.05455
3948.14164,0.05450
3946.21290,0.05464
3944.28415,0.05486
3942.35541,0.05499
3940.42666,0.05483
3938.49792,0.05448
3936.56917,0.05424
3934.64043,0.05424
3932.71168,0.05450
3930.78294,0.05474
3928.85419,0.05467
3926.92545,0.05445
3924.99670,0.05422
3923.06795,0.05397
3921.13921,0.05387
3919.21046,0.05388
3917.28172,0.05381
3915.35297,0.05369
3913.42423,0.05369
3911.49548,0.05373
3909.56674,0.05364
3907.63799,0.05353
3905.70925,0.05356
3903.78050,0.05366
3901.85176,0.05362
3899.92301,0.05355
3897.99427,0.05358
3896.06552,0.05370
3894.13678,0.05385
3892.20803,0.05389
3890.27928,0.05397
3888.35054,0.05426
3886.42179,0.05435
3884.49305,0.05415
3882.56430,0.05410
3880.63556,0.05421
3878.70681,0.05425
3876.77807,0.05435
3874.84932,0.05450
3872.92058,0.05448
3870.99183,0.05417
3869.06309,0.05387
3867.13434,0.05380
3865.20560,0.05361
3863.27685,0.05318
3861.34811,0.05305
3859.41936,0.05343
3857.49061,0.05389
3855.56187,0.05408
3853.63312,0.05388
3851.70438,0.05362
3849.77563,0.05361
3847.84689,0.05379
3845.91814,0.05409
3843.98940,0.05432
3842.06065,0.05436
3840.13191,0.05433
3838.20316,0.05425
3836.27442,0.05402
3834.34567,0.05371
3832.41693,0.05346
3830.48818,0.05334
3828.55943,0.05350
3826.63069,0.05382
3824.70194,0.05389
3822.77320,0.05371
3820.84445,0.05358
3818.91571,0.05372
3816.98696,0.05391
3815.05822,0.05405
3813.12947,0.05429
3811.20073,0.05464
3809.27198,0.05482
3807.34324,0.05462
3805.41449,0.05422
3803.48575,0.05398
3801.55700,0.05394
3799.62826,0.05415
3797.69951,0.05449
3795.77076,0.05457
3793.84202,0.05419
3791.91327,0.05379
3789.98453,0.05382
3788.05578,0.05412
3786.12704,0.05434
3784.19829,0.05436
3782.26955,0.05411
3780.34080,0.05376
3778.41206,0.05369
3776.48331,0.05372
3774.55457,0.05359
3772.62582,0.05365
3770.69708,0.05383
3768.76833,0.05390
3766.83959,0.05404
3764.91084,0.05417
3762.98209,0.05409
3761.05335,0.05384
3759.12460,0.05352
3757.19586,0.05335
3755.26711,0.05334
3753.33837,0.05316
3751.40962,0.05275
3749.48088,0.05269
3747.55213,0.05314
3745.62339,0.05331
3743.69464,0.05301
3741.76590,0.05289
3739.83715,0.05284
3737.90841,0.05283
3735.97966,0.05322
3734.05091,0.05348
3732.12217,0.05311
3730.19342,0.05275
3728.26468,0.05289
3726.33593,0.05340
3724.40719,0.05394
3722.47844,0.05424
3720.54970,0.05425
3718.62095,0.05395
3716.69221,0.05354
3714.76346,0.05320
3712.83472,0.05300
3710.90597,0.05307
3708.97723,0.05322
3707.04848,0.05310
3705.11974,0.05292
3703.19099,0.05293
3701.26224,0.05302
3699.33350,0.05314
3697.40475,0.05330
3695.47601,0.05345
3693.54726,0.05351
3691.61852,0.05336
3689.68977,0.05301
3687.76103,0.05279
3685.83228,0.05271
3683.90354,0.05260
3681.97479,0.05252
3680.04605,0.05273
3678.11730,0.05320
3676.18856,0.05333
3674.25981,0.05310
3672.33107,0.05316
3670.40232,0.05300
3668.47357,0.05236
3666.54483,0.05221
3664.61608,0.05269
3662.68734,0.05300
3660.75859,0.05293
3658.82985,0.05278
3656.90110,0.05260
3654.97236,0.05243
3653.04361,0.05239
3651.11487,0.05243
3649.18612,0.05242
3647.25738,0.05248
3645.32863,0.05265
3643.39989,0.05273
3641.47114,0.05272
3639.54239,0.05277
3637.61365,0.05284
3635.68490,0.05307
3633.75616,0.05371
3631.82741,0.05461
3629.89867,0.05547
3627.96992,0.05613
3626.04118,0.05651
3624.11243,0.05658
3622.18369,0.05637
3620.25494,0.05594
3618.32620,0.05513
3616.39745,0.05417
3614.46871,0.05357
3612.53996,0.05343
3610.61122,0.05351
3608.68247,0.05361
3606.75372,0.05361
3604.82498,0.05347
3602.89623,0.05328
3600.96749,0.05312
3599.03874,0.05309
3597.11000,0.05322
3595.18125,0.05329
3593.25251,0.05314
3591.32376,0.05294
3589.39502,0.05281
3587.46627,0.05270
3585.53753,0.05262
3583.60878,0.05256
3581.68004,0.05245
3579.75129,0.05244
3577.82254,0.05258
3575.89380,0.05264
3573.96505,0.05262
3572.03631,0.05281
3570.10756,0.05315
3568.17882,0.05324
3566.25007,0.05302
3564.32133,0.05293
3562.39258,0.05306
3560.46384,0.05312
3558.53509,0.05312
3556.60635,0.05300
3554.67760,0.05273
3552.74886,0.05265
3550.82011,0.05293
3548.89137,0.05340
3546.96262,0.05398
3545.03387,0.05471
3543.10513,0.05557
3541.17638,0.05652
3539.24764,0.05763
3537.31889,0.05934
3535.39015,0.06154
3533.46140,0.06351
3531.53266,0.06476
3529.60391,0.06491
3527.67517,0.06377
3525.74642,0.06198
3523.81768,0.06048
3521.88893,0.05966
3519.96019,0.05926
3518.03144,0.05888
3516.10270,0.05849
3514.17395,0.05827
3512.24520,0.05828
3510.31646,0.05834
3508.38771,0.05839
3506.45897,0.05869
3504.53022,0.05935
3502.60148,0.05988
3500.67273,0.06009
3498.74399,0.06050
3496.81524,0.06145
3494.88650,0.06273
3492.95775,0.06397
3491.02901,0.06508
3489.10026,0.06615
3487.17152,0.06722
3485.24277,0.06818
3483.31402,0.06892
3481.38528,0.06946
3479.45653,0.06990
3477.52779,0.07055
3475.59904,0.07151
3473.67030,0.07240
3471.74155,0.07291
3469.81281,0.07311
3467.88406,0.07325
3465.95532,0.07351
3464.02657,0.07375
3462.09783,0.07358
3460.16908,0.07296
3458.24034,0.07223
3456.31159,0.07145
3454.38285,0.07059
3452.45410,0.06979
3450.52535,0.06896
3448.59661,0.06794
3446.66786,0.06678
3444.73912,0.06563
3442.81037,0.06451
3440.88163,0.06333
3438.95288,0.06220
3437.02414,0.06132
3435.09539,0.06049
3433.16665,0.05961
3431.23790,0.05873
3429.30916,0.05770
3427.38041,0.05655
3425.45167,0.05553
3423.52292,0.05476
3421.59418,0.05425
3419.66543,0.05392
3417.73668,0.05367
3415.80794,0.05358
3413.87919,0.05358
3411.95045,0.05318
3410.02170,0.05253
3408.09296,0.05231
3406.16421,0.05251
3404.23547,0.05281
3402.30672,0.05318
3400.37798,0.05375
3398.44923,0.05436
3396.52049,0.05466
3394.59174,0.05459
3392.66300,0.05450
3390.73425,0.05454
3388.80550,0.05428
3386.87676,0.05361
3384.94801,0.05326
3383.01927,0.05366
3381.09052,0.05445
3379.16178,0.05544
3377.23303,0.05643
3375.30429,0.05683
3373.37554,0.05657
3371.44680,0.05625
3369.51805,0.05613
3367.58931,0.05589
3365.66056,0.05537
3363.73182,0.05488
3361.80307,0.05468
3359.87433,0.05457
3357.94558,0.05429
3356.01683,0.05403
3354.08809,0.05400
3352.15934,0.05412
3350.23060,0.05419
3348.30185,0.05414
3346.37311,0.05413
3344.44436,0.05421
3342.51562,0.05416
3340.58687,0.05388
3338.65813,0.05371
3336.72938,0.05378
3334.80064,0.05374
3332.87189,0.05359
3330.94315,0.05348
3329.01440,0.05332
3327.08566,0.05316
3325.15691,0.05324
3323.22816,0.05343
3321.29942,0.05340
3319.37067,0.05323
3317.44193,0.05329
3315.51318,0.05348
3313.58444,0.05340
3311.65569,0.05308
3309.72695,0.05299
3307.79820,0.05331
3305.86946,0.05361
3303.94071,0.05359
3302.01197,0.05344
3300.08322,0.05334
3298.15448,0.05323
3296.22573,0.05299
3294.29698,0.05279
3292.36824,0.05274
3290.43949,0.05268
3288.51075,0.05267
3286.58200,0.05286
3284.65326,0.05311
3282.72451,0.05305
3280.79577,0.05266
3278.86702,0.05242
3276.93828,0.05254
3275.00953,0.05278
3273.08079,0.05282
3271.15204,0.05268
3269.22330,0.05256
3267.29455,0.05248
3265.36581,0.05228
3263.43706,0.05208
3261.50831,0.05217
3259.57957,0.05250
3257.65082,0.05273
3255.72208,0.05290
3253.79333,0.05319
3251.86459,0.05329
3249.93584,0.05288
3248.00710,0.05242
3246.07835,0.05242
3244.14961,0.05251
3242.22086,0.05243
3240.29212,0.05264
3238.36337,0.05311
3236.43463,0.05311
3234.50588,0.05271
3232.57713,0.05256
3230.64839,0.05263
3228.71964,0.05253
3226.79090,0.05234
3224.86215,0.05235
3222.93341,0.05251
3221.00466,0.05257
3219.07592,0.05260
3217.14717,0.05268
3215.21843,0.05268
3213.28968,0.05279
3211.36094,0.05302
3209.43219,0.05294
3207.50345,0.05271
3205.57470,0.05275
3203.64596,0.05287
3201.71721,0.05295
3199.78846,0.05313
3197.85972,0.05335
3195.93097,0.05349
3194.00223,0.05360
3192.07348,0.05375
3190.14474,0.05387
3188.21599,0.05394
3186.28725,0.05387
3184.35850,0.05366
3182.42976,0.05341
3180.50101,0.05333
3178.57227,0.05356
3176.64352,0.05381
3174.71478,0.05370
3172.78603,0.05334
3170.85729,0.05308
3168.92854,0.05305
3166.99979,0.05310
3165.07105,0.05314
3163.14230,0.05324
3161.21356,0.05330
3159.28481,0.05315
3157.35607,0.05314
3155.42732,0.05354
3153.49858,0.05391
3151.56983,0.05385
3149.64109,0.05348
3147.71234,0.05332
3145.78360,0.05352
3143.85485,0.05356
3141.92611,0.05329
3139.99736,0.05311
3138.06861,0.05301
3136.13987,0.05280
3134.21112,0.05269
3132.28238,0.05279
3130.35363,0.05286
3128.42489,0.05265
3126.49614,0.05233
3124.56740,0.05217
3122.63865,0.05236
3120.70991,0.05272
3118.78116,0.05290
3116.85242,0.05286
3114.92367,0.05277
3112.99493,0.05280
3111.06618,0.05306
3109.13744,0.05333
3107.20869,0.05333
3105.27994,0.05306
3103.35120,0.05272
3101.42245,0.05256
3099.49371,0.05265
3097.56496,0.05289
3095.63622,0.05309
3093.70747,0.05293
3091.77873,0.05251
3089.84998,0.05237
3087.92124,0.05260
3085.99249,0.05285
3084.06375,0.05278
3082.13500,0.05256
3080.20626,0.05249
3078.27751,0.05250
3076.34877,0.05249
3074.42002,0.05252
3072.49127,0.05258
3070.56253,0.05249
3068.63378,0.05221
3066.70504,0.05206
3064.77629,0.05216
3062.84755,0.05216
3060.91880,0.05187
3058.99006,0.05162
3057.06131,0.05162
3055.13257,0.05163
3053.20382,0.05147
3051.27508,0.05129
3049.34633,0.05113
3047.41759,0.05084
3045.48884,0.05052
3043.56009,0.05025
3041.63135,0.05002
3039.70260,0.04980
3037.77386,0.04951
3035.84511,0.04930
3033.91637,0.04927
3031.98762,0.04920
3030.05888,0.04901
3028.13013,0.04871
3026.20139,0.04830
3024.27264,0.04796
3022.34390,0.04783
3020.41515,0.04786
3018.48641,0.04798
3016.55766,0.04810
3014.62892,0.04816
3012.70017,0.04836
3010.77142,0.04864
3008.84268,0.04861
3006.91393,0.04815
3004.98519,0.04765
3003.05644,0.04757
3001.12770,0.04782
2999.19895,0.04813
2997.27021,0.04843
2995.34146,0.04869
2993.41272,0.04891
2991.48397,0.04919
2989.55523,0.04953
2987.62648,0.04965
2985.69774,0.04962
2983.76899,0.04980
2981.84025,0.05000
2979.91150,0.05004
2977.98275,0.04994
2976.05401,0.04957
2974.12526,0.04920
2972.19652,0.04927
2970.26777,0.04948
2968.33903,0.04920
2966.41028,0.04865
2964.48154,0.04840
2962.55279,0.04835
2960.62405,0.04835
2958.69530,0.04856
2956.76656,0.04893
2954.83781,0.04922
2952.90907,0.04933
2950.98032,0.04953
2949.05157,0.05010
2947.12283,0.05081
2945.19408,0.05136
2943.26534,0.05179
2941.33659,0.05204
2939.40785,0.05203
2937.47910,0.05205
2935.55036,0.05229
2933.62161,0.05254
2931.69287,0.05262
2929.76412,0.05274
2927.83538,0.05317
2925.90663,0.05369
2923.97789,0.05400
2922.04914,0.05422
2920.12040,0.05445
2918.19165,0.05457
2916.26290,0.05447
2914.33416,0.05414
2912.40541,0.05376
2910.47667,0.05359
2908.54792,0.05361
2906.61918,0.05360
2904.69043,0.05356
2902.76169,0.05352
2900.83294,0.05339
2898.90420,0.05324
2896.97545,0.05316
2895.04671,0.05317
2893.11796,0.05307
2891.18922,0.05279
2889.26047,0.05271
2887.33172,0.05305
2885.40298,0.05336
2883.47423,0.05332
2881.54549,0.05316
2879.61674,0.05319
2877.68800,0.05317
2875.75925,0.05292
2873.83051,0.05290
2871.90176,0.05320
2869.97302,0.05337
2868.04427,0.05324
2866.11553,0.05301
2864.18678,0.05300
2862.25804,0.05325
2860.32929,0.05342
2858.40055,0.05336
2856.47180,0.05331
2854.54305,0.05351
2852.61431,0.05390
2850.68556,0.05416
2848.75682,0.05406
2846.82807,0.05392
2844.89933,0.05392
2842.97058,0.05384
2841.04184,0.05366
2839.11309,0.05349
2837.18435,0.05328
2835.25560,0.05322
2833.32686,0.05341
2831.39811,0.05364
2829.46937,0.05362
2827.54062,0.05339
2825.61188,0.05330
2823.68313,0.05341
2821.75438,0.05359
2819.82564,0.05383
2817.89689,0.05405
2815.96815,0.05411
2814.03940,0.05414
2812.11066,0.05431
2810.18191,0.05451
2808.25317,0.05453
2806.32442,0.05439
2804.39568,0.05433
2802.46693,0.05448
2800.53819,0.05456
2798.60944,0.05442
2796.68070,0.05434
2794.75195,0.05448
2792.82320,0.05455
2790.89446,0.05443
2788.96571,0.05437
2787.03697,0.05452
2785.10822,0.05465
2783.17948,0.05470
2781.25073,0.05472
2779.32199,0.05463
2777.39324,0.05451
2775.46450,0.05454
2773.53575,0.05453
2771.60701,0.05431
2769.67826,0.05406
2767.74952,0.05405
2765.82077,0.05429
2763.89203,0.05458
2761.96328,0.05470
2760.03453,0.05459
2758.10579,0.05437
2756.17704,0.05434
2754.24830,0.05467
2752.31955,0.05512
2750.39081,0.05525
2748.46206,0.05504
2746.53332,0.05484
2744.60457,0.05473
2742.67583,0.05472
2740.74708,0.05483
2738.81834,0.05508
2736.88959,0.05536
2734.96085,0.05548
2733.03210,0.05550
2731.10336,0.05551
2729.17461,0.05540
2727.24586,0.05515
2725.31712,0.05506
2723.38837,0.05528
2721.45963,0.05554
2719.53088,0.05555
2717.60214,0.05537
2715.67339,0.05527
2713.74465,0.05541
2711.81590,0.05570
2709.88716,0.05585
2707.95841,0.05575
2706.02967,0.05563
2704.10092,0.05551
2702.17218,0.05521
2700.24343,0.05500
2698.31468,0.05511
2696.38594,0.05532
2694.45719,0.05537
2692.52845,0.05529
2690.59970,0.05531
2688.67096,0.05552
2686.74221,0.05569
2684.81347,0.05564
2682.88472,0.05541
2680.95598,0.05512
2679.02723,0.05501
2677.09849,0.05513
2675.16974,0.05521
2673.24100,0.05519
2671.31225,0.05514
2669.38351,0.05504
2667.45476,0.05492
2665.52601,0.05486
2663.59727,0.05483
2661.66852,0.05481
2659.73978,0.05479
2657.81103,0.05476
2655.88229,0.05462
2653.95354,0.05436
2652.02480,0.05428
2650.09605,0.05447
2648.16731,0.05458
2646.23856,0.05446
2644.30982,0.05428
2642.38107,0.05409
2640.45233,0.05390
2638.52358,0.05382
2636.59484,0.05370
2634.66609,0.05359
2632.73734,0.05377
2630.80860,0.05405
2628.87985,0.05420
2626.95111,0.05428
2625.02236,0.05422
2623.09362,0.05403
2621.16487,0.05388
2619.23613,0.05383
2617.30738,0.05384
2615.37864,0.05392
2613.44989,0.05395
2611.52115,0.05387
2609.59240,0.05384
2607.66366,0.05392
2605.73491,0.05390
2603.80616,0.05371
2601.87742,0.05361
2599.94867,0.05367
2598.01993,0.05371
2596.09118,0.05363
2594.16244,0.05347
2592.23369,0.05348
2590.30495,0.05371
2588.37620,0.05380
2586.44746,0.05367
2584.51871,0.05358
2582.58997,0.05362
2580.66122,0.05370
2578.73248,0.05373
2576.80373,0.05366
2574.87499,0.05349
2572.94624,0.05339
2571.01749,0.05343
2569.08875,0.05346
2567.16000,0.05342
2565.23126,0.05341
2563.30251,0.05349
2561.37377,0.05357
2559.44502,0.05363
2557.51628,0.05366
2555.58753,0.05357
2553.65879,0.05337
2551.73004,0.05315
2549.80130,0.05293
2547.87255,0.05295
2545.94381,0.05327
2544.01506,0.05360
2542.08631,0.05386
2540.15757,0.05398
2538.22882,0.05391
2536.30008,0.05384
2534.37133,0.05377
2532.44259,0.05358
2530.51384,0.05350
2528.58510,0.05362
2526.65635,0.05372
2524.72761,0.05364
2522.79886,0.05342
2520.87012,0.05325
2518.94137,0.05329
2517.01263,0.05351
2515.08388,0.05380
2513.15514,0.05400
2511.22639,0.05385
2509.29764,0.05337
2507.36890,0.05311
2505.44015,0.05334
2503.51141,0.05366
2501.58266,0.05378
2499.65392,0.05371
2497.72517,0.05362
2495.79643,0.05363
2493.86768,0.05372
2491.93894,0.05373
2490.01019,0.05366
2488.08145,0.05361
2486.15270,0.05360
2484.22396,0.05366
2482.29521,0.05376
2480.36647,0.05381
2478.43772,0.05372
2476.50897,0.05364
2474.58023,0.05376
2472.65148,0.05385
2470.72274,0.05364
2468.79399,0.05332
2466.86525,0.05315
2464.93650,0.05314
2463.00776,0.05323
2461.07901,0.05326
2459.15027,0.05322
2457.22152,0.05324
2455.29278,0.05321
2453.36403,0.05305
2451.43529,0.05301
2449.50654,0.05311
2447.57779,0.05313
2445.64905,0.05308
2443.72030,0.05305
2441.79156,0.05314
2439.86281,0.05331
2437.93407,0.05343
2436.00532,0.05341
2434.07658,0.05324
2432.14783,0.05303
2430.21909,0.05288
2428.29034,0.05277
2426.36160,0.05271
2424.43285,0.05258
2422.50411,0.05239
2420.57536,0.05229
2418.64662,0.05237
2416.71787,0.05245
2414.78912,0.05236
2412.86038,0.05223
2410.93163,0.05231
2409.00289,0.05248
2407.07414,0.05257
2405.14540,0.05256
2403.21665,0.05243
2401.28791,0.05227
2399.35916,0.05221
2397.43042,0.05226
2395.50167,0.05225
2393.57293,0.05211
2391.64418,0.05201
2389.71544,0.05207
2387.78669,0.05221
2385.85795,0.05232
2383.92920,0.05236
2382.00045,0.05236
2380.07171,0.05231
2378.14296,0.05218
2376.21422,0.05213
2374.28547,0.05222
2372.35673,0.05224
2370.42798,0.05223
2368.49924,0.05234
2366.57049,0.05249
2364.64175,0.05251
2362.71300,0.05239
2360.78426,0.05215
2358.85551,0.05187
2356.92677,0.05175
2354.99802,0.05182
2353.06927,0.05192
2351.14053,0.05194
2349.21178,0.05185
2347.28304,0.05189
2345.35429,0.05203
2343.42555,0.05211
2341.49680,0.05219
2339.56806,0.05214
2337.63931,0.05199
2335.71057,0.05193
2333.78182,0.05185
2331.85308,0.05171
2329.92433,0.05177
2327.99559,0.05192
2326.06684,0.05194
2324.13810,0.05188
2322.20935,0.05187
2320.28060,0.05190
2318.35186,0.05184
2316.42311,0.05177
2314.49437,0.05182
2312.56562,0.05186
2310.63688,0.05176
2308.70813,0.05166
2306.77939,0.05165
2304.85064,0.05171
2302.92190,0.05193
2300.99315,0.05202
2299.06441,0.05185
2297.13566,0.05170
2295.20692,0.05167
2293.27817,0.05161
2291.34943,0.05155
2289.42068,0.05152
2287.49193,0.05146
2285.56319,0.05142
2283.63444,0.05135
2281.70570,0.05119
2279.77695,0.05113
2277.84821,0.05122
2275.91946,0.05127
2273.99072,0.05128
2272.06197,0.05132
2270.13323,0.05142
2268.20448,0.05154
2266.27574,0.05166
2264.34699,0.05173
2262.41825,0.05171
2260.48950,0.05154
2258.56075,0.05135
2256.63201,0.05126
2254.70326,0.05125
2252.77452,0.05137
2250.84577,0.05155
2248.91703,0.05157
2246.98828,0.05141
2245.05954,0.05130
2243.13079,0.05129
2241.20205,0.05127
2239.27330,0.05121
2237.34456,0.05122
2235.41581,0.05129
2233.48707,0.05139
2231.55832,0.05141
2229.62958,0.05132
2227.70083,0.05117
2225.77208,0.05101
2223.84334,0.05091
2221.91459,0.05085
2219.98585,0.05076
2218.05710,0.05064
2216.12836,0.05063
2214.19961,0.05081
2212.27087,0.05096
2210.34212,0.05082
2208.41338,0.05057
2206.48463,0.05048
2204.55589,0.05052
2202.62714,0.05056
2200.69840,0.05052
2198.76965,0.05043
2196.84090,0.05043
2194.91216,0.05054
2192.98341,0.05068
2191.05467,0.05075
2189.12592,0.05060
2187.19718,0.05034
2185.26843,0.05025
2183.33969,0.05032
2181.41094,0.05038
2179.48220,0.05048
2177.55345,0.05057
2175.62471,0.05053
2173.69596,0.05035
2171.76722,0.05010
2169.83847,0.04989
2167.90973,0.04984
2165.98098,0.04993
2164.05223,0.05001
2162.12349,0.04986
2160.19474,0.04959
2158.26600,0.04953
2156.33725,0.04962
2154.40851,0.04972
2152.47976,0.04980
2150.55102,0.04978
2148.62227,0.04964
2146.69353,0.04950
2144.76478,0.04955
2142.83604,0.04981
2140.90729,0.05004
2138.97855,0.05014
2137.04980,0.05018
2135.12106,0.05022
2133.19231,0.05020
2131.26356,0.05008
2129.33482,0.04994
2127.40607,0.04987
2125.47733,0.04976
2123.54858,0.04968
2121.61984,0.04976
2119.69109,0.04986
2117.76235,0.04986
2115.83360,0.04984
2113.90486,0.04983
2111.97611,0.04970
2110.04737,0.04944
2108.11862,0.04931
2106.18988,0.04936
2104.26113,0.04946
2102.33238,0.04951
2100.40364,0.04954
2098.47489,0.04957
2096.54615,0.04964
2094.61740,0.04977
2092.68866,0.04983
2090.75991,0.04976
2088.83117,0.04971
2086.90242,0.04971
2084.97368,0.04967
2083.04493,0.04966
2081.11619,0.04968
2079.18744,0.04961
2077.25870,0.04946
2075.32995,0.04936
2073.40121,0.04930
2071.47246,0.04925
2069.54371,0.04930
2067.61497,0.04936
2065.68622,0.04926
2063.75748,0.04911
2061.82873,0.04903
2059.89999,0.04901
2057.97124,0.04905
2056.04250,0.04912
2054.11375,0.04914
2052.18501,0.04909
2050.25626,0.04907
2048.32752,0.04910
2046.39877,0.04912
2044.47003,0.04910
2042.54128,0.04914
2040.61254,0.04922
2038.68379,0.04919
2036.75504,0.04904
2034.82630,0.04894
2032.89755,0.04891
2030.96881,0.04883
2029.04006,0.04872
2027.11132,0.04863
2025.18257,0.04858
2023.25383,0.04871
2021.32508,0.04900
2019.39634,0.04916
2017.46759,0.04910
2015.53885,0.04900
2013.61010,0.04887
2011.68136,0.04876
2009.75261,0.04880
2007.82386,0.04900
2005.89512,0.04922
2003.96637,0.04931
2002.03763,0.04917
2000.10888,0.04887
1998.18014,0.04861
1996.25139,0.04856
1994.32265,0.04864
1992.39390,0.04856
1990.46516,0.04832
1988.53641,0.04822
1986.60767,0.04837
1984.67892,0.04861
1982.75018,0.04874
1980.82143,0.04873
1978.89269,0.04867
1976.96394,0.04860
1975.03519,0.04857
1973.10645,0.04862
1971.17770,0.04867
1969.24896,0.04864
1967.32021,0.04853
1965.39147,0.04839
1963.46272,0.04839
1961.53398,0.04860
1959.60523,0.04877
1957.67649,0.04873
1955.74774,0.04856
1953.81900,0.04842
1951.89025,0.04838
1949.96151,0.04845
1948.03276,0.04851
1946.10402,0.04839
1944.17527,0.04824
1942.24652,0.04826
1940.31778,0.04834
1938.38903,0.04834
1936.46029,0.04824
1934.53154,0.04814
1932.60280,0.04812
1930.67405,0.04816
1928.74531,0.04822
1926.81656,0.04831
1924.88782,0.04846
1922.95907,0.04854
1921.03033,0.04840
1919.10158,0.04825
1917.17284,0.04831
1915.24409,0.04837
1913.31534,0.04828
1911.38660,0.04809
1909.45785,0.04787
1907.52911,0.04783
1905.60036,0.04797
1903.67162,0.04802
1901.74287,0.04789
1899.81413,0.04768
1897.88538,0.04755
1895.95664,0.04754
1894.02789,0.04754
1892.09915,0.04756
1890.17040,0.04764
1888.24166,0.04758
1886.31291,0.04741
1884.38417,0.04743
1882.45542,0.04768
1880.52667,0.04787
1878.59793,0.04776
1876.66918,0.04741
1874.74044,0.04711
1872.81169,0.04699
1870.88295,0.04698
1868.95420,0.04690
1867.02546,0.04673
1865.09671,0.04666
1863.16797,0.04666
1861.23922,0.04663
1859.31048,0.04662
1857.38173,0.04662
1855.45299,0.04652
1853.52424,0.04632
1851.59549,0.04616
1849.66675,0.04613
1847.73800,0.04620
1845.80926,0.04624
1843.88051,0.04608
1841.95177,0.04579
1840.02302,0.04559
1838.09428,0.04550
1836.16553,0.04550
1834.23679,0.04557
1832.30804,0.04559
1830.37930,0.04546
1828.45055,0.04524
1826.52181,0.04501
1824.59306,0.04491
1822.66432,0.04498
1820.73557,0.04497
1818.80682,0.04475
1816.87808,0.04455
1814.94933,0.04454
1813.02059,0.04452
1811.09184,0.04426
1809.16310,0.04389
1807.23435,0.04366
1805.30561,0.04361
1803.37686,0.04363
1801.44812,0.04357
1799.51937,0.04331
1797.59063,0.04295
1795.66188,0.04267
1793.73314,0.04240
1791.80439,0.04222
1789.87565,0.04218
1787.94690,0.04204
1786.01815,0.04169
1784.08941,0.04131
1782.16066,0.04097
1780.23192,0.04059
1778.30317,0.04021
1776.37443,0.03984
1774.44568,0.03940
1772.51694,0.03889
1770.58819,0.03833
1768.65945,0.03764
1766.73070,0.03685
1764.80196,0.03613
1762.87321,0.03532
1760.94447,0.03432
1759.01572,0.03332
1757.08697,0.03211
1755.15823,0.03058
1753.22948,0.02888
1751.30074,0.02709
1749.37199,0.02556
1747.44325,0.02483
1745.51450,0.02539
1743.58576,0.02772
1741.65701,0.03175
1739.72827,0.03713
1737.79952,0.04312
1735.87078,0.04944
1733.94203,0.05678
1732.01329,0.06388
1730.08454,0.06969
1728.15580,0.07489
1726.22705,0.07913
1724.29830,0.08175
1722.36956,0.08271
1720.44081,0.08246
1718.51207,0.08101
1716.58332,0.07840
1714.65458,0.07550
1712.72583,0.07283
1710.79709,0.07043
1708.86834,0.06834
1706.93960,0.06645
1705.01085,0.06477
1703.08211,0.06351
1701.15336,0.06238
1699.22462,0.06099
1697.29587,0.05980
1695.36713,0.05895
1693.43838,0.05821
1691.50963,0.05764
1689.58089,0.05742
1687.65214,0.05748
1685.72340,0.05734
1683.79465,0.05675
1681.86591,0.05627
1679.93716,0.05598
1678.00842,0.05559
1676.07967,0.05522
1674.15093,0.05502
1672.22218,0.05480
1670.29344,0.05439
1668.36469,0.05411
1666.43595,0.05411
1664.50720,0.05407
1662.57845,0.05398
1660.64971,0.05391
1658.72096,0.05383
1656.79222,0.05388
1654.86347,0.05381
1652.93473,0.05321
1651.00598,0.05277
1649.07724,0.05276
1647.14849,0.05264
1645.21975,0.05243
1643.29100,0.05232
1641.36226,0.05226
1639.43351,0.05224
1637.50477,0.05236
1635.57602,0.05253
1633.64728,0.05252
1631.71853,0.05247
1629.78978,0.05245
1627.86104,0.05234
1625.93229,0.05209
1624.00355,0.05186
1622.07480,0.05177
1620.14606,0.05175
1618.21731,0.05173
1616.28857,0.05175
1614.35982,0.05174
1612.43108,0.05169
1610.50233,0.05166
1608.57359,0.05146
1606.64484,0.05108
1604.71610,0.05090
1602.78735,0.05087
1600.85861,0.05078
1598.92986,0.05074
1597.00111,0.05082
1595.07237,0.05082
1593.14362,0.05069
1591.21488,0.05063
1589.28613,0.05069
1587.35739,0.05065
1585.42864,0.05047
1583.49990,0.05029
1581.57115,0.05012
1579.64241,0.04995
1577.71366,0.04983
1575.78492,0.04972
1573.85617,0.04961
1571.92743,0.04946
1569.99868,0.04924
1568.06993,0.04909
1566.14119,0.04897
1564.21244,0.04883
1562.28370,0.04881
1560.35495,0.04884
1558.42621,0.04882
1556.49746,0.04884
1554.56872,0.04874
1552.63997,0.04841
1550.71123,0.04807
1548.78248,0.04794
1546.85374,0.04796
1544.92499,0.04791
1542.99625,0.04773
1541.06750,0.04752
1539.13876,0.04736
1537.21001,0.04739
1535.28126,0.04747
1533.35252,0.04743
1531.42377,0.04719
1529.49503,0.04685
1527.56628,0.04662
1525.63754,0.04654
1523.70879,0.04644
1521.78005,0.04625
1519.85130,0.04607
1517.92256,0.04589
1515.99381,0.04567
1514.06507,0.04538
1512.13632,0.04513
1510.20758,0.04501
1508.27883,0.04488
1506.35008,0.04449
1504.42134,0.04406
1502.49259,0.04378
1500.56385,0.04340
1498.63510,0.04279
1496.70636,0.04198
1494.77761,0.04131
1492.84887,0.04115
1490.92012,0.04147
1488.99138,0.04199
1487.06263,0.04255
1485.13389,0.04323
1483.20514,0.04402
1481.27640,0.04472
1479.34765,0.04521
1477.41891,0.04555
1475.49016,0.04571
1473.56141,0.04560
1471.63267,0.04556
1469.70392,0.04570
1467.77518,0.04568
1465.84643,0.04542
1463.91769,0.04514
1461.98894,0.04512
1460.06020,0.04533
1458.13145,0.04541
1456.20271,0.04541
1454.27396,0.04586
1452.34522,0.04665
1450.41647,0.04754
1448.48773,0.04845
1446.55898,0.04931
1444.63024,0.04996
1442.70149,0.05026
1440.77274,0.05034
1438.84400,0.05062
1436.91525,0.05149
1434.98651,0.05299
1433.05776,0.05458
1431.12902,0.05571
1429.20027,0.05605
1427.27153,0.05576
1425.34278,0.05519
1423.41404,0.05469
1421.48529,0.05439
1419.55655,0.05388
1417.62780,0.05296
1415.69906,0.05216
1413.77031,0.05163
1411.84156,0.05113
1409.91282,0.05053
1407.98407,0.04995
1406.05533,0.04954
1404.12658,0.04926
1402.19784,0.04898
1400.26909,0.04869
1398.34035,0.04848
1396.41160,0.04827
1394.48286,0.04795
1392.55411,0.04775
1390.62537,0.04790
1388.69662,0.04841
1386.76788,0.04916
1384.83913,0.04985
1382.91039,0.05031
1380.98164,0.05054
1379.05289,0.05045
1377.12415,0.05007
1375.19540,0.04968
1373.26666,0.04944
1371.33791,0.04937
1369.40917,0.04936
1367.48042,0.04928
1365.55168,0.04916
1363.62293,0.04901
1361.69419,0.04887
1359.76544,0.04880
1357.83670,0.04864
1355.90795,0.04840
1353.97921,0.04830
1352.05046,0.04827
1350.12172,0.04811
1348.19297,0.04785
1346.26422,0.04757
1344.33548,0.04737
1342.40673,0.04717
1340.47799,0.04680
1338.54924,0.04637
1336.62050,0.04627
1334.69175,0.04642
1332.76301,0.04634
1330.83426,0.04605
1328.90552,0.04578
1326.97677,0.04547
1325.04803,0.04514
1323.11928,0.04493
1321.19054,0.04473
1319.26179,0.04439
1317.33304,0.04399
1315.40430,0.04360
1313.47555,0.04324
1311.54681,0.04298
1309.61806,0.04281
1307.68932,0.04267
1305.76057,0.04249
1303.83183,0.04207
1301.90308,0.04142
1299.97434,0.04076
1298.04559,0.04015
1296.11685,0.03955
1294.18810,0.03910
1292.25936,0.03884
1290.33061,0.03847
1288.40187,0.03780
1286.47312,0.03711
1284.54437,0.03664
1282.61563,0.03637
1280.68688,0.03623
1278.75814,0.03636
1276.82939,0.03697
1274.90065,0.03813
1272.97190,0.03966
1271.04316,0.04128
1269.11441,0.04265
1267.18567,0.04356
1265.25692,0.04399
1263.32818,0.04400
1261.39943,0.04380
1259.47069,0.04358
1257.54194,0.04333
1255.61320,0.04306
1253.68445,0.04288
1251.75570,0.04285
1249.82696,0.04305
1247.89821,0.04361
1245.96947,0.04472
1244.04072,0.04619
1242.11198,0.04763
1240.18323,0.04903
1238.25449,0.05047
1236.32574,0.05166
1234.39700,0.05228
1232.46825,0.05237
1230.53951,0.05208
1228.61076,0.05155
1226.68202,0.05086
1224.75327,0.05001
1222.82452,0.04905
1220.89578,0.04797
1218.96703,0.04658
1217.03829,0.04492
1215.10954,0.04336
1213.18080,0.04196
1211.25205,0.04048
1209.32331,0.03894
1207.39456,0.03766
1205.46582,0.03699
1203.53707,0.03719
1201.60833,0.03812
1199.67958,0.03966
1197.75084,0.04181
1195.82209,0.04443
1193.89335,0.04728
1191.96460,0.05002
1190.03585,0.05218
1188.10711,0.05354
1186.17836,0.05399
1184.24962,0.05350
1182.32087,0.05255
1180.39213,0.05188
1178.46338,0.05173
1176.53464,0.05189
1174.60589,0.05205
1172.67715,0.05202
1170.74840,0.05183
1168.81966,0.05164
1166.89091,0.05158
1164.96217,0.05165
1163.03342,0.05190
1161.10467,0.05246
1159.17593,0.05360
1157.24718,0.05572
1155.31844,0.05918
1153.38969,0.06405
1151.46095,0.06990
1149.53220,0.07592
1147.60346,0.08109
1145.67471,0.08463
1143.74597,0.08647
1141.81722,0.08716
1139.88848,0.08730
1137.95973,0.08711
1136.03099,0.08641
1134.10224,0.08531
1132.17350,0.08409
1130.24475,0.08269
1128.31600,0.08122
1126.38726,0.08007
1124.45851,0.07925
1122.52977,0.07863
1120.60102,0.07809
1118.67228,0.07758
1116.74353,0.07714
1114.81479,0.07655
1112.88604,0.07574
1110.95730,0.07510
1109.02855,0.07469
1107.09981,0.07441
1105.17106,0.07423
1103.24232,0.07403
1101.31357,0.07368
1099.38483,0.07334
1097.45608,0.07325
1095.52733,0.07331
1093.59859,0.07330
1091.66984,0.07327
1089.74110,0.07339
1087.81235,0.07363
1085.88361,0.07365
1083.95486,0.07325
1082.02612,0.07278
1080.09737,0.07258
1078.16863,0.07286
1076.23988,0.07326
1074.31114,0.07303
1072.38239,0.07237
1070.45365,0.07206
1068.52490,0.07218
1066.59615,0.07241
1064.66741,0.07284
1062.73866,0.07368
1060.80992,0.07481
1058.88117,0.07627
1056.95243,0.07810
1055.02368,0.08018
1053.09494,0.08230
1051.16619,0.08410
1049.23745,0.08543
1047.30870,0.08634
1045.37996,0.08697
1043.45121,0.08727
1041.52247,0.08688
1039.59372,0.08594
1037.66498,0.08506
1035.73623,0.08445
1033.80748,0.08387
1031.87874,0.08304
1029.94999,0.08189
1028.02125,0.08074
1026.09250,0.07974
1024.16376,0.07854
1022.23501,0.07697
1020.30627,0.07532
1018.37752,0.07372
1016.44878,0.07199
1014.52003,0.07017
1012.59129,0.06833
1010.66254,0.06629
1008.73380,0.06411
1006.80505,0.06207
1004.87631,0.06014
1002.94756,0.05844
1001.01881,0.05731
999.09007,0.05675
997.16132,0.05671
995.23258,0.05716
993.30383,0.05786
991.37509,0.05854
989.44634,0.05914
987.51760,0.05975
985.58885,0.06048
983.66011,0.06120
981.73136,0.06164
979.80262,0.06174
977.87387,0.06174
975.94513,0.06170
974.01638,0.06163
972.08763,0.06162
970.15889,0.06183
968.23014,0.06235
966.30140,0.06290
964.37265,0.06324
962.44391,0.06354
960.51516,0.06393
958.58642,0.06419
956.65767,0.06403
954.72893,0.06372
952.80018,0.06352
950.87144,0.06323
948.94269,0.06303
947.01395,0.06315
945.08520,0.06324
943.15646,0.06314
941.22771,0.06310
939.29896,0.06302
937.37022,0.06275
935.44147,0.06241
933.51273,0.06202
931.58398,0.06170
929.65524,0.06164
927.72649,0.06156
925.79775,0.06127
923.86900,0.06110
921.94026,0.06123
920.01151,0.06146
918.08277,0.06171
916.15402,0.06180
914.22528,0.06160
912.29653,0.06140
910.36779,0.06140
908.43904,0.06155
906.51029,0.06175
904.58155,0.06195
902.65280,0.06207
900.72406,0.06216
898.79531,0.06245
896.86657,0.06301
894.93782,0.06347
893.00908,0.06361
891.08033,0.06367
889.15159,0.06403
887.22284,0.06462
885.29410,0.06507
883.36535,0.06518
881.43661,0.06495
879.50786,0.06477
877.57911,0.06522
875.65037,0.06608
873.72162,0.06649
871.79288,0.06621
869.86413,0.06576
867.93539,0.06540
866.00664,0.06495
864.07790,0.06456
862.14915,0.06446
860.22041,0.06431
858.29166,0.06400
856.36292,0.06369
854.43417,0.06331
852.50543,0.06283
850.57668,0.06242
848.64794,0.06216
846.71919,0.06210
844.79044,0.06210
842.86170,0.06227
840.93295,0.06327
839.00421,0.06508
837.07546,0.06668
835.14672,0.06762
833.21797,0.06811
831.28923,0.06802
829.36048,0.06731
827.43174,0.06678
825.50299,0.06733
823.57425,0.06879
821.64550,0.07016
819.71676,0.07106
817.78801,0.07183
815.85926,0.07224
813.93052,0.07184
812.00177,0.07114
810.07303,0.07100
808.14428,0.07148
806.21554,0.07211
804.28679,0.07256
802.35805,0.07286
800.42930,0.07315
798.50056,0.07322
796.57181,0.07283
794.64307,0.07229
792.71432,0.07182
790.78558,0.07132
788.85683,0.07080
786.92809,0.07019
784.99934,0.06958
783.07059,0.06923
781.14185,0.06895
779.21310,0.06831
777.28436,0.06738
775.35561,0.06670
773.42687,0.06653
771.49812,0.06640
769.56938,0.06598
767.64063,0.06541
765.71189,0.06484
763.78314,0.06424
761.85440,0.06353
759.92565,0.06277
757.99691,0.06207
756.06816,0.06171
754.13942,0.06205
752.21067,0.06299
750.28192,0.06434
748.35318,0.06613
746.42443,0.06801
744.49569,0.06950
742.56694,0.07034
740.63820,0.07041
738.70945,0.07005
736.78071,0.06975
734.85196,0.06967
732.92322,0.06956
730.99447,0.06936
729.06573,0.06920
727.13698,0.06884
725.20824,0.06801
723.27949,0.06714
721.35074,0.06698
719.42200,0.06735
717.49325,0.06721
715.56451,0.06649
713.63576,0.06576
711.70702,0.06508
709.77827,0.06454
707.84953,0.06428
705.92078,0.06413
703.99204,0.06395
702.06329,0.06386
700.13455,0.06368
698.20580,0.06343
696.27706,0.06372
694.34831,0.06443
692.41957,0.06468
690.49082,0.06444
688.56207,0.06433
686.63333,0.06445
684.70458,0.06459
682.77584,0.06483
680.84709,0.06529
678.91835,0.06614
676.98960,0.06723
675.06086,0.06793
673.13211,0.06815
671.20337,0.06833
669.27462,0.06830
667.34588,0.06743
665.41713,0.06605
663.48839,0.06521
661.55964,0.06481
659.63090,0.06422
657.70215,0.06389
655.77340,0.06394
653.84466,0.06358
651.91591,0.06314
649.98717,0.06360
648.05842,0.06477
646.12968,0.06527
644.20093,0.06482
642.27219,0.06491
640.34344,0.06595
638.41470,0.06700
636.48595,0.06727
634.55721,0.06642
632.62846,0.06554
630.69972,0.06587
628.77097,0.06674
626.84222,0.06649
624.91348,0.06534
622.98473,0.06521
621.05599,0.06605
619.12724,0.06666
617.19850,0.06705
615.26975,0.06703
613.34101,0.06689
611.41226,0.06818
609.48352,0.07061
607.55477,0.07197
605.62603,0.07194
603.69728,0.07181
601.76854,0.07120
599.83979,0.06980
