7497.03301,0.38237
7495.10426,0.37993
7493.17552,0.37864
7491.24677,0.38156
7489.31803,0.38460
7487.38928,0.38053
7485.46054,0.37475
7483.53179,0.37435
7481.60305,0.37372
7479.67430,0.37078
7477.74556,0.37015
7475.81681,0.36878
7473.88807,0.36382
7471.95932,0.35995
7470.03057,0.35972
7468.10183,0.36205
7466.17308,0.36485
7464.24434,0.36432
7462.31559,0.36009
7460.38685,0.35581
7458.45810,0.35327
7456.52936,0.35166
7454.60061,0.34950
7452.67187,0.34797
7450.74312,0.34742
7448.81438,0.34569
7446.88563,0.34440
7444.95689,0.34453
7443.02814,0.34238
7441.09940,0.33924
7439.17065,0.34028
7437.24190,0.34292
7435.31316,0.34133
7433.38441,0.33656
7431.45567,0.33243
7429.52692,0.33106
7427.59818,0.33366
7425.66943,0.33775
7423.74069,0.33741
7421.81194,0.33277
7419.88320,0.32951
7417.95445,0.32882
7416.02571,0.32910
7414.09696,0.33147
7412.16822,0.33571
7410.23947,0.33902
7408.31073,0.34013
7406.38198,0.33954
7404.45323,0.33924
7402.52449,0.33901
7400.59574,0.33578
7398.66700,0.33140
7396.73825,0.32809
7394.80951,0.32519
7392.88076,0.32493
7390.95202,0.32765
7389.02327,0.33053
7387.09453,0.33161
7385.16578,0.33042
7383.23704,0.32982
7381.30829,0.33132
7379.37955,0.33269
7377.45080,0.33387
7375.52205,0.33513
7373.59331,0.33300
7371.66456,0.32844
7369.73582,0.32608
7367.80707,0.32612
7365.87833,0.32756
7363.94958,0.32960
7362.02084,0.33014
7360.09209,0.32882
7358.16335,0.32636
7356.23460,0.32463
7354.30586,0.32590
7352.37711,0.32711
7350.44837,0.32399
7348.51962,0.31960
7346.59088,0.31851
7344.66213,0.32024
7342.73338,0.32074
7340.80464,0.31694
7338.87589,0.31152
7336.94715,0.30986
7335.01840,0.31125
7333.08966,0.30982
7331.16091,0.30510
7329.23217,0.30209
7327.30342,0.30384
7325.37468,0.30844
7323.44593,0.30987
7321.51719,0.30820
7319.58844,0.30771
7317.65970,0.30601
7315.73095,0.30208
7313.80221,0.30058
7311.87346,0.30286
7309.94471,0.30423
7308.01597,0.30214
7306.08722,0.30120
7304.15848,0.30311
7302.22973,0.30315
7300.30099,0.29880
7298.37224,0.29362
7296.44350,0.29335
7294.51475,0.29736
7292.58601,0.30071
7290.65726,0.30160
7288.72852,0.29997
7286.79977,0.29909
7284.87103,0.30144
7282.94228,0.30314
7281.01353,0.30310
7279.08479,0.30413
7277.15604,0.30328
7275.22730,0.29803
7273.29855,0.29383
7271.36981,0.29303
7269.44106,0.29171
7267.51232,0.29033
7265.58357,0.28916
7263.65483,0.28454
7261.72608,0.27855
7259.79734,0.27701
7257.86859,0.27880
7255.93985,0.27811
7254.01110,0.27473
7252.08236,0.27438
7250.15361,0.27876
7248.22486,0.28266
7246.29612,0.28144
7244.36737,0.27710
7242.43863,0.27480
7240.50988,0.27574
7238.58114,0.27673
7236.65239,0.27562
7234.72365,0.27360
7232.79490,0.27305
7230.86616,0.27364
7228.93741,0.27289
7227.00867,0.27120
7225.07992,0.27054
7223.15118,0.27026
7221.22243,0.26913
7219.29369,0.26751
7217.36494,0.26676
7215.43619,0.26742
7213.50745,0.26734
7211.57870,0.26407
7209.64996,0.25989
7207.72121,0.25886
7205.79247,0.25946
7203.86372,0.25716
7201.93498,0.25187
7200.00623,0.24792
7198.07749,0.24804
7196.14874,0.24923
7194.22000,0.24603
7192.29125,0.23893
7190.36251,0.23322
7188.43376,0.23017
7186.50501,0.22925
7184.57627,0.23051
7182.64752,0.23019
7180.71878,0.22625
7178.79003,0.22172
7176.86129,0.21701
7174.93254,0.21253
7173.00380,0.20989
7171.07505,0.20682
7169.14631,0.20176
7167.21756,0.19566
7165.28882,0.18896
7163.36007,0.18119
7161.43133,0.16999
7159.50258,0.15501
7157.57384,0.14138
7155.64509,0.13349
7153.71634,0.12878
7151.78760,0.12487
7149.85885,0.12519
7147.93011,0.12990
7146.00136,0.13582
7144.07262,0.14232
7142.14387,0.14795
7140.21513,0.15376
7138.28638,0.16206
7136.35764,0.17007
7134.42889,0.17650
7132.50015,0.18281
7130.57140,0.18634
7128.64266,0.18606
7126.71391,0.18680
7124.78516,0.19086
7122.85642,0.19432
7120.92767,0.19413
7118.99893,0.19186
7117.07018,0.19041
7115.14144,0.19079
7113.21269,0.19137
7111.28395,0.19092
7109.35520,0.18973
7107.42646,0.18838
7105.49771,0.18762
7103.56897,0.18536
7101.64022,0.17948
7099.71148,0.17441
7097.78273,0.17506
7095.85399,0.17873
7093.92524,0.18032
7091.99649,0.17832
7090.06775,0.17288
7088.13900,0.16571
7086.21026,0.16015
7084.28151,0.15820
7082.35277,0.15815
7080.42402,0.15549
7078.49528,0.14937
7076.56653,0.14323
7074.63779,0.13750
7072.70904,0.13098
7070.78030,0.12670
7068.85155,0.12575
7066.92281,0.12321
7064.99406,0.11769
7063.06532,0.11316
7061.13657,0.11065
7059.20782,0.10840
7057.27908,0.10694
7055.35033,0.10817
7053.42159,0.11028
7051.49284,0.11011
7049.56410,0.10912
7047.63535,0.10990
7045.70661,0.11217
7043.77786,0.11427
7041.84912,0.11478
7039.92037,0.11484
7037.99163,0.11559
7036.06288,0.11623
7034.13414,0.11763
7032.20539,0.12072
7030.27664,0.12470
7028.34790,0.12968
7026.41915,0.13665
7024.49041,0.14427
7022.56166,0.14990
7020.63292,0.15325
7018.70417,0.15332
7016.77543,0.15071
7014.84668,0.14992
7012.91794,0.15164
7010.98919,0.15330
7009.06045,0.15373
7007.13170,0.15250
7005.20296,0.15047
7003.27421,0.14869
7001.34547,0.14484
6999.41672,0.13798
6997.48797,0.13360
6995.55923,0.13366
6993.63048,0.13251
6991.70174,0.12861
6989.77299,0.12669
6987.84425,0.12751
6985.91550,0.12637
6983.98676,0.12212
6982.05801,0.11748
6980.12927,0.11417
6978.20052,0.11290
6976.27178,0.11178
6974.34303,0.10994
6972.41429,0.11082
6970.48554,0.11346
6968.55680,0.11261
6966.62805,0.10945
6964.69930,0.10831
6962.77056,0.10849
6960.84181,0.10745
6958.91307,0.10465
6956.98432,0.10175
6955.05558,0.10102
6953.12683,0.10121
6951.19809,0.10106
6949.26934,0.10243
6947.34060,0.10559
6945.41185,0.10895
6943.48311,0.11311
6941.55436,0.11745
6939.62562,0.11898
6937.69687,0.11816
6935.76812,0.11837
6933.83938,0.12050
6931.91063,0.12269
6929.98189,0.12302
6928.05314,0.12149
6926.12440,0.11873
6924.19565,0.11456
6922.26691,0.10938
6920.33816,0.10578
6918.40942,0.10616
6916.48067,0.10860
6914.55193,0.10858
6912.62318,0.10479
6910.69444,0.10022
6908.76569,0.09690
6906.83695,0.09365
6904.90820,0.09164
6902.97945,0.09303
6901.05071,0.09526
6899.12196,0.09526
6897.19322,0.09412
6895.26447,0.09400
6893.33573,0.09441
6891.40698,0.09286
6889.47824,0.08997
6887.54949,0.08910
6885.62075,0.09123
6883.69200,0.09484
6881.76326,0.09893
6879.83451,0.10424
6877.90577,0.11082
6875.97702,0.11577
6874.04828,0.11865
6872.11953,0.12122
6870.19078,0.12286
6868.26204,0.12310
6866.33329,0.12242
6864.40455,0.12187
6862.47580,0.12179
6860.54706,0.12013
6858.61831,0.11730
6856.68957,0.11470
6854.76082,0.11009
6852.83208,0.10356
6850.90333,0.09946
6848.97459,0.09779
6847.04584,0.09461
6845.11710,0.08966
6843.18835,0.08609
6841.25960,0.08607
6839.33086,0.08953
6837.40211,0.09511
6835.47337,0.10082
6833.54462,0.10472
6831.61588,0.10756
6829.68713,0.11115
6827.75839,0.11520
6825.82964,0.11971
6823.90090,0.12540
6821.97215,0.13105
6820.04341,0.13597
6818.11466,0.13995
6816.18592,0.14229
6814.25717,0.14345
6812.32843,0.14382
6810.39968,0.14443
6808.47093,0.14770
6806.54219,0.15295
6804.61344,0.15648
6802.68470,0.15772
6800.75595,0.15990
6798.82721,0.16349
6796.89846,0.16566
6794.96972,0.16572
6793.04097,0.16560
6791.11223,0.16627
6789.18348,0.16735
6787.25474,0.16856
6785.32599,0.17021
6783.39725,0.17383
6781.46850,0.17922
6779.53975,0.18225
6777.61101,0.18118
6775.68226,0.18037
6773.75352,0.18272
6771.82477,0.18484
6769.89603,0.18435
6767.96728,0.18347
6766.03854,0.18340
6764.10979,0.18307
6762.18105,0.18293
6760.25230,0.18485
6758.32356,0.18821
6756.39481,0.19106
6754.46607,0.19263
6752.53732,0.19172
6750.60858,0.18904
6748.67983,0.18885
6746.75108,0.19292
6744.82234,0.19685
6742.89359,0.19755
6740.96485,0.19812
6739.03610,0.20072
6737.10736,0.20256
6735.17861,0.20125
6733.24987,0.19909
6731.32112,0.19934
6729.39238,0.20139
6727.46363,0.20300
6725.53489,0.20365
6723.60614,0.20512
6721.67740,0.20809
6719.74865,0.20948
6717.81991,0.20797
6715.89116,0.20639
6713.96241,0.20589
6712.03367,0.20531
6710.10492,0.20461
6708.17618,0.20323
6706.24743,0.20066
6704.31869,0.19929
6702.38994,0.20056
6700.46120,0.20263
6698.53245,0.20343
6696.60371,0.20310
6694.67496,0.20410
6692.74622,0.20676
6690.81747,0.20807
6688.88873,0.20684
6686.95998,0.20377
6685.03123,0.20017
6683.10249,0.19869
6681.17374,0.20005
6679.24500,0.20158
6677.31625,0.20126
6675.38751,0.20016
6673.45876,0.19988
6671.53002,0.20008
6669.60127,0.19950
6667.67253,0.19742
6665.74378,0.19603
6663.81504,0.19727
6661.88629,0.19858
6659.95755,0.19832
6658.02880,0.19754
6656.10006,0.19613
6654.17131,0.19438
6652.24256,0.19296
6650.31382,0.19085
6648.38507,0.18806
6646.45633,0.18618
6644.52758,0.18498
6642.59884,0.18389
6640.67009,0.18424
6638.74135,0.18554
6636.81260,0.18408
6634.88386,0.17969
6632.95511,0.17598
6631.02637,0.17287
6629.09762,0.16981
6627.16888,0.16961
6625.24013,0.17187
6623.31139,0.17330
6621.38264,0.17309
6619.45389,0.17163
6617.52515,0.16817
6615.59640,0.16331
6613.66766,0.15960
6611.73891,0.15849
6609.81017,0.15930
6607.88142,0.15925
6605.95268,0.15590
6604.02393,0.15127
6602.09519,0.14910
6600.16644,0.14858
6598.23770,0.14593
6596.30895,0.14120
6594.38021,0.13853
6592.45146,0.13887
6590.52271,0.13882
6588.59397,0.13734
6586.66522,0.13727
6584.73648,0.13933
6582.80773,0.14070
6580.87899,0.14081
6578.95024,0.14148
6577.02150,0.14262
6575.09275,0.14365
6573.16401,0.14443
6571.23526,0.14476
6569.30652,0.14553
6567.37777,0.14686
6565.44903,0.14886
6563.52028,0.15236
6561.59154,0.15504
6559.66279,0.15478
6557.73404,0.15501
6555.80530,0.15747
6553.87655,0.15876
6551.94781,0.15788
6550.01906,0.15673
6548.09032,0.15624
6546.16157,0.15710
6544.23283,0.15926
6542.30408,0.16186
6540.37534,0.16434
6538.44659,0.16527
6536.51785,0.16447
6534.58910,0.16463
6532.66036,0.16613
6530.73161,0.16654
6528.80287,0.16568
6526.87412,0.16486
6524.94537,0.16417
6523.01663,0.16306
6521.08788,0.16040
6519.15914,0.15684
6517.23039,0.15594
6515.30165,0.15802
6513.37290,0.15951
6511.44416,0.15934
6509.51541,0.15819
6507.58667,0.15603
6505.65792,0.15428
6503.72918,0.15422
6501.80043,0.15395
6499.87169,0.15281
6497.94294,0.15211
6496.01419,0.15094
6494.08545,0.14835
6492.15670,0.14523
6490.22796,0.14269
6488.29921,0.14199
6486.37047,0.14320
6484.44172,0.14436
6482.51298,0.14423
6480.58423,0.14355
6478.65549,0.14296
6476.72674,0.14266
6474.79800,0.14222
6472.86925,0.14050
6470.94051,0.13794
6469.01176,0.13700
6467.08302,0.13710
6465.15427,0.13482
6463.22552,0.13071
6461.29678,0.12858
6459.36803,0.12907
6457.43929,0.12977
6455.51054,0.12935
6453.58180,0.12873
6451.65305,0.12879
6449.72431,0.12916
6447.79556,0.12956
6445.86682,0.13051
6443.93807,0.13177
6442.00933,0.13280
6440.08058,0.13374
6438.15184,0.13449
6436.22309,0.13533
6434.29434,0.13688
6432.36560,0.13889
6430.43685,0.14105
6428.50811,0.14245
6426.57936,0.14282
6424.65062,0.14400
6422.72187,0.14613
6420.79313,0.14808
6418.86438,0.15059
6416.93564,0.15305
6415.00689,0.15440
6413.07815,0.15604
6411.14940,0.15819
6409.22066,0.15958
6407.29191,0.16049
6405.36317,0.16228
6403.43442,0.16502
6401.50567,0.16742
6399.57693,0.16841
6397.64818,0.16823
6395.71944,0.16856
6393.79069,0.16966
6391.86195,0.17146
6389.93320,0.17504
6388.00446,0.17806
6386.07571,0.17845
6384.14697,0.17849
6382.21822,0.17884
6380.28948,0.17884
6378.36073,0.17938
6376.43199,0.17989
6374.50324,0.17970
6372.57450,0.18008
6370.64575,0.18193
6368.71700,0.18504
6366.78826,0.18780
6364.85951,0.18897
6362.93077,0.18964
6361.00202,0.19050
6359.07328,0.19088
6357.14453,0.19109
6355.21579,0.19122
6353.28704,0.19039
6351.35830,0.19009
6349.42955,0.19231
6347.50081,0.19533
6345.57206,0.19659
6343.64332,0.19571
6341.71457,0.19433
6339.78582,0.19415
6337.85708,0.19514
6335.92833,0.19711
6333.99959,0.19931
6332.07084,0.19978
6330.14210,0.19900
6328.21335,0.19984
6326.28461,0.20257
6324.35586,0.20475
6322.42712,0.20512
6320.49837,0.20430
6318.56963,0.20323
6316.64088,0.20229
6314.71214,0.20182
6312.78339,0.20164
6310.85465,0.20194
6308.92590,0.20385
6306.99715,0.20616
6305.06841,0.20716
6303.13966,0.20762
6301.21092,0.20745
6299.28217,0.20656
6297.35343,0.20674
6295.42468,0.20812
6293.49594,0.20927
6291.56719,0.21048
6289.63845,0.21186
6287.70970,0.21251
6285.78096,0.21350
6283.85221,0.21545
6281.92347,0.21605
6279.99472,0.21458
6278.06598,0.21391
6276.13723,0.21597
6274.20848,0.21867
6272.27974,0.21963
6270.35099,0.22032
6268.42225,0.22234
6266.49350,0.22386
6264.56476,0.22359
6262.63601,0.22313
6260.70727,0.22385
6258.77852,0.22505
6256.84978,0.22504
6254.92103,0.22393
6252.99229,0.22423
6251.06354,0.22716
6249.13480,0.23107
6247.20605,0.23400
6245.27730,0.23457
6243.34856,0.23252
6241.41981,0.23027
6239.49107,0.23023
6237.56232,0.23162
6235.63358,0.23275
6233.70483,0.23321
6231.77609,0.23326
6229.84734,0.23408
6227.91860,0.23643
6225.98985,0.23871
6224.06111,0.23950
6222.13236,0.23923
6220.20362,0.23869
6218.27487,0.23882
6216.34613,0.24000
6214.41738,0.24186
6212.48863,0.24367
6210.55989,0.24417
6208.63114,0.24321
6206.70240,0.24229
6204.77365,0.24185
6202.84491,0.24130
6200.91616,0.24128
6198.98742,0.24242
6197.05867,0.24378
6195.12993,0.24488
6193.20118,0.24540
6191.27244,0.24431
6189.34369,0.24238
6187.41495,0.24162
6185.48620,0.24209
6183.55746,0.24288
6181.62871,0.24346
6179.69996,0.24325
6177.77122,0.24312
6175.84247,0.24427
6173.91373,0.24537
6171.98498,0.24546
6170.05624,0.24540
6168.12749,0.24533
6166.19875,0.24516
6164.27000,0.24491
6162.34126,0.24431
6160.41251,0.24354
6158.48377,0.24352
6156.55502,0.24480
6154.62628,0.24621
6152.69753,0.24665
6150.76878,0.24648
6148.84004,0.24663
6146.91129,0.24754
6144.98255,0.24872
6143.05380,0.24986
6141.12506,0.25048
6139.19631,0.25016
6137.26757,0.25033
6135.33882,0.25132
6133.41008,0.25162
6131.48133,0.25128
6129.55259,0.25138
6127.62384,0.25174
6125.69510,0.25168
6123.76635,0.25125
6121.83761,0.25087
6119.90886,0.25066
6117.98011,0.25045
6116.05137,0.25021
6114.12262,0.24993
6112.19388,0.24910
6110.26513,0.24774
6108.33639,0.24706
6106.40764,0.24777
6104.47890,0.24908
6102.55015,0.24997
6100.62141,0.25045
6098.69266,0.25081
6096.76392,0.25033
6094.83517,0.24887
6092.90643,0.24765
6090.97768,0.24725
6089.04893,0.24751
6087.12019,0.24852
6085.19144,0.24911
6083.26270,0.24779
6081.33395,0.24542
6079.40521,0.24421
6077.47646,0.24407
6075.54772,0.24274
6073.61897,0.23972
6071.69023,0.23684
6069.76148,0.23568
6067.83274,0.23621
6065.90399,0.23685
6063.97525,0.23549
6062.04650,0.23206
6060.11776,0.22894
6058.18901,0.22718
6056.26026,0.22548
6054.33152,0.22315
6052.40277,0.22021
6050.47403,0.21687
6048.54528,0.21402
6046.61654,0.21145
6044.68779,0.20800
6042.75905,0.20464
6040.83030,0.20291
6038.90156,0.20180
6036.97281,0.19975
6035.04407,0.19645
6033.11532,0.19229
6031.18658,0.18869
6029.25783,0.18699
6027.32909,0.18569
6025.40034,0.18279
6023.47159,0.17929
6021.54285,0.17638
6019.61410,0.17358
6017.68536,0.17121
6015.75661,0.16986
6013.82787,0.16875
6011.89912,0.16788
6009.97038,0.16782
6008.04163,0.16713
6006.11289,0.16481
6004.18414,0.16233
6002.25540,0.16144
6000.32665,0.16245
5998.39791,0.16352
5996.46916,0.16277
5994.54041,0.16045
5992.61167,0.15789
5990.68292,0.15575
5988.75418,0.15358
5986.82543,0.15197
5984.89669,0.15171
5982.96794,0.15109
5981.03920,0.14889
5979.11045,0.14682
5977.18171,0.14614
5975.25296,0.14567
5973.32422,0.14444
5971.39547,0.14241
5969.46673,0.13955
5967.53798,0.13719
5965.60924,0.13642
5963.68049,0.13566
5961.75174,0.13400
5959.82300,0.13289
5957.89425,0.13315
5955.96551,0.13386
5954.03676,0.13387
5952.10802,0.13334
5950.17927,0.13317
5948.25053,0.13326
5946.32178,0.13273
5944.39304,0.13204
5942.46429,0.13310
5940.53555,0.13585
5938.60680,0.13806
5936.67806,0.13924
5934.74931,0.14029
5932.82057,0.14202
5930.89182,0.14425
5928.96307,0.14553
5927.03433,0.14591
5925.10558,0.14662
5923.17684,0.14806
5921.24809,0.15001
5919.31935,0.15167
5917.39060,0.15275
5915.46186,0.15383
5913.53311,0.15484
5911.60437,0.15477
5909.67562,0.15333
5907.74688,0.15227
5905.81813,0.15288
5903.88939,0.15371
5901.96064,0.15357
5900.03189,0.15308
5898.10315,0.15244
5896.17440,0.15150
5894.24566,0.15111
5892.31691,0.15146
5890.38817,0.15103
5888.45942,0.14955
5886.53068,0.14885
5884.60193,0.14937
5882.67319,0.14957
5880.74444,0.14897
5878.81570,0.14886
5876.88695,0.14931
5874.95821,0.14907
5873.02946,0.14876
5871.10072,0.14914
5869.17197,0.14936
5867.24322,0.14868
5865.31448,0.14735
5863.38573,0.14710
5861.45699,0.14896
5859.52824,0.15117
5857.59950,0.15188
5855.67075,0.15162
5853.74201,0.15109
5851.81326,0.15003
5849.88452,0.14973
5847.95577,0.15138
5846.02703,0.15309
5844.09828,0.15340
5842.16954,0.15357
5840.24079,0.15413
5838.31205,0.15402
5836.38330,0.15355
5834.45455,0.15413
5832.52581,0.15550
5830.59706,0.15570
5828.66832,0.15358
5826.73957,0.15030
5824.81083,0.14828
5822.88208,0.14866
5820.95334,0.15043
5819.02459,0.15179
5817.09585,0.15168
5815.16710,0.15035
5813.23836,0.14942
5811.30961,0.14952
5809.38087,0.14963
5807.45212,0.14974
5805.52337,0.15025
5803.59463,0.15074
5801.66588,0.15120
5799.73714,0.15153
5797.80839,0.15172
5795.87965,0.15253
5793.95090,0.15401
5792.02216,0.15495
5790.09341,0.15512
5788.16467,0.15540
5786.23592,0.15576
5784.30718,0.15546
5782.37843,0.15491
5780.44969,0.15528
5778.52094,0.15629
5776.59220,0.15654
5774.66345,0.15614
5772.73470,0.15604
5770.80596,0.15650
5768.87721,0.15784
5766.94847,0.15935
5765.01972,0.16005
5763.09098,0.16079
5761.16223,0.16215
5759.23349,0.16357
5757.30474,0.16465
5755.37600,0.16511
5753.44725,0.16531
5751.51851,0.16584
5749.58976,0.16653
5747.66102,0.16699
5745.73227,0.16750
5743.80352,0.16853
5741.87478,0.17030
5739.94603,0.17225
5738.01729,0.17295
5736.08854,0.17244
5734.15980,0.17241
5732.23105,0.17335
5730.30231,0.17440
5728.37356,0.17517
5726.44482,0.17595
5724.51607,0.17663
5722.58733,0.17689
5720.65858,0.17705
5718.72984,0.17770
5716.80109,0.17839
5714.87235,0.17827
5712.94360,0.17856
5711.01485,0.18034
5709.08611,0.18172
5707.15736,0.18207
5705.22862,0.18308
5703.29987,0.18472
5701.37113,0.18581
5699.44238,0.18599
5697.51364,0.18606
5695.58489,0.18677
5693.65615,0.18723
5691.72740,0.18710
5689.79866,0.18715
5687.86991,0.18755
5685.94117,0.18808
5684.01242,0.18859
5682.08368,0.18974
5680.15493,0.19160
5678.22618,0.19278
5676.29744,0.19303
5674.36869,0.19314
5672.43995,0.19350
5670.51120,0.19404
5668.58246,0.19391
5666.65371,0.19319
5664.72497,0.19327
5662.79622,0.19412
5660.86748,0.19464
5658.93873,0.19478
5657.00999,0.19469
5655.08124,0.19425
5653.15250,0.19365
5651.22375,0.19329
5649.29500,0.19318
5647.36626,0.19287
5645.43751,0.19190
5643.50877,0.19048
5641.58002,0.18963
5639.65128,0.18942
5637.72253,0.18900
5635.79379,0.18862
5633.86504,0.18829
5631.93630,0.18762
5630.00755,0.18660
5628.07881,0.18500
5626.15006,0.18333
5624.22132,0.18206
5622.29257,0.18062
5620.36383,0.17924
5618.43508,0.17915
5616.50633,0.18013
5614.57759,0.18051
5612.64884,0.17936
5610.72010,0.17751
5608.79135,0.17662
5606.86261,0.17700
5604.93386,0.17735
5603.00512,0.17686
5601.07637,0.17607
5599.14763,0.17581
5597.21888,0.17604
5595.29014,0.17637
5593.36139,0.17654
5591.43265,0.17653
5589.50390,0.17641
5587.57516,0.17613
5585.64641,0.17626
5583.71766,0.17691
5581.78892,0.17736
5579.86017,0.17731
5577.93143,0.17705
5576.00268,0.17715
5574.07394,0.17760
5572.14519,0.17802
5570.21645,0.17809
5568.28770,0.17787
5566.35896,0.17816
5564.43021,0.17901
5562.50147,0.17973
5560.57272,0.18016
5558.64398,0.18036
5556.71523,0.18044
5554.78648,0.18078
5552.85774,0.18149
5550.92899,0.18172
5549.00025,0.18106
5547.07150,0.18041
5545.14276,0.18057
5543.21401,0.18173
5541.28527,0.18345
5539.35652,0.18444
5537.42778,0.18406
5535.49903,0.18340
5533.57029,0.18331
5531.64154,0.18360
5529.71280,0.18417
5527.78405,0.18495
5525.85531,0.18499
5523.92656,0.18413
5521.99781,0.18365
5520.06907,0.18357
5518.14032,0.18267
5516.21158,0.18118
5514.28283,0.18012
5512.35409,0.17951
5510.42534,0.17843
5508.49660,0.17687
5506.56785,0.17588
5504.63911,0.17569
5502.71036,0.17560
5500.78162,0.17488
5498.85287,0.17382
5496.92413,0.17315
5494.99538,0.17281
5493.06664,0.17242
5491.13789,0.17179
5489.20914,0.17120
5487.28040,0.17123
5485.35165,0.17165
5483.42291,0.17195
5481.49416,0.17192
5479.56542,0.17165
5477.63667,0.17139
5475.70793,0.17120
5473.77918,0.17105
5471.85044,0.17093
5469.92169,0.17086
5467.99295,0.17067
5466.06420,0.17015
5464.13546,0.16990
5462.20671,0.17011
5460.27796,0.16972
5458.34922,0.16883
5456.42047,0.16845
5454.49173,0.16843
5452.56298,0.16842
5450.63424,0.16852
5448.70549,0.16839
5446.77675,0.16826
5444.84800,0.16898
5442.91926,0.16987
5440.99051,0.16975
5439.06177,0.16916
5437.13302,0.16907
5435.20428,0.16917
5433.27553,0.16861
5431.34679,0.16759
5429.41804,0.16657
5427.48929,0.16572
5425.56055,0.16558
5423.63180,0.16605
5421.70306,0.16623
5419.77431,0.16597
5417.84557,0.16579
5415.91682,0.16543
5413.98808,0.16435
5412.05933,0.16321
5410.13059,0.16269
5408.20184,0.16186
5406.27310,0.16025
5404.34435,0.15926
5402.41561,0.15971
5400.48686,0.16034
5398.55811,0.16004
5396.62937,0.15929
5394.70062,0.15864
5392.77188,0.15825
5390.84313,0.15826
5388.91439,0.15807
5386.98564,0.15733
5385.05690,0.15690
5383.12815,0.15708
5381.19941,0.15728
5379.27066,0.15733
5377.34192,0.15709
5375.41317,0.15655
5373.48443,0.15657
5371.55568,0.15765
5369.62694,0.15893
5367.69819,0.15925
5365.76944,0.15865
5363.84070,0.15814
5361.91195,0.15840
5359.98321,0.15929
5358.05446,0.16003
5356.12572,0.16034
5354.19697,0.16065
5352.26823,0.16027
5350.33948,0.15893
5348.41074,0.15848
5346.48199,0.15963
5344.55325,0.16054
5342.62450,0.15983
5340.69576,0.15865
5338.76701,0.15831
5336.83827,0.15830
5334.90952,0.15798
5332.98077,0.15720
5331.05203,0.15602
5329.12328,0.15514
5327.19454,0.15494
5325.26579,0.15492
5323.33705,0.15431
5321.40830,0.15302
5319.47956,0.15196
5317.55081,0.15190
5315.62207,0.15241
5313.69332,0.15238
5311.76458,0.15149
5309.83583,0.15032
5307.90709,0.14919
5305.97834,0.14831
5304.04959,0.14748
5302.12085,0.14613
5300.19210,0.14463
5298.26336,0.14334
5296.33461,0.14181
5294.40587,0.14012
5292.47712,0.13867
5290.54838,0.13726
5288.61963,0.13607
5286.69089,0.13526
5284.76214,0.13406
5282.83340,0.13205
5280.90465,0.12987
5278.97591,0.12840
5277.04716,0.12802
5275.11842,0.12795
5273.18967,0.12731
5271.26092,0.12607
5269.33218,0.12395
5267.40343,0.12132
5265.47469,0.11951
5263.54594,0.11893
5261.61720,0.11915
5259.68845,0.11955
5257.75971,0.11930
5255.83096,0.11847
5253.90222,0.11813
5251.97347,0.11797
5250.04473,0.11669
5248.11598,0.11475
5246.18724,0.11359
5244.25849,0.11349
5242.32975,0.11382
5240.40100,0.11414
5238.47225,0.11451
5236.54351,0.11505
5234.61476,0.11553
5232.68602,0.11586
5230.75727,0.11623
5228.82853,0.11698
5226.89978,0.11825
5224.97104,0.11958
5223.04229,0.12012
5221.11355,0.11975
5219.18480,0.11972
5217.25606,0.12112
5215.32731,0.12316
5213.39857,0.12431
5211.46982,0.12427
5209.54107,0.12392
5207.61233,0.12417
5205.68358,0.12475
5203.75484,0.12492
5201.82609,0.12528
5199.89735,0.12623
5197.96860,0.12708
5196.03986,0.12766
5194.11111,0.12803
5192.18237,0.12807
5190.25362,0.12821
5188.32488,0.12850
5186.39613,0.12832
5184.46739,0.12836
5182.53864,0.12930
5180.60990,0.12993
5178.68115,0.12965
5176.75240,0.12935
5174.82366,0.12932
5172.89491,0.12932
5170.96617,0.12932
5169.03742,0.12924
5167.10868,0.12901
5165.17993,0.12856
5163.25119,0.12805
5161.32244,0.12754
5159.39370,0.12659
5157.46495,0.12561
5155.53621,0.12555
5153.60746,0.12625
5151.67872,0.12697
5149.74997,0.12713
5147.82123,0.12615
5145.89248,0.12439
5143.96373,0.12310
5142.03499,0.12294
5140.10624,0.12409
5138.17750,0.12553
5136.24875,0.12534
5134.32001,0.12361
5132.39126,0.12230
5130.46252,0.12240
5128.53377,0.12313
5126.60503,0.12333
5124.67628,0.12310
5122.74754,0.12293
5120.81879,0.12281
5118.89005,0.12317
5116.96130,0.12362
5115.03255,0.12310
5113.10381,0.12229
5111.17506,0.12248
5109.24632,0.12324
5107.31757,0.12365
5105.38883,0.12390
5103.46008,0.12422
5101.53134,0.12466
5099.60259,0.12568
5097.67385,0.12685
5095.74510,0.12702
5093.81636,0.12630
5091.88761,0.12575
5089.95887,0.12593
5088.03012,0.12634
5086.10138,0.12646
5084.17263,0.12648
5082.24388,0.12631
5080.31514,0.12582
5078.38639,0.12578
5076.45765,0.12643
5074.52890,0.12667
5072.60016,0.12606
5070.67141,0.12537
5068.74267,0.12499
5066.81392,0.12497
5064.88518,0.12510
5062.95643,0.12499
5061.02769,0.12492
5059.09894,0.12514
5057.17020,0.12532
5055.24145,0.12566
5053.31270,0.12623
5051.38396,0.12618
5049.45521,0.12544
5047.52647,0.12470
5045.59772,0.12398
5043.66898,0.12361
5041.74023,0.12368
5039.81149,0.12340
5037.88274,0.12279
5035.95400,0.12267
5034.02525,0.12290
5032.09651,0.12267
5030.16776,0.12203
5028.23902,0.12190
5026.31027,0.12221
5024.38153,0.12212
5022.45278,0.12169
5020.52403,0.12158
5018.59529,0.12203
5016.66654,0.12255
5014.73780,0.12216
5012.80905,0.12081
5010.88031,0.11976
5008.95156,0.11977
5007.02282,0.12022
5005.09407,0.12016
5003.16533,0.11969
5001.23658,0.11964
4999.30784,0.11983
4997.37909,0.11948
4995.45035,0.11864
4993.52160,0.11783
4991.59286,0.11729
4989.66411,0.11710
4987.73536,0.11705
4985.80662,0.11692
4983.87787,0.11692
4981.94913,0.11721
4980.02038,0.11744
4978.09164,0.11734
4976.16289,0.11686
4974.23415,0.11593
4972.30540,0.11505
4970.37666,0.11494
4968.44791,0.11512
4966.51917,0.11474
4964.59042,0.11433
4962.66168,0.11417
4960.73293,0.11354
4958.80418,0.11269
4956.87544,0.11237
4954.94669,0.11247
4953.01795,0.11253
4951.08920,0.11229
4949.16046,0.11198
4947.23171,0.11154
4945.30297,0.11082
4943.37422,0.11053
4941.44548,0.11097
4939.51673,0.11130
4937.58799,0.11081
4935.65924,0.10971
4933.73050,0.10891
4931.80175,0.10892
4929.87301,0.10928
4927.94426,0.10945
4926.01551,0.10944
4924.08677,0.10947
4922.15802,0.10942
4920.22928,0.10920
4918.30053,0.10898
4916.37179,0.10890
4914.44304,0.10904
4912.51430,0.10921
4910.58555,0.10899
4908.65681,0.10828
4906.72806,0.10726
4904.79932,0.10656
4902.87057,0.10680
4900.94183,0.10743
4899.01308,0.10735
4897.08434,0.10683
4895.15559,0.10692
4893.22684,0.10725
4891.29810,0.10690
4889.36935,0.10629
4887.44061,0.10607
4885.51186,0.10601
4883.58312,0.10571
4881.65437,0.10519
4879.72563,0.10479
4877.79688,0.10452
4875.86814,0.10448
4873.93939,0.10491
4872.01065,0.10518
4870.08190,0.10473
4868.15316,0.10390
4866.22441,0.10318
4864.29566,0.10268
4862.36692,0.10262
4860.43817,0.10322
4858.50943,0.10372
4856.58068,0.10322
4854.65194,0.10246
4852.72319,0.10225
4850.79445,0.10218
4848.86570,0.10205
4846.93696,0.10207
4845.00821,0.10220
4843.07947,0.10243
4841.15072,0.10256
4839.22198,0.10205
4837.29323,0.10087
4835.36449,0.09972
4833.43574,0.09932
4831.50699,0.09958
4829.57825,0.10004
4827.64950,0.10025
4825.72076,0.09960
4823.79201,0.09855
4821.86327,0.09833
4819.93452,0.09877
4818.00578,0.09880
4816.07703,0.09831
4814.14829,0.09792
4812.21954,0.09791
4810.29080,0.09800
4808.36205,0.09778
4806.43331,0.09732
4804.50456,0.09700
4802.57582,0.09676
4800.64707,0.09629
4798.71832,0.09581
4796.78958,0.09578
4794.86083,0.09569
4792.93209,0.09503
4791.00334,0.09450
4789.07460,0.09462
4787.14585,0.09495
4785.21711,0.09478
4783.28836,0.09402
4781.35962,0.09351
4779.43087,0.09342
4777.50213,0.09296
4775.57338,0.09208
4773.64464,0.09147
4771.71589,0.09124
4769.78714,0.09083
4767.85840,0.09024
4765.92965,0.08985
4764.00091,0.08975
4762.07216,0.08984
4760.14342,0.08959
4758.21467,0.08881
4756.28593,0.08826
4754.35718,0.08834
4752.42844,0.08831
4750.49969,0.08764
4748.57095,0.08683
4746.64220,0.08619
4744.71346,0.08544
4742.78471,0.08451
4740.85597,0.08363
4738.92722,0.08316
4736.99847,0.08332
4735.06973,0.08354
4733.14098,0.08326
4731.21224,0.08276
4729.28349,0.08258
4727.35475,0.08281
4725.42600,0.08279
4723.49726,0.08225
4721.56851,0.08180
4719.63977,0.08159
4717.71102,0.08139
4715.78228,0.08126
4713.85353,0.08087
4711.92479,0.08025
4709.99604,0.08033
4708.06729,0.08064
4706.13855,0.07974
4704.20980,0.07830
4702.28106,0.07753
4700.35231,0.07719
4698.42357,0.07708
4696.49482,0.07710
4694.56608,0.07667
4692.63733,0.07575
4690.70859,0.07493
4688.77984,0.07437
4686.85110,0.07404
4684.92235,0.07400
4682.99361,0.07409
4681.06486,0.07413
4679.13612,0.07410
4677.20737,0.07404
4675.27862,0.07397
4673.34988,0.07383
4671.42113,0.07377
4669.49239,0.07411
4667.56364,0.07486
4665.63490,0.07542
4663.70615,0.07528
4661.77741,0.07468
4659.84866,0.07430
4657.91992,0.07447
4655.99117,0.07462
4654.06243,0.07425
4652.13368,0.07388
4650.20494,0.07385
4648.27619,0.07368
4646.34745,0.07303
4644.41870,0.07221
4642.48995,0.07183
4640.56121,0.07187
4638.63246,0.07183
4636.70372,0.07152
4634.77497,0.07084
4632.84623,0.07023
4630.91748,0.07012
4628.98874,0.06999
4627.05999,0.06947
4625.13125,0.06884
4623.20250,0.06824
4621.27376,0.06790
4619.34501,0.06777
4617.41627,0.06755
4615.48752,0.06711
4613.55877,0.06652
4611.63003,0.06599
4609.70128,0.06575
4607.77254,0.06596
4605.84379,0.06628
4603.91505,0.06608
4601.98630,0.06532
4600.05756,0.06461
4598.12881,0.06449
4596.20007,0.06459
4594.27132,0.06441
4592.34258,0.06403
4590.41383,0.06358
4588.48509,0.06335
4586.55634,0.06366
4584.62760,0.06403
4582.69885,0.06387
4580.77010,0.06336
4578.84136,0.06286
4576.91261,0.06252
4574.98387,0.06263
4573.05512,0.06324
4571.12638,0.06365
4569.19763,0.06350
4567.26889,0.06304
4565.34014,0.06247
4563.41140,0.06196
4561.48265,0.06169
4559.55391,0.06176
4557.62516,0.06186
4555.69642,0.06142
4553.76767,0.06080
4551.83893,0.06065
4549.91018,0.06076
4547.98143,0.06082
4546.05269,0.06055
4544.12394,0.06012
4542.19520,0.06016
4540.26645,0.06030
4538.33771,0.05995
4536.40896,0.05935
4534.48022,0.05871
4532.55147,0.05834
4530.62273,0.05841
4528.69398,0.05827
4526.76524,0.05773
4524.83649,0.05747
4522.90775,0.05762
4520.97900,0.05773
4519.05025,0.05761
4517.12151,0.05731
4515.19276,0.05719
4513.26402,0.05745
4511.33527,0.05747
4509.40653,0.05704
4507.47778,0.05655
4505.54904,0.05602
4503.62029,0.05561
4501.69155,0.05561
4499.76280,0.05579
4497.83406,0.05592
4495.90531,0.05599
4493.97657,0.05587
4492.04782,0.05563
4490.11908,0.05555
4488.19033,0.05565
4486.26158,0.05560
4484.33284,0.05532
4482.40409,0.05515
4480.47535,0.05508
4478.54660,0.05492
4476.61786,0.05489
4474.68911,0.05505
4472.76037,0.05507
4470.83162,0.05482
4468.90288,0.05435
4466.97413,0.05389
4465.04539,0.05377
4463.11664,0.05418
4461.18790,0.05454
4459.25915,0.05412
4457.33041,0.05350
4455.40166,0.05331
4453.47291,0.05331
4451.54417,0.05338
4449.61542,0.05348
4447.68668,0.05352
4445.75793,0.05351
4443.82919,0.05345
4441.90044,0.05340
4439.97170,0.05339
4438.04295,0.05323
4436.11421,0.05315
4434.18546,0.05334
4432.25672,0.05349
4430.32797,0.05351
4428.39923,0.05359
4426.47048,0.05359
4424.54173,0.05344
4422.61299,0.05331
4420.68424,0.05344
4418.75550,0.05384
4416.82675,0.05418
4414.89801,0.05437
4412.96926,0.05451
4411.04052,0.05417
4409.11177,0.05328
4407.18303,0.05261
4405.25428,0.05265
4403.32554,0.05335
4401.39679,0.05408
4399.46805,0.05418
4397.53930,0.05395
4395.61056,0.05389
4393.68181,0.05382
4391.75306,0.05356
4389.82432,0.05322
4387.89557,0.05303
4385.96683,0.05313
4384.03808,0.05334
4382.10934,0.05341
4380.18059,0.05352
4378.25185,0.05389
4376.32310,0.05421
4374.39436,0.05408
4372.46561,0.05375
4370.53687,0.05360
4368.60812,0.05366
4366.67938,0.05402
4364.75063,0.05445
4362.82189,0.05445
4360.89314,0.05402
4358.96439,0.05361
4357.03565,0.05362
4355.10690,0.05395
4353.17816,0.05422
4351.24941,0.05448
4349.32067,0.05482
4347.39192,0.05509
4345.46318,0.05525
4343.53443,0.05517
4341.60569,0.05499
4339.67694,0.05496
4337.74820,0.05481
4335.81945,0.05431
4333.89071,0.05376
4331.96196,0.05371
4330.03321,0.05404
4328.10447,0.05428
4326.17572,0.05449
4324.24698,0.05472
4322.31823,0.05493
4320.38949,0.05512
4318.46074,0.05508
4316.53200,0.05482
4314.60325,0.05454
4312.67451,0.05438
4310.74576,0.05439
4308.81702,0.05446
4306.88827,0.05468
4304.95953,0.05516
4303.03078,0.05546
4301.10204,0.05534
4299.17329,0.05512
4297.24454,0.05487
4295.31580,0.05463
4293.38705,0.05447
4291.45831,0.05443
4289.52956,0.05451
4287.60082,0.05459
4285.67207,0.05451
4283.74333,0.05429
4281.81458,0.05421
4279.88584,0.05441
4277.95709,0.05456
4276.02835,0.05442
4274.09960,0.05430
4272.17086,0.05435
4270.24211,0.05440
4268.31336,0.05442
4266.38462,0.05441
4264.45587,0.05418
4262.52713,0.05402
4260.59838,0.05440
4258.66964,0.05479
4256.74089,0.05457
4254.81215,0.05432
4252.88340,0.05460
4250.95466,0.05491
4249.02591,0.05464
4247.09717,0.05408
4245.16842,0.05398
4243.23968,0.05430
4241.31093,0.05439
4239.38219,0.05427
4237.45344,0.05432
4235.52469,0.05435
4233.59595,0.05421
4231.66720,0.05409
4229.73846,0.05413
4227.80971,0.05436
4225.88097,0.05429
4223.95222,0.05376
4222.02348,0.05357
4220.09473,0.05376
4218.16599,0.05365
4216.23724,0.05338
4214.30850,0.05344
4212.37975,0.05387
4210.45101,0.05442
4208.52226,0.05464
4206.59352,0.05432
4204.66477,0.05384
4202.73602,0.05368
4200.80728,0.05371
4198.87853,0.05386
4196.94979,0.05428
4195.02104,0.05464
4193.09230,0.05457
4191.16355,0.05428
4189.23481,0.05405
4187.30606,0.05388
4185.37732,0.05379
4183.44857,0.05400
4181.51983,0.05439
4179.59108,0.05447
4177.66234,0.05426
4175.73359,0.05420
4173.80484,0.05455
4171.87610,0.05500
4169.94735,0.05498
4168.01861,0.05450
4166.08986,0.05419
4164.16112,0.05448
4162.23237,0.05501
4160.30363,0.05514
4158.37488,0.05486
4156.44614,0.05455
4154.51739,0.05435
4152.58865,0.05411
4150.65990,0.05385
4148.73116,0.05391
4146.80241,0.05430
4144.87367,0.05451
4142.94492,0.05427
4141.01617,0.05414
4139.08743,0.05439
4137.15868,0.05447
4135.22994,0.05425
4133.30119,0.05424
4131.37245,0.05454
4129.44370,0.05487
4127.51496,0.05502
4125.58621,0.05511
4123.65747,0.05533
4121.72872,0.05530
4119.79998,0.05480
4117.87123,0.05443
4115.94249,0.05448
4114.01374,0.05466
4112.08500,0.05480
4110.15625,0.05479
4108.22750,0.05466
4106.29876,0.05466
4104.37001,0.05481
4102.44127,0.05481
4100.51252,0.05459
4098.58378,0.05451
4096.65503,0.05474
4094.72629,0.05502
4092.79754,0.05495
4090.86880,0.05455
4088.94005,0.05435
4087.01131,0.05476
4085.08256,0.05532
4083.15382,0.05543
4081.22507,0.05517
4079.29632,0.05479
4077.36758,0.05444
4075.43883,0.05442
4073.51009,0.05485
4071.58134,0.05536
4069.65260,0.05546
4067.72385,0.05517
4065.79511,0.05500
4063.86636,0.05509
4061.93762,0.05510
4060.00887,0.05490
4058.08013,0.05471
4056.15138,0.05475
4054.22264,0.05495
4052.29389,0.05506
4050.36515,0.05498
4048.43640,0.05502
4046.50765,0.05539
4044.57891,0.05573
4042.65016,0.05558
4040.72142,0.05522
4038.79267,0.05502
4036.86393,0.05499
4034.93518,0.05511
4033.00644,0.05524
4031.07769,0.05508
4029.14895,0.05476
4027.22020,0.05482
4025.29146,0.05523
4023.36271,0.05542
4021.43397,0.05521
4019.50522,0.05505
4017.57648,0.05501
4015.64773,0.05468
4013.71898,0.05426
4011.79024,0.05426
4009.86149,0.05452
4007.93275,0.05473
4006.00400,0.05493
4004.07526,0.05504
4002.14651,0.05500
4000.21777,0.05488
3998.28902,0.05464
3996.36028,0.05439
3994.43153,0.05439
3992.50279,0.05458
3990.57404,0.05464
3988.64530,0.05457
3986.71655,0.05464
3984.78780,0.05484
3982.85906,0.05489
3980.93031,0.05481
3979.00157,0.05486
3977.07282,0.05511
3975.14408,0.05542
3973.21533,0.05546
3971.28659,0.05513
3969.35784,0.05497
3967.42910,0.05515
3965.50035,0.05521
3963.57161,0.05505
3961.64286,0.05489
3959.71412,0.05497
3957.78537,0.05519
3955.85663,0.05531
3953.92788,0.05548
3951.99913,0.05563
3950.07039,0.05544
3948.14164,0.05516
3946.21290,0.05500
3944.28415,0.05473
3942.35541,0.05454
3940.42666,0.05464
3938.49792,0.05477
3936.56917,0.05471
3934.64043,0.05464
3932.71168,0.05475
3930.78294,0.05502
3928.85419,0.05525
3926.92545,0.05513
3924.99670,0.05469
3923.06795,0.05441
3921.13921,0.05430
3919.21046,0.05403
3917.28172,0.05399
3915.35297,0.05443
3913.42423,0.05472
3911.49548,0.05458
3909.56674,0.05441
3907.63799,0.05452
3905.70925,0.05466
3903.78050,0.05465
3901.85176,0.05476
3899.92301,0.05494
3897.99427,0.05480
3896.06552,0.05439
3894.13678,0.05394
3892.20803,0.05372
3890.27928,0.05394
3888.35054,0.05430
3886.42179,0.05439
3884.49305,0.05445
3882.56430,0.05453
3880.63556,0.05425
3878.70681,0.05400
3876.77807,0.05414
3874.84932,0.05435
3872.92058,0.05442
3870.99183,0.05447
3869.06309,0.05449
3867.13434,0.05442
3865.20560,0.05422
3863.27685,0.05406
3861.34811,0.05418
3859.41936,0.05440
3857.49061,0.05440
3855.56187,0.05422
3853.63312,0.05394
3851.70438,0.05364
3849.77563,0.05370
3847.84689,0.05405
3845.91814,0.05424
3843.98940,0.05405
3842.06065,0.05384
3840.13191,0.05401
3838.20316,0.05422
3836.27442,0.05417
3834.34567,0.05414
3832.41693,0.05411
3830.48818,0.05404
3828.55943,0.05418
3826.63069,0.05441
3824.70194,0.05443
3822.77320,0.05429
3820.84445,0.05427
3818.91571,0.05426
3816.98696,0.05404
3815.05822,0.05409
3813.12947,0.05437
3811.20073,0.05428
3809.27198,0.05403
3807.34324,0.05408
3805.41449,0.05431
3803.48575,0.05433
3801.55700,0.05401
3799.62826,0.05374
3797.69951,0.05392
3795.77076,0.05428
3793.84202,0.05445
3791.91327,0.05437
3789.98453,0.05427
3788.05578,0.05428
3786.12704,0.05441
3784.19829,0.05448
3782.26955,0.05450
3780.34080,0.05458
3778.41206,0.05451
3776.48331,0.05425
3774.55457,0.05419
3772.62582,0.05431
3770.69708,0.05430
3768.76833,0.05412
3766.83959,0.05388
3764.91084,0.05366
3762.98209,0.05369
3761.05335,0.05394
3759.12460,0.05399
3757.19586,0.05393
3755.26711,0.05416
3753.33837,0.05439
3751.40962,0.05401
3749.48088,0.05370
3747.55213,0.05402
3745.62339,0.05415
3743.69464,0.05369
3741.76590,0.05331
3739.83715,0.05328
3737.90841,0.05334
3735.97966,0.05327
3734.05091,0.05329
3732.12217,0.05360
3730.19342,0.05380
3728.26468,0.05372
3726.33593,0.05367
3724.40719,0.05391
3722.47844,0.05423
3720.54970,0.05427
3718.62095,0.05408
3716.69221,0.05384
3714.76346,0.05364
3712.83472,0.05353
3710.90597,0.05341
3708.97723,0.05325
3707.04848,0.05324
3705.11974,0.05321
3703.19099,0.05298
3701.26224,0.05276
3699.33350,0.05287
3697.40475,0.05322
3695.47601,0.05355
3693.54726,0.05378
3691.61852,0.05389
3689.68977,0.05367
3687.76103,0.05332
3685.83228,0.05317
3683.90354,0.05329
3681.97479,0.05364
3680.04605,0.05377
3678.11730,0.05335
3676.18856,0.05276
3674.25981,0.05254
3672.33107,0.05258
3670.40232,0.05258
3668.47357,0.05273
3666.54483,0.05305
3664.61608,0.05313
3662.68734,0.05288
3660.75859,0.05275
3658.82985,0.05294
3656.90110,0.05302
3654.97236,0.05292
3653.04361,0.05281
3651.11487,0.05254
3649.18612,0.05225
3647.25738,0.05230
3645.32863,0.05232
3643.39989,0.05213
3641.47114,0.05223
3639.54239,0.05268
3637.61365,0.05298
3635.68490,0.05312
3633.75616,0.05342
3631.82741,0.05399
3629.89867,0.05496
3627.96992,0.05631
3626.04118,0.05737
3624.11243,0.05781
3622.18369,0.05766
3620.25494,0.05673
3618.32620,0.05523
3616.39745,0.05396
3614.46871,0.05339
3612.53996,0.05337
3610.61122,0.05352
3608.68247,0.05370
3606.75372,0.05378
3604.82498,0.05355
3602.89623,0.05313
3600.96749,0.05284
3599.03874,0.05282
3597.11000,0.05280
3595.18125,0.05267
3593.25251,0.05272
3591.32376,0.05286
3589.39502,0.05285
3587.46627,0.05297
3585.53753,0.05323
3583.60878,0.05322
3581.68004,0.05301
3579.75129,0.05295
3577.82254,0.05309
3575.89380,0.05315
3573.96505,0.05309
3572.03631,0.05326
3570.10756,0.05352
3568.17882,0.05331
3566.25007,0.05290
3564.32133,0.05295
3562.39258,0.05336
3560.46384,0.05358
3558.53509,0.05356
3556.60635,0.05365
3554.67760,0.05380
3552.74886,0.05380
3550.82011,0.05381
3548.89137,0.05394
3546.96262,0.05413
3545.03387,0.05455
3543.10513,0.05536
3541.17638,0.05639
3539.24764,0.05774
3537.31889,0.05968
3535.39015,0.06186
3533.46140,0.06373
3531.53266,0.06502
3529.60391,0.06547
3527.67517,0.06467
3525.74642,0.06300
3523.81768,0.06148
3521.88893,0.06037
3519.96019,0.05950
3518.03144,0.05897
3516.10270,0.05877
3514.17395,0.05860
3512.24520,0.05836
3510.31646,0.05816
3508.38771,0.05810
3506.45897,0.05837
3504.53022,0.05887
3502.60148,0.05948
3500.67273,0.06040
3498.74399,0.06156
3496.81524,0.06259
3494.88650,0.06342
3492.95775,0.06433
3491.02901,0.06553
3489.10026,0.06680
3487.17152,0.06777
3485.24277,0.06838
3483.31402,0.06899
3481.38528,0.06988
3479.45653,0.07094
3477.52779,0.07190
3475.59904,0.07263
3473.67030,0.07307
3471.74155,0.07334
3469.81281,0.07344
3467.88406,0.07315
3465.95532,0.07286
3464.02657,0.07303
3462.09783,0.07320
3460.16908,0.07309
3458.24034,0.07273
3456.31159,0.07196
3454.38285,0.07073
3452.45410,0.06943
3450.52535,0.06850
3448.59661,0.06793
3446.66786,0.06727
3444.73912,0.06620
3442.81037,0.06494
3440.88163,0.06391
3438.95288,0.06306
3437.02414,0.06221
3435.09539,0.06137
3433.16665,0.06051
3431.23790,0.05950
3429.30916,0.05829
3427.38041,0.05704
3425.45167,0.05607
3423.52292,0.05551
3421.59418,0.05510
3419.66543,0.05467
3417.73668,0.05426
3415.80794,0.05383
3413.87919,0.05337
3411.95045,0.05299
3410.02170,0.05282
3408.09296,0.05291
3406.16421,0.05301
3404.23547,0.05283
3402.30672,0.05258
3400.37798,0.05277
3398.44923,0.05343
3396.52049,0.05416
3394.59174,0.05456
3392.66300,0.05459
3390.73425,0.05439
3388.80550,0.05400
3386.87676,0.05361
3384.94801,0.05366
3383.01927,0.05430
3381.09052,0.05513
3379.16178,0.05575
3377.23303,0.05633
3375.30429,0.05695
3373.37554,0.05696
3371.44680,0.05623
3369.51805,0.05552
3367.58931,0.05518
3365.66056,0.05497
3363.73182,0.05475
3361.80307,0.05448
3359.87433,0.05418
3357.94558,0.05395
3356.01683,0.05385
3354.08809,0.05391
3352.15934,0.05404
3350.23060,0.05402
3348.30185,0.05391
3346.37311,0.05382
3344.44436,0.05378
3342.51562,0.05397
3340.58687,0.05430
3338.65813,0.05427
3336.72938,0.05389
3334.80064,0.05376
3332.87189,0.05383
3330.94315,0.05374
3329.01440,0.05339
3327.08566,0.05299
3325.15691,0.05290
3323.22816,0.05303
3321.29942,0.05314
3319.37067,0.05335
3317.44193,0.05363
3315.51318,0.05382
3313.58444,0.05391
3311.65569,0.05375
3309.72695,0.05339
3307.79820,0.05314
3305.86946,0.05303
3303.94071,0.05302
3302.01197,0.05332
3300.08322,0.05362
3298.15448,0.05351
3296.22573,0.05321
3294.29698,0.05305
3292.36824,0.05298
3290.43949,0.05290
3288.51075,0.05286
3286.58200,0.05289
3284.65326,0.05289
3282.72451,0.05283
3280.79577,0.05283
3278.86702,0.05282
3276.93828,0.05278
3275.00953,0.05288
3273.08079,0.05290
3271.15204,0.05268
3269.22330,0.05268
3267.29455,0.05300
3265.36581,0.05333
3263.43706,0.05357
3261.50831,0.05363
3259.57957,0.05354
3257.65082,0.05330
3255.72208,0.05301
3253.79333,0.05298
3251.86459,0.05300
3249.93584,0.05278
3248.00710,0.05261
3246.07835,0.05284
3244.14961,0.05336
3242.22086,0.05367
3240.29212,0.05358
3238.36337,0.05331
3236.43463,0.05311
3234.50588,0.05297
3232.57713,0.05267
3230.64839,0.05239
3228.71964,0.05231
3226.79090,0.05224
3224.86215,0.05237
3222.93341,0.05275
3221.00466,0.05298
3219.07592,0.05294
3217.14717,0.05293
3215.21843,0.05302
3213.28968,0.05292
3211.36094,0.05274
3209.43219,0.05284
3207.50345,0.05311
3205.57470,0.05316
3203.64596,0.05303
3201.71721,0.05305
3199.78846,0.05313
3197.85972,0.05312
3195.93097,0.05330
3194.00223,0.05360
3192.07348,0.05367
3190.14474,0.05362
3188.21599,0.05370
3186.28725,0.05391
3184.35850,0.05426
3182.42976,0.05457
3180.50101,0.05439
3178.57227,0.05386
3176.64352,0.05356
3174.71478,0.05366
3172.78603,0.05381
3170.85729,0.05370
3168.92854,0.05352
3166.99979,0.05349
3165.07105,0.05344
3163.14230,0.05336
3161.21356,0.05336
3159.28481,0.05329
3157.35607,0.05303
3155.42732,0.05283
3153.49858,0.05304
3151.56983,0.05357
3149.64109,0.05396
3147.71234,0.05396
3145.78360,0.05378
3143.85485,0.05352
3141.92611,0.05329
3139.99736,0.05322
3138.06861,0.05310
3136.13987,0.05304
3134.21112,0.05345
3132.28238,0.05387
3130.35363,0.05359
3128.42489,0.05308
3126.49614,0.05316
3124.56740,0.05369
3122.63865,0.05395
3120.70991,0.05383
3118.78116,0.05372
3116.85242,0.05372
3114.92367,0.05366
3112.99493,0.05344
3111.06618,0.05316
3109.13744,0.05292
3107.20869,0.05272
3105.27994,0.05260
3103.35120,0.05265
3101.42245,0.05286
3099.49371,0.05305
3097.56496,0.05308
3095.63622,0.05305
3093.70747,0.05311
3091.77873,0.05314
3089.84998,0.05310
3087.92124,0.05312
3085.99249,0.05324
3084.06375,0.05324
3082.13500,0.05294
3080.20626,0.05261
3078.27751,0.05250
3076.34877,0.05246
3074.42002,0.05245
3072.49127,0.05257
3070.56253,0.05265
3068.63378,0.05251
3066.70504,0.05242
3064.77629,0.05240
3062.84755,0.05216
3060.91880,0.05176
3058.99006,0.05164
3057.06131,0.05180
3055.13257,0.05187
3053.20382,0.05166
3051.27508,0.05132
3049.34633,0.05107
3047.41759,0.05089
3045.48884,0.05060
3043.56009,0.05025
3041.63135,0.05010
3039.70260,0.05014
3037.77386,0.05010
3035.84511,0.04987
3033.91637,0.04962
3031.98762,0.04953
3030.05888,0.04963
3028.13013,0.04968
3026.20139,0.04936
3024.27264,0.04886
3022.34390,0.04863
3020.41515,0.04875
3018.48641,0.04896
3016.55766,0.04905
3014.62892,0.04899
3012.70017,0.04873
3010.77142,0.04846
3008.84268,0.04841
3006.91393,0.04860
3004.98519,0.04890
3003.05644,0.04901
3001.12770,0.04897
2999.19895,0.04895
2997.27021,0.04883
2995.34146,0.04862
2993.41272,0.04867
2991.48397,0.04907
2989.55523,0.04951
2987.62648,0.04968
2985.69774,0.04976
2983.76899,0.04983
2981.84025,0.04968
2979.91150,0.04946
2977.98275,0.04949
2976.05401,0.04974
2974.12526,0.04996
2972.19652,0.04991
2970.26777,0.04958
2968.33903,0.04910
2966.41028,0.04883
2964.48154,0.04886
2962.55279,0.04882
2960.62405,0.04858
2958.69530,0.04850
2956.76656,0.04874
2954.83781,0.04916
2952.90907,0.04967
2950.98032,0.05021
2949.05157,0.05078
2947.12283,0.05144
2945.19408,0.05193
2943.26534,0.05216
2941.33659,0.05238
2939.40785,0.05259
2937.47910,0.05257
2935.55036,0.05242
2933.62161,0.05258
2931.69287,0.05311
2929.76412,0.05350
2927.83538,0.05363
2925.90663,0.05390
2923.97789,0.05444
2922.04914,0.05486
2920.12040,0.05498
2918.19165,0.05499
2916.26290,0.05495
2914.33416,0.05473
2912.40541,0.05439
2910.47667,0.05428
2908.54792,0.05447
2906.61918,0.05465
2904.69043,0.05462
2902.76169,0.05429
2900.83294,0.05385
2898.90420,0.05368
2896.97545,0.05370
2895.04671,0.05353
2893.11796,0.05332
2891.18922,0.05329
2889.26047,0.05325
2887.33172,0.05315
2885.40298,0.05313
2883.47423,0.05316
2881.54549,0.05323
2879.61674,0.05325
2877.68800,0.05315
2875.75925,0.05307
2873.83051,0.05303
2871.90176,0.05290
2869.97302,0.05291
2868.04427,0.05322
2866.11553,0.05351
2864.18678,0.05352
2862.25804,0.05330
2860.32929,0.05310
2858.40055,0.05318
2856.47180,0.05356
2854.54305,0.05412
2852.61431,0.05456
2850.68556,0.05463
2848.75682,0.05446
2846.82807,0.05432
2844.89933,0.05439
2842.97058,0.05462
2841.04184,0.05466
2839.11309,0.05436
2837.18435,0.05401
2835.25560,0.05384
2833.32686,0.05376
2831.39811,0.05366
2829.46937,0.05360
2827.54062,0.05374
2825.61188,0.05406
2823.68313,0.05417
2821.75438,0.05401
2819.82564,0.05401
2817.89689,0.05430
2815.96815,0.05456
2814.03940,0.05453
2812.11066,0.05441
2810.18191,0.05455
2808.25317,0.05482
2806.32442,0.05494
2804.39568,0.05493
2802.46693,0.05482
2800.53819,0.05459
2798.60944,0.05458
2796.68070,0.05485
2794.75195,0.05512
2792.82320,0.05528
2790.89446,0.05541
2788.96571,0.05547
2787.03697,0.05546
2785.10822,0.05540
2783.17948,0.05527
2781.25073,0.05501
2779.32199,0.05466
2777.39324,0.05447
2775.46450,0.05459
2773.53575,0.05484
2771.60701,0.05490
2769.67826,0.05481
2767.74952,0.05486
2765.82077,0.05499
2763.89203,0.05497
2761.96328,0.05493
2760.03453,0.05497
2758.10579,0.05506
2756.17704,0.05509
2754.24830,0.05502
2752.31955,0.05490
2750.39081,0.05487
2748.46206,0.05498
2746.53332,0.05516
2744.60457,0.05526
2742.67583,0.05525
2740.74708,0.05531
2738.81834,0.05543
2736.88959,0.05544
2734.96085,0.05527
2733.03210,0.05516
2731.10336,0.05519
2729.17461,0.05522
2727.24586,0.05521
2725.31712,0.05528
2723.38837,0.05543
2721.45963,0.05557
2719.53088,0.05558
2717.60214,0.05551
2715.67339,0.05554
2713.74465,0.05561
2711.81590,0.05569
2709.88716,0.05579
2707.95841,0.05570
2706.02967,0.05546
2704.10092,0.05536
2702.17218,0.05545
2700.24343,0.05557
2698.31468,0.05551
2696.38594,0.05535
2694.45719,0.05534
2692.52845,0.05538
2690.59970,0.05536
2688.67096,0.05544
2686.74221,0.05551
2684.81347,0.05536
2682.88472,0.05528
2680.95598,0.05533
2679.02723,0.05521
2677.09849,0.05495
2675.16974,0.05493
2673.24100,0.05511
2671.31225,0.05514
2669.38351,0.05495
2667.45476,0.05477
2665.52601,0.05476
2663.59727,0.05483
2661.66852,0.05473
2659.73978,0.05459
2657.81103,0.05468
2655.88229,0.05484
2653.95354,0.05488
2652.02480,0.05491
2650.09605,0.05495
2648.16731,0.05486
2646.23856,0.05473
2644.30982,0.05472
2642.38107,0.05477
2640.45233,0.05475
2638.52358,0.05475
2636.59484,0.05483
2634.66609,0.05483
2632.73734,0.05469
2630.80860,0.05459
2628.87985,0.05468
2626.95111,0.05476
2625.02236,0.05473
2623.09362,0.05460
2621.16487,0.05442
2619.23613,0.05440
2617.30738,0.05449
2615.37864,0.05444
2613.44989,0.05439
2611.52115,0.05443
2609.59240,0.05438
2607.66366,0.05416
2605.73491,0.05386
2603.80616,0.05364
2601.87742,0.05367
2599.94867,0.05393
2598.01993,0.05408
2596.09118,0.05394
2594.16244,0.05378
2592.23369,0.05376
2590.30495,0.05377
2588.37620,0.05376
2586.44746,0.05381
2584.51871,0.05397
2582.58997,0.05413
2580.66122,0.05402
2578.73248,0.05379
2576.80373,0.05378
2574.87499,0.05392
2572.94624,0.05401
2571.01749,0.05397
2569.08875,0.05391
2567.16000,0.05396
2565.23126,0.05410
2563.30251,0.05422
2561.37377,0.05422
2559.44502,0.05399
2557.51628,0.05371
2555.58753,0.05369
2553.65879,0.05390
2551.73004,0.05407
2549.80130,0.05400
2547.87255,0.05377
2545.94381,0.05357
2544.01506,0.05350
2542.08631,0.05354
2540.15757,0.05365
2538.22882,0.05374
2536.30008,0.05379
2534.37133,0.05386
2532.44259,0.05392
2530.51384,0.05390
2528.58510,0.05388
2526.65635,0.05395
2524.72761,0.05411
2522.79886,0.05413
2520.87012,0.05399
2518.94137,0.05390
2517.01263,0.05387
2515.08388,0.05384
2513.15514,0.05382
2511.22639,0.05384
2509.29764,0.05385
2507.36890,0.05375
2505.44015,0.05360
2503.51141,0.05359
2501.58266,0.05377
2499.65392,0.05386
2497.72517,0.05368
2495.79643,0.05361
2493.86768,0.05392
2491.93894,0.05416
2490.01019,0.05403
2488.08145,0.05379
2486.15270,0.05373
2484.22396,0.05384
2482.29521,0.05398
2480.36647,0.05398
2478.43772,0.05378
2476.50897,0.05355
2474.58023,0.05343
2472.65148,0.05344
2470.72274,0.05356
2468.79399,0.05371
2466.86525,0.05372
2464.93650,0.05358
2463.00776,0.05346
2461.07901,0.05347
2459.15027,0.05350
2457.22152,0.05349
2455.29278,0.05356
2453.36403,0.05367
2451.43529,0.05364
2449.50654,0.05349
2447.57779,0.05338
2445.64905,0.05345
2443.72030,0.05350
2441.79156,0.05334
2439.86281,0.05325
2437.93407,0.05332
2436.00532,0.05324
2434.07658,0.05310
2432.14783,0.05302
2430.21909,0.05290
2428.29034,0.05267
2426.36160,0.05248
2424.43285,0.05249
2422.50411,0.05264
2420.57536,0.05273
2418.64662,0.05271
2416.71787,0.05262
2414.78912,0.05261
2412.86038,0.05264
2410.93163,0.05256
2409.00289,0.05251
2407.07414,0.05258
2405.14540,0.05268
2403.21665,0.05278
2401.28791,0.05280
2399.35916,0.05268
2397.43042,0.05268
2395.50167,0.05287
2393.57293,0.05297
2391.64418,0.05285
2389.71544,0.05266
2387.78669,0.05245
2385.85795,0.05231
2383.92920,0.05233
2382.00045,0.05238
2380.07171,0.05244
2378.14296,0.05259
2376.21422,0.05266
2374.28547,0.05259
2372.35673,0.05254
2370.42798,0.05255
2368.49924,0.05257
2366.57049,0.05256
2364.64175,0.05252
2362.71300,0.05249
2360.78426,0.05252
2358.85551,0.05265
2356.92677,0.05274
2354.99802,0.05256
2353.06927,0.05216
2351.14053,0.05186
2349.21178,0.05189
2347.28304,0.05225
2345.35429,0.05267
2343.42555,0.05284
2341.49680,0.05270
2339.56806,0.05253
2337.63931,0.05254
2335.71057,0.05253
2333.78182,0.05233
2331.85308,0.05207
2329.92433,0.05194
2327.99559,0.05202
2326.06684,0.05218
2324.13810,0.05224
2322.20935,0.05220
2320.28060,0.05216
2318.35186,0.05223
2316.42311,0.05234
2314.49437,0.05233
2312.56562,0.05225
2310.63688,0.05216
2308.70813,0.05207
2306.77939,0.05202
2304.85064,0.05200
2302.92190,0.05202
2300.99315,0.05208
2299.06441,0.05215
2297.13566,0.05215
2295.20692,0.05199
2293.27817,0.05182
2291.34943,0.05191
2289.42068,0.05211
2287.49193,0.05215
2285.56319,0.05208
2283.63444,0.05203
2281.70570,0.05199
2279.77695,0.05185
2277.84821,0.05165
2275.91946,0.05152
2273.99072,0.05154
2272.06197,0.05170
2270.13323,0.05177
2268.20448,0.05156
2266.27574,0.05128
2264.34699,0.05126
2262.41825,0.05143
2260.48950,0.05150
2258.56075,0.05149
2256.63201,0.05158
2254.70326,0.05167
2252.77452,0.05159
2250.84577,0.05144
2248.91703,0.05146
2246.98828,0.05157
2245.05954,0.05164
2243.13079,0.05162
2241.20205,0.05149
2239.27330,0.05139
2237.34456,0.05136
2235.41581,0.05129
2233.48707,0.05128
2231.55832,0.05141
2229.62958,0.05152
2227.70083,0.05151
2225.77208,0.05140
2223.84334,0.05132
2221.91459,0.05130
2219.98585,0.05129
2218.05710,0.05134
2216.12836,0.05136
2214.19961,0.05121
2212.27087,0.05102
2210.34212,0.05092
2208.41338,0.05084
2206.48463,0.05078
2204.55589,0.05083
2202.62714,0.05092
2200.69840,0.05098
2198.76965,0.05092
2196.84090,0.05080
2194.91216,0.05086
2192.98341,0.05100
2191.05467,0.05101
2189.12592,0.05099
2187.19718,0.05101
2185.26843,0.05091
2183.33969,0.05072
2181.41094,0.05057
2179.48220,0.05051
2177.55345,0.05063
2175.62471,0.05090
2173.69596,0.05105
2171.76722,0.05094
2169.83847,0.05077
2167.90973,0.05065
2165.98098,0.05048
2164.05223,0.05030
2162.12349,0.05024
2160.19474,0.05029
2158.26600,0.05023
2156.33725,0.05006
2154.40851,0.05006
2152.47976,0.05015
2150.55102,0.05013
2148.62227,0.05011
2146.69353,0.05015
2144.76478,0.05007
2142.83604,0.04998
2140.90729,0.05010
2138.97855,0.05020
2137.04980,0.05007
2135.12106,0.04997
2133.19231,0.05005
2131.26356,0.05006
2129.33482,0.05002
2127.40607,0.05005
2125.47733,0.05003
2123.54858,0.04999
2121.61984,0.05001
2119.69109,0.05001
2117.76235,0.05003
2115.83360,0.05009
2113.90486,0.05000
2111.97611,0.04980
2110.04737,0.04970
2108.11862,0.04973
2106.18988,0.04986
2104.26113,0.05000
2102.33238,0.05006
2100.40364,0.05000
2098.47489,0.04996
2096.54615,0.05000
2094.61740,0.04996
2092.68866,0.04980
2090.75991,0.04976
2088.83117,0.04988
2086.90242,0.05001
2084.97368,0.05007
2083.04493,0.04999
2081.11619,0.04984
2079.18744,0.04976
2077.25870,0.04972
2075.32995,0.04971
2073.40121,0.04970
2071.47246,0.04960
2069.54371,0.04948
2067.61497,0.04946
2065.68622,0.04948
2063.75748,0.04944
2061.82873,0.04943
2059.89999,0.04951
2057.97124,0.04956
2056.04250,0.04951
2054.11375,0.04947
2052.18501,0.04948
2050.25626,0.04939
2048.32752,0.04921
2046.39877,0.04919
2044.47003,0.04935
2042.54128,0.04944
2040.61254,0.04933
2038.68379,0.04914
2036.75504,0.04909
2034.82630,0.04921
2032.89755,0.04936
2030.96881,0.04940
2029.04006,0.04937
2027.11132,0.04937
2025.18257,0.04943
2023.25383,0.04946
2021.32508,0.04945
2019.39634,0.04940
2017.46759,0.04936
2015.53885,0.04939
2013.61010,0.04934
2011.68136,0.04917
2009.75261,0.04913
2007.82386,0.04928
2005.89512,0.04941
2003.96637,0.04934
2002.03763,0.04923
2000.10888,0.04930
1998.18014,0.04941
1996.25139,0.04935
1994.32265,0.04921
1992.39390,0.04909
1990.46516,0.04907
1988.53641,0.04914
1986.60767,0.04924
1984.67892,0.04920
1982.75018,0.04898
1980.82143,0.04884
1978.89269,0.04900
1976.96394,0.04925
1975.03519,0.04925
1973.10645,0.04905
1971.17770,0.04895
1969.24896,0.04900
1967.32021,0.04894
1965.39147,0.04875
1963.46272,0.04872
1961.53398,0.04892
1959.60523,0.04909
1957.67649,0.04909
1955.74774,0.04901
1953.81900,0.04890
1951.89025,0.04881
1949.96151,0.04884
1948.03276,0.04897
1946.10402,0.04902
1944.17527,0.04894
1942.24652,0.04880
1940.31778,0.04878
1938.38903,0.04887
1936.46029,0.04889
1934.53154,0.04877
1932.60280,0.04862
1930.67405,0.04848
1928.74531,0.04844
1926.81656,0.04855
1924.88782,0.04866
1922.95907,0.04865
1921.03033,0.04868
1919.10158,0.04881
1917.17284,0.04883
1915.24409,0.04872
1913.31534,0.04860
1911.38660,0.04849
1909.45785,0.04844
1907.52911,0.04855
1905.60036,0.04864
1903.67162,0.04855
1901.74287,0.04834
1899.81413,0.04814
1897.88538,0.04799
1895.95664,0.04790
1894.02789,0.04787
1892.09915,0.04782
1890.17040,0.04772
1888.24166,0.04781
1886.31291,0.04795
1884.38417,0.04780
1882.45542,0.04753
1880.52667,0.04741
1878.59793,0.04740
1876.66918,0.04738
1874.74044,0.04731
1872.81169,0.04724
1870.88295,0.04725
1868.95420,0.04725
1867.02546,0.04709
1865.09671,0.04695
1863.16797,0.04699
1861.23922,0.04711
1859.31048,0.04716
1857.38173,0.04711
1855.45299,0.04695
1853.52424,0.04677
1851.59549,0.04669
1849.66675,0.04666
1847.73800,0.04655
1845.80926,0.04632
1843.88051,0.04620
1841.95177,0.04631
1840.02302,0.04642
1838.09428,0.04639
1836.16553,0.04621
1834.23679,0.04599
1832.30804,0.04579
1830.37930,0.04563
1828.45055,0.04549
1826.52181,0.04536
1824.59306,0.04524
1822.66432,0.04523
1820.73557,0.04530
1818.80682,0.04526
1816.87808,0.04506
1814.94933,0.04483
1813.02059,0.04464
1811.09184,0.04451
1809.16310,0.04435
1807.23435,0.04404
1805.30561,0.04371
1803.37686,0.04355
1801.44812,0.04350
1799.51937,0.04338
1797.59063,0.04316
1795.66188,0.04294
1793.73314,0.04280
1791.80439,0.04269
1789.87565,0.04253
1787.94690,0.04232
1786.01815,0.04211
1784.08941,0.04193
1782.16066,0.04169
1780.23192,0.04131
1778.30317,0.04086
1776.37443,0.04046
1774.44568,0.04007
1772.51694,0.03952
1770.58819,0.03878
1768.65945,0.03804
1766.73070,0.03735
1764.80196,0.03658
1762.87321,0.03565
1760.94447,0.03454
1759.01572,0.03337
1757.08697,0.03214
1755.15823,0.03069
1753.22948,0.02896
1751.30074,0.02707
1749.37199,0.02557
1747.44325,0.02497
1745.51450,0.02556
1743.58576,0.02769
1741.65701,0.03158
1739.72827,0.03722
1737.79952,0.04348
1735.87078,0.04981
1733.94203,0.05709
1732.01329,0.06424
1730.08454,0.07012
1728.15580,0.07526
1726.22705,0.07935
1724.29830,0.08193
1722.36956,0.08303
1720.44081,0.08291
1718.51207,0.08147
1716.58332,0.07883
1714.65458,0.07596
1712.72583,0.07332
1710.79709,0.07083
1708.86834,0.06850
1706.93960,0.06628
1705.01085,0.06437
1703.08211,0.06304
1701.15336,0.06204
1699.22462,0.06121
1697.29587,0.06043
1695.36713,0.05943
1693.43838,0.05861
1691.50963,0.05823
1689.58089,0.05789
1687.65214,0.05754
1685.72340,0.05733
1683.79465,0.05709
1681.86591,0.05669
1679.93716,0.05632
1678.00842,0.05602
1676.07967,0.05568
1674.15093,0.05541
1672.22218,0.05531
1670.29344,0.05512
1668.36469,0.05483
1666.43595,0.05470
1664.50720,0.05468
1662.57845,0.05456
1660.64971,0.05436
1658.72096,0.05423
1656.79222,0.05421
1654.86347,0.05422
1652.93473,0.05391
1651.00598,0.05355
1649.07724,0.05351
1647.14849,0.05332
1645.21975,0.05286
1643.29100,0.05261
1641.36226,0.05261
1639.43351,0.05264
1637.50477,0.05257
1635.57602,0.05244
1633.64728,0.05230
1631.71853,0.05218
1629.78978,0.05225
1627.86104,0.05254
1625.93229,0.05277
1624.00355,0.05251
1622.07480,0.05196
1620.14606,0.05177
1618.21731,0.05199
1616.28857,0.05211
1614.35982,0.05195
1612.43108,0.05174
1610.50233,0.05160
1608.57359,0.05157
1606.64484,0.05156
1604.71610,0.05147
1602.78735,0.05141
1600.85861,0.05142
1598.92986,0.05143
1597.00111,0.05137
1595.07237,0.05132
1593.14362,0.05132
1591.21488,0.05124
1589.28613,0.05101
1587.35739,0.05087
1585.42864,0.05084
1583.49990,0.05069
1581.57115,0.05052
1579.64241,0.05046
1577.71366,0.05040
1575.78492,0.05015
1573.85617,0.04991
1571.92743,0.04986
1569.99868,0.04982
1568.06993,0.04967
1566.14119,0.04949
1564.21244,0.04934
1562.28370,0.04925
1560.35495,0.04926
1558.42621,0.04916
1556.49746,0.04888
1554.56872,0.04858
1552.63997,0.04834
1550.71123,0.04828
1548.78248,0.04835
1546.85374,0.04836
1544.92499,0.04821
1542.99625,0.04794
1541.06750,0.04763
1539.13876,0.04748
1537.21001,0.04763
1535.28126,0.04784
1533.35252,0.04784
1531.42377,0.04761
1529.49503,0.04742
1527.56628,0.04728
1525.63754,0.04705
1523.70879,0.04685
1521.78005,0.04677
1519.85130,0.04658
1517.92256,0.04625
1515.99381,0.04595
1514.06507,0.04565
1512.13632,0.04532
1510.20758,0.04513
1508.27883,0.04501
1506.35008,0.04457
1504.42134,0.04402
1502.49259,0.04369
1500.56385,0.04342
1498.63510,0.04305
1496.70636,0.04254
1494.77761,0.04209
1492.84887,0.04187
1490.92012,0.04187
1488.99138,0.04208
1487.06263,0.04259
1485.13389,0.04340
1483.20514,0.04418
1481.27640,0.04475
1479.34765,0.04517
1477.41891,0.04547
1475.49016,0.04565
1473.56141,0.04574
1471.63267,0.04582
1469.70392,0.04598
1467.77518,0.04601
1465.84643,0.04574
1463.91769,0.04536
1461.98894,0.04519
1460.06020,0.04530
1458.13145,0.04565
1456.20271,0.04595
1454.27396,0.04613
1452.34522,0.04659
1450.41647,0.04759
1448.48773,0.04881
1446.55898,0.04986
1444.63024,0.05055
1442.70149,0.05087
1440.77274,0.05096
1438.84400,0.05118
1436.91525,0.05195
1434.98651,0.05333
1433.05776,0.05470
1431.12902,0.05573
1429.20027,0.05626
1427.27153,0.05620
1425.34278,0.05576
1423.41404,0.05509
1421.48529,0.05432
1419.55655,0.05354
1417.62780,0.05288
1415.69906,0.05245
1413.77031,0.05207
1411.84156,0.05156
1409.91282,0.05105
1407.98407,0.05062
1406.05533,0.05015
1404.12658,0.04971
1402.19784,0.04944
1400.26909,0.04922
1398.34035,0.04883
1396.41160,0.04846
1394.48286,0.04839
1392.55411,0.04850
1390.62537,0.04864
1388.69662,0.04894
1386.76788,0.04945
1384.83913,0.05006
1382.91039,0.05057
1380.98164,0.05072
1379.05289,0.05054
1377.12415,0.05038
1375.19540,0.05025
1373.26666,0.04999
1371.33791,0.04968
1369.40917,0.04947
1367.48042,0.04940
1365.55168,0.04941
1363.62293,0.04934
1361.69419,0.04915
1359.76544,0.04893
1357.83670,0.04879
1355.90795,0.04866
1353.97921,0.04845
1352.05046,0.04822
1350.12172,0.04806
1348.19297,0.04802
1346.26422,0.04811
1344.33548,0.04810
1342.40673,0.04782
1340.47799,0.04741
1338.54924,0.04715
1336.62050,0.04699
1334.69175,0.04672
1332.76301,0.04641
1330.83426,0.04615
1328.90552,0.04584
1326.97677,0.04558
1325.04803,0.04541
1323.11928,0.04521
1321.19054,0.04500
1319.26179,0.04478
1317.33304,0.04444
1315.40430,0.04407
1313.47555,0.04382
1311.54681,0.04345
1309.61806,0.04289
1307.68932,0.04240
1305.76057,0.04204
1303.83183,0.04171
1301.90308,0.04146
1299.97434,0.04129
1298.04559,0.04102
1296.11685,0.04045
1294.18810,0.03971
1292.25936,0.03903
1290.33061,0.03854
1288.40187,0.03812
1286.47312,0.03763
1284.54437,0.03720
1282.61563,0.03698
1280.68688,0.03691
1278.75814,0.03701
1276.82939,0.03750
1274.90065,0.03842
1272.97190,0.03981
1271.04316,0.04162
1269.11441,0.04325
1267.18567,0.04413
1265.25692,0.04451
1263.32818,0.04482
1261.39943,0.04491
1259.47069,0.04452
1257.54194,0.04385
1255.61320,0.04324
1253.68445,0.04283
1251.75570,0.04269
1249.82696,0.04303
1247.89821,0.04385
1245.96947,0.04497
1244.04072,0.04635
1242.11198,0.04795
1240.18323,0.04958
1238.25449,0.05100
1236.32574,0.05205
1234.39700,0.05267
1232.46825,0.05280
1230.53951,0.05240
1228.61076,0.05166
1226.68202,0.05079
1224.75327,0.04985
1222.82452,0.04884
1220.89578,0.04765
1218.96703,0.04638
1217.03829,0.04521
1215.10954,0.04398
1213.18080,0.04243
1211.25205,0.04062
1209.32331,0.03888
1207.39456,0.03754
1205.46582,0.03698
1203.53707,0.03740
1201.60833,0.03850
1199.67958,0.04009
1197.75084,0.04234
1195.82209,0.04513
1193.89335,0.04792
1191.96460,0.05034
1190.03585,0.05219
1188.10711,0.05333
1186.17836,0.05365
1184.24962,0.05332
1182.32087,0.05288
1180.39213,0.05264
1178.46338,0.05251
1176.53464,0.05250
1174.60589,0.05254
1172.67715,0.05242
1170.74840,0.05219
1168.81966,0.05207
1166.89091,0.05205
1164.96217,0.05213
1163.03342,0.05239
1161.10467,0.05294
1159.17593,0.05404
1157.24718,0.05601
1155.31844,0.05923
1153.38969,0.06397
1151.46095,0.06988
1149.53220,0.07608
1147.60346,0.08165
1145.67471,0.08560
1143.74597,0.08751
1141.81722,0.08788
1139.88848,0.08757
1137.95973,0.08704
1136.03099,0.08630
1134.10224,0.08536
1132.17350,0.08427
1130.24475,0.08293
1128.31600,0.08150
1126.38726,0.08026
1124.45851,0.07919
1122.52977,0.07822
1120.60102,0.07753
1118.67228,0.07704
1116.74353,0.07663
1114.81479,0.07643
1112.88604,0.07632
1110.95730,0.07591
1109.02855,0.07538
1107.09981,0.07504
1105.17106,0.07460
1103.24232,0.07400
1101.31357,0.07375
1099.38483,0.07382
1097.45608,0.07377
1095.52733,0.07368
1093.59859,0.07378
1091.66984,0.07389
1089.74110,0.07388
1087.81235,0.07384
1085.88361,0.07372
1083.95486,0.07341
1082.02612,0.07326
1080.09737,0.07352
1078.16863,0.07387
1076.23988,0.07399
1074.31114,0.07385
1072.38239,0.07338
1070.45365,0.07289
1068.52490,0.07279
1066.59615,0.07297
1064.66741,0.07332
1062.73866,0.07408
1060.80992,0.07529
1058.88117,0.07663
1056.95243,0.07805
1055.02368,0.07980
1053.09494,0.08171
1051.16619,0.08345
1049.23745,0.08507
1047.30870,0.08654
1045.37996,0.08745
1043.45121,0.08747
1041.52247,0.08694
1039.59372,0.08642
1037.66498,0.08587
1035.73623,0.08511
1033.80748,0.08428
1031.87874,0.08338
1029.94999,0.08232
1028.02125,0.08118
1026.09250,0.07995
1024.16376,0.07853
1022.23501,0.07697
1020.30627,0.07548
1018.37752,0.07394
1016.44878,0.07218
1014.52003,0.07042
1012.59129,0.06870
1010.66254,0.06664
1008.73380,0.06434
1006.80505,0.06215
1004.87631,0.06022
1002.94756,0.05864
1001.01881,0.05759
999.09007,0.05709
997.16132,0.05717
995.23258,0.05776
993.30383,0.05845
991.37509,0.05910
989.44634,0.05974
987.51760,0.06017
985.58885,0.06062
983.66011,0.06153
981.73136,0.06253
979.80262,0.06294
977.87387,0.06281
975.94513,0.06257
974.01638,0.06232
972.08763,0.06218
970.15889,0.06235
968.23014,0.06281
966.30140,0.06334
964.37265,0.06368
962.44391,0.06378
960.51516,0.06382
958.58642,0.06392
956.65767,0.06401
954.72893,0.06403
952.80018,0.06380
950.87144,0.06329
948.94269,0.06297
947.01395,0.06306
945.08520,0.06311
943.15646,0.06297
941.22771,0.06292
939.29896,0.06293
937.37022,0.06291
935.44147,0.06304
933.51273,0.06316
931.58398,0.06285
929.65524,0.06236
927.72649,0.06213
925.79775,0.06203
923.86900,0.06198
921.94026,0.06204
920.01151,0.06195
918.08277,0.06175
916.15402,0.06175
914.22528,0.06174
912.29653,0.06168
910.36779,0.06171
908.43904,0.06171
906.51029,0.06176
904.58155,0.06206
902.65280,0.06252
900.72406,0.06290
898.79531,0.06314
896.86657,0.06332
894.93782,0.06353
893.00908,0.06383
891.08033,0.06417
889.15159,0.06442
887.22284,0.06457
885.29410,0.06467
883.36535,0.06470
881.43661,0.06493
879.50786,0.06554
877.57911,0.06610
875.65037,0.06625
873.72162,0.06630
871.79288,0.06659
869.86413,0.06678
867.93539,0.06642
866.00664,0.06571
864.07790,0.06520
862.14915,0.06507
860.22041,0.06502
858.29166,0.06476
856.36292,0.06440
854.43417,0.06418
852.50543,0.06403
850.57668,0.06362
848.64794,0.06298
846.71919,0.06249
844.79044,0.06244
842.86170,0.06279
840.93295,0.06355
839.00421,0.06486
837.07546,0.06652
835.14672,0.06790
833.21797,0.06877
831.28923,0.06911
829.36048,0.06869
827.43174,0.06778
825.50299,0.06754
823.57425,0.06859
821.64550,0.07011
819.71676,0.07112
817.78801,0.07144
815.85926,0.07119
813.93052,0.07068
812.00177,0.07038
810.07303,0.07062
808.14428,0.07149
806.21554,0.07261
804.28679,0.07338
802.35805,0.07365
800.42930,0.07377
798.50056,0.07379
796.57181,0.07361
794.64307,0.07326
792.71432,0.07267
790.78558,0.07193
788.85683,0.07129
786.92809,0.07072
784.99934,0.07009
783.07059,0.06939
781.14185,0.06863
779.21310,0.06794
777.28436,0.06755
775.35561,0.06740
773.42687,0.06714
771.49812,0.06664
769.56938,0.06610
767.64063,0.06567
765.71189,0.06506
763.78314,0.06392
761.85440,0.06265
759.92565,0.06200
757.99691,0.06187
756.06816,0.06172
754.13942,0.06177
752.21067,0.06280
750.28192,0.06485
748.35318,0.06720
746.42443,0.06908
744.49569,0.07013
742.56694,0.07061
740.63820,0.07065
738.70945,0.07026
736.78071,0.06995
734.85196,0.06998
732.92322,0.07003
730.99447,0.06986
729.06573,0.06957
727.13698,0.06938
725.20824,0.06905
723.27949,0.06819
721.35074,0.06697
719.42200,0.06588
717.49325,0.06519
715.56451,0.06484
713.63576,0.06481
711.70702,0.06499
709.77827,0.06460
707.84953,0.06353
705.92078,0.06304
703.99204,0.06362
702.06329,0.06458
700.13455,0.06513
698.20580,0.06476
696.27706,0.06375
694.34831,0.06300
692.41957,0.06287
690.49082,0.06311
688.56207,0.06367
686.63333,0.06448
684.70458,0.06510
682.77584,0.06557
680.84709,0.06614
678.91835,0.06683
676.98960,0.06751
675.06086,0.06795
673.13211,0.06818
671.20337,0.06824
669.27462,0.06804
667.34588,0.06758
665.41713,0.06694
663.48839,0.06665
661.55964,0.06660
659.63090,0.06621
657.70215,0.06551
655.77340,0.06495
653.84466,0.06458
651.91591,0.06395
649.98717,0.06363
648.05842,0.06414
646.12968,0.06446
644.20093,0.06428
642.27219,0.06424
640.34344,0.06428
638.41470,0.06434
636.48595,0.06483
634.55721,0.06542
632.62846,0.06535
630.69972,0.06524
628.77097,0.06573
626.84222,0.06589
624.91348,0.06571
622.98473,0.06646
621.05599,0.06817
619.12724,0.06949
617.19850,0.06932
615.26975,0.06854
613.34101,0.06834
611.41226,0.06807
609.48352,0.06813
607.55477,0.06985
605.62603,0.07193
603.69728,0.07221
601.76854,0.07072
599.83979,0.06936
