7497.03301,0.38673
7495.10426,0.38395
7493.17552,0.38538
7491.24677,0.38874
7489.31803,0.38820
7487.38928,0.38404
7485.46054,0.38111
7483.53179,0.37832
7481.60305,0.37305
7479.67430,0.36858
7477.74556,0.36596
7475.81681,0.36082
7473.88807,0.35462
7471.95932,0.35306
7470.03057,0.35504
7468.10183,0.35682
7466.17308,0.35575
7464.24434,0.35170
7462.31559,0.34976
7460.38685,0.35210
7458.45810,0.35389
7456.52936,0.35216
7454.60061,0.34958
7452.67187,0.34907
7450.74312,0.34930
7448.81438,0.34683
7446.88563,0.34265
7444.95689,0.33994
7443.02814,0.33751
7441.09940,0.33576
7439.17065,0.33852
7437.24190,0.34169
7435.31316,0.33726
7433.38441,0.33005
7431.45567,0.32983
7429.52692,0.33428
7427.59818,0.33650
7425.66943,0.33562
7423.74069,0.33334
7421.81194,0.33119
7419.88320,0.32955
7417.95445,0.32769
7416.02571,0.32567
7414.09696,0.32588
7412.16822,0.32914
7410.23947,0.33184
7408.31073,0.33140
7406.38198,0.32976
7404.45323,0.32956
7402.52449,0.33029
7400.59574,0.33187
7398.66700,0.33566
7396.73825,0.33902
7394.80951,0.33978
7392.88076,0.33893
7390.95202,0.33524
7389.02327,0.32958
7387.09453,0.32786
7385.16578,0.33078
7383.23704,0.33258
7381.30829,0.33196
7379.37955,0.33189
7377.45080,0.33232
7375.52205,0.33054
7373.59331,0.32606
7371.66456,0.32160
7369.73582,0.32008
7367.80707,0.32266
7365.87833,0.32666
7363.94958,0.32842
7362.02084,0.32874
7360.09209,0.32928
7358.16335,0.32915
7356.23460,0.32929
7354.30586,0.33067
7352.37711,0.33022
7350.44837,0.32716
7348.51962,0.32436
7346.59088,0.32340
7344.66213,0.32404
7342.73338,0.32427
7340.80464,0.32272
7338.87589,0.32092
7336.94715,0.32155
7335.01840,0.32387
7333.08966,0.32398
7331.16091,0.32187
7329.23217,0.32059
7327.30342,0.32006
7325.37468,0.31921
7323.44593,0.31794
7321.51719,0.31541
7319.58844,0.31120
7317.65970,0.30659
7315.73095,0.30578
7313.80221,0.30981
7311.87346,0.31076
7309.94471,0.30597
7308.01597,0.30139
7306.08722,0.29900
7304.15848,0.29968
7302.22973,0.30403
7300.30099,0.30735
7298.37224,0.30571
7296.44350,0.30082
7294.51475,0.29597
7292.58601,0.29327
7290.65726,0.29305
7288.72852,0.29427
7286.79977,0.29601
7284.87103,0.29707
7282.94228,0.29759
7281.01353,0.29879
7279.08479,0.29988
7277.15604,0.29847
7275.22730,0.29458
7273.29855,0.29175
7271.36981,0.29168
7269.44106,0.29259
7267.51232,0.29188
7265.58357,0.28852
7263.65483,0.28503
7261.72608,0.28412
7259.79734,0.28544
7257.86859,0.28630
7255.93985,0.28596
7254.01110,0.28588
7252.08236,0.28500
7250.15361,0.28073
7248.22486,0.27439
7246.29612,0.27068
7244.36737,0.27087
7242.43863,0.27242
7240.50988,0.27426
7238.58114,0.27692
7236.65239,0.28015
7234.72365,0.28083
7232.79490,0.27576
7230.86616,0.26922
7228.93741,0.26932
7227.00867,0.27361
7225.07992,0.27419
7223.15118,0.27194
7221.22243,0.27163
7219.29369,0.27261
7217.36494,0.27038
7215.43619,0.26444
7213.50745,0.25924
7211.57870,0.25637
7209.64996,0.25491
7207.72121,0.25370
7205.79247,0.25160
7203.86372,0.24848
7201.93498,0.24409
7200.00623,0.23982
7198.07749,0.23979
7196.14874,0.24441
7194.22000,0.24789
7192.29125,0.24685
7190.36251,0.24178
7188.43376,0.23447
7186.50501,0.22929
7184.57627,0.22794
7182.64752,0.22858
7180.71878,0.22822
7178.79003,0.22355
7176.86129,0.21494
7174.93254,0.20748
7173.00380,0.20336
7171.07505,0.19950
7169.14631,0.19546
7167.21756,0.19182
7165.28882,0.18606
7163.36007,0.17824
7161.43133,0.16982
7159.50258,0.15920
7157.57384,0.14553
7155.64509,0.13283
7153.71634,0.12514
7151.78760,0.12296
7149.85885,0.12474
7147.93011,0.12786
7146.00136,0.13100
7144.07262,0.13522
7142.14387,0.14289
7140.21513,0.15372
7138.28638,0.16324
7136.35764,0.16997
7134.42889,0.17702
7132.50015,0.18502
7130.57140,0.18973
7128.64266,0.19010
7126.71391,0.19020
7124.78516,0.19197
7122.85642,0.19427
7120.92767,0.19553
7118.99893,0.19420
7117.07018,0.19019
7115.14144,0.18737
7113.21269,0.18902
7111.28395,0.19111
7109.35520,0.18863
7107.42646,0.18374
7105.49771,0.18118
7103.56897,0.18120
7101.64022,0.18069
7099.71148,0.17737
7097.78273,0.17259
7095.85399,0.16952
7093.92524,0.16874
7091.99649,0.16826
7090.06775,0.16566
7088.13900,0.16025
7086.21026,0.15430
7084.28151,0.14991
7082.35277,0.14663
7080.42402,0.14381
7078.49528,0.14198
7076.56653,0.14007
7074.63779,0.13660
7072.70904,0.13295
7070.78030,0.13135
7068.85155,0.12983
7066.92281,0.12510
7064.99406,0.11888
7063.06532,0.11426
7061.13657,0.11079
7059.20782,0.10837
7057.27908,0.10921
7055.35033,0.11250
7053.42159,0.11243
7051.49284,0.10910
7049.56410,0.10869
7047.63535,0.11028
7045.70661,0.10866
7043.77786,0.10461
7041.84912,0.10341
7039.92037,0.10738
7037.99163,0.11264
7036.06288,0.11552
7034.13414,0.11678
7032.20539,0.11845
7030.27664,0.12226
7028.34790,0.12874
7026.41915,0.13638
7024.49041,0.14509
7022.56166,0.15301
7020.63292,0.15531
7018.70417,0.15357
7016.77543,0.15326
7014.84668,0.15443
7012.91794,0.15428
7010.98919,0.15208
7009.06045,0.14873
7007.13170,0.14587
7005.20296,0.14568
7003.27421,0.14755
7001.34547,0.14871
6999.41672,0.14774
6997.48797,0.14441
6995.55923,0.13970
6993.63048,0.13493
6991.70174,0.13062
6989.77299,0.12765
6987.84425,0.12568
6985.91550,0.12346
6983.98676,0.12134
6982.05801,0.11970
6980.12927,0.11795
6978.20052,0.11671
6976.27178,0.11553
6974.34303,0.11228
6972.41429,0.10822
6970.48554,0.10709
6968.55680,0.10868
6966.62805,0.11066
6964.69930,0.11157
6962.77056,0.10924
6960.84181,0.10394
6958.91307,0.09980
6956.98432,0.09855
6955.05558,0.09906
6953.12683,0.10067
6951.19809,0.10252
6949.26934,0.10356
6947.34060,0.10438
6945.41185,0.10679
6943.48311,0.11218
6941.55436,0.11923
6939.62562,0.12282
6937.69687,0.11991
6935.76812,0.11448
6933.83938,0.11334
6931.91063,0.11865
6929.98189,0.12384
6928.05314,0.12227
6926.12440,0.11684
6924.19565,0.11247
6922.26691,0.10965
6920.33816,0.10798
6918.40942,0.10742
6916.48067,0.10790
6914.55193,0.10798
6912.62318,0.10539
6910.69444,0.09997
6908.76569,0.09392
6906.83695,0.09046
6904.90820,0.08958
6902.97945,0.08862
6901.05071,0.08864
6899.12196,0.09006
6897.19322,0.08926
6895.26447,0.08588
6893.33573,0.08356
6891.40698,0.08497
6889.47824,0.08993
6887.54949,0.09589
6885.62075,0.10012
6883.69200,0.10252
6881.76326,0.10435
6879.83451,0.10535
6877.90577,0.10658
6875.97702,0.11049
6874.04828,0.11529
6872.11953,0.11758
6870.19078,0.11926
6868.26204,0.12243
6866.33329,0.12376
6864.40455,0.12149
6862.47580,0.11820
6860.54706,0.11579
6858.61831,0.11377
6856.68957,0.11116
6854.76082,0.10783
6852.83208,0.10395
6850.90333,0.10069
6848.97459,0.09762
6847.04584,0.09305
6845.11710,0.08931
6843.18835,0.08955
6841.25960,0.09338
6839.33086,0.09693
6837.40211,0.09813
6835.47337,0.10101
6833.54462,0.10737
6831.61588,0.11389
6829.68713,0.11817
6827.75839,0.12073
6825.82964,0.12303
6823.90090,0.12682
6821.97215,0.13220
6820.04341,0.13666
6818.11466,0.13893
6816.18592,0.14038
6814.25717,0.14272
6812.32843,0.14601
6810.39968,0.14864
6808.47093,0.14994
6806.54219,0.14881
6804.61344,0.14616
6802.68470,0.14756
6800.75595,0.15384
6798.82721,0.15936
6796.89846,0.16210
6794.96972,0.16454
6793.04097,0.16871
6791.11223,0.17304
6789.18348,0.17436
6787.25474,0.17478
6785.32599,0.17696
6783.39725,0.17769
6781.46850,0.17646
6779.53975,0.17715
6777.61101,0.17962
6775.68226,0.18049
6773.75352,0.17942
6771.82477,0.18018
6769.89603,0.18422
6767.96728,0.18740
6766.03854,0.18853
6764.10979,0.19028
6762.18105,0.19136
6760.25230,0.19067
6758.32356,0.19066
6756.39481,0.19138
6754.46607,0.19132
6752.53732,0.19100
6750.60858,0.19039
6748.67983,0.18854
6746.75108,0.18730
6744.82234,0.18813
6742.89359,0.18958
6740.96485,0.19205
6739.03610,0.19629
6737.10736,0.19966
6735.17861,0.20076
6733.24987,0.20111
6731.32112,0.20078
6729.39238,0.20016
6727.46363,0.20163
6725.53489,0.20431
6723.60614,0.20556
6721.67740,0.20605
6719.74865,0.20713
6717.81991,0.20898
6715.89116,0.21155
6713.96241,0.21382
6712.03367,0.21444
6710.10492,0.21326
6708.17618,0.21081
6706.24743,0.20796
6704.31869,0.20692
6702.38994,0.20862
6700.46120,0.20997
6698.53245,0.20830
6696.60371,0.20543
6694.67496,0.20389
6692.74622,0.20398
6690.81747,0.20481
6688.88873,0.20487
6686.95998,0.20451
6685.03123,0.20506
6683.10249,0.20383
6681.17374,0.19925
6679.24500,0.19629
6677.31625,0.19862
6675.38751,0.20184
6673.45876,0.20085
6671.53002,0.19827
6669.60127,0.19902
6667.67253,0.20164
6665.74378,0.20132
6663.81504,0.19778
6661.88629,0.19488
6659.95755,0.19430
6658.02880,0.19461
6656.10006,0.19407
6654.17131,0.19232
6652.24256,0.19049
6650.31382,0.18939
6648.38507,0.18939
6646.45633,0.19027
6644.52758,0.18983
6642.59884,0.18725
6640.67009,0.18513
6638.74135,0.18459
6636.81260,0.18498
6634.88386,0.18646
6632.95511,0.18661
6631.02637,0.18267
6629.09762,0.17684
6627.16888,0.17268
6625.24013,0.17051
6623.31139,0.16808
6621.38264,0.16542
6619.45389,0.16477
6617.52515,0.16422
6615.59640,0.16138
6613.66766,0.15864
6611.73891,0.15747
6609.81017,0.15640
6607.88142,0.15539
6605.95268,0.15503
6604.02393,0.15394
6602.09519,0.15068
6600.16644,0.14672
6598.23770,0.14479
6596.30895,0.14425
6594.38021,0.14262
6592.45146,0.14058
6590.52271,0.13957
6588.59397,0.13987
6586.66522,0.14147
6584.73648,0.14193
6582.80773,0.13936
6580.87899,0.13779
6578.95024,0.14066
6577.02150,0.14382
6575.09275,0.14395
6573.16401,0.14414
6571.23526,0.14557
6569.30652,0.14605
6567.37777,0.14629
6565.44903,0.14831
6563.52028,0.15157
6561.59154,0.15468
6559.66279,0.15710
6557.73404,0.15812
6555.80530,0.15824
6553.87655,0.15871
6551.94781,0.15938
6550.01906,0.16017
6548.09032,0.16086
6546.16157,0.16104
6544.23283,0.16131
6542.30408,0.16201
6540.37534,0.16235
6538.44659,0.16231
6536.51785,0.16296
6534.58910,0.16397
6532.66036,0.16372
6530.73161,0.16261
6528.80287,0.16201
6526.87412,0.16121
6524.94537,0.15888
6523.01663,0.15671
6521.08788,0.15702
6519.15914,0.15834
6517.23039,0.15812
6515.30165,0.15658
6513.37290,0.15583
6511.44416,0.15704
6509.51541,0.15856
6507.58667,0.15881
6505.65792,0.15832
6503.72918,0.15686
6501.80043,0.15431
6499.87169,0.15239
6497.94294,0.15180
6496.01419,0.15131
6494.08545,0.15007
6492.15670,0.14922
6490.22796,0.14945
6488.29921,0.14899
6486.37047,0.14666
6484.44172,0.14479
6482.51298,0.14524
6480.58423,0.14581
6478.65549,0.14446
6476.72674,0.14229
6474.79800,0.14063
6472.86925,0.13905
6470.94051,0.13697
6469.01176,0.13533
6467.08302,0.13482
6465.15427,0.13486
6463.22552,0.13463
6461.29678,0.13355
6459.36803,0.13117
6457.43929,0.12895
6455.51054,0.12915
6453.58180,0.13092
6451.65305,0.13100
6449.72431,0.12907
6447.79556,0.12916
6445.86682,0.13224
6443.93807,0.13495
6442.00933,0.13661
6440.08058,0.13724
6438.15184,0.13608
6436.22309,0.13485
6434.29434,0.13585
6432.36560,0.13773
6430.43685,0.13847
6428.50811,0.14019
6426.57936,0.14398
6424.65062,0.14710
6422.72187,0.14808
6420.79313,0.14811
6418.86438,0.14906
6416.93564,0.15072
6415.00689,0.15238
6413.07815,0.15428
6411.14940,0.15566
6409.22066,0.15622
6407.29191,0.15745
6405.36317,0.15978
6403.43442,0.16203
6401.50567,0.16454
6399.57693,0.16780
6397.64818,0.16971
6395.71944,0.16924
6393.79069,0.16842
6391.86195,0.16854
6389.93320,0.16962
6388.00446,0.17234
6386.07571,0.17596
6384.14697,0.17827
6382.21822,0.17875
6380.28948,0.17918
6378.36073,0.18105
6376.43199,0.18317
6374.50324,0.18424
6372.57450,0.18421
6370.64575,0.18355
6368.71700,0.18411
6366.78826,0.18618
6364.85951,0.18758
6362.93077,0.18804
6361.00202,0.18888
6359.07328,0.19035
6357.14453,0.19184
6355.21579,0.19204
6353.28704,0.19114
6351.35830,0.19170
6349.42955,0.19410
6347.50081,0.19611
6345.57206,0.19649
6343.64332,0.19627
6341.71457,0.19687
6339.78582,0.19741
6337.85708,0.19741
6335.92833,0.19802
6333.99959,0.19827
6332.07084,0.19731
6330.14210,0.19710
6328.21335,0.19842
6326.28461,0.19995
6324.35586,0.20042
6322.42712,0.20001
6320.49837,0.20007
6318.56963,0.19998
6316.64088,0.19866
6314.71214,0.19876
6312.78339,0.20226
6310.85465,0.20678
6308.92590,0.20934
6306.99715,0.20872
6305.06841,0.20550
6303.13966,0.20312
6301.21092,0.20434
6299.28217,0.20680
6297.35343,0.20757
6295.42468,0.20793
6293.49594,0.20852
6291.56719,0.20838
6289.63845,0.20912
6287.70970,0.21191
6285.78096,0.21471
6283.85221,0.21518
6281.92347,0.21345
6279.99472,0.21213
6278.06598,0.21289
6276.13723,0.21501
6274.20848,0.21729
6272.27974,0.21865
6270.35099,0.21863
6268.42225,0.21869
6266.49350,0.22037
6264.56476,0.22275
6262.63601,0.22389
6260.70727,0.22377
6258.77852,0.22455
6256.84978,0.22682
6254.92103,0.22859
6252.99229,0.22953
6251.06354,0.22987
6249.13480,0.22854
6247.20605,0.22700
6245.27730,0.22807
6243.34856,0.23064
6241.41981,0.23200
6239.49107,0.23293
6237.56232,0.23479
6235.63358,0.23610
6233.70483,0.23582
6231.77609,0.23532
6229.84734,0.23557
6227.91860,0.23659
6225.98985,0.23835
6224.06111,0.24006
6222.13236,0.24111
6220.20362,0.24171
6218.27487,0.24147
6216.34613,0.24075
6214.41738,0.24060
6212.48863,0.24024
6210.55989,0.23925
6208.63114,0.23908
6206.70240,0.24046
6204.77365,0.24242
6202.84491,0.24358
6200.91616,0.24325
6198.98742,0.24231
6197.05867,0.24213
6195.12993,0.24293
6193.20118,0.24426
6191.27244,0.24576
6189.34369,0.24669
6187.41495,0.24693
6185.48620,0.24693
6183.55746,0.24640
6181.62871,0.24551
6179.69996,0.24493
6177.77122,0.24481
6175.84247,0.24444
6173.91373,0.24327
6171.98498,0.24251
6170.05624,0.24279
6168.12749,0.24378
6166.19875,0.24573
6164.27000,0.24748
6162.34126,0.24790
6160.41251,0.24817
6158.48377,0.24871
6156.55502,0.24880
6154.62628,0.24938
6152.69753,0.25101
6150.76878,0.25216
6148.84004,0.25214
6146.91129,0.25204
6144.98255,0.25234
6143.05380,0.25252
6141.12506,0.25251
6139.19631,0.25235
6137.26757,0.25173
6135.33882,0.25136
6133.41008,0.25213
6131.48133,0.25309
6129.55259,0.25312
6127.62384,0.25265
6125.69510,0.25202
6123.76635,0.25115
6121.83761,0.25079
6119.90886,0.25189
6117.98011,0.25365
6116.05137,0.25423
6114.12262,0.25396
6112.19388,0.25404
6110.26513,0.25327
6108.33639,0.25132
6106.40764,0.24983
6104.47890,0.24885
6102.55015,0.24835
6100.62141,0.24884
6098.69266,0.24946
6096.76392,0.24914
6094.83517,0.24800
6092.90643,0.24702
6090.97768,0.24699
6089.04893,0.24723
6087.12019,0.24691
6085.19144,0.24706
6083.26270,0.24795
6081.33395,0.24791
6079.40521,0.24698
6077.47646,0.24623
6075.54772,0.24481
6073.61897,0.24185
6071.69023,0.23871
6069.76148,0.23702
6067.83274,0.23640
6065.90399,0.23577
6063.97525,0.23463
6062.04650,0.23280
6060.11776,0.23087
6058.18901,0.22933
6056.26026,0.22752
6054.33152,0.22460
6052.40277,0.22128
6050.47403,0.21879
6048.54528,0.21637
6046.61654,0.21304
6044.68779,0.20974
6042.75905,0.20733
6040.83030,0.20529
6038.90156,0.20257
6036.97281,0.19944
6035.04407,0.19699
6033.11532,0.19408
6031.18658,0.18973
6029.25783,0.18577
6027.32909,0.18352
6025.40034,0.18243
6023.47159,0.18095
6021.54285,0.17764
6019.61410,0.17360
6017.68536,0.17168
6015.75661,0.17219
6013.82787,0.17237
6011.89912,0.17060
6009.97038,0.16770
6008.04163,0.16457
6006.11289,0.16216
6004.18414,0.16113
6002.25540,0.16042
6000.32665,0.15865
5998.39791,0.15668
5996.46916,0.15558
5994.54041,0.15469
5992.61167,0.15382
5990.68292,0.15384
5988.75418,0.15424
5986.82543,0.15385
5984.89669,0.15304
5982.96794,0.15245
5981.03920,0.15078
5979.11045,0.14776
5977.18171,0.14511
5975.25296,0.14289
5973.32422,0.14088
5971.39547,0.14014
5969.46673,0.13988
5967.53798,0.13835
5965.60924,0.13630
5963.68049,0.13516
5961.75174,0.13429
5959.82300,0.13340
5957.89425,0.13278
5955.96551,0.13205
5954.03676,0.13180
5952.10802,0.13235
5950.17927,0.13278
5948.25053,0.13307
5946.32178,0.13326
5944.39304,0.13322
5942.46429,0.13340
5940.53555,0.13461
5938.60680,0.13714
5936.67806,0.13933
5934.74931,0.13982
5932.82057,0.13937
5930.89182,0.13902
5928.96307,0.13993
5927.03433,0.14237
5925.10558,0.14483
5923.17684,0.14686
5921.24809,0.14877
5919.31935,0.15008
5917.39060,0.15167
5915.46186,0.15431
5913.53311,0.15624
5911.60437,0.15611
5909.67562,0.15532
5907.74688,0.15526
5905.81813,0.15524
5903.88939,0.15438
5901.96064,0.15323
5900.03189,0.15235
5898.10315,0.15139
5896.17440,0.15065
5894.24566,0.15081
5892.31691,0.15120
5890.38817,0.15090
5888.45942,0.15030
5886.53068,0.15010
5884.60193,0.14933
5882.67319,0.14757
5880.74444,0.14713
5878.81570,0.14836
5876.88695,0.14868
5874.95821,0.14750
5873.02946,0.14614
5871.10072,0.14529
5869.17197,0.14563
5867.24322,0.14748
5865.31448,0.14906
5863.38573,0.14906
5861.45699,0.14889
5859.52824,0.14963
5857.59950,0.15073
5855.67075,0.15124
5853.74201,0.15104
5851.81326,0.15153
5849.88452,0.15255
5847.95577,0.15244
5846.02703,0.15188
5844.09828,0.15202
5842.16954,0.15260
5840.24079,0.15336
5838.31205,0.15381
5836.38330,0.15363
5834.45455,0.15269
5832.52581,0.15117
5830.59706,0.14983
5828.66832,0.14914
5826.73957,0.14990
5824.81083,0.15171
5822.88208,0.15187
5820.95334,0.15042
5819.02459,0.14992
5817.09585,0.15022
5815.16710,0.15014
5813.23836,0.15013
5811.30961,0.15097
5809.38087,0.15264
5807.45212,0.15394
5805.52337,0.15432
5803.59463,0.15437
5801.66588,0.15419
5799.73714,0.15412
5797.80839,0.15451
5795.87965,0.15498
5793.95090,0.15564
5792.02216,0.15671
5790.09341,0.15724
5788.16467,0.15616
5786.23592,0.15421
5784.30718,0.15320
5782.37843,0.15334
5780.44969,0.15375
5778.52094,0.15480
5776.59220,0.15676
5774.66345,0.15868
5772.73470,0.15989
5770.80596,0.16080
5768.87721,0.16174
5766.94847,0.16246
5765.01972,0.16296
5763.09098,0.16300
5761.16223,0.16238
5759.23349,0.16205
5757.30474,0.16245
5755.37600,0.16313
5753.44725,0.16384
5751.51851,0.16451
5749.58976,0.16580
5747.66102,0.16733
5745.73227,0.16756
5743.80352,0.16720
5741.87478,0.16819
5739.94603,0.16994
5738.01729,0.17110
5736.08854,0.17230
5734.15980,0.17384
5732.23105,0.17424
5730.30231,0.17345
5728.37356,0.17342
5726.44482,0.17430
5724.51607,0.17484
5722.58733,0.17547
5720.65858,0.17680
5718.72984,0.17855
5716.80109,0.18036
5714.87235,0.18159
5712.94360,0.18203
5711.01485,0.18220
5709.08611,0.18235
5707.15736,0.18211
5705.22862,0.18183
5703.29987,0.18295
5701.37113,0.18507
5699.44238,0.18637
5697.51364,0.18723
5695.58489,0.18796
5693.65615,0.18743
5691.72740,0.18627
5689.79866,0.18626
5687.86991,0.18799
5685.94117,0.19061
5684.01242,0.19230
5682.08368,0.19249
5680.15493,0.19209
5678.22618,0.19164
5676.29744,0.19132
5674.36869,0.19159
5672.43995,0.19230
5670.51120,0.19222
5668.58246,0.19117
5666.65371,0.19084
5664.72497,0.19194
5662.79622,0.19296
5660.86748,0.19302
5658.93873,0.19304
5657.00999,0.19345
5655.08124,0.19337
5653.15250,0.19249
5651.22375,0.19160
5649.29500,0.19141
5647.36626,0.19211
5645.43751,0.19300
5643.50877,0.19316
5641.58002,0.19254
5639.65128,0.19127
5637.72253,0.18962
5635.79379,0.18817
5633.86504,0.18729
5631.93630,0.18720
5630.00755,0.18723
5628.07881,0.18647
5626.15006,0.18534
5624.22132,0.18426
5622.29257,0.18275
5620.36383,0.18129
5618.43508,0.18080
5616.50633,0.18047
5614.57759,0.17919
5612.64884,0.17766
5610.72010,0.17700
5608.79135,0.17698
5606.86261,0.17684
5604.93386,0.17664
5603.00512,0.17688
5601.07637,0.17776
5599.14763,0.17840
5597.21888,0.17765
5595.29014,0.17655
5593.36139,0.17629
5591.43265,0.17617
5589.50390,0.17621
5587.57516,0.17676
5585.64641,0.17706
5583.71766,0.17697
5581.78892,0.17707
5579.86017,0.17772
5577.93143,0.17856
5576.00268,0.17897
5574.07394,0.17907
5572.14519,0.17945
5570.21645,0.18015
5568.28770,0.18084
5566.35896,0.18113
5564.43021,0.18092
5562.50147,0.18081
5560.57272,0.18138
5558.64398,0.18212
5556.71523,0.18206
5554.78648,0.18172
5552.85774,0.18242
5550.92899,0.18369
5549.00025,0.18420
5547.07150,0.18410
5545.14276,0.18413
5543.21401,0.18437
5541.28527,0.18526
5539.35652,0.18648
5537.42778,0.18594
5535.49903,0.18365
5533.57029,0.18229
5531.64154,0.18270
5529.71280,0.18317
5527.78405,0.18252
5525.85531,0.18153
5523.92656,0.18128
5521.99781,0.18151
5520.06907,0.18165
5518.14032,0.18170
5516.21158,0.18139
5514.28283,0.18026
5512.35409,0.17908
5510.42534,0.17874
5508.49660,0.17827
5506.56785,0.17654
5504.63911,0.17489
5502.71036,0.17478
5500.78162,0.17525
5498.85287,0.17539
5496.92413,0.17508
5494.99538,0.17409
5493.06664,0.17312
5491.13789,0.17314
5489.20914,0.17368
5487.28040,0.17355
5485.35165,0.17301
5483.42291,0.17298
5481.49416,0.17298
5479.56542,0.17252
5477.63667,0.17215
5475.70793,0.17231
5473.77918,0.17263
5471.85044,0.17253
5469.92169,0.17221
5467.99295,0.17208
5466.06420,0.17150
5464.13546,0.17026
5462.20671,0.16940
5460.27796,0.16922
5458.34922,0.16943
5456.42047,0.16983
5454.49173,0.16946
5452.56298,0.16843
5450.63424,0.16811
5448.70549,0.16871
5446.77675,0.16943
5444.84800,0.16969
5442.91926,0.16934
5440.99051,0.16855
5439.06177,0.16787
5437.13302,0.16761
5435.20428,0.16748
5433.27553,0.16758
5431.34679,0.16767
5429.41804,0.16704
5427.48929,0.16643
5425.56055,0.16679
5423.63180,0.16732
5421.70306,0.16707
5419.77431,0.16612
5417.84557,0.16488
5415.91682,0.16406
5413.98808,0.16432
5412.05933,0.16467
5410.13059,0.16356
5408.20184,0.16188
5406.27310,0.16110
5404.34435,0.16051
5402.41561,0.15960
5400.48686,0.15953
5398.55811,0.16016
5396.62937,0.16027
5394.70062,0.15979
5392.77188,0.15912
5390.84313,0.15850
5388.91439,0.15824
5386.98564,0.15844
5385.05690,0.15885
5383.12815,0.15881
5381.19941,0.15809
5379.27066,0.15771
5377.34192,0.15833
5375.41317,0.15910
5373.48443,0.15919
5371.55568,0.15868
5369.62694,0.15801
5367.69819,0.15779
5365.76944,0.15805
5363.84070,0.15847
5361.91195,0.15925
5359.98321,0.16009
5358.05446,0.16012
5356.12572,0.15953
5354.19697,0.15929
5352.26823,0.15959
5350.33948,0.15938
5348.41074,0.15833
5346.48199,0.15775
5344.55325,0.15860
5342.62450,0.15992
5340.69576,0.16046
5338.76701,0.16030
5336.83827,0.15966
5334.90952,0.15845
5332.98077,0.15723
5331.05203,0.15646
5329.12328,0.15583
5327.19454,0.15495
5325.26579,0.15397
5323.33705,0.15338
5321.40830,0.15268
5319.47956,0.15150
5317.55081,0.15072
5315.62207,0.15069
5313.69332,0.15073
5311.76458,0.15043
5309.83583,0.14961
5307.90709,0.14860
5305.97834,0.14785
5304.04959,0.14706
5302.12085,0.14594
5300.19210,0.14475
5298.26336,0.14390
5296.33461,0.14316
5294.40587,0.14166
5292.47712,0.13956
5290.54838,0.13772
5288.61963,0.13574
5286.69089,0.13353
5284.76214,0.13219
5282.83340,0.13155
5280.90465,0.13080
5278.97591,0.13008
5277.04716,0.12931
5275.11842,0.12833
5273.18967,0.12729
5271.26092,0.12607
5269.33218,0.12478
5267.40343,0.12332
5265.47469,0.12171
5263.54594,0.12052
5261.61720,0.11969
5259.68845,0.11869
5257.75971,0.11769
5255.83096,0.11686
5253.90222,0.11602
5251.97347,0.11527
5250.04473,0.11490
5248.11598,0.11493
5246.18724,0.11524
5244.25849,0.11557
5242.32975,0.11528
5240.40100,0.11463
5238.47225,0.11497
5236.54351,0.11616
5234.61476,0.11673
5232.68602,0.11668
5230.75727,0.11705
5228.82853,0.11767
5226.89978,0.11777
5224.97104,0.11758
5223.04229,0.11801
5221.11355,0.11959
5219.18480,0.12156
5217.25606,0.12243
5215.32731,0.12220
5213.39857,0.12251
5211.46982,0.12400
5209.54107,0.12526
5207.61233,0.12548
5205.68358,0.12561
5203.75484,0.12631
5201.82609,0.12721
5199.89735,0.12767
5197.96860,0.12733
5196.03986,0.12661
5194.11111,0.12674
5192.18237,0.12835
5190.25362,0.13018
5188.32488,0.13061
5186.39613,0.12986
5184.46739,0.12913
5182.53864,0.12873
5180.60990,0.12895
5178.68115,0.12998
5176.75240,0.13075
5174.82366,0.13038
5172.89491,0.12964
5170.96617,0.12926
5169.03742,0.12917
5167.10868,0.12919
5165.17993,0.12907
5163.25119,0.12885
5161.32244,0.12843
5159.39370,0.12749
5157.46495,0.12667
5155.53621,0.12657
5153.60746,0.12653
5151.67872,0.12607
5149.74997,0.12564
5147.82123,0.12544
5145.89248,0.12481
5143.96373,0.12382
5142.03499,0.12337
5140.10624,0.12331
5138.17750,0.12311
5136.24875,0.12291
5134.32001,0.12255
5132.39126,0.12207
5130.46252,0.12215
5128.53377,0.12250
5126.60503,0.12243
5124.67628,0.12180
5122.74754,0.12108
5120.81879,0.12106
5118.89005,0.12162
5116.96130,0.12199
5115.03255,0.12227
5113.10381,0.12254
5111.17506,0.12251
5109.24632,0.12269
5107.31757,0.12344
5105.38883,0.12425
5103.46008,0.12479
5101.53134,0.12505
5099.60259,0.12516
5097.67385,0.12518
5095.74510,0.12501
5093.81636,0.12498
5091.88761,0.12536
5089.95887,0.12583
5088.03012,0.12592
5086.10138,0.12562
5084.17263,0.12544
5082.24388,0.12544
5080.31514,0.12527
5078.38639,0.12520
5076.45765,0.12553
5074.52890,0.12629
5072.60016,0.12695
5070.67141,0.12689
5068.74267,0.12670
5066.81392,0.12669
5064.88518,0.12623
5062.95643,0.12559
5061.02769,0.12553
5059.09894,0.12591
5057.17020,0.12623
5055.24145,0.12618
5053.31270,0.12557
5051.38396,0.12459
5049.45521,0.12391
5047.52647,0.12407
5045.59772,0.12489
5043.66898,0.12542
5041.74023,0.12510
5039.81149,0.12443
5037.88274,0.12413
5035.95400,0.12420
5034.02525,0.12404
5032.09651,0.12341
5030.16776,0.12258
5028.23902,0.12198
5026.31027,0.12196
5024.38153,0.12220
5022.45278,0.12195
5020.52403,0.12130
5018.59529,0.12131
5016.66654,0.12194
5014.73780,0.12183
5012.80905,0.12109
5010.88031,0.12079
5008.95156,0.12064
5007.02282,0.12014
5005.09407,0.11984
5003.16533,0.11974
5001.23658,0.11910
4999.30784,0.11819
4997.37909,0.11783
4995.45035,0.11794
4993.52160,0.11806
4991.59286,0.11806
4989.66411,0.11808
4987.73536,0.11803
4985.80662,0.11763
4983.87787,0.11698
4981.94913,0.11651
4980.02038,0.11628
4978.09164,0.11619
4976.16289,0.11628
4974.23415,0.11588
4972.30540,0.11463
4970.37666,0.11396
4968.44791,0.11461
4966.51917,0.11533
4964.59042,0.11537
4962.66168,0.11496
4960.73293,0.11430
4958.80418,0.11387
4956.87544,0.11382
4954.94669,0.11367
4953.01795,0.11323
4951.08920,0.11258
4949.16046,0.11192
4947.23171,0.11169
4945.30297,0.11191
4943.37422,0.11173
4941.44548,0.11127
4939.51673,0.11151
4937.58799,0.11200
4935.65924,0.11159
4933.73050,0.11067
4931.80175,0.11033
4929.87301,0.11054
4927.94426,0.11064
4926.01551,0.11065
4924.08677,0.11083
4922.15802,0.11083
4920.22928,0.11032
4918.30053,0.10945
4916.37179,0.10839
4914.44304,0.10743
4912.51430,0.10696
4910.58555,0.10698
4908.65681,0.10726
4906.72806,0.10748
4904.79932,0.10746
4902.87057,0.10755
4900.94183,0.10788
4899.01308,0.10780
4897.08434,0.10714
4895.15559,0.10656
4893.22684,0.10640
4891.29810,0.10635
4889.36935,0.10629
4887.44061,0.10620
4885.51186,0.10618
4883.58312,0.10630
4881.65437,0.10627
4879.72563,0.10632
4877.79688,0.10666
4875.86814,0.10660
4873.93939,0.10588
4872.01065,0.10498
4870.08190,0.10429
4868.15316,0.10391
4866.22441,0.10359
4864.29566,0.10340
4862.36692,0.10369
4860.43817,0.10415
4858.50943,0.10412
4856.58068,0.10366
4854.65194,0.10320
4852.72319,0.10293
4850.79445,0.10279
4848.86570,0.10274
4846.93696,0.10255
4845.00821,0.10216
4843.07947,0.10199
4841.15072,0.10165
4839.22198,0.10106
4837.29323,0.10116
4835.36449,0.10167
4833.43574,0.10170
4831.50699,0.10125
4829.57825,0.10052
4827.64950,0.09996
4825.72076,0.09998
4823.79201,0.10011
4821.86327,0.09990
4819.93452,0.09972
4818.00578,0.09957
4816.07703,0.09898
4814.14829,0.09836
4812.21954,0.09813
4810.29080,0.09795
4808.36205,0.09787
4806.43331,0.09803
4804.50456,0.09794
4802.57582,0.09761
4800.64707,0.09758
4798.71832,0.09755
4796.78958,0.09713
4794.86083,0.09661
4792.93209,0.09598
4791.00334,0.09526
4789.07460,0.09495
4787.14585,0.09494
4785.21711,0.09451
4783.28836,0.09355
4781.35962,0.09277
4779.43087,0.09265
4777.50213,0.09294
4775.57338,0.09308
4773.64464,0.09277
4771.71589,0.09200
4769.78714,0.09104
4767.85840,0.09014
4765.92965,0.08936
4764.00091,0.08891
4762.07216,0.08894
4760.14342,0.08905
4758.21467,0.08860
4756.28593,0.08761
4754.35718,0.08695
4752.42844,0.08690
4750.49969,0.08685
4748.57095,0.08623
4746.64220,0.08503
4744.71346,0.08391
4742.78471,0.08331
4740.85597,0.08301
4738.92722,0.08288
4736.99847,0.08277
4735.06973,0.08268
4733.14098,0.08278
4731.21224,0.08284
4729.28349,0.08284
4727.35475,0.08294
4725.42600,0.08295
4723.49726,0.08273
4721.56851,0.08235
4719.63977,0.08197
4717.71102,0.08168
4715.78228,0.08129
4713.85353,0.08094
4711.92479,0.08093
4709.99604,0.08084
4708.06729,0.08027
4706.13855,0.07945
4704.20980,0.07866
4702.28106,0.07792
4700.35231,0.07733
4698.42357,0.07693
4696.49482,0.07649
4694.56608,0.07594
4692.63733,0.07557
4690.70859,0.07545
4688.77984,0.07508
4686.85110,0.07409
4684.92235,0.07322
4682.99361,0.07318
4681.06486,0.07343
4679.13612,0.07357
4677.20737,0.07409
4675.27862,0.07490
4673.34988,0.07519
4671.42113,0.07476
4669.49239,0.07404
4667.56364,0.07357
4665.63490,0.07369
4663.70615,0.07430
4661.77741,0.07485
4659.84866,0.07486
4657.91992,0.07450
4655.99117,0.07423
4654.06243,0.07412
4652.13368,0.07391
4650.20494,0.07387
4648.27619,0.07425
4646.34745,0.07437
4644.41870,0.07376
4642.48995,0.07279
4640.56121,0.07185
4638.63246,0.07117
4636.70372,0.07055
4634.77497,0.06999
4632.84623,0.06995
4630.91748,0.06992
4628.98874,0.06921
4627.05999,0.06851
4625.13125,0.06862
4623.20250,0.06899
4621.27376,0.06863
4619.34501,0.06786
4617.41627,0.06766
4615.48752,0.06777
4613.55877,0.06772
4611.63003,0.06757
4609.70128,0.06704
4607.77254,0.06635
4605.84379,0.06607
4603.91505,0.06586
4601.98630,0.06530
4600.05756,0.06464
4598.12881,0.06430
4596.20007,0.06417
4594.27132,0.06408
4592.34258,0.06418
4590.41383,0.06448
4588.48509,0.06455
4586.55634,0.06402
4584.62760,0.06321
4582.69885,0.06248
4580.77010,0.06208
4578.84136,0.06207
4576.91261,0.06194
4574.98387,0.06183
4573.05512,0.06229
4571.12638,0.06302
4569.19763,0.06331
4567.26889,0.06283
4565.34014,0.06199
4563.41140,0.06143
4561.48265,0.06124
4559.55391,0.06114
4557.62516,0.06116
4555.69642,0.06121
4553.76767,0.06108
4551.83893,0.06090
4549.91018,0.06084
4547.98143,0.06081
4546.05269,0.06078
4544.12394,0.06061
4542.19520,0.06024
4540.26645,0.05968
4538.33771,0.05904
4536.40896,0.05867
4534.48022,0.05857
4532.55147,0.05829
4530.62273,0.05799
4528.69398,0.05811
4526.76524,0.05848
4524.83649,0.05866
4522.90775,0.05847
4520.97900,0.05815
4519.05025,0.05774
4517.12151,0.05719
4515.19276,0.05704
4513.26402,0.05735
4511.33527,0.05749
4509.40653,0.05750
4507.47778,0.05754
4505.54904,0.05716
4503.62029,0.05665
4501.69155,0.05669
4499.76280,0.05679
4497.83406,0.05652
4495.90531,0.05626
4493.97657,0.05617
4492.04782,0.05589
4490.11908,0.05546
4488.19033,0.05535
4486.26158,0.05545
4484.33284,0.05549
4482.40409,0.05546
4480.47535,0.05533
4478.54660,0.05505
4476.61786,0.05473
4474.68911,0.05458
4472.76037,0.05452
4470.83162,0.05434
4468.90288,0.05427
4466.97413,0.05443
4465.04539,0.05457
4463.11664,0.05442
4461.18790,0.05414
4459.25915,0.05413
4457.33041,0.05412
4455.40166,0.05367
4453.47291,0.05300
4451.54417,0.05272
4449.61542,0.05291
4447.68668,0.05307
4445.75793,0.05307
4443.82919,0.05282
4441.90044,0.05244
4439.97170,0.05255
4438.04295,0.05301
4436.11421,0.05326
4434.18546,0.05329
4432.25672,0.05336
4430.32797,0.05356
4428.39923,0.05384
4426.47048,0.05389
4424.54173,0.05369
4422.61299,0.05368
4420.68424,0.05379
4418.75550,0.05380
4416.82675,0.05371
4414.89801,0.05336
4412.96926,0.05294
4411.04052,0.05297
4409.11177,0.05350
4407.18303,0.05392
4405.25428,0.05370
4403.32554,0.05327
4401.39679,0.05318
4399.46805,0.05338
4397.53930,0.05355
4395.61056,0.05360
4393.68181,0.05368
4391.75306,0.05365
4389.82432,0.05341
4387.89557,0.05339
4385.96683,0.05358
4384.03808,0.05332
4382.10934,0.05293
4380.18059,0.05318
4378.25185,0.05350
4376.32310,0.05351
4374.39436,0.05385
4372.46561,0.05430
4370.53687,0.05413
4368.60812,0.05376
4366.67938,0.05382
4364.75063,0.05390
4362.82189,0.05380
4360.89314,0.05406
4358.96439,0.05470
4357.03565,0.05516
4355.10690,0.05509
4353.17816,0.05462
4351.24941,0.05429
4349.32067,0.05426
4347.39192,0.05420
4345.46318,0.05415
4343.53443,0.05438
4341.60569,0.05468
4339.67694,0.05465
4337.74820,0.05458
4335.81945,0.05475
4333.89071,0.05486
4331.96196,0.05472
4330.03321,0.05470
4328.10447,0.05480
4326.17572,0.05468
4324.24698,0.05450
4322.31823,0.05451
4320.38949,0.05475
4318.46074,0.05496
4316.53200,0.05483
4314.60325,0.05469
4312.67451,0.05493
4310.74576,0.05530
4308.81702,0.05537
4306.88827,0.05503
4304.95953,0.05449
4303.03078,0.05410
4301.10204,0.05418
4299.17329,0.05466
4297.24454,0.05508
4295.31580,0.05515
4293.38705,0.05484
4291.45831,0.05440
4289.52956,0.05421
4287.60082,0.05435
4285.67207,0.05453
4283.74333,0.05452
4281.81458,0.05428
4279.88584,0.05395
4277.95709,0.05382
4276.02835,0.05397
4274.09960,0.05410
4272.17086,0.05422
4270.24211,0.05443
4268.31336,0.05457
4266.38462,0.05460
4264.45587,0.05463
4262.52713,0.05466
4260.59838,0.05462
4258.66964,0.05472
4256.74089,0.05505
4254.81215,0.05524
4252.88340,0.05499
4250.95466,0.05455
4249.02591,0.05433
4247.09717,0.05430
4245.16842,0.05434
4243.23968,0.05454
4241.31093,0.05469
4239.38219,0.05462
4237.45344,0.05465
4235.52469,0.05475
4233.59595,0.05451
4231.66720,0.05419
4229.73846,0.05437
4227.80971,0.05474
4225.88097,0.05486
4223.95222,0.05486
4222.02348,0.05479
4220.09473,0.05466
4218.16599,0.05452
4216.23724,0.05439
4214.30850,0.05443
4212.37975,0.05465
4210.45101,0.05472
4208.52226,0.05445
4206.59352,0.05408
4204.66477,0.05398
4202.73602,0.05410
4200.80728,0.05414
4198.87853,0.05420
4196.94979,0.05442
4195.02104,0.05453
4193.09230,0.05445
4191.16355,0.05443
4189.23481,0.05435
4187.30606,0.05409
4185.37732,0.05398
4183.44857,0.05407
4181.51983,0.05407
4179.59108,0.05396
4177.66234,0.05386
4175.73359,0.05378
4173.80484,0.05385
4171.87610,0.05420
4169.94735,0.05465
4168.01861,0.05479
4166.08986,0.05458
4164.16112,0.05445
4162.23237,0.05439
4160.30363,0.05436
4158.37488,0.05462
4156.44614,0.05504
4154.51739,0.05533
4152.58865,0.05527
4150.65990,0.05478
4148.73116,0.05437
4146.80241,0.05450
4144.87367,0.05496
4142.94492,0.05504
4141.01617,0.05457
4139.08743,0.05426
4137.15868,0.05437
4135.22994,0.05444
4133.30119,0.05443
4131.37245,0.05457
4129.44370,0.05474
4127.51496,0.05462
4125.58621,0.05423
4123.65747,0.05396
4121.72872,0.05404
4119.79998,0.05430
4117.87123,0.05456
4115.94249,0.05471
4114.01374,0.05465
4112.08500,0.05456
4110.15625,0.05468
4108.22750,0.05481
4106.29876,0.05473
4104.37001,0.05474
4102.44127,0.05501
4100.51252,0.05535
4098.58378,0.05549
4096.65503,0.05537
4094.72629,0.05525
4092.79754,0.05528
4090.86880,0.05511
4088.94005,0.05462
4087.01131,0.05430
4085.08256,0.05448
4083.15382,0.05487
4081.22507,0.05514
4079.29632,0.05536
4077.36758,0.05546
4075.43883,0.05530
4073.51009,0.05502
4071.58134,0.05478
4069.65260,0.05482
4067.72385,0.05504
4065.79511,0.05514
4063.86636,0.05510
4061.93762,0.05499
4060.00887,0.05487
4058.08013,0.05485
4056.15138,0.05496
4054.22264,0.05519
4052.29389,0.05526
4050.36515,0.05501
4048.43640,0.05479
4046.50765,0.05501
4044.57891,0.05559
4042.65016,0.05594
4040.72142,0.05569
4038.79267,0.05519
4036.86393,0.05487
4034.93518,0.05488
4033.00644,0.05516
4031.07769,0.05538
4029.14895,0.05532
4027.22020,0.05521
4025.29146,0.05509
4023.36271,0.05493
4021.43397,0.05490
4019.50522,0.05485
4017.57648,0.05474
4015.64773,0.05479
4013.71898,0.05475
4011.79024,0.05461
4009.86149,0.05464
4007.93275,0.05477
4006.00400,0.05492
4004.07526,0.05522
4002.14651,0.05550
4000.21777,0.05553
3998.28902,0.05540
3996.36028,0.05531
3994.43153,0.05523
3992.50279,0.05518
3990.57404,0.05522
3988.64530,0.05510
3986.71655,0.05470
3984.78780,0.05451
3982.85906,0.05498
3980.93031,0.05552
3979.00157,0.05536
3977.07282,0.05474
3975.14408,0.05433
3973.21533,0.05429
3971.28659,0.05448
3969.35784,0.05491
3967.42910,0.05536
3965.50035,0.05548
3963.57161,0.05548
3961.64286,0.05568
3959.71412,0.05583
3957.78537,0.05565
3955.85663,0.05525
3953.92788,0.05495
3951.99913,0.05488
3950.07039,0.05493
3948.14164,0.05489
3946.21290,0.05471
3944.28415,0.05461
3942.35541,0.05473
3940.42666,0.05508
3938.49792,0.05527
3936.56917,0.05482
3934.64043,0.05403
3932.71168,0.05368
3930.78294,0.05395
3928.85419,0.05430
3926.92545,0.05440
3924.99670,0.05453
3923.06795,0.05479
3921.13921,0.05494
3919.21046,0.05487
3917.28172,0.05473
3915.35297,0.05464
3913.42423,0.05461
3911.49548,0.05459
3909.56674,0.05444
3907.63799,0.05423
3905.70925,0.05417
3903.78050,0.05417
3901.85176,0.05394
3899.92301,0.05362
3897.99427,0.05363
3896.06552,0.05405
3894.13678,0.05446
3892.20803,0.05451
3890.27928,0.05434
3888.35054,0.05409
3886.42179,0.05383
3884.49305,0.05388
3882.56430,0.05415
3880.63556,0.05429
3878.70681,0.05443
3876.77807,0.05461
3874.84932,0.05470
3872.92058,0.05473
3870.99183,0.05473
3869.06309,0.05472
3867.13434,0.05461
3865.20560,0.05436
3863.27685,0.05414
3861.34811,0.05412
3859.41936,0.05432
3857.49061,0.05449
3855.56187,0.05451
3853.63312,0.05449
3851.70438,0.05454
3849.77563,0.05468
3847.84689,0.05463
3845.91814,0.05425
3843.98940,0.05406
3842.06065,0.05444
3840.13191,0.05474
3838.20316,0.05433
3836.27442,0.05372
3834.34567,0.05355
3832.41693,0.05378
3830.48818,0.05405
3828.55943,0.05419
3826.63069,0.05430
3824.70194,0.05439
3822.77320,0.05436
3820.84445,0.05454
3818.91571,0.05514
3816.98696,0.05549
3815.05822,0.05505
3813.12947,0.05442
3811.20073,0.05440
3809.27198,0.05484
3807.34324,0.05496
3805.41449,0.05462
3803.48575,0.05426
3801.55700,0.05403
3799.62826,0.05421
3797.69951,0.05444
3795.77076,0.05425
3793.84202,0.05396
3791.91327,0.05392
3789.98453,0.05399
3788.05578,0.05395
3786.12704,0.05368
3784.19829,0.05348
3782.26955,0.05365
3780.34080,0.05394
3778.41206,0.05421
3776.48331,0.05446
3774.55457,0.05444
3772.62582,0.05408
3770.69708,0.05373
3768.76833,0.05364
3766.83959,0.05378
3764.91084,0.05404
3762.98209,0.05437
3761.05335,0.05444
3759.12460,0.05400
3757.19586,0.05358
3755.26711,0.05368
3753.33837,0.05392
3751.40962,0.05358
3749.48088,0.05311
3747.55213,0.05338
3745.62339,0.05379
3743.69464,0.05370
3741.76590,0.05362
3739.83715,0.05370
3737.90841,0.05361
3735.97966,0.05351
3734.05091,0.05360
3732.12217,0.05351
3730.19342,0.05334
3728.26468,0.05349
3726.33593,0.05385
3724.40719,0.05416
3722.47844,0.05416
3720.54970,0.05378
3718.62095,0.05347
3716.69221,0.05356
3714.76346,0.05374
3712.83472,0.05371
3710.90597,0.05357
3708.97723,0.05348
3707.04848,0.05342
3705.11974,0.05341
3703.19099,0.05350
3701.26224,0.05362
3699.33350,0.05343
3697.40475,0.05292
3695.47601,0.05265
3693.54726,0.05301
3691.61852,0.05364
3689.68977,0.05376
3687.76103,0.05320
3685.83228,0.05281
3683.90354,0.05297
3681.97479,0.05309
3680.04605,0.05283
3678.11730,0.05265
3676.18856,0.05275
3674.25981,0.05279
3672.33107,0.05284
3670.40232,0.05305
3668.47357,0.05325
3666.54483,0.05321
3664.61608,0.05300
3662.68734,0.05292
3660.75859,0.05304
3658.82985,0.05305
3656.90110,0.05281
3654.97236,0.05258
3653.04361,0.05263
3651.11487,0.05291
3649.18612,0.05304
3647.25738,0.05278
3645.32863,0.05262
3643.39989,0.05282
3641.47114,0.05305
3639.54239,0.05298
3637.61365,0.05277
3635.68490,0.05287
3633.75616,0.05357
3631.82741,0.05448
3629.89867,0.05505
3627.96992,0.05561
3626.04118,0.05636
3624.11243,0.05674
3622.18369,0.05650
3620.25494,0.05564
3618.32620,0.05453
3616.39745,0.05377
3614.46871,0.05358
3612.53996,0.05386
3610.61122,0.05417
3608.68247,0.05419
3606.75372,0.05400
3604.82498,0.05376
3602.89623,0.05359
3600.96749,0.05343
3599.03874,0.05310
3597.11000,0.05271
3595.18125,0.05239
3593.25251,0.05222
3591.32376,0.05242
3589.39502,0.05269
3587.46627,0.05245
3585.53753,0.05210
3583.60878,0.05223
3581.68004,0.05268
3579.75129,0.05311
3577.82254,0.05324
3575.89380,0.05300
3573.96505,0.05265
3572.03631,0.05262
3570.10756,0.05301
3568.17882,0.05350
3566.25007,0.05371
3564.32133,0.05351
3562.39258,0.05322
3560.46384,0.05330
3558.53509,0.05359
3556.60635,0.05357
3554.67760,0.05319
3552.74886,0.05286
3550.82011,0.05299
3548.89137,0.05358
3546.96262,0.05419
3545.03387,0.05460
3543.10513,0.05512
3541.17638,0.05608
3539.24764,0.05756
3537.31889,0.05960
3535.39015,0.06182
3533.46140,0.06368
3531.53266,0.06499
3529.60391,0.06552
3527.67517,0.06497
3525.74642,0.06347
3523.81768,0.06153
3521.88893,0.05997
3519.96019,0.05929
3518.03144,0.05903
3516.10270,0.05870
3514.17395,0.05830
3512.24520,0.05794
3510.31646,0.05785
3508.38771,0.05831
3506.45897,0.05894
3504.53022,0.05934
3502.60148,0.05980
3500.67273,0.06071
3498.74399,0.06176
3496.81524,0.06268
3494.88650,0.06364
3492.95775,0.06462
3491.02901,0.06561
3489.10026,0.06679
3487.17152,0.06799
3485.24277,0.06887
3483.31402,0.06946
3481.38528,0.07005
3479.45653,0.07084
3477.52779,0.07177
3475.59904,0.07256
3473.67030,0.07298
3471.74155,0.07302
3469.81281,0.07292
3467.88406,0.07312
3465.95532,0.07360
3464.02657,0.07386
3462.09783,0.07353
3460.16908,0.07276
3458.24034,0.07205
3456.31159,0.07151
3454.38285,0.07087
3452.45410,0.07019
3450.52535,0.06944
3448.59661,0.06849
3446.66786,0.06752
3444.73912,0.06668
3442.81037,0.06579
3440.88163,0.06481
3438.95288,0.06386
3437.02414,0.06286
3435.09539,0.06168
3433.16665,0.06049
3431.23790,0.05933
3429.30916,0.05806
3427.38041,0.05694
3425.45167,0.05629
3423.52292,0.05588
3421.59418,0.05541
3419.66543,0.05488
3417.73668,0.05437
3415.80794,0.05387
3413.87919,0.05333
3411.95045,0.05276
3410.02170,0.05220
3408.09296,0.05186
3406.16421,0.05202
3404.23547,0.05253
3402.30672,0.05312
3400.37798,0.05364
3398.44923,0.05402
3396.52049,0.05430
3394.59174,0.05464
3392.66300,0.05474
3390.73425,0.05431
3388.80550,0.05381
3386.87676,0.05368
3384.94801,0.05392
3383.01927,0.05431
3381.09052,0.05486
3379.16178,0.05585
3377.23303,0.05695
3375.30429,0.05722
3373.37554,0.05646
3371.44680,0.05548
3369.51805,0.05496
3367.58931,0.05481
3365.66056,0.05470
3363.73182,0.05464
3361.80307,0.05474
3359.87433,0.05479
3357.94558,0.05461
3356.01683,0.05443
3354.08809,0.05435
3352.15934,0.05416
3350.23060,0.05402
3348.30185,0.05427
3346.37311,0.05465
3344.44436,0.05472
3342.51562,0.05452
3340.58687,0.05427
3338.65813,0.05417
3336.72938,0.05415
3334.80064,0.05399
3332.87189,0.05365
3330.94315,0.05348
3329.01440,0.05361
3327.08566,0.05366
3325.15691,0.05342
3323.22816,0.05321
3321.29942,0.05321
3319.37067,0.05323
3317.44193,0.05313
3315.51318,0.05320
3313.58444,0.05364
3311.65569,0.05395
3309.72695,0.05377
3307.79820,0.05361
3305.86946,0.05363
3303.94071,0.05360
3302.01197,0.05354
3300.08322,0.05334
3298.15448,0.05290
3296.22573,0.05258
3294.29698,0.05265
3292.36824,0.05281
3290.43949,0.05288
3288.51075,0.05292
3286.58200,0.05289
3284.65326,0.05284
3282.72451,0.05293
3280.79577,0.05302
3278.86702,0.05313
3276.93828,0.05343
3275.00953,0.05357
3273.08079,0.05321
3271.15204,0.05283
3269.22330,0.05282
3267.29455,0.05303
3265.36581,0.05337
3263.43706,0.05356
3261.50831,0.05333
3259.57957,0.05292
3257.65082,0.05282
3255.72208,0.05314
3253.79333,0.05360
3251.86459,0.05368
3249.93584,0.05331
3248.00710,0.05296
3246.07835,0.05287
3244.14961,0.05289
3242.22086,0.05288
3240.29212,0.05280
3238.36337,0.05262
3236.43463,0.05248
3234.50588,0.05263
3232.57713,0.05297
3230.64839,0.05291
3228.71964,0.05247
3226.79090,0.05236
3224.86215,0.05268
3222.93341,0.05299
3221.00466,0.05307
3219.07592,0.05288
3217.14717,0.05267
3215.21843,0.05275
3213.28968,0.05291
3211.36094,0.05293
3209.43219,0.05295
3207.50345,0.05300
3205.57470,0.05307
3203.64596,0.05334
3201.71721,0.05368
3199.78846,0.05375
3197.85972,0.05360
3195.93097,0.05359
3194.00223,0.05367
3192.07348,0.05363
3190.14474,0.05374
3188.21599,0.05399
3186.28725,0.05399
3184.35850,0.05364
3182.42976,0.05338
3180.50101,0.05347
3178.57227,0.05363
3176.64352,0.05357
3174.71478,0.05349
3172.78603,0.05361
3170.85729,0.05380
3168.92854,0.05377
3166.99979,0.05374
3165.07105,0.05406
3163.14230,0.05436
3161.21356,0.05420
3159.28481,0.05377
3157.35607,0.05356
3155.42732,0.05363
3153.49858,0.05377
3151.56983,0.05397
3149.64109,0.05416
3147.71234,0.05419
3145.78360,0.05398
3143.85485,0.05364
3141.92611,0.05344
3139.99736,0.05347
3138.06861,0.05350
3136.13987,0.05343
3134.21112,0.05333
3132.28238,0.05328
3130.35363,0.05320
3128.42489,0.05314
3126.49614,0.05317
3124.56740,0.05313
3122.63865,0.05301
3120.70991,0.05314
3118.78116,0.05355
3116.85242,0.05383
3114.92367,0.05378
3112.99493,0.05359
3111.06618,0.05348
3109.13744,0.05340
3107.20869,0.05330
3105.27994,0.05320
3103.35120,0.05314
3101.42245,0.05315
3099.49371,0.05319
3097.56496,0.05303
3095.63622,0.05267
3093.70747,0.05262
3091.77873,0.05307
3089.84998,0.05353
3087.92124,0.05364
3085.99249,0.05362
3084.06375,0.05359
3082.13500,0.05336
3080.20626,0.05288
3078.27751,0.05241
3076.34877,0.05233
3074.42002,0.05268
3072.49127,0.05300
3070.56253,0.05287
3068.63378,0.05249
3066.70504,0.05225
3064.77629,0.05225
3062.84755,0.05224
3060.91880,0.05206
3058.99006,0.05184
3057.06131,0.05173
3055.13257,0.05161
3053.20382,0.05137
3051.27508,0.05107
3049.34633,0.05095
3047.41759,0.05094
3045.48884,0.05068
3043.56009,0.05022
3041.63135,0.04997
3039.70260,0.04998
3037.77386,0.04992
3035.84511,0.04972
3033.91637,0.04950
3031.98762,0.04933
3030.05888,0.04921
3028.13013,0.04915
3026.20139,0.04900
3024.27264,0.04868
3022.34390,0.04847
3020.41515,0.04852
3018.48641,0.04864
3016.55766,0.04869
3014.62892,0.04878
3012.70017,0.04885
3010.77142,0.04874
3008.84268,0.04858
3006.91393,0.04851
3004.98519,0.04850
3003.05644,0.04848
3001.12770,0.04847
2999.19895,0.04853
2997.27021,0.04871
2995.34146,0.04897
2993.41272,0.04913
2991.48397,0.04919
2989.55523,0.04934
2987.62648,0.04964
2985.69774,0.04991
2983.76899,0.05006
2981.84025,0.05010
2979.91150,0.04997
2977.98275,0.04974
2976.05401,0.04961
2974.12526,0.04962
2972.19652,0.04965
2970.26777,0.04946
2968.33903,0.04908
2966.41028,0.04890
2964.48154,0.04904
2962.55279,0.04898
2960.62405,0.04858
2958.69530,0.04843
2956.76656,0.04873
2954.83781,0.04916
2952.90907,0.04965
2950.98032,0.05040
2949.05157,0.05126
2947.12283,0.05183
2945.19408,0.05211
2943.26534,0.05225
2941.33659,0.05235
2939.40785,0.05255
2937.47910,0.05284
2935.55036,0.05309
2933.62161,0.05322
2931.69287,0.05327
2929.76412,0.05334
2927.83538,0.05353
2925.90663,0.05388
2923.97789,0.05426
2922.04914,0.05454
2920.12040,0.05473
2918.19165,0.05495
2916.26290,0.05518
2914.33416,0.05516
2912.40541,0.05484
2910.47667,0.05458
2908.54792,0.05448
2906.61918,0.05429
2904.69043,0.05398
2902.76169,0.05389
2900.83294,0.05401
2898.90420,0.05404
2896.97545,0.05380
2895.04671,0.05351
2893.11796,0.05342
2891.18922,0.05341
2889.26047,0.05330
2887.33172,0.05313
2885.40298,0.05301
2883.47423,0.05295
2881.54549,0.05299
2879.61674,0.05311
2877.68800,0.05311
2875.75925,0.05310
2873.83051,0.05338
2871.90176,0.05366
2869.97302,0.05358
2868.04427,0.05343
2866.11553,0.05352
2864.18678,0.05363
2862.25804,0.05365
2860.32929,0.05376
2858.40055,0.05389
2856.47180,0.05391
2854.54305,0.05391
2852.61431,0.05396
2850.68556,0.05407
2848.75682,0.05424
2846.82807,0.05432
2844.89933,0.05425
2842.97058,0.05411
2841.04184,0.05393
2839.11309,0.05377
2837.18435,0.05362
2835.25560,0.05342
2833.32686,0.05340
2831.39811,0.05370
2829.46937,0.05391
2827.54062,0.05380
2825.61188,0.05370
2823.68313,0.05380
2821.75438,0.05399
2819.82564,0.05418
2817.89689,0.05431
2815.96815,0.05439
2814.03940,0.05437
2812.11066,0.05430
2810.18191,0.05426
2808.25317,0.05426
2806.32442,0.05429
2804.39568,0.05420
2802.46693,0.05417
2800.53819,0.05435
2798.60944,0.05458
2796.68070,0.05461
2794.75195,0.05445
2792.82320,0.05452
2790.89446,0.05483
2788.96571,0.05482
2787.03697,0.05464
2785.10822,0.05478
2783.17948,0.05506
2781.25073,0.05510
2779.32199,0.05505
2777.39324,0.05515
2775.46450,0.05516
2773.53575,0.05502
2771.60701,0.05500
2769.67826,0.05505
2767.74952,0.05492
2765.82077,0.05472
2763.89203,0.05467
2761.96328,0.05470
2760.03453,0.05475
2758.10579,0.05492
2756.17704,0.05515
2754.24830,0.05537
2752.31955,0.05562
2750.39081,0.05576
2748.46206,0.05571
2746.53332,0.05560
2744.60457,0.05553
2742.67583,0.05537
2740.74708,0.05504
2738.81834,0.05484
2736.88959,0.05499
2734.96085,0.05533
2733.03210,0.05563
2731.10336,0.05585
2729.17461,0.05605
2727.24586,0.05614
2725.31712,0.05592
2723.38837,0.05562
2721.45963,0.05553
2719.53088,0.05553
2717.60214,0.05552
2715.67339,0.05565
2713.74465,0.05578
2711.81590,0.05563
2709.88716,0.05532
2707.95841,0.05520
2706.02967,0.05536
2704.10092,0.05570
2702.17218,0.05603
2700.24343,0.05609
2698.31468,0.05588
2696.38594,0.05572
2694.45719,0.05572
2692.52845,0.05570
2690.59970,0.05564
2688.67096,0.05565
2686.74221,0.05572
2684.81347,0.05572
2682.88472,0.05564
2680.95598,0.05554
2679.02723,0.05538
2677.09849,0.05519
2675.16974,0.05499
2673.24100,0.05476
2671.31225,0.05465
2669.38351,0.05481
2667.45476,0.05513
2665.52601,0.05539
2663.59727,0.05535
2661.66852,0.05498
2659.73978,0.05461
2657.81103,0.05457
2655.88229,0.05477
2653.95354,0.05490
2652.02480,0.05483
2650.09605,0.05480
2648.16731,0.05485
2646.23856,0.05480
2644.30982,0.05466
2642.38107,0.05453
2640.45233,0.05443
2638.52358,0.05439
2636.59484,0.05444
2634.66609,0.05461
2632.73734,0.05476
2630.80860,0.05469
2628.87985,0.05453
2626.95111,0.05440
2625.02236,0.05427
2623.09362,0.05417
2621.16487,0.05408
2619.23613,0.05403
2617.30738,0.05416
2615.37864,0.05434
2613.44989,0.05430
2611.52115,0.05413
2609.59240,0.05411
2607.66366,0.05420
2605.73491,0.05422
2603.80616,0.05415
2601.87742,0.05403
2599.94867,0.05392
2598.01993,0.05387
2596.09118,0.05386
2594.16244,0.05387
2592.23369,0.05397
2590.30495,0.05417
2588.37620,0.05431
2586.44746,0.05419
2584.51871,0.05401
2582.58997,0.05413
2580.66122,0.05434
2578.73248,0.05428
2576.80373,0.05409
2574.87499,0.05398
2572.94624,0.05382
2571.01749,0.05362
2569.08875,0.05359
2567.16000,0.05374
2565.23126,0.05391
2563.30251,0.05401
2561.37377,0.05404
2559.44502,0.05405
2557.51628,0.05407
2555.58753,0.05402
2553.65879,0.05382
2551.73004,0.05359
2549.80130,0.05351
2547.87255,0.05349
2545.94381,0.05346
2544.01506,0.05350
2542.08631,0.05360
2540.15757,0.05363
2538.22882,0.05364
2536.30008,0.05375
2534.37133,0.05383
2532.44259,0.05376
2530.51384,0.05370
2528.58510,0.05372
2526.65635,0.05376
2524.72761,0.05383
2522.79886,0.05391
2520.87012,0.05377
2518.94137,0.05357
2517.01263,0.05364
2515.08388,0.05386
2513.15514,0.05399
2511.22639,0.05398
2509.29764,0.05389
2507.36890,0.05375
2505.44015,0.05358
2503.51141,0.05354
2501.58266,0.05370
2499.65392,0.05391
2497.72517,0.05399
2495.79643,0.05393
2493.86768,0.05393
2491.93894,0.05401
2490.01019,0.05398
2488.08145,0.05378
2486.15270,0.05370
2484.22396,0.05383
2482.29521,0.05386
2480.36647,0.05376
2478.43772,0.05371
2476.50897,0.05375
2474.58023,0.05380
2472.65148,0.05381
2470.72274,0.05377
2468.79399,0.05387
2466.86525,0.05403
2464.93650,0.05398
2463.00776,0.05374
2461.07901,0.05345
2459.15027,0.05321
2457.22152,0.05314
2455.29278,0.05321
2453.36403,0.05330
2451.43529,0.05334
2449.50654,0.05339
2447.57779,0.05350
2445.64905,0.05354
2443.72030,0.05347
2441.79156,0.05337
2439.86281,0.05335
2437.93407,0.05341
2436.00532,0.05341
2434.07658,0.05317
2432.14783,0.05273
2430.21909,0.05247
2428.29034,0.05251
2426.36160,0.05264
2424.43285,0.05273
2422.50411,0.05290
2420.57536,0.05300
2418.64662,0.05299
2416.71787,0.05303
2414.78912,0.05303
2412.86038,0.05295
2410.93163,0.05288
2409.00289,0.05284
2407.07414,0.05283
2405.14540,0.05283
2403.21665,0.05281
2401.28791,0.05275
2399.35916,0.05264
2397.43042,0.05253
2395.50167,0.05248
2393.57293,0.05249
2391.64418,0.05255
2389.71544,0.05270
2387.78669,0.05279
2385.85795,0.05272
2383.92920,0.05258
2382.00045,0.05244
2380.07171,0.05237
2378.14296,0.05247
2376.21422,0.05262
2374.28547,0.05267
2372.35673,0.05266
2370.42798,0.05264
2368.49924,0.05250
2366.57049,0.05223
2364.64175,0.05211
2362.71300,0.05230
2360.78426,0.05253
2358.85551,0.05266
2356.92677,0.05277
2354.99802,0.05272
2353.06927,0.05249
2351.14053,0.05222
2349.21178,0.05208
2347.28304,0.05220
2345.35429,0.05258
2343.42555,0.05289
2341.49680,0.05285
2339.56806,0.05257
2337.63931,0.05234
2335.71057,0.05229
2333.78182,0.05235
2331.85308,0.05243
2329.92433,0.05247
2327.99559,0.05236
2326.06684,0.05209
2324.13810,0.05194
2322.20935,0.05195
2320.28060,0.05199
2318.35186,0.05203
2316.42311,0.05212
2314.49437,0.05220
2312.56562,0.05214
2310.63688,0.05200
2308.70813,0.05189
2306.77939,0.05182
2304.85064,0.05180
2302.92190,0.05183
2300.99315,0.05193
2299.06441,0.05211
2297.13566,0.05221
2295.20692,0.05213
2293.27817,0.05200
2291.34943,0.05199
2289.42068,0.05193
2287.49193,0.05175
2285.56319,0.05165
2283.63444,0.05172
2281.70570,0.05177
2279.77695,0.05173
2277.84821,0.05170
2275.91946,0.05173
2273.99072,0.05182
2272.06197,0.05191
2270.13323,0.05188
2268.20448,0.05177
2266.27574,0.05170
2264.34699,0.05176
2262.41825,0.05189
2260.48950,0.05192
2258.56075,0.05176
2256.63201,0.05166
2254.70326,0.05168
2252.77452,0.05156
2250.84577,0.05135
2248.91703,0.05127
2246.98828,0.05127
2245.05954,0.05134
2243.13079,0.05147
2241.20205,0.05154
2239.27330,0.05152
2237.34456,0.05142
2235.41581,0.05133
2233.48707,0.05123
2231.55832,0.05111
2229.62958,0.05104
2227.70083,0.05107
2225.77208,0.05126
2223.84334,0.05150
2221.91459,0.05154
2219.98585,0.05137
2218.05710,0.05120
2216.12836,0.05114
2214.19961,0.05118
2212.27087,0.05123
2210.34212,0.05115
2208.41338,0.05105
2206.48463,0.05118
2204.55589,0.05139
2202.62714,0.05133
2200.69840,0.05110
2198.76965,0.05104
2196.84090,0.05112
2194.91216,0.05107
2192.98341,0.05094
2191.05467,0.05080
2189.12592,0.05058
2187.19718,0.05044
2185.26843,0.05048
2183.33969,0.05053
2181.41094,0.05056
2179.48220,0.05073
2177.55345,0.05090
2175.62471,0.05084
2173.69596,0.05059
2171.76722,0.05035
2169.83847,0.05038
2167.90973,0.05040
2165.98098,0.05016
2164.05223,0.04999
2162.12349,0.05013
2160.19474,0.05032
2158.26600,0.05030
2156.33725,0.05019
2154.40851,0.05021
2152.47976,0.05038
2150.55102,0.05048
2148.62227,0.05039
2146.69353,0.05024
2144.76478,0.05021
2142.83604,0.05023
2140.90729,0.05021
2138.97855,0.05019
2137.04980,0.05026
2135.12106,0.05034
2133.19231,0.05024
2131.26356,0.05009
2129.33482,0.05012
2127.40607,0.05020
2125.47733,0.05014
2123.54858,0.05008
2121.61984,0.05014
2119.69109,0.05018
2117.76235,0.05010
2115.83360,0.05006
2113.90486,0.05014
2111.97611,0.05011
2110.04737,0.04984
2108.11862,0.04962
2106.18988,0.04960
2104.26113,0.04973
2102.33238,0.04997
2100.40364,0.05017
2098.47489,0.05016
2096.54615,0.05006
2094.61740,0.05014
2092.68866,0.05024
2090.75991,0.05011
2088.83117,0.04984
2086.90242,0.04965
2084.97368,0.04963
2083.04493,0.04968
2081.11619,0.04960
2079.18744,0.04948
2077.25870,0.04953
2075.32995,0.04969
2073.40121,0.04973
2071.47246,0.04969
2069.54371,0.04970
2067.61497,0.04970
2065.68622,0.04965
2063.75748,0.04969
2061.82873,0.04980
2059.89999,0.04980
2057.97124,0.04967
2056.04250,0.04947
2054.11375,0.04933
2052.18501,0.04939
2050.25626,0.04954
2048.32752,0.04959
2046.39877,0.04958
2044.47003,0.04962
2042.54128,0.04968
2040.61254,0.04966
2038.68379,0.04951
2036.75504,0.04933
2034.82630,0.04923
2032.89755,0.04933
2030.96881,0.04945
2029.04006,0.04937
2027.11132,0.04929
2025.18257,0.04945
2023.25383,0.04962
2021.32508,0.04953
2019.39634,0.04925
2017.46759,0.04901
2015.53885,0.04889
2013.61010,0.04893
2011.68136,0.04910
2009.75261,0.04927
2007.82386,0.04936
2005.89512,0.04935
2003.96637,0.04921
2002.03763,0.04907
2000.10888,0.04905
1998.18014,0.04910
1996.25139,0.04912
1994.32265,0.04911
1992.39390,0.04910
1990.46516,0.04905
1988.53641,0.04897
1986.60767,0.04891
1984.67892,0.04889
1982.75018,0.04887
1980.82143,0.04891
1978.89269,0.04902
1976.96394,0.04891
1975.03519,0.04867
1973.10645,0.04867
1971.17770,0.04890
1969.24896,0.04904
1967.32021,0.04907
1965.39147,0.04908
1963.46272,0.04901
1961.53398,0.04896
1959.60523,0.04900
1957.67649,0.04901
1955.74774,0.04898
1953.81900,0.04902
1951.89025,0.04900
1949.96151,0.04884
1948.03276,0.04871
1946.10402,0.04874
1944.17527,0.04884
1942.24652,0.04888
1940.31778,0.04882
1938.38903,0.04872
1936.46029,0.04860
1934.53154,0.04852
1932.60280,0.04864
1930.67405,0.04884
1928.74531,0.04891
1926.81656,0.04881
1924.88782,0.04868
1922.95907,0.04863
1921.03033,0.04863
1919.10158,0.04862
1917.17284,0.04859
1915.24409,0.04848
1913.31534,0.04826
1911.38660,0.04810
1909.45785,0.04814
1907.52911,0.04832
1905.60036,0.04843
1903.67162,0.04838
1901.74287,0.04823
1899.81413,0.04820
1897.88538,0.04830
1895.95664,0.04823
1894.02789,0.04786
1892.09915,0.04751
1890.17040,0.04750
1888.24166,0.04770
1886.31291,0.04776
1884.38417,0.04768
1882.45542,0.04754
1880.52667,0.04737
1878.59793,0.04730
1876.66918,0.04738
1874.74044,0.04753
1872.81169,0.04761
1870.88295,0.04762
1868.95420,0.04757
1867.02546,0.04751
1865.09671,0.04742
1863.16797,0.04728
1861.23922,0.04713
1859.31048,0.04700
1857.38173,0.04686
1855.45299,0.04667
1853.52424,0.04648
1851.59549,0.04634
1849.66675,0.04619
1847.73800,0.04599
1845.80926,0.04594
1843.88051,0.04616
1841.95177,0.04634
1840.02302,0.04634
1838.09428,0.04631
1836.16553,0.04626
1834.23679,0.04613
1832.30804,0.04608
1830.37930,0.04611
1828.45055,0.04599
1826.52181,0.04568
1824.59306,0.04537
1822.66432,0.04525
1820.73557,0.04524
1818.80682,0.04524
1816.87808,0.04530
1814.94933,0.04522
1813.02059,0.04490
1811.09184,0.04450
1809.16310,0.04418
1807.23435,0.04400
1805.30561,0.04396
1803.37686,0.04395
1801.44812,0.04381
1799.51937,0.04357
1797.59063,0.04339
1795.66188,0.04324
1793.73314,0.04299
1791.80439,0.04269
1789.87565,0.04241
1787.94690,0.04218
1786.01815,0.04193
1784.08941,0.04154
1782.16066,0.04106
1780.23192,0.04066
1778.30317,0.04040
1776.37443,0.04018
1774.44568,0.03979
1772.51694,0.03918
1770.58819,0.03856
1768.65945,0.03802
1766.73070,0.03735
1764.80196,0.03656
1762.87321,0.03577
1760.94447,0.03488
1759.01572,0.03374
1757.08697,0.03233
1755.15823,0.03080
1753.22948,0.02925
1751.30074,0.02743
1749.37199,0.02564
1747.44325,0.02468
1745.51450,0.02514
1743.58576,0.02746
1741.65701,0.03177
1739.72827,0.03765
1737.79952,0.04384
1735.87078,0.05008
1733.94203,0.05736
1732.01329,0.06449
1730.08454,0.07041
1728.15580,0.07560
1726.22705,0.07961
1724.29830,0.08205
1722.36956,0.08303
1720.44081,0.08286
1718.51207,0.08160
1716.58332,0.07917
1714.65458,0.07618
1712.72583,0.07335
1710.79709,0.07085
1708.86834,0.06875
1706.93960,0.06689
1705.01085,0.06516
1703.08211,0.06380
1701.15336,0.06249
1699.22462,0.06106
1697.29587,0.06006
1695.36713,0.05939
1693.43838,0.05873
1691.50963,0.05812
1689.58089,0.05777
1687.65214,0.05776
1685.72340,0.05770
1683.79465,0.05730
1681.86591,0.05685
1679.93716,0.05649
1678.00842,0.05608
1676.07967,0.05576
1674.15093,0.05559
1672.22218,0.05533
1670.29344,0.05491
1668.36469,0.05449
1666.43595,0.05430
1664.50720,0.05427
1662.57845,0.05420
1660.64971,0.05414
1658.72096,0.05423
1656.79222,0.05431
1654.86347,0.05413
1652.93473,0.05360
1651.00598,0.05324
1649.07724,0.05330
1647.14849,0.05345
1645.21975,0.05341
1643.29100,0.05309
1641.36226,0.05271
1639.43351,0.05252
1637.50477,0.05242
1635.57602,0.05221
1633.64728,0.05211
1631.71853,0.05223
1629.78978,0.05236
1627.86104,0.05239
1625.93229,0.05228
1624.00355,0.05201
1622.07480,0.05175
1620.14606,0.05169
1618.21731,0.05171
1616.28857,0.05160
1614.35982,0.05151
1612.43108,0.05156
1610.50233,0.05161
1608.57359,0.05164
1606.64484,0.05154
1604.71610,0.05134
1602.78735,0.05124
1600.85861,0.05126
1598.92986,0.05130
1597.00111,0.05138
1595.07237,0.05144
1593.14362,0.05127
1591.21488,0.05091
1589.28613,0.05067
1587.35739,0.05062
1585.42864,0.05061
1583.49990,0.05054
1581.57115,0.05053
1579.64241,0.05049
1577.71366,0.05026
1575.78492,0.04986
1573.85617,0.04963
1571.92743,0.04962
1569.99868,0.04953
1568.06993,0.04932
1566.14119,0.04920
1564.21244,0.04910
1562.28370,0.04898
1560.35495,0.04875
1558.42621,0.04842
1556.49746,0.04832
1554.56872,0.04846
1552.63997,0.04871
1550.71123,0.04892
1548.78248,0.04886
1546.85374,0.04856
1544.92499,0.04825
1542.99625,0.04801
1541.06750,0.04776
1539.13876,0.04749
1537.21001,0.04749
1535.28126,0.04773
1533.35252,0.04787
1531.42377,0.04774
1529.49503,0.04754
1527.56628,0.04735
1525.63754,0.04705
1523.70879,0.04674
1521.78005,0.04658
1519.85130,0.04649
1517.92256,0.04632
1515.99381,0.04602
1514.06507,0.04572
1512.13632,0.04560
1510.20758,0.04561
1508.27883,0.04545
1506.35008,0.04478
1504.42134,0.04400
1502.49259,0.04351
1500.56385,0.04322
1498.63510,0.04293
1496.70636,0.04239
1494.77761,0.04188
1492.84887,0.04166
1490.92012,0.04162
1488.99138,0.04196
1487.06263,0.04274
1485.13389,0.04354
1483.20514,0.04428
1481.27640,0.04506
1479.34765,0.04556
1477.41891,0.04567
1475.49016,0.04586
1473.56141,0.04624
1471.63267,0.04633
1469.70392,0.04612
1467.77518,0.04589
1465.84643,0.04563
1463.91769,0.04543
1461.98894,0.04539
1460.06020,0.04563
1458.13145,0.04595
1456.20271,0.04598
1454.27396,0.04601
1452.34522,0.04652
1450.41647,0.04753
1448.48773,0.04874
1446.55898,0.04971
1444.63024,0.05027
1442.70149,0.05052
1440.77274,0.05065
1438.84400,0.05110
1436.91525,0.05216
1434.98651,0.05366
1433.05776,0.05510
1431.12902,0.05607
1429.20027,0.05648
1427.27153,0.05654
1425.34278,0.05619
1423.41404,0.05535
1421.48529,0.05444
1419.55655,0.05376
1417.62780,0.05324
1415.69906,0.05273
1413.77031,0.05217
1411.84156,0.05159
1409.91282,0.05109
1407.98407,0.05061
1406.05533,0.05002
1404.12658,0.04945
1402.19784,0.04909
1400.26909,0.04879
1398.34035,0.04848
1396.41160,0.04830
1394.48286,0.04811
1392.55411,0.04801
1390.62537,0.04831
1388.69662,0.04891
1386.76788,0.04951
1384.83913,0.04990
1382.91039,0.05016
1380.98164,0.05039
1379.05289,0.05055
1377.12415,0.05056
1375.19540,0.05028
1373.26666,0.04978
1371.33791,0.04941
1369.40917,0.04932
1367.48042,0.04924
1365.55168,0.04916
1363.62293,0.04926
1361.69419,0.04932
1359.76544,0.04917
1357.83670,0.04894
1355.90795,0.04877
1353.97921,0.04872
1352.05046,0.04868
1350.12172,0.04846
1348.19297,0.04811
1346.26422,0.04782
1344.33548,0.04756
1342.40673,0.04728
1340.47799,0.04701
1338.54924,0.04680
1336.62050,0.04668
1334.69175,0.04648
1332.76301,0.04614
1330.83426,0.04587
1328.90552,0.04577
1326.97677,0.04569
1325.04803,0.04548
1323.11928,0.04511
1321.19054,0.04469
1319.26179,0.04428
1317.33304,0.04394
1315.40430,0.04371
1313.47555,0.04346
1311.54681,0.04306
1309.61806,0.04261
1307.68932,0.04224
1305.76057,0.04203
1303.83183,0.04176
1301.90308,0.04132
1299.97434,0.04089
1298.04559,0.04056
1296.11685,0.04024
1294.18810,0.03977
1292.25936,0.03909
1290.33061,0.03838
1288.40187,0.03784
1286.47312,0.03749
1284.54437,0.03710
1282.61563,0.03665
1280.68688,0.03645
1278.75814,0.03668
1276.82939,0.03728
1274.90065,0.03835
1272.97190,0.03989
1271.04316,0.04152
1269.11441,0.04283
1267.18567,0.04373
1265.25692,0.04426
1263.32818,0.04439
1261.39943,0.04420
1259.47069,0.04391
1257.54194,0.04352
1255.61320,0.04306
1253.68445,0.04272
1251.75570,0.04263
1249.82696,0.04294
1247.89821,0.04370
1245.96947,0.04496
1244.04072,0.04662
1242.11198,0.04828
1240.18323,0.04973
1238.25449,0.05091
1236.32574,0.05179
1234.39700,0.05237
1232.46825,0.05264
1230.53951,0.05257
1228.61076,0.05210
1226.68202,0.05110
1224.75327,0.04987
1222.82452,0.04886
1220.89578,0.04794
1218.96703,0.04669
1217.03829,0.04517
1215.10954,0.04355
1213.18080,0.04175
1211.25205,0.03994
1209.32331,0.03854
1207.39456,0.03769
1205.46582,0.03735
1203.53707,0.03751
1201.60833,0.03833
1199.67958,0.03998
1197.75084,0.04243
1195.82209,0.04534
1193.89335,0.04814
1191.96460,0.05050
1190.03585,0.05230
1188.10711,0.05335
1186.17836,0.05361
1184.24962,0.05322
1182.32087,0.05258
1180.39213,0.05223
1178.46338,0.05219
1176.53464,0.05210
1174.60589,0.05198
1172.67715,0.05201
1170.74840,0.05225
1168.81966,0.05263
1166.89091,0.05285
1164.96217,0.05284
1163.03342,0.05308
1161.10467,0.05367
1159.17593,0.05446
1157.24718,0.05605
1155.31844,0.05931
1153.38969,0.06425
1151.46095,0.07024
1149.53220,0.07639
1147.60346,0.08152
1145.67471,0.08504
1143.74597,0.08724
1141.81722,0.08825
1139.88848,0.08817
1137.95973,0.08745
1136.03099,0.08647
1134.10224,0.08532
1132.17350,0.08405
1130.24475,0.08275
1128.31600,0.08147
1126.38726,0.08032
1124.45851,0.07945
1122.52977,0.07893
1120.60102,0.07853
1118.67228,0.07805
1116.74353,0.07751
1114.81479,0.07676
1112.88604,0.07597
1110.95730,0.07561
1109.02855,0.07560
1107.09981,0.07563
1105.17106,0.07546
1103.24232,0.07503
1101.31357,0.07473
1099.38483,0.07474
1097.45608,0.07455
1095.52733,0.07393
1093.59859,0.07342
1091.66984,0.07327
1089.74110,0.07344
1087.81235,0.07375
1085.88361,0.07396
1083.95486,0.07402
1082.02612,0.07393
1080.09737,0.07380
1078.16863,0.07380
1076.23988,0.07373
1074.31114,0.07329
1072.38239,0.07282
1070.45365,0.07277
1068.52490,0.07301
1066.59615,0.07322
1064.66741,0.07338
1062.73866,0.07388
1060.80992,0.07499
1058.88117,0.07662
1056.95243,0.07866
1055.02368,0.08099
1053.09494,0.08321
1051.16619,0.08486
1049.23745,0.08591
1047.30870,0.08664
1045.37996,0.08698
1043.45121,0.08695
1041.52247,0.08669
1039.59372,0.08613
1037.66498,0.08550
1035.73623,0.08517
1033.80748,0.08475
1031.87874,0.08385
1029.94999,0.08252
1028.02125,0.08084
1026.09250,0.07925
1024.16376,0.07799
1022.23501,0.07679
1020.30627,0.07550
1018.37752,0.07408
1016.44878,0.07238
1014.52003,0.07046
1012.59129,0.06848
1010.66254,0.06646
1008.73380,0.06434
1006.80505,0.06219
1004.87631,0.06029
1002.94756,0.05885
1001.01881,0.05795
999.09007,0.05759
997.16132,0.05769
995.23258,0.05807
993.30383,0.05861
991.37509,0.05917
989.44634,0.05972
987.51760,0.06032
985.58885,0.06094
983.66011,0.06156
981.73136,0.06223
979.80262,0.06274
977.87387,0.06282
975.94513,0.06253
974.01638,0.06222
972.08763,0.06222
970.15889,0.06247
968.23014,0.06270
966.30140,0.06300
964.37265,0.06350
962.44391,0.06397
960.51516,0.06414
958.58642,0.06414
956.65767,0.06420
954.72893,0.06415
952.80018,0.06391
950.87144,0.06377
948.94269,0.06379
947.01395,0.06372
945.08520,0.06355
943.15646,0.06347
941.22771,0.06345
939.29896,0.06325
937.37022,0.06298
935.44147,0.06276
933.51273,0.06249
931.58398,0.06223
929.65524,0.06214
927.72649,0.06212
925.79775,0.06200
923.86900,0.06185
921.94026,0.06167
920.01151,0.06129
918.08277,0.06092
916.15402,0.06085
914.22528,0.06111
912.29653,0.06162
910.36779,0.06210
908.43904,0.06232
906.51029,0.06250
904.58155,0.06284
902.65280,0.06299
900.72406,0.06272
898.79531,0.06267
896.86657,0.06317
894.93782,0.06362
893.00908,0.06374
891.08033,0.06393
889.15159,0.06431
887.22284,0.06458
885.29410,0.06480
883.36535,0.06521
881.43661,0.06559
879.50786,0.06567
877.57911,0.06570
875.65037,0.06598
873.72162,0.06634
871.79288,0.06639
869.86413,0.06611
867.93539,0.06587
866.00664,0.06576
864.07790,0.06558
862.14915,0.06525
860.22041,0.06467
858.29166,0.06400
856.36292,0.06363
854.43417,0.06343
852.50543,0.06322
850.57668,0.06320
848.64794,0.06326
846.71919,0.06316
844.79044,0.06330
842.86170,0.06397
840.93295,0.06498
839.00421,0.06612
837.07546,0.06731
835.14672,0.06827
833.21797,0.06869
831.28923,0.06850
829.36048,0.06805
827.43174,0.06777
825.50299,0.06813
823.57425,0.06913
821.64550,0.07009
819.71676,0.07069
817.78801,0.07107
815.85926,0.07130
813.93052,0.07158
812.00177,0.07181
810.07303,0.07182
808.14428,0.07211
806.21554,0.07289
804.28679,0.07334
802.35805,0.07331
800.42930,0.07345
798.50056,0.07370
796.57181,0.07373
794.64307,0.07352
792.71432,0.07313
790.78558,0.07259
788.85683,0.07180
786.92809,0.07083
784.99934,0.06983
783.07059,0.06889
781.14185,0.06817
779.21310,0.06785
777.28436,0.06768
775.35561,0.06719
773.42687,0.06659
771.49812,0.06629
769.56938,0.06599
767.64063,0.06537
765.71189,0.06444
763.78314,0.06346
761.85440,0.06283
759.92565,0.06230
757.99691,0.06146
756.06816,0.06096
754.13942,0.06151
752.21067,0.06287
750.28192,0.06457
748.35318,0.06637
746.42443,0.06810
744.49569,0.06955
742.56694,0.07026
740.63820,0.07036
738.70945,0.07043
736.78071,0.07023
734.85196,0.06951
732.92322,0.06893
730.99447,0.06889
729.06573,0.06889
727.13698,0.06853
725.20824,0.06803
723.27949,0.06761
721.35074,0.06729
719.42200,0.06699
717.49325,0.06660
715.56451,0.06618
713.63576,0.06571
711.70702,0.06512
709.77827,0.06467
707.84953,0.06461
705.92078,0.06481
703.99204,0.06505
702.06329,0.06533
700.13455,0.06551
698.20580,0.06541
696.27706,0.06490
694.34831,0.06408
692.41957,0.06338
690.49082,0.06328
688.56207,0.06394
686.63333,0.06500
684.70458,0.06578
682.77584,0.06604
680.84709,0.06615
678.91835,0.06660
676.98960,0.06735
675.06086,0.06773
673.13211,0.06754
671.20337,0.06750
669.27462,0.06789
667.34588,0.06800
665.41713,0.06764
663.48839,0.06725
661.55964,0.06678
659.63090,0.06634
657.70215,0.06608
655.77340,0.06569
653.84466,0.06511
651.91591,0.06479
649.98717,0.06486
648.05842,0.06479
646.12968,0.06442
644.20093,0.06414
642.27219,0.06415
640.34344,0.06448
638.41470,0.06468
636.48595,0.06435
634.55721,0.06367
632.62846,0.06333
630.69972,0.06392
628.77097,0.06502
626.84222,0.06582
624.91348,0.06603
622.98473,0.06608
621.05599,0.06670
619.12724,0.06751
617.19850,0.06771
615.26975,0.06742
613.34101,0.06700
611.41226,0.06682
609.48352,0.06743
607.55477,0.06875
605.62603,0.07032
603.69728,0.07163
601.76854,0.07212
599.83979,0.07224
