7497.03301,0.37666
7495.10426,0.37655
7493.17552,0.37850
7491.24677,0.37812
7489.31803,0.37544
7487.38928,0.37279
7485.46054,0.37091
7483.53179,0.37137
7481.60305,0.37417
7479.67430,0.37326
7477.74556,0.36714
7475.81681,0.36352
7473.88807,0.36493
7471.95932,0.36670
7470.03057,0.36711
7468.10183,0.36592
7466.17308,0.36264
7464.24434,0.35889
7462.31559,0.35655
7460.38685,0.35687
7458.45810,0.35808
7456.52936,0.35673
7454.60061,0.35304
7452.67187,0.34841
7450.74312,0.34398
7448.81438,0.34106
7446.88563,0.33926
7444.95689,0.33881
7443.02814,0.34085
7441.09940,0.34338
7439.17065,0.34384
7437.24190,0.34309
7435.31316,0.34085
7433.38441,0.33559
7431.45567,0.32915
7429.52692,0.32614
7427.59818,0.32904
7425.66943,0.33421
7423.74069,0.33721
7421.81194,0.33785
7419.88320,0.33542
7417.95445,0.33024
7416.02571,0.32673
7414.09696,0.32749
7412.16822,0.33015
7410.23947,0.33176
7408.31073,0.33180
7406.38198,0.33281
7404.45323,0.33706
7402.52449,0.34040
7400.59574,0.33910
7398.66700,0.33725
7396.73825,0.33558
7394.80951,0.33149
7392.88076,0.32863
7390.95202,0.32876
7389.02327,0.32771
7387.09453,0.32544
7385.16578,0.32645
7383.23704,0.33092
7381.30829,0.33296
7379.37955,0.33076
7377.45080,0.32788
7375.52205,0.32448
7373.59331,0.32134
7371.66456,0.32101
7369.73582,0.32228
7367.80707,0.32367
7365.87833,0.32516
7363.94958,0.32675
7362.02084,0.32782
7360.09209,0.32791
7358.16335,0.32771
7356.23460,0.32703
7354.30586,0.32666
7352.37711,0.32810
7350.44837,0.32841
7348.51962,0.32405
7346.59088,0.31708
7344.66213,0.31342
7342.73338,0.31560
7340.80464,0.31922
7338.87589,0.32071
7336.94715,0.32046
7335.01840,0.31799
7333.08966,0.31587
7331.16091,0.31604
7329.23217,0.31294
7327.30342,0.30629
7325.37468,0.30331
7323.44593,0.30407
7321.51719,0.30501
7319.58844,0.30575
7317.65970,0.30726
7315.73095,0.31104
7313.80221,0.31329
7311.87346,0.30875
7309.94471,0.30279
7308.01597,0.30216
7306.08722,0.30433
7304.15848,0.30439
7302.22973,0.30167
7300.30099,0.29947
7298.37224,0.30032
7296.44350,0.30145
7294.51475,0.29950
7292.58601,0.29450
7290.65726,0.28844
7288.72852,0.28447
7286.79977,0.28599
7284.87103,0.29210
7282.94228,0.29567
7281.01353,0.29292
7279.08479,0.28978
7277.15604,0.28981
7275.22730,0.29111
7273.29855,0.29396
7271.36981,0.29591
7269.44106,0.29340
7267.51232,0.28855
7265.58357,0.28510
7263.65483,0.28495
7261.72608,0.28583
7259.79734,0.28449
7257.86859,0.28142
7255.93985,0.27814
7254.01110,0.27643
7252.08236,0.27816
7250.15361,0.28104
7248.22486,0.28044
7246.29612,0.27747
7244.36737,0.27543
7242.43863,0.27244
7240.50988,0.26833
7238.58114,0.26561
7236.65239,0.26430
7234.72365,0.26471
7232.79490,0.26785
7230.86616,0.27219
7228.93741,0.27368
7227.00867,0.27112
7225.07992,0.26800
7223.15118,0.26534
7221.22243,0.26128
7219.29369,0.25839
7217.36494,0.26043
7215.43619,0.26565
7213.50745,0.26784
7211.57870,0.26481
7209.64996,0.26263
7207.72121,0.26114
7205.79247,0.25424
7203.86372,0.24731
7201.93498,0.24785
7200.00623,0.25079
7198.07749,0.24908
7196.14874,0.24496
7194.22000,0.24269
7192.29125,0.23979
7190.36251,0.23530
7188.43376,0.23270
7186.50501,0.23205
7184.57627,0.23021
7182.64752,0.22635
7180.71878,0.22320
7178.79003,0.22014
7176.86129,0.21321
7174.93254,0.20619
7173.00380,0.20399
7171.07505,0.20175
7169.14631,0.19652
7167.21756,0.19173
7165.28882,0.18528
7163.36007,0.17376
7161.43133,0.16169
7159.50258,0.15336
7157.57384,0.14640
7155.64509,0.13882
7153.71634,0.13095
7151.78760,0.12449
7149.85885,0.12250
7147.93011,0.12450
7146.00136,0.12806
7144.07262,0.13292
7142.14387,0.14010
7140.21513,0.15087
7138.28638,0.16187
7136.35764,0.16850
7134.42889,0.17350
7132.50015,0.18008
7130.57140,0.18536
7128.64266,0.18855
7126.71391,0.19107
7124.78516,0.19105
7122.85642,0.18850
7120.92767,0.18609
7118.99893,0.18453
7117.07018,0.18388
7115.14144,0.18312
7113.21269,0.18200
7111.28395,0.18283
7109.35520,0.18491
7107.42646,0.18490
7105.49771,0.18336
7103.56897,0.18174
7101.64022,0.17963
7099.71148,0.17858
7097.78273,0.17915
7095.85399,0.17923
7093.92524,0.17780
7091.99649,0.17451
7090.06775,0.16916
7088.13900,0.16234
7086.21026,0.15584
7084.28151,0.15184
7082.35277,0.15033
7080.42402,0.14900
7078.49528,0.14594
7076.56653,0.14207
7074.63779,0.13905
7072.70904,0.13412
7070.78030,0.12507
7068.85155,0.11702
7066.92281,0.11348
7064.99406,0.11210
7063.06532,0.11228
7061.13657,0.11283
7059.20782,0.10986
7057.27908,0.10564
7055.35033,0.10529
7053.42159,0.10692
7051.49284,0.10759
7049.56410,0.10860
7047.63535,0.11136
7045.70661,0.11415
7043.77786,0.11442
7041.84912,0.11290
7039.92037,0.11159
7037.99163,0.11258
7036.06288,0.11644
7034.13414,0.12005
7032.20539,0.12290
7030.27664,0.12689
7028.34790,0.13078
7026.41915,0.13458
7024.49041,0.14059
7022.56166,0.14729
7020.63292,0.15149
7018.70417,0.15289
7016.77543,0.15074
7014.84668,0.14605
7012.91794,0.14545
7010.98919,0.15131
7009.06045,0.15816
7007.13170,0.16178
7005.20296,0.16141
7003.27421,0.15619
7001.34547,0.14734
6999.41672,0.14057
6997.48797,0.13895
6995.55923,0.13835
6993.63048,0.13601
6991.70174,0.13331
6989.77299,0.13034
6987.84425,0.12648
6985.91550,0.12236
6983.98676,0.11861
6982.05801,0.11547
6980.12927,0.11281
6978.20052,0.11046
6976.27178,0.10865
6974.34303,0.10802
6972.41429,0.10766
6970.48554,0.10650
6968.55680,0.10653
6966.62805,0.10892
6964.69930,0.10976
6962.77056,0.10716
6960.84181,0.10480
6958.91307,0.10435
6956.98432,0.10284
6955.05558,0.10081
6953.12683,0.10252
6951.19809,0.10686
6949.26934,0.10954
6947.34060,0.11131
6945.41185,0.11305
6943.48311,0.11374
6941.55436,0.11353
6939.62562,0.11327
6937.69687,0.11387
6935.76812,0.11499
6933.83938,0.11615
6931.91063,0.11684
6929.98189,0.11579
6928.05314,0.11428
6926.12440,0.11468
6924.19565,0.11570
6922.26691,0.11391
6920.33816,0.10921
6918.40942,0.10501
6916.48067,0.10343
6914.55193,0.10236
6912.62318,0.09874
6910.69444,0.09406
6908.76569,0.09167
6906.83695,0.09127
6904.90820,0.09151
6902.97945,0.09155
6901.05071,0.08973
6899.12196,0.08664
6897.19322,0.08641
6895.26447,0.08902
6893.33573,0.09101
6891.40698,0.09310
6889.47824,0.09660
6887.54949,0.09956
6885.62075,0.10107
6883.69200,0.10263
6881.76326,0.10496
6879.83451,0.10761
6877.90577,0.11095
6875.97702,0.11398
6874.04828,0.11586
6872.11953,0.11792
6870.19078,0.12033
6868.26204,0.12183
6866.33329,0.12131
6864.40455,0.11915
6862.47580,0.11798
6860.54706,0.11908
6858.61831,0.11999
6856.68957,0.11645
6854.76082,0.10848
6852.83208,0.10130
6850.90333,0.09716
6848.97459,0.09430
6847.04584,0.09266
6845.11710,0.09306
6843.18835,0.09399
6841.25960,0.09262
6839.33086,0.09095
6837.40211,0.09297
6835.47337,0.09657
6833.54462,0.09974
6831.61588,0.10411
6829.68713,0.11006
6827.75839,0.11778
6825.82964,0.12622
6823.90090,0.13227
6821.97215,0.13459
6820.04341,0.13453
6818.11466,0.13434
6816.18592,0.13615
6814.25717,0.14084
6812.32843,0.14604
6810.39968,0.14924
6808.47093,0.15077
6806.54219,0.15052
6804.61344,0.14992
6802.68470,0.15209
6800.75595,0.15539
6798.82721,0.15718
6796.89846,0.15869
6794.96972,0.16066
6793.04097,0.16300
6791.11223,0.16689
6789.18348,0.17203
6787.25474,0.17579
6785.32599,0.17597
6783.39725,0.17407
6781.46850,0.17428
6779.53975,0.17639
6777.61101,0.17643
6775.68226,0.17582
6773.75352,0.17899
6771.82477,0.18382
6769.89603,0.18630
6767.96728,0.18752
6766.03854,0.18858
6764.10979,0.18834
6762.18105,0.18656
6760.25230,0.18590
6758.32356,0.18882
6756.39481,0.19217
6754.46607,0.19274
6752.53732,0.19283
6750.60858,0.19354
6748.67983,0.19338
6746.75108,0.19345
6744.82234,0.19380
6742.89359,0.19325
6740.96485,0.19392
6739.03610,0.19575
6737.10736,0.19634
6735.17861,0.19667
6733.24987,0.19848
6731.32112,0.20064
6729.39238,0.20106
6727.46363,0.20008
6725.53489,0.19932
6723.60614,0.19979
6721.67740,0.20159
6719.74865,0.20360
6717.81991,0.20604
6715.89116,0.20911
6713.96241,0.21005
6712.03367,0.20751
6710.10492,0.20397
6708.17618,0.20301
6706.24743,0.20620
6704.31869,0.20948
6702.38994,0.20852
6700.46120,0.20620
6698.53245,0.20552
6696.60371,0.20579
6694.67496,0.20608
6692.74622,0.20467
6690.81747,0.20300
6688.88873,0.20493
6686.95998,0.20891
6685.03123,0.20996
6683.10249,0.20705
6681.17374,0.20301
6679.24500,0.19935
6677.31625,0.19634
6675.38751,0.19526
6673.45876,0.19692
6671.53002,0.19926
6669.60127,0.19944
6667.67253,0.19742
6665.74378,0.19520
6663.81504,0.19472
6661.88629,0.19623
6659.95755,0.19697
6658.02880,0.19439
6656.10006,0.19080
6654.17131,0.18924
6652.24256,0.18818
6650.31382,0.18657
6648.38507,0.18562
6646.45633,0.18585
6644.52758,0.18703
6642.59884,0.18743
6640.67009,0.18554
6638.74135,0.18317
6636.81260,0.18169
6634.88386,0.17944
6632.95511,0.17617
6631.02637,0.17349
6629.09762,0.17194
6627.16888,0.17225
6625.24013,0.17407
6623.31139,0.17384
6621.38264,0.16951
6619.45389,0.16452
6617.52515,0.16163
6615.59640,0.15994
6613.66766,0.15868
6611.73891,0.15776
6609.81017,0.15820
6607.88142,0.16008
6605.95268,0.15989
6604.02393,0.15609
6602.09519,0.15139
6600.16644,0.14738
6598.23770,0.14372
6596.30895,0.14170
6594.38021,0.14159
6592.45146,0.14182
6590.52271,0.14232
6588.59397,0.14288
6586.66522,0.14166
6584.73648,0.13813
6582.80773,0.13501
6580.87899,0.13527
6578.95024,0.13791
6577.02150,0.13963
6575.09275,0.13997
6573.16401,0.14163
6571.23526,0.14572
6569.30652,0.14994
6567.37777,0.15205
6565.44903,0.15206
6563.52028,0.15131
6561.59154,0.15157
6559.66279,0.15387
6557.73404,0.15686
6555.80530,0.15883
6553.87655,0.15987
6551.94781,0.16025
6550.01906,0.16036
6548.09032,0.16083
6546.16157,0.16113
6544.23283,0.16068
6542.30408,0.15993
6540.37534,0.15900
6538.44659,0.15799
6536.51785,0.15756
6534.58910,0.15729
6532.66036,0.15697
6530.73161,0.15780
6528.80287,0.15853
6526.87412,0.15773
6524.94537,0.15801
6523.01663,0.15977
6521.08788,0.15964
6519.15914,0.15778
6517.23039,0.15642
6515.30165,0.15613
6513.37290,0.15607
6511.44416,0.15551
6509.51541,0.15516
6507.58667,0.15500
6505.65792,0.15469
6503.72918,0.15508
6501.80043,0.15463
6499.87169,0.15208
6497.94294,0.15029
6496.01419,0.15023
6494.08545,0.14975
6492.15670,0.14872
6490.22796,0.14760
6488.29921,0.14581
6486.37047,0.14412
6484.44172,0.14392
6482.51298,0.14426
6480.58423,0.14326
6478.65549,0.14115
6476.72674,0.13986
6474.79800,0.14037
6472.86925,0.14028
6470.94051,0.13730
6469.01176,0.13386
6467.08302,0.13244
6465.15427,0.13173
6463.22552,0.13045
6461.29678,0.13014
6459.36803,0.13159
6457.43929,0.13271
6455.51054,0.13259
6453.58180,0.13245
6451.65305,0.13208
6449.72431,0.13042
6447.79556,0.12810
6445.86682,0.12674
6443.93807,0.12761
6442.00933,0.13076
6440.08058,0.13464
6438.15184,0.13691
6436.22309,0.13631
6434.29434,0.13470
6432.36560,0.13517
6430.43685,0.13768
6428.50811,0.13986
6426.57936,0.14100
6424.65062,0.14215
6422.72187,0.14345
6420.79313,0.14524
6418.86438,0.14841
6416.93564,0.15163
6415.00689,0.15418
6413.07815,0.15677
6411.14940,0.15846
6409.22066,0.15951
6407.29191,0.16109
6405.36317,0.16180
6403.43442,0.16157
6401.50567,0.16318
6399.57693,0.16692
6397.64818,0.16970
6395.71944,0.17049
6393.79069,0.17174
6391.86195,0.17447
6389.93320,0.17663
6388.00446,0.17716
6386.07571,0.17785
6384.14697,0.17951
6382.21822,0.18060
6380.28948,0.18115
6378.36073,0.18121
6376.43199,0.17984
6374.50324,0.17903
6372.57450,0.17999
6370.64575,0.18105
6368.71700,0.18294
6366.78826,0.18625
6364.85951,0.18828
6362.93077,0.18792
6361.00202,0.18734
6359.07328,0.18853
6357.14453,0.19074
6355.21579,0.19188
6353.28704,0.19178
6351.35830,0.19121
6349.42955,0.19105
6347.50081,0.19228
6345.57206,0.19316
6343.64332,0.19213
6341.71457,0.19131
6339.78582,0.19143
6337.85708,0.19181
6335.92833,0.19348
6333.99959,0.19560
6332.07084,0.19632
6330.14210,0.19657
6328.21335,0.19688
6326.28461,0.19687
6324.35586,0.19728
6322.42712,0.19850
6320.49837,0.20007
6318.56963,0.20136
6316.64088,0.20261
6314.71214,0.20428
6312.78339,0.20462
6310.85465,0.20226
6308.92590,0.19956
6306.99715,0.20023
6305.06841,0.20408
6303.13966,0.20715
6301.21092,0.20736
6299.28217,0.20623
6297.35343,0.20581
6295.42468,0.20691
6293.49594,0.20888
6291.56719,0.20992
6289.63845,0.20920
6287.70970,0.20822
6285.78096,0.20825
6283.85221,0.20904
6281.92347,0.20990
6279.99472,0.21079
6278.06598,0.21276
6276.13723,0.21554
6274.20848,0.21676
6272.27974,0.21672
6270.35099,0.21782
6268.42225,0.21941
6266.49350,0.22024
6264.56476,0.22096
6262.63601,0.22195
6260.70727,0.22364
6258.77852,0.22537
6256.84978,0.22554
6254.92103,0.22460
6252.99229,0.22477
6251.06354,0.22708
6249.13480,0.23001
6247.20605,0.23156
6245.27730,0.23157
6243.34856,0.23154
6241.41981,0.23262
6239.49107,0.23411
6237.56232,0.23535
6235.63358,0.23694
6233.70483,0.23802
6231.77609,0.23675
6229.84734,0.23451
6227.91860,0.23448
6225.98985,0.23643
6224.06111,0.23734
6222.13236,0.23605
6220.20362,0.23544
6218.27487,0.23761
6216.34613,0.23989
6214.41738,0.24026
6212.48863,0.24031
6210.55989,0.24183
6208.63114,0.24369
6206.70240,0.24329
6204.77365,0.24135
6202.84491,0.23992
6200.91616,0.23917
6198.98742,0.23975
6197.05867,0.24171
6195.12993,0.24338
6193.20118,0.24399
6191.27244,0.24390
6189.34369,0.24341
6187.41495,0.24325
6185.48620,0.24366
6183.55746,0.24346
6181.62871,0.24208
6179.69996,0.24058
6177.77122,0.23982
6175.84247,0.23996
6173.91373,0.24139
6171.98498,0.24339
6170.05624,0.24388
6168.12749,0.24366
6166.19875,0.24500
6164.27000,0.24637
6162.34126,0.24583
6160.41251,0.24484
6158.48377,0.24438
6156.55502,0.24443
6154.62628,0.24577
6152.69753,0.24792
6150.76878,0.24914
6148.84004,0.24882
6146.91129,0.24809
6144.98255,0.24773
6143.05380,0.24746
6141.12506,0.24800
6139.19631,0.24970
6137.26757,0.25095
6135.33882,0.25090
6133.41008,0.25024
6131.48133,0.25008
6129.55259,0.25052
6127.62384,0.25058
6125.69510,0.25007
6123.76635,0.24928
6121.83761,0.24888
6119.90886,0.24956
6117.98011,0.25101
6116.05137,0.25291
6114.12262,0.25415
6112.19388,0.25326
6110.26513,0.25098
6108.33639,0.24903
6106.40764,0.24844
6104.47890,0.24890
6102.55015,0.24911
6100.62141,0.24889
6098.69266,0.24891
6096.76392,0.24922
6094.83517,0.24919
6092.90643,0.24873
6090.97768,0.24876
6089.04893,0.24862
6087.12019,0.24693
6085.19144,0.24453
6083.26270,0.24331
6081.33395,0.24372
6079.40521,0.24429
6077.47646,0.24391
6075.54772,0.24260
6073.61897,0.24072
6071.69023,0.23869
6069.76148,0.23683
6067.83274,0.23582
6065.90399,0.23537
6063.97525,0.23380
6062.04650,0.23129
6060.11776,0.22921
6058.18901,0.22747
6056.26026,0.22486
6054.33152,0.22086
6052.40277,0.21719
6050.47403,0.21594
6048.54528,0.21586
6046.61654,0.21377
6044.68779,0.20911
6042.75905,0.20435
6040.83030,0.20129
6038.90156,0.19892
6036.97281,0.19585
6035.04407,0.19284
6033.11532,0.19108
6031.18658,0.18953
6029.25783,0.18644
6027.32909,0.18262
6025.40034,0.18056
6023.47159,0.18017
6021.54285,0.17901
6019.61410,0.17612
6017.68536,0.17249
6015.75661,0.16926
6013.82787,0.16780
6011.89912,0.16798
6009.97038,0.16707
6008.04163,0.16415
6006.11289,0.16161
6004.18414,0.16039
6002.25540,0.15864
6000.32665,0.15609
5998.39791,0.15507
5996.46916,0.15591
5994.54041,0.15610
5992.61167,0.15510
5990.68292,0.15409
5988.75418,0.15281
5986.82543,0.15099
5984.89669,0.14956
5982.96794,0.14925
5981.03920,0.14949
5979.11045,0.14887
5977.18171,0.14718
5975.25296,0.14496
5973.32422,0.14281
5971.39547,0.14122
5969.46673,0.13971
5967.53798,0.13780
5965.60924,0.13621
5963.68049,0.13572
5961.75174,0.13529
5959.82300,0.13353
5957.89425,0.13134
5955.96551,0.13001
5954.03676,0.12970
5952.10802,0.13030
5950.17927,0.13080
5948.25053,0.13036
5946.32178,0.13018
5944.39304,0.13168
5942.46429,0.13413
5940.53555,0.13626
5938.60680,0.13757
5936.67806,0.13773
5934.74931,0.13767
5932.82057,0.13905
5930.89182,0.14144
5928.96307,0.14304
5927.03433,0.14338
5925.10558,0.14403
5923.17684,0.14597
5921.24809,0.14801
5919.31935,0.14940
5917.39060,0.15079
5915.46186,0.15253
5913.53311,0.15340
5911.60437,0.15231
5909.67562,0.15120
5907.74688,0.15224
5905.81813,0.15389
5903.88939,0.15359
5901.96064,0.15196
5900.03189,0.15106
5898.10315,0.15088
5896.17440,0.15082
5894.24566,0.15078
5892.31691,0.14999
5890.38817,0.14868
5888.45942,0.14814
5886.53068,0.14838
5884.60193,0.14874
5882.67319,0.14858
5880.74444,0.14779
5878.81570,0.14734
5876.88695,0.14723
5874.95821,0.14725
5873.02946,0.14838
5871.10072,0.14996
5869.17197,0.15013
5867.24322,0.14937
5865.31448,0.14938
5863.38573,0.15022
5861.45699,0.15059
5859.52824,0.14996
5857.59950,0.14926
5855.67075,0.14918
5853.74201,0.14959
5851.81326,0.15064
5849.88452,0.15133
5847.95577,0.15040
5846.02703,0.14954
5844.09828,0.14989
5842.16954,0.15044
5840.24079,0.15073
5838.31205,0.15048
5836.38330,0.14953
5834.45455,0.14900
5832.52581,0.15004
5830.59706,0.15163
5828.66832,0.15164
5826.73957,0.15030
5824.81083,0.14966
5822.88208,0.14988
5820.95334,0.15004
5819.02459,0.15009
5817.09585,0.14997
5815.16710,0.15006
5813.23836,0.15098
5811.30961,0.15183
5809.38087,0.15208
5807.45212,0.15245
5805.52337,0.15246
5803.59463,0.15153
5801.66588,0.15042
5799.73714,0.14963
5797.80839,0.14951
5795.87965,0.15013
5793.95090,0.15056
5792.02216,0.15060
5790.09341,0.15104
5788.16467,0.15245
5786.23592,0.15484
5784.30718,0.15715
5782.37843,0.15761
5780.44969,0.15623
5778.52094,0.15473
5776.59220,0.15406
5774.66345,0.15467
5772.73470,0.15665
5770.80596,0.15834
5768.87721,0.15829
5766.94847,0.15775
5765.01972,0.15841
5763.09098,0.15961
5761.16223,0.16048
5759.23349,0.16117
5757.30474,0.16138
5755.37600,0.16139
5753.44725,0.16235
5751.51851,0.16412
5749.58976,0.16520
5747.66102,0.16522
5745.73227,0.16521
5743.80352,0.16610
5741.87478,0.16785
5739.94603,0.16947
5738.01729,0.17011
5736.08854,0.17054
5734.15980,0.17150
5732.23105,0.17173
5730.30231,0.17069
5728.37356,0.17033
5726.44482,0.17201
5724.51607,0.17485
5722.58733,0.17717
5720.65858,0.17803
5718.72984,0.17772
5716.80109,0.17732
5714.87235,0.17713
5712.94360,0.17718
5711.01485,0.17822
5709.08611,0.17997
5707.15736,0.18128
5705.22862,0.18192
5703.29987,0.18257
5701.37113,0.18379
5699.44238,0.18506
5697.51364,0.18539
5695.58489,0.18513
5693.65615,0.18553
5691.72740,0.18635
5689.79866,0.18737
5687.86991,0.18904
5685.94117,0.19062
5684.01242,0.19130
5682.08368,0.19089
5680.15493,0.19030
5678.22618,0.19081
5676.29744,0.19164
5674.36869,0.19186
5672.43995,0.19204
5670.51120,0.19256
5668.58246,0.19299
5666.65371,0.19295
5664.72497,0.19289
5662.79622,0.19311
5660.86748,0.19332
5658.93873,0.19334
5657.00999,0.19310
5655.08124,0.19296
5653.15250,0.19315
5651.22375,0.19302
5649.29500,0.19255
5647.36626,0.19219
5645.43751,0.19163
5643.50877,0.19104
5641.58002,0.19061
5639.65128,0.18959
5637.72253,0.18789
5635.79379,0.18629
5633.86504,0.18548
5631.93630,0.18555
5630.00755,0.18545
5628.07881,0.18418
5626.15006,0.18203
5624.22132,0.17995
5622.29257,0.17882
5620.36383,0.17880
5618.43508,0.17890
5616.50633,0.17841
5614.57759,0.17777
5612.64884,0.17732
5610.72010,0.17640
5608.79135,0.17456
5606.86261,0.17277
5604.93386,0.17222
5603.00512,0.17272
5601.07637,0.17379
5599.14763,0.17522
5597.21888,0.17640
5595.29014,0.17660
5593.36139,0.17577
5591.43265,0.17509
5589.50390,0.17534
5587.57516,0.17570
5585.64641,0.17586
5583.71766,0.17616
5581.78892,0.17646
5579.86017,0.17735
5577.93143,0.17895
5576.00268,0.17948
5574.07394,0.17835
5572.14519,0.17751
5570.21645,0.17802
5568.28770,0.17875
5566.35896,0.17849
5564.43021,0.17802
5562.50147,0.17905
5560.57272,0.18090
5558.64398,0.18119
5556.71523,0.18015
5554.78648,0.17998
5552.85774,0.18085
5550.92899,0.18179
5549.00025,0.18278
5547.07150,0.18355
5545.14276,0.18339
5543.21401,0.18234
5541.28527,0.18175
5539.35652,0.18237
5537.42778,0.18362
5535.49903,0.18462
5533.57029,0.18429
5531.64154,0.18285
5529.71280,0.18153
5527.78405,0.18111
5525.85531,0.18202
5523.92656,0.18282
5521.99781,0.18141
5520.06907,0.17900
5518.14032,0.17778
5516.21158,0.17756
5514.28283,0.17748
5512.35409,0.17723
5510.42534,0.17699
5508.49660,0.17678
5506.56785,0.17599
5504.63911,0.17480
5502.71036,0.17420
5500.78162,0.17427
5498.85287,0.17418
5496.92413,0.17380
5494.99538,0.17381
5493.06664,0.17391
5491.13789,0.17316
5489.20914,0.17210
5487.28040,0.17178
5485.35165,0.17164
5483.42291,0.17069
5481.49416,0.16960
5479.56542,0.16937
5477.63667,0.16964
5475.70793,0.16932
5473.77918,0.16834
5471.85044,0.16779
5469.92169,0.16804
5467.99295,0.16844
5466.06420,0.16868
5464.13546,0.16851
5462.20671,0.16768
5460.27796,0.16686
5458.34922,0.16637
5456.42047,0.16588
5454.49173,0.16579
5452.56298,0.16658
5450.63424,0.16760
5448.70549,0.16790
5446.77675,0.16813
5444.84800,0.16908
5442.91926,0.16933
5440.99051,0.16810
5439.06177,0.16723
5437.13302,0.16769
5435.20428,0.16779
5433.27553,0.16668
5431.34679,0.16581
5429.41804,0.16562
5427.48929,0.16536
5425.56055,0.16514
5423.63180,0.16498
5421.70306,0.16450
5419.77431,0.16377
5417.84557,0.16325
5415.91682,0.16338
5413.98808,0.16389
5412.05933,0.16385
5410.13059,0.16285
5408.20184,0.16113
5406.27310,0.15951
5404.34435,0.15857
5402.41561,0.15797
5400.48686,0.15754
5398.55811,0.15738
5396.62937,0.15715
5394.70062,0.15665
5392.77188,0.15621
5390.84313,0.15658
5388.91439,0.15742
5386.98564,0.15733
5385.05690,0.15644
5383.12815,0.15605
5381.19941,0.15619
5379.27066,0.15640
5377.34192,0.15686
5375.41317,0.15750
5373.48443,0.15789
5371.55568,0.15818
5369.62694,0.15859
5367.69819,0.15860
5365.76944,0.15802
5363.84070,0.15748
5361.91195,0.15735
5359.98321,0.15761
5358.05446,0.15787
5356.12572,0.15788
5354.19697,0.15807
5352.26823,0.15843
5350.33948,0.15855
5348.41074,0.15857
5346.48199,0.15834
5344.55325,0.15764
5342.62450,0.15691
5340.69576,0.15612
5338.76701,0.15515
5336.83827,0.15445
5334.90952,0.15446
5332.98077,0.15514
5331.05203,0.15583
5329.12328,0.15558
5327.19454,0.15439
5325.26579,0.15343
5323.33705,0.15310
5321.40830,0.15270
5319.47956,0.15210
5317.55081,0.15157
5315.62207,0.15136
5313.69332,0.15111
5311.76458,0.15007
5309.83583,0.14873
5307.90709,0.14798
5305.97834,0.14747
5304.04959,0.14658
5302.12085,0.14514
5300.19210,0.14333
5298.26336,0.14173
5296.33461,0.14047
5294.40587,0.13915
5292.47712,0.13808
5290.54838,0.13733
5288.61963,0.13605
5286.69089,0.13405
5284.76214,0.13185
5282.83340,0.13015
5280.90465,0.12939
5278.97591,0.12871
5277.04716,0.12745
5275.11842,0.12587
5273.18967,0.12455
5271.26092,0.12414
5269.33218,0.12420
5267.40343,0.12365
5265.47469,0.12251
5263.54594,0.12162
5261.61720,0.12146
5259.68845,0.12121
5257.75971,0.12020
5255.83096,0.11890
5253.90222,0.11764
5251.97347,0.11632
5250.04473,0.11525
5248.11598,0.11492
5246.18724,0.11500
5244.25849,0.11473
5242.32975,0.11408
5240.40100,0.11363
5238.47225,0.11350
5236.54351,0.11347
5234.61476,0.11389
5232.68602,0.11489
5230.75727,0.11559
5228.82853,0.11596
5226.89978,0.11663
5224.97104,0.11768
5223.04229,0.11902
5221.11355,0.12007
5219.18480,0.12040
5217.25606,0.12057
5215.32731,0.12066
5213.39857,0.12064
5211.46982,0.12123
5209.54107,0.12257
5207.61233,0.12414
5205.68358,0.12518
5203.75484,0.12536
5201.82609,0.12532
5199.89735,0.12563
5197.96860,0.12609
5196.03986,0.12670
5194.11111,0.12770
5192.18237,0.12858
5190.25362,0.12891
5188.32488,0.12872
5186.39613,0.12803
5184.46739,0.12788
5182.53864,0.12883
5180.60990,0.12950
5178.68115,0.12938
5176.75240,0.12915
5174.82366,0.12894
5172.89491,0.12864
5170.96617,0.12858
5169.03742,0.12893
5167.10868,0.12893
5165.17993,0.12779
5163.25119,0.12602
5161.32244,0.12494
5159.39370,0.12497
5157.46495,0.12536
5155.53621,0.12552
5153.60746,0.12529
5151.67872,0.12463
5149.74997,0.12397
5147.82123,0.12378
5145.89248,0.12347
5143.96373,0.12245
5142.03499,0.12191
5140.10624,0.12260
5138.17750,0.12319
5136.24875,0.12282
5134.32001,0.12215
5132.39126,0.12187
5130.46252,0.12195
5128.53377,0.12166
5126.60503,0.12063
5124.67628,0.11956
5122.74754,0.11934
5120.81879,0.12003
5118.89005,0.12108
5116.96130,0.12201
5115.03255,0.12256
5113.10381,0.12243
5111.17506,0.12182
5109.24632,0.12184
5107.31757,0.12253
5105.38883,0.12269
5103.46008,0.12250
5101.53134,0.12308
5099.60259,0.12412
5097.67385,0.12474
5095.74510,0.12472
5093.81636,0.12433
5091.88761,0.12412
5089.95887,0.12435
5088.03012,0.12480
5086.10138,0.12520
5084.17263,0.12535
5082.24388,0.12489
5080.31514,0.12443
5078.38639,0.12504
5076.45765,0.12588
5074.52890,0.12569
5072.60016,0.12519
5070.67141,0.12544
5068.74267,0.12609
5066.81392,0.12639
5064.88518,0.12599
5062.95643,0.12545
5061.02769,0.12550
5059.09894,0.12567
5057.17020,0.12525
5055.24145,0.12461
5053.31270,0.12413
5051.38396,0.12380
5049.45521,0.12383
5047.52647,0.12374
5045.59772,0.12297
5043.66898,0.12210
5041.74023,0.12186
5039.81149,0.12196
5037.88274,0.12204
5035.95400,0.12193
5034.02525,0.12139
5032.09651,0.12084
5030.16776,0.12101
5028.23902,0.12167
5026.31027,0.12180
5024.38153,0.12130
5022.45278,0.12096
5020.52403,0.12079
5018.59529,0.12056
5016.66654,0.12059
5014.73780,0.12054
5012.80905,0.11990
5010.88031,0.11907
5008.95156,0.11849
5007.02282,0.11819
5005.09407,0.11800
5003.16533,0.11795
5001.23658,0.11825
4999.30784,0.11847
4997.37909,0.11798
4995.45035,0.11709
4993.52160,0.11653
4991.59286,0.11644
4989.66411,0.11630
4987.73536,0.11591
4985.80662,0.11565
4983.87787,0.11534
4981.94913,0.11481
4980.02038,0.11474
4978.09164,0.11536
4976.16289,0.11589
4974.23415,0.11551
4972.30540,0.11455
4970.37666,0.11395
4968.44791,0.11383
4966.51917,0.11360
4964.59042,0.11327
4962.66168,0.11318
4960.73293,0.11307
4958.80418,0.11288
4956.87544,0.11294
4954.94669,0.11294
4953.01795,0.11268
4951.08920,0.11252
4949.16046,0.11251
4947.23171,0.11237
4945.30297,0.11189
4943.37422,0.11106
4941.44548,0.11034
4939.51673,0.11003
4937.58799,0.10992
4935.65924,0.10994
4933.73050,0.10993
4931.80175,0.10961
4929.87301,0.10894
4927.94426,0.10850
4926.01551,0.10878
4924.08677,0.10908
4922.15802,0.10889
4920.22928,0.10868
4918.30053,0.10842
4916.37179,0.10801
4914.44304,0.10780
4912.51430,0.10752
4910.58555,0.10696
4908.65681,0.10684
4906.72806,0.10707
4904.79932,0.10695
4902.87057,0.10666
4900.94183,0.10647
4899.01308,0.10617
4897.08434,0.10571
4895.15559,0.10522
4893.22684,0.10485
4891.29810,0.10495
4889.36935,0.10521
4887.44061,0.10490
4885.51186,0.10432
4883.58312,0.10430
4881.65437,0.10464
4879.72563,0.10478
4877.79688,0.10464
4875.86814,0.10434
4873.93939,0.10395
4872.01065,0.10363
4870.08190,0.10328
4868.15316,0.10284
4866.22441,0.10274
4864.29566,0.10298
4862.36692,0.10300
4860.43817,0.10269
4858.50943,0.10243
4856.58068,0.10234
4854.65194,0.10202
4852.72319,0.10122
4850.79445,0.10044
4848.86570,0.10032
4846.93696,0.10093
4845.00821,0.10156
4843.07947,0.10134
4841.15072,0.10061
4839.22198,0.10023
4837.29323,0.10029
4835.36449,0.10055
4833.43574,0.10053
4831.50699,0.10007
4829.57825,0.09974
4827.64950,0.09967
4825.72076,0.09932
4823.79201,0.09883
4821.86327,0.09854
4819.93452,0.09827
4818.00578,0.09785
4816.07703,0.09749
4814.14829,0.09743
4812.21954,0.09751
4810.29080,0.09742
4808.36205,0.09724
4806.43331,0.09714
4804.50456,0.09687
4802.57582,0.09625
4800.64707,0.09547
4798.71832,0.09494
4796.78958,0.09499
4794.86083,0.09540
4792.93209,0.09567
4791.00334,0.09567
4789.07460,0.09547
4787.14585,0.09516
4785.21711,0.09462
4783.28836,0.09366
4781.35962,0.09276
4779.43087,0.09239
4777.50213,0.09228
4775.57338,0.09228
4773.64464,0.09248
4771.71589,0.09240
4769.78714,0.09154
4767.85840,0.09035
4765.92965,0.08954
4764.00091,0.08905
4762.07216,0.08874
4760.14342,0.08867
4758.21467,0.08844
4756.28593,0.08782
4754.35718,0.08724
4752.42844,0.08682
4750.49969,0.08609
4748.57095,0.08537
4746.64220,0.08523
4744.71346,0.08534
4742.78471,0.08521
4740.85597,0.08466
4738.92722,0.08400
4736.99847,0.08356
4735.06973,0.08297
4733.14098,0.08224
4731.21224,0.08208
4729.28349,0.08251
4727.35475,0.08268
4725.42600,0.08222
4723.49726,0.08171
4721.56851,0.08141
4719.63977,0.08096
4717.71102,0.08064
4715.78228,0.08081
4713.85353,0.08088
4711.92479,0.08046
4709.99604,0.07996
4708.06729,0.07960
4706.13855,0.07905
4704.20980,0.07828
4702.28106,0.07768
4700.35231,0.07716
4698.42357,0.07646
4696.49482,0.07606
4694.56608,0.07612
4692.63733,0.07570
4690.70859,0.07450
4688.77984,0.07362
4686.85110,0.07345
4684.92235,0.07334
4682.99361,0.07306
4681.06486,0.07275
4679.13612,0.07246
4677.20737,0.07243
4675.27862,0.07297
4673.34988,0.07367
4671.42113,0.07382
4669.49239,0.07347
4667.56364,0.07326
4665.63490,0.07343
4663.70615,0.07364
4661.77741,0.07376
4659.84866,0.07403
4657.91992,0.07442
4655.99117,0.07455
4654.06243,0.07408
4652.13368,0.07338
4650.20494,0.07316
4648.27619,0.07309
4646.34745,0.07244
4644.41870,0.07172
4642.48995,0.07150
4640.56121,0.07143
4638.63246,0.07122
4636.70372,0.07070
4634.77497,0.07007
4632.84623,0.06973
4630.91748,0.06948
4628.98874,0.06901
4627.05999,0.06846
4625.13125,0.06800
4623.20250,0.06776
4621.27376,0.06798
4619.34501,0.06849
4617.41627,0.06850
4615.48752,0.06796
4613.55877,0.06761
4611.63003,0.06747
4609.70128,0.06716
4607.77254,0.06686
4605.84379,0.06663
4603.91505,0.06612
4601.98630,0.06538
4600.05756,0.06482
4598.12881,0.06467
4596.20007,0.06482
4594.27132,0.06495
4592.34258,0.06481
4590.41383,0.06423
4588.48509,0.06335
4586.55634,0.06266
4584.62760,0.06236
4582.69885,0.06233
4580.77010,0.06263
4578.84136,0.06303
4576.91261,0.06303
4574.98387,0.06274
4573.05512,0.06266
4571.12638,0.06269
4569.19763,0.06247
4567.26889,0.06227
4565.34014,0.06232
4563.41140,0.06223
4561.48265,0.06175
4559.55391,0.06124
4557.62516,0.06112
4555.69642,0.06116
4553.76767,0.06106
4551.83893,0.06107
4549.91018,0.06136
4547.98143,0.06133
4546.05269,0.06044
4544.12394,0.05941
4542.19520,0.05935
4540.26645,0.06005
4538.33771,0.06039
4536.40896,0.05984
4534.48022,0.05890
4532.55147,0.05824
4530.62273,0.05790
4528.69398,0.05767
4526.76524,0.05770
4524.83649,0.05820
4522.90775,0.05861
4520.97900,0.05827
4519.05025,0.05766
4517.12151,0.05722
4515.19276,0.05683
4513.26402,0.05670
4511.33527,0.05689
4509.40653,0.05706
4507.47778,0.05698
4505.54904,0.05683
4503.62029,0.05665
4501.69155,0.05640
4499.76280,0.05654
4497.83406,0.05693
4495.90531,0.05674
4493.97657,0.05619
4492.04782,0.05582
4490.11908,0.05542
4488.19033,0.05485
4486.26158,0.05443
4484.33284,0.05429
4482.40409,0.05428
4480.47535,0.05450
4478.54660,0.05494
4476.61786,0.05512
4474.68911,0.05498
4472.76037,0.05487
4470.83162,0.05466
4468.90288,0.05420
4466.97413,0.05389
4465.04539,0.05386
4463.11664,0.05385
4461.18790,0.05388
4459.25915,0.05391
4457.33041,0.05358
4455.40166,0.05294
4453.47291,0.05254
4451.54417,0.05240
4449.61542,0.05231
4447.68668,0.05249
4445.75793,0.05277
4443.82919,0.05273
4441.90044,0.05282
4439.97170,0.05320
4438.04295,0.05329
4436.11421,0.05313
4434.18546,0.05308
4432.25672,0.05290
4430.32797,0.05255
4428.39923,0.05257
4426.47048,0.05297
4424.54173,0.05343
4422.61299,0.05392
4420.68424,0.05414
4418.75550,0.05380
4416.82675,0.05330
4414.89801,0.05313
4412.96926,0.05326
4411.04052,0.05326
4409.11177,0.05296
4407.18303,0.05273
4405.25428,0.05288
4403.32554,0.05304
4401.39679,0.05282
4399.46805,0.05248
4397.53930,0.05248
4395.61056,0.05288
4393.68181,0.05329
4391.75306,0.05327
4389.82432,0.05289
4387.89557,0.05266
4385.96683,0.05275
4384.03808,0.05292
4382.10934,0.05300
4380.18059,0.05302
4378.25185,0.05293
4376.32310,0.05281
4374.39436,0.05294
4372.46561,0.05311
4370.53687,0.05323
4368.60812,0.05376
4366.67938,0.05453
4364.75063,0.05485
4362.82189,0.05471
4360.89314,0.05445
4358.96439,0.05409
4357.03565,0.05390
4355.10690,0.05406
4353.17816,0.05404
4351.24941,0.05362
4349.32067,0.05338
4347.39192,0.05371
4345.46318,0.05410
4343.53443,0.05410
4341.60569,0.05403
4339.67694,0.05409
4337.74820,0.05403
4335.81945,0.05393
4333.89071,0.05406
4331.96196,0.05424
4330.03321,0.05428
4328.10447,0.05423
4326.17572,0.05421
4324.24698,0.05431
4322.31823,0.05439
4320.38949,0.05421
4318.46074,0.05397
4316.53200,0.05403
4314.60325,0.05435
4312.67451,0.05476
4310.74576,0.05499
4308.81702,0.05476
4306.88827,0.05413
4304.95953,0.05355
4303.03078,0.05366
4301.10204,0.05453
4299.17329,0.05529
4297.24454,0.05545
4295.31580,0.05524
4293.38705,0.05494
4291.45831,0.05481
4289.52956,0.05487
4287.60082,0.05474
4285.67207,0.05457
4283.74333,0.05476
4281.81458,0.05515
4279.88584,0.05540
4277.95709,0.05540
4276.02835,0.05520
4274.09960,0.05503
4272.17086,0.05498
4270.24211,0.05485
4268.31336,0.05447
4266.38462,0.05414
4264.45587,0.05405
4262.52713,0.05408
4260.59838,0.05414
4258.66964,0.05422
4256.74089,0.05423
4254.81215,0.05403
4252.88340,0.05375
4250.95466,0.05377
4249.02591,0.05418
4247.09717,0.05453
4245.16842,0.05450
4243.23968,0.05413
4241.31093,0.05380
4239.38219,0.05373
4237.45344,0.05362
4235.52469,0.05343
4233.59595,0.05337
4231.66720,0.05334
4229.73846,0.05332
4227.80971,0.05340
4225.88097,0.05356
4223.95222,0.05375
4222.02348,0.05391
4220.09473,0.05398
4218.16599,0.05407
4216.23724,0.05420
4214.30850,0.05418
4212.37975,0.05406
4210.45101,0.05407
4208.52226,0.05423
4206.59352,0.05437
4204.66477,0.05427
4202.73602,0.05396
4200.80728,0.05386
4198.87853,0.05406
4196.94979,0.05409
4195.02104,0.05394
4193.09230,0.05410
4191.16355,0.05441
4189.23481,0.05442
4187.30606,0.05413
4185.37732,0.05388
4183.44857,0.05379
4181.51983,0.05363
4179.59108,0.05354
4177.66234,0.05382
4175.73359,0.05407
4173.80484,0.05405
4171.87610,0.05408
4169.94735,0.05414
4168.01861,0.05403
4166.08986,0.05395
4164.16112,0.05410
4162.23237,0.05416
4160.30363,0.05400
4158.37488,0.05407
4156.44614,0.05439
4154.51739,0.05461
4152.58865,0.05460
4150.65990,0.05446
4148.73116,0.05436
4146.80241,0.05435
4144.87367,0.05441
4142.94492,0.05460
4141.01617,0.05484
4139.08743,0.05502
4137.15868,0.05496
4135.22994,0.05472
4133.30119,0.05476
4131.37245,0.05501
4129.44370,0.05479
4127.51496,0.05413
4125.58621,0.05375
4123.65747,0.05394
4121.72872,0.05426
4119.79998,0.05433
4117.87123,0.05422
4115.94249,0.05436
4114.01374,0.05486
4112.08500,0.05498
4110.15625,0.05440
4108.22750,0.05402
4106.29876,0.05424
4104.37001,0.05454
4102.44127,0.05469
4100.51252,0.05464
4098.58378,0.05425
4096.65503,0.05387
4094.72629,0.05373
4092.79754,0.05382
4090.86880,0.05412
4088.94005,0.05435
4087.01131,0.05443
4085.08256,0.05467
4083.15382,0.05497
4081.22507,0.05502
4079.29632,0.05493
4077.36758,0.05498
4075.43883,0.05503
4073.51009,0.05484
4071.58134,0.05455
4069.65260,0.05443
4067.72385,0.05452
4065.79511,0.05456
4063.86636,0.05451
4061.93762,0.05453
4060.00887,0.05447
4058.08013,0.05420
4056.15138,0.05416
4054.22264,0.05439
4052.29389,0.05449
4050.36515,0.05455
4048.43640,0.05468
4046.50765,0.05465
4044.57891,0.05454
4042.65016,0.05463
4040.72142,0.05496
4038.79267,0.05540
4036.86393,0.05571
4034.93518,0.05569
4033.00644,0.05527
4031.07769,0.05472
4029.14895,0.05442
4027.22020,0.05450
4025.29146,0.05463
4023.36271,0.05477
4021.43397,0.05501
4019.50522,0.05511
4017.57648,0.05508
4015.64773,0.05509
4013.71898,0.05503
4011.79024,0.05484
4009.86149,0.05462
4007.93275,0.05475
4006.00400,0.05531
4004.07526,0.05558
4002.14651,0.05521
4000.21777,0.05471
3998.28902,0.05453
3996.36028,0.05445
3994.43153,0.05426
3992.50279,0.05433
3990.57404,0.05481
3988.64530,0.05524
3986.71655,0.05523
3984.78780,0.05490
3982.85906,0.05466
3980.93031,0.05467
3979.00157,0.05475
3977.07282,0.05457
3975.14408,0.05421
3973.21533,0.05408
3971.28659,0.05431
3969.35784,0.05459
3967.42910,0.05461
3965.50035,0.05438
3963.57161,0.05430
3961.64286,0.05441
3959.71412,0.05443
3957.78537,0.05423
3955.85663,0.05392
3953.92788,0.05369
3951.99913,0.05381
3950.07039,0.05433
3948.14164,0.05477
3946.21290,0.05473
3944.28415,0.05452
3942.35541,0.05455
3940.42666,0.05461
3938.49792,0.05438
3936.56917,0.05404
3934.64043,0.05398
3932.71168,0.05413
3930.78294,0.05410
3928.85419,0.05387
3926.92545,0.05379
3924.99670,0.05380
3923.06795,0.05369
3921.13921,0.05361
3919.21046,0.05390
3917.28172,0.05458
3915.35297,0.05498
3913.42423,0.05477
3911.49548,0.05440
3909.56674,0.05428
3907.63799,0.05453
3905.70925,0.05494
3903.78050,0.05492
3901.85176,0.05442
3899.92301,0.05408
3897.99427,0.05413
3896.06552,0.05425
3894.13678,0.05407
3892.20803,0.05349
3890.27928,0.05296
3888.35054,0.05311
3886.42179,0.05372
3884.49305,0.05412
3882.56430,0.05429
3880.63556,0.05448
3878.70681,0.05449
3876.77807,0.05421
3874.84932,0.05402
3872.92058,0.05407
3870.99183,0.05407
3869.06309,0.05409
3867.13434,0.05420
3865.20560,0.05415
3863.27685,0.05420
3861.34811,0.05449
3859.41936,0.05463
3857.49061,0.05456
3855.56187,0.05446
3853.63312,0.05426
3851.70438,0.05400
3849.77563,0.05388
3847.84689,0.05398
3845.91814,0.05416
3843.98940,0.05415
3842.06065,0.05402
3840.13191,0.05405
3838.20316,0.05411
3836.27442,0.05401
3834.34567,0.05388
3832.41693,0.05379
3830.48818,0.05366
3828.55943,0.05358
3826.63069,0.05372
3824.70194,0.05402
3822.77320,0.05413
3820.84445,0.05396
3818.91571,0.05367
3816.98696,0.05332
3815.05822,0.05330
3813.12947,0.05370
3811.20073,0.05393
3809.27198,0.05406
3807.34324,0.05432
3805.41449,0.05438
3803.48575,0.05431
3801.55700,0.05434
3799.62826,0.05436
3797.69951,0.05426
3795.77076,0.05427
3793.84202,0.05443
3791.91327,0.05448
3789.98453,0.05427
3788.05578,0.05397
3786.12704,0.05383
3784.19829,0.05400
3782.26955,0.05438
3780.34080,0.05454
3778.41206,0.05433
3776.48331,0.05404
3774.55457,0.05386
3772.62582,0.05397
3770.69708,0.05421
3768.76833,0.05419
3766.83959,0.05388
3764.91084,0.05348
3762.98209,0.05313
3761.05335,0.05304
3759.12460,0.05336
3757.19586,0.05370
3755.26711,0.05372
3753.33837,0.05358
3751.40962,0.05353
3749.48088,0.05367
3747.55213,0.05384
3745.62339,0.05383
3743.69464,0.05350
3741.76590,0.05308
3739.83715,0.05289
3737.90841,0.05282
3735.97966,0.05280
3734.05091,0.05287
3732.12217,0.05299
3730.19342,0.05312
3728.26468,0.05317
3726.33593,0.05302
3724.40719,0.05282
3722.47844,0.05283
3720.54970,0.05295
3718.62095,0.05290
3716.69221,0.05266
3714.76346,0.05247
3712.83472,0.05262
3710.90597,0.05305
3708.97723,0.05327
3707.04848,0.05325
3705.11974,0.05321
3703.19099,0.05305
3701.26224,0.05273
3699.33350,0.05244
3697.40475,0.05241
3695.47601,0.05281
3693.54726,0.05331
3691.61852,0.05349
3689.68977,0.05326
3687.76103,0.05288
3685.83228,0.05290
3683.90354,0.05314
3681.97479,0.05301
3680.04605,0.05273
3678.11730,0.05273
3676.18856,0.05261
3674.25981,0.05222
3672.33107,0.05210
3670.40232,0.05220
3668.47357,0.05226
3666.54483,0.05227
3664.61608,0.05212
3662.68734,0.05189
3660.75859,0.05196
3658.82985,0.05224
3656.90110,0.05224
3654.97236,0.05213
3653.04361,0.05227
3651.11487,0.05240
3649.18612,0.05241
3647.25738,0.05249
3645.32863,0.05275
3643.39989,0.05309
3641.47114,0.05327
3639.54239,0.05309
3637.61365,0.05283
3635.68490,0.05284
3633.75616,0.05315
3631.82741,0.05364
3629.89867,0.05442
3627.96992,0.05558
3626.04118,0.05643
3624.11243,0.05661
3622.18369,0.05631
3620.25494,0.05572
3618.32620,0.05512
3616.39745,0.05478
3614.46871,0.05454
3612.53996,0.05397
3610.61122,0.05312
3608.68247,0.05246
3606.75372,0.05228
3604.82498,0.05254
3602.89623,0.05286
3600.96749,0.05299
3599.03874,0.05305
3597.11000,0.05312
3595.18125,0.05321
3593.25251,0.05325
3591.32376,0.05310
3589.39502,0.05285
3587.46627,0.05254
3585.53753,0.05227
3583.60878,0.05235
3581.68004,0.05259
3579.75129,0.05240
3577.82254,0.05203
3575.89380,0.05204
3573.96505,0.05225
3572.03631,0.05252
3570.10756,0.05300
3568.17882,0.05340
3566.25007,0.05338
3564.32133,0.05323
3562.39258,0.05319
3560.46384,0.05318
3558.53509,0.05321
3556.60635,0.05323
3554.67760,0.05319
3552.74886,0.05322
3550.82011,0.05335
3548.89137,0.05336
3546.96262,0.05338
3545.03387,0.05381
3543.10513,0.05480
3541.17638,0.05630
3539.24764,0.05824
3537.31889,0.06010
3535.39015,0.06161
3533.46140,0.06322
3531.53266,0.06470
3529.60391,0.06520
3527.67517,0.06446
3525.74642,0.06288
3523.81768,0.06116
3521.88893,0.05986
3519.96019,0.05904
3518.03144,0.05853
3516.10270,0.05828
3514.17395,0.05816
3512.24520,0.05791
3510.31646,0.05773
3508.38771,0.05795
3506.45897,0.05838
3504.53022,0.05885
3502.60148,0.05961
3500.67273,0.06068
3498.74399,0.06175
3496.81524,0.06253
3494.88650,0.06308
3492.95775,0.06378
3491.02901,0.06478
3489.10026,0.06588
3487.17152,0.06691
3485.24277,0.06783
3483.31402,0.06872
3481.38528,0.06964
3479.45653,0.07057
3477.52779,0.07138
3475.59904,0.07203
3473.67030,0.07244
3471.74155,0.07264
3469.81281,0.07280
3467.88406,0.07297
3465.95532,0.07304
3464.02657,0.07297
3462.09783,0.07277
3460.16908,0.07245
3458.24034,0.07201
3456.31159,0.07127
3454.38285,0.07016
3452.45410,0.06916
3450.52535,0.06846
3448.59661,0.06769
3446.66786,0.06675
3444.73912,0.06580
3442.81037,0.06478
3440.88163,0.06370
3438.95288,0.06268
3437.02414,0.06167
3435.09539,0.06067
3433.16665,0.05973
3431.23790,0.05873
3429.30916,0.05768
3427.38041,0.05683
3425.45167,0.05607
3423.52292,0.05510
3421.59418,0.05431
3419.66543,0.05401
3417.73668,0.05380
3415.80794,0.05337
3413.87919,0.05281
3411.95045,0.05234
3410.02170,0.05209
3408.09296,0.05218
3406.16421,0.05260
3404.23547,0.05298
3402.30672,0.05298
3400.37798,0.05292
3398.44923,0.05334
3396.52049,0.05413
3394.59174,0.05476
3392.66300,0.05487
3390.73425,0.05440
3388.80550,0.05380
3386.87676,0.05357
3384.94801,0.05377
3383.01927,0.05424
3381.09052,0.05484
3379.16178,0.05546
3377.23303,0.05598
3375.30429,0.05620
3373.37554,0.05599
3371.44680,0.05560
3369.51805,0.05526
3367.58931,0.05489
3365.66056,0.05440
3363.73182,0.05410
3361.80307,0.05431
3359.87433,0.05477
3357.94558,0.05497
3356.01683,0.05480
3354.08809,0.05440
3352.15934,0.05401
3350.23060,0.05378
3348.30185,0.05371
3346.37311,0.05379
3344.44436,0.05392
3342.51562,0.05405
3340.58687,0.05407
3338.65813,0.05404
3336.72938,0.05410
3334.80064,0.05409
3332.87189,0.05394
3330.94315,0.05382
3329.01440,0.05383
3327.08566,0.05384
3325.15691,0.05370
3323.22816,0.05341
3321.29942,0.05310
3319.37067,0.05281
3317.44193,0.05263
3315.51318,0.05271
3313.58444,0.05294
3311.65569,0.05299
3309.72695,0.05286
3307.79820,0.05285
3305.86946,0.05297
3303.94071,0.05305
3302.01197,0.05303
3300.08322,0.05280
3298.15448,0.05260
3296.22573,0.05286
3294.29698,0.05344
3292.36824,0.05376
3290.43949,0.05358
3288.51075,0.05318
3286.58200,0.05288
3284.65326,0.05266
3282.72451,0.05244
3280.79577,0.05237
3278.86702,0.05260
3276.93828,0.05282
3275.00953,0.05268
3273.08079,0.05239
3271.15204,0.05216
3269.22330,0.05195
3267.29455,0.05192
3265.36581,0.05217
3263.43706,0.05242
3261.50831,0.05248
3259.57957,0.05256
3257.65082,0.05277
3255.72208,0.05275
3253.79333,0.05229
3251.86459,0.05184
3249.93584,0.05193
3248.00710,0.05227
3246.07835,0.05236
3244.14961,0.05235
3242.22086,0.05260
3240.29212,0.05300
3238.36337,0.05327
3236.43463,0.05339
3234.50588,0.05327
3232.57713,0.05292
3230.64839,0.05251
3228.71964,0.05201
3226.79090,0.05157
3224.86215,0.05165
3222.93341,0.05214
3221.00466,0.05247
3219.07592,0.05267
3217.14717,0.05305
3215.21843,0.05333
3213.28968,0.05324
3211.36094,0.05288
3209.43219,0.05254
3207.50345,0.05256
3205.57470,0.05280
3203.64596,0.05291
3201.71721,0.05300
3199.78846,0.05318
3197.85972,0.05323
3195.93097,0.05322
3194.00223,0.05332
3192.07348,0.05343
3190.14474,0.05328
3188.21599,0.05281
3186.28725,0.05260
3184.35850,0.05289
3182.42976,0.05317
3180.50101,0.05318
3178.57227,0.05295
3176.64352,0.05268
3174.71478,0.05270
3172.78603,0.05298
3170.85729,0.05322
3168.92854,0.05333
3166.99979,0.05335
3165.07105,0.05338
3163.14230,0.05358
3161.21356,0.05385
3159.28481,0.05394
3157.35607,0.05374
3155.42732,0.05337
3153.49858,0.05319
3151.56983,0.05336
3149.64109,0.05337
3147.71234,0.05296
3145.78360,0.05265
3143.85485,0.05270
3141.92611,0.05294
3139.99736,0.05328
3138.06861,0.05358
3136.13987,0.05363
3134.21112,0.05336
3132.28238,0.05317
3130.35363,0.05328
3128.42489,0.05334
3126.49614,0.05314
3124.56740,0.05294
3122.63865,0.05289
3120.70991,0.05296
3118.78116,0.05307
3116.85242,0.05323
3114.92367,0.05334
3112.99493,0.05324
3111.06618,0.05298
3109.13744,0.05278
3107.20869,0.05283
3105.27994,0.05310
3103.35120,0.05328
3101.42245,0.05313
3099.49371,0.05281
3097.56496,0.05268
3095.63622,0.05267
3093.70747,0.05253
3091.77873,0.05246
3089.84998,0.05258
3087.92124,0.05269
3085.99249,0.05278
3084.06375,0.05281
3082.13500,0.05269
3080.20626,0.05254
3078.27751,0.05259
3076.34877,0.05274
3074.42002,0.05262
3072.49127,0.05230
3070.56253,0.05222
3068.63378,0.05237
3066.70504,0.05237
3064.77629,0.05219
3062.84755,0.05201
3060.91880,0.05190
3058.99006,0.05182
3057.06131,0.05168
3055.13257,0.05142
3053.20382,0.05106
3051.27508,0.05084
3049.34633,0.05079
3047.41759,0.05066
3045.48884,0.05041
3043.56009,0.05021
3041.63135,0.04997
3039.70260,0.04949
3037.77386,0.04903
3035.84511,0.04890
3033.91637,0.04884
3031.98762,0.04856
3030.05888,0.04839
3028.13013,0.04859
3026.20139,0.04891
3024.27264,0.04901
3022.34390,0.04891
3020.41515,0.04874
3018.48641,0.04841
3016.55766,0.04797
3014.62892,0.04780
3012.70017,0.04791
3010.77142,0.04807
3008.84268,0.04825
3006.91393,0.04848
3004.98519,0.04859
3003.05644,0.04842
3001.12770,0.04825
2999.19895,0.04836
2997.27021,0.04856
2995.34146,0.04873
2993.41272,0.04886
2991.48397,0.04891
2989.55523,0.04899
2987.62648,0.04927
2985.69774,0.04955
2983.76899,0.04960
2981.84025,0.04957
2979.91150,0.04964
2977.98275,0.04966
2976.05401,0.04954
2974.12526,0.04939
2972.19652,0.04922
2970.26777,0.04894
2968.33903,0.04861
2966.41028,0.04831
2964.48154,0.04807
2962.55279,0.04803
2960.62405,0.04816
2958.69530,0.04837
2956.76656,0.04862
2954.83781,0.04878
2952.90907,0.04899
2950.98032,0.04955
2949.05157,0.05018
2947.12283,0.05068
2945.19408,0.05128
2943.26534,0.05183
2941.33659,0.05208
2939.40785,0.05226
2937.47910,0.05253
2935.55036,0.05256
2933.62161,0.05248
2931.69287,0.05269
2929.76412,0.05313
2927.83538,0.05341
2925.90663,0.05328
2923.97789,0.05301
2922.04914,0.05320
2920.12040,0.05380
2918.19165,0.05430
2916.26290,0.05450
2914.33416,0.05446
2912.40541,0.05419
2910.47667,0.05381
2908.54792,0.05358
2906.61918,0.05365
2904.69043,0.05361
2902.76169,0.05323
2900.83294,0.05299
2898.90420,0.05305
2896.97545,0.05308
2895.04671,0.05296
2893.11796,0.05290
2891.18922,0.05306
2889.26047,0.05344
2887.33172,0.05372
2885.40298,0.05364
2883.47423,0.05339
2881.54549,0.05311
2879.61674,0.05281
2877.68800,0.05266
2875.75925,0.05261
2873.83051,0.05259
2871.90176,0.05268
2869.97302,0.05280
2868.04427,0.05287
2866.11553,0.05297
2864.18678,0.05316
2862.25804,0.05337
2860.32929,0.05339
2858.40055,0.05332
2856.47180,0.05350
2854.54305,0.05377
2852.61431,0.05382
2850.68556,0.05373
2848.75682,0.05365
2846.82807,0.05358
2844.89933,0.05345
2842.97058,0.05329
2841.04184,0.05335
2839.11309,0.05354
2837.18435,0.05357
2835.25560,0.05347
2833.32686,0.05343
2831.39811,0.05351
2829.46937,0.05358
2827.54062,0.05349
2825.61188,0.05339
2823.68313,0.05345
2821.75438,0.05364
2819.82564,0.05384
2817.89689,0.05396
2815.96815,0.05390
2814.03940,0.05370
2812.11066,0.05359
2810.18191,0.05375
2808.25317,0.05407
2806.32442,0.05428
2804.39568,0.05442
2802.46693,0.05460
2800.53819,0.05466
2798.60944,0.05455
2796.68070,0.05459
2794.75195,0.05485
2792.82320,0.05498
2790.89446,0.05484
2788.96571,0.05474
2787.03697,0.05470
2785.10822,0.05458
2783.17948,0.05456
2781.25073,0.05459
2779.32199,0.05458
2777.39324,0.05467
2775.46450,0.05466
2773.53575,0.05455
2771.60701,0.05459
2769.67826,0.05464
2767.74952,0.05460
2765.82077,0.05451
2763.89203,0.05435
2761.96328,0.05426
2760.03453,0.05435
2758.10579,0.05448
2756.17704,0.05460
2754.24830,0.05469
2752.31955,0.05471
2750.39081,0.05472
2748.46206,0.05477
2746.53332,0.05491
2744.60457,0.05502
2742.67583,0.05500
2740.74708,0.05508
2738.81834,0.05528
2736.88959,0.05531
2734.96085,0.05513
2733.03210,0.05490
2731.10336,0.05473
2729.17461,0.05473
2727.24586,0.05490
2725.31712,0.05520
2723.38837,0.05548
2721.45963,0.05565
2719.53088,0.05565
2717.60214,0.05551
2715.67339,0.05536
2713.74465,0.05514
2711.81590,0.05491
2709.88716,0.05489
2707.95841,0.05506
2706.02967,0.05514
2704.10092,0.05504
2702.17218,0.05490
2700.24343,0.05495
2698.31468,0.05514
2696.38594,0.05515
2694.45719,0.05495
2692.52845,0.05486
2690.59970,0.05490
2688.67096,0.05486
2686.74221,0.05479
2684.81347,0.05488
2682.88472,0.05504
2680.95598,0.05505
2679.02723,0.05506
2677.09849,0.05518
2675.16974,0.05526
2673.24100,0.05520
2671.31225,0.05500
2669.38351,0.05469
2667.45476,0.05445
2665.52601,0.05448
2663.59727,0.05475
2661.66852,0.05502
2659.73978,0.05505
2657.81103,0.05476
2655.88229,0.05450
2653.95354,0.05461
2652.02480,0.05467
2650.09605,0.05432
2648.16731,0.05396
2646.23856,0.05402
2644.30982,0.05428
2642.38107,0.05433
2640.45233,0.05424
2638.52358,0.05419
2636.59484,0.05414
2634.66609,0.05407
2632.73734,0.05407
2630.80860,0.05421
2628.87985,0.05442
2626.95111,0.05449
2625.02236,0.05436
2623.09362,0.05425
2621.16487,0.05427
2619.23613,0.05422
2617.30738,0.05400
2615.37864,0.05381
2613.44989,0.05381
2611.52115,0.05395
2609.59240,0.05407
2607.66366,0.05401
2605.73491,0.05378
2603.80616,0.05348
2601.87742,0.05320
2599.94867,0.05315
2598.01993,0.05334
2596.09118,0.05349
2594.16244,0.05352
2592.23369,0.05353
2590.30495,0.05349
2588.37620,0.05340
2586.44746,0.05345
2584.51871,0.05369
2582.58997,0.05388
2580.66122,0.05380
2578.73248,0.05356
2576.80373,0.05342
2574.87499,0.05343
2572.94624,0.05358
2571.01749,0.05375
2569.08875,0.05381
2567.16000,0.05375
2565.23126,0.05358
2563.30251,0.05343
2561.37377,0.05343
2559.44502,0.05349
2557.51628,0.05360
2555.58753,0.05369
2553.65879,0.05357
2551.73004,0.05331
2549.80130,0.05325
2547.87255,0.05339
2545.94381,0.05352
2544.01506,0.05354
2542.08631,0.05341
2540.15757,0.05318
2538.22882,0.05304
2536.30008,0.05314
2534.37133,0.05347
2532.44259,0.05380
2530.51384,0.05382
2528.58510,0.05364
2526.65635,0.05358
2524.72761,0.05357
2522.79886,0.05346
2520.87012,0.05328
2518.94137,0.05319
2517.01263,0.05337
2515.08388,0.05370
2513.15514,0.05391
2511.22639,0.05394
2509.29764,0.05381
2507.36890,0.05352
2505.44015,0.05335
2503.51141,0.05350
2501.58266,0.05365
2499.65392,0.05359
2497.72517,0.05355
2495.79643,0.05366
2493.86768,0.05371
2491.93894,0.05364
2490.01019,0.05357
2488.08145,0.05355
2486.15270,0.05358
2484.22396,0.05354
2482.29521,0.05341
2480.36647,0.05341
2478.43772,0.05355
2476.50897,0.05366
2474.58023,0.05377
2472.65148,0.05386
2470.72274,0.05371
2468.79399,0.05334
2466.86525,0.05313
2464.93650,0.05319
2463.00776,0.05322
2461.07901,0.05304
2459.15027,0.05285
2457.22152,0.05286
2455.29278,0.05316
2453.36403,0.05344
2451.43529,0.05345
2449.50654,0.05340
2447.57779,0.05342
2445.64905,0.05327
2443.72030,0.05296
2441.79156,0.05274
2439.86281,0.05264
2437.93407,0.05249
2436.00532,0.05239
2434.07658,0.05252
2432.14783,0.05270
2430.21909,0.05272
2428.29034,0.05256
2426.36160,0.05235
2424.43285,0.05232
2422.50411,0.05241
2420.57536,0.05245
2418.64662,0.05245
2416.71787,0.05251
2414.78912,0.05254
2412.86038,0.05249
2410.93163,0.05247
2409.00289,0.05256
2407.07414,0.05263
2405.14540,0.05254
2403.21665,0.05236
2401.28791,0.05225
2399.35916,0.05226
2397.43042,0.05231
2395.50167,0.05227
2393.57293,0.05213
2391.64418,0.05202
2389.71544,0.05203
2387.78669,0.05211
2385.85795,0.05224
2383.92920,0.05230
2382.00045,0.05230
2380.07171,0.05236
2378.14296,0.05237
2376.21422,0.05229
2374.28547,0.05234
2372.35673,0.05255
2370.42798,0.05265
2368.49924,0.05241
2366.57049,0.05211
2364.64175,0.05216
2362.71300,0.05232
2360.78426,0.05216
2358.85551,0.05193
2356.92677,0.05202
2354.99802,0.05218
2353.06927,0.05224
2351.14053,0.05231
2349.21178,0.05235
2347.28304,0.05226
2345.35429,0.05207
2343.42555,0.05198
2341.49680,0.05202
2339.56806,0.05209
2337.63931,0.05202
2335.71057,0.05181
2333.78182,0.05168
2331.85308,0.05175
2329.92433,0.05187
2327.99559,0.05194
2326.06684,0.05201
2324.13810,0.05209
2322.20935,0.05209
2320.28060,0.05195
2318.35186,0.05176
2316.42311,0.05176
2314.49437,0.05189
2312.56562,0.05187
2310.63688,0.05170
2308.70813,0.05156
2306.77939,0.05142
2304.85064,0.05132
2302.92190,0.05136
2300.99315,0.05148
2299.06441,0.05162
2297.13566,0.05168
2295.20692,0.05161
2293.27817,0.05156
2291.34943,0.05159
2289.42068,0.05169
2287.49193,0.05179
2285.56319,0.05174
2283.63444,0.05149
2281.70570,0.05129
2279.77695,0.05128
2277.84821,0.05141
2275.91946,0.05155
2273.99072,0.05157
2272.06197,0.05150
2270.13323,0.05148
2268.20448,0.05146
2266.27574,0.05134
2264.34699,0.05118
2262.41825,0.05108
2260.48950,0.05106
2258.56075,0.05127
2256.63201,0.05160
2254.70326,0.05169
2252.77452,0.05155
2250.84577,0.05142
2248.91703,0.05139
2246.98828,0.05144
2245.05954,0.05152
2243.13079,0.05146
2241.20205,0.05126
2239.27330,0.05112
2237.34456,0.05115
2235.41581,0.05126
2233.48707,0.05128
2231.55832,0.05121
2229.62958,0.05116
2227.70083,0.05107
2225.77208,0.05094
2223.84334,0.05081
2221.91459,0.05070
2219.98585,0.05074
2218.05710,0.05088
2216.12836,0.05090
2214.19961,0.05080
2212.27087,0.05075
2210.34212,0.05079
2208.41338,0.05086
2206.48463,0.05087
2204.55589,0.05079
2202.62714,0.05069
2200.69840,0.05054
2198.76965,0.05037
2196.84090,0.05025
2194.91216,0.05016
2192.98341,0.05021
2191.05467,0.05038
2189.12592,0.05038
2187.19718,0.05029
2185.26843,0.05025
2183.33969,0.05024
2181.41094,0.05030
2179.48220,0.05033
2177.55345,0.05012
2175.62471,0.04985
2173.69596,0.04982
2171.76722,0.05008
2169.83847,0.05037
2167.90973,0.05037
2165.98098,0.05013
2164.05223,0.04984
2162.12349,0.04965
2160.19474,0.04963
2158.26600,0.04977
2156.33725,0.04989
2154.40851,0.04986
2152.47976,0.04985
2150.55102,0.04994
2148.62227,0.04991
2146.69353,0.04981
2144.76478,0.04981
2142.83604,0.04994
2140.90729,0.05000
2138.97855,0.04987
2137.04980,0.04968
2135.12106,0.04956
2133.19231,0.04956
2131.26356,0.04954
2129.33482,0.04942
2127.40607,0.04937
2125.47733,0.04947
2123.54858,0.04952
2121.61984,0.04951
2119.69109,0.04962
2117.76235,0.04983
2115.83360,0.04984
2113.90486,0.04961
2111.97611,0.04943
2110.04737,0.04948
2108.11862,0.04962
2106.18988,0.04968
2104.26113,0.04969
2102.33238,0.04962
2100.40364,0.04946
2098.47489,0.04932
2096.54615,0.04926
2094.61740,0.04926
2092.68866,0.04931
2090.75991,0.04936
2088.83117,0.04937
2086.90242,0.04931
2084.97368,0.04926
2083.04493,0.04933
2081.11619,0.04943
2079.18744,0.04941
2077.25870,0.04940
2075.32995,0.04941
2073.40121,0.04930
2071.47246,0.04917
2069.54371,0.04917
2067.61497,0.04921
2065.68622,0.04921
2063.75748,0.04918
2061.82873,0.04910
2059.89999,0.04897
2057.97124,0.04885
2056.04250,0.04886
2054.11375,0.04899
2052.18501,0.04911
2050.25626,0.04924
2048.32752,0.04931
2046.39877,0.04928
2044.47003,0.04925
2042.54128,0.04932
2040.61254,0.04935
2038.68379,0.04924
2036.75504,0.04914
2034.82630,0.04920
2032.89755,0.04935
2030.96881,0.04941
2029.04006,0.04927
2027.11132,0.04915
2025.18257,0.04912
2023.25383,0.04902
2021.32508,0.04889
2019.39634,0.04899
2017.46759,0.04930
2015.53885,0.04944
2013.61010,0.04926
2011.68136,0.04903
2009.75261,0.04894
2007.82386,0.04887
2005.89512,0.04882
2003.96637,0.04883
2002.03763,0.04882
2000.10888,0.04877
1998.18014,0.04883
1996.25139,0.04897
1994.32265,0.04896
1992.39390,0.04884
1990.46516,0.04882
1988.53641,0.04891
1986.60767,0.04891
1984.67892,0.04880
1982.75018,0.04872
1980.82143,0.04867
1978.89269,0.04862
1976.96394,0.04869
1975.03519,0.04876
1973.10645,0.04866
1971.17770,0.04846
1969.24896,0.04841
1967.32021,0.04856
1965.39147,0.04869
1963.46272,0.04865
1961.53398,0.04862
1959.60523,0.04874
1957.67649,0.04885
1955.74774,0.04869
1953.81900,0.04844
1951.89025,0.04838
1949.96151,0.04848
1948.03276,0.04848
1946.10402,0.04831
1944.17527,0.04810
1942.24652,0.04800
1940.31778,0.04807
1938.38903,0.04821
1936.46029,0.04827
1934.53154,0.04823
1932.60280,0.04820
1930.67405,0.04827
1928.74531,0.04837
1926.81656,0.04849
1924.88782,0.04856
1922.95907,0.04841
1921.03033,0.04810
1919.10158,0.04787
1917.17284,0.04785
1915.24409,0.04790
1913.31534,0.04785
1911.38660,0.04780
1909.45785,0.04779
1907.52911,0.04785
1905.60036,0.04797
1903.67162,0.04800
1901.74287,0.04790
1899.81413,0.04783
1897.88538,0.04780
1895.95664,0.04779
1894.02789,0.04769
1892.09915,0.04754
1890.17040,0.04745
1888.24166,0.04746
1886.31291,0.04752
1884.38417,0.04748
1882.45542,0.04724
1880.52667,0.04718
1878.59793,0.04737
1876.66918,0.04742
1874.74044,0.04726
1872.81169,0.04711
1870.88295,0.04705
1868.95420,0.04702
1867.02546,0.04698
1865.09671,0.04699
1863.16797,0.04685
1861.23922,0.04649
1859.31048,0.04628
1857.38173,0.04636
1855.45299,0.04645
1853.52424,0.04640
1851.59549,0.04619
1849.66675,0.04600
1847.73800,0.04601
1845.80926,0.04608
1843.88051,0.04603
1841.95177,0.04592
1840.02302,0.04590
1838.09428,0.04592
1836.16553,0.04586
1834.23679,0.04574
1832.30804,0.04563
1830.37930,0.04547
1828.45055,0.04533
1826.52181,0.04523
1824.59306,0.04498
1822.66432,0.04465
1820.73557,0.04458
1818.80682,0.04466
1816.87808,0.04454
1814.94933,0.04421
1813.02059,0.04396
1811.09184,0.04392
1809.16310,0.04400
1807.23435,0.04401
1805.30561,0.04394
1803.37686,0.04387
1801.44812,0.04365
1799.51937,0.04325
1797.59063,0.04294
1795.66188,0.04272
1793.73314,0.04238
1791.80439,0.04211
1789.87565,0.04216
1787.94690,0.04228
1786.01815,0.04208
1784.08941,0.04163
1782.16066,0.04116
1780.23192,0.04065
1778.30317,0.04012
1776.37443,0.03971
1774.44568,0.03936
1772.51694,0.03880
1770.58819,0.03804
1768.65945,0.03740
1766.73070,0.03696
1764.80196,0.03651
1762.87321,0.03563
1760.94447,0.03423
1759.01572,0.03278
1757.08697,0.03149
1755.15823,0.03020
1753.22948,0.02866
1751.30074,0.02674
1749.37199,0.02510
1747.44325,0.02449
1745.51450,0.02520
1743.58576,0.02757
1741.65701,0.03176
1739.72827,0.03749
1737.79952,0.04363
1735.87078,0.04981
1733.94203,0.05700
1732.01329,0.06401
1730.08454,0.06975
1728.15580,0.07470
1726.22705,0.07854
1724.29830,0.08108
1722.36956,0.08230
1720.44081,0.08223
1718.51207,0.08082
1716.58332,0.07823
1714.65458,0.07535
1712.72583,0.07275
1710.79709,0.07047
1708.86834,0.06847
1706.93960,0.06654
1705.01085,0.06468
1703.08211,0.06334
1701.15336,0.06228
1699.22462,0.06095
1697.29587,0.05966
1695.36713,0.05875
1693.43838,0.05829
1691.50963,0.05790
1689.58089,0.05738
1687.65214,0.05698
1685.72340,0.05664
1683.79465,0.05623
1681.86591,0.05608
1679.93716,0.05606
1678.00842,0.05584
1676.07967,0.05549
1674.15093,0.05527
1672.22218,0.05511
1670.29344,0.05482
1668.36469,0.05450
1666.43595,0.05428
1664.50720,0.05413
1662.57845,0.05401
1660.64971,0.05393
1658.72096,0.05384
1656.79222,0.05371
1654.86347,0.05355
1652.93473,0.05327
1651.00598,0.05303
1649.07724,0.05301
1647.14849,0.05294
1645.21975,0.05266
1643.29100,0.05235
1641.36226,0.05225
1639.43351,0.05241
1637.50477,0.05262
1635.57602,0.05262
1633.64728,0.05245
1631.71853,0.05230
1629.78978,0.05211
1627.86104,0.05191
1625.93229,0.05190
1624.00355,0.05196
1622.07480,0.05188
1620.14606,0.05173
1618.21731,0.05158
1616.28857,0.05139
1614.35982,0.05122
1612.43108,0.05110
1610.50233,0.05102
1608.57359,0.05102
1606.64484,0.05106
1604.71610,0.05103
1602.78735,0.05095
1600.85861,0.05097
1598.92986,0.05103
1597.00111,0.05098
1595.07237,0.05084
1593.14362,0.05075
1591.21488,0.05072
1589.28613,0.05063
1587.35739,0.05037
1585.42864,0.05010
1583.49990,0.04996
1581.57115,0.04980
1579.64241,0.04966
1577.71366,0.04962
1575.78492,0.04962
1573.85617,0.04971
1571.92743,0.04986
1569.99868,0.04985
1568.06993,0.04959
1566.14119,0.04930
1564.21244,0.04916
1562.28370,0.04916
1560.35495,0.04907
1558.42621,0.04874
1556.49746,0.04840
1554.56872,0.04817
1552.63997,0.04806
1550.71123,0.04809
1548.78248,0.04817
1546.85374,0.04818
1544.92499,0.04809
1542.99625,0.04792
1541.06750,0.04774
1539.13876,0.04763
1537.21001,0.04755
1535.28126,0.04743
1533.35252,0.04729
1531.42377,0.04722
1529.49503,0.04714
1527.56628,0.04699
1525.63754,0.04675
1523.70879,0.04647
1521.78005,0.04620
1519.85130,0.04602
1517.92256,0.04587
1515.99381,0.04558
1514.06507,0.04525
1512.13632,0.04512
1510.20758,0.04518
1508.27883,0.04514
1506.35008,0.04469
1504.42134,0.04405
1502.49259,0.04353
1500.56385,0.04308
1498.63510,0.04262
1496.70636,0.04196
1494.77761,0.04127
1492.84887,0.04095
1490.92012,0.04101
1488.99138,0.04127
1487.06263,0.04186
1485.13389,0.04289
1483.20514,0.04401
1481.27640,0.04472
1479.34765,0.04504
1477.41891,0.04538
1475.49016,0.04579
1473.56141,0.04601
1471.63267,0.04600
1469.70392,0.04575
1467.77518,0.04543
1465.84643,0.04525
1463.91769,0.04522
1461.98894,0.04521
1460.06020,0.04526
1458.13145,0.04543
1456.20271,0.04558
1454.27396,0.04581
1452.34522,0.04649
1450.41647,0.04757
1448.48773,0.04855
1446.55898,0.04916
1444.63024,0.04963
1442.70149,0.05008
1440.77274,0.05049
1438.84400,0.05102
1436.91525,0.05196
1434.98651,0.05342
1433.05776,0.05492
1431.12902,0.05593
1429.20027,0.05627
1427.27153,0.05610
1425.34278,0.05562
1423.41404,0.05501
1421.48529,0.05441
1419.55655,0.05375
1417.62780,0.05305
1415.69906,0.05238
1413.77031,0.05171
1411.84156,0.05095
1409.91282,0.05019
1407.98407,0.04967
1406.05533,0.04932
1404.12658,0.04891
1402.19784,0.04853
1400.26909,0.04833
1398.34035,0.04815
1396.41160,0.04799
1394.48286,0.04796
1392.55411,0.04806
1390.62537,0.04832
1388.69662,0.04877
1386.76788,0.04925
1384.83913,0.04957
1382.91039,0.04982
1380.98164,0.05009
1379.05289,0.05026
1377.12415,0.05014
1375.19540,0.04989
1373.26666,0.04971
1371.33791,0.04954
1369.40917,0.04927
1367.48042,0.04891
1365.55168,0.04867
1363.62293,0.04876
1361.69419,0.04895
1359.76544,0.04888
1357.83670,0.04867
1355.90795,0.04857
1353.97921,0.04841
1352.05046,0.04802
1350.12172,0.04765
1348.19297,0.04762
1346.26422,0.04770
1344.33548,0.04755
1342.40673,0.04723
1340.47799,0.04695
1338.54924,0.04664
1336.62050,0.04623
1334.69175,0.04593
1332.76301,0.04588
1330.83426,0.04589
1328.90552,0.04570
1326.97677,0.04520
1325.04803,0.04471
1323.11928,0.04449
1321.19054,0.04438
1319.26179,0.04426
1317.33304,0.04411
1315.40430,0.04383
1313.47555,0.04348
1311.54681,0.04320
1309.61806,0.04292
1307.68932,0.04255
1305.76057,0.04218
1303.83183,0.04185
1301.90308,0.04145
1299.97434,0.04097
1298.04559,0.04045
1296.11685,0.03989
1294.18810,0.03935
1292.25936,0.03888
1290.33061,0.03842
1288.40187,0.03793
1286.47312,0.03745
1284.54437,0.03696
1282.61563,0.03657
1280.68688,0.03641
1278.75814,0.03661
1276.82939,0.03733
1274.90065,0.03851
1272.97190,0.03985
1271.04316,0.04118
1269.11441,0.04251
1267.18567,0.04369
1265.25692,0.04445
1263.32818,0.04463
1261.39943,0.04430
1259.47069,0.04380
1257.54194,0.04338
1255.61320,0.04303
1253.68445,0.04268
1251.75570,0.04251
1249.82696,0.04283
1247.89821,0.04365
1245.96947,0.04490
1244.04072,0.04641
1242.11198,0.04794
1240.18323,0.04938
1238.25449,0.05072
1236.32574,0.05177
1234.39700,0.05228
1232.46825,0.05235
1230.53951,0.05221
1228.61076,0.05180
1226.68202,0.05104
1224.75327,0.05006
1222.82452,0.04896
1220.89578,0.04776
1218.96703,0.04644
1217.03829,0.04502
1215.10954,0.04347
1213.18080,0.04182
1211.25205,0.04020
1209.32331,0.03874
1207.39456,0.03760
1205.46582,0.03700
1203.53707,0.03723
1201.60833,0.03831
1199.67958,0.04001
1197.75084,0.04219
1195.82209,0.04478
1193.89335,0.04760
1191.96460,0.05025
1190.03585,0.05227
1188.10711,0.05341
1186.17836,0.05363
1184.24962,0.05311
1182.32087,0.05235
1180.39213,0.05189
1178.46338,0.05169
1176.53464,0.05157
1174.60589,0.05156
1172.67715,0.05170
1170.74840,0.05192
1168.81966,0.05202
1166.89091,0.05205
1164.96217,0.05225
1163.03342,0.05264
1161.10467,0.05305
1159.17593,0.05380
1157.24718,0.05554
1155.31844,0.05868
1153.38969,0.06330
1151.46095,0.06901
1149.53220,0.07499
1147.60346,0.08018
1145.67471,0.08398
1143.74597,0.08635
1141.81722,0.08743
1139.88848,0.08757
1137.95973,0.08713
1136.03099,0.08626
1134.10224,0.08506
1132.17350,0.08366
1130.24475,0.08213
1128.31600,0.08074
1126.38726,0.07970
1124.45851,0.07889
1122.52977,0.07816
1120.60102,0.07743
1118.67228,0.07686
1116.74353,0.07659
1114.81479,0.07633
1112.88604,0.07575
1110.95730,0.07497
1109.02855,0.07438
1107.09981,0.07419
1105.17106,0.07409
1103.24232,0.07384
1101.31357,0.07361
1099.38483,0.07340
1097.45608,0.07318
1095.52733,0.07313
1093.59859,0.07333
1091.66984,0.07344
1089.74110,0.07327
1087.81235,0.07294
1085.88361,0.07268
1083.95486,0.07274
1082.02612,0.07299
1080.09737,0.07313
1078.16863,0.07309
1076.23988,0.07300
1074.31114,0.07290
1072.38239,0.07263
1070.45365,0.07231
1068.52490,0.07226
1066.59615,0.07241
1064.66741,0.07265
1062.73866,0.07308
1060.80992,0.07386
1058.88117,0.07531
1056.95243,0.07749
1055.02368,0.07992
1053.09494,0.08213
1051.16619,0.08403
1049.23745,0.08544
1047.30870,0.08622
1045.37996,0.08672
1043.45121,0.08702
1041.52247,0.08686
1039.59372,0.08632
1037.66498,0.08549
1035.73623,0.08452
1033.80748,0.08373
1031.87874,0.08307
1029.94999,0.08221
1028.02125,0.08112
1026.09250,0.07985
1024.16376,0.07839
1022.23501,0.07695
1020.30627,0.07549
1018.37752,0.07387
1016.44878,0.07216
1014.52003,0.07016
1012.59129,0.06783
1010.66254,0.06550
1008.73380,0.06331
1006.80505,0.06139
1004.87631,0.05991
1002.94756,0.05873
1001.01881,0.05769
999.09007,0.05702
997.16132,0.05692
995.23258,0.05717
993.30383,0.05755
991.37509,0.05822
989.44634,0.05907
987.51760,0.05993
985.58885,0.06077
983.66011,0.06138
981.73136,0.06164
979.80262,0.06171
977.87387,0.06174
975.94513,0.06171
974.01638,0.06166
972.08763,0.06160
970.15889,0.06155
968.23014,0.06170
966.30140,0.06210
964.37265,0.06262
962.44391,0.06322
960.51516,0.06386
958.58642,0.06441
956.65767,0.06464
954.72893,0.06438
952.80018,0.06386
950.87144,0.06345
948.94269,0.06323
947.01395,0.06313
945.08520,0.06312
943.15646,0.06318
941.22771,0.06316
939.29896,0.06282
937.37022,0.06233
935.44147,0.06212
933.51273,0.06214
931.58398,0.06194
929.65524,0.06168
927.72649,0.06171
925.79775,0.06173
923.86900,0.06157
921.94026,0.06157
920.01151,0.06170
918.08277,0.06164
916.15402,0.06141
914.22528,0.06125
912.29653,0.06125
910.36779,0.06136
908.43904,0.06155
906.51029,0.06164
904.58155,0.06162
902.65280,0.06171
900.72406,0.06197
898.79531,0.06219
896.86657,0.06243
894.93782,0.06285
893.00908,0.06328
891.08033,0.06362
889.15159,0.06416
887.22284,0.06488
885.29410,0.06530
883.36535,0.06542
881.43661,0.06551
879.50786,0.06546
877.57911,0.06537
875.65037,0.06555
873.72162,0.06581
871.79288,0.06579
869.86413,0.06558
867.93539,0.06561
866.00664,0.06573
864.07790,0.06533
862.14915,0.06449
860.22041,0.06393
858.29166,0.06378
856.36292,0.06365
854.43417,0.06333
852.50543,0.06295
850.57668,0.06258
848.64794,0.06224
846.71919,0.06188
844.79044,0.06169
842.86170,0.06215
840.93295,0.06325
839.00421,0.06448
837.07546,0.06582
835.14672,0.06705
833.21797,0.06756
831.28923,0.06740
829.36048,0.06711
827.43174,0.06721
825.50299,0.06803
823.57425,0.06925
821.64550,0.07027
819.71676,0.07108
817.78801,0.07165
815.85926,0.07166
813.93052,0.07114
812.00177,0.07057
810.07303,0.07045
808.14428,0.07092
806.21554,0.07162
804.28679,0.07222
802.35805,0.07279
800.42930,0.07337
798.50056,0.07349
796.57181,0.07291
794.64307,0.07226
792.71432,0.07192
790.78558,0.07169
788.85683,0.07122
786.92809,0.07028
784.99934,0.06923
783.07059,0.06853
781.14185,0.06796
779.21310,0.06741
777.28436,0.06708
775.35561,0.06688
773.42687,0.06668
771.49812,0.06636
769.56938,0.06574
767.64063,0.06488
765.71189,0.06404
763.78314,0.06348
761.85440,0.06324
759.92565,0.06293
757.99691,0.06225
756.06816,0.06154
754.13942,0.06144
752.21067,0.06238
750.28192,0.06422
748.35318,0.06627
746.42443,0.06814
744.49569,0.06967
742.56694,0.07067
740.63820,0.07101
738.70945,0.07061
736.78071,0.06992
734.85196,0.06958
732.92322,0.06947
730.99447,0.06930
729.06573,0.06909
727.13698,0.06880
725.20824,0.06845
723.27949,0.06798
721.35074,0.06713
719.42200,0.06607
717.49325,0.06533
715.56451,0.06486
713.63576,0.06450
711.70702,0.06440
709.77827,0.06440
707.84953,0.06421
705.92078,0.06402
703.99204,0.06416
702.06329,0.06433
700.13455,0.06427
698.20580,0.06401
696.27706,0.06367
694.34831,0.06360
692.41957,0.06394
690.49082,0.06419
688.56207,0.06419
686.63333,0.06438
684.70458,0.06487
682.77584,0.06542
680.84709,0.06607
678.91835,0.06686
676.98960,0.06739
675.06086,0.06719
673.13211,0.06661
671.20337,0.06633
669.27462,0.06658
667.34588,0.06720
665.41713,0.06763
663.48839,0.06745
661.55964,0.06674
659.63090,0.06563
657.70215,0.06464
655.77340,0.06420
653.84466,0.06393
651.91591,0.06385
649.98717,0.06455
648.05842,0.06532
646.12968,0.06523
644.20093,0.06458
642.27219,0.06391
640.34344,0.06356
638.41470,0.06370
636.48595,0.06416
634.55721,0.06459
632.62846,0.06490
630.69972,0.06556
628.77097,0.06652
626.84222,0.06705
624.91348,0.06676
622.98473,0.06637
621.05599,0.06689
619.12724,0.06778
617.19850,0.06780
615.26975,0.06695
613.34101,0.06637
611.41226,0.06682
609.48352,0.06729
607.55477,0.06705
605.62603,0.06705
603.69728,0.06802
601.76854,0.06965
599.83979,0.07096
