7496.92628,0.08754
7494.99756,0.09180
7493.06885,0.10336
7491.14013,0.10994
7489.21141,0.10879
7487.28269,0.10126
7485.35397,0.09086
7483.42526,0.08607
7481.49654,0.08543
7479.56782,0.08117
7477.63910,0.07661
7475.71039,0.08272
7473.78167,0.09584
7471.85295,0.10248
7469.92423,0.10002
7467.99551,0.09679
7466.06680,0.09682
7464.13808,0.09623
7462.20936,0.09306
7460.28064,0.08940
7458.35192,0.08788
7456.42321,0.09030
7454.49449,0.09471
7452.56577,0.09828
7450.63705,0.09649
7448.70834,0.08866
7446.77962,0.08369
7444.85090,0.08686
7442.92218,0.09289
7440.99346,0.10050
7439.06475,0.10834
7437.13603,0.10973
7435.20731,0.10453
7433.27859,0.09896
7431.34987,0.09659
7429.42116,0.09661
7427.49244,0.09470
7425.56372,0.09313
7423.63500,0.09571
7421.70629,0.09881
7419.77757,0.09935
7417.84885,0.09995
7415.92013,0.10030
7413.99141,0.10066
7412.06270,0.09774
7410.13398,0.08926
7408.20526,0.08256
7406.27654,0.08400
7404.34782,0.09044
7402.41911,0.09377
7400.49039,0.09166
7398.56167,0.09069
7396.63295,0.08972
7394.70424,0.08530
7392.77552,0.08599
7390.84680,0.09383
7388.91808,0.09776
7386.98936,0.09649
7385.06065,0.09622
7383.13193,0.09717
7381.20321,0.09866
7379.27449,0.10152
7377.34577,0.10172
7375.41706,0.09783
7373.48834,0.09389
7371.55962,0.08889
7369.63090,0.08280
7367.70219,0.08275
7365.77347,0.08528
7363.84475,0.08547
7361.91603,0.08879
7359.98731,0.09478
7358.05860,0.09789
7356.12988,0.09956
7354.20116,0.10188
7352.27244,0.10470
7350.34372,0.10660
7348.41501,0.10643
7346.48629,0.10359
7344.55757,0.09839
7342.62885,0.09423
7340.70014,0.09875
7338.77142,0.10983
7336.84270,0.11526
7334.91398,0.11235
7332.98526,0.10707
7331.05655,0.10364
7329.12783,0.10130
7327.19911,0.10064
7325.27039,0.10312
7323.34167,0.10274
7321.41296,0.09794
7319.48424,0.09549
7317.55552,0.09675
7315.62680,0.09802
7313.69809,0.09813
7311.76937,0.09781
7309.84065,0.09777
7307.91193,0.09790
7305.98321,0.09848
7304.05450,0.10017
7302.12578,0.10206
7300.19706,0.09966
7298.26834,0.09442
7296.33963,0.09050
7294.41091,0.08847
7292.48219,0.08991
7290.55347,0.09366
7288.62475,0.09534
7286.69604,0.09728
7284.76732,0.10340
7282.83860,0.11059
7280.90988,0.11109
7278.98116,0.10612
7277.05245,0.10143
7275.12373,0.09744
7273.19501,0.09647
7271.26629,0.09838
7269.33758,0.09752
7267.40886,0.09659
7265.48014,0.09731
7263.55142,0.09545
7261.62270,0.09387
7259.69399,0.09563
7257.76527,0.09748
7255.83655,0.10038
7253.90783,0.10851
7251.97911,0.11655
7250.05040,0.11348
7248.12168,0.10410
7246.19296,0.10172
7244.26424,0.10627
7242.33553,0.10492
7240.40681,0.09771
7238.47809,0.09358
7236.54937,0.09092
7234.62065,0.08967
7232.69194,0.09261
7230.76322,0.09558
7228.83450,0.09601
7226.90578,0.09493
7224.97706,0.09218
7223.04835,0.08971
7221.11963,0.09117
7219.19091,0.09532
7217.26219,0.09676
7215.33348,0.09259
7213.40476,0.08857
7211.47604,0.09104
7209.54732,0.09630
7207.61860,0.09749
7205.68989,0.09677
7203.76117,0.09803
7201.83245,0.09956
7199.90373,0.09932
7197.97501,0.09792
7196.04630,0.09784
7194.11758,0.10113
7192.18886,0.10504
7190.26014,0.10634
7188.33143,0.10391
7186.40271,0.09990
7184.47399,0.09748
7182.54527,0.09662
7180.61655,0.09816
7178.68784,0.10165
7176.75912,0.10226
7174.83040,0.10106
7172.90168,0.10085
7170.97296,0.09771
7169.04425,0.09194
7167.11553,0.08885
7165.18681,0.08744
7163.25809,0.08805
7161.32938,0.09371
7159.40066,0.10147
7157.47194,0.10478
7155.54322,0.09939
7153.61450,0.08799
7151.68579,0.08326
7149.75707,0.09213
7147.82835,0.10431
7145.89963,0.10718
7143.97091,0.10323
7142.04220,0.09959
7140.11348,0.09695
7138.18476,0.09439
7136.25604,0.09224
7134.32733,0.09109
7132.39861,0.09270
7130.46989,0.09745
7128.54117,0.10238
7126.61245,0.10408
7124.68374,0.10193
7122.75502,0.09775
7120.82630,0.09365
7118.89758,0.09054
7116.96887,0.08937
7115.04015,0.09135
7113.11143,0.09606
7111.18271,0.09813
7109.25399,0.09602
7107.32528,0.09512
7105.39656,0.09665
7103.46784,0.09710
7101.53912,0.09831
7099.61040,0.10278
7097.68169,0.10516
7095.75297,0.10162
7093.82425,0.09956
7091.89553,0.10174
7089.96682,0.10237
7088.03810,0.10134
7086.10938,0.10143
7084.18066,0.10151
7082.25194,0.10104
7080.32323,0.09999
7078.39451,0.09664
7076.46579,0.09149
7074.53707,0.08803
7072.60835,0.08668
7070.67964,0.08589
7068.75092,0.08798
7066.82220,0.09361
7064.89348,0.09822
7062.96477,0.09848
7061.03605,0.09448
7059.10733,0.09069
7057.17861,0.09240
7055.24989,0.09649
7053.32118,0.09741
7051.39246,0.09881
7049.46374,0.10313
7047.53502,0.10354
7045.60630,0.09744
7043.67759,0.09374
7041.74887,0.09674
7039.82015,0.09928
7037.89143,0.09823
7035.96272,0.09853
7034.03400,0.10084
7032.10528,0.10207
7030.17656,0.10239
7028.24784,0.10408
7026.31913,0.10480
7024.39041,0.10011
7022.46169,0.09489
7020.53297,0.09584
7018.60425,0.09984
7016.67554,0.10086
7014.74682,0.09704
7012.81810,0.09221
7010.88938,0.09066
7008.96067,0.09250
7007.03195,0.09364
7005.10323,0.09167
7003.17451,0.09140
7001.24579,0.09559
6999.31708,0.10032
6997.38836,0.10451
6995.45964,0.10757
6993.53092,0.10627
6991.60220,0.10261
6989.67349,0.10013
6987.74477,0.09672
6985.81605,0.09311
6983.88733,0.09378
6981.95862,0.09667
6980.02990,0.09771
6978.10118,0.09776
6976.17246,0.09667
6974.24374,0.09395
6972.31503,0.09176
6970.38631,0.09087
6968.45759,0.09048
6966.52887,0.09205
6964.60015,0.09410
6962.67144,0.09435
6960.74272,0.09598
6958.81400,0.09916
6956.88528,0.09993
6954.95657,0.09923
6953.02785,0.09794
6951.09913,0.09574
6949.17041,0.09535
6947.24169,0.09978
6945.31298,0.10604
6943.38426,0.10529
6941.45554,0.09645
6939.52682,0.09125
6937.59811,0.09510
6935.66939,0.09892
6933.74067,0.09607
6931.81195,0.09233
6929.88323,0.09369
6927.95452,0.09649
6926.02580,0.09705
6924.09708,0.09848
6922.16836,0.10082
6920.23964,0.10204
6918.31093,0.10398
6916.38221,0.10615
6914.45349,0.10631
6912.52477,0.10677
6910.59606,0.10783
6908.66734,0.10411
6906.73862,0.09657
6904.80990,0.09415
6902.88118,0.09708
6900.95247,0.09834
6899.02375,0.09785
6897.09503,0.09886
6895.16631,0.10018
6893.23759,0.10032
6891.30888,0.10091
6889.38016,0.10196
6887.45144,0.10137
6885.52272,0.09938
6883.59401,0.09739
6881.66529,0.09553
6879.73657,0.09340
6877.80785,0.09305
6875.87913,0.09694
6873.95042,0.10322
6872.02170,0.10601
6870.09298,0.10372
6868.16426,0.10188
6866.23554,0.10206
6864.30683,0.10052
6862.37811,0.09730
6860.44939,0.09465
6858.52067,0.09328
6856.59196,0.09234
6854.66324,0.09177
6852.73452,0.09320
6850.80580,0.09641
6848.87708,0.09805
6846.94837,0.09713
6845.01965,0.09655
6843.09093,0.09912
6841.16221,0.10353
6839.23349,0.10496
6837.30478,0.10230
6835.37606,0.09833
6833.44734,0.09363
6831.51862,0.09210
6829.58991,0.09686
6827.66119,0.10105
6825.73247,0.09909
6823.80375,0.09557
6821.87503,0.09520
6819.94632,0.09823
6818.01760,0.10260
6816.08888,0.10493
6814.16016,0.10435
6812.23144,0.10206
6810.30273,0.09765
6808.37401,0.09291
6806.44529,0.09131
6804.51657,0.09286
6802.58786,0.09522
6800.65914,0.09684
6798.73042,0.09856
6796.80170,0.10112
6794.87298,0.10153
6792.94427,0.09943
6791.01555,0.09953
6789.08683,0.10115
6787.15811,0.09954
6785.22939,0.09703
6783.30068,0.09813
6781.37196,0.10097
6779.44324,0.10110
6777.51452,0.09916
6775.58581,0.09818
6773.65709,0.09685
6771.72837,0.09364
6769.79965,0.09130
6767.87093,0.09143
6765.94222,0.09281
6764.01350,0.09479
6762.08478,0.09653
6760.15606,0.09733
6758.22735,0.09719
6756.29863,0.09555
6754.36991,0.09667
6752.44119,0.10329
6750.51247,0.10762
6748.58376,0.10474
6746.65504,0.09958
6744.72632,0.09641
6742.79760,0.09488
6740.86888,0.09432
6738.94017,0.09560
6737.01145,0.09819
6735.08273,0.10035
6733.15401,0.10114
6731.22530,0.10103
6729.29658,0.10015
6727.36786,0.09942
6725.43914,0.10204
6723.51042,0.10674
6721.58171,0.10842
6719.65299,0.10689
6717.72427,0.10469
6715.79555,0.10241
6713.86683,0.09997
6711.93812,0.09813
6710.00940,0.09679
6708.08068,0.09560
6706.15196,0.09532
6704.22325,0.09584
6702.29453,0.09627
6700.36581,0.09591
6698.43709,0.09485
6696.50837,0.09485
6694.57966,0.09552
6692.65094,0.09519
6690.72222,0.09480
6688.79350,0.09549
6686.86478,0.09710
6684.93607,0.09747
6683.00735,0.09469
6681.07863,0.09244
6679.14991,0.09389
6677.22120,0.09727
6675.29248,0.09985
6673.36376,0.09858
6671.43504,0.09400
6669.50632,0.09063
6667.57761,0.09094
6665.64889,0.09540
6663.72017,0.09944
6661.79145,0.09804
6659.86273,0.09518
6657.93402,0.09604
6656.00530,0.09897
6654.07658,0.10137
6652.14786,0.10242
6650.21915,0.10123
6648.29043,0.09964
6646.36171,0.09997
6644.43299,0.09984
6642.50427,0.09883
6640.57556,0.09963
6638.64684,0.10079
6636.71812,0.10013
6634.78940,0.09891
6632.86068,0.09904
6630.93197,0.10004
6629.00325,0.09948
6627.07453,0.09868
6625.14581,0.09971
6623.21710,0.09966
6621.28838,0.09849
6619.35966,0.09895
6617.43094,0.09846
6615.50222,0.09606
6613.57351,0.09532
6611.64479,0.09773
6609.71607,0.10105
6607.78735,0.10175
6605.85863,0.10026
6603.92992,0.10012
6602.00120,0.09968
6600.07248,0.09702
6598.14376,0.09551
6596.21505,0.09646
6594.28633,0.09722
6592.35761,0.09726
6590.42889,0.09842
6588.50017,0.10052
6586.57146,0.10163
6584.64274,0.10193
6582.71402,0.10210
6580.78530,0.10106
6578.85659,0.09907
6576.92787,0.09772
6574.99915,0.09758
6573.07043,0.09945
6571.14171,0.10197
6569.21300,0.10243
6567.28428,0.10047
6565.35556,0.09731
6563.42684,0.09552
6561.49812,0.09676
6559.56941,0.09915
6557.64069,0.10060
6555.71197,0.10023
6553.78325,0.09905
6551.85454,0.09873
6549.92582,0.09768
6547.99710,0.09412
6546.06838,0.09128
6544.13966,0.09230
6542.21095,0.09405
6540.28223,0.09413
6538.35351,0.09516
6536.42479,0.09714
6534.49607,0.09778
6532.56736,0.09753
6530.63864,0.09787
6528.70992,0.09967
6526.78120,0.10174
6524.85249,0.10114
6522.92377,0.09767
6520.99505,0.09370
6519.06633,0.09130
6517.13761,0.09233
6515.20890,0.09563
6513.28018,0.09686
6511.35146,0.09663
6509.42274,0.09790
6507.49402,0.09849
6505.56531,0.09699
6503.63659,0.09579
6501.70787,0.09546
6499.77915,0.09478
6497.85044,0.09488
6495.92172,0.09717
6493.99300,0.09857
6492.06428,0.09690
6490.13556,0.09467
6488.20685,0.09425
6486.27813,0.09538
6484.34941,0.09705
6482.42069,0.09962
6480.49197,0.10296
6478.56326,0.10354
6476.63454,0.10053
6474.70582,0.09752
6472.77710,0.09645
6470.84839,0.09680
6468.91967,0.09673
6466.99095,0.09475
6465.06223,0.09264
6463.13351,0.09250
6461.20480,0.09506
6459.27608,0.09890
6457.34736,0.10069
6455.41864,0.09983
6453.48992,0.09875
6451.56121,0.09913
6449.63249,0.09929
6447.70377,0.09801
6445.77505,0.09721
6443.84634,0.09683
6441.91762,0.09669
6439.98890,0.09815
6438.06018,0.09983
6436.13146,0.09984
6434.20275,0.09867
6432.27403,0.09831
6430.34531,0.09927
6428.41659,0.09946
6426.48787,0.09954
6424.55916,0.10182
6422.63044,0.10291
6420.70172,0.09953
6418.77300,0.09575
6416.84429,0.09584
6414.91557,0.09849
6412.98685,0.10007
6411.05813,0.09949
6409.12941,0.09791
6407.20070,0.09659
6405.27198,0.09625
6403.34326,0.09652
6401.41454,0.09752
6399.48583,0.09985
6397.55711,0.10118
6395.62839,0.10000
6393.69967,0.09894
6391.77095,0.09947
6389.84224,0.09972
6387.91352,0.09991
6385.98480,0.10162
6384.05608,0.10323
6382.12736,0.10278
6380.19865,0.10122
6378.26993,0.10047
6376.34121,0.10118
6374.41249,0.10090
6372.48378,0.09751
6370.55506,0.09453
6368.62634,0.09470
6366.69762,0.09545
6364.76890,0.09460
6362.84019,0.09262
6360.91147,0.09224
6358.98275,0.09448
6357.05403,0.09742
6355.12531,0.09938
6353.19660,0.09879
6351.26788,0.09689
6349.33916,0.09629
6347.41044,0.09685
6345.48173,0.09818
6343.55301,0.10027
6341.62429,0.10283
6339.69557,0.10429
6337.76685,0.10268
6335.83814,0.09870
6333.90942,0.09594
6331.98070,0.09660
6330.05198,0.09841
6328.12326,0.09871
6326.19455,0.09760
6324.26583,0.09748
6322.33711,0.09892
6320.40839,0.09821
6318.47968,0.09575
6316.55096,0.09647
6314.62224,0.09929
6312.69352,0.09872
6310.76480,0.09545
6308.83609,0.09407
6306.90737,0.09452
6304.97865,0.09496
6303.04993,0.09508
6301.12121,0.09451
6299.19250,0.09379
6297.26378,0.09311
6295.33506,0.09260
6293.40634,0.09412
6291.47763,0.09866
6289.54891,0.10348
6287.62019,0.10427
6285.69147,0.10086
6283.76275,0.09792
6281.83404,0.09830
6279.90532,0.10012
6277.97660,0.10052
6276.04788,0.09922
6274.11916,0.09799
6272.19045,0.09796
6270.26173,0.09842
6268.33301,0.09889
6266.40429,0.09994
6264.47558,0.10060
6262.54686,0.09936
6260.61814,0.09786
6258.68942,0.09869
6256.76070,0.10140
6254.83199,0.10306
6252.90327,0.10181
6250.97455,0.10004
6249.04583,0.10050
6247.11711,0.10128
6245.18840,0.10087
6243.25968,0.10084
6241.33096,0.10057
6239.40224,0.09868
6237.47353,0.09658
6235.54481,0.09608
6233.61609,0.09722
6231.68737,0.09847
6229.75865,0.09802
6227.82994,0.09663
6225.90122,0.09693
6223.97250,0.09859
6222.04378,0.09947
6220.11506,0.09996
6218.18635,0.09978
6216.25763,0.09767
6214.32891,0.09647
6212.40019,0.09819
6210.47148,0.09970
6208.54276,0.09965
6206.61404,0.10040
6204.68532,0.10231
6202.75660,0.10261
6200.82789,0.10052
6198.89917,0.09858
6196.97045,0.09828
6195.04173,0.10002
6193.11302,0.10235
6191.18430,0.10090
6189.25558,0.09652
6187.32686,0.09565
6185.39814,0.09856
6183.46943,0.09960
6181.54071,0.09738
6179.61199,0.09614
6177.68327,0.09828
6175.75455,0.10154
6173.82584,0.10300
6171.89712,0.10244
6169.96840,0.10166
6168.03968,0.10154
6166.11097,0.10057
6164.18225,0.09888
6162.25353,0.09896
6160.32481,0.10054
6158.39609,0.10040
6156.46738,0.09800
6154.53866,0.09666
6152.60994,0.09765
6150.68122,0.09814
6148.75250,0.09717
6146.82379,0.09665
6144.89507,0.09727
6142.96635,0.09746
6141.03763,0.09637
6139.10892,0.09594
6137.18020,0.09758
6135.25148,0.10004
6133.32276,0.10238
6131.39404,0.10306
6129.46533,0.10088
6127.53661,0.09869
6125.60789,0.09831
6123.67917,0.09848
6121.75045,0.09937
6119.82174,0.10065
6117.89302,0.10126
6115.96430,0.10107
6114.03558,0.09946
6112.10687,0.09761
6110.17815,0.09861
6108.24943,0.10096
6106.32071,0.10082
6104.39199,0.09947
6102.46328,0.09929
6100.53456,0.09898
6098.60584,0.09749
6096.67712,0.09586
6094.74840,0.09525
6092.81969,0.09532
6090.89097,0.09624
6088.96225,0.09818
6087.03353,0.09845
6085.10482,0.09662
6083.17610,0.09623
6081.24738,0.09773
6079.31866,0.09798
6077.38994,0.09619
6075.46123,0.09458
6073.53251,0.09472
6071.60379,0.09620
6069.67507,0.09755
6067.74635,0.09817
6065.81764,0.09857
6063.88892,0.09876
6061.96020,0.09885
6060.03148,0.10006
6058.10277,0.10215
6056.17405,0.10198
6054.24533,0.09911
6052.31661,0.09747
6050.38789,0.09770
6048.45918,0.09751
6046.53046,0.09767
6044.60174,0.09889
6042.67302,0.09887
6040.74430,0.09761
6038.81559,0.09825
6036.88687,0.10092
6034.95815,0.10221
6033.02943,0.10115
6031.10072,0.09967
6029.17200,0.09878
6027.24328,0.09831
6025.31456,0.09833
6023.38584,0.09840
6021.45713,0.09754
6019.52841,0.09622
6017.59969,0.09633
6015.67097,0.09805
6013.74226,0.09922
6011.81354,0.09812
6009.88482,0.09608
6007.95610,0.09634
6006.02738,0.09852
6004.09867,0.09903
6002.16995,0.09829
6000.24123,0.09894
5998.31251,0.09958
5996.38379,0.09804
5994.45508,0.09667
5992.52636,0.09844
5990.59764,0.10107
5988.66892,0.10073
5986.74021,0.09824
5984.81149,0.09724
5982.88277,0.09835
5980.95405,0.09825
5979.02533,0.09665
5977.09662,0.09647
5975.16790,0.09688
5973.23918,0.09657
5971.31046,0.09697
5969.38174,0.09741
5967.45303,0.09733
5965.52431,0.09881
5963.59559,0.10125
5961.66687,0.10153
5959.73816,0.09996
5957.80944,0.09925
5955.88072,0.10000
5953.95200,0.10140
5952.02328,0.10293
5950.09457,0.10320
5948.16585,0.10149
5946.23713,0.09950
5944.30841,0.09855
5942.37969,0.09846
5940.45098,0.09884
5938.52226,0.09941
5936.59354,0.10029
5934.66482,0.10138
5932.73611,0.10194
5930.80739,0.10124
5928.87867,0.09926
5926.94995,0.09704
5925.02123,0.09596
5923.09252,0.09681
5921.16380,0.09877
5919.23508,0.09990
5917.30636,0.09963
5915.37764,0.09881
5913.44893,0.09838
5911.52021,0.09869
5909.59149,0.09847
5907.66277,0.09656
5905.73406,0.09481
5903.80534,0.09468
5901.87662,0.09514
5899.94790,0.09541
5898.01918,0.09534
5896.09047,0.09498
5894.16175,0.09464
5892.23303,0.09478
5890.30431,0.09582
5888.37559,0.09647
5886.44688,0.09551
5884.51816,0.09445
5882.58944,0.09499
5880.66072,0.09647
5878.73201,0.09758
5876.80329,0.09718
5874.87457,0.09573
5872.94585,0.09566
5871.01713,0.09702
5869.08842,0.09739
5867.15970,0.09630
5865.23098,0.09485
5863.30226,0.09396
5861.37354,0.09405
5859.44483,0.09458
5857.51611,0.09496
5855.58739,0.09555
5853.65867,0.09622
5851.72996,0.09612
5849.80124,0.09539
5847.87252,0.09448
5845.94380,0.09318
5844.01508,0.09231
5842.08637,0.09323
5840.15765,0.09492
5838.22893,0.09526
5836.30021,0.09515
5834.37150,0.09655
5832.44278,0.09788
5830.51406,0.09658
5828.58534,0.09382
5826.65662,0.09179
5824.72791,0.09066
5822.79919,0.09035
5820.87047,0.09063
5818.94175,0.09060
5817.01303,0.09051
5815.08432,0.09105
5813.15560,0.09146
5811.22688,0.09086
5809.29816,0.08971
5807.36945,0.08853
5805.44073,0.08758
5803.51201,0.08749
5801.58329,0.08860
5799.65457,0.09036
5797.72586,0.09147
5795.79714,0.09112
5793.86842,0.08973
5791.93970,0.08856
5790.01098,0.08890
5788.08227,0.09008
5786.15355,0.08982
5784.22483,0.08779
5782.29611,0.08597
5780.36740,0.08569
5778.43868,0.08597
5776.50996,0.08541
5774.58124,0.08478
5772.65252,0.08516
5770.72381,0.08553
5768.79509,0.08514
5766.86637,0.08512
5764.93765,0.08666
5763.00893,0.08964
5761.08022,0.09263
5759.15150,0.09384
5757.22278,0.09325
5755.29406,0.09254
5753.36535,0.09232
5751.43663,0.09246
5749.50791,0.09291
5747.57919,0.09345
5745.65047,0.09386
5743.72176,0.09361
5741.79304,0.09314
5739.86432,0.09358
5737.93560,0.09417
5736.00688,0.09412
5734.07817,0.09407
5732.14945,0.09378
5730.22073,0.09287
5728.29201,0.09227
5726.36330,0.09267
5724.43458,0.09403
5722.50586,0.09593
5720.57714,0.09769
5718.64842,0.09833
5716.71971,0.09746
5714.79099,0.09647
5712.86227,0.09641
5710.93355,0.09684
5709.00483,0.09744
5707.07612,0.09823
5705.14740,0.09924
5703.21868,0.09954
5701.28996,0.09770
5699.36125,0.09467
5697.43253,0.09327
5695.50381,0.09381
5693.57509,0.09406
5691.64637,0.09336
5689.71766,0.09298
5687.78894,0.09335
5685.86022,0.09428
5683.93150,0.09547
5682.00278,0.09590
5680.07407,0.09544
5678.14535,0.09467
5676.21663,0.09384
5674.28791,0.09360
5672.35920,0.09331
5670.43048,0.09178
5668.50176,0.09025
5666.57304,0.09030
5664.64432,0.09141
5662.71561,0.09231
5660.78689,0.09233
5658.85817,0.09188
5656.92945,0.09261
5655.00074,0.09437
5653.07202,0.09486
5651.14330,0.09403
5649.21458,0.09376
5647.28586,0.09467
5645.35715,0.09555
5643.42843,0.09581
5641.49971,0.09587
5639.57099,0.09561
5637.64227,0.09514
5635.71356,0.09471
5633.78484,0.09416
5631.85612,0.09431
5629.92740,0.09515
5627.99869,0.09570
5626.06997,0.09648
5624.14125,0.09776
5622.21253,0.09824
5620.28381,0.09823
5618.35510,0.09863
5616.42638,0.09860
5614.49766,0.09800
5612.56894,0.09803
5610.64022,0.09866
5608.71151,0.09904
5606.78279,0.09876
5604.85407,0.09797
5602.92535,0.09705
5600.99664,0.09638
5599.06792,0.09653
5597.13920,0.09777
5595.21048,0.09890
5593.28176,0.09843
5591.35305,0.09678
5589.42433,0.09600
5587.49561,0.09636
5585.56689,0.09638
5583.63817,0.09644
5581.70946,0.09717
5579.78074,0.09782
5577.85202,0.09778
5575.92330,0.09703
5573.99459,0.09656
5572.06587,0.09742
5570.13715,0.09856
5568.20843,0.09820
5566.27971,0.09692
5564.35100,0.09626
5562.42228,0.09619
5560.49356,0.09610
5558.56484,0.09630
5556.63612,0.09722
5554.70741,0.09812
5552.77869,0.09818
5550.84997,0.09750
5548.92125,0.09663
5546.99254,0.09595
5545.06382,0.09534
5543.13510,0.09497
5541.20638,0.09521
5539.27766,0.09625
5537.34895,0.09768
5535.42023,0.09817
5533.49151,0.09739
5531.56279,0.09637
5529.63407,0.09584
5527.70536,0.09580
5525.77664,0.09589
5523.84792,0.09616
5521.91920,0.09695
5519.99049,0.09753
5518.06177,0.09729
5516.13305,0.09674
5514.20433,0.09612
5512.27561,0.09597
5510.34690,0.09689
5508.41818,0.09769
5506.48946,0.09735
5504.56074,0.09693
5502.63202,0.09701
5500.70331,0.09710
5498.77459,0.09747
5496.84587,0.09815
5494.91715,0.09820
5492.98844,0.09791
5491.05972,0.09816
5489.13100,0.09826
5487.20228,0.09741
5485.27356,0.09625
5483.34485,0.09572
5481.41613,0.09603
5479.48741,0.09654
5477.55869,0.09650
5475.62998,0.09622
5473.70126,0.09591
5471.77254,0.09534
5469.84382,0.09519
5467.91510,0.09573
5465.98639,0.09625
5464.05767,0.09662
5462.12895,0.09715
5460.20023,0.09774
5458.27151,0.09842
5456.34280,0.09864
5454.41408,0.09844
5452.48536,0.09900
5450.55664,0.09982
5448.62793,0.09951
5446.69921,0.09840
5444.77049,0.09728
5442.84177,0.09651
5440.91305,0.09620
5438.98434,0.09640
5437.05562,0.09727
5435.12690,0.09825
5433.19818,0.09800
5431.26946,0.09699
5429.34075,0.09711
5427.41203,0.09826
5425.48331,0.09850
5423.55459,0.09799
5421.62588,0.09813
5419.69716,0.09863
5417.76844,0.09854
5415.83972,0.09786
5413.91100,0.09694
5411.98229,0.09606
5410.05357,0.09545
5408.12485,0.09590
5406.19613,0.09710
5404.26741,0.09778
5402.33870,0.09777
5400.40998,0.09732
5398.48126,0.09702
5396.55254,0.09711
5394.62383,0.09645
5392.69511,0.09566
5390.76639,0.09665
5388.83767,0.09870
5386.90895,0.09987
5384.98024,0.09952
5383.05152,0.09862
5381.12280,0.09797
5379.19408,0.09754
5377.26536,0.09781
5375.33665,0.09875
5373.40793,0.09889
5371.47921,0.09821
5369.55049,0.09766
5367.62178,0.09765
5365.69306,0.09814
5363.76434,0.09821
5361.83562,0.09742
5359.90690,0.09693
5357.97819,0.09723
5356.04947,0.09763
5354.12075,0.09812
5352.19203,0.09896
5350.26331,0.09947
5348.33460,0.09978
5346.40588,0.10027
5344.47716,0.10008
5342.54844,0.09924
5340.61973,0.09865
5338.69101,0.09850
5336.76229,0.09919
5334.83357,0.09998
5332.90485,0.09941
5330.97614,0.09765
5329.04742,0.09620
5327.11870,0.09642
5325.18998,0.09779
5323.26126,0.09848
5321.33255,0.09845
5319.40383,0.09884
5317.47511,0.09973
5315.54639,0.10058
5313.61768,0.10080
5311.68896,0.10032
5309.76024,0.10009
5307.83152,0.10026
5305.90280,0.10003
5303.97409,0.09987
5302.04537,0.10048
5300.11665,0.10103
5298.18793,0.10056
5296.25922,0.09978
5294.33050,0.09951
5292.40178,0.09963
5290.47306,0.10039
5288.54434,0.10155
5286.61563,0.10213
5284.68691,0.10141
5282.75819,0.09959
5280.82947,0.09830
5278.90075,0.09842
5276.97204,0.09893
5275.04332,0.09919
5273.11460,0.09963
5271.18588,0.10040
5269.25717,0.10067
5267.32845,0.09996
5265.39973,0.09909
5263.47101,0.09878
5261.54229,0.09874
5259.61358,0.09854
5257.68486,0.09819
5255.75614,0.09778
5253.82742,0.09751
5251.89870,0.09786
5249.96999,0.09857
5248.04127,0.09869
5246.11255,0.09847
5244.18383,0.09883
5242.25512,0.09960
5240.32640,0.10016
5238.39768,0.10014
5236.46896,0.09985
5234.54024,0.09972
5232.61153,0.09934
5230.68281,0.09886
5228.75409,0.09881
5226.82537,0.09836
5224.89665,0.09738
5222.96794,0.09761
5221.03922,0.09885
5219.11050,0.09962
5217.18178,0.09984
5215.25307,0.09975
5213.32435,0.09955
5211.39563,0.09918
5209.46691,0.09815
5207.53819,0.09747
5205.60948,0.09839
5203.68076,0.09976
5201.75204,0.10027
5199.82332,0.10004
5197.89460,0.09978
5195.96589,0.10008
5194.03717,0.10061
5192.10845,0.10064
5190.17973,0.09994
5188.25102,0.09890
5186.32230,0.09823
5184.39358,0.09842
5182.46486,0.09930
5180.53614,0.10050
5178.60743,0.10089
5176.67871,0.09958
5174.74999,0.09797
5172.82127,0.09763
5170.89255,0.09823
5168.96384,0.09891
5167.03512,0.09939
5165.10640,0.09942
5163.17768,0.09912
5161.24897,0.09893
5159.32025,0.09880
5157.39153,0.09871
5155.46281,0.09881
5153.53409,0.09891
5151.60538,0.09907
5149.67666,0.09961
5147.74794,0.10021
5145.81922,0.10037
5143.89050,0.10042
5141.96179,0.10039
5140.03307,0.09998
5138.10435,0.09993
5136.17563,0.10063
5134.24692,0.10099
5132.31820,0.10033
5130.38948,0.09978
5128.46076,0.09995
5126.53204,0.09981
5124.60333,0.09927
5122.67461,0.09901
5120.74589,0.09931
5118.81717,0.10039
5116.88846,0.10126
5114.95974,0.10100
5113.03102,0.10036
5111.10230,0.10021
5109.17358,0.10021
5107.24487,0.09961
5105.31615,0.09887
5103.38743,0.09893
5101.45871,0.09954
5099.52999,0.10004
5097.60128,0.10012
5095.67256,0.10024
5093.74384,0.10084
5091.81512,0.10080
5089.88641,0.09937
5087.95769,0.09790
5086.02897,0.09773
5084.10025,0.09855
5082.17153,0.09918
5080.24282,0.09956
5078.31410,0.10015
5076.38538,0.10052
5074.45666,0.10036
5072.52794,0.09997
5070.59923,0.09958
5068.67051,0.09935
5066.74179,0.09924
5064.81307,0.09923
5062.88436,0.09933
5060.95564,0.09960
5059.02692,0.10025
5057.09820,0.10077
5055.16948,0.10074
5053.24077,0.10055
5051.31205,0.10038
5049.38333,0.10037
5047.45461,0.10065
5045.52589,0.10099
5043.59718,0.10098
5041.66846,0.10060
5039.73974,0.10021
5037.81102,0.09977
5035.88231,0.09913
5033.95359,0.09877
5032.02487,0.09914
5030.09615,0.09996
5028.16743,0.10041
5026.23872,0.10017
5024.31000,0.10008
5022.38128,0.10045
5020.45256,0.10042
5018.52384,0.09997
5016.59513,0.09985
5014.66641,0.10003
5012.73769,0.10008
5010.80897,0.09974
5008.88026,0.09912
5006.95154,0.09881
5005.02282,0.09895
5003.09410,0.09924
5001.16538,0.09983
4999.23667,0.10052
4997.30795,0.10041
4995.37923,0.09987
4993.45051,0.09984
4991.52179,0.10029
4989.59308,0.10097
4987.66436,0.10159
4985.73564,0.10149
4983.80692,0.10057
4981.87821,0.09958
4979.94949,0.09896
4978.02077,0.09859
4976.09205,0.09877
4974.16333,0.09931
4972.23462,0.09941
4970.30590,0.09940
4968.37718,0.09983
4966.44846,0.09997
4964.51974,0.09964
4962.59103,0.09978
4960.66231,0.10036
4958.73359,0.10069
4956.80487,0.10079
4954.87616,0.10067
4952.94744,0.10051
4951.01872,0.10059
4949.09000,0.10029
4947.16128,0.09959
4945.23257,0.09967
4943.30385,0.10039
4941.37513,0.10077
4939.44641,0.10071
4937.51769,0.10033
4935.58898,0.09988
4933.66026,0.09984
4931.73154,0.09999
4929.80282,0.09981
4927.87411,0.09990
4925.94539,0.10062
4924.01667,0.10100
4922.08795,0.10105
4920.15923,0.10158
4918.23052,0.10237
4916.30180,0.10252
4914.37308,0.10184
4912.44436,0.10117
4910.51565,0.10097
4908.58693,0.10103
4906.65821,0.10136
4904.72949,0.10142
4902.80077,0.10044
4900.87206,0.09928
4898.94334,0.09921
4897.01462,0.09969
4895.08590,0.10023
4893.15718,0.10133
4891.22847,0.10214
4889.29975,0.10162
4887.37103,0.10056
4885.44231,0.10022
4883.51360,0.10089
4881.58488,0.10182
4879.65616,0.10187
4877.72744,0.10090
4875.79872,0.10011
4873.87001,0.10012
4871.94129,0.10035
4870.01257,0.10044
4868.08385,0.10064
4866.15513,0.10095
4864.22642,0.10086
4862.29770,0.10044
4860.36898,0.10020
4858.44026,0.10011
4856.51155,0.10010
4854.58283,0.10047
4852.65411,0.10113
4850.72539,0.10157
4848.79667,0.10166
4846.86796,0.10174
4844.93924,0.10182
4843.01052,0.10169
4841.08180,0.10154
4839.15308,0.10163
4837.22437,0.10170
4835.29565,0.10168
4833.36693,0.10173
4831.43821,0.10161
4829.50950,0.10132
4827.58078,0.10110
4825.65206,0.10098
4823.72334,0.10109
4821.79462,0.10129
4819.86591,0.10134
4817.93719,0.10151
4816.00847,0.10199
4814.07975,0.10252
4812.15103,0.10305
4810.22232,0.10332
4808.29360,0.10280
4806.36488,0.10168
4804.43616,0.10072
4802.50745,0.10041
4800.57873,0.10085
4798.65001,0.10176
4796.72129,0.10255
4794.79257,0.10268
4792.86386,0.10224
4790.93514,0.10151
4789.00642,0.10081
4787.07770,0.10085
4785.14898,0.10167
4783.22027,0.10238
4781.29155,0.10261
4779.36283,0.10241
4777.43411,0.10194
4775.50540,0.10155
4773.57668,0.10137
4771.64796,0.10150
4769.71924,0.10192
4767.79052,0.10225
4765.86181,0.10231
4763.93309,0.10213
4762.00437,0.10169
4760.07565,0.10092
4758.14693,0.10011
4756.21822,0.10011
4754.28950,0.10088
4752.36078,0.10149
4750.43206,0.10183
4748.50335,0.10221
4746.57463,0.10242
4744.64591,0.10235
4742.71719,0.10233
4740.78847,0.10271
4738.85976,0.10327
4736.93104,0.10325
4735.00232,0.10248
4733.07360,0.10157
4731.14489,0.10108
4729.21617,0.10125
4727.28745,0.10197
4725.35873,0.10254
4723.43001,0.10259
4721.50130,0.10262
4719.57258,0.10297
4717.64386,0.10330
4715.71514,0.10313
4713.78642,0.10266
4711.85771,0.10261
4709.92899,0.10279
4708.00027,0.10252
4706.07155,0.10214
4704.14284,0.10215
4702.21412,0.10203
4700.28540,0.10159
4698.35668,0.10155
4696.42796,0.10171
4694.49925,0.10151
4692.57053,0.10125
4690.64181,0.10115
4688.71309,0.10142
4686.78437,0.10203
4684.85566,0.10226
4682.92694,0.10197
4680.99822,0.10196
4679.06950,0.10243
4677.14079,0.10262
4675.21207,0.10239
4673.28335,0.10229
4671.35463,0.10223
4669.42591,0.10204
4667.49720,0.10210
4665.56848,0.10266
4663.63976,0.10313
4661.71104,0.10291
4659.78232,0.10224
4657.85361,0.10143
4655.92489,0.10076
4653.99617,0.10069
4652.06745,0.10110
4650.13874,0.10147
4648.21002,0.10165
4646.28130,0.10176
4644.35258,0.10189
4642.42386,0.10210
4640.49515,0.10229
4638.56643,0.10238
4636.63771,0.10271
4634.70899,0.10349
4632.78027,0.10398
4630.85156,0.10344
4628.92284,0.10253
4626.99412,0.10201
4625.06540,0.10153
4623.13669,0.10086
4621.20797,0.10053
4619.27925,0.10088
4617.35053,0.10145
4615.42181,0.10185
4613.49310,0.10200
4611.56438,0.10181
4609.63566,0.10173
4607.70694,0.10224
4605.77822,0.10283
4603.84951,0.10278
4601.92079,0.10231
4599.99207,0.10213
4598.06335,0.10247
4596.13464,0.10280
4594.20592,0.10274
4592.27720,0.10252
4590.34848,0.10225
4588.41976,0.10218
4586.49105,0.10224
4584.56233,0.10189
4582.63361,0.10151
4580.70489,0.10151
4578.77617,0.10144
4576.84746,0.10125
4574.91874,0.10149
4572.99002,0.10206
4571.06130,0.10240
4569.13259,0.10271
4567.20387,0.10322
4565.27515,0.10331
4563.34643,0.10292
4561.41771,0.10287
4559.48900,0.10314
4557.56028,0.10306
4555.63156,0.10248
4553.70284,0.10167
4551.77413,0.10110
4549.84541,0.10099
4547.91669,0.10125
4545.98797,0.10172
4544.05925,0.10194
4542.13054,0.10171
4540.20182,0.10157
4538.27310,0.10199
4536.34438,0.10269
4534.41566,0.10300
4532.48695,0.10285
4530.55823,0.10273
4528.62951,0.10278
4526.70079,0.10283
4524.77208,0.10269
4522.84336,0.10227
4520.91464,0.10181
4518.98592,0.10137
4517.05720,0.10102
4515.12849,0.10088
4513.19977,0.10065
4511.27105,0.10040
4509.34233,0.10064
4507.41361,0.10111
4505.48490,0.10151
4503.55618,0.10200
4501.62746,0.10232
4499.69874,0.10215
4497.77003,0.10173
4495.84131,0.10144
4493.91259,0.10131
4491.98387,0.10103
4490.05515,0.10039
4488.12644,0.09988
4486.19772,0.10005
4484.26900,0.10060
4482.34028,0.10093
4480.41156,0.10075
4478.48285,0.10032
4476.55413,0.10029
4474.62541,0.10063
4472.69669,0.10085
4470.76798,0.10101
4468.83926,0.10102
4466.91054,0.10070
4464.98182,0.10048
4463.05310,0.10051
4461.12439,0.10060
4459.19567,0.10048
4457.26695,0.09991
4455.33823,0.09952
4453.40951,0.09962
4451.48080,0.09949
4449.55208,0.09907
4447.62336,0.09889
4445.69464,0.09898
4443.76593,0.09920
4441.83721,0.09957
4439.90849,0.09991
4437.97977,0.10008
4436.05105,0.10011
4434.12234,0.09995
4432.19362,0.09976
4430.26490,0.09960
4428.33618,0.09931
4426.40746,0.09904
4424.47875,0.09895
4422.55003,0.09873
4420.62131,0.09811
4418.69259,0.09738
4416.76388,0.09685
4414.83516,0.09645
4412.90644,0.09611
4410.97772,0.09605
4409.04900,0.09644
4407.12029,0.09706
4405.19157,0.09715
4403.26285,0.09633
4401.33413,0.09543
4399.40541,0.09528
4397.47670,0.09546
4395.54798,0.09525
4393.61926,0.09495
4391.69054,0.09494
4389.76183,0.09486
4387.83311,0.09435
4385.90439,0.09334
4383.97567,0.09221
4382.04695,0.09150
4380.11824,0.09122
4378.18952,0.09118
4376.26080,0.09111
4374.33208,0.09071
4372.40337,0.08999
4370.47465,0.08926
4368.54593,0.08888
4366.61721,0.08877
4364.68849,0.08848
4362.75978,0.08799
4360.83106,0.08759
4358.90234,0.08715
4356.97362,0.08639
4355.04490,0.08515
4353.11619,0.08368
4351.18747,0.08242
4349.25875,0.08137
4347.33003,0.08030
4345.40132,0.07924
4343.47260,0.07796
4341.54388,0.07623
4339.61516,0.07449
4337.68644,0.07337
4335.75773,0.07300
4333.82901,0.07281
4331.90029,0.07210
4329.97157,0.07079
4328.04285,0.06938
4326.11414,0.06811
4324.18542,0.06679
4322.25670,0.06608
4320.32798,0.06706
4318.39927,0.06944
4316.47055,0.07241
4314.54183,0.07560
4312.61311,0.07840
4310.68439,0.08057
4308.75568,0.08240
4306.82696,0.08373
4304.89824,0.08444
4302.96952,0.08523
4301.04080,0.08627
4299.11209,0.08687
4297.18337,0.08704
4295.25465,0.08728
4293.32593,0.08737
4291.39722,0.08691
4289.46850,0.08620
4287.53978,0.08574
4285.61106,0.08538
4283.68234,0.08493
4281.75363,0.08455
4279.82491,0.08413
4277.89619,0.08366
4275.96747,0.08344
4274.03875,0.08330
4272.11004,0.08284
4270.18132,0.08216
4268.25260,0.08143
4266.32388,0.08055
4264.39517,0.07941
4262.46645,0.07806
4260.53773,0.07662
4258.60901,0.07517
4256.68029,0.07381
4254.75158,0.07281
4252.82286,0.07229
4250.89414,0.07246
4248.96542,0.07345
4247.03670,0.07487
4245.10799,0.07649
4243.17927,0.07819
4241.25055,0.07962
4239.32183,0.08078
4237.39312,0.08186
4235.46440,0.08233
4233.53568,0.08199
4231.60696,0.08159
4229.67824,0.08148
4227.74953,0.08138
4225.82081,0.08118
4223.89209,0.08079
4221.96337,0.08042
4220.03465,0.08035
4218.10594,0.08044
4216.17722,0.08069
4214.24850,0.08102
4212.31978,0.08095
4210.39107,0.08042
4208.46235,0.07999
4206.53363,0.07969
4204.60491,0.07912
4202.67619,0.07843
4200.74748,0.07776
4198.81876,0.07726
4196.89004,0.07716
4194.96132,0.07720
4193.03261,0.07697
4191.10389,0.07658
4189.17517,0.07651
4187.24645,0.07693
4185.31773,0.07740
4183.38902,0.07744
4181.46030,0.07723
4179.53158,0.07730
4177.60286,0.07776
4175.67414,0.07824
4173.74543,0.07842
4171.81671,0.07820
4169.88799,0.07767
4167.95927,0.07724
4166.03056,0.07730
4164.10184,0.07761
4162.17312,0.07782
4160.24440,0.07791
4158.31568,0.07775
4156.38697,0.07742
4154.45825,0.07736
4152.52953,0.07772
4150.60081,0.07815
4148.67209,0.07829
4146.74338,0.07837
4144.81466,0.07861
4142.88594,0.07878
4140.95722,0.07879
4139.02851,0.07866
4137.09979,0.07835
4135.17107,0.07798
4133.24235,0.07785
4131.31363,0.07814
4129.38492,0.07838
4127.45620,0.07822
4125.52748,0.07809
4123.59876,0.07832
4121.67004,0.07880
4119.74133,0.07915
4117.81261,0.07907
4115.88389,0.07879
4113.95517,0.07867
4112.02646,0.07879
4110.09774,0.07904
4108.16902,0.07931
4106.24030,0.07944
4104.31158,0.07927
4102.38287,0.07903
4100.45415,0.07897
4098.52543,0.07906
4096.59671,0.07906
4094.66799,0.07892
4092.73928,0.07913
4090.81056,0.07981
4088.88184,0.08059
4086.95312,0.08136
4085.02441,0.08209
4083.09569,0.08278
4081.16697,0.08343
4079.23825,0.08386
4077.30953,0.08387
4075.38082,0.08376
4073.45210,0.08404
4071.52338,0.08436
4069.59466,0.08436
4067.66594,0.08447
4065.73723,0.08471
4063.80851,0.08470
4061.87979,0.08464
4059.95107,0.08490
4058.02236,0.08541
4056.09364,0.08578
4054.16492,0.08579
4052.23620,0.08580
4050.30748,0.08613
4048.37877,0.08663
4046.45005,0.08690
4044.52133,0.08714
4042.59261,0.08772
4040.66389,0.08824
4038.73518,0.08840
4036.80646,0.08842
4034.87774,0.08824
4032.94902,0.08776
4031.02031,0.08734
4029.09159,0.08724
4027.16287,0.08732
4025.23415,0.08719
4023.30543,0.08691
4021.37672,0.08688
4019.44800,0.08726
4017.51928,0.08784
4015.59056,0.08846
4013.66185,0.08923
4011.73313,0.09013
4009.80441,0.09082
4007.87569,0.09132
4005.94697,0.09185
4004.01826,0.09205
4002.08954,0.09180
4000.16082,0.09137
3998.23210,0.09094
3996.30338,0.09068
3994.37467,0.09069
3992.44595,0.09075
3990.51723,0.09076
3988.58851,0.09082
3986.65980,0.09081
3984.73108,0.09047
3982.80236,0.08999
3980.87364,0.08996
3978.94492,0.09065
3977.01621,0.09161
3975.08749,0.09244
3973.15877,0.09302
3971.23005,0.09316
3969.30133,0.09279
3967.37262,0.09228
3965.44390,0.09196
3963.51518,0.09172
3961.58646,0.09145
3959.65775,0.09118
3957.72903,0.09097
3955.80031,0.09098
3953.87159,0.09121
3951.94287,0.09142
3950.01416,0.09152
3948.08544,0.09164
3946.15672,0.09176
3944.22800,0.09172
3942.29928,0.09164
3940.37057,0.09167
3938.44185,0.09174
3936.51313,0.09176
3934.58441,0.09157
3932.65570,0.09109
3930.72698,0.09063
3928.79826,0.09034
3926.86954,0.09009
3924.94082,0.08992
3923.01211,0.09001
3921.08339,0.09024
3919.15467,0.09025
3917.22595,0.09011
3915.29723,0.09011
3913.36852,0.09027
3911.43980,0.09060
3909.51108,0.09126
3907.58236,0.09194
3905.65365,0.09224
3903.72493,0.09219
3901.79621,0.09205
3899.86749,0.09174
3897.93877,0.09128
3896.01006,0.09092
3894.08134,0.09063
3892.15262,0.09043
3890.22390,0.09057
3888.29518,0.09092
3886.36647,0.09098
3884.43775,0.09062
3882.50903,0.09031
3880.58031,0.09044
3878.65160,0.09094
3876.72288,0.09123
3874.79416,0.09124
3872.86544,0.09125
3870.93672,0.09133
3869.00801,0.09148
3867.07929,0.09164
3865.15057,0.09166
3863.22185,0.09190
3861.29313,0.09243
3859.36442,0.09264
3857.43570,0.09251
3855.50698,0.09244
3853.57826,0.09203
3851.64955,0.09105
3849.72083,0.09085
3847.79211,0.09134
3845.86339,0.09189
3843.93467,0.09225
3842.00596,0.09256
3840.07724,0.09274
3838.14852,0.09249
3836.21980,0.09232
3834.29109,0.09246
3832.36237,0.09252
3830.43365,0.09261
3828.50493,0.09272
3826.57621,0.09263
3824.64750,0.09261
3822.71878,0.09264
3820.79006,0.09230
3818.86134,0.09193
3816.93262,0.09173
3815.00391,0.09166
3813.07519,0.09191
3811.14647,0.09228
3809.21775,0.09234
3807.28904,0.09230
3805.36032,0.09293
3803.43160,0.09359
3801.50288,0.09371
3799.57416,0.09396
3797.64545,0.09421
3795.71673,0.09423
3793.78801,0.09436
3791.85929,0.09441
3789.93057,0.09410
3788.00186,0.09380
3786.07314,0.09366
3784.14442,0.09340
3782.21570,0.09303
3780.28699,0.09274
3778.35827,0.09301
3776.42955,0.09385
3774.50083,0.09442
3772.57211,0.09460
3770.64340,0.09478
3768.71468,0.09502
3766.78596,0.09514
3764.85724,0.09536
3762.92852,0.09578
3760.99981,0.09610
3759.07109,0.09611
3757.14237,0.09594
3755.21365,0.09571
3753.28494,0.09522
3751.35622,0.09460
3749.42750,0.09470
3747.49878,0.09511
3745.57006,0.09478
3743.64135,0.09421
3741.71263,0.09465
3739.78391,0.09528
3737.85519,0.09533
3735.92647,0.09509
3733.99776,0.09529
3732.06904,0.09568
3730.14032,0.09579
3728.21160,0.09566
3726.28289,0.09538
3724.35417,0.09500
3722.42545,0.09470
3720.49673,0.09465
3718.56801,0.09473
3716.63930,0.09468
3714.71058,0.09441
3712.78186,0.09391
3710.85314,0.09356
3708.92442,0.09366
3706.99571,0.09382
3705.06699,0.09407
3703.13827,0.09463
3701.20955,0.09539
3699.28084,0.09574
3697.35212,0.09553
3695.42340,0.09545
3693.49468,0.09578
3691.56596,0.09601
3689.63725,0.09562
3687.70853,0.09477
3685.77981,0.09403
3683.85109,0.09341
3681.92237,0.09289
3679.99366,0.09261
3678.06494,0.09227
3676.13622,0.09165
3674.20750,0.09166
3672.27879,0.09218
3670.35007,0.09231
3668.42135,0.09232
3666.49263,0.09275
3664.56391,0.09344
3662.63520,0.09390
3660.70648,0.09381
3658.77776,0.09336
3656.84904,0.09276
3654.92033,0.09226
3652.99161,0.09203
3651.06289,0.09163
3649.13417,0.09027
3647.20545,0.08890
3645.27674,0.08885
3643.34802,0.08945
3641.41930,0.09011
3639.49058,0.09068
3637.56186,0.09100
3635.63315,0.09108
3633.70443,0.09131
3631.77571,0.09172
3629.84699,0.09206
3627.91828,0.09259
3625.98956,0.09318
3624.06084,0.09322
3622.13212,0.09263
3620.20340,0.09158
3618.27469,0.09056
3616.34597,0.09015
3614.41725,0.09014
3612.48853,0.08992
3610.55981,0.08879
3608.63110,0.08671
3606.70238,0.08514
3604.77366,0.08497
3602.84494,0.08555
3600.91623,0.08668
3598.98751,0.08843
3597.05879,0.09036
3595.13007,0.09227
3593.20135,0.09409
3591.27264,0.09540
3589.34392,0.09599
3587.41520,0.09581
3585.48648,0.09541
3583.55776,0.09542
3581.62905,0.09556
3579.70033,0.09552
3577.77161,0.09546
3575.84289,0.09551
3573.91418,0.09559
3571.98546,0.09573
3570.05674,0.09611
3568.12802,0.09653
3566.19930,0.09651
3564.27059,0.09650
3562.34187,0.09704
3560.41315,0.09787
3558.48443,0.09862
3556.55571,0.09921
3554.62700,0.09958
3552.69828,0.09941
3550.76956,0.09891
3548.84084,0.09870
3546.91213,0.09874
3544.98341,0.09857
3543.05469,0.09809
3541.12597,0.09772
3539.19725,0.09750
3537.26854,0.09711
3535.33982,0.09682
3533.41110,0.09712
3531.48238,0.09761
3529.55366,0.09763
3527.62495,0.09724
3525.69623,0.09711
3523.76751,0.09754
3521.83879,0.09826
3519.91008,0.09878
3517.98136,0.09893
3516.05264,0.09882
3514.12392,0.09866
3512.19520,0.09838
3510.26649,0.09785
3508.33777,0.09730
3506.40905,0.09698
3504.48033,0.09675
3502.55161,0.09667
3500.62290,0.09683
3498.69418,0.09699
3496.76546,0.09717
3494.83674,0.09751
3492.90803,0.09789
3490.97931,0.09825
3489.05059,0.09864
3487.12187,0.09875
3485.19315,0.09829
3483.26444,0.09774
3481.33572,0.09760
3479.40700,0.09763
3477.47828,0.09742
3475.54956,0.09692
3473.62085,0.09636
3471.69213,0.09594
3469.76341,0.09556
3467.83469,0.09525
3465.90598,0.09541
3463.97726,0.09610
3462.04854,0.09667
3460.11982,0.09658
3458.19110,0.09612
3456.26239,0.09607
3454.33367,0.09671
3452.40495,0.09755
3450.47623,0.09781
3448.54752,0.09720
3446.61880,0.09639
3444.69008,0.09617
3442.76136,0.09627
3440.83264,0.09604
3438.90393,0.09552
3436.97521,0.09517
3435.04649,0.09493
3433.11777,0.09465
3431.18905,0.09464
3429.26034,0.09502
3427.33162,0.09560
3425.40290,0.09614
3423.47418,0.09654
3421.54547,0.09676
3419.61675,0.09663
3417.68803,0.09645
3415.75931,0.09659
3413.83059,0.09668
3411.90188,0.09622
3409.97316,0.09550
3408.04444,0.09520
3406.11572,0.09532
3404.18700,0.09536
3402.25829,0.09518
3400.32957,0.09500
3398.40085,0.09496
3396.47213,0.09502
3394.54342,0.09512
3392.61470,0.09525
3390.68598,0.09536
3388.75726,0.09537
3386.82854,0.09533
3384.89983,0.09547
3382.97111,0.09579
3381.04239,0.09584
3379.11367,0.09546
3377.18495,0.09501
3375.25624,0.09452
3373.32752,0.09405
3371.39880,0.09400
3369.47008,0.09423
3367.54137,0.09413
3365.61265,0.09360
3363.68393,0.09335
3361.75521,0.09387
3359.82649,0.09462
3357.89778,0.09493
3355.96906,0.09488
3354.04034,0.09501
3352.11162,0.09543
3350.18290,0.09569
3348.25419,0.09572
3346.32547,0.09583
3344.39675,0.09569
3342.46803,0.09505
3340.53932,0.09459
3338.61060,0.09473
3336.68188,0.09495
3334.75316,0.09486
3332.82444,0.09473
3330.89573,0.09470
3328.96701,0.09479
3327.03829,0.09522
3325.10957,0.09586
3323.18085,0.09622
3321.25214,0.09643
3319.32342,0.09680
3317.39470,0.09724
3315.46598,0.09748
3313.53727,0.09728
3311.60855,0.09680
3309.67983,0.09620
3307.75111,0.09541
3305.82239,0.09484
3303.89368,0.09471
3301.96496,0.09447
3300.03624,0.09401
3298.10752,0.09397
3296.17880,0.09439
3294.25009,0.09491
3292.32137,0.09557
3290.39265,0.09615
3288.46393,0.09614
3286.53522,0.09573
3284.60650,0.09555
3282.67778,0.09590
3280.74906,0.09633
3278.82034,0.09625
3276.89163,0.09580
3274.96291,0.09537
3273.03419,0.09490
3271.10547,0.09446
3269.17676,0.09430
3267.24804,0.09438
3265.31932,0.09464
3263.39060,0.09479
3261.46188,0.09478
3259.53317,0.09507
3257.60445,0.09561
3255.67573,0.09590
3253.74701,0.09608
3251.81829,0.09633
3249.88958,0.09625
3247.96086,0.09583
3246.03214,0.09534
3244.10342,0.09481
3242.17471,0.09444
3240.24599,0.09446
3238.31727,0.09464
3236.38855,0.09470
3234.45983,0.09467
3232.53112,0.09476
3230.60240,0.09486
3228.67368,0.09481
3226.74496,0.09470
3224.81624,0.09478
3222.88753,0.09501
3220.95881,0.09512
3219.03009,0.09502
3217.10137,0.09484
3215.17266,0.09446
3213.24394,0.09406
3211.31522,0.09398
3209.38650,0.09399
3207.45778,0.09378
3205.52907,0.09339
3203.60035,0.09317
3201.67163,0.09320
3199.74291,0.09326
3197.81419,0.09328
3195.88548,0.09326
3193.95676,0.09311
3192.02804,0.09301
3190.09932,0.09310
3188.17061,0.09327
3186.24189,0.09342
3184.31317,0.09341
3182.38445,0.09301
3180.45573,0.09227
3178.52702,0.09166
3176.59830,0.09145
3174.66958,0.09155
3172.74086,0.09174
3170.81214,0.09189
3168.88343,0.09195
3166.95471,0.09197
3165.02599,0.09195
3163.09727,0.09196
3161.16856,0.09189
3159.23984,0.09168
3157.31112,0.09158
3155.38240,0.09140
3153.45368,0.09090
3151.52497,0.09047
3149.59625,0.09028
3147.66753,0.08996
3145.73881,0.08937
3143.81009,0.08880
3141.88138,0.08848
3139.95266,0.08848
3138.02394,0.08859
3136.09522,0.08840
3134.16651,0.08821
3132.23779,0.08852
3130.30907,0.08893
3128.38035,0.08888
3126.45163,0.08854
3124.52292,0.08816
3122.59420,0.08782
3120.66548,0.08756
3118.73676,0.08707
3116.80804,0.08621
3114.87933,0.08531
3112.95061,0.08469
3111.02189,0.08441
3109.09317,0.08425
3107.16446,0.08398
3105.23574,0.08378
3103.30702,0.08361
3101.37830,0.08304
3099.44958,0.08217
3097.52087,0.08139
3095.59215,0.08044
3093.66343,0.07925
3091.73471,0.07805
3089.80600,0.07683
3087.87728,0.07568
3085.94856,0.07488
3084.01984,0.07460
3082.09112,0.07466
3080.16241,0.07453
3078.23369,0.07411
3076.30497,0.07367
3074.37625,0.07327
3072.44753,0.07308
3070.51882,0.07312
3068.59010,0.07295
3066.66138,0.07248
3064.73266,0.07202
3062.80395,0.07159
3060.87523,0.07109
3058.94651,0.07042
3057.01779,0.06959
3055.08907,0.06902
3053.16036,0.06893
3051.23164,0.06886
3049.30292,0.06853
3047.37420,0.06817
3045.44548,0.06769
3043.51677,0.06685
3041.58805,0.06584
3039.65933,0.06513
3037.73061,0.06477
3035.80190,0.06432
3033.87318,0.06360
3031.94446,0.06298
3030.01574,0.06266
3028.08702,0.06244
3026.15831,0.06218
3024.22959,0.06175
3022.30087,0.06121
3020.37215,0.06067
3018.44343,0.06004
3016.51472,0.05946
3014.58600,0.05910
3012.65728,0.05891
3010.72856,0.05875
3008.79985,0.05859
3006.87113,0.05843
3004.94241,0.05810
3003.01369,0.05753
3001.08497,0.05684
2999.15626,0.05614
2997.22754,0.05552
2995.29882,0.05497
2993.37010,0.05457
2991.44138,0.05442
2989.51267,0.05425
2987.58395,0.05387
2985.65523,0.05335
2983.72651,0.05258
2981.79780,0.05178
2979.86908,0.05141
2977.94036,0.05129
2976.01164,0.05093
2974.08292,0.05031
2972.15421,0.04976
2970.22549,0.04932
2968.29677,0.04881
2966.36805,0.04846
2964.43933,0.04842
2962.51062,0.04825
2960.58190,0.04771
2958.65318,0.04717
2956.72446,0.04692
2954.79575,0.04675
2952.86703,0.04628
2950.93831,0.04540
2949.00959,0.04437
2947.08087,0.04346
2945.15216,0.04269
2943.22344,0.04177
2941.29472,0.04060
2939.36600,0.03955
2937.43728,0.03890
2935.50857,0.03866
2933.57985,0.03900
2931.65113,0.04003
2929.72241,0.04171
2927.79370,0.04447
2925.86498,0.04899
2923.93626,0.05560
2922.00754,0.06417
2920.07882,0.07398
2918.15011,0.08318
2916.22139,0.08915
2914.29267,0.09032
2912.36395,0.08781
2910.43524,0.08402
2908.50652,0.08049
2906.57780,0.07770
2904.64908,0.07568
2902.72036,0.07430
2900.79165,0.07326
2898.86293,0.07228
2896.93421,0.07145
2895.00549,0.07094
2893.07677,0.07057
2891.14806,0.07010
2889.21934,0.06948
2887.29062,0.06878
2885.36190,0.06810
2883.43319,0.06745
2881.50447,0.06659
2879.57575,0.06545
2877.64703,0.06439
2875.71831,0.06354
2873.78960,0.06275
2871.86088,0.06189
2869.93216,0.06096
2868.00344,0.06007
2866.07472,0.05912
2864.14601,0.05788
2862.21729,0.05641
2860.28857,0.05506
2858.35985,0.05408
2856.43114,0.05412
2854.50242,0.05655
2852.57370,0.06270
2850.64498,0.07239
2848.71626,0.08218
2846.78755,0.08748
2844.85883,0.08731
2842.93011,0.08442
2841.00139,0.08125
2839.07267,0.07859
2837.14396,0.07648
2835.21524,0.07488
2833.28652,0.07367
2831.35780,0.07272
2829.42909,0.07195
2827.50037,0.07127
2825.57165,0.07064
2823.64293,0.07016
2821.71421,0.06990
2819.78550,0.06975
2817.85678,0.06949
2815.92806,0.06910
2813.99934,0.06879
2812.07062,0.06862
2810.14191,0.06844
2808.21319,0.06825
2806.28447,0.06813
2804.35575,0.06808
2802.42704,0.06822
2800.49832,0.06837
2798.56960,0.06821
2796.64088,0.06806
2794.71216,0.06829
2792.78345,0.06875
2790.85473,0.06917
2788.92601,0.06943
2786.99729,0.06970
2785.06857,0.07014
2783.13986,0.07060
2781.21114,0.07099
2779.28242,0.07143
2777.35370,0.07190
2775.42499,0.07231
2773.49627,0.07283
2771.56755,0.07343
2769.63883,0.07386
2767.71011,0.07401
2765.78140,0.07389
2763.85268,0.07356
2761.92396,0.07328
2759.99524,0.07338
2758.06652,0.07376
2756.13781,0.07414
2754.20909,0.07461
2752.28037,0.07521
2750.35165,0.07570
2748.42294,0.07584
2746.49422,0.07556
2744.56550,0.07502
2742.63678,0.07453
2740.70806,0.07427
2738.77935,0.07424
2736.85063,0.07417
2734.92191,0.07398
2732.99319,0.07404
2731.06448,0.07448
2729.13576,0.07505
2727.20704,0.07534
2725.27832,0.07535
2723.34960,0.07552
2721.42089,0.07593
2719.49217,0.07618
2717.56345,0.07607
2715.63473,0.07584
2713.70601,0.07568
2711.77730,0.07552
2709.84858,0.07542
2707.91986,0.07569
2705.99114,0.07628
2704.06243,0.07675
2702.13371,0.07698
2700.20499,0.07730
2698.27627,0.07779
2696.34755,0.07798
2694.41884,0.07759
2692.49012,0.07693
2690.56140,0.07653
2688.63268,0.07621
2686.70396,0.07557
2684.77525,0.07490
2682.84653,0.07456
2680.91781,0.07446
2678.98909,0.07442
2677.06038,0.07447
2675.13166,0.07474
2673.20294,0.07514
2671.27422,0.07536
2669.34550,0.07524
2667.41679,0.07510
2665.48807,0.07513
2663.55935,0.07513
2661.63063,0.07506
2659.70191,0.07493
2657.77320,0.07459
2655.84448,0.07409
2653.91576,0.07376
2651.98704,0.07371
2650.05833,0.07374
2648.12961,0.07369
2646.20089,0.07365
2644.27217,0.07389
2642.34345,0.07441
2640.41474,0.07489
2638.48602,0.07507
2636.55730,0.07503
2634.62858,0.07501
2632.69986,0.07524
2630.77115,0.07563
2628.84243,0.07581
2626.91371,0.07580
2624.98499,0.07596
2623.05628,0.07629
2621.12756,0.07659
2619.19884,0.07694
2617.27012,0.07751
2615.34140,0.07823
2613.41269,0.07892
2611.48397,0.07949
2609.55525,0.08014
2607.62653,0.08098
2605.69781,0.08180
2603.76910,0.08243
2601.84038,0.08295
2599.91166,0.08342
2597.98294,0.08367
2596.05423,0.08367
2594.12551,0.08356
2592.19679,0.08350
2590.26807,0.08359
2588.33935,0.08387
2586.41064,0.08427
2584.48192,0.08464
2582.55320,0.08509
2580.62448,0.08572
2578.69576,0.08637
2576.76705,0.08707
2574.83833,0.08796
2572.90961,0.08896
2570.98089,0.08980
2569.05218,0.09029
2567.12346,0.09038
2565.19474,0.09016
2563.26602,0.08985
2561.33730,0.08961
2559.40859,0.08944
2557.47987,0.08935
2555.55115,0.08925
2553.62243,0.08912
2551.69372,0.08922
2549.76500,0.08972
2547.83628,0.09042
2545.90756,0.09118
2543.97884,0.09209
2542.05013,0.09315
2540.12141,0.09401
2538.19269,0.09441
2536.26397,0.09445
2534.33525,0.09418
2532.40654,0.09372
2530.47782,0.09316
2528.54910,0.09247
2526.62038,0.09185
2524.69167,0.09151
2522.76295,0.09147
2520.83423,0.09179
2518.90551,0.09242
2516.97679,0.09317
2515.04808,0.09394
2513.11936,0.09478
2511.19064,0.09566
2509.26192,0.09642
2507.33320,0.09703
2505.40449,0.09752
2503.47577,0.09793
2501.54705,0.09816
2499.61833,0.09797
2497.68962,0.09736
2495.76090,0.09674
2493.83218,0.09633
2491.90346,0.09597
2489.97474,0.09554
2488.04603,0.09522
2486.11731,0.09515
2484.18859,0.09533
2482.25987,0.09574
2480.33115,0.09635
2478.40244,0.09717
2476.47372,0.09807
2474.54500,0.09891
2472.61628,0.09962
2470.68757,0.10009
2468.75885,0.10033
2466.83013,0.10030
2464.90141,0.09994
2462.97269,0.09948
2461.04398,0.09910
2459.11526,0.09863
2457.18654,0.09800
2455.25782,0.09754
2453.32910,0.09745
2451.40039,0.09768
2449.47167,0.09816
2447.54295,0.09886
2445.61423,0.09963
2443.68552,0.10028
2441.75680,0.10085
2439.82808,0.10134
2437.89936,0.10156
2435.97064,0.10144
2434.04193,0.10104
2432.11321,0.10030
2430.18449,0.09938
2428.25577,0.09840
2426.32705,0.09730
2424.39834,0.09628
2422.46962,0.09566
2420.54090,0.09541
2418.61218,0.09546
2416.68347,0.09575
2414.75475,0.09617
2412.82603,0.09684
2410.89731,0.09789
2408.96859,0.09905
2407.03988,0.09984
2405.11116,0.10014
2403.18244,0.10024
2401.25372,0.10023
2399.32500,0.10005
2397.39629,0.09963
2395.46757,0.09900
2393.53885,0.09821
2391.61013,0.09748
2389.68142,0.09702
2387.75270,0.09670
2385.82398,0.09634
2383.89526,0.09616
2381.96654,0.09636
2380.03783,0.09697
2378.10911,0.09788
2376.18039,0.09878
2374.25167,0.09941
2372.32296,0.09981
2370.39424,0.10015
2368.46552,0.10035
2366.53680,0.10018
2364.60808,0.09937
2362.67937,0.09800
2360.75065,0.09651
2358.82193,0.09518
2356.89321,0.09394
2354.96449,0.09272
2353.03578,0.09171
2351.10706,0.09112
2349.17834,0.09092
2347.24962,0.09105
2345.32091,0.09148
2343.39219,0.09204
2341.46347,0.09253
2339.53475,0.09309
2337.60603,0.09365
2335.67732,0.09388
2333.74860,0.09373
2331.81988,0.09338
2329.89116,0.09296
2327.96244,0.09241
2326.03373,0.09168
2324.10501,0.09112
2322.17629,0.09103
2320.24757,0.09130
2318.31886,0.09151
2316.39014,0.09166
2314.46142,0.09205
2312.53270,0.09274
2310.60398,0.09367
2308.67527,0.09480
2306.74655,0.09597
2304.81783,0.09701
2302.88911,0.09776
2300.96039,0.09815
2299.03168,0.09833
2297.10296,0.09842
2295.17424,0.09821
2293.24552,0.09747
2291.31681,0.09647
2289.38809,0.09571
2287.45937,0.09514
2285.53065,0.09455
2283.60193,0.09410
2281.67322,0.09401
2279.74450,0.09425
2277.81578,0.09478
2275.88706,0.09569
2273.95834,0.09692
2272.02963,0.09817
2270.10091,0.09928
2268.17219,0.10017
2266.24347,0.10083
2264.31476,0.10127
2262.38604,0.10138
2260.45732,0.10101
2258.52860,0.10026
2256.59988,0.09934
2254.67117,0.09830
2252.74245,0.09736
2250.81373,0.09671
2248.88501,0.09629
2246.95629,0.09613
2245.02758,0.09639
2243.09886,0.09709
2241.17014,0.09816
2239.24142,0.09941
2237.31271,0.10071
2235.38399,0.10195
2233.45527,0.10282
2231.52655,0.10319
2229.59783,0.10325
2227.66912,0.10302
2225.74040,0.10236
2223.81168,0.10135
2221.88296,0.10029
2219.95424,0.09939
2218.02553,0.09859
2216.09681,0.09789
2214.16809,0.09750
2212.23937,0.09746
2210.31066,0.09775
2208.38194,0.09840
2206.45322,0.09930
2204.52450,0.10024
2202.59578,0.10117
2200.66707,0.10208
2198.73835,0.10283
2196.80963,0.10321
2194.88091,0.10319
2192.95220,0.10292
2191.02348,0.10231
2189.09476,0.10138
2187.16604,0.10039
2185.23732,0.09937
2183.30861,0.09842
2181.37989,0.09787
2179.45117,0.09773
2177.52245,0.09775
2175.59373,0.09796
2173.66502,0.09854
2171.73630,0.09935
2169.80758,0.10016
2167.87886,0.10095
2165.95015,0.10175
2164.02143,0.10235
2162.09271,0.10264
2160.16399,0.10271
2158.23527,0.10249
2156.30656,0.10179
2154.37784,0.10066
2152.44912,0.09951
2150.52040,0.09854
2148.59168,0.09762
2146.66297,0.09680
2144.73425,0.09634
2142.80553,0.09631
2140.87681,0.09675
2138.94810,0.09760
2137.01938,0.09857
2135.09066,0.09981
2133.16194,0.10144
2131.23322,0.10304
2129.30451,0.10408
2127.37579,0.10451
2125.44707,0.10454
2123.51835,0.10432
2121.58963,0.10387
2119.66092,0.10315
2117.73220,0.10212
2115.80348,0.10096
2113.87476,0.09991
2111.94605,0.09909
2110.01733,0.09849
2108.08861,0.09827
2106.15989,0.09851
2104.23117,0.09909
2102.30246,0.09986
2100.37374,0.10088
2098.44502,0.10223
2096.51630,0.10353
2094.58758,0.10438
2092.65887,0.10477
2090.73015,0.10469
2088.80143,0.10421
2086.87271,0.10356
2084.94400,0.10271
2083.01528,0.10151
2081.08656,0.10012
2079.15784,0.09879
2077.22912,0.09781
2075.30041,0.09740
2073.37169,0.09736
2071.44297,0.09754
2069.51425,0.09808
2067.58553,0.09891
2065.65682,0.09977
2063.72810,0.10061
2061.79938,0.10142
2059.87066,0.10204
2057.94195,0.10230
2056.01323,0.10229
2054.08451,0.10204
2052.15579,0.10149
2050.22707,0.10064
2048.29836,0.09965
2046.36964,0.09859
2044.44092,0.09739
2042.51220,0.09606
2040.58348,0.09504
2038.65477,0.09468
2036.72605,0.09479
2034.79733,0.09509
2032.86861,0.09548
2030.93990,0.09591
2029.01118,0.09641
2027.08246,0.09687
2025.15374,0.09710
2023.22502,0.09713
2021.29631,0.09708
2019.36759,0.09697
2017.43887,0.09678
2015.51015,0.09670
2013.58143,0.09684
2011.65272,0.09708
2009.72400,0.09722
2007.79528,0.09714
2005.86656,0.09690
2003.93785,0.09684
2002.00913,0.09723
2000.08041,0.09794
1998.15169,0.09873
1996.22297,0.09959
1994.29426,0.10065
1992.36554,0.10191
1990.43682,0.10308
1988.50810,0.10391
1986.57939,0.10446
1984.65067,0.10477
1982.72195,0.10462
1980.79323,0.10390
1978.86451,0.10290
1976.93580,0.10190
1975.00708,0.10085
1973.07836,0.09971
1971.14964,0.09870
1969.22092,0.09817
1967.29221,0.09815
1965.36349,0.09838
1963.43477,0.09883
1961.50605,0.09967
1959.57734,0.10074
1957.64862,0.10177
1955.71990,0.10267
1953.79118,0.10339
1951.86246,0.10392
1949.93375,0.10412
1948.00503,0.10384
1946.07631,0.10316
1944.14759,0.10224
1942.21887,0.10115
1940.29016,0.10016
1938.36144,0.09933
1936.43272,0.09845
1934.50400,0.09763
1932.57529,0.09728
1930.64657,0.09745
1928.71785,0.09789
1926.78913,0.09855
1924.86041,0.09940
1922.93170,0.10041
1921.00298,0.10147
1919.07426,0.10237
1917.14554,0.10295
1915.21682,0.10312
1913.28811,0.10285
1911.35939,0.10206
1909.43067,0.10084
1907.50195,0.09958
1905.57324,0.09839
1903.64452,0.09705
1901.71580,0.09569
1899.78708,0.09467
1897.85836,0.09418
1895.92965,0.09419
1894.00093,0.09469
1892.07221,0.09575
1890.14349,0.09738
1888.21477,0.09924
1886.28606,0.10073
1884.35734,0.10184
1882.42862,0.10283
1880.49990,0.10365
1878.57119,0.10411
1876.64247,0.10407
1874.71375,0.10359
1872.78503,0.10295
1870.85631,0.10223
1868.92760,0.10116
1866.99888,0.09996
1865.07016,0.09912
1863.14144,0.09867
1861.21272,0.09857
1859.28401,0.09877
1857.35529,0.09932
1855.42657,0.10027
1853.49785,0.10140
1851.56914,0.10254
1849.64042,0.10356
1847.71170,0.10431
1845.78298,0.10458
1843.85426,0.10437
1841.92555,0.10408
1839.99683,0.10377
1838.06811,0.10318
1836.13939,0.10233
1834.21067,0.10140
1832.28196,0.10042
1830.35324,0.09921
1828.42452,0.09814
1826.49580,0.09778
1824.56709,0.09791
1822.63837,0.09818
1820.70965,0.09858
1818.78093,0.09917
1816.85221,0.10000
1814.92350,0.10097
1812.99478,0.10182
1811.06606,0.10242
1809.13734,0.10288
1807.20863,0.10315
1805.27991,0.10313
1803.35119,0.10278
1801.42247,0.10186
1799.49375,0.10055
1797.56504,0.09956
1795.63632,0.09885
1793.70760,0.09794
1791.77888,0.09688
1789.85016,0.09653
1787.92145,0.09699
1785.99273,0.09779
1784.06401,0.09867
1782.13529,0.09955
1780.20658,0.10035
1778.27786,0.10093
1776.34914,0.10134
1774.42042,0.10157
1772.49170,0.10157
1770.56299,0.10140
1768.63427,0.10093
1766.70555,0.10010
1764.77683,0.09921
1762.84811,0.09808
1760.91940,0.09655
1758.99068,0.09530
1757.06196,0.09431
1755.13324,0.09343
1753.20453,0.09276
1751.27581,0.09217
1749.34709,0.09181
1747.41837,0.09199
1745.48965,0.09247
1743.56094,0.09316
1741.63222,0.09403
1739.70350,0.09503
1737.77478,0.09600
1735.84606,0.09682
1733.91735,0.09752
1731.98863,0.09780
1730.05991,0.09753
1728.13119,0.09688
1726.20248,0.09579
1724.27376,0.09446
1722.34504,0.09350
1720.41632,0.09313
1718.48760,0.09285
1716.55889,0.09234
1714.63017,0.09222
1712.70145,0.09295
1710.77273,0.09418
1708.84401,0.09547
1706.91530,0.09674
1704.98658,0.09805
1703.05786,0.09893
1701.12914,0.09898
1699.20043,0.09881
1697.27171,0.09874
1695.34299,0.09829
1693.41427,0.09809
1691.48555,0.09798
1689.55684,0.09733
1687.62812,0.09645
1685.69940,0.09576
1683.77068,0.09511
1681.84196,0.09491
1679.91325,0.09515
1677.98453,0.09554
1676.05581,0.09610
1674.12709,0.09690
1672.19838,0.09775
1670.26966,0.09844
1668.34094,0.09894
1666.41222,0.09949
1664.48350,0.09994
1662.55479,0.09980
1660.62607,0.09921
1658.69735,0.09869
1656.76863,0.09830
1654.83991,0.09766
1652.91120,0.09567
1650.98248,0.09425
1649.05376,0.09421
1647.12504,0.09398
1645.19633,0.09318
1643.26761,0.09287
1641.33889,0.09318
1639.41017,0.09379
1637.48145,0.09451
1635.55274,0.09534
1633.62402,0.09617
1631.69530,0.09689
1629.76658,0.09742
1627.83787,0.09778
1625.90915,0.09797
1623.98043,0.09761
1622.05171,0.09664
1620.12299,0.09574
1618.19428,0.09486
1616.26556,0.09374
1614.33684,0.09288
1612.40812,0.09240
1610.47940,0.09207
1608.55069,0.09184
1606.62197,0.09193
1604.69325,0.09246
1602.76453,0.09322
1600.83582,0.09396
1598.90710,0.09480
1596.97838,0.09578
1595.04966,0.09655
1593.12094,0.09678
1591.19223,0.09651
1589.26351,0.09603
1587.33479,0.09542
1585.40607,0.09461
1583.47735,0.09367
1581.54864,0.09276
1579.61992,0.09189
1577.69120,0.09096
1575.76248,0.09013
1573.83377,0.08985
1571.90505,0.08993
1569.97633,0.09036
1568.04761,0.09126
1566.11889,0.09225
1564.19018,0.09329
1562.26146,0.09443
1560.33274,0.09534
1558.40402,0.09528
1556.47530,0.09482
1554.54659,0.09450
1552.61787,0.09400
1550.68915,0.09332
1548.76043,0.09233
1546.83172,0.09117
1544.90300,0.08984
1542.97428,0.08833
1541.04556,0.08712
1539.11684,0.08682
1537.18813,0.08695
1535.25941,0.08722
1533.33069,0.08817
1531.40197,0.08961
1529.47325,0.09075
1527.54454,0.09163
1525.61582,0.09226
1523.68710,0.09230
1521.75838,0.09130
1519.82967,0.08990
1517.90095,0.08855
1515.97223,0.08664
1514.04351,0.08480
1512.11479,0.08340
1510.18608,0.08215
1508.25736,0.08084
1506.32864,0.07980
1504.39992,0.07998
1502.47120,0.08051
1500.54249,0.08098
1498.61377,0.08118
1496.68505,0.08070
1494.75633,0.07969
1492.82762,0.07851
1490.89890,0.07648
1488.97018,0.07278
1487.04146,0.06858
1485.11274,0.06541
1483.18403,0.06336
1481.25531,0.06158
1479.32659,0.05916
1477.39787,0.05605
1475.46915,0.05359
1473.54044,0.05395
1471.61172,0.05625
1469.68300,0.05740
1467.75428,0.05772
1465.82557,0.05837
1463.89685,0.06020
1461.96813,0.06242
1460.03941,0.06373
1458.11069,0.06367
1456.18198,0.06294
1454.25326,0.06289
1452.32454,0.06282
1450.39582,0.06234
1448.46711,0.06174
1446.53839,0.06133
1444.60967,0.06114
1442.68095,0.06122
1440.75223,0.06156
1438.82352,0.06225
1436.89480,0.06364
1434.96608,0.06566
1433.03736,0.06793
1431.10864,0.07090
1429.17993,0.07453
1427.25121,0.07763
1425.32249,0.07951
1423.39377,0.08013
1421.46506,0.07984
1419.53634,0.07922
1417.60762,0.07891
1415.67890,0.07940
1413.75018,0.08077
1411.82147,0.08307
1409.89275,0.08601
1407.96403,0.08899
1406.03531,0.09164
1404.10659,0.09361
1402.17788,0.09443
1400.24916,0.09398
1398.32044,0.09230
1396.39172,0.08980
1394.46301,0.08669
1392.53429,0.08355
1390.60557,0.08097
1388.67685,0.07862
1386.74813,0.07622
1384.81942,0.07388
1382.89070,0.07118
1380.96198,0.06813
1379.03326,0.06630
1377.10454,0.06684
1375.17583,0.06883
1373.24711,0.07035
1371.31839,0.07066
1369.38967,0.07054
1367.46096,0.07071
1365.53224,0.07131
1363.60352,0.07193
1361.67480,0.07199
1359.74608,0.07130
1357.81737,0.07006
1355.88865,0.06845
1353.95993,0.06691
1352.03121,0.06596
1350.10249,0.06583
1348.17378,0.06664
1346.24506,0.06838
1344.31634,0.07083
1342.38762,0.07384
1340.45891,0.07757
1338.53019,0.08187
1336.60147,0.08582
1334.67275,0.08886
1332.74403,0.09073
1330.81532,0.09107
1328.88660,0.08992
1326.95788,0.08762
1325.02916,0.08446
1323.10044,0.08061
1321.17173,0.07658
1319.24301,0.07312
1317.31429,0.07097
1315.38557,0.07000
1313.45686,0.06959
1311.52814,0.06987
1309.59942,0.07126
1307.67070,0.07336
1305.74198,0.07559
1303.81327,0.07776
1301.88455,0.07984
1299.95583,0.08169
1298.02711,0.08321
1296.09839,0.08424
1294.16968,0.08451
1292.24096,0.08395
1290.31224,0.08264
1288.38352,0.08087
1286.45481,0.07879
1284.52609,0.07648
1282.59737,0.07436
1280.66865,0.07303
1278.73993,0.07278
1276.81122,0.07356
1274.88250,0.07532
1272.95378,0.07808
1271.02506,0.08161
1269.09635,0.08539
1267.16763,0.08907
1265.23891,0.09249
1263.31019,0.09515
1261.38147,0.09649
1259.45276,0.09643
1257.52404,0.09519
1255.59532,0.09295
1253.66660,0.08971
1251.73788,0.08580
1249.80917,0.08206
1247.88045,0.07905
1245.95173,0.07706
1244.02301,0.07652
1242.09430,0.07751
1240.16558,0.07971
1238.23686,0.08293
1236.30814,0.08694
1234.37942,0.09121
1232.45071,0.09526
1230.52199,0.09880
1228.59327,0.10143
1226.66455,0.10272
1224.73583,0.10250
1222.80712,0.10067
1220.87840,0.09739
1218.94968,0.09329
1217.02096,0.08896
1215.09225,0.08481
1213.16353,0.08118
1211.23481,0.07857
1209.30609,0.07745
1207.37737,0.07780
1205.44866,0.07950
1203.51994,0.08268
1201.59122,0.08699
1199.66250,0.09170
1197.73378,0.09629
1195.80507,0.10030
1193.87635,0.10321
1191.94763,0.10463
1190.01891,0.10447
1188.09020,0.10278
1186.16148,0.09951
1184.23276,0.09493
1182.30404,0.08973
1180.37532,0.08450
1178.44661,0.07967
1176.51789,0.07613
1174.58917,0.07446
1172.66045,0.07446
1170.73173,0.07592
1168.80302,0.07907
1166.87430,0.08367
1164.94558,0.08885
1163.01686,0.09395
1161.08815,0.09865
1159.15943,0.10238
1157.23071,0.10465
1155.30199,0.10516
1153.37327,0.10382
1151.44456,0.10090
1149.51584,0.09685
1147.58712,0.09189
1145.65840,0.08658
1143.72968,0.08161
1141.80097,0.07759
1139.87225,0.07509
1137.94353,0.07436
1136.01481,0.07554
1134.08610,0.07867
1132.15738,0.08333
1130.22866,0.08887
1128.29994,0.09485
1126.37122,0.10077
1124.44251,0.10593
1122.51379,0.10958
1120.58507,0.11109
1118.65635,0.11025
1116.72763,0.10732
1114.79892,0.10274
1112.87020,0.09713
1110.94148,0.09102
1109.01276,0.08486
1107.08405,0.07955
1105.15533,0.07598
1103.22661,0.07438
1101.29789,0.07480
1099.36917,0.07748
1097.44046,0.08210
1095.51174,0.08765
1093.58302,0.09338
1091.65430,0.09896
1089.72559,0.10372
1087.79687,0.10690
1085.86815,0.10830
1083.93943,0.10781
1082.01071,0.10535
1080.08200,0.10148
1078.15328,0.09682
1076.22456,0.09158
1074.29584,0.08612
1072.36712,0.08109
1070.43841,0.07719
1068.50969,0.07494
1066.58097,0.07448
1064.65225,0.07595
1062.72354,0.07989
1060.79482,0.08599
1058.86610,0.09303
1056.93738,0.10015
1055.00866,0.10663
1053.07995,0.11146
1051.15123,0.11438
1049.22251,0.11554
1047.29379,0.11451
1045.36507,0.11100
1043.43636,0.10542
1041.50764,0.09862
1039.57892,0.09164
1037.65020,0.08523
1035.72149,0.07987
1033.79277,0.07617
1031.86405,0.07460
1029.93533,0.07541
1028.00661,0.07881
1026.07790,0.08429
1024.14918,0.09077
1022.22046,0.09752
1020.29174,0.10407
1018.36302,0.10986
1016.43431,0.11448
1014.50559,0.11748
1012.57687,0.11850
1010.64815,0.11755
1008.71944,0.11415
1006.79072,0.10783
1004.86200,0.09973
1002.93328,0.09157
1001.00456,0.08428
999.07585,0.07844
997.14713,0.07481
995.21841,0.07411
993.28969,0.07663
991.36097,0.08198
989.43226,0.08923
987.50354,0.09745
985.57482,0.10593
983.64610,0.11380
981.71739,0.12005
979.78867,0.12384
977.85995,0.12459
975.93123,0.12192
974.00251,0.11613
972.07380,0.10817
970.14508,0.09900
968.21636,0.08960
966.28764,0.08109
964.35892,0.07452
962.43021,0.07058
960.50149,0.06959
958.57277,0.07160
956.64405,0.07637
954.71534,0.08324
952.78662,0.09169
950.85790,0.10107
948.92918,0.11024
947.00046,0.11802
945.07175,0.12345
943.14303,0.12569
941.21431,0.12427
939.28559,0.11952
937.35687,0.11223
935.42816,0.10331
933.49944,0.09368
931.57072,0.08436
929.64200,0.07631
927.71329,0.07049
925.78457,0.06774
923.85585,0.06850
921.92713,0.07258
919.99841,0.07962
918.06970,0.08899
916.14098,0.09939
914.21226,0.10931
912.28354,0.11754
910.35483,0.12323
908.42611,0.12598
906.49739,0.12589
904.56867,0.12271
902.63995,0.11627
900.71124,0.10722
898.78252,0.09647
896.85380,0.08536
894.92508,0.07565
892.99636,0.06867
891.06765,0.06494
889.13893,0.06463
887.21021,0.06811
885.28149,0.07523
883.35278,0.08476
881.42406,0.09552
879.49534,0.10650
877.56662,0.11643
875.63790,0.12419
873.70919,0.12897
871.78047,0.13007
869.85175,0.12707
867.92303,0.12039
865.99431,0.11096
864.06560,0.10001
862.13688,0.08858
860.20816,0.07767
858.27944,0.06898
856.35073,0.06412
854.42201,0.06345
852.49329,0.06636
850.56457,0.07257
848.63585,0.08190
846.70714,0.09321
844.77842,0.10483
842.84970,0.11540
840.92098,0.12412
838.99226,0.13006
837.06355,0.13220
835.13483,0.12987
833.20611,0.12303
831.27739,0.11285
829.34868,0.10103
827.41996,0.08880
825.49124,0.07731
823.56252,0.06787
821.63380,0.06160
819.70509,0.05940
817.77637,0.06177
815.84765,0.06824
813.91893,0.07795
811.99021,0.08994
810.06150,0.10251
808.13278,0.11373
806.20406,0.12246
804.27534,0.12766
802.34663,0.12858
800.41791,0.12539
798.48919,0.11837
796.56047,0.10815
794.63175,0.09592
792.70304,0.08294
790.77432,0.07088
788.84560,0.06156
786.91688,0.05608
784.98816,0.05470
783.05945,0.05734
781.13073,0.06365
779.20201,0.07264
777.27329,0.08337
775.34458,0.09492
773.41586,0.10527
771.48714,0.11266
769.55842,0.11687
767.62970,0.11762
765.70099,0.11419
763.77227,0.10681
761.84355,0.09652
759.91483,0.08454
757.98611,0.07228
756.05740,0.06107
754.12868,0.05283
752.19996,0.04988
750.27124,0.05302
748.34253,0.06087
746.41381,0.07144
744.48509,0.08274
742.55637,0.09173
740.62765,0.09470
738.69894,0.08903
736.77022,0.07559
734.84150,0.06087
732.91278,0.05290
730.98407,0.05333
729.05535,0.05706
727.12663,0.05902
725.19791,0.05820
723.26919,0.05679
721.34048,0.05744
719.41176,0.06029
717.48304,0.06433
715.55432,0.07045
713.62560,0.07821
711.69689,0.08279
709.76817,0.07982
707.83945,0.06999
705.91073,0.05828
703.98202,0.05061
702.05330,0.05036
700.12458,0.05782
698.19586,0.07174
696.26714,0.09001
694.33843,0.10921
692.40971,0.12556
690.48099,0.13659
688.55227,0.14133
686.62355,0.13953
684.69484,0.13142
682.76612,0.11814
680.83740,0.10163
678.90868,0.08440
676.97997,0.06898
675.05125,0.05737
673.12253,0.05125
671.19381,0.05146
669.26509,0.05858
667.33638,0.07222
665.40766,0.08786
663.47894,0.10369
661.55022,0.11978
659.62150,0.13392
657.69279,0.14475
655.76407,0.15096
653.83535,0.15064
651.90663,0.14355
649.97792,0.13110
648.04920,0.11510
646.12048,0.09763
644.19176,0.08050
642.26304,0.06546
640.33433,0.05436
638.40561,0.04903
636.47689,0.05090
634.54817,0.05989
632.61945,0.07404
630.69074,0.09076
628.76202,0.10870
626.83330,0.12666
624.90458,0.14147
622.97587,0.15014
621.04715,0.15313
619.11843,0.15163
617.18971,0.14493
615.26099,0.13227
613.33228,0.11562
611.40356,0.09795
609.47484,0.08017
607.54612,0.06364
605.61740,0.05218
603.68869,0.04814
601.75997,0.05058
599.83125,0.05807
