7497.33348,0.10786
7495.40466,0.11090
7493.47584,0.11228
7491.54702,0.11002
7489.61819,0.10163
7487.68937,0.09193
7485.76055,0.09233
7483.83173,0.09883
7481.90290,0.09842
7479.97408,0.09439
7478.04526,0.09131
7476.11644,0.09106
7474.18761,0.09843
7472.25879,0.10875
7470.32997,0.11253
7468.40115,0.10898
7466.47232,0.10503
7464.54350,0.10821
7462.61468,0.11187
7460.68585,0.10839
7458.75703,0.10172
7456.82821,0.09853
7454.89939,0.09993
7452.97056,0.10462
7451.04174,0.10943
7449.11292,0.10927
7447.18410,0.10184
7445.25527,0.09319
7443.32645,0.09162
7441.39763,0.09850
7439.46881,0.10421
7437.53998,0.10258
7435.61116,0.10504
7433.68234,0.11522
7431.75352,0.11798
7429.82469,0.11008
7427.89587,0.10383
7425.96705,0.10548
7424.03823,0.10991
7422.10940,0.11053
7420.18058,0.10582
7418.25176,0.10491
7416.32293,0.10839
7414.39411,0.10765
7412.46529,0.10476
7410.53647,0.10293
7408.60764,0.10035
7406.67882,0.09889
7404.75000,0.09791
7402.82118,0.09563
7400.89235,0.09443
7398.96353,0.09467
7397.03471,0.09621
7395.10589,0.10336
7393.17706,0.11282
7391.24824,0.11498
7389.31942,0.11173
7387.39060,0.11007
7385.46177,0.10867
7383.53295,0.10707
7381.60413,0.10877
7379.67531,0.11158
7377.74648,0.11214
7375.81766,0.11285
7373.88884,0.11277
7371.96001,0.11010
7370.03119,0.10717
7368.10237,0.10571
7366.17355,0.10640
7364.24472,0.10644
7362.31590,0.10420
7360.38708,0.10576
7358.45826,0.10766
7356.52943,0.10218
7354.60061,0.09729
7352.67179,0.10084
7350.74297,0.10689
7348.81414,0.11043
7346.88532,0.11068
7344.95650,0.10887
7343.02768,0.10731
7341.09885,0.10855
7339.17003,0.10784
7337.24121,0.10318
7335.31239,0.09957
7333.38356,0.09938
7331.45474,0.10189
7329.52592,0.10481
7327.59709,0.10621
7325.66827,0.10578
7323.73945,0.10389
7321.81063,0.10262
7319.88180,0.10323
7317.95298,0.10369
7316.02416,0.10013
7314.09534,0.09589
7312.16651,0.09888
7310.23769,0.10687
7308.30887,0.10827
7306.38005,0.10003
7304.45122,0.09242
7302.52240,0.09413
7300.59358,0.10161
7298.66476,0.10568
7296.73593,0.10323
7294.80711,0.09811
7292.87829,0.09531
7290.94947,0.09825
7289.02064,0.10299
7287.09182,0.10377
7285.16300,0.10309
7283.23417,0.10597
7281.30535,0.11085
7279.37653,0.11307
7277.44771,0.11221
7275.51888,0.10917
7273.59006,0.10380
7271.66124,0.10037
7269.73242,0.10134
7267.80359,0.10203
7265.87477,0.10037
7263.94595,0.09903
7262.01713,0.09931
7260.08830,0.10171
7258.15948,0.10151
7256.23066,0.09602
7254.30184,0.09532
7252.37301,0.10132
7250.44419,0.10353
7248.51537,0.10365
7246.58655,0.10555
7244.65772,0.10517
7242.72890,0.10408
7240.80008,0.10575
7238.87125,0.10405
7236.94243,0.09707
7235.01361,0.09403
7233.08479,0.10002
7231.15596,0.10548
7229.22714,0.10416
7227.29832,0.10051
7225.36950,0.09797
7223.44067,0.09624
7221.51185,0.09556
7219.58303,0.09707
7217.65421,0.09940
7215.72538,0.10270
7213.79656,0.10755
7211.86774,0.10806
7209.93892,0.10252
7208.01009,0.09825
7206.08127,0.09924
7204.15245,0.10048
7202.22363,0.09909
7200.29480,0.09966
7198.36598,0.10239
7196.43716,0.10272
7194.50833,0.10123
7192.57951,0.10226
7190.65069,0.10583
7188.72187,0.10653
7186.79304,0.10147
7184.86422,0.09698
7182.93540,0.09955
7181.00658,0.10356
7179.07775,0.10275
7177.14893,0.10067
7175.22011,0.10086
7173.29129,0.10264
7171.36246,0.10428
7169.43364,0.10532
7167.50482,0.10597
7165.57600,0.10484
7163.64717,0.10237
7161.71835,0.10022
7159.78953,0.09989
7157.86071,0.10420
7155.93188,0.11025
7154.00306,0.10885
7152.07424,0.10273
7150.14541,0.10242
7148.21659,0.10404
7146.28777,0.09980
7144.35895,0.09483
7142.43012,0.09443
7140.50130,0.09621
7138.57248,0.09865
7136.64366,0.10263
7134.71483,0.10649
7132.78601,0.10697
7130.85719,0.10477
7128.92837,0.10237
7126.99954,0.10056
7125.07072,0.10163
7123.14190,0.10511
7121.21308,0.10589
7119.28425,0.10427
7117.35543,0.10472
7115.42661,0.10379
7113.49779,0.09918
7111.56896,0.09858
7109.64014,0.10315
7107.71132,0.10486
7105.78249,0.10371
7103.85367,0.10180
7101.92485,0.09766
7099.99603,0.09496
7098.06720,0.09593
7096.13838,0.09580
7094.20956,0.09320
7092.28074,0.09275
7090.35191,0.09444
7088.42309,0.09697
7086.49427,0.10121
7084.56545,0.10495
7082.63662,0.10753
7080.70780,0.11022
7078.77898,0.11063
7076.85016,0.10709
7074.92133,0.10314
7072.99251,0.10150
7071.06369,0.10149
7069.13487,0.10282
7067.20604,0.10432
7065.27722,0.10189
7063.34840,0.09495
7061.41957,0.08847
7059.49075,0.08697
7057.56193,0.08979
7055.63311,0.09528
7053.70428,0.10223
7051.77546,0.10611
7049.84664,0.10555
7047.91782,0.10479
7045.98899,0.10418
7044.06017,0.10125
7042.13135,0.09590
7040.20253,0.09105
7038.27370,0.08990
7036.34488,0.09219
7034.41606,0.09671
7032.48724,0.10166
7030.55841,0.10186
7028.62959,0.09982
7026.70077,0.10334
7024.77195,0.10898
7022.84312,0.10864
7020.91430,0.10382
7018.98548,0.09974
7017.05665,0.09961
7015.12783,0.10402
7013.19901,0.10886
7011.27019,0.10838
7009.34136,0.10243
7007.41254,0.09592
7005.48372,0.09424
7003.55490,0.09641
7001.62607,0.09919
6999.69725,0.10134
6997.76843,0.10031
6995.83961,0.09775
6993.91078,0.09962
6991.98196,0.10468
6990.05314,0.10626
6988.12432,0.10354
6986.19549,0.10088
6984.26667,0.10108
6982.33785,0.10397
6980.40903,0.10622
6978.48020,0.10583
6976.55138,0.10434
6974.62256,0.10282
6972.69373,0.10199
6970.76491,0.10201
6968.83609,0.10221
6966.90727,0.10195
6964.97844,0.10054
6963.04962,0.09958
6961.12080,0.09962
6959.19198,0.10002
6957.26315,0.10058
6955.33433,0.10058
6953.40551,0.09964
6951.47669,0.09807
6949.54786,0.09636
6947.61904,0.09620
6945.69022,0.09820
6943.76140,0.09990
6941.83257,0.09885
6939.90375,0.09660
6937.97493,0.09629
6936.04611,0.09836
6934.11728,0.10022
6932.18846,0.09968
6930.25964,0.09764
6928.33081,0.09858
6926.40199,0.10268
6924.47317,0.10357
6922.54435,0.09997
6920.61552,0.09734
6918.68670,0.09812
6916.75788,0.10047
6914.82906,0.10262
6912.90023,0.10464
6910.97141,0.10667
6909.04259,0.10525
6907.11377,0.09807
6905.18494,0.09297
6903.25612,0.09624
6901.32730,0.10161
6899.39848,0.10105
6897.46965,0.09561
6895.54083,0.09278
6893.61201,0.09620
6891.68319,0.10162
6889.75436,0.10327
6887.82554,0.10034
6885.89672,0.09851
6883.96789,0.10113
6882.03907,0.10400
6880.11025,0.10421
6878.18143,0.10454
6876.25260,0.10516
6874.32378,0.10363
6872.39496,0.10107
6870.46614,0.09777
6868.53731,0.09417
6866.60849,0.09385
6864.67967,0.09689
6862.75085,0.10043
6860.82202,0.10239
6858.89320,0.10215
6856.96438,0.10170
6855.03556,0.10268
6853.10673,0.10280
6851.17791,0.10170
6849.24909,0.10406
6847.32027,0.10799
6845.39144,0.10637
6843.46262,0.10140
6841.53380,0.09987
6839.60497,0.10337
6837.67615,0.10801
6835.74733,0.10969
6833.81851,0.10919
6831.88968,0.10810
6829.96086,0.10645
6828.03204,0.10497
6826.10322,0.10277
6824.17439,0.10054
6822.24557,0.10180
6820.31675,0.10473
6818.38793,0.10463
6816.45910,0.10309
6814.53028,0.10309
6812.60146,0.10243
6810.67264,0.09978
6808.74381,0.09867
6806.81499,0.10054
6804.88617,0.10301
6802.95734,0.10403
6801.02852,0.10307
6799.09970,0.10172
6797.17088,0.10289
6795.24205,0.10667
6793.31323,0.10913
6791.38441,0.10711
6789.45559,0.10312
6787.52676,0.10101
6785.59794,0.10122
6783.66912,0.10121
6781.74030,0.09879
6779.81147,0.09648
6777.88265,0.09790
6775.95383,0.10122
6774.02501,0.10322
6772.09618,0.10480
6770.16736,0.10681
6768.23854,0.10596
6766.30972,0.10173
6764.38089,0.09836
6762.45207,0.09859
6760.52325,0.10159
6758.59442,0.10451
6756.66560,0.10593
6754.73678,0.10608
6752.80796,0.10544
6750.87913,0.10676
6748.95031,0.10865
6747.02149,0.10724
6745.09267,0.10462
6743.16384,0.10274
6741.23502,0.10086
6739.30620,0.09991
6737.37738,0.09981
6735.44855,0.09960
6733.51973,0.10101
6731.59091,0.10418
6729.66209,0.10481
6727.73326,0.10320
6725.80444,0.10252
6723.87562,0.10044
6721.94680,0.09711
6720.01797,0.09745
6718.08915,0.10150
6716.16033,0.10510
6714.23150,0.10564
6712.30268,0.10484
6710.37386,0.10519
6708.44504,0.10532
6706.51621,0.10385
6704.58739,0.10282
6702.65857,0.10404
6700.72975,0.10580
6698.80092,0.10575
6696.87210,0.10447
6694.94328,0.10304
6693.01446,0.10221
6691.08563,0.10341
6689.15681,0.10580
6687.22799,0.10607
6685.29917,0.10422
6683.37034,0.10338
6681.44152,0.10380
6679.51270,0.10329
6677.58388,0.10131
6675.65505,0.10003
6673.72623,0.10075
6671.79741,0.10113
6669.86858,0.09987
6667.93976,0.09801
6666.01094,0.09578
6664.08212,0.09407
6662.15329,0.09496
6660.22447,0.09842
6658.29565,0.10204
6656.36683,0.10394
6654.43800,0.10268
6652.50918,0.09901
6650.58036,0.09795
6648.65154,0.10117
6646.72271,0.10479
6644.79389,0.10618
6642.86507,0.10600
6640.93625,0.10554
6639.00742,0.10664
6637.07860,0.10916
6635.14978,0.11023
6633.22096,0.10828
6631.29213,0.10433
6629.36331,0.10032
6627.43449,0.09714
6625.50566,0.09574
6623.57684,0.09804
6621.64802,0.10276
6619.71920,0.10620
6617.79037,0.10715
6615.86155,0.10580
6613.93273,0.10130
6612.00391,0.09632
6610.07508,0.09625
6608.14626,0.09903
6606.21744,0.09874
6604.28862,0.09696
6602.35979,0.09773
6600.43097,0.10098
6598.50215,0.10423
6596.57333,0.10439
6594.64450,0.10294
6592.71568,0.10442
6590.78686,0.10695
6588.85804,0.10711
6586.92921,0.10543
6585.00039,0.10298
6583.07157,0.10120
6581.14274,0.10240
6579.21392,0.10537
6577.28510,0.10641
6575.35628,0.10595
6573.42745,0.10649
6571.49863,0.10785
6569.56981,0.10836
6567.64099,0.10646
6565.71216,0.10237
6563.78334,0.09891
6561.85452,0.09859
6559.92570,0.09954
6557.99687,0.09975
6556.06805,0.10053
6554.13923,0.10179
6552.21041,0.10335
6550.28158,0.10584
6548.35276,0.10726
6546.42394,0.10639
6544.49512,0.10470
6542.56629,0.10370
6540.63747,0.10302
6538.70865,0.10182
6536.77982,0.10141
6534.85100,0.10340
6532.92218,0.10594
6530.99336,0.10680
6529.06453,0.10589
6527.13571,0.10284
6525.20689,0.09891
6523.27807,0.09712
6521.34924,0.09889
6519.42042,0.10274
6517.49160,0.10402
6515.56278,0.10098
6513.63395,0.09819
6511.70513,0.09933
6509.77631,0.10277
6507.84749,0.10524
6505.91866,0.10499
6503.98984,0.10218
6502.06102,0.09934
6500.13220,0.09872
6498.20337,0.09969
6496.27455,0.10037
6494.34573,0.09984
6492.41690,0.10044
6490.48808,0.10342
6488.55926,0.10505
6486.63044,0.10288
6484.70161,0.09984
6482.77279,0.09898
6480.84397,0.10008
6478.91515,0.10123
6476.98632,0.10149
6475.05750,0.10135
6473.12868,0.10103
6471.19986,0.10064
6469.27103,0.10106
6467.34221,0.10187
6465.41339,0.10265
6463.48457,0.10409
6461.55574,0.10575
6459.62692,0.10601
6457.69810,0.10445
6455.76928,0.10278
6453.84045,0.10325
6451.91163,0.10529
6449.98281,0.10616
6448.05398,0.10408
6446.12516,0.10040
6444.19634,0.09895
6442.26752,0.10025
6440.33869,0.10123
6438.40987,0.10157
6436.48105,0.10221
6434.55223,0.10241
6432.62340,0.10275
6430.69458,0.10421
6428.76576,0.10526
6426.83694,0.10439
6424.90811,0.10238
6422.97929,0.10161
6421.05047,0.10278
6419.12165,0.10354
6417.19282,0.10257
6415.26400,0.10161
6413.33518,0.10171
6411.40636,0.10276
6409.47753,0.10462
6407.54871,0.10523
6405.61989,0.10294
6403.69106,0.10112
6401.76224,0.10205
6399.83342,0.10241
6397.90460,0.10060
6395.97577,0.09934
6394.04695,0.10077
6392.11813,0.10297
6390.18931,0.10259
6388.26048,0.10063
6386.33166,0.10020
6384.40284,0.10101
6382.47402,0.10110
6380.54519,0.10116
6378.61637,0.10209
6376.68755,0.10237
6374.75873,0.10110
6372.82990,0.10019
6370.90108,0.10147
6368.97226,0.10345
6367.04344,0.10427
6365.11461,0.10467
6363.18579,0.10434
6361.25697,0.10156
6359.32814,0.09801
6357.39932,0.09722
6355.47050,0.09801
6353.54168,0.09884
6351.61285,0.10117
6349.68403,0.10271
6347.75521,0.10150
6345.82639,0.10127
6343.89756,0.10232
6341.96874,0.10290
6340.03992,0.10425
6338.11110,0.10518
6336.18227,0.10361
6334.25345,0.10215
6332.32463,0.10333
6330.39581,0.10495
6328.46698,0.10476
6326.53816,0.10371
6324.60934,0.10319
6322.68052,0.10382
6320.75169,0.10557
6318.82287,0.10701
6316.89405,0.10540
6314.96522,0.10173
6313.03640,0.09980
6311.10758,0.09955
6309.17876,0.10010
6307.24993,0.10173
6305.32111,0.10249
6303.39229,0.10237
6301.46347,0.10375
6299.53464,0.10586
6297.60582,0.10626
6295.67700,0.10533
6293.74818,0.10478
6291.81935,0.10509
6289.89053,0.10613
6287.96171,0.10630
6286.03289,0.10383
6284.10406,0.10043
6282.17524,0.09852
6280.24642,0.09878
6278.31760,0.10105
6276.38877,0.10345
6274.45995,0.10423
6272.53113,0.10383
6270.60230,0.10318
6268.67348,0.10294
6266.74466,0.10403
6264.81584,0.10524
6262.88701,0.10389
6260.95819,0.10063
6259.02937,0.09854
6257.10055,0.09925
6255.17172,0.10139
6253.24290,0.10209
6251.31408,0.10228
6249.38526,0.10443
6247.45643,0.10649
6245.52761,0.10633
6243.59879,0.10518
6241.66997,0.10408
6239.74114,0.10362
6237.81232,0.10464
6235.88350,0.10565
6233.95468,0.10495
6232.02585,0.10451
6230.09703,0.10617
6228.16821,0.10722
6226.23938,0.10503
6224.31056,0.10194
6222.38174,0.10108
6220.45292,0.10149
6218.52409,0.10203
6216.59527,0.10314
6214.66645,0.10275
6212.73763,0.09892
6210.80880,0.09515
6208.87998,0.09555
6206.95116,0.09918
6205.02234,0.10201
6203.09351,0.10176
6201.16469,0.10089
6199.23587,0.10151
6197.30705,0.10150
6195.37822,0.09993
6193.44940,0.09944
6191.52058,0.10153
6189.59176,0.10345
6187.66293,0.10320
6185.73411,0.10308
6183.80529,0.10438
6181.87646,0.10525
6179.94764,0.10426
6178.01882,0.10146
6176.09000,0.09884
6174.16117,0.09867
6172.23235,0.10057
6170.30353,0.10303
6168.37471,0.10470
6166.44588,0.10455
6164.51706,0.10400
6162.58824,0.10472
6160.65942,0.10535
6158.73059,0.10428
6156.80177,0.10280
6154.87295,0.10241
6152.94413,0.10279
6151.01530,0.10315
6149.08648,0.10311
6147.15766,0.10320
6145.22884,0.10402
6143.30001,0.10471
6141.37119,0.10467
6139.44237,0.10404
6137.51354,0.10263
6135.58472,0.10099
6133.65590,0.10078
6131.72708,0.10184
6129.79825,0.10296
6127.86943,0.10409
6125.94061,0.10471
6124.01179,0.10444
6122.08296,0.10423
6120.15414,0.10487
6118.22532,0.10562
6116.29650,0.10439
6114.36767,0.10096
6112.43885,0.09817
6110.51003,0.09821
6108.58121,0.09942
6106.65238,0.10033
6104.72356,0.10174
6102.79474,0.10271
6100.86591,0.10244
6098.93709,0.10177
6097.00827,0.10058
6095.07945,0.09906
6093.15062,0.09864
6091.22180,0.10051
6089.29298,0.10360
6087.36416,0.10541
6085.43533,0.10527
6083.50651,0.10461
6081.57769,0.10427
6079.64887,0.10369
6077.72004,0.10233
6075.79122,0.10085
6073.86240,0.10008
6071.93358,0.09983
6070.00475,0.09997
6068.07593,0.10034
6066.14711,0.10037
6064.21829,0.10074
6062.28946,0.10202
6060.36064,0.10245
6058.43182,0.10084
6056.50299,0.09947
6054.57417,0.10036
6052.64535,0.10195
6050.71653,0.10287
6048.78770,0.10377
6046.85888,0.10463
6044.93006,0.10470
6043.00124,0.10392
6041.07241,0.10323
6039.14359,0.10361
6037.21477,0.10449
6035.28595,0.10390
6033.35712,0.10148
6031.42830,0.09882
6029.49948,0.09750
6027.57066,0.09760
6025.64183,0.09795
6023.71301,0.09834
6021.78419,0.09951
6019.85537,0.10169
6017.92654,0.10343
6015.99772,0.10294
6014.06890,0.10162
6012.14007,0.10110
6010.21125,0.10063
6008.28243,0.10017
6006.35361,0.10015
6004.42478,0.10055
6002.49596,0.10075
6000.56714,0.09952
5998.63832,0.09802
5996.70949,0.09851
5994.78067,0.10045
5992.85185,0.10197
5990.92303,0.10262
5988.99420,0.10294
5987.06538,0.10321
5985.13656,0.10282
5983.20774,0.10198
5981.27891,0.10193
5979.35009,0.10256
5977.42127,0.10293
5975.49245,0.10316
5973.56362,0.10316
5971.63480,0.10295
5969.70598,0.10324
5967.77715,0.10371
5965.84833,0.10303
5963.91951,0.10107
5961.99069,0.09973
5960.06186,0.10019
5958.13304,0.10093
5956.20422,0.10115
5954.27540,0.10129
5952.34657,0.10090
5950.41775,0.09957
5948.48893,0.09784
5946.56011,0.09710
5944.63128,0.09831
5942.70246,0.10053
5940.77364,0.10123
5938.84482,0.09907
5936.91599,0.09701
5934.98717,0.09788
5933.05835,0.09995
5931.12953,0.10162
5929.20070,0.10249
5927.27188,0.10177
5925.34306,0.10038
5923.41423,0.09904
5921.48541,0.09748
5919.55659,0.09636
5917.62777,0.09606
5915.69894,0.09636
5913.77012,0.09706
5911.84130,0.09720
5909.91248,0.09679
5907.98365,0.09689
5906.05483,0.09715
5904.12601,0.09772
5902.19719,0.09939
5900.26836,0.10104
5898.33954,0.10140
5896.41072,0.10086
5894.48190,0.10004
5892.55307,0.09917
5890.62425,0.09890
5888.69543,0.09930
5886.76661,0.09948
5884.83778,0.09913
5882.90896,0.09806
5880.98014,0.09645
5879.05131,0.09563
5877.12249,0.09583
5875.19367,0.09640
5873.26485,0.09786
5871.33602,0.09945
5869.40720,0.09873
5867.47838,0.09633
5865.54956,0.09489
5863.62073,0.09468
5861.69191,0.09470
5859.76309,0.09510
5857.83427,0.09619
5855.90544,0.09673
5853.97662,0.09590
5852.04780,0.09422
5850.11898,0.09240
5848.19015,0.09203
5846.26133,0.09419
5844.33251,0.09712
5842.40369,0.09893
5840.47486,0.09943
5838.54604,0.09826
5836.61722,0.09570
5834.68839,0.09369
5832.75957,0.09308
5830.83075,0.09250
5828.90193,0.09130
5826.97310,0.09077
5825.04428,0.09109
5823.11546,0.09139
5821.18664,0.09228
5819.25781,0.09300
5817.32899,0.09188
5815.40017,0.09040
5813.47135,0.08976
5811.54252,0.08863
5809.61370,0.08811
5807.68488,0.08929
5805.75606,0.08971
5803.82723,0.08897
5801.89841,0.08894
5799.96959,0.08909
5798.04077,0.08897
5796.11194,0.08917
5794.18312,0.08925
5792.25430,0.08889
5790.32547,0.08809
5788.39665,0.08662
5786.46783,0.08557
5784.53901,0.08565
5782.61018,0.08530
5780.68136,0.08402
5778.75254,0.08347
5776.82372,0.08423
5774.89489,0.08524
5772.96607,0.08587
5771.03725,0.08609
5769.10843,0.08614
5767.17960,0.08711
5765.25078,0.08882
5763.32196,0.08982
5761.39314,0.09025
5759.46431,0.09054
5757.53549,0.09015
5755.60667,0.08932
5753.67785,0.08915
5751.74902,0.08992
5749.82020,0.09062
5747.89138,0.09138
5745.96255,0.09265
5744.03373,0.09342
5742.10491,0.09406
5740.17609,0.09551
5738.24726,0.09666
5736.31844,0.09662
5734.38962,0.09534
5732.46080,0.09379
5730.53197,0.09382
5728.60315,0.09539
5726.67433,0.09700
5724.74551,0.09789
5722.81668,0.09770
5720.88786,0.09612
5718.95904,0.09379
5717.03022,0.09250
5715.10139,0.09304
5713.17257,0.09455
5711.24375,0.09606
5709.31493,0.09667
5707.38610,0.09623
5705.45728,0.09577
5703.52846,0.09536
5701.59963,0.09447
5699.67081,0.09376
5697.74199,0.09392
5695.81317,0.09414
5693.88434,0.09360
5691.95552,0.09370
5690.02670,0.09494
5688.09788,0.09539
5686.16905,0.09498
5684.24023,0.09423
5682.31141,0.09219
5680.38259,0.09016
5678.45376,0.09022
5676.52494,0.09105
5674.59612,0.09111
5672.66730,0.09125
5670.73847,0.09174
5668.80965,0.09183
5666.88083,0.09144
5664.95201,0.09087
5663.02318,0.09067
5661.09436,0.09102
5659.16554,0.09135
5657.23671,0.09145
5655.30789,0.09230
5653.37907,0.09399
5651.45025,0.09471
5649.52142,0.09402
5647.59260,0.09365
5645.66378,0.09409
5643.73496,0.09453
5641.80613,0.09460
5639.87731,0.09428
5637.94849,0.09410
5636.01967,0.09525
5634.09084,0.09739
5632.16202,0.09859
5630.23320,0.09793
5628.30438,0.09634
5626.37555,0.09487
5624.44673,0.09408
5622.51791,0.09471
5620.58909,0.09621
5618.66026,0.09700
5616.73144,0.09678
5614.80262,0.09592
5612.87379,0.09532
5610.94497,0.09583
5609.01615,0.09654
5607.08733,0.09685
5605.15850,0.09780
5603.22968,0.09940
5601.30086,0.09997
5599.37204,0.09917
5597.44321,0.09833
5595.51439,0.09805
5593.58557,0.09821
5591.65675,0.09869
5589.72792,0.09884
5587.79910,0.09820
5585.87028,0.09763
5583.94146,0.09795
5582.01263,0.09888
5580.08381,0.09934
5578.15499,0.09841
5576.22617,0.09719
5574.29734,0.09721
5572.36852,0.09791
5570.43970,0.09791
5568.51087,0.09713
5566.58205,0.09731
5564.65323,0.09857
5562.72441,0.09861
5560.79558,0.09724
5558.86676,0.09653
5556.93794,0.09761
5555.00912,0.09926
5553.08029,0.09979
5551.15147,0.09887
5549.22265,0.09700
5547.29383,0.09586
5545.36500,0.09603
5543.43618,0.09613
5541.50736,0.09606
5539.57854,0.09622
5537.64971,0.09624
5535.72089,0.09636
5533.79207,0.09691
5531.86325,0.09716
5529.93442,0.09654
5528.00560,0.09600
5526.07678,0.09615
5524.14795,0.09671
5522.21913,0.09763
5520.29031,0.09863
5518.36149,0.09907
5516.43266,0.09861
5514.50384,0.09772
5512.57502,0.09727
5510.64620,0.09737
5508.71737,0.09767
5506.78855,0.09778
5504.85973,0.09753
5502.93091,0.09710
5501.00208,0.09661
5499.07326,0.09650
5497.14444,0.09678
5495.21562,0.09641
5493.28679,0.09567
5491.35797,0.09586
5489.42915,0.09609
5487.50033,0.09547
5485.57150,0.09524
5483.64268,0.09599
5481.71386,0.09673
5479.78503,0.09715
5477.85621,0.09824
5475.92739,0.09934
5473.99857,0.09917
5472.06974,0.09902
5470.14092,0.09950
5468.21210,0.09978
5466.28328,0.10031
5464.35445,0.10119
5462.42563,0.10140
5460.49681,0.10098
5458.56799,0.10076
5456.63916,0.10045
5454.71034,0.09973
5452.78152,0.09907
5450.85270,0.09882
5448.92387,0.09903
5446.99505,0.09947
5445.06623,0.09952
5443.13741,0.09934
5441.20858,0.09937
5439.27976,0.09930
5437.35094,0.09946
5435.42211,0.09998
5433.49329,0.10006
5431.56447,0.09994
5429.63565,0.09981
5427.70682,0.09920
5425.77800,0.09877
5423.84918,0.09864
5421.92036,0.09824
5419.99153,0.09806
5418.06271,0.09868
5416.13389,0.09976
5414.20507,0.10061
5412.27624,0.10072
5410.34742,0.10030
5408.41860,0.09988
5406.48978,0.09959
5404.56095,0.09957
5402.63213,0.09946
5400.70331,0.09862
5398.77449,0.09787
5396.84566,0.09848
5394.91684,0.09963
5392.98802,0.10001
5391.05919,0.09976
5389.13037,0.09913
5387.20155,0.09840
5385.27273,0.09830
5383.34390,0.09862
5381.41508,0.09832
5379.48626,0.09788
5377.55744,0.09846
5375.62861,0.09947
5373.69979,0.09962
5371.77097,0.09877
5369.84215,0.09795
5367.91332,0.09802
5365.98450,0.09832
5364.05568,0.09879
5362.12686,0.09994
5360.19803,0.10091
5358.26921,0.10118
5356.34039,0.10115
5354.41156,0.10110
5352.48274,0.10115
5350.55392,0.10123
5348.62510,0.10099
5346.69627,0.10030
5344.76745,0.10016
5342.83863,0.10099
5340.90981,0.10114
5338.98098,0.10015
5337.05216,0.09943
5335.12334,0.09918
5333.19452,0.09914
5331.26569,0.09999
5329.33687,0.10119
5327.40805,0.10174
5325.47923,0.10127
5323.55040,0.10006
5321.62158,0.09926
5319.69276,0.09933
5317.76394,0.09959
5315.83511,0.09980
5313.90629,0.09996
5311.97747,0.09973
5310.04864,0.09917
5308.11982,0.09911
5306.19100,0.09974
5304.26218,0.09985
5302.33335,0.09923
5300.40453,0.09899
5298.47571,0.09942
5296.54689,0.09970
5294.61806,0.09913
5292.68924,0.09808
5290.76042,0.09762
5288.83160,0.09739
5286.90277,0.09680
5284.97395,0.09710
5283.04513,0.09865
5281.11631,0.09990
5279.18748,0.10029
5277.25866,0.10017
5275.32984,0.09968
5273.40102,0.09924
5271.47219,0.09935
5269.54337,0.10001
5267.61455,0.10081
5265.68572,0.10080
5263.75690,0.09966
5261.82808,0.09900
5259.89926,0.09947
5257.97043,0.09989
5256.04161,0.09992
5254.11279,0.09998
5252.18397,0.09983
5250.25514,0.09937
5248.32632,0.09940
5246.39750,0.10019
5244.46868,0.10031
5242.53985,0.09953
5240.61103,0.09967
5238.68221,0.10127
5236.75339,0.10287
5234.82456,0.10304
5232.89574,0.10179
5230.96692,0.10055
5229.03810,0.10008
5227.10927,0.09997
5225.18045,0.10029
5223.25163,0.10074
5221.32280,0.10115
5219.39398,0.10190
5217.46516,0.10233
5215.53634,0.10176
5213.60751,0.10084
5211.67869,0.10003
5209.74987,0.09945
5207.82105,0.09974
5205.89222,0.10077
5203.96340,0.10146
5202.03458,0.10150
5200.10576,0.10096
5198.17693,0.10016
5196.24811,0.10025
5194.31929,0.10113
5192.39047,0.10150
5190.46164,0.10149
5188.53282,0.10161
5186.60400,0.10146
5184.67518,0.10115
5182.74635,0.10140
5180.81753,0.10177
5178.88871,0.10148
5176.95988,0.10103
5175.03106,0.10104
5173.10224,0.10126
5171.17342,0.10171
5169.24459,0.10231
5167.31577,0.10256
5165.38695,0.10256
5163.45813,0.10258
5161.52930,0.10224
5159.60048,0.10143
5157.67166,0.10063
5155.74284,0.10015
5153.81401,0.09996
5151.88519,0.10008
5149.95637,0.10080
5148.02755,0.10159
5146.09872,0.10167
5144.16990,0.10137
5142.24108,0.10135
5140.31226,0.10181
5138.38343,0.10213
5136.45461,0.10206
5134.52579,0.10190
5132.59696,0.10155
5130.66814,0.10128
5128.73932,0.10121
5126.81050,0.10092
5124.88167,0.10073
5122.95285,0.10104
5121.02403,0.10122
5119.09521,0.10086
5117.16638,0.10056
5115.23756,0.10063
5113.30874,0.10065
5111.37992,0.10083
5109.45109,0.10139
5107.52227,0.10169
5105.59345,0.10159
5103.66463,0.10150
5101.73580,0.10133
5099.80698,0.10124
5097.87816,0.10170
5095.94934,0.10229
5094.02051,0.10214
5092.09169,0.10138
5090.16287,0.10070
5088.23404,0.10029
5086.30522,0.10024
5084.37640,0.10058
5082.44758,0.10102
5080.51875,0.10118
5078.58993,0.10090
5076.66111,0.10044
5074.73229,0.10035
5072.80346,0.10079
5070.87464,0.10133
5068.94582,0.10141
5067.01700,0.10109
5065.08817,0.10092
5063.15935,0.10101
5061.23053,0.10115
5059.30171,0.10131
5057.37288,0.10164
5055.44406,0.10168
5053.51524,0.10121
5051.58642,0.10129
5049.65759,0.10179
5047.72877,0.10159
5045.79995,0.10113
5043.87112,0.10081
5041.94230,0.10044
5040.01348,0.10027
5038.08466,0.10029
5036.15583,0.10070
5034.22701,0.10128
5032.29819,0.10103
5030.36937,0.10021
5028.44054,0.10017
5026.51172,0.10094
5024.58290,0.10149
5022.65408,0.10167
5020.72525,0.10168
5018.79643,0.10113
5016.86761,0.10040
5014.93879,0.10034
5013.00996,0.10054
5011.08114,0.10031
5009.15232,0.10034
5007.22350,0.10109
5005.29467,0.10191
5003.36585,0.10224
5001.43703,0.10193
4999.50820,0.10130
4997.57938,0.10090
4995.65056,0.10078
4993.72174,0.10067
4991.79291,0.10061
4989.86409,0.10052
4987.93527,0.10033
4986.00645,0.10043
4984.07762,0.10067
4982.14880,0.10089
4980.21998,0.10129
4978.29116,0.10120
4976.36233,0.10055
4974.43351,0.10012
4972.50469,0.09997
4970.57587,0.09984
4968.64704,0.09992
4966.71822,0.10043
4964.78940,0.10115
4962.86058,0.10137
4960.93175,0.10076
4959.00293,0.09998
4957.07411,0.09990
4955.14528,0.10031
4953.21646,0.10033
4951.28764,0.10008
4949.35882,0.10023
4947.42999,0.10073
4945.50117,0.10149
4943.57235,0.10207
4941.64353,0.10188
4939.71470,0.10152
4937.78588,0.10152
4935.85706,0.10134
4933.92824,0.10099
4931.99941,0.10096
4930.07059,0.10089
4928.14177,0.10047
4926.21295,0.10032
4924.28412,0.10082
4922.35530,0.10153
4920.42648,0.10202
4918.49766,0.10237
4916.56883,0.10249
4914.64001,0.10233
4912.71119,0.10229
4910.78236,0.10234
4908.85354,0.10218
4906.92472,0.10187
4904.99590,0.10129
4903.06707,0.10077
4901.13825,0.10097
4899.20943,0.10149
4897.28061,0.10158
4895.35178,0.10151
4893.42296,0.10180
4891.49414,0.10219
4889.56532,0.10206
4887.63649,0.10172
4885.70767,0.10183
4883.77885,0.10203
4881.85003,0.10186
4879.92120,0.10157
4877.99238,0.10131
4876.06356,0.10123
4874.13474,0.10140
4872.20591,0.10150
4870.27709,0.10134
4868.34827,0.10124
4866.41944,0.10135
4864.49062,0.10153
4862.56180,0.10178
4860.63298,0.10201
4858.70415,0.10216
4856.77533,0.10237
4854.84651,0.10253
4852.91769,0.10265
4850.98886,0.10291
4849.06004,0.10284
4847.13122,0.10217
4845.20240,0.10155
4843.27357,0.10158
4841.34475,0.10175
4839.41593,0.10149
4837.48711,0.10114
4835.55828,0.10104
4833.62946,0.10121
4831.70064,0.10183
4829.77182,0.10261
4827.84299,0.10286
4825.91417,0.10244
4823.98535,0.10182
4822.05652,0.10149
4820.12770,0.10137
4818.19888,0.10107
4816.27006,0.10083
4814.34123,0.10087
4812.41241,0.10105
4810.48359,0.10150
4808.55477,0.10222
4806.62594,0.10279
4804.69712,0.10297
4802.76830,0.10263
4800.83948,0.10176
4798.91065,0.10121
4796.98183,0.10161
4795.05301,0.10217
4793.12419,0.10233
4791.19536,0.10237
4789.26654,0.10230
4787.33772,0.10204
4785.40890,0.10212
4783.48007,0.10271
4781.55125,0.10297
4779.62243,0.10249
4777.69360,0.10187
4775.76478,0.10144
4773.83596,0.10136
4771.90714,0.10188
4769.97831,0.10260
4768.04949,0.10296
4766.12067,0.10288
4764.19185,0.10255
4762.26302,0.10234
4760.33420,0.10225
4758.40538,0.10193
4756.47656,0.10168
4754.54773,0.10180
4752.61891,0.10208
4750.69009,0.10248
4748.76127,0.10283
4746.83244,0.10287
4744.90362,0.10295
4742.97480,0.10341
4741.04598,0.10390
4739.11715,0.10424
4737.18833,0.10448
4735.25951,0.10447
4733.33068,0.10433
4731.40186,0.10400
4729.47304,0.10316
4727.54422,0.10241
4725.61539,0.10238
4723.68657,0.10263
4721.75775,0.10270
4719.82893,0.10270
4717.90010,0.10279
4715.97128,0.10274
4714.04246,0.10239
4712.11364,0.10224
4710.18481,0.10252
4708.25599,0.10287
4706.32717,0.10297
4704.39835,0.10260
4702.46952,0.10219
4700.54070,0.10235
4698.61188,0.10294
4696.68306,0.10314
4694.75423,0.10266
4692.82541,0.10233
4690.89659,0.10229
4688.96776,0.10168
4687.03894,0.10059
4685.11012,0.09998
4683.18130,0.10024
4681.25247,0.10077
4679.32365,0.10092
4677.39483,0.10078
4675.46601,0.10080
4673.53718,0.10081
4671.60836,0.10046
4669.67954,0.10038
4667.75072,0.10088
4665.82189,0.10119
4663.89307,0.10124
4661.96425,0.10181
4660.03543,0.10252
4658.10660,0.10230
4656.17778,0.10151
4654.24896,0.10110
4652.32013,0.10113
4650.39131,0.10123
4648.46249,0.10118
4646.53367,0.10093
4644.60484,0.10083
4642.67602,0.10106
4640.74720,0.10114
4638.81838,0.10074
4636.88955,0.10033
4634.96073,0.10037
4633.03191,0.10053
4631.10309,0.10069
4629.17426,0.10136
4627.24544,0.10218
4625.31662,0.10220
4623.38780,0.10146
4621.45897,0.10056
4619.53015,0.10011
4617.60133,0.10042
4615.67251,0.10110
4613.74368,0.10155
4611.81486,0.10151
4609.88604,0.10118
4607.95721,0.10082
4606.02839,0.10057
4604.09957,0.10065
4602.17075,0.10099
4600.24192,0.10140
4598.31310,0.10171
4596.38428,0.10161
4594.45546,0.10151
4592.52663,0.10203
4590.59781,0.10268
4588.66899,0.10249
4586.74017,0.10165
4584.81134,0.10107
4582.88252,0.10097
4580.95370,0.10101
4579.02488,0.10118
4577.09605,0.10140
4575.16723,0.10127
4573.23841,0.10102
4571.30959,0.10117
4569.38076,0.10126
4567.45194,0.10107
4565.52312,0.10123
4563.59429,0.10161
4561.66547,0.10178
4559.73665,0.10174
4557.80783,0.10154
4555.87900,0.10164
4553.95018,0.10213
4552.02136,0.10220
4550.09254,0.10184
4548.16371,0.10179
4546.23489,0.10191
4544.30607,0.10177
4542.37725,0.10173
4540.44842,0.10218
4538.51960,0.10264
4536.59078,0.10272
4534.66196,0.10264
4532.73313,0.10260
4530.80431,0.10248
4528.87549,0.10216
4526.94667,0.10184
4525.01784,0.10174
4523.08902,0.10194
4521.16020,0.10232
4519.23137,0.10265
4517.30255,0.10286
4515.37373,0.10279
4513.44491,0.10236
4511.51608,0.10174
4509.58726,0.10098
4507.65844,0.10052
4505.72962,0.10070
4503.80079,0.10100
4501.87197,0.10106
4499.94315,0.10119
4498.01433,0.10154
4496.08550,0.10174
4494.15668,0.10173
4492.22786,0.10175
4490.29904,0.10155
4488.37021,0.10099
4486.44139,0.10039
4484.51257,0.10013
4482.58375,0.10032
4480.65492,0.10044
4478.72610,0.10020
4476.79728,0.09998
4474.86845,0.09989
4472.93963,0.09998
4471.01081,0.10033
4469.08199,0.10063
4467.15316,0.10064
4465.22434,0.10020
4463.29552,0.09949
4461.36670,0.09883
4459.43787,0.09809
4457.50905,0.09748
4455.58023,0.09749
4453.65141,0.09776
4451.72258,0.09761
4449.79376,0.09715
4447.86494,0.09692
4445.93612,0.09699
4444.00729,0.09684
4442.07847,0.09601
4440.14965,0.09484
4438.22083,0.09416
4436.29200,0.09416
4434.36318,0.09410
4432.43436,0.09367
4430.50553,0.09331
4428.57671,0.09301
4426.64789,0.09265
4424.71907,0.09250
4422.79024,0.09265
4420.86142,0.09282
4418.93260,0.09286
4417.00378,0.09277
4415.07495,0.09244
4413.14613,0.09186
4411.21731,0.09133
4409.28849,0.09106
4407.35966,0.09085
4405.43084,0.09054
4403.50202,0.09034
4401.57320,0.09018
4399.64437,0.08964
4397.71555,0.08875
4395.78673,0.08799
4393.85791,0.08758
4391.92908,0.08730
4390.00026,0.08665
4388.07144,0.08566
4386.14261,0.08501
4384.21379,0.08502
4382.28497,0.08534
4380.35615,0.08512
4378.42732,0.08407
4376.49850,0.08293
4374.56968,0.08237
4372.64086,0.08220
4370.71203,0.08184
4368.78321,0.08106
4366.85439,0.08014
4364.92557,0.07952
4362.99674,0.07925
4361.06792,0.07889
4359.13910,0.07814
4357.21028,0.07715
4355.28145,0.07606
4353.35263,0.07493
4351.42381,0.07390
4349.49499,0.07284
4347.56616,0.07152
4345.63734,0.07036
4343.70852,0.06972
4341.77969,0.06923
4339.85087,0.06840
4337.92205,0.06754
4335.99323,0.06718
4334.06440,0.06684
4332.13558,0.06607
4330.20676,0.06519
4328.27794,0.06434
4326.34911,0.06354
4324.42029,0.06304
4322.49147,0.06315
4320.56265,0.06403
4318.63382,0.06563
4316.70500,0.06771
4314.77618,0.06979
4312.84736,0.07178
4310.91853,0.07376
4308.98971,0.07532
4307.06089,0.07635
4305.13207,0.07713
4303.20324,0.07769
4301.27442,0.07798
4299.34560,0.07815
4297.41677,0.07835
4295.48795,0.07858
4293.55913,0.07865
4291.63031,0.07833
4289.70148,0.07770
4287.77266,0.07724
4285.84384,0.07722
4283.91502,0.07712
4281.98619,0.07656
4280.05737,0.07609
4278.12855,0.07629
4276.19973,0.07657
4274.27090,0.07617
4272.34208,0.07518
4270.41326,0.07393
4268.48444,0.07270
4266.55561,0.07183
4264.62679,0.07130
4262.69797,0.07060
4260.76915,0.06946
4258.84032,0.06828
4256.91150,0.06753
4254.98268,0.06704
4253.05385,0.06663
4251.12503,0.06681
4249.19621,0.06776
4247.26739,0.06905
4245.33856,0.07051
4243.40974,0.07191
4241.48092,0.07289
4239.55210,0.07350
4237.62327,0.07385
4235.69445,0.07384
4233.76563,0.07375
4231.83681,0.07363
4229.90798,0.07326
4227.97916,0.07300
4226.05034,0.07292
4224.12152,0.07272
4222.19269,0.07251
4220.26387,0.07230
4218.33505,0.07216
4216.40623,0.07234
4214.47740,0.07254
4212.54858,0.07244
4210.61976,0.07243
4208.69093,0.07271
4206.76211,0.07294
4204.83329,0.07280
4202.90447,0.07237
4200.97564,0.07185
4199.04682,0.07143
4197.11800,0.07116
4195.18918,0.07102
4193.26035,0.07091
4191.33153,0.07088
4189.40271,0.07101
4187.47389,0.07109
4185.54506,0.07090
4183.61624,0.07066
4181.68742,0.07074
4179.75860,0.07102
4177.82977,0.07121
4175.90095,0.07129
4173.97213,0.07129
4172.04331,0.07119
4170.11448,0.07115
4168.18566,0.07124
4166.25684,0.07125
4164.32801,0.07110
4162.39919,0.07092
4160.47037,0.07101
4158.54155,0.07149
4156.61272,0.07189
4154.68390,0.07187
4152.75508,0.07166
4150.82626,0.07161
4148.89743,0.07189
4146.96861,0.07236
4145.03979,0.07261
4143.11097,0.07250
4141.18214,0.07233
4139.25332,0.07232
4137.32450,0.07242
4135.39568,0.07267
4133.46685,0.07320
4131.53803,0.07362
4129.60921,0.07335
4127.68039,0.07283
4125.75156,0.07276
4123.82274,0.07287
4121.89392,0.07267
4119.96509,0.07242
4118.03627,0.07257
4116.10745,0.07300
4114.17863,0.07333
4112.24980,0.07346
4110.32098,0.07333
4108.39216,0.07285
4106.46334,0.07231
4104.53451,0.07223
4102.60569,0.07253
4100.67687,0.07273
4098.74805,0.07291
4096.81922,0.07340
4094.89040,0.07384
4092.96158,0.07403
4091.03276,0.07434
4089.10393,0.07497
4087.17511,0.07575
4085.24629,0.07619
4083.31747,0.07610
4081.38864,0.07629
4079.45982,0.07692
4077.53100,0.07721
4075.60217,0.07729
4073.67335,0.07763
4071.74453,0.07793
4069.81571,0.07798
4067.88688,0.07814
4065.95806,0.07849
4064.02924,0.07873
4062.10042,0.07889
4060.17159,0.07896
4058.24277,0.07884
4056.31395,0.07863
4054.38513,0.07851
4052.45630,0.07862
4050.52748,0.07899
4048.59866,0.07944
4046.66984,0.07957
4044.74101,0.07930
4042.81219,0.07929
4040.88337,0.07971
4038.95455,0.08001
4037.02572,0.08011
4035.09690,0.08035
4033.16808,0.08064
4031.23925,0.08080
4029.31043,0.08084
4027.38161,0.08069
4025.45279,0.08048
4023.52396,0.08039
4021.59514,0.08051
4019.66632,0.08092
4017.73750,0.08138
4015.80867,0.08161
4013.87985,0.08180
4011.95103,0.08219
4010.02221,0.08282
4008.09338,0.08352
4006.16456,0.08404
4004.23574,0.08426
4002.30692,0.08406
4000.37809,0.08361
3998.44927,0.08348
3996.52045,0.08364
3994.59163,0.08357
3992.66280,0.08343
3990.73398,0.08351
3988.80516,0.08350
3986.87633,0.08320
3984.94751,0.08299
3983.01869,0.08298
3981.08987,0.08281
3979.16104,0.08255
3977.23222,0.08274
3975.30340,0.08318
3973.37458,0.08320
3971.44575,0.08301
3969.51693,0.08317
3967.58811,0.08352
3965.65929,0.08377
3963.73046,0.08405
3961.80164,0.08427
3959.87282,0.08429
3957.94400,0.08429
3956.01517,0.08452
3954.08635,0.08487
3952.15753,0.08484
3950.22870,0.08439
3948.29988,0.08403
3946.37106,0.08383
3944.44224,0.08379
3942.51341,0.08405
3940.58459,0.08435
3938.65577,0.08444
3936.72695,0.08453
3934.79812,0.08473
3932.86930,0.08475
3930.94048,0.08433
3929.01166,0.08397
3927.08283,0.08410
3925.15401,0.08449
3923.22519,0.08466
3921.29637,0.08440
3919.36754,0.08400
3917.43872,0.08387
3915.50990,0.08399
3913.58108,0.08404
3911.65225,0.08410
3909.72343,0.08445
3907.79461,0.08493
3905.86578,0.08515
3903.93696,0.08493
3902.00814,0.08436
3900.07932,0.08372
3898.15049,0.08361
3896.22167,0.08406
3894.29285,0.08447
3892.36403,0.08479
3890.43520,0.08539
3888.50638,0.08587
3886.57756,0.08580
3884.64874,0.08561
3882.71991,0.08552
3880.79109,0.08518
3878.86227,0.08515
3876.93345,0.08551
3875.00462,0.08564
3873.07580,0.08556
3871.14698,0.08582
3869.21816,0.08638
3867.28933,0.08668
3865.36051,0.08685
3863.43169,0.08727
3861.50286,0.08765
3859.57404,0.08762
3857.64522,0.08732
3855.71640,0.08702
3853.78757,0.08708
3851.85875,0.08743
3849.92993,0.08752
3848.00111,0.08760
3846.07228,0.08784
3844.14346,0.08805
3842.21464,0.08808
3840.28582,0.08818
3838.35699,0.08824
3836.42817,0.08781
3834.49935,0.08740
3832.57053,0.08756
3830.64170,0.08803
3828.71288,0.08828
3826.78406,0.08840
3824.85524,0.08853
3822.92641,0.08840
3820.99759,0.08812
3819.06877,0.08820
3817.13994,0.08824
3815.21112,0.08836
3813.28230,0.08878
3811.35348,0.08891
3809.42465,0.08870
3807.49583,0.08879
3805.56701,0.08946
3803.63819,0.09005
3801.70936,0.09034
3799.78054,0.09053
3797.85172,0.09059
3795.92290,0.09052
3793.99407,0.09043
3792.06525,0.09036
3790.13643,0.09038
3788.20761,0.09040
3786.27878,0.09028
3784.34996,0.09043
3782.42114,0.09092
3780.49232,0.09113
3778.56349,0.09091
3776.63467,0.09066
3774.70585,0.09050
3772.77702,0.09050
3770.84820,0.09074
3768.91938,0.09098
3766.99056,0.09093
3765.06173,0.09067
3763.13291,0.09053
3761.20409,0.09061
3759.27527,0.09073
3757.34644,0.09075
3755.41762,0.09071
3753.48880,0.09059
3751.55998,0.09034
3749.63115,0.09046
3747.70233,0.09073
3745.77351,0.09037
3743.84469,0.08998
3741.91586,0.09039
3739.98704,0.09081
3738.05822,0.09072
3736.12940,0.08993
3734.20057,0.08911
3732.27175,0.08935
3730.34293,0.09013
3728.41410,0.09046
3726.48528,0.09018
3724.55646,0.08959
3722.62764,0.08912
3720.69881,0.08925
3718.76999,0.08979
3716.84117,0.09005
3714.91235,0.08987
3712.98352,0.08934
3711.05470,0.08890
3709.12588,0.08898
3707.19706,0.08901
3705.26823,0.08880
3703.33941,0.08862
3701.41059,0.08864
3699.48177,0.08880
3697.55294,0.08868
3695.62412,0.08819
3693.69530,0.08783
3691.76648,0.08769
3689.83765,0.08741
3687.90883,0.08707
3685.98001,0.08689
3684.05118,0.08673
3682.12236,0.08651
3680.19354,0.08633
3678.26472,0.08621
3676.33589,0.08586
3674.40707,0.08557
3672.47825,0.08577
3670.54943,0.08578
3668.62060,0.08562
3666.69178,0.08568
3664.76296,0.08564
3662.83414,0.08548
3660.90531,0.08519
3658.97649,0.08458
3657.04767,0.08388
3655.11885,0.08374
3653.19002,0.08383
3651.26120,0.08312
3649.33238,0.08179
3647.40356,0.08191
3645.47473,0.08284
3643.54591,0.08358
3641.61709,0.08415
3639.68826,0.08468
3637.75944,0.08518
3635.83062,0.08547
3633.90180,0.08556
3631.97297,0.08545
3630.04415,0.08471
3628.11533,0.08391
3626.18651,0.08419
3624.25768,0.08464
3622.32886,0.08474
3620.40004,0.08435
3618.47122,0.08385
3616.54239,0.08386
3614.61357,0.08379
3612.68475,0.08316
3610.75593,0.08241
3608.82710,0.08172
3606.89828,0.08104
3604.96946,0.08061
3603.04064,0.08056
3601.11181,0.08120
3599.18299,0.08267
3597.25417,0.08454
3595.32534,0.08637
3593.39652,0.08774
3591.46770,0.08837
3589.53888,0.08854
3587.61005,0.08882
3585.68123,0.08948
3583.75241,0.09007
3581.82359,0.09039
3579.89476,0.09066
3577.96594,0.09097
3576.03712,0.09126
3574.10830,0.09158
3572.17947,0.09185
3570.25065,0.09186
3568.32183,0.09165
3566.39301,0.09181
3564.46418,0.09251
3562.53536,0.09295
3560.60654,0.09283
3558.67772,0.09264
3556.74889,0.09272
3554.82007,0.09277
3552.89125,0.09253
3550.96242,0.09238
3549.03360,0.09263
3547.10478,0.09294
3545.17596,0.09302
3543.24713,0.09304
3541.31831,0.09323
3539.38949,0.09349
3537.46067,0.09354
3535.53184,0.09341
3533.60302,0.09323
3531.67420,0.09294
3529.74538,0.09279
3527.81655,0.09298
3525.88773,0.09318
3523.95891,0.09297
3522.03009,0.09262
3520.10126,0.09267
3518.17244,0.09280
3516.24362,0.09276
3514.31480,0.09280
3512.38597,0.09284
3510.45715,0.09297
3508.52833,0.09346
3506.59950,0.09377
3504.67068,0.09343
3502.74186,0.09281
3500.81304,0.09240
3498.88421,0.09216
3496.95539,0.09191
3495.02657,0.09166
3493.09775,0.09154
3491.16892,0.09124
3489.24010,0.09066
3487.31128,0.09035
3485.38246,0.09035
3483.45363,0.09018
3481.52481,0.08988
3479.59599,0.08973
3477.66717,0.08953
3475.73834,0.08874
3473.80952,0.08709
3471.88070,0.08505
3469.95188,0.08328
3468.02305,0.08187
3466.09423,0.08077
3464.16541,0.08020
3462.23658,0.08017
3460.30776,0.08005
3458.37894,0.07958
3456.45012,0.07938
3454.52129,0.07946
3452.59247,0.07954
3450.66365,0.08010
3448.73483,0.08126
3446.80600,0.08238
3444.87718,0.08328
3442.94836,0.08420
3441.01954,0.08509
3439.09071,0.08587
3437.16189,0.08668
3435.23307,0.08744
3433.30425,0.08793
3431.37542,0.08798
3429.44660,0.08759
3427.51778,0.08741
3425.58896,0.08798
3423.66013,0.08876
3421.73131,0.08902
3419.80249,0.08875
3417.87366,0.08858
3415.94484,0.08896
3414.01602,0.08966
3412.08720,0.09030
3410.15837,0.09057
3408.22955,0.09032
3406.30073,0.08995
3404.37191,0.08994
3402.44308,0.08983
3400.51426,0.08937
3398.58544,0.08937
3396.65662,0.09005
3394.72779,0.09063
3392.79897,0.09063
3390.87015,0.09019
3388.94133,0.08980
3387.01250,0.08956
3385.08368,0.08920
3383.15486,0.08912
3381.22604,0.08937
3379.29721,0.08915
3377.36839,0.08844
3375.43957,0.08815
3373.51074,0.08839
3371.58192,0.08846
3369.65310,0.08842
3367.72428,0.08880
3365.79545,0.08940
3363.86663,0.08981
3361.93781,0.08999
3360.00899,0.08992
3358.08016,0.08970
3356.15134,0.08983
3354.22252,0.09027
3352.29370,0.09041
3350.36487,0.09027
3348.43605,0.09024
3346.50723,0.09009
3344.57841,0.08971
3342.64958,0.08942
3340.72076,0.08936
3338.79194,0.08948
3336.86312,0.08962
3334.93429,0.08974
3333.00547,0.08993
3331.07665,0.08999
3329.14782,0.08990
3327.21900,0.08993
3325.29018,0.08999
3323.36136,0.08976
3321.43253,0.08945
3319.50371,0.08946
3317.57489,0.08973
3315.64607,0.09002
3313.71724,0.08998
3311.78842,0.08951
3309.85960,0.08915
3307.93078,0.08915
3306.00195,0.08914
3304.07313,0.08894
3302.14431,0.08896
3300.21549,0.08941
3298.28666,0.08983
3296.35784,0.08987
3294.42902,0.08974
3292.50020,0.08978
3290.57137,0.08986
3288.64255,0.08966
3286.71373,0.08946
3284.78490,0.08956
3282.85608,0.08949
3280.92726,0.08910
3278.99844,0.08890
3277.06961,0.08892
3275.14079,0.08887
3273.21197,0.08874
3271.28315,0.08852
3269.35432,0.08828
3267.42550,0.08826
3265.49668,0.08849
3263.56786,0.08883
3261.63903,0.08938
3259.71021,0.08998
3257.78139,0.09020
3255.85257,0.09004
3253.92374,0.08972
3251.99492,0.08950
3250.06610,0.08944
3248.13728,0.08926
3246.20845,0.08890
3244.27963,0.08856
3242.35081,0.08841
3240.42198,0.08849
3238.49316,0.08874
3236.56434,0.08897
3234.63552,0.08891
3232.70669,0.08851
3230.77787,0.08798
3228.84905,0.08761
3226.92023,0.08762
3224.99140,0.08810
3223.06258,0.08856
3221.13376,0.08844
3219.20494,0.08816
3217.27611,0.08820
3215.34729,0.08837
3213.41847,0.08854
3211.48965,0.08873
3209.56082,0.08867
3207.63200,0.08817
3205.70318,0.08770
3203.77435,0.08777
3201.84553,0.08796
3199.91671,0.08785
3197.98789,0.08761
3196.05906,0.08719
3194.13024,0.08653
3192.20142,0.08629
3190.27260,0.08658
3188.34377,0.08665
3186.41495,0.08640
3184.48613,0.08623
3182.55731,0.08624
3180.62848,0.08651
3178.69966,0.08680
3176.77084,0.08655
3174.84202,0.08586
3172.91319,0.08531
3170.98437,0.08512
3169.05555,0.08516
3167.12673,0.08527
3165.19790,0.08524
3163.26908,0.08518
3161.34026,0.08511
3159.41143,0.08472
3157.48261,0.08418
3155.55379,0.08393
3153.62497,0.08390
3151.69614,0.08382
3149.76732,0.08359
3147.83850,0.08328
3145.90968,0.08310
3143.98085,0.08313
3142.05203,0.08310
3140.12321,0.08270
3138.19439,0.08207
3136.26556,0.08152
3134.33674,0.08120
3132.40792,0.08120
3130.47910,0.08121
3128.55027,0.08090
3126.62145,0.08065
3124.69263,0.08052
3122.76381,0.07992
3120.83498,0.07900
3118.90616,0.07844
3116.97734,0.07822
3115.04851,0.07780
3113.11969,0.07704
3111.19087,0.07644
3109.26205,0.07623
3107.33322,0.07591
3105.40440,0.07516
3103.47558,0.07419
3101.54676,0.07328
3099.61793,0.07240
3097.68911,0.07145
3095.76029,0.07053
3093.83147,0.06975
3091.90264,0.06899
3089.97382,0.06831
3088.04500,0.06778
3086.11618,0.06713
3084.18735,0.06640
3082.25853,0.06598
3080.32971,0.06575
3078.40089,0.06538
3076.47206,0.06493
3074.54324,0.06470
3072.61442,0.06465
3070.68559,0.06438
3068.75677,0.06382
3066.82795,0.06325
3064.89913,0.06284
3062.97030,0.06258
3061.04148,0.06223
3059.11266,0.06172
3057.18384,0.06130
3055.25501,0.06094
3053.32619,0.06038
3051.39737,0.05978
3049.46855,0.05940
3047.53972,0.05912
3045.61090,0.05869
3043.68208,0.05818
3041.75326,0.05781
3039.82443,0.05761
3037.89561,0.05741
3035.96679,0.05708
3034.03797,0.05672
3032.10914,0.05656
3030.18032,0.05650
3028.25150,0.05624
3026.32267,0.05584
3024.39385,0.05559
3022.46503,0.05551
3020.53621,0.05526
3018.60738,0.05489
3016.67856,0.05488
3014.74974,0.05523
3012.82092,0.05545
3010.89209,0.05526
3008.96327,0.05474
3007.03445,0.05409
3005.10563,0.05362
3003.17680,0.05355
3001.24798,0.05383
2999.31916,0.05404
2997.39034,0.05378
2995.46151,0.05325
2993.53269,0.05283
2991.60387,0.05252
2989.67505,0.05225
2987.74622,0.05202
2985.81740,0.05172
2983.88858,0.05133
2981.95975,0.05081
2980.03093,0.05038
2978.10211,0.05036
2976.17329,0.05046
2974.24446,0.05032
2972.31564,0.05006
2970.38682,0.04967
2968.45800,0.04902
2966.52917,0.04841
2964.60035,0.04834
2962.67153,0.04855
2960.74271,0.04836
2958.81388,0.04778
2956.88506,0.04722
2954.95624,0.04676
2953.02742,0.04612
2951.09859,0.04517
2949.16977,0.04430
2947.24095,0.04365
2945.31213,0.04284
2943.38330,0.04187
2941.45448,0.04113
2939.52566,0.04075
2937.59683,0.04047
2935.66801,0.04008
2933.73919,0.03984
2931.81037,0.04027
2929.88154,0.04180
2927.95272,0.04452
2926.02390,0.04876
2924.09508,0.05502
2922.16625,0.06327
2920.23743,0.07270
2918.30861,0.08154
2916.37979,0.08720
2914.45096,0.08822
2912.52214,0.08570
2910.59332,0.08205
2908.66450,0.07870
2906.73567,0.07598
2904.80685,0.07391
2902.87803,0.07237
2900.94921,0.07117
2899.02038,0.07025
2897.09156,0.06965
2895.16274,0.06932
2893.23391,0.06897
2891.30509,0.06838
2889.37627,0.06762
2887.44745,0.06693
2885.51862,0.06639
2883.58980,0.06584
2881.66098,0.06518
2879.73216,0.06450
2877.80333,0.06385
2875.87451,0.06311
2873.94569,0.06219
2872.01687,0.06129
2870.08804,0.06051
2868.15922,0.05959
2866.23040,0.05834
2864.30158,0.05681
2862.37275,0.05531
2860.44393,0.05429
2858.51511,0.05388
2856.58629,0.05435
2854.65746,0.05674
2852.72864,0.06222
2850.79982,0.07063
2848.87099,0.07913
2846.94217,0.08386
2845.01335,0.08398
2843.08453,0.08182
2841.15570,0.07932
2839.22688,0.07706
2837.29806,0.07510
2835.36924,0.07338
2833.44041,0.07183
2831.51159,0.07047
2829.58277,0.06945
2827.65395,0.06881
2825.72512,0.06824
2823.79630,0.06750
2821.86748,0.06674
2819.93866,0.06627
2818.00983,0.06618
2816.08101,0.06624
2814.15219,0.06616
2812.22337,0.06600
2810.29454,0.06608
2808.36572,0.06636
2806.43690,0.06640
2804.50807,0.06622
2802.57925,0.06615
2800.65043,0.06632
2798.72161,0.06659
2796.79278,0.06669
2794.86396,0.06655
2792.93514,0.06647
2791.00632,0.06656
2789.07749,0.06661
2787.14867,0.06659
2785.21985,0.06679
2783.29103,0.06728
2781.36220,0.06772
2779.43338,0.06796
2777.50456,0.06816
2775.57574,0.06829
2773.64691,0.06823
2771.71809,0.06823
2769.78927,0.06851
2767.86045,0.06893
2765.93162,0.06925
2764.00280,0.06939
2762.07398,0.06935
2760.14515,0.06916
2758.21633,0.06892
2756.28751,0.06874
2754.35869,0.06869
2752.42986,0.06877
2750.50104,0.06895
2748.57222,0.06905
2746.64340,0.06900
2744.71457,0.06893
2742.78575,0.06879
2740.85693,0.06848
2738.92811,0.06815
2736.99928,0.06809
2735.07046,0.06836
2733.14164,0.06855
2731.21282,0.06855
2729.28399,0.06850
2727.35517,0.06844
2725.42635,0.06852
2723.49753,0.06870
2721.56870,0.06866
2719.63988,0.06853
2717.71106,0.06871
2715.78223,0.06898
2713.85341,0.06899
2711.92459,0.06887
2709.99577,0.06888
2708.06694,0.06900
2706.13812,0.06910
2704.20930,0.06914
2702.28048,0.06915
2700.35165,0.06906
2698.42283,0.06880
2696.49401,0.06855
2694.56519,0.06839
2692.63636,0.06803
2690.70754,0.06755
2688.77872,0.06729
2686.84990,0.06718
2684.92107,0.06700
2682.99225,0.06669
2681.06343,0.06647
2679.13461,0.06655
2677.20578,0.06676
2675.27696,0.06678
2673.34814,0.06656
2671.41931,0.06633
2669.49049,0.06636
2667.56167,0.06663
2665.63285,0.06684
2663.70402,0.06683
2661.77520,0.06668
2659.84638,0.06650
2657.91756,0.06638
2655.98873,0.06638
2654.05991,0.06655
2652.13109,0.06670
2650.20227,0.06668
2648.27344,0.06666
2646.34462,0.06662
2644.41580,0.06644
2642.48698,0.06633
2640.55815,0.06639
2638.62933,0.06649
2636.70051,0.06648
2634.77169,0.06647
2632.84286,0.06672
2630.91404,0.06717
2628.98522,0.06751
2627.05639,0.06771
2625.12757,0.06793
2623.19875,0.06822
2621.26993,0.06861
2619.34110,0.06907
2617.41228,0.06949
2615.48346,0.06991
2613.55464,0.07035
2611.62581,0.07071
2609.69699,0.07109
2607.76817,0.07162
2605.83935,0.07213
2603.91052,0.07236
2601.98170,0.07244
2600.05288,0.07257
2598.12406,0.07281
2596.19523,0.07321
2594.26641,0.07381
2592.33759,0.07443
2590.40877,0.07489
2588.47994,0.07524
2586.55112,0.07563
2584.62230,0.07606
2582.69347,0.07655
2580.76465,0.07701
2578.83583,0.07732
2576.90701,0.07769
2574.97818,0.07817
2573.04936,0.07853
2571.12054,0.07888
2569.19172,0.07943
2567.26289,0.08002
2565.33407,0.08043
2563.40525,0.08071
2561.47643,0.08088
2559.54760,0.08096
2557.61878,0.08116
2555.68996,0.08154
2553.76114,0.08181
2551.83231,0.08204
2549.90349,0.08238
2547.97467,0.08246
2546.04585,0.08229
2544.11702,0.08240
2542.18820,0.08287
2540.25938,0.08335
2538.33055,0.08359
2536.40173,0.08357
2534.47291,0.08347
2532.54409,0.08346
2530.61526,0.08346
2528.68644,0.08344
2526.75762,0.08352
2524.82880,0.08381
2522.89997,0.08426
2520.97115,0.08473
2519.04233,0.08529
2517.11351,0.08591
2515.18468,0.08651
2513.25586,0.08702
2511.32704,0.08728
2509.39822,0.08731
2507.46939,0.08723
2505.54057,0.08702
2503.61175,0.08679
2501.68292,0.08679
2499.75410,0.08715
2497.82528,0.08762
2495.89646,0.08782
2493.96763,0.08775
2492.03881,0.08765
2490.10999,0.08745
2488.18117,0.08720
2486.25234,0.08704
2484.32352,0.08686
2482.39470,0.08669
2480.46588,0.08677
2478.53705,0.08703
2476.60823,0.08712
2474.67941,0.08712
2472.75059,0.08738
2470.82176,0.08798
2468.89294,0.08859
2466.96412,0.08902
2465.03530,0.08930
2463.10647,0.08957
2461.17765,0.08993
2459.24883,0.09036
2457.32000,0.09097
2455.39118,0.09168
2453.46236,0.09210
2451.53354,0.09223
2449.60471,0.09234
2447.67589,0.09238
2445.74707,0.09220
2443.81825,0.09203
2441.88942,0.09220
2439.96060,0.09262
2438.03178,0.09300
2436.10296,0.09320
2434.17413,0.09321
2432.24531,0.09307
2430.31649,0.09273
2428.38767,0.09230
2426.45884,0.09207
2424.53002,0.09201
2422.60120,0.09180
2420.67238,0.09147
2418.74355,0.09133
2416.81473,0.09141
2414.88591,0.09153
2412.95708,0.09159
2411.02826,0.09160
2409.09944,0.09151
2407.17062,0.09124
2405.24179,0.09092
2403.31297,0.09077
2401.38415,0.09089
2399.45533,0.09109
2397.52650,0.09129
2395.59768,0.09149
2393.66886,0.09153
2391.74004,0.09130
2389.81121,0.09093
2387.88239,0.09054
2385.95357,0.09019
2384.02475,0.08998
2382.09592,0.08995
2380.16710,0.09013
2378.23828,0.09030
2376.30946,0.09023
2374.38063,0.09017
2372.45181,0.09007
2370.52299,0.08954
2368.59416,0.08883
2366.66534,0.08848
2364.73652,0.08840
2362.80770,0.08805
2360.87887,0.08744
2358.95005,0.08718
2357.02123,0.08715
2355.09241,0.08662
2353.16358,0.08565
2351.23476,0.08484
2349.30594,0.08427
2347.37712,0.08358
2345.44829,0.08269
2343.51947,0.08203
2341.59065,0.08183
2339.66183,0.08189
2337.73300,0.08217
2335.80418,0.08252
2333.87536,0.08267
2331.94654,0.08246
2330.01771,0.08195
2328.08889,0.08133
2326.16007,0.08096
2324.23124,0.08091
2322.30242,0.08108
2320.37360,0.08134
2318.44478,0.08159
2316.51595,0.08201
2314.58713,0.08246
2312.65831,0.08264
2310.72949,0.08271
2308.80066,0.08283
2306.87184,0.08285
2304.94302,0.08271
2303.01420,0.08261
2301.08537,0.08270
2299.15655,0.08306
2297.22773,0.08366
2295.29891,0.08431
2293.37008,0.08474
2291.44126,0.08489
2289.51244,0.08486
2287.58362,0.08473
2285.65479,0.08457
2283.72597,0.08453
2281.79715,0.08462
2279.86832,0.08483
2277.93950,0.08522
2276.01068,0.08574
2274.08186,0.08637
2272.15303,0.08699
2270.22421,0.08734
2268.29539,0.08738
2266.36657,0.08717
2264.43774,0.08678
2262.50892,0.08659
2260.58010,0.08686
2258.65128,0.08737
2256.72245,0.08792
2254.79363,0.08846
2252.86481,0.08898
2250.93599,0.08931
2249.00716,0.08923
2247.07834,0.08895
2245.14952,0.08871
2243.22070,0.08865
2241.29187,0.08905
2239.36305,0.08997
2237.43423,0.09099
2235.50540,0.09187
2233.57658,0.09266
2231.64776,0.09329
2229.71894,0.09356
2227.79011,0.09341
2225.86129,0.09309
2223.93247,0.09284
2222.00365,0.09266
2220.07482,0.09266
2218.14600,0.09308
2216.21718,0.09382
2214.28836,0.09443
2212.35953,0.09481
2210.43071,0.09505
2208.50189,0.09495
2206.57307,0.09438
2204.64424,0.09364
2202.71542,0.09304
2200.78660,0.09276
2198.85778,0.09287
2196.92895,0.09326
2195.00013,0.09369
2193.07131,0.09398
2191.14248,0.09403
2189.21366,0.09386
2187.28484,0.09338
2185.35602,0.09253
2183.42719,0.09171
2181.49837,0.09130
2179.56955,0.09124
2177.64073,0.09143
2175.71190,0.09186
2173.78308,0.09235
2171.85426,0.09277
2169.92544,0.09296
2167.99661,0.09273
2166.06779,0.09208
2164.13897,0.09111
2162.21015,0.09010
2160.28132,0.08957
2158.35250,0.08979
2156.42368,0.09043
2154.49486,0.09111
2152.56603,0.09184
2150.63721,0.09252
2148.70839,0.09274
2146.77956,0.09232
2144.85074,0.09160
2142.92192,0.09116
2140.99310,0.09109
2139.06427,0.09129
2137.13545,0.09195
2135.20663,0.09294
2133.27781,0.09378
2131.34898,0.09434
2129.42016,0.09469
2127.49134,0.09471
2125.56252,0.09440
2123.63369,0.09384
2121.70487,0.09309
2119.77605,0.09257
2117.84723,0.09262
2115.91840,0.09306
2113.98958,0.09377
2112.06076,0.09457
2110.13194,0.09494
2108.20311,0.09470
2106.27429,0.09405
2104.34547,0.09313
2102.41664,0.09223
2100.48782,0.09174
2098.55900,0.09160
2096.63018,0.09166
2094.70135,0.09205
2092.77253,0.09271
2090.84371,0.09330
2088.91489,0.09356
2086.98606,0.09334
2085.05724,0.09265
2083.12842,0.09167
2081.19960,0.09072
2079.27077,0.09009
2077.34195,0.08991
2075.41313,0.09019
2073.48431,0.09074
2071.55548,0.09128
2069.62666,0.09153
2067.69784,0.09126
2065.76902,0.09055
2063.84019,0.08959
2061.91137,0.08863
2059.98255,0.08791
2058.05372,0.08756
2056.12490,0.08759
2054.19608,0.08797
2052.26726,0.08852
2050.33843,0.08880
2048.40961,0.08860
2046.48079,0.08800
2044.55197,0.08711
2042.62314,0.08614
2040.69432,0.08528
2038.76550,0.08463
2036.83668,0.08437
2034.90785,0.08453
2032.97903,0.08486
2031.05021,0.08512
2029.12139,0.08530
2027.19256,0.08517
2025.26374,0.08447
2023.33492,0.08340
2021.40610,0.08242
2019.47727,0.08173
2017.54845,0.08139
2015.61963,0.08185
2013.69080,0.08333
2011.76198,0.08539
2009.83316,0.08734
2007.90434,0.08872
2005.97551,0.08940
2004.04669,0.08937
2002.11787,0.08875
2000.18905,0.08805
1998.26022,0.08787
1996.33140,0.08831
1994.40258,0.08915
1992.47376,0.09028
1990.54493,0.09145
1988.61611,0.09229
1986.68729,0.09264
1984.75847,0.09250
1982.82964,0.09194
1980.90082,0.09114
1978.97200,0.09042
1977.04318,0.09015
1975.11435,0.09045
1973.18553,0.09109
1971.25671,0.09180
1969.32788,0.09252
1967.39906,0.09313
1965.47024,0.09316
1963.54142,0.09239
1961.61259,0.09120
1959.68377,0.09018
1957.75495,0.08961
1955.82613,0.08954
1953.89730,0.08997
1951.96848,0.09083
1950.03966,0.09181
1948.11084,0.09253
1946.18201,0.09275
1944.25319,0.09233
1942.32437,0.09144
1940.39555,0.09053
1938.46672,0.08981
1936.53790,0.08941
1934.60908,0.08955
1932.68026,0.09011
1930.75143,0.09084
1928.82261,0.09159
1926.89379,0.09203
1924.96496,0.09186
1923.03614,0.09109
1921.10732,0.09002
1919.17850,0.08883
1917.24967,0.08785
1915.32085,0.08773
1913.39203,0.08822
1911.46321,0.08877
1909.53438,0.08926
1907.60556,0.08949
1905.67674,0.08912
1903.74792,0.08812
1901.81909,0.08678
1899.89027,0.08547
1897.96145,0.08463
1896.03263,0.08442
1894.10380,0.08492
1892.17498,0.08598
1890.24616,0.08719
1888.31734,0.08812
1886.38851,0.08838
1884.45969,0.08789
1882.53087,0.08689
1880.60204,0.08579
1878.67322,0.08493
1876.74440,0.08455
1874.81558,0.08466
1872.88675,0.08506
1870.95793,0.08560
1869.02911,0.08610
1867.10029,0.08634
1865.17146,0.08623
1863.24264,0.08569
1861.31382,0.08478
1859.38500,0.08387
1857.45617,0.08336
1855.52735,0.08352
1853.59853,0.08433
1851.66971,0.08547
1849.74088,0.08659
1847.81206,0.08721
1845.88324,0.08686
1843.95442,0.08561
1842.02559,0.08423
1840.09677,0.08319
1838.16795,0.08250
1836.23912,0.08241
1834.31030,0.08286
1832.38148,0.08352
1830.45266,0.08408
1828.52383,0.08402
1826.59501,0.08330
1824.66619,0.08211
1822.73737,0.08076
1820.80854,0.07959
1818.87972,0.07890
1816.95090,0.07887
1815.02208,0.07926
1813.09325,0.07972
1811.16443,0.07991
1809.23561,0.07947
1807.30679,0.07852
1805.37796,0.07741
1803.44914,0.07635
1801.52032,0.07547
1799.59150,0.07511
1797.66267,0.07533
1795.73385,0.07570
1793.80503,0.07570
1791.87620,0.07480
1789.94738,0.07324
1788.01856,0.07175
1786.08974,0.07054
1784.16091,0.06988
1782.23209,0.06986
1780.30327,0.06997
1778.37445,0.06968
1776.44562,0.06908
1774.51680,0.06810
1772.58798,0.06644
1770.65916,0.06488
1768.73033,0.06413
1766.80151,0.06348
1764.87269,0.06273
1762.94387,0.06200
1761.01504,0.06147
1759.08622,0.06125
1757.15740,0.06101
1755.22857,0.06071
1753.29975,0.06036
1751.37093,0.05965
1749.44211,0.05825
1747.51328,0.05629
1745.58446,0.05385
1743.65564,0.05101
1741.72682,0.04860
1739.79799,0.04751
1737.86917,0.04768
1735.94035,0.04847
1734.01153,0.05012
1732.08270,0.05239
1730.15388,0.05422
1728.22506,0.05556
1726.29624,0.05638
1724.36741,0.05687
1722.43859,0.05729
1720.50977,0.05778
1718.58095,0.05802
1716.65212,0.05763
1714.72330,0.05756
1712.79448,0.05814
1710.86565,0.05880
1708.93683,0.05909
1707.00801,0.05891
1705.07919,0.05861
1703.15036,0.05853
1701.22154,0.05861
1699.29272,0.05899
1697.36390,0.05943
1695.43507,0.05950
1693.50625,0.05961
1691.57743,0.06009
1689.64861,0.06112
1687.71978,0.06261
1685.79096,0.06441
1683.86214,0.06656
1681.93332,0.06778
1680.00449,0.06794
1678.07567,0.06766
1676.14685,0.06743
1674.21803,0.06775
1672.28920,0.06859
1670.36038,0.06981
1668.43156,0.07104
1666.50273,0.07170
1664.57391,0.07179
1662.64509,0.07111
1660.71627,0.07011
1658.78744,0.06953
1656.85862,0.06928
1654.92980,0.06915
1653.00098,0.06893
1651.07215,0.06874
1649.14333,0.06866
1647.21451,0.06874
1645.28569,0.06966
1643.35686,0.07093
1641.42804,0.07178
1639.49922,0.07226
1637.57040,0.07284
1635.64157,0.07417
1633.71275,0.07567
1631.78393,0.07679
1629.85511,0.07767
1627.92628,0.07802
1625.99746,0.07777
1624.06864,0.07713
1622.13981,0.07639
1620.21099,0.07619
1618.28217,0.07655
1616.35335,0.07738
1614.42452,0.07830
1612.49570,0.07907
1610.56688,0.07961
1608.63806,0.07966
1606.70923,0.07909
1604.78041,0.07811
1602.85159,0.07718
1600.92277,0.07672
1598.99394,0.07681
1597.06512,0.07737
1595.13630,0.07819
1593.20748,0.07878
1591.27865,0.07903
1589.34983,0.07898
1587.42101,0.07843
1585.49219,0.07751
1583.56336,0.07681
1581.63454,0.07659
1579.70572,0.07666
1577.77689,0.07687
1575.84807,0.07714
1573.91925,0.07741
1571.99043,0.07738
1570.06160,0.07684
1568.13278,0.07624
1566.20396,0.07579
1564.27514,0.07519
1562.34631,0.07472
1560.41749,0.07472
1558.48867,0.07560
1556.55985,0.07649
1554.63102,0.07697
1552.70220,0.07731
1550.77338,0.07727
1548.84456,0.07675
1546.91573,0.07621
1544.98691,0.07577
1543.05809,0.07534
1541.12927,0.07525
1539.20044,0.07566
1537.27162,0.07606
1535.34280,0.07625
1533.41397,0.07599
1531.48515,0.07533
1529.55633,0.07462
1527.62751,0.07392
1525.69868,0.07345
1523.76986,0.07315
1521.84104,0.07280
1519.91222,0.07285
1517.98339,0.07305
1516.05457,0.07287
1514.12575,0.07243
1512.19693,0.07177
1510.26810,0.07075
1508.33928,0.06971
1506.41046,0.06935
1504.48164,0.06940
1502.55281,0.06939
1500.62399,0.06937
1498.69517,0.06896
1496.76635,0.06749
1494.83752,0.06570
1492.90870,0.06456
1490.97988,0.06364
1489.05105,0.06243
1487.12223,0.06124
1485.19341,0.06003
1483.26459,0.05851
1481.33576,0.05679
1479.40694,0.05528
1477.47812,0.05389
1475.54930,0.05284
1473.62047,0.05386
1471.69165,0.05660
1469.76283,0.05788
1467.83401,0.05814
1465.90518,0.05874
1463.97636,0.06045
1462.04754,0.06255
1460.11872,0.06393
1458.18989,0.06417
1456.26107,0.06362
1454.33225,0.06340
1452.40343,0.06325
1450.47460,0.06308
1448.54578,0.06300
1446.61696,0.06275
1444.68813,0.06231
1442.75931,0.06202
1440.83049,0.06203
1438.90167,0.06227
1436.97284,0.06241
1435.04402,0.06203
1433.11520,0.06155
1431.18638,0.06116
1429.25755,0.06091
1427.32873,0.06087
1425.39991,0.06095
1423.47109,0.06101
1421.54226,0.06112
1419.61344,0.06148
1417.68462,0.06190
1415.75580,0.06201
1413.82697,0.06189
1411.89815,0.06181
1409.96933,0.06201
1408.04051,0.06243
1406.11168,0.06280
1404.18286,0.06283
1402.25404,0.06246
1400.32521,0.06171
1398.39639,0.06078
1396.46757,0.06001
1394.53875,0.05919
1392.60992,0.05831
1390.68110,0.05752
1388.75228,0.05668
1386.82346,0.05575
1384.89463,0.05493
1382.96581,0.05432
1381.03699,0.05406
1379.10817,0.05408
1377.17934,0.05410
1375.25052,0.05402
1373.32170,0.05406
1371.39288,0.05429
1369.46405,0.05465
1367.53523,0.05507
1365.60641,0.05547
1363.67759,0.05572
1361.74876,0.05581
1359.81994,0.05586
1357.89112,0.05591
1355.96229,0.05593
1354.03347,0.05600
1352.10465,0.05622
1350.17583,0.05649
1348.24700,0.05663
1346.31818,0.05672
1344.38936,0.05694
1342.46054,0.05736
1340.53171,0.05806
1338.60289,0.05896
1336.67407,0.05971
1334.74525,0.06006
1332.81642,0.05999
1330.88760,0.05977
1328.95878,0.05963
1327.02996,0.05952
1325.10113,0.05944
1323.17231,0.05919
1321.24349,0.05860
1319.31467,0.05790
1317.38584,0.05733
1315.45702,0.05682
1313.52820,0.05638
1311.59937,0.05610
1309.67055,0.05595
1307.74173,0.05587
1305.81291,0.05580
1303.88408,0.05566
1301.95526,0.05548
1300.02644,0.05527
1298.09762,0.05500
1296.16879,0.05480
1294.23997,0.05478
1292.31115,0.05487
1290.38233,0.05498
1288.45350,0.05511
1286.52468,0.05507
1284.59586,0.05475
1282.66704,0.05443
1280.73821,0.05443
1278.80939,0.05462
1276.88057,0.05490
1274.95175,0.05530
1273.02292,0.05558
1271.09410,0.05568
1269.16528,0.05585
1267.23645,0.05625
1265.30763,0.05692
1263.37881,0.05792
1261.44999,0.05914
1259.52116,0.06040
1257.59234,0.06182
1255.66352,0.06359
1253.73470,0.06572
1251.80587,0.06804
1249.87705,0.07039
1247.94823,0.07258
1246.01941,0.07438
1244.09058,0.07574
1242.16176,0.07645
1240.23294,0.07621
1238.30412,0.07506
1236.37529,0.07320
1234.44647,0.07082
1232.51765,0.06816
1230.58883,0.06571
1228.66000,0.06384
1226.73118,0.06251
1224.80236,0.06152
1222.87353,0.06069
1220.94471,0.05996
1219.01589,0.05944
1217.08707,0.05914
1215.15824,0.05891
1213.22942,0.05864
1211.30060,0.05838
1209.37178,0.05835
1207.44295,0.05856
1205.51413,0.05860
1203.58531,0.05836
1201.65649,0.05823
1199.72766,0.05835
1197.79884,0.05851
1195.87002,0.05858
1193.94120,0.05857
1192.01237,0.05858
1190.08355,0.05876
1188.15473,0.05914
1186.22591,0.05950
1184.29708,0.05980
1182.36826,0.06013
1180.43944,0.06032
1178.51061,0.06023
1176.58179,0.06000
1174.65297,0.05999
1172.72415,0.06025
1170.79532,0.06051
1168.86650,0.06061
1166.93768,0.06061
1165.00886,0.06058
1163.08003,0.06049
1161.15121,0.06038
1159.22239,0.06031
1157.29357,0.06020
1155.36474,0.06002
1153.43592,0.06002
1151.50710,0.06017
1149.57828,0.06017
1147.64945,0.05996
1145.72063,0.05959
1143.79181,0.05924
1141.86299,0.05901
1139.93416,0.05875
1138.00534,0.05861
1136.07652,0.05879
1134.14769,0.05910
1132.21887,0.05932
1130.29005,0.05942
1128.36123,0.05947
1126.43240,0.05939
1124.50358,0.05907
1122.57476,0.05889
1120.64594,0.05913
1118.71711,0.05948
1116.78829,0.05978
1114.85947,0.06007
1112.93065,0.06026
1111.00182,0.06043
1109.07300,0.06048
1107.14418,0.06013
1105.21536,0.05959
1103.28653,0.05941
1101.35771,0.05957
1099.42889,0.05983
1097.50007,0.06019
1095.57124,0.06059
1093.64242,0.06066
1091.71360,0.06022
1089.78477,0.05960
1087.85595,0.05930
1085.92713,0.05937
1083.99831,0.05928
1082.06948,0.05888
1080.14066,0.05876
1078.21184,0.05897
1076.28302,0.05929
1074.35419,0.05974
1072.42537,0.05999
1070.49655,0.05985
1068.56773,0.05952
1066.63890,0.05918
1064.71008,0.05909
1062.78126,0.05908
1060.85244,0.05883
1058.92361,0.05864
1056.99479,0.05863
1055.06597,0.05838
1053.13714,0.05800
1051.20832,0.05777
1049.27950,0.05775
1047.35068,0.05792
1045.42185,0.05806
1043.49303,0.05817
1041.56421,0.05828
1039.63539,0.05822
1037.70656,0.05824
1035.77774,0.05830
1033.84892,0.05793
1031.92010,0.05734
1029.99127,0.05720
1028.06245,0.05754
1026.13363,0.05806
1024.20481,0.05861
1022.27598,0.05926
1020.34716,0.06035
1018.41834,0.06177
1016.48952,0.06291
1014.56069,0.06356
1012.63187,0.06375
1010.70305,0.06345
1008.77422,0.06285
1006.84540,0.06224
1004.91658,0.06202
1002.98776,0.06240
1001.05893,0.06305
999.13011,0.06350
997.20129,0.06354
995.27247,0.06306
993.34364,0.06227
991.41482,0.06172
989.48600,0.06180
987.55718,0.06242
985.62835,0.06318
983.69953,0.06391
981.77071,0.06439
979.84189,0.06428
977.91306,0.06339
975.98424,0.06196
974.05542,0.06072
972.12660,0.06034
970.19777,0.06069
968.26895,0.06115
966.34013,0.06148
964.41130,0.06176
962.48248,0.06207
960.55366,0.06220
958.62484,0.06177
956.69601,0.06105
954.76719,0.06057
952.83837,0.06036
950.90955,0.06024
948.98072,0.06022
947.05190,0.06055
945.12308,0.06130
943.19426,0.06208
941.26543,0.06260
939.33661,0.06276
937.40779,0.06248
935.47897,0.06186
933.55014,0.06121
931.62132,0.06080
929.69250,0.06080
927.76368,0.06167
925.83485,0.06380
923.90603,0.06674
921.97721,0.06961
920.04838,0.07163
918.11956,0.07206
916.19074,0.07063
914.26192,0.06823
912.33309,0.06629
910.40427,0.06576
908.47545,0.06688
906.54663,0.06939
904.61780,0.07238
902.68898,0.07464
900.76016,0.07533
898.83134,0.07429
896.90251,0.07198
894.97369,0.06925
893.04487,0.06688
891.11605,0.06567
889.18722,0.06620
887.25840,0.06826
885.32958,0.07131
883.40076,0.07459
881.47193,0.07683
879.54311,0.07712
877.61429,0.07534
875.68546,0.07214
873.75664,0.06879
871.82782,0.06636
869.89900,0.06578
867.97017,0.06749
866.04135,0.07084
864.11253,0.07458
862.18371,0.07755
860.25488,0.07884
858.32606,0.07817
856.39724,0.07572
854.46842,0.07207
852.53959,0.06871
850.61077,0.06715
848.68195,0.06794
846.75313,0.07107
844.82430,0.07571
842.89548,0.08013
840.96666,0.08297
839.03784,0.08346
837.10901,0.08135
835.18019,0.07747
833.25137,0.07348
831.32254,0.07068
829.39372,0.06984
827.46490,0.07180
825.53608,0.07651
823.60725,0.08202
821.67843,0.08594
819.74961,0.08664
817.82079,0.08397
815.89196,0.07938
813.96314,0.07437
812.03432,0.07026
810.10550,0.06851
808.17667,0.06971
806.24785,0.07318
804.31903,0.07773
802.39021,0.08180
800.46138,0.08377
798.53256,0.08293
796.60374,0.07949
794.67492,0.07459
792.74609,0.07004
790.81727,0.06754
788.88845,0.06837
786.95962,0.07236
785.03080,0.07785
783.10198,0.08292
781.17316,0.08569
779.24433,0.08501
777.31551,0.08126
775.38669,0.07578
773.45787,0.07016
771.52904,0.06604
769.60022,0.06496
767.67140,0.06767
765.74258,0.07300
763.81375,0.07847
761.88493,0.08178
759.95611,0.08141
758.02729,0.07712
756.09846,0.07060
754.16964,0.06446
752.24082,0.06054
750.31200,0.05977
748.38317,0.06245
746.45435,0.06695
744.52553,0.06983
742.59670,0.06889
740.66788,0.06459
738.73906,0.05901
736.81024,0.05489
734.88141,0.05332
732.95259,0.05341
731.02377,0.05461
729.09495,0.05640
727.16612,0.05740
725.23730,0.05708
723.30848,0.05659
721.37966,0.05759
719.45083,0.05992
717.52201,0.06166
715.59319,0.06146
713.66437,0.06046
711.73554,0.06182
709.80672,0.06674
707.87790,0.07221
705.94908,0.07411
704.02025,0.07109
702.09143,0.06611
700.16261,0.06421
698.23378,0.06854
696.30496,0.07845
694.37614,0.09002
692.44732,0.09824
690.51849,0.09945
688.58967,0.09319
686.66085,0.08326
684.73203,0.07484
682.80320,0.07093
680.87438,0.07279
678.94556,0.08005
677.01674,0.09027
675.08791,0.09957
673.15909,0.10392
671.23027,0.10184
669.30145,0.09348
667.37262,0.08056
665.44380,0.07049
663.51498,0.06687
661.58616,0.06907
659.65733,0.07653
657.72851,0.08661
655.79969,0.09508
653.87086,0.09787
651.94204,0.09266
650.01322,0.08160
648.08440,0.06967
646.15557,0.06038
644.22675,0.05576
642.29793,0.05670
640.36911,0.06240
638.44028,0.07145
636.51146,0.08146
634.58264,0.08775
632.65382,0.08640
630.72499,0.07901
628.79617,0.07040
626.86735,0.06329
624.93853,0.05841
623.00970,0.05724
621.08088,0.06119
619.15206,0.06877
617.22324,0.07586
615.29441,0.07818
613.36559,0.07493
611.43677,0.06969
609.50794,0.06607
607.57912,0.06466
605.65030,0.06423
603.72148,0.06253
601.79265,0.05875
599.86383,0.05687
