7496.92628,0.03497
7494.99756,0.03814
7493.06885,0.04278
7491.14013,0.04463
7489.21141,0.04188
7487.28269,0.03876
7485.35397,0.03928
7483.42526,0.04480
7481.49654,0.04889
7479.56782,0.04805
7477.63910,0.04382
7475.71039,0.03894
7473.78167,0.03415
7471.85295,0.03246
7469.92423,0.03516
7467.99551,0.03751
7466.06680,0.03820
7464.13808,0.03890
7462.20936,0.03791
7460.28064,0.03725
7458.35192,0.03908
7456.42321,0.04338
7454.49449,0.04739
7452.56577,0.04794
7450.63705,0.04268
7448.70834,0.03889
7446.77962,0.04244
7444.85090,0.04835
7442.92218,0.04649
7440.99346,0.03859
7439.06475,0.03037
7437.13603,0.02402
7435.20731,0.02396
7433.27859,0.02973
7431.34987,0.03243
7429.42116,0.03227
7427.49244,0.03211
7425.56372,0.03050
7423.63500,0.03066
7421.70629,0.03968
7419.77757,0.05023
7417.84885,0.05347
7415.92013,0.04968
7413.99141,0.04374
7412.06270,0.03936
7410.13398,0.04374
7408.20526,0.04836
7406.27654,0.04678
7404.34782,0.04352
7402.41911,0.04225
7400.49039,0.04249
7398.56167,0.04169
7396.63295,0.03516
7394.70424,0.02735
7392.77552,0.02437
7390.84680,0.02384
7388.91808,0.02366
7386.98936,0.02545
7385.06065,0.02995
7383.13193,0.03582
7381.20321,0.03707
7379.27449,0.03280
7377.34577,0.02973
7375.41706,0.03070
7373.48834,0.03175
7371.55962,0.03189
7369.63090,0.03393
7367.70219,0.03759
7365.77347,0.03973
7363.84475,0.03887
7361.91603,0.03566
7359.98731,0.03387
7358.05860,0.03239
7356.12988,0.03114
7354.20116,0.03321
7352.27244,0.03538
7350.34372,0.03572
7348.41501,0.03511
7346.48629,0.03332
7344.55757,0.03430
7342.62885,0.03572
7340.70014,0.03821
7338.77142,0.04263
7336.84270,0.04603
7334.91398,0.04611
7332.98526,0.04172
7331.05655,0.03513
7329.12783,0.03498
7327.19911,0.03888
7325.27039,0.04147
7323.34167,0.04528
7321.41296,0.04861
7319.48424,0.04456
7317.55552,0.03312
7315.62680,0.02617
7313.69809,0.02977
7311.76937,0.03396
7309.84065,0.03273
7307.91193,0.02998
7305.98321,0.02922
7304.05450,0.02995
7302.12578,0.03029
7300.19706,0.03106
7298.26834,0.03100
7296.33963,0.02723
7294.41091,0.02344
7292.48219,0.02371
7290.55347,0.02730
7288.62475,0.03335
7286.69604,0.03953
7284.76732,0.04037
7282.83860,0.03513
7280.90988,0.02994
7278.98116,0.02760
7277.05245,0.02568
7275.12373,0.02632
7273.19501,0.02863
7271.26629,0.02825
7269.33758,0.02713
7267.40886,0.03328
7265.48014,0.04102
7263.55142,0.04293
7261.62270,0.04285
7259.69399,0.04086
7257.76527,0.03570
7255.83655,0.03333
7253.90783,0.03256
7251.97911,0.02980
7250.05040,0.02494
7248.12168,0.02253
7246.19296,0.02438
7244.26424,0.03072
7242.33553,0.03779
7240.40681,0.03924
7238.47809,0.03633
7236.54937,0.03651
7234.62065,0.03968
7232.69194,0.03719
7230.76322,0.03113
7228.83450,0.02785
7226.90578,0.02430
7224.97706,0.02602
7223.04835,0.03466
7221.11963,0.03968
7219.19091,0.03470
7217.26219,0.02665
7215.33348,0.02552
7213.40476,0.03077
7211.47604,0.03597
7209.54732,0.03821
7207.61860,0.03584
7205.68989,0.03202
7203.76117,0.03151
7201.83245,0.03515
7199.90373,0.03827
7197.97501,0.03799
7196.04630,0.03610
7194.11758,0.03753
7192.18886,0.04203
7190.26014,0.04621
7188.33143,0.04454
7186.40271,0.03678
7184.47399,0.03034
7182.54527,0.03044
7180.61655,0.03288
7178.68784,0.03585
7176.75912,0.03920
7174.83040,0.04280
7172.90168,0.04295
7170.97296,0.03982
7169.04425,0.03491
7167.11553,0.02682
7165.18681,0.02200
7163.25809,0.02493
7161.32938,0.02752
7159.40066,0.02748
7157.47194,0.03096
7155.54322,0.03879
7153.61450,0.04299
7151.68579,0.04236
7149.75707,0.04016
7147.82835,0.03717
7145.89963,0.03484
7143.97091,0.03372
7142.04220,0.03475
7140.11348,0.03594
7138.18476,0.03238
7136.25604,0.02785
7134.32733,0.02851
7132.39861,0.03324
7130.46989,0.03584
7128.54117,0.03100
7126.61245,0.02413
7124.68374,0.02563
7122.75502,0.03128
7120.82630,0.03230
7118.89758,0.02755
7116.96887,0.02355
7115.04015,0.02359
7113.11143,0.02542
7111.18271,0.02638
7109.25399,0.02591
7107.32528,0.02463
7105.39656,0.02262
7103.46784,0.02012
7101.53912,0.02220
7099.61040,0.02874
7097.68169,0.03590
7095.75297,0.03945
7093.82425,0.03775
7091.89553,0.03399
7089.96682,0.03503
7088.03810,0.03855
7086.10938,0.03619
7084.18066,0.02908
7082.25194,0.02678
7080.32323,0.02934
7078.39451,0.03149
7076.46579,0.03119
7074.53707,0.02910
7072.60835,0.02887
7070.67964,0.03091
7068.75092,0.02977
7066.82220,0.02938
7064.89348,0.03072
7062.96477,0.02833
7061.03605,0.02434
7059.10733,0.02412
7057.17861,0.02633
7055.24989,0.02732
7053.32118,0.02532
7051.39246,0.02278
7049.46374,0.02371
7047.53502,0.02742
7045.60630,0.03107
7043.67759,0.03429
7041.74887,0.03516
7039.82015,0.03264
7037.89143,0.02917
7035.96272,0.02891
7034.03400,0.03134
7032.10528,0.03030
7030.17656,0.02760
7028.24784,0.03023
7026.31913,0.03519
7024.39041,0.03852
7022.46169,0.03884
7020.53297,0.03552
7018.60425,0.03175
7016.67554,0.03046
7014.74682,0.03111
7012.81810,0.03367
7010.88938,0.03579
7008.96067,0.03393
7007.03195,0.02832
7005.10323,0.02275
7003.17451,0.02129
7001.24579,0.02623
6999.31708,0.03213
6997.38836,0.03265
6995.45964,0.03069
6993.53092,0.02942
6991.60220,0.02668
6989.67349,0.02458
6987.74477,0.02679
6985.81605,0.03090
6983.88733,0.03271
6981.95862,0.03352
6980.02990,0.03313
6978.10118,0.02929
6976.17246,0.02539
6974.24374,0.02563
6972.31503,0.02887
6970.38631,0.03372
6968.45759,0.03610
6966.52887,0.03206
6964.60015,0.02654
6962.67144,0.02570
6960.74272,0.02709
6958.81400,0.02850
6956.88528,0.02948
6954.95657,0.02996
6953.02785,0.03023
6951.09913,0.03114
6949.17041,0.03041
6947.24169,0.02740
6945.31298,0.02817
6943.38426,0.03555
6941.45554,0.04231
6939.52682,0.04271
6937.59811,0.03726
6935.66939,0.03165
6933.74067,0.03166
6931.81195,0.03515
6929.88323,0.03206
6927.95452,0.02374
6926.02580,0.02254
6924.09708,0.02884
6922.16836,0.03203
6920.23964,0.02966
6918.31093,0.02635
6916.38221,0.02799
6914.45349,0.03516
6912.52477,0.03984
6910.59606,0.03757
6908.66734,0.03220
6906.73862,0.02812
6904.80990,0.02813
6902.88118,0.02981
6900.95247,0.02852
6899.02375,0.02496
6897.09503,0.02458
6895.16631,0.02970
6893.23759,0.03534
6891.30888,0.03642
6889.38016,0.03472
6887.45144,0.03565
6885.52272,0.04040
6883.59401,0.04261
6881.66529,0.03886
6879.73657,0.03319
6877.80785,0.02877
6875.87913,0.02614
6873.95042,0.02799
6872.02170,0.03062
6870.09298,0.02889
6868.16426,0.02682
6866.23554,0.02761
6864.30683,0.02868
6862.37811,0.02660
6860.44939,0.02214
6858.52067,0.02400
6856.59196,0.03297
6854.66324,0.04030
6852.73452,0.04123
6850.80580,0.03716
6848.87708,0.03081
6846.94837,0.02845
6845.01965,0.03196
6843.09093,0.03250
6841.16221,0.02747
6839.23349,0.02607
6837.30478,0.02931
6835.37606,0.03014
6833.44734,0.02805
6831.51862,0.02682
6829.58991,0.02647
6827.66119,0.02845
6825.73247,0.03246
6823.80375,0.03389
6821.87503,0.03118
6819.94632,0.02907
6818.01760,0.02886
6816.08888,0.02920
6814.16016,0.03121
6812.23144,0.03251
6810.30273,0.03047
6808.37401,0.02968
6806.44529,0.03349
6804.51657,0.03825
6802.58786,0.03798
6800.65914,0.03540
6798.73042,0.03615
6796.80170,0.03884
6794.87298,0.04003
6792.94427,0.04102
6791.01555,0.04270
6789.08683,0.04223
6787.15811,0.03831
6785.22939,0.03338
6783.30068,0.03085
6781.37196,0.03245
6779.44324,0.03512
6777.51452,0.03428
6775.58581,0.03040
6773.65709,0.02877
6771.72837,0.02854
6769.79965,0.02803
6767.87093,0.03122
6765.94222,0.03542
6764.01350,0.03373
6762.08478,0.03011
6760.15606,0.02941
6758.22735,0.03031
6756.29863,0.02988
6754.36991,0.02869
6752.44119,0.02867
6750.51247,0.03050
6748.58376,0.03349
6746.65504,0.03489
6744.72632,0.03414
6742.79760,0.03458
6740.86888,0.03490
6738.94017,0.03127
6737.01145,0.02652
6735.08273,0.02688
6733.15401,0.03211
6731.22530,0.03444
6729.29658,0.03001
6727.36786,0.02672
6725.43914,0.03023
6723.51042,0.03519
6721.58171,0.03671
6719.65299,0.03483
6717.72427,0.03205
6715.79555,0.03215
6713.86683,0.03311
6711.93812,0.03206
6710.00940,0.03177
6708.08068,0.03329
6706.15196,0.03460
6704.22325,0.03580
6702.29453,0.03673
6700.36581,0.03560
6698.43709,0.03261
6696.50837,0.03048
6694.57966,0.02980
6692.65094,0.02940
6690.72222,0.02951
6688.79350,0.03143
6686.86478,0.03268
6684.93607,0.03104
6683.00735,0.02986
6681.07863,0.03185
6679.14991,0.03264
6677.22120,0.03010
6675.29248,0.02758
6673.36376,0.02683
6671.43504,0.02895
6669.50632,0.03440
6667.57761,0.03749
6665.64889,0.03694
6663.72017,0.03579
6661.79145,0.03463
6659.86273,0.03491
6657.93402,0.03644
6656.00530,0.03664
6654.07658,0.03676
6652.14786,0.03828
6650.21915,0.03685
6648.29043,0.03090
6646.36171,0.02853
6644.43299,0.03306
6642.50427,0.03785
6640.57556,0.03824
6638.64684,0.03589
6636.71812,0.03258
6634.78940,0.02812
6632.86068,0.02642
6630.93197,0.03069
6629.00325,0.03600
6627.07453,0.03718
6625.14581,0.03468
6623.21710,0.03181
6621.28838,0.03154
6619.35966,0.03422
6617.43094,0.03643
6615.50222,0.03709
6613.57351,0.03567
6611.64479,0.03045
6609.71607,0.02414
6607.78735,0.02431
6605.85863,0.02927
6603.92992,0.03093
6602.00120,0.02986
6600.07248,0.03033
6598.14376,0.03125
6596.21505,0.03044
6594.28633,0.02754
6592.35761,0.02578
6590.42889,0.02728
6588.50017,0.03081
6586.57146,0.03328
6584.64274,0.03210
6582.71402,0.02957
6580.78530,0.02979
6578.85659,0.03123
6576.92787,0.03209
6574.99915,0.03319
6573.07043,0.03298
6571.14171,0.03015
6569.21300,0.02826
6567.28428,0.03041
6565.35556,0.03478
6563.42684,0.03559
6561.49812,0.03155
6559.56941,0.02731
6557.64069,0.02542
6555.71197,0.02479
6553.78325,0.02423
6551.85454,0.02377
6549.92582,0.02449
6547.99710,0.02625
6546.06838,0.02842
6544.13966,0.02935
6542.21095,0.02738
6540.28223,0.02511
6538.35351,0.02587
6536.42479,0.02780
6534.49607,0.02893
6532.56736,0.02837
6530.63864,0.02647
6528.70992,0.02651
6526.78120,0.02896
6524.85249,0.03050
6522.92377,0.03044
6520.99505,0.03086
6519.06633,0.03291
6517.13761,0.03435
6515.20890,0.03330
6513.28018,0.03120
6511.35146,0.02981
6509.42274,0.02832
6507.49402,0.02693
6505.56531,0.02629
6503.63659,0.02582
6501.70787,0.02522
6499.77915,0.02482
6497.85044,0.02561
6495.92172,0.02815
6493.99300,0.02986
6492.06428,0.03094
6490.13556,0.03262
6488.20685,0.03352
6486.27813,0.03435
6484.34941,0.03642
6482.42069,0.03785
6480.49197,0.03788
6478.56326,0.03609
6476.63454,0.03364
6474.70582,0.03281
6472.77710,0.03367
6470.84839,0.03262
6468.91967,0.03041
6466.99095,0.03128
6465.06223,0.03213
6463.13351,0.02870
6461.20480,0.02527
6459.27608,0.02430
6457.34736,0.02523
6455.41864,0.02804
6453.48992,0.03156
6451.56121,0.03471
6449.63249,0.03745
6447.70377,0.03795
6445.77505,0.03557
6443.84634,0.03288
6441.91762,0.03072
6439.98890,0.02750
6438.06018,0.02477
6436.13146,0.02520
6434.20275,0.02724
6432.27403,0.02746
6430.34531,0.02564
6428.41659,0.02361
6426.48787,0.02381
6424.55916,0.02431
6422.63044,0.02363
6420.70172,0.02530
6418.77300,0.02868
6416.84429,0.03145
6414.91557,0.03473
6412.98685,0.03619
6411.05813,0.03375
6409.12941,0.03110
6407.20070,0.03073
6405.27198,0.03165
6403.34326,0.03334
6401.41454,0.03457
6399.48583,0.03404
6397.55711,0.03185
6395.62839,0.03029
6393.69967,0.03068
6391.77095,0.03044
6389.84224,0.02807
6387.91352,0.02693
6385.98480,0.02745
6384.05608,0.02709
6382.12736,0.02636
6380.19865,0.02682
6378.26993,0.02797
6376.34121,0.02949
6374.41249,0.03191
6372.48378,0.03307
6370.55506,0.03048
6368.62634,0.02740
6366.69762,0.02734
6364.76890,0.02816
6362.84019,0.02802
6360.91147,0.02801
6358.98275,0.02879
6357.05403,0.03030
6355.12531,0.03249
6353.19660,0.03447
6351.26788,0.03472
6349.33916,0.03352
6347.41044,0.03194
6345.48173,0.03019
6343.55301,0.02918
6341.62429,0.02921
6339.69557,0.02881
6337.76685,0.02801
6335.83814,0.02749
6333.90942,0.02695
6331.98070,0.02695
6330.05198,0.02864
6328.12326,0.03020
6326.19455,0.02948
6324.26583,0.02863
6322.33711,0.03003
6320.40839,0.03226
6318.47968,0.03337
6316.55096,0.03325
6314.62224,0.03197
6312.69352,0.02988
6310.76480,0.02831
6308.83609,0.02842
6306.90737,0.03143
6304.97865,0.03469
6303.04993,0.03501
6301.12121,0.03318
6299.19250,0.02984
6297.26378,0.02658
6295.33506,0.02531
6293.40634,0.02466
6291.47763,0.02518
6289.54891,0.02651
6287.62019,0.02628
6285.69147,0.02544
6283.76275,0.02686
6281.83404,0.02906
6279.90532,0.02920
6277.97660,0.02834
6276.04788,0.02865
6274.11916,0.02996
6272.19045,0.03146
6270.26173,0.03336
6268.33301,0.03545
6266.40429,0.03502
6264.47558,0.03085
6262.54686,0.02563
6260.61814,0.02404
6258.68942,0.02697
6256.76070,0.03074
6254.83199,0.03221
6252.90327,0.03103
6250.97455,0.02930
6249.04583,0.02905
6247.11711,0.02746
6245.18840,0.02323
6243.25968,0.02116
6241.33096,0.02348
6239.40224,0.02685
6237.47353,0.02831
6235.54481,0.02844
6233.61609,0.02995
6231.68737,0.03245
6229.75865,0.03282
6227.82994,0.02998
6225.90122,0.02693
6223.97250,0.02683
6222.04378,0.02917
6220.11506,0.03097
6218.18635,0.03097
6216.25763,0.03003
6214.32891,0.02896
6212.40019,0.02826
6210.47148,0.02820
6208.54276,0.02826
6206.61404,0.02980
6204.68532,0.03246
6202.75660,0.03330
6200.82789,0.03135
6198.89917,0.02830
6196.97045,0.02638
6195.04173,0.02611
6193.11302,0.02691
6191.18430,0.02856
6189.25558,0.02923
6187.32686,0.02806
6185.39814,0.02772
6183.46943,0.02977
6181.54071,0.03140
6179.61199,0.03060
6177.68327,0.02937
6175.75455,0.02927
6173.82584,0.02896
6171.89712,0.02763
6169.96840,0.02702
6168.03968,0.02859
6166.11097,0.03114
6164.18225,0.03304
6162.25353,0.03377
6160.32481,0.03376
6158.39609,0.03278
6156.46738,0.03137
6154.53866,0.03098
6152.60994,0.03106
6150.68122,0.03032
6148.75250,0.03021
6146.82379,0.03137
6144.89507,0.03174
6142.96635,0.03027
6141.03763,0.02988
6139.10892,0.03227
6137.18020,0.03391
6135.25148,0.03190
6133.32276,0.02864
6131.39404,0.02774
6129.46533,0.02945
6127.53661,0.03030
6125.60789,0.02782
6123.67917,0.02445
6121.75045,0.02402
6119.82174,0.02593
6117.89302,0.02724
6115.96430,0.02767
6114.03558,0.02841
6112.10687,0.02969
6110.17815,0.03118
6108.24943,0.03160
6106.32071,0.03004
6104.39199,0.02823
6102.46328,0.02840
6100.53456,0.02999
6098.60584,0.03160
6096.67712,0.03282
6094.74840,0.03321
6092.81969,0.03240
6090.89097,0.03150
6088.96225,0.03136
6087.03353,0.03109
6085.10482,0.02982
6083.17610,0.02844
6081.24738,0.02827
6079.31866,0.02929
6077.38994,0.02977
6075.46123,0.02946
6073.53251,0.03025
6071.60379,0.03172
6069.67507,0.03179
6067.74635,0.03145
6065.81764,0.03206
6063.88892,0.03263
6061.96020,0.03252
6060.03148,0.03255
6058.10277,0.03201
6056.17405,0.02969
6054.24533,0.02781
6052.31661,0.02933
6050.38789,0.03283
6048.45918,0.03471
6046.53046,0.03403
6044.60174,0.03249
6042.67302,0.03051
6040.74430,0.02830
6038.81559,0.02703
6036.88687,0.02784
6034.95815,0.02993
6033.02943,0.03068
6031.10072,0.02885
6029.17200,0.02679
6027.24328,0.02725
6025.31456,0.02980
6023.38584,0.03181
6021.45713,0.03203
6019.52841,0.02971
6017.59969,0.02621
6015.67097,0.02513
6013.74226,0.02664
6011.81354,0.02791
6009.88482,0.02746
6007.95610,0.02691
6006.02738,0.02836
6004.09867,0.02988
6002.16995,0.02934
6000.24123,0.02788
5998.31251,0.02722
5996.38379,0.02714
5994.45508,0.02718
5992.52636,0.02801
5990.59764,0.02870
5988.66892,0.02780
5986.74021,0.02732
5984.81149,0.02893
5982.88277,0.03115
5980.95405,0.03196
5979.02533,0.03088
5977.09662,0.02915
5975.16790,0.02883
5973.23918,0.03050
5971.31046,0.03202
5969.38174,0.03136
5967.45303,0.02955
5965.52431,0.02853
5963.59559,0.02882
5961.66687,0.02985
5959.73816,0.03055
5957.80944,0.03046
5955.88072,0.03081
5953.95200,0.03179
5952.02328,0.03214
5950.09457,0.03167
5948.16585,0.03116
5946.23713,0.03104
5944.30841,0.03099
5942.37969,0.03073
5940.45098,0.03067
5938.52226,0.03112
5936.59354,0.03240
5934.66482,0.03330
5932.73611,0.03115
5930.80739,0.02744
5928.87867,0.02644
5926.94995,0.02737
5925.02123,0.02822
5923.09252,0.02950
5921.16380,0.03013
5919.23508,0.02958
5917.30636,0.02986
5915.37764,0.03029
5913.44893,0.02894
5911.52021,0.02740
5909.59149,0.02744
5907.66277,0.02778
5905.73406,0.02695
5903.80534,0.02590
5901.87662,0.02613
5899.94790,0.02754
5898.01918,0.02964
5896.09047,0.03146
5894.16175,0.03205
5892.23303,0.03222
5890.30431,0.03270
5888.37559,0.03325
5886.44688,0.03417
5884.51816,0.03492
5882.58944,0.03403
5880.66072,0.03189
5878.73201,0.02988
5876.80329,0.02789
5874.87457,0.02638
5872.94585,0.02676
5871.01713,0.02814
5869.08842,0.02891
5867.15970,0.02945
5865.23098,0.02984
5863.30226,0.02926
5861.37354,0.02829
5859.44483,0.02841
5857.51611,0.02919
5855.58739,0.02926
5853.65867,0.02819
5851.72996,0.02661
5849.80124,0.02617
5847.87252,0.02771
5845.94380,0.02898
5844.01508,0.02929
5842.08637,0.03060
5840.15765,0.03236
5838.22893,0.03267
5836.30021,0.03171
5834.37150,0.03050
5832.44278,0.02950
5830.51406,0.02866
5828.58534,0.02791
5826.65662,0.02725
5824.72791,0.02707
5822.79919,0.02717
5820.87047,0.02734
5818.94175,0.02833
5817.01303,0.03019
5815.08432,0.03119
5813.15560,0.03023
5811.22688,0.02886
5809.29816,0.02948
5807.36945,0.03083
5805.44073,0.03080
5803.51201,0.03046
5801.58329,0.03141
5799.65457,0.03238
5797.72586,0.03182
5795.79714,0.03082
5793.86842,0.03112
5791.93970,0.03217
5790.01098,0.03202
5788.08227,0.03033
5786.15355,0.02879
5784.22483,0.02832
5782.29611,0.02916
5780.36740,0.03125
5778.43868,0.03280
5776.50996,0.03212
5774.58124,0.03067
5772.65252,0.03081
5770.72381,0.03191
5768.79509,0.03191
5766.86637,0.03097
5764.93765,0.03115
5763.00893,0.03248
5761.08022,0.03189
5759.15150,0.02959
5757.22278,0.02888
5755.29406,0.02953
5753.36535,0.02967
5751.43663,0.02923
5749.50791,0.02848
5747.57919,0.02806
5745.65047,0.02797
5743.72176,0.02781
5741.79304,0.02808
5739.86432,0.02891
5737.93560,0.03047
5736.00688,0.03237
5734.07817,0.03258
5732.14945,0.03055
5730.22073,0.02866
5728.29201,0.02864
5726.36330,0.02964
5724.43458,0.03037
5722.50586,0.02990
5720.57714,0.02908
5718.64842,0.02952
5716.71971,0.03062
5714.79099,0.03129
5712.86227,0.03136
5710.93355,0.03065
5709.00483,0.03016
5707.07612,0.03024
5705.14740,0.02998
5703.21868,0.02978
5701.28996,0.02987
5699.36125,0.02909
5697.43253,0.02791
5695.50381,0.02787
5693.57509,0.02877
5691.64637,0.02927
5689.71766,0.02891
5687.78894,0.02841
5685.86022,0.02871
5683.93150,0.02976
5682.00278,0.03032
5680.07407,0.02966
5678.14535,0.02867
5676.21663,0.02809
5674.28791,0.02775
5672.35920,0.02777
5670.43048,0.02895
5668.50176,0.03072
5666.57304,0.03108
5664.64432,0.03034
5662.71561,0.03004
5660.78689,0.02940
5658.85817,0.02776
5656.92945,0.02702
5655.00074,0.02862
5653.07202,0.03088
5651.14330,0.03182
5649.21458,0.03141
5647.28586,0.03031
5645.35715,0.02967
5643.42843,0.03064
5641.49971,0.03202
5639.57099,0.03163
5637.64227,0.03014
5635.71356,0.02957
5633.78484,0.02974
5631.85612,0.02995
5629.92740,0.03053
5627.99869,0.03101
5626.06997,0.03099
5624.14125,0.03086
5622.21253,0.03054
5620.28381,0.03011
5618.35510,0.03000
5616.42638,0.03014
5614.49766,0.02986
5612.56894,0.02928
5610.64022,0.02950
5608.71151,0.03040
5606.78279,0.03091
5604.85407,0.03108
5602.92535,0.03122
5600.99664,0.03154
5599.06792,0.03190
5597.13920,0.03141
5595.21048,0.03068
5593.28176,0.03134
5591.35305,0.03255
5589.42433,0.03244
5587.49561,0.03149
5585.56689,0.03116
5583.63817,0.03114
5581.70946,0.03078
5579.78074,0.03016
5577.85202,0.02959
5575.92330,0.02938
5573.99459,0.02941
5572.06587,0.02952
5570.13715,0.03012
5568.20843,0.03061
5566.27971,0.03076
5564.35100,0.03108
5562.42228,0.03075
5560.49356,0.02965
5558.56484,0.02964
5556.63612,0.03056
5554.70741,0.03060
5552.77869,0.02972
5550.84997,0.02887
5548.92125,0.02846
5546.99254,0.02862
5545.06382,0.02897
5543.13510,0.02924
5541.20638,0.02948
5539.27766,0.02909
5537.34895,0.02834
5535.42023,0.02824
5533.49151,0.02852
5531.56279,0.02931
5529.63407,0.03043
5527.70536,0.03023
5525.77664,0.02851
5523.84792,0.02749
5521.91920,0.02846
5519.99049,0.03026
5518.06177,0.03133
5516.13305,0.03145
5514.20433,0.03086
5512.27561,0.02968
5510.34690,0.02862
5508.41818,0.02812
5506.48946,0.02736
5504.56074,0.02642
5502.63202,0.02641
5500.70331,0.02734
5498.77459,0.02836
5496.84587,0.02951
5494.91715,0.03053
5492.98844,0.03007
5491.05972,0.02895
5489.13100,0.02843
5487.20228,0.02804
5485.27356,0.02846
5483.34485,0.02940
5481.41613,0.02931
5479.48741,0.02883
5477.55869,0.02886
5475.62998,0.02881
5473.70126,0.02911
5471.77254,0.03021
5469.84382,0.03081
5467.91510,0.03031
5465.98639,0.02972
5464.05767,0.02927
5462.12895,0.02840
5460.20023,0.02739
5458.27151,0.02733
5456.34280,0.02839
5454.41408,0.02972
5452.48536,0.03054
5450.55664,0.03123
5448.62793,0.03196
5446.69921,0.03164
5444.77049,0.03007
5442.84177,0.02874
5440.91305,0.02800
5438.98434,0.02763
5437.05562,0.02832
5435.12690,0.02974
5433.19818,0.03064
5431.26946,0.03148
5429.34075,0.03191
5427.41203,0.03060
5425.48331,0.02919
5423.55459,0.02923
5421.62588,0.02993
5419.69716,0.03039
5417.76844,0.03049
5415.83972,0.02993
5413.91100,0.02882
5411.98229,0.02868
5410.05357,0.02948
5408.12485,0.02918
5406.19613,0.02779
5404.26741,0.02719
5402.33870,0.02848
5400.40998,0.03061
5398.48126,0.03111
5396.55254,0.02943
5394.62383,0.02849
5392.69511,0.02996
5390.76639,0.03175
5388.83767,0.03209
5386.90895,0.03084
5384.98024,0.02964
5383.05152,0.02992
5381.12280,0.03052
5379.19408,0.03022
5377.26536,0.02935
5375.33665,0.02954
5373.40793,0.03078
5371.47921,0.03081
5369.55049,0.02992
5367.62178,0.02981
5365.69306,0.02980
5363.76434,0.02899
5361.83562,0.02856
5359.90690,0.02880
5357.97819,0.02920
5356.04947,0.02951
5354.12075,0.02942
5352.19203,0.02923
5350.26331,0.02904
5348.33460,0.02903
5346.40588,0.03010
5344.47716,0.03135
5342.54844,0.03124
5340.61973,0.03059
5338.69101,0.03033
5336.76229,0.03042
5334.83357,0.03025
5332.90485,0.02988
5330.97614,0.03032
5329.04742,0.03098
5327.11870,0.03038
5325.18998,0.02931
5323.26126,0.02874
5321.33255,0.02825
5319.40383,0.02809
5317.47511,0.02828
5315.54639,0.02832
5313.61768,0.02844
5311.68896,0.02856
5309.76024,0.02854
5307.83152,0.02860
5305.90280,0.02854
5303.97409,0.02845
5302.04537,0.02856
5300.11665,0.02863
5298.18793,0.02888
5296.25922,0.02983
5294.33050,0.03064
5292.40178,0.03015
5290.47306,0.02943
5288.54434,0.03012
5286.61563,0.03124
5284.68691,0.03152
5282.75819,0.03088
5280.82947,0.03012
5278.90075,0.03004
5276.97204,0.02981
5275.04332,0.02881
5273.11460,0.02820
5271.18588,0.02849
5269.25717,0.02906
5267.32845,0.02959
5265.39973,0.02983
5263.47101,0.02933
5261.54229,0.02874
5259.61358,0.02910
5257.68486,0.02965
5255.75614,0.02946
5253.82742,0.02942
5251.89870,0.02963
5249.96999,0.02964
5248.04127,0.03009
5246.11255,0.03040
5244.18383,0.03010
5242.25512,0.03010
5240.32640,0.03041
5238.39768,0.03090
5236.46896,0.03125
5234.54024,0.03116
5232.61153,0.03128
5230.68281,0.03150
5228.75409,0.03123
5226.82537,0.03081
5224.89665,0.03001
5222.96794,0.02948
5221.03922,0.03038
5219.11050,0.03157
5217.18178,0.03141
5215.25307,0.03045
5213.32435,0.03011
5211.39563,0.03072
5209.46691,0.03146
5207.53819,0.03171
5205.60948,0.03146
5203.68076,0.03079
5201.75204,0.02991
5199.82332,0.02958
5197.89460,0.03026
5195.96589,0.03126
5194.03717,0.03171
5192.10845,0.03153
5190.17973,0.03063
5188.25102,0.02928
5186.32230,0.02877
5184.39358,0.02958
5182.46486,0.03054
5180.53614,0.03086
5178.60743,0.03030
5176.67871,0.02925
5174.74999,0.02918
5172.82127,0.03043
5170.89255,0.03142
5168.96384,0.03144
5167.03512,0.03119
5165.10640,0.03117
5163.17768,0.03122
5161.24897,0.03096
5159.32025,0.03054
5157.39153,0.03038
5155.46281,0.03049
5153.53409,0.03079
5151.60538,0.03126
5149.67666,0.03147
5147.74794,0.03097
5145.81922,0.03010
5143.89050,0.02943
5141.96179,0.02905
5140.03307,0.02903
5138.10435,0.02938
5136.17563,0.02953
5134.24692,0.02919
5132.31820,0.02893
5130.38948,0.02929
5128.46076,0.02994
5126.53204,0.03025
5124.60333,0.03025
5122.67461,0.03025
5120.74589,0.02971
5118.81717,0.02865
5116.88846,0.02863
5114.95974,0.02927
5113.03102,0.02890
5111.10230,0.02862
5109.17358,0.02945
5107.24487,0.03009
5105.31615,0.02988
5103.38743,0.02925
5101.45871,0.02891
5099.52999,0.02945
5097.60128,0.03013
5095.67256,0.03009
5093.74384,0.02963
5091.81512,0.02918
5089.88641,0.02887
5087.95769,0.02916
5086.02897,0.03002
5084.10025,0.02996
5082.17153,0.02875
5080.24282,0.02844
5078.31410,0.02937
5076.38538,0.03000
5074.45666,0.02996
5072.52794,0.03015
5070.59923,0.03048
5068.67051,0.03019
5066.74179,0.02978
5064.81307,0.02976
5062.88436,0.02980
5060.95564,0.03025
5059.02692,0.03111
5057.09820,0.03144
5055.16948,0.03121
5053.24077,0.03112
5051.31205,0.03109
5049.38333,0.03048
5047.45461,0.02944
5045.52589,0.02914
5043.59718,0.02999
5041.66846,0.03090
5039.73974,0.03108
5037.81102,0.03077
5035.88231,0.03046
5033.95359,0.03049
5032.02487,0.03076
5030.09615,0.03058
5028.16743,0.02996
5026.23872,0.02995
5024.31000,0.03053
5022.38128,0.03064
5020.45256,0.03035
5018.52384,0.03047
5016.59513,0.03070
5014.66641,0.03010
5012.73769,0.02908
5010.80897,0.02889
5008.88026,0.02947
5006.95154,0.02985
5005.02282,0.03002
5003.09410,0.03063
5001.16538,0.03105
4999.23667,0.03042
4997.30795,0.02953
4995.37923,0.02938
4993.45051,0.03005
4991.52179,0.03125
4989.59308,0.03203
4987.66436,0.03168
4985.73564,0.03074
4983.80692,0.03017
4981.87821,0.02980
4979.94949,0.02894
4978.02077,0.02829
4976.09205,0.02860
4974.16333,0.02913
4972.23462,0.02980
4970.30590,0.03111
4968.37718,0.03213
4966.44846,0.03178
4964.51974,0.03064
4962.59103,0.03013
4960.66231,0.03054
4958.73359,0.03085
4956.80487,0.03050
4954.87616,0.02988
4952.94744,0.02951
4951.01872,0.02955
4949.09000,0.02996
4947.16128,0.03058
4945.23257,0.03126
4943.30385,0.03168
4941.37513,0.03160
4939.44641,0.03122
4937.51769,0.03068
4935.58898,0.03037
4933.66026,0.03069
4931.73154,0.03088
4929.80282,0.03054
4927.87411,0.03036
4925.94539,0.03061
4924.01667,0.03042
4922.08795,0.02967
4920.15923,0.02963
4918.23052,0.03045
4916.30180,0.03087
4914.37308,0.03055
4912.44436,0.03020
4910.51565,0.03033
4908.58693,0.03062
4906.65821,0.03056
4904.72949,0.03030
4902.80077,0.03033
4900.87206,0.03058
4898.94334,0.03085
4897.01462,0.03105
4895.08590,0.03082
4893.15718,0.03021
4891.22847,0.02994
4889.29975,0.02987
4887.37103,0.02944
4885.44231,0.02919
4883.51360,0.02943
4881.58488,0.02962
4879.65616,0.02985
4877.72744,0.03025
4875.79872,0.03030
4873.87001,0.03025
4871.94129,0.03039
4870.01257,0.03026
4868.08385,0.03010
4866.15513,0.03024
4864.22642,0.03040
4862.29770,0.03046
4860.36898,0.03008
4858.44026,0.02937
4856.51155,0.02931
4854.58283,0.02983
4852.65411,0.02989
4850.72539,0.02956
4848.79667,0.02956
4846.86796,0.02969
4844.93924,0.02968
4843.01052,0.03003
4841.08180,0.03075
4839.15308,0.03113
4837.22437,0.03072
4835.29565,0.02997
4833.36693,0.02963
4831.43821,0.02961
4829.50950,0.02971
4827.58078,0.03021
4825.65206,0.03093
4823.72334,0.03125
4821.79462,0.03082
4819.86591,0.03005
4817.93719,0.02977
4816.00847,0.03017
4814.07975,0.03068
4812.15103,0.03070
4810.22232,0.03025
4808.29360,0.02990
4806.36488,0.02970
4804.43616,0.02942
4802.50745,0.02973
4800.57873,0.03062
4798.65001,0.03097
4796.72129,0.03054
4794.79257,0.03014
4792.86386,0.03003
4790.93514,0.02975
4789.00642,0.02931
4787.07770,0.02945
4785.14898,0.03000
4783.22027,0.03025
4781.29155,0.03016
4779.36283,0.02995
4777.43411,0.02975
4775.50540,0.02953
4773.57668,0.02912
4771.64796,0.02869
4769.71924,0.02875
4767.79052,0.02950
4765.86181,0.03026
4763.93309,0.03016
4762.00437,0.02971
4760.07565,0.02977
4758.14693,0.03019
4756.21822,0.03055
4754.28950,0.03065
4752.36078,0.03053
4750.43206,0.03059
4748.50335,0.03104
4746.57463,0.03157
4744.64591,0.03165
4742.71719,0.03112
4740.78847,0.03041
4738.85976,0.03002
4736.93104,0.03009
4735.00232,0.03005
4733.07360,0.02967
4731.14489,0.02947
4729.21617,0.02954
4727.28745,0.02934
4725.35873,0.02904
4723.43001,0.02920
4721.50130,0.02971
4719.57258,0.03039
4717.64386,0.03107
4715.71514,0.03116
4713.78642,0.03051
4711.85771,0.02990
4709.92899,0.02984
4708.00027,0.02982
4706.07155,0.02960
4704.14284,0.02958
4702.21412,0.02969
4700.28540,0.02964
4698.35668,0.02952
4696.42796,0.02949
4694.49925,0.02977
4692.57053,0.03006
4690.64181,0.02992
4688.71309,0.02977
4686.78437,0.02985
4684.85566,0.02985
4682.92694,0.02971
4680.99822,0.02951
4679.06950,0.02928
4677.14079,0.02909
4675.21207,0.02922
4673.28335,0.02977
4671.35463,0.03024
4669.42591,0.02997
4667.49720,0.02929
4665.56848,0.02916
4663.63976,0.02957
4661.71104,0.02979
4659.78232,0.02988
4657.85361,0.03020
4655.92489,0.03051
4653.99617,0.03025
4652.06745,0.02935
4650.13874,0.02841
4648.21002,0.02809
4646.28130,0.02873
4644.35258,0.02975
4642.42386,0.03040
4640.49515,0.03066
4638.56643,0.03052
4636.63771,0.03016
4634.70899,0.03012
4632.78027,0.03036
4630.85156,0.03050
4628.92284,0.03071
4626.99412,0.03105
4625.06540,0.03086
4623.13669,0.02987
4621.20797,0.02906
4619.27925,0.02921
4617.35053,0.02979
4615.42181,0.03000
4613.49310,0.02971
4611.56438,0.02932
4609.63566,0.02940
4607.70694,0.02992
4605.77822,0.03036
4603.84951,0.03059
4601.92079,0.03073
4599.99207,0.03077
4598.06335,0.03080
4596.13464,0.03073
4594.20592,0.03031
4592.27720,0.02988
4590.34848,0.03007
4588.41976,0.03037
4586.49105,0.03019
4584.56233,0.03012
4582.63361,0.03054
4580.70489,0.03077
4578.77617,0.03040
4576.84746,0.02992
4574.91874,0.02966
4572.99002,0.02958
4571.06130,0.02960
4569.13259,0.02939
4567.20387,0.02888
4565.27515,0.02863
4563.34643,0.02916
4561.41771,0.03035
4559.48900,0.03115
4557.56028,0.03073
4555.63156,0.02981
4553.70284,0.02915
4551.77413,0.02885
4549.84541,0.02906
4547.91669,0.02978
4545.98797,0.03055
4544.05925,0.03066
4542.13054,0.03001
4540.20182,0.02932
4538.27310,0.02915
4536.34438,0.02945
4534.41566,0.02962
4532.48695,0.02943
4530.55823,0.02926
4528.62951,0.02924
4526.70079,0.02930
4524.77208,0.02951
4522.84336,0.02972
4520.91464,0.02983
4518.98592,0.02995
4517.05720,0.03036
4515.12849,0.03104
4513.19977,0.03129
4511.27105,0.03065
4509.34233,0.02983
4507.41361,0.02947
4505.48490,0.02932
4503.55618,0.02933
4501.62746,0.02971
4499.69874,0.03017
4497.77003,0.03037
4495.84131,0.03040
4493.91259,0.03045
4491.98387,0.03059
4490.05515,0.03048
4488.12644,0.02992
4486.19772,0.02943
4484.26900,0.02949
4482.34028,0.03008
4480.41156,0.03072
4478.48285,0.03076
4476.55413,0.03023
4474.62541,0.02973
4472.69669,0.02980
4470.76798,0.03038
4468.83926,0.03072
4466.91054,0.03064
4464.98182,0.03066
4463.05310,0.03078
4461.12439,0.03066
4459.19567,0.03051
4457.26695,0.03052
4455.33823,0.03040
4453.40951,0.03015
4451.48080,0.03007
4449.55208,0.03005
4447.62336,0.02985
4445.69464,0.02958
4443.76593,0.02957
4441.83721,0.02976
4439.90849,0.03000
4437.97977,0.03027
4436.05105,0.03041
4434.12234,0.03034
4432.19362,0.03037
4430.26490,0.03071
4428.33618,0.03108
4426.40746,0.03101
4424.47875,0.03056
4422.55003,0.03003
4420.62131,0.02954
4418.69259,0.02934
4416.76388,0.02963
4414.83516,0.02989
4412.90644,0.02962
4410.97772,0.02924
4409.04900,0.02922
4407.12029,0.02942
4405.19157,0.02953
4403.26285,0.02948
4401.33413,0.02954
4399.40541,0.02975
4397.47670,0.02979
4395.54798,0.02983
4393.61926,0.03027
4391.69054,0.03067
4389.76183,0.03064
4387.83311,0.03031
4385.90439,0.02980
4383.97567,0.02948
4382.04695,0.02974
4380.11824,0.03035
4378.18952,0.03090
4376.26080,0.03094
4374.33208,0.03033
4372.40337,0.02973
4370.47465,0.02966
4368.54593,0.02995
4366.61721,0.03024
4364.68849,0.03043
4362.75978,0.03073
4360.83106,0.03106
4358.90234,0.03105
4356.97362,0.03067
4355.04490,0.03028
4353.11619,0.03004
4351.18747,0.02993
4349.25875,0.02986
4347.33003,0.02958
4345.40132,0.02926
4343.47260,0.02925
4341.54388,0.02948
4339.61516,0.02959
4337.68644,0.02939
4335.75773,0.02901
4333.82901,0.02896
4331.90029,0.02941
4329.97157,0.02987
4328.04285,0.03021
4326.11414,0.03048
4324.18542,0.03049
4322.25670,0.03034
4320.32798,0.03025
4318.39927,0.03019
4316.47055,0.03018
4314.54183,0.03009
4312.61311,0.02996
4310.68439,0.02987
4308.75568,0.02968
4306.82696,0.02961
4304.89824,0.02999
4302.96952,0.03034
4301.04080,0.03021
4299.11209,0.02975
4297.18337,0.02953
4295.25465,0.02986
4293.32593,0.03017
4291.39722,0.03003
4289.46850,0.02987
4287.53978,0.02991
4285.61106,0.02991
4283.68234,0.02967
4281.75363,0.02942
4279.82491,0.02943
4277.89619,0.02966
4275.96747,0.02970
4274.03875,0.02938
4272.11004,0.02925
4270.18132,0.02957
4268.25260,0.02986
4266.32388,0.02978
4264.39517,0.02937
4262.46645,0.02911
4260.53773,0.02960
4258.60901,0.03024
4256.68029,0.03009
4254.75158,0.02954
4252.82286,0.02930
4250.89414,0.02946
4248.96542,0.02987
4247.03670,0.03014
4245.10799,0.03019
4243.17927,0.03033
4241.25055,0.03034
4239.32183,0.03009
4237.39312,0.02998
4235.46440,0.02996
4233.53568,0.02970
4231.60696,0.02955
4229.67824,0.02975
4227.74953,0.03004
4225.82081,0.03022
4223.89209,0.03021
4221.96337,0.03030
4220.03465,0.03074
4218.10594,0.03105
4216.17722,0.03104
4214.24850,0.03084
4212.31978,0.03033
4210.39107,0.02989
4208.46235,0.02980
4206.53363,0.02979
4204.60491,0.02979
4202.67619,0.02980
4200.74748,0.02977
4198.81876,0.02986
4196.89004,0.02997
4194.96132,0.02984
4193.03261,0.02984
4191.10389,0.02999
4189.17517,0.02979
4187.24645,0.02950
4185.31773,0.02953
4183.38902,0.02965
4181.46030,0.02985
4179.53158,0.03020
4177.60286,0.03043
4175.67414,0.03020
4173.74543,0.02970
4171.81671,0.02968
4169.88799,0.03018
4167.95927,0.03053
4166.03056,0.03060
4164.10184,0.03059
4162.17312,0.03041
4160.24440,0.03020
4158.31568,0.03017
4156.38697,0.03007
4154.45825,0.02997
4152.52953,0.03007
4150.60081,0.02998
4148.67209,0.02956
4146.74338,0.02937
4144.81466,0.02967
4142.88594,0.03022
4140.95722,0.03071
4139.02851,0.03080
4137.09979,0.03049
4135.17107,0.03031
4133.24235,0.03030
4131.31363,0.03005
4129.38492,0.02986
4127.45620,0.03024
4125.52748,0.03081
4123.59876,0.03093
4121.67004,0.03066
4119.74133,0.03039
4117.81261,0.03023
4115.88389,0.03027
4113.95517,0.03051
4112.02646,0.03051
4110.09774,0.03000
4108.16902,0.02933
4106.24030,0.02892
4104.31158,0.02904
4102.38287,0.02968
4100.45415,0.03032
4098.52543,0.03059
4096.59671,0.03053
4094.66799,0.03028
4092.73928,0.03015
4090.81056,0.03036
4088.88184,0.03050
4086.95312,0.03021
4085.02441,0.03001
4083.09569,0.03019
4081.16697,0.03034
4079.23825,0.03031
4077.30953,0.03022
4075.38082,0.03015
4073.45210,0.02990
4071.52338,0.02928
4069.59466,0.02888
4067.66594,0.02893
4065.73723,0.02902
4063.80851,0.02927
4061.87979,0.02970
4059.95107,0.02989
4058.02236,0.02995
4056.09364,0.03003
4054.16492,0.02993
4052.23620,0.02978
4050.30748,0.02982
4048.37877,0.02990
4046.45005,0.02995
4044.52133,0.03001
4042.59261,0.02987
4040.66389,0.02951
4038.73518,0.02938
4036.80646,0.02980
4034.87774,0.03013
4032.94902,0.02993
4031.02031,0.02994
4029.09159,0.03041
4027.16287,0.03063
4025.23415,0.03026
4023.30543,0.02993
4021.37672,0.03017
4019.44800,0.03054
4017.51928,0.03062
4015.59056,0.03048
4013.66185,0.03023
4011.73313,0.03002
4009.80441,0.02989
4007.87569,0.02965
4005.94697,0.02954
4004.01826,0.02976
4002.08954,0.02987
4000.16082,0.02966
3998.23210,0.02953
3996.30338,0.02962
3994.37467,0.02982
3992.44595,0.03020
3990.51723,0.03055
3988.58851,0.03059
3986.65980,0.03033
3984.73108,0.03008
3982.80236,0.03010
3980.87364,0.03015
3978.94492,0.03005
3977.01621,0.03021
3975.08749,0.03061
3973.15877,0.03054
3971.23005,0.02994
3969.30133,0.02937
3967.37262,0.02933
3965.44390,0.02983
3963.51518,0.03016
3961.58646,0.03003
3959.65775,0.02983
3957.72903,0.02987
3955.80031,0.03007
3953.87159,0.03012
3951.94287,0.02999
3950.01416,0.02995
3948.08544,0.03004
3946.15672,0.03024
3944.22800,0.03034
3942.29928,0.03017
3940.37057,0.03015
3938.44185,0.03037
3936.51313,0.03031
3934.58441,0.02988
3932.65570,0.02944
3930.72698,0.02941
3928.79826,0.02973
3926.86954,0.03001
3924.94082,0.03002
3923.01211,0.02983
3921.08339,0.02972
3919.15467,0.02980
3917.22595,0.03005
3915.29723,0.03028
3913.36852,0.03029
3911.43980,0.03018
3909.51108,0.03003
3907.58236,0.02990
3905.65365,0.02980
3903.72493,0.02982
3901.79621,0.02984
3899.86749,0.02939
3897.93877,0.02899
3896.01006,0.02915
3894.08134,0.02923
3892.15262,0.02884
3890.22390,0.02893
3888.29518,0.02975
3886.36647,0.03030
3884.43775,0.03025
3882.50903,0.02998
3880.58031,0.02983
3878.65160,0.03002
3876.72288,0.03023
3874.79416,0.03021
3872.86544,0.03006
3870.93672,0.02983
3869.00801,0.02986
3867.07929,0.03011
3865.15057,0.02990
3863.22185,0.02947
3861.29313,0.02970
3859.36442,0.03004
3857.43570,0.02982
3855.50698,0.02882
3853.57826,0.02749
3851.64955,0.02812
3849.72083,0.02956
3847.79211,0.03021
3845.86339,0.03019
3843.93467,0.03011
3842.00596,0.03028
3840.07724,0.03008
3838.14852,0.02944
3836.21980,0.02929
3834.29109,0.02958
3832.36237,0.02997
3830.43365,0.03050
3828.50493,0.03084
3826.57621,0.03078
3824.64750,0.03078
3822.71878,0.03094
3820.79006,0.03078
3818.86134,0.03078
3816.93262,0.03102
3815.00391,0.03079
3813.07519,0.03053
3811.14647,0.03073
3809.21775,0.03096
3807.28904,0.03061
3805.36032,0.03042
3803.43160,0.03098
3801.50288,0.03125
3799.57416,0.03074
3797.64545,0.03012
3795.71673,0.02962
3793.78801,0.02949
3791.85929,0.02961
3789.93057,0.02972
3788.00186,0.02973
3786.07314,0.02954
3784.14442,0.02928
3782.21570,0.02936
3780.28699,0.02957
3778.35827,0.02946
3776.42955,0.02931
3774.50083,0.02932
3772.57211,0.02937
3770.64340,0.02937
3768.71468,0.02931
3766.78596,0.02931
3764.85724,0.02943
3762.92852,0.02953
3760.99981,0.02961
3759.07109,0.02992
3757.14237,0.03030
3755.21365,0.03044
3753.28494,0.03054
3751.35622,0.03094
3749.42750,0.03150
3747.49878,0.03148
3745.57006,0.03039
3743.64135,0.02919
3741.71263,0.02952
3739.78391,0.03025
3737.85519,0.03065
3735.92647,0.03095
3733.99776,0.03101
3732.06904,0.03055
3730.14032,0.03035
3728.21160,0.03049
3726.28289,0.03050
3724.35417,0.03011
3722.42545,0.02963
3720.49673,0.02941
3718.56801,0.02942
3716.63930,0.02952
3714.71058,0.02971
3712.78186,0.02990
3710.85314,0.02984
3708.92442,0.02969
3706.99571,0.02970
3705.06699,0.02964
3703.13827,0.02945
3701.20955,0.02953
3699.28084,0.02969
3697.35212,0.02955
3695.42340,0.02940
3693.49468,0.02956
3691.56596,0.02982
3689.63725,0.02984
3687.70853,0.02963
3685.77981,0.02940
3683.85109,0.02929
3681.92237,0.02932
3679.99366,0.02936
3678.06494,0.02933
3676.13622,0.02925
3674.20750,0.02939
3672.27879,0.02958
3670.35007,0.02900
3668.42135,0.02813
3666.49263,0.02794
3664.56391,0.02810
3662.63520,0.02847
3660.70648,0.02901
3658.77776,0.02950
3656.84904,0.02965
3654.92033,0.02939
3652.99161,0.02914
3651.06289,0.02920
3649.13417,0.02936
3647.20545,0.02906
3645.27674,0.02857
3643.34802,0.02827
3641.41930,0.02841
3639.49058,0.02899
3637.56186,0.02950
3635.63315,0.02927
3633.70443,0.02865
3631.77571,0.02872
3629.84699,0.02937
3627.91828,0.02935
3625.98956,0.02894
3624.06084,0.02865
3622.13212,0.02807
3620.20340,0.02726
3618.27469,0.02718
3616.34597,0.02784
3614.41725,0.02837
3612.48853,0.02862
3610.55981,0.02869
3608.63110,0.02853
3606.70238,0.02817
3604.77366,0.02793
3602.84494,0.02795
3600.91623,0.02793
3598.98751,0.02758
3597.05879,0.02759
3595.13007,0.02838
3593.20135,0.02886
3591.27264,0.02829
3589.34392,0.02731
3587.41520,0.02669
3585.48648,0.02679
3583.55776,0.02700
3581.62905,0.02718
3579.70033,0.02742
3577.77161,0.02749
3575.84289,0.02735
3573.91418,0.02733
3571.98546,0.02749
3570.05674,0.02765
3568.12802,0.02758
3566.19930,0.02721
3564.27059,0.02703
3562.34187,0.02703
3560.41315,0.02691
3558.48443,0.02670
3556.55571,0.02673
3554.62700,0.02708
3552.69828,0.02743
3550.76956,0.02754
3548.84084,0.02760
3546.91213,0.02754
3544.98341,0.02736
3543.05469,0.02746
3541.12597,0.02780
3539.19725,0.02804
3537.26854,0.02778
3535.33982,0.02708
3533.41110,0.02660
3531.48238,0.02667
3529.55366,0.02711
3527.62495,0.02745
3525.69623,0.02722
3523.76751,0.02659
3521.83879,0.02608
3519.91008,0.02613
3517.98136,0.02657
3516.05264,0.02673
3514.12392,0.02674
3512.19520,0.02688
3510.26649,0.02688
3508.33777,0.02705
3506.40905,0.02748
3504.48033,0.02741
3502.55161,0.02684
3500.62290,0.02659
3498.69418,0.02688
3496.76546,0.02731
3494.83674,0.02739
3492.90803,0.02694
3490.97931,0.02654
3489.05059,0.02664
3487.12187,0.02693
3485.19315,0.02721
3483.26444,0.02722
3481.33572,0.02662
3479.40700,0.02595
3477.47828,0.02580
3475.54956,0.02576
3473.62085,0.02553
3471.69213,0.02552
3469.76341,0.02592
3467.83469,0.02622
3465.90598,0.02618
3463.97726,0.02601
3462.04854,0.02595
3460.11982,0.02603
3458.19110,0.02621
3456.26239,0.02643
3454.33367,0.02644
3452.40495,0.02606
3450.47623,0.02596
3448.54752,0.02646
3446.61880,0.02666
3444.69008,0.02630
3442.76136,0.02620
3440.83264,0.02655
3438.90393,0.02683
3436.97521,0.02695
3435.04649,0.02709
3433.11777,0.02702
3431.18905,0.02669
3429.26034,0.02629
3427.33162,0.02597
3425.40290,0.02582
3423.47418,0.02590
3421.54547,0.02608
3419.61675,0.02619
3417.68803,0.02630
3415.75931,0.02635
3413.83059,0.02625
3411.90188,0.02615
3409.97316,0.02602
3408.04444,0.02598
3406.11572,0.02611
3404.18700,0.02609
3402.25829,0.02595
3400.32957,0.02599
3398.40085,0.02607
3396.47213,0.02601
3394.54342,0.02592
3392.61470,0.02584
3390.68598,0.02555
3388.75726,0.02525
3386.82854,0.02548
3384.89983,0.02606
3382.97111,0.02633
3381.04239,0.02612
3379.11367,0.02583
3377.18495,0.02588
3375.25624,0.02615
3373.32752,0.02616
3371.39880,0.02601
3369.47008,0.02600
3367.54137,0.02617
3365.61265,0.02647
3363.68393,0.02687
3361.75521,0.02711
3359.82649,0.02706
3357.89778,0.02699
3355.96906,0.02699
3354.04034,0.02684
3352.11162,0.02659
3350.18290,0.02644
3348.25419,0.02632
3346.32547,0.02615
3344.39675,0.02598
3342.46803,0.02573
3340.53932,0.02549
3338.61060,0.02560
3336.68188,0.02614
3334.75316,0.02663
3332.82444,0.02674
3330.89573,0.02656
3328.96701,0.02636
3327.03829,0.02641
3325.10957,0.02667
3323.18085,0.02668
3321.25214,0.02635
3319.32342,0.02594
3317.39470,0.02574
3315.46598,0.02595
3313.53727,0.02635
3311.60855,0.02654
3309.67983,0.02662
3307.75111,0.02675
3305.82239,0.02679
3303.89368,0.02648
3301.96496,0.02601
3300.03624,0.02590
3298.10752,0.02600
3296.17880,0.02596
3294.25009,0.02601
3292.32137,0.02602
3290.39265,0.02581
3288.46393,0.02597
3286.53522,0.02651
3284.60650,0.02677
3282.67778,0.02677
3280.74906,0.02675
3278.82034,0.02652
3276.89163,0.02611
3274.96291,0.02586
3273.03419,0.02594
3271.10547,0.02611
3269.17676,0.02599
3267.24804,0.02601
3265.31932,0.02652
3263.39060,0.02672
3261.46188,0.02625
3259.53317,0.02576
3257.60445,0.02557
3255.67573,0.02568
3253.74701,0.02602
3251.81829,0.02649
3249.88958,0.02699
3247.96086,0.02720
3246.03214,0.02693
3244.10342,0.02628
3242.17471,0.02592
3240.24599,0.02635
3238.31727,0.02691
3236.38855,0.02686
3234.45983,0.02649
3232.53112,0.02620
3230.60240,0.02615
3228.67368,0.02635
3226.74496,0.02668
3224.81624,0.02684
3222.88753,0.02682
3220.95881,0.02691
3219.03009,0.02695
3217.10137,0.02693
3215.17266,0.02696
3213.24394,0.02682
3211.31522,0.02652
3209.38650,0.02648
3207.45778,0.02681
3205.52907,0.02719
3203.60035,0.02762
3201.67163,0.02810
3199.74291,0.02796
3197.81419,0.02693
3195.88548,0.02592
3193.95676,0.02580
3192.02804,0.02630
3190.09932,0.02684
3188.17061,0.02719
3186.24189,0.02719
3184.31317,0.02693
3182.38445,0.02677
3180.45573,0.02674
3178.52702,0.02665
3176.59830,0.02657
3174.66958,0.02689
3172.74086,0.02759
3170.81214,0.02817
3168.88343,0.02824
3166.95471,0.02782
3165.02599,0.02704
3163.09727,0.02633
3161.16856,0.02611
3159.23984,0.02629
3157.31112,0.02645
3155.38240,0.02644
3153.45368,0.02636
3151.52497,0.02643
3149.59625,0.02674
3147.66753,0.02701
3145.73881,0.02701
3143.81009,0.02701
3141.88138,0.02709
3139.95266,0.02708
3138.02394,0.02703
3136.09522,0.02700
3134.16651,0.02692
3132.23779,0.02697
3130.30907,0.02715
3128.38035,0.02714
3126.45163,0.02696
3124.52292,0.02692
3122.59420,0.02702
3120.66548,0.02702
3118.73676,0.02704
3116.80804,0.02717
3114.87933,0.02729
3112.95061,0.02740
3111.02189,0.02732
3109.09317,0.02697
3107.16446,0.02682
3105.23574,0.02706
3103.30702,0.02743
3101.37830,0.02757
3099.44958,0.02737
3097.52087,0.02700
3095.59215,0.02669
3093.66343,0.02669
3091.73471,0.02703
3089.80600,0.02738
3087.87728,0.02733
3085.94856,0.02702
3084.01984,0.02683
3082.09112,0.02667
3080.16241,0.02657
3078.23369,0.02671
3076.30497,0.02692
3074.37625,0.02702
3072.44753,0.02692
3070.51882,0.02678
3068.59010,0.02686
3066.66138,0.02699
3064.73266,0.02694
3062.80395,0.02676
3060.87523,0.02670
3058.94651,0.02692
3057.01779,0.02716
3055.08907,0.02714
3053.16036,0.02706
3051.23164,0.02707
3049.30292,0.02709
3047.37420,0.02704
3045.44548,0.02690
3043.51677,0.02670
3041.58805,0.02652
3039.65933,0.02654
3037.73061,0.02672
3035.80190,0.02681
3033.87318,0.02667
3031.94446,0.02650
3030.01574,0.02657
3028.08702,0.02684
3026.15831,0.02702
3024.22959,0.02711
3022.30087,0.02713
3020.37215,0.02696
3018.44343,0.02656
3016.51472,0.02614
3014.58600,0.02603
3012.65728,0.02613
3010.72856,0.02613
3008.79985,0.02620
3006.87113,0.02646
3004.94241,0.02651
3003.01369,0.02631
3001.08497,0.02619
2999.15626,0.02624
2997.22754,0.02644
2995.29882,0.02644
2993.37010,0.02607
2991.44138,0.02582
2989.51267,0.02593
2987.58395,0.02608
2985.65523,0.02607
2983.72651,0.02586
2981.79780,0.02551
2979.86908,0.02549
2977.94036,0.02589
2976.01164,0.02602
2974.08292,0.02570
2972.15421,0.02544
2970.22549,0.02546
2968.29677,0.02559
2966.36805,0.02559
2964.43933,0.02548
2962.51062,0.02538
2960.58190,0.02541
2958.65318,0.02561
2956.72446,0.02575
2954.79575,0.02557
2952.86703,0.02526
2950.93831,0.02510
2949.00959,0.02514
2947.08087,0.02533
2945.15216,0.02552
2943.22344,0.02559
2941.29472,0.02563
2939.36600,0.02589
2937.43728,0.02617
2935.50857,0.02606
2933.57985,0.02554
2931.65113,0.02507
2929.72241,0.02506
2927.79370,0.02545
2925.86498,0.02572
2923.93626,0.02568
2922.00754,0.02582
2920.07882,0.02628
2918.15011,0.02664
2916.22139,0.02671
2914.29267,0.02650
2912.36395,0.02614
2910.43524,0.02587
2908.50652,0.02582
2906.57780,0.02611
2904.64908,0.02647
2902.72036,0.02665
2900.79165,0.02656
2898.86293,0.02627
2896.93421,0.02617
2895.00549,0.02656
2893.07677,0.02699
2891.14806,0.02691
2889.21934,0.02649
2887.29062,0.02623
2885.36190,0.02625
2883.43319,0.02645
2881.50447,0.02665
2879.57575,0.02660
2877.64703,0.02634
2875.71831,0.02619
2873.78960,0.02632
2871.86088,0.02650
2869.93216,0.02660
2868.00344,0.02672
2866.07472,0.02689
2864.14601,0.02702
2862.21729,0.02708
2860.28857,0.02701
2858.35985,0.02675
2856.43114,0.02648
2854.50242,0.02634
2852.57370,0.02641
2850.64498,0.02677
2848.71626,0.02727
2846.78755,0.02748
2844.85883,0.02736
2842.93011,0.02734
2841.00139,0.02748
2839.07267,0.02740
2837.14396,0.02708
2835.21524,0.02697
2833.28652,0.02716
2831.35780,0.02730
2829.42909,0.02732
2827.50037,0.02740
2825.57165,0.02749
2823.64293,0.02745
2821.71421,0.02738
2819.78550,0.02741
2817.85678,0.02744
2815.92806,0.02740
2813.99934,0.02739
2812.07062,0.02738
2810.14191,0.02734
2808.21319,0.02739
2806.28447,0.02750
2804.35575,0.02748
2802.42704,0.02737
2800.49832,0.02734
2798.56960,0.02743
2796.64088,0.02747
2794.71216,0.02737
2792.78345,0.02729
2790.85473,0.02738
2788.92601,0.02753
2786.99729,0.02768
2785.06857,0.02778
2783.13986,0.02775
2781.21114,0.02765
2779.28242,0.02766
2777.35370,0.02773
2775.42499,0.02760
2773.49627,0.02735
2771.56755,0.02729
2769.63883,0.02736
2767.71011,0.02740
2765.78140,0.02747
2763.85268,0.02746
2761.92396,0.02726
2759.99524,0.02709
2758.06652,0.02712
2756.13781,0.02722
2754.20909,0.02734
2752.28037,0.02738
2750.35165,0.02730
2748.42294,0.02727
2746.49422,0.02737
2744.56550,0.02751
2742.63678,0.02756
2740.70806,0.02744
2738.77935,0.02729
2736.85063,0.02723
2734.92191,0.02721
2732.99319,0.02720
2731.06448,0.02730
2729.13576,0.02737
2727.20704,0.02721
2725.27832,0.02700
2723.34960,0.02695
2721.42089,0.02692
2719.49217,0.02686
2717.56345,0.02699
2715.63473,0.02729
2713.70601,0.02740
2711.77730,0.02727
2709.84858,0.02728
2707.91986,0.02754
2705.99114,0.02770
2704.06243,0.02760
2702.13371,0.02739
2700.20499,0.02718
2698.27627,0.02714
2696.34755,0.02741
2694.41884,0.02761
2692.49012,0.02734
2690.56140,0.02691
2688.63268,0.02674
2686.70396,0.02683
2684.77525,0.02700
2682.84653,0.02704
2680.91781,0.02697
2678.98909,0.02696
2677.06038,0.02713
2675.13166,0.02730
2673.20294,0.02738
2671.27422,0.02736
2669.34550,0.02716
2667.41679,0.02696
2665.48807,0.02706
2663.55935,0.02731
2661.63063,0.02735
2659.70191,0.02730
2657.77320,0.02729
2655.84448,0.02720
2653.91576,0.02713
2651.98704,0.02721
2650.05833,0.02730
2648.12961,0.02739
2646.20089,0.02760
2644.27217,0.02779
2642.34345,0.02775
2640.41474,0.02748
2638.48602,0.02728
2636.55730,0.02728
2634.62858,0.02736
2632.69986,0.02743
2630.77115,0.02750
2628.84243,0.02745
2626.91371,0.02729
2624.98499,0.02716
2623.05628,0.02713
2621.12756,0.02713
2619.19884,0.02700
2617.27012,0.02681
2615.34140,0.02666
2613.41269,0.02661
2611.48397,0.02672
2609.55525,0.02696
2607.62653,0.02720
2605.69781,0.02728
2603.76910,0.02719
2601.84038,0.02709
2599.91166,0.02702
2597.98294,0.02697
2596.05423,0.02704
2594.12551,0.02716
2592.19679,0.02715
2590.26807,0.02702
2588.33935,0.02703
2586.41064,0.02727
2584.48192,0.02740
2582.55320,0.02733
2580.62448,0.02735
2578.69576,0.02742
2576.76705,0.02727
2574.83833,0.02705
2572.90961,0.02694
2570.98089,0.02695
2569.05218,0.02708
2567.12346,0.02740
2565.19474,0.02768
2563.26602,0.02775
2561.33730,0.02767
2559.40859,0.02751
2557.47987,0.02735
2555.55115,0.02724
2553.62243,0.02717
2551.69372,0.02718
2549.76500,0.02723
2547.83628,0.02721
2545.90756,0.02717
2543.97884,0.02720
2542.05013,0.02721
2540.12141,0.02721
2538.19269,0.02727
2536.26397,0.02726
2534.33525,0.02712
2532.40654,0.02701
2530.47782,0.02699
2528.54910,0.02701
2526.62038,0.02711
2524.69167,0.02718
2522.76295,0.02701
2520.83423,0.02672
2518.90551,0.02661
2516.97679,0.02689
2515.04808,0.02731
2513.11936,0.02736
2511.19064,0.02706
2509.26192,0.02680
2507.33320,0.02691
2505.40449,0.02726
2503.47577,0.02734
2501.54705,0.02711
2499.61833,0.02693
2497.68962,0.02693
2495.76090,0.02694
2493.83218,0.02684
2491.90346,0.02678
2489.97474,0.02688
2488.04603,0.02692
2486.11731,0.02683
2484.18859,0.02687
2482.25987,0.02708
2480.33115,0.02722
2478.40244,0.02723
2476.47372,0.02721
2474.54500,0.02715
2472.61628,0.02707
2470.68757,0.02707
2468.75885,0.02723
2466.83013,0.02741
2464.90141,0.02735
2462.97269,0.02708
2461.04398,0.02692
2459.11526,0.02696
2457.18654,0.02715
2455.25782,0.02733
2453.32910,0.02731
2451.40039,0.02721
2449.47167,0.02720
2447.54295,0.02720
2445.61423,0.02709
2443.68552,0.02688
2441.75680,0.02679
2439.82808,0.02677
2437.89936,0.02667
2435.97064,0.02669
2434.04193,0.02689
2432.11321,0.02704
2430.18449,0.02718
2428.25577,0.02731
2426.32705,0.02729
2424.39834,0.02729
2422.46962,0.02730
2420.54090,0.02712
2418.61218,0.02693
2416.68347,0.02695
2414.75475,0.02705
2412.82603,0.02704
2410.89731,0.02689
2408.96859,0.02672
2407.03988,0.02663
2405.11116,0.02661
2403.18244,0.02665
2401.25372,0.02682
2399.32500,0.02692
2397.39629,0.02686
2395.46757,0.02684
2393.53885,0.02685
2391.61013,0.02686
2389.68142,0.02690
2387.75270,0.02690
2385.82398,0.02682
2383.89526,0.02680
2381.96654,0.02690
2380.03783,0.02703
2378.10911,0.02708
2376.18039,0.02713
2374.25167,0.02738
2372.32296,0.02775
2370.39424,0.02783
2368.46552,0.02755
2366.53680,0.02742
2364.60808,0.02768
2362.67937,0.02785
2360.75065,0.02772
2358.82193,0.02754
2356.89321,0.02752
2354.96449,0.02750
2353.03578,0.02728
2351.10706,0.02707
2349.17834,0.02708
2347.24962,0.02723
2345.32091,0.02736
2343.39219,0.02751
2341.46347,0.02756
2339.53475,0.02737
2337.60603,0.02714
2335.67732,0.02695
2333.74860,0.02665
2331.81988,0.02647
2329.89116,0.02670
2327.96244,0.02704
2326.03373,0.02696
2324.10501,0.02658
2322.17629,0.02636
2320.24757,0.02637
2318.31886,0.02638
2316.39014,0.02635
2314.46142,0.02647
2312.53270,0.02683
2310.60398,0.02702
2308.67527,0.02689
2306.74655,0.02683
2304.81783,0.02679
2302.88911,0.02666
2300.96039,0.02661
2299.03168,0.02660
2297.10296,0.02638
2295.17424,0.02609
2293.24552,0.02614
2291.31681,0.02646
2289.38809,0.02665
2287.45937,0.02670
2285.53065,0.02670
2283.60193,0.02668
2281.67322,0.02658
2279.74450,0.02645
2277.81578,0.02641
2275.88706,0.02643
2273.95834,0.02649
2272.02963,0.02663
2270.10091,0.02679
2268.17219,0.02679
2266.24347,0.02670
2264.31476,0.02675
2262.38604,0.02680
2260.45732,0.02674
2258.52860,0.02682
2256.59988,0.02694
2254.67117,0.02692
2252.74245,0.02684
2250.81373,0.02671
2248.88501,0.02646
2246.95629,0.02625
2245.02758,0.02635
2243.09886,0.02663
2241.17014,0.02671
2239.24142,0.02660
2237.31271,0.02662
2235.38399,0.02675
2233.45527,0.02668
2231.52655,0.02638
2229.59783,0.02608
2227.66912,0.02602
2225.74040,0.02619
2223.81168,0.02633
2221.88296,0.02622
2219.95424,0.02605
2218.02553,0.02607
2216.09681,0.02621
2214.16809,0.02627
2212.23937,0.02622
2210.31066,0.02619
2208.38194,0.02622
2206.45322,0.02627
2204.52450,0.02632
2202.59578,0.02636
2200.66707,0.02640
2198.73835,0.02637
2196.80963,0.02626
2194.88091,0.02627
2192.95220,0.02647
2191.02348,0.02651
2189.09476,0.02632
2187.16604,0.02620
2185.23732,0.02627
2183.30861,0.02635
2181.37989,0.02626
2179.45117,0.02607
2177.52245,0.02590
2175.59373,0.02585
2173.66502,0.02590
2171.73630,0.02589
2169.80758,0.02586
2167.87886,0.02598
2165.95015,0.02629
2164.02143,0.02657
2162.09271,0.02662
2160.16399,0.02654
2158.23527,0.02652
2156.30656,0.02655
2154.37784,0.02658
2152.44912,0.02662
2150.52040,0.02651
2148.59168,0.02624
2146.66297,0.02614
2144.73425,0.02631
2142.80553,0.02641
2140.87681,0.02626
2138.94810,0.02599
2137.01938,0.02580
2135.09066,0.02578
2133.16194,0.02582
2131.23322,0.02590
2129.30451,0.02611
2127.37579,0.02637
2125.44707,0.02651
2123.51835,0.02654
2121.58963,0.02650
2119.66092,0.02636
2117.73220,0.02617
2115.80348,0.02612
2113.87476,0.02617
2111.94605,0.02613
2110.01733,0.02602
2108.08861,0.02600
2106.15989,0.02611
2104.23117,0.02611
2102.30246,0.02590
2100.37374,0.02566
2098.44502,0.02554
2096.51630,0.02555
2094.58758,0.02565
2092.65887,0.02580
2090.73015,0.02592
2088.80143,0.02589
2086.87271,0.02571
2084.94400,0.02553
2083.01528,0.02551
2081.08656,0.02559
2079.15784,0.02567
2077.22912,0.02579
2075.30041,0.02594
2073.37169,0.02607
2071.44297,0.02613
2069.51425,0.02611
2067.58553,0.02602
2065.65682,0.02586
2063.72810,0.02580
2061.79938,0.02600
2059.87066,0.02621
2057.94195,0.02613
2056.01323,0.02597
2054.08451,0.02599
2052.15579,0.02606
2050.22707,0.02606
2048.29836,0.02598
2046.36964,0.02596
2044.44092,0.02604
2042.51220,0.02600
2040.58348,0.02587
2038.65477,0.02590
2036.72605,0.02606
2034.79733,0.02611
2032.86861,0.02600
2030.93990,0.02587
2029.01118,0.02585
2027.08246,0.02600
2025.15374,0.02622
2023.22502,0.02632
2021.29631,0.02621
2019.36759,0.02600
2017.43887,0.02586
2015.51015,0.02589
2013.58143,0.02596
2011.65272,0.02595
2009.72400,0.02592
2007.79528,0.02595
2005.86656,0.02592
2003.93785,0.02586
2002.00913,0.02580
2000.08041,0.02574
1998.15169,0.02574
1996.22297,0.02578
1994.29426,0.02579
1992.36554,0.02574
1990.43682,0.02577
1988.50810,0.02599
1986.57939,0.02618
1984.65067,0.02617
1982.72195,0.02609
1980.79323,0.02610
1978.86451,0.02605
1976.93580,0.02579
1975.00708,0.02555
1973.07836,0.02560
1971.14964,0.02579
1969.22092,0.02589
1967.29221,0.02587
1965.36349,0.02579
1963.43477,0.02588
1961.50605,0.02610
1959.57734,0.02610
1957.64862,0.02585
1955.71990,0.02556
1953.79118,0.02534
1951.86246,0.02534
1949.93375,0.02553
1948.00503,0.02580
1946.07631,0.02605
1944.14759,0.02623
1942.21887,0.02621
1940.29016,0.02601
1938.36144,0.02582
1936.43272,0.02565
1934.50400,0.02545
1932.57529,0.02542
1930.64657,0.02559
1928.71785,0.02567
1926.78913,0.02565
1924.86041,0.02565
1922.93170,0.02564
1921.00298,0.02568
1919.07426,0.02588
1917.14554,0.02601
1915.21682,0.02594
1913.28811,0.02585
1911.35939,0.02574
1909.43067,0.02544
1907.50195,0.02506
1905.57324,0.02496
1903.64452,0.02521
1901.71580,0.02549
1899.78708,0.02561
1897.85836,0.02567
1895.92965,0.02568
1894.00093,0.02559
1892.07221,0.02546
1890.14349,0.02530
1888.21477,0.02518
1886.28606,0.02529
1884.35734,0.02561
1882.42862,0.02585
1880.49990,0.02575
1878.57119,0.02539
1876.64247,0.02508
1874.71375,0.02504
1872.78503,0.02528
1870.85631,0.02565
1868.92760,0.02585
1866.99888,0.02575
1865.07016,0.02563
1863.14144,0.02558
1861.21272,0.02543
1859.28401,0.02519
1857.35529,0.02500
1855.42657,0.02497
1853.49785,0.02511
1851.56914,0.02529
1849.64042,0.02531
1847.71170,0.02509
1845.78298,0.02472
1843.85426,0.02450
1841.92555,0.02466
1839.99683,0.02493
1838.06811,0.02509
1836.13939,0.02510
1834.21067,0.02505
1832.28196,0.02505
1830.35324,0.02511
1828.42452,0.02509
1826.49580,0.02499
1824.56709,0.02495
1822.63837,0.02500
1820.70965,0.02494
1818.78093,0.02473
1816.85221,0.02450
1814.92350,0.02429
1812.99478,0.02414
1811.06606,0.02413
1809.13734,0.02422
1807.20863,0.02439
1805.27991,0.02465
1803.35119,0.02480
1801.42247,0.02468
1799.49375,0.02443
1797.56504,0.02438
1795.63632,0.02449
1793.70760,0.02442
1791.77888,0.02390
1789.85016,0.02354
1787.92145,0.02361
1785.99273,0.02369
1784.06401,0.02362
1782.13529,0.02360
1780.20658,0.02356
1778.27786,0.02340
1776.34914,0.02338
1774.42042,0.02359
1772.49170,0.02373
1770.56299,0.02350
1768.63427,0.02311
1766.70555,0.02286
1764.77683,0.02279
1762.84811,0.02269
1760.91940,0.02236
1758.99068,0.02203
1757.06196,0.02172
1755.13324,0.02153
1753.20453,0.02162
1751.27581,0.02178
1749.34709,0.02175
1747.41837,0.02173
1745.48965,0.02198
1743.56094,0.02236
1741.63222,0.02267
1739.70350,0.02289
1737.77478,0.02306
1735.84606,0.02315
1733.91735,0.02315
1731.98863,0.02343
1730.05991,0.02393
1728.13119,0.02418
1726.20248,0.02429
1724.27376,0.02450
1722.34504,0.02481
1720.41632,0.02519
1718.48760,0.02549
1716.55889,0.02539
1714.63017,0.02496
1712.70145,0.02468
1710.77273,0.02461
1708.84401,0.02459
1706.91530,0.02447
1704.98658,0.02433
1703.05786,0.02438
1701.12914,0.02435
1699.20043,0.02376
1697.27171,0.02301
1695.34299,0.02259
1693.41427,0.02267
1691.48555,0.02302
1689.55684,0.02319
1687.62812,0.02299
1685.69940,0.02245
1683.77068,0.02188
1681.84196,0.02211
1679.91325,0.02255
1677.98453,0.02265
1676.05581,0.02242
1674.12709,0.02232
1672.19838,0.02257
1670.26966,0.02252
1668.34094,0.02203
1666.41222,0.02198
1664.48350,0.02240
1662.55479,0.02272
1660.62607,0.02257
1658.69735,0.02244
1656.76863,0.02258
1654.83991,0.02258
1652.91120,0.02168
1650.98248,0.02117
1649.05376,0.02129
1647.12504,0.02146
1645.19633,0.02176
1643.26761,0.02205
1641.33889,0.02225
1639.41017,0.02253
1637.48145,0.02282
1635.55274,0.02253
1633.62402,0.02210
1631.69530,0.02237
1629.76658,0.02283
1627.83787,0.02285
1625.90915,0.02250
1623.98043,0.02237
1622.05171,0.02259
1620.12299,0.02285
1618.19428,0.02296
1616.26556,0.02292
1614.33684,0.02278
1612.40812,0.02265
1610.47940,0.02259
1608.55069,0.02269
1606.62197,0.02290
1604.69325,0.02301
1602.76453,0.02295
1600.83582,0.02282
1598.90710,0.02273
1596.97838,0.02271
1595.04966,0.02269
1593.12094,0.02256
1591.19223,0.02239
1589.26351,0.02230
1587.33479,0.02226
1585.40607,0.02209
1583.47735,0.02190
1581.54864,0.02195
1579.61992,0.02211
1577.69120,0.02204
1575.76248,0.02172
1573.83377,0.02157
1571.90505,0.02169
1569.97633,0.02192
1568.04761,0.02210
1566.11889,0.02218
1564.19018,0.02226
1562.26146,0.02230
1560.33274,0.02239
1558.40402,0.02251
1556.47530,0.02229
1554.54659,0.02192
1552.61787,0.02170
1550.68915,0.02176
1548.76043,0.02188
1546.83172,0.02202
1544.90300,0.02232
1542.97428,0.02270
1541.04556,0.02261
1539.11684,0.02220
1537.18813,0.02240
1535.25941,0.02266
1533.33069,0.02253
1531.40197,0.02246
1529.47325,0.02274
1527.54454,0.02292
1525.61582,0.02307
1523.68710,0.02335
1521.75838,0.02320
1519.82967,0.02282
1517.90095,0.02266
1515.97223,0.02241
1514.04351,0.02228
1512.11479,0.02236
1510.18608,0.02239
1508.25736,0.02214
1506.32864,0.02160
1504.39992,0.02177
1502.47120,0.02223
1500.54249,0.02253
1498.61377,0.02261
1496.68505,0.02257
1494.75633,0.02255
1492.82762,0.02258
1490.89890,0.02268
1488.97018,0.02272
1487.04146,0.02267
1485.11274,0.02256
1483.18403,0.02233
1481.25531,0.02197
1479.32659,0.02176
1477.39787,0.02184
1475.46915,0.02197
1473.54044,0.02176
1471.61172,0.02117
1469.68300,0.02096
1467.75428,0.02119
1465.82557,0.02157
1463.89685,0.02187
1461.96813,0.02207
1460.03941,0.02229
1458.11069,0.02236
1456.18198,0.02181
1454.25326,0.02143
1452.32454,0.02150
1450.39582,0.02173
1448.46711,0.02191
1446.53839,0.02189
1444.60967,0.02183
1442.68095,0.02182
1440.75223,0.02185
1438.82352,0.02188
1436.89480,0.02166
1434.96608,0.02154
1433.03736,0.02194
1431.10864,0.02232
1429.17993,0.02219
1427.25121,0.02185
1425.32249,0.02164
1423.39377,0.02154
1421.46506,0.02146
1419.53634,0.02132
1417.60762,0.02120
1415.67890,0.02117
1413.75018,0.02111
1411.82147,0.02108
1409.89275,0.02110
1407.96403,0.02108
1406.03531,0.02107
1404.10659,0.02102
1402.17788,0.02104
1400.24916,0.02123
1398.32044,0.02129
1396.39172,0.02097
1394.46301,0.02064
1392.53429,0.02067
1390.60557,0.02095
1388.67685,0.02120
1386.74813,0.02108
1384.81942,0.02077
1382.89070,0.02075
1380.96198,0.02096
1379.03326,0.02123
1377.10454,0.02151
1375.17583,0.02157
1373.24711,0.02122
1371.31839,0.02091
1369.38967,0.02087
1367.46096,0.02085
1365.53224,0.02080
1363.60352,0.02081
1361.67480,0.02076
1359.74608,0.02075
1357.81737,0.02086
1355.88865,0.02092
1353.95993,0.02080
1352.03121,0.02062
1350.10249,0.02064
1348.17378,0.02074
1346.24506,0.02067
1344.31634,0.02057
1342.38762,0.02064
1340.45891,0.02082
1338.53019,0.02091
1336.60147,0.02075
1334.67275,0.02057
1332.74403,0.02049
1330.81532,0.02034
1328.88660,0.02011
1326.95788,0.02005
1325.02916,0.02007
1323.10044,0.01994
1321.17173,0.01981
1319.24301,0.01976
1317.31429,0.01969
1315.38557,0.01975
1313.45686,0.01984
1311.52814,0.01973
1309.59942,0.01965
1307.67070,0.01984
1305.74198,0.02005
1303.81327,0.02005
1301.88455,0.02000
1299.95583,0.02011
1298.02711,0.02034
1296.09839,0.02054
1294.16968,0.02056
1292.24096,0.02049
1290.31224,0.02060
1288.38352,0.02083
1286.45481,0.02091
1284.52609,0.02091
1282.59737,0.02110
1280.66865,0.02142
1278.73993,0.02162
1276.81122,0.02172
1274.88250,0.02178
1272.95378,0.02172
1271.02506,0.02160
1269.09635,0.02177
1267.16763,0.02223
1265.23891,0.02247
1263.31019,0.02234
1261.38147,0.02227
1259.45276,0.02245
1257.52404,0.02261
1255.59532,0.02260
1253.66660,0.02249
1251.73788,0.02242
1249.80917,0.02244
1247.88045,0.02238
1245.95173,0.02225
1244.02301,0.02225
1242.09430,0.02221
1240.16558,0.02212
1238.23686,0.02216
1236.30814,0.02223
1234.37942,0.02226
1232.45071,0.02218
1230.52199,0.02204
1228.59327,0.02210
1226.66455,0.02219
1224.73583,0.02201
1222.80712,0.02180
1220.87840,0.02183
1218.94968,0.02182
1217.02096,0.02156
1215.09225,0.02146
1213.16353,0.02183
1211.23481,0.02212
1209.30609,0.02178
1207.37737,0.02110
1205.44866,0.02082
1203.51994,0.02098
1201.59122,0.02110
1199.66250,0.02106
1197.73378,0.02099
1195.80507,0.02100
1193.87635,0.02114
1191.94763,0.02121
1190.01891,0.02097
1188.09020,0.02057
1186.16148,0.02043
1184.23276,0.02052
1182.30404,0.02064
1180.37532,0.02076
1178.44661,0.02085
1176.51789,0.02077
1174.58917,0.02053
1172.66045,0.02036
1170.73173,0.02034
1168.80302,0.02023
1166.87430,0.01991
1164.94558,0.01957
1163.01686,0.01942
1161.08815,0.01952
1159.15943,0.01971
1157.23071,0.01971
1155.30199,0.01955
1153.37327,0.01958
1151.44456,0.01979
1149.51584,0.01981
1147.58712,0.01977
1145.65840,0.01997
1143.72968,0.02017
1141.80097,0.02033
1139.87225,0.02053
1137.94353,0.02067
1136.01481,0.02074
1134.08610,0.02075
1132.15738,0.02075
1130.22866,0.02088
1128.29994,0.02113
1126.37122,0.02140
1124.44251,0.02158
1122.51379,0.02159
1120.58507,0.02162
1118.65635,0.02191
1116.72763,0.02230
1114.79892,0.02232
1112.87020,0.02190
1110.94148,0.02165
1109.01276,0.02178
1107.08405,0.02187
1105.15533,0.02178
1103.22661,0.02157
1101.29789,0.02144
1099.36917,0.02162
1097.44046,0.02184
1095.51174,0.02188
1093.58302,0.02185
1091.65430,0.02178
1089.72559,0.02164
1087.79687,0.02172
1085.86815,0.02207
1083.93943,0.02231
1082.01071,0.02249
1080.08200,0.02285
1078.15328,0.02303
1076.22456,0.02298
1074.29584,0.02333
1072.36712,0.02391
1070.43841,0.02407
1068.50969,0.02383
1066.58097,0.02370
1064.65225,0.02389
1062.72354,0.02411
1060.79482,0.02416
1058.86610,0.02418
1056.93738,0.02425
1055.00866,0.02425
1053.07995,0.02397
1051.15123,0.02357
1049.22251,0.02338
1047.29379,0.02330
1045.36507,0.02314
1043.43636,0.02298
1041.50764,0.02290
1039.57892,0.02277
1037.65020,0.02276
1035.72149,0.02309
1033.79277,0.02333
1031.86405,0.02326
1029.93533,0.02314
1028.00661,0.02287
1026.07790,0.02245
1024.14918,0.02229
1022.22046,0.02235
1020.29174,0.02232
1018.36302,0.02218
1016.43431,0.02204
1014.50559,0.02220
1012.57687,0.02275
1010.64815,0.02328
1008.71944,0.02371
1006.79072,0.02420
1004.86200,0.02460
1002.93328,0.02465
1001.00456,0.02445
999.07585,0.02429
997.14713,0.02446
995.21841,0.02493
993.28969,0.02518
991.36097,0.02489
989.43226,0.02455
987.50354,0.02453
985.57482,0.02451
983.64610,0.02422
981.71739,0.02392
979.78867,0.02383
977.85995,0.02399
975.93123,0.02421
974.00251,0.02412
972.07380,0.02397
970.14508,0.02401
968.21636,0.02393
966.28764,0.02384
964.35892,0.02397
962.43021,0.02402
960.50149,0.02391
958.57277,0.02373
956.64405,0.02343
954.71534,0.02322
952.78662,0.02329
950.85790,0.02360
948.92918,0.02390
947.00046,0.02391
945.07175,0.02354
943.14303,0.02292
941.21431,0.02250
939.28559,0.02258
937.35687,0.02263
935.42816,0.02228
933.49944,0.02211
931.57072,0.02237
929.64200,0.02259
927.71329,0.02269
925.78457,0.02289
923.85585,0.02297
921.92713,0.02263
919.99841,0.02228
918.06970,0.02224
916.14098,0.02223
914.21226,0.02223
912.28354,0.02241
910.35483,0.02250
908.42611,0.02216
906.49739,0.02172
904.56867,0.02164
902.63995,0.02178
900.71124,0.02192
898.78252,0.02201
896.85380,0.02206
894.92508,0.02219
892.99636,0.02244
891.06765,0.02260
889.13893,0.02256
887.21021,0.02236
885.28149,0.02206
883.35278,0.02185
881.42406,0.02187
879.49534,0.02194
877.56662,0.02192
875.63790,0.02191
873.70919,0.02193
871.78047,0.02206
869.85175,0.02230
867.92303,0.02227
865.99431,0.02199
864.06560,0.02181
862.13688,0.02185
860.20816,0.02199
858.27944,0.02211
856.35073,0.02231
854.42201,0.02249
852.49329,0.02227
850.56457,0.02180
848.63585,0.02144
846.70714,0.02125
844.77842,0.02148
842.84970,0.02206
840.92098,0.02223
838.99226,0.02183
837.06355,0.02130
835.13483,0.02096
833.20611,0.02107
831.27739,0.02149
829.34868,0.02164
827.41996,0.02153
825.49124,0.02147
823.56252,0.02139
821.63380,0.02139
819.70509,0.02159
817.77637,0.02156
815.84765,0.02113
813.91893,0.02076
811.99021,0.02073
810.06150,0.02092
808.13278,0.02109
806.20406,0.02114
804.27534,0.02110
802.34663,0.02123
800.41791,0.02158
798.48919,0.02162
796.56047,0.02128
794.63175,0.02102
792.70304,0.02079
790.77432,0.02053
788.84560,0.02039
786.91688,0.02041
784.98816,0.02049
783.05945,0.02058
781.13073,0.02084
779.20201,0.02120
777.27329,0.02133
775.34458,0.02108
773.41586,0.02040
771.48714,0.01983
769.55842,0.01992
767.62970,0.02010
765.70099,0.01989
763.77227,0.01974
761.84355,0.01981
759.91483,0.01993
757.98611,0.01994
756.05740,0.01990
754.12868,0.02000
752.19996,0.02000
750.27124,0.01977
748.34253,0.01984
746.41381,0.02020
744.48509,0.02023
742.55637,0.01990
740.62765,0.01967
738.69894,0.01979
736.77022,0.02020
734.84150,0.02042
732.91278,0.02029
730.98407,0.02029
729.05535,0.02038
727.12663,0.02027
725.19791,0.01995
723.26919,0.01947
721.34048,0.01893
719.41176,0.01879
717.48304,0.01915
715.55432,0.01958
713.62560,0.01977
711.69689,0.01946
709.76817,0.01871
707.83945,0.01817
705.91073,0.01823
703.98202,0.01879
702.05330,0.01916
700.12458,0.01891
698.19586,0.01878
696.26714,0.01890
694.33843,0.01835
692.40971,0.01753
690.48099,0.01775
688.55227,0.01856
686.62355,0.01876
684.69484,0.01856
682.76612,0.01876
680.83740,0.01929
678.90868,0.01942
676.97997,0.01890
675.05125,0.01844
673.12253,0.01849
671.19381,0.01892
669.26509,0.01973
667.33638,0.02021
665.40766,0.01944
663.47894,0.01857
661.55022,0.01850
659.62150,0.01864
657.69279,0.01841
655.76407,0.01830
653.83535,0.01842
651.90663,0.01841
649.97792,0.01858
648.04920,0.01890
646.12048,0.01873
644.19176,0.01817
642.26304,0.01770
640.33433,0.01717
638.40561,0.01693
636.47689,0.01766
634.54817,0.01845
632.61945,0.01865
630.69074,0.01879
628.76202,0.01857
626.83330,0.01787
624.90458,0.01786
622.97587,0.01846
621.04715,0.01875
619.11843,0.01875
617.18971,0.01891
615.26099,0.01945
613.33228,0.01982
611.40356,0.01949
609.47484,0.01933
607.54612,0.01964
605.61740,0.01991
603.68869,0.02000
601.75997,0.01997
599.83125,0.01921
