7496.92628,0.10421
7494.99756,0.09733
7493.06885,0.09092
7491.14013,0.09186
7489.21141,0.09669
7487.28269,0.09736
7485.35397,0.09300
7483.42526,0.09034
7481.49654,0.09222
7479.56782,0.09489
7477.63910,0.09630
7475.71039,0.09809
7473.78167,0.09897
7471.85295,0.09913
7469.92423,0.10140
7467.99551,0.10298
7466.06680,0.09934
7464.13808,0.09263
7462.20936,0.08723
7460.28064,0.08307
7458.35192,0.08087
7456.42321,0.08474
7454.49449,0.08943
7452.56577,0.09005
7450.63705,0.09520
7448.70834,0.10490
7446.77962,0.10871
7444.85090,0.10752
7442.92218,0.10770
7440.99346,0.11015
7439.06475,0.11134
7437.13603,0.10744
7435.20731,0.09994
7433.27859,0.09833
7431.34987,0.10746
7429.42116,0.11578
7427.49244,0.10924
7425.56372,0.09316
7423.63500,0.08186
7421.70629,0.08100
7419.77757,0.08752
7417.84885,0.09371
7415.92013,0.09174
7413.99141,0.08564
7412.06270,0.08125
7410.13398,0.07884
7408.20526,0.08155
7406.27654,0.08758
7404.34782,0.08833
7402.41911,0.08597
7400.49039,0.08456
7398.56167,0.08421
7396.63295,0.08900
7394.70424,0.09967
7392.77552,0.10870
7390.84680,0.11226
7388.91808,0.11295
7386.98936,0.11436
7385.06065,0.11561
7383.13193,0.11510
7381.20321,0.11115
7379.27449,0.10362
7377.34577,0.09818
7375.41706,0.10282
7373.48834,0.11186
7371.55962,0.11274
7369.63090,0.10806
7367.70219,0.10738
7365.77347,0.10767
7363.84475,0.10406
7361.91603,0.09924
7359.98731,0.09299
7358.05860,0.08427
7356.12988,0.08191
7354.20116,0.08951
7352.27244,0.09750
7350.34372,0.10060
7348.41501,0.10097
7346.48629,0.10009
7344.55757,0.09967
7342.62885,0.10357
7340.70014,0.10580
7338.77142,0.09777
7336.84270,0.09304
7334.91398,0.09861
7332.98526,0.10120
7331.05655,0.09675
7329.12783,0.09181
7327.19911,0.08734
7325.27039,0.08797
7323.34167,0.09628
7321.41296,0.10196
7319.48424,0.10139
7317.55552,0.10113
7315.62680,0.10132
7313.69809,0.09815
7311.76937,0.09284
7309.84065,0.09193
7307.91193,0.09506
7305.98321,0.09311
7304.05450,0.08601
7302.12578,0.08365
7300.19706,0.08573
7298.26834,0.08604
7296.33963,0.08875
7294.41091,0.09551
7292.48219,0.09813
7290.55347,0.09691
7288.62475,0.09537
7286.69604,0.09333
7284.76732,0.09188
7282.83860,0.09309
7280.90988,0.09785
7278.98116,0.10206
7277.05245,0.10057
7275.12373,0.09671
7273.19501,0.09408
7271.26629,0.09253
7269.33758,0.09389
7267.40886,0.09788
7265.48014,0.10038
7263.55142,0.10072
7261.62270,0.10070
7259.69399,0.10003
7257.76527,0.09819
7255.83655,0.09712
7253.90783,0.09846
7251.97911,0.10253
7250.05040,0.10565
7248.12168,0.10263
7246.19296,0.09487
7244.26424,0.08981
7242.33553,0.09183
7240.40681,0.09565
7238.47809,0.09591
7236.54937,0.09567
7234.62065,0.09509
7232.69194,0.09162
7230.76322,0.08829
7228.83450,0.08646
7226.90578,0.08482
7224.97706,0.08557
7223.04835,0.08775
7221.11963,0.08945
7219.19091,0.09201
7217.26219,0.09411
7215.33348,0.09172
7213.40476,0.08916
7211.47604,0.09273
7209.54732,0.09774
7207.61860,0.09784
7205.68989,0.09711
7203.76117,0.09816
7201.83245,0.09611
7199.90373,0.09038
7197.97501,0.08665
7196.04630,0.08889
7194.11758,0.09284
7192.18886,0.09343
7190.26014,0.09701
7188.33143,0.10472
7186.40271,0.10568
7184.47399,0.09805
7182.54527,0.09126
7180.61655,0.09198
7178.68784,0.09911
7176.75912,0.10699
7174.83040,0.10941
7172.90168,0.10441
7170.97296,0.09717
7169.04425,0.09257
7167.11553,0.08917
7165.18681,0.08596
7163.25809,0.08618
7161.32938,0.09015
7159.40066,0.09354
7157.47194,0.09332
7155.54322,0.09267
7153.61450,0.09455
7151.68579,0.09461
7149.75707,0.09040
7147.82835,0.08753
7145.89963,0.08895
7143.97091,0.09096
7142.04220,0.09298
7140.11348,0.09941
7138.18476,0.10538
7136.25604,0.10383
7134.32733,0.09962
7132.39861,0.09832
7130.46989,0.09921
7128.54117,0.10474
7126.61245,0.11386
7124.68374,0.11778
7122.75502,0.11291
7120.82630,0.10653
7118.89758,0.10590
7116.96887,0.10768
7115.04015,0.10573
7113.11143,0.10348
7111.18271,0.10200
7109.25399,0.09704
7107.32528,0.09103
7105.39656,0.08976
7103.46784,0.09195
7101.53912,0.09407
7099.61040,0.09676
7097.68169,0.09815
7095.75297,0.09347
7093.82425,0.08810
7091.89553,0.09056
7089.96682,0.09550
7088.03810,0.09353
7086.10938,0.08772
7084.18066,0.08644
7082.25194,0.09035
7080.32323,0.09464
7078.39451,0.09743
7076.46579,0.09846
7074.53707,0.09899
7072.60835,0.10004
7070.67964,0.09892
7068.75092,0.09559
7066.82220,0.09380
7064.89348,0.09413
7062.96477,0.09745
7061.03605,0.10348
7059.10733,0.10629
7057.17861,0.10438
7055.24989,0.10341
7053.32118,0.10384
7051.39246,0.10218
7049.46374,0.09929
7047.53502,0.09654
7045.60630,0.09387
7043.67759,0.09384
7041.74887,0.09682
7039.82015,0.09981
7037.89143,0.10262
7035.96272,0.10400
7034.03400,0.09819
7032.10528,0.08775
7030.17656,0.08365
7028.24784,0.08771
7026.31913,0.09191
7024.39041,0.09176
7022.46169,0.08807
7020.53297,0.08474
7018.60425,0.08508
7016.67554,0.08894
7014.74682,0.09342
7012.81810,0.09361
7010.88938,0.09019
7008.96067,0.08961
7007.03195,0.09258
7005.10323,0.09607
7003.17451,0.09879
7001.24579,0.09959
6999.31708,0.09851
6997.38836,0.09787
6995.45964,0.09947
6993.53092,0.10151
6991.60220,0.10136
6989.67349,0.10060
6987.74477,0.10099
6985.81605,0.10056
6983.88733,0.09850
6981.95862,0.09672
6980.02990,0.09598
6978.10118,0.09636
6976.17246,0.09686
6974.24374,0.09557
6972.31503,0.09448
6970.38631,0.09625
6968.45759,0.09655
6966.52887,0.09322
6964.60015,0.09261
6962.67144,0.09598
6960.74272,0.09861
6958.81400,0.09849
6956.88528,0.09388
6954.95657,0.08873
6953.02785,0.09080
6951.09913,0.09607
6949.17041,0.09630
6947.24169,0.09420
6945.31298,0.09492
6943.38426,0.09842
6941.45554,0.10093
6939.52682,0.09839
6937.59811,0.09375
6935.66939,0.09238
6933.74067,0.09177
6931.81195,0.09106
6929.88323,0.09329
6927.95452,0.09673
6926.02580,0.09726
6924.09708,0.09687
6922.16836,0.09910
6920.23964,0.10142
6918.31093,0.09987
6916.38221,0.09547
6914.45349,0.09291
6912.52477,0.09371
6910.59606,0.09532
6908.66734,0.09483
6906.73862,0.09155
6904.80990,0.09085
6902.88118,0.09444
6900.95247,0.09733
6899.02375,0.09824
6897.09503,0.09795
6895.16631,0.09612
6893.23759,0.09296
6891.30888,0.09029
6889.38016,0.09051
6887.45144,0.09269
6885.52272,0.09446
6883.59401,0.09420
6881.66529,0.09449
6879.73657,0.09749
6877.80785,0.09882
6875.87913,0.09791
6873.95042,0.09882
6872.02170,0.09998
6870.09298,0.09903
6868.16426,0.09684
6866.23554,0.09488
6864.30683,0.09431
6862.37811,0.09425
6860.44939,0.09288
6858.52067,0.09247
6856.59196,0.09447
6854.66324,0.09532
6852.73452,0.09367
6850.80580,0.09383
6848.87708,0.09758
6846.94837,0.09935
6845.01965,0.09620
6843.09093,0.09293
6841.16221,0.09339
6839.23349,0.09520
6837.30478,0.09361
6835.37606,0.09065
6833.44734,0.09167
6831.51862,0.09519
6829.58991,0.09685
6827.66119,0.09547
6825.73247,0.09246
6823.80375,0.09109
6821.87503,0.09322
6819.94632,0.09727
6818.01760,0.10075
6816.08888,0.10085
6814.16016,0.09691
6812.23144,0.09426
6810.30273,0.09605
6808.37401,0.09841
6806.44529,0.09870
6804.51657,0.09758
6802.58786,0.09672
6800.65914,0.09755
6798.73042,0.09823
6796.80170,0.09713
6794.87298,0.09685
6792.94427,0.09885
6791.01555,0.10019
6789.08683,0.09911
6787.15811,0.09820
6785.22939,0.09989
6783.30068,0.10156
6781.37196,0.10184
6779.44324,0.10156
6777.51452,0.09982
6775.58581,0.09868
6773.65709,0.10047
6771.72837,0.10205
6769.79965,0.10071
6767.87093,0.09837
6765.94222,0.09982
6764.01350,0.10441
6762.08478,0.10566
6760.15606,0.10227
6758.22735,0.09770
6756.29863,0.09453
6754.36991,0.09372
6752.44119,0.09282
6750.51247,0.09174
6748.58376,0.09392
6746.65504,0.09589
6744.72632,0.09320
6742.79760,0.09089
6740.86888,0.09236
6738.94017,0.09353
6737.01145,0.09117
6735.08273,0.08847
6733.15401,0.09045
6731.22530,0.09601
6729.29658,0.10082
6727.36786,0.10241
6725.43914,0.10104
6723.51042,0.09950
6721.58171,0.09853
6719.65299,0.09788
6717.72427,0.09747
6715.79555,0.09561
6713.86683,0.09313
6711.93812,0.09206
6710.00940,0.09184
6708.08068,0.09287
6706.15196,0.09445
6704.22325,0.09420
6702.29453,0.09402
6700.36581,0.09561
6698.43709,0.09492
6696.50837,0.09227
6694.57966,0.09322
6692.65094,0.09757
6690.72222,0.10018
6688.79350,0.09885
6686.86478,0.09640
6684.93607,0.09591
6683.00735,0.09613
6681.07863,0.09549
6679.14991,0.09503
6677.22120,0.09617
6675.29248,0.09767
6673.36376,0.09719
6671.43504,0.09439
6669.50632,0.09284
6667.57761,0.09453
6665.64889,0.09556
6663.72017,0.09603
6661.79145,0.09854
6659.86273,0.09913
6657.93402,0.09719
6656.00530,0.09669
6654.07658,0.09648
6652.14786,0.09552
6650.21915,0.09783
6648.29043,0.10304
6646.36171,0.10408
6644.43299,0.09989
6642.50427,0.09703
6640.57556,0.09799
6638.64684,0.10048
6636.71812,0.10242
6634.78940,0.10243
6632.86068,0.10172
6630.93197,0.10159
6629.00325,0.10021
6627.07453,0.09834
6625.14581,0.09782
6623.21710,0.09698
6621.28838,0.09460
6619.35966,0.09232
6617.43094,0.09198
6615.50222,0.09311
6613.57351,0.09523
6611.64479,0.09795
6609.71607,0.09990
6607.78735,0.10127
6605.85863,0.10086
6603.92992,0.09773
6602.00120,0.09599
6600.07248,0.09796
6598.14376,0.09988
6596.21505,0.10087
6594.28633,0.10282
6592.35761,0.10336
6590.42889,0.10152
6588.50017,0.10061
6586.57146,0.10130
6584.64274,0.10176
6582.71402,0.10031
6580.78530,0.09712
6578.85659,0.09529
6576.92787,0.09595
6574.99915,0.09705
6573.07043,0.09690
6571.14171,0.09450
6569.21300,0.09183
6567.28428,0.09151
6565.35556,0.09321
6563.42684,0.09626
6561.49812,0.09919
6559.56941,0.09945
6557.64069,0.09685
6555.71197,0.09412
6553.78325,0.09474
6551.85454,0.09787
6549.92582,0.09955
6547.99710,0.09940
6546.06838,0.09860
6544.13966,0.09744
6542.21095,0.09847
6540.28223,0.10144
6538.35351,0.10200
6536.42479,0.09883
6534.49607,0.09547
6532.56736,0.09518
6530.63864,0.09627
6528.70992,0.09465
6526.78120,0.09147
6524.85249,0.09054
6522.92377,0.09200
6520.99505,0.09366
6519.06633,0.09508
6517.13761,0.09532
6515.20890,0.09381
6513.28018,0.09377
6511.35146,0.09687
6509.42274,0.09911
6507.49402,0.09843
6505.56531,0.09824
6503.63659,0.09945
6501.70787,0.09908
6499.77915,0.09791
6497.85044,0.09788
6495.92172,0.09674
6493.99300,0.09425
6492.06428,0.09405
6490.13556,0.09572
6488.20685,0.09582
6486.27813,0.09377
6484.34941,0.09177
6482.42069,0.09273
6480.49197,0.09594
6478.56326,0.09755
6476.63454,0.09699
6474.70582,0.09738
6472.77710,0.10000
6470.84839,0.10112
6468.91967,0.09801
6466.99095,0.09519
6465.06223,0.09619
6463.13351,0.09746
6461.20480,0.09709
6459.27608,0.09590
6457.34736,0.09304
6455.41864,0.09052
6453.48992,0.09157
6451.56121,0.09517
6449.63249,0.09830
6447.70377,0.09803
6445.77505,0.09576
6443.84634,0.09511
6441.91762,0.09560
6439.98890,0.09709
6438.06018,0.09954
6436.13146,0.09960
6434.20275,0.09848
6432.27403,0.09968
6430.34531,0.10177
6428.41659,0.10294
6426.48787,0.10356
6424.55916,0.10280
6422.63044,0.10093
6420.70172,0.10046
6418.77300,0.10017
6416.84429,0.09833
6414.91557,0.09666
6412.98685,0.09540
6411.05813,0.09436
6409.12941,0.09402
6407.20070,0.09474
6405.27198,0.09637
6403.34326,0.09721
6401.41454,0.09709
6399.48583,0.09774
6397.55711,0.09927
6395.62839,0.09870
6393.69967,0.09561
6391.77095,0.09426
6389.84224,0.09439
6387.91352,0.09355
6385.98480,0.09469
6384.05608,0.09923
6382.12736,0.10194
6380.19865,0.10003
6378.26993,0.09770
6376.34121,0.09705
6374.41249,0.09539
6372.48378,0.09296
6370.55506,0.09311
6368.62634,0.09547
6366.69762,0.09715
6364.76890,0.09708
6362.84019,0.09660
6360.91147,0.09749
6358.98275,0.09772
6357.05403,0.09611
6355.12531,0.09600
6353.19660,0.09755
6351.26788,0.09748
6349.33916,0.09659
6347.41044,0.09710
6345.48173,0.09747
6343.55301,0.09691
6341.62429,0.09646
6339.69557,0.09659
6337.76685,0.09853
6335.83814,0.10134
6333.90942,0.10248
6331.98070,0.10191
6330.05198,0.10109
6328.12326,0.10119
6326.19455,0.10204
6324.26583,0.10224
6322.33711,0.10125
6320.40839,0.10024
6318.47968,0.09939
6316.55096,0.09738
6314.62224,0.09503
6312.69352,0.09430
6310.76480,0.09570
6308.83609,0.09816
6306.90737,0.09997
6304.97865,0.09992
6303.04993,0.09805
6301.12121,0.09642
6299.19250,0.09674
6297.26378,0.09788
6295.33506,0.09821
6293.40634,0.09649
6291.47763,0.09315
6289.54891,0.09186
6287.62019,0.09351
6285.69147,0.09546
6283.76275,0.09770
6281.83404,0.10048
6279.90532,0.10151
6277.97660,0.09921
6276.04788,0.09514
6274.11916,0.09196
6272.19045,0.09119
6270.26173,0.09348
6268.33301,0.09663
6266.40429,0.09750
6264.47558,0.09705
6262.54686,0.09806
6260.61814,0.09910
6258.68942,0.09647
6256.76070,0.09272
6254.83199,0.09235
6252.90327,0.09299
6250.97455,0.09195
6249.04583,0.09137
6247.11711,0.09187
6245.18840,0.09316
6243.25968,0.09561
6241.33096,0.09787
6239.40224,0.09916
6237.47353,0.10068
6235.54481,0.10248
6233.61609,0.10266
6231.68737,0.10042
6229.75865,0.09865
6227.82994,0.09902
6225.90122,0.09970
6223.97250,0.09928
6222.04378,0.09773
6220.11506,0.09627
6218.18635,0.09706
6216.25763,0.09926
6214.32891,0.09983
6212.40019,0.09954
6210.47148,0.10033
6208.54276,0.10099
6206.61404,0.10101
6204.68532,0.10106
6202.75660,0.10047
6200.82789,0.09895
6198.89917,0.09863
6196.97045,0.09958
6195.04173,0.09926
6193.11302,0.09829
6191.18430,0.09780
6189.25558,0.09618
6187.32686,0.09443
6185.39814,0.09514
6183.46943,0.09699
6181.54071,0.09723
6179.61199,0.09587
6177.68327,0.09480
6175.75455,0.09597
6173.82584,0.09846
6171.89712,0.09894
6169.96840,0.09774
6168.03968,0.09749
6166.11097,0.09734
6164.18225,0.09633
6162.25353,0.09592
6160.32481,0.09590
6158.39609,0.09558
6156.46738,0.09580
6154.53866,0.09626
6152.60994,0.09641
6150.68122,0.09654
6148.75250,0.09761
6146.82379,0.10021
6144.89507,0.10264
6142.96635,0.10277
6141.03763,0.10041
6139.10892,0.09643
6137.18020,0.09329
6135.25148,0.09371
6133.32276,0.09630
6131.39404,0.09807
6129.46533,0.09908
6127.53661,0.09982
6125.60789,0.09947
6123.67917,0.09803
6121.75045,0.09603
6119.82174,0.09334
6117.89302,0.09183
6115.96430,0.09355
6114.03558,0.09655
6112.10687,0.09836
6110.17815,0.09877
6108.24943,0.09822
6106.32071,0.09718
6104.39199,0.09656
6102.46328,0.09666
6100.53456,0.09630
6098.60584,0.09560
6096.67712,0.09597
6094.74840,0.09680
6092.81969,0.09694
6090.89097,0.09646
6088.96225,0.09511
6087.03353,0.09420
6085.10482,0.09526
6083.17610,0.09647
6081.24738,0.09687
6079.31866,0.09801
6077.38994,0.09939
6075.46123,0.09898
6073.53251,0.09764
6071.60379,0.09710
6069.67507,0.09569
6067.74635,0.09387
6065.81764,0.09492
6063.88892,0.09747
6061.96020,0.09812
6060.03148,0.09704
6058.10277,0.09621
6056.17405,0.09578
6054.24533,0.09554
6052.31661,0.09628
6050.38789,0.09671
6048.45918,0.09579
6046.53046,0.09562
6044.60174,0.09594
6042.67302,0.09466
6040.74430,0.09384
6038.81559,0.09509
6036.88687,0.09622
6034.95815,0.09637
6033.02943,0.09666
6031.10072,0.09680
6029.17200,0.09610
6027.24328,0.09640
6025.31456,0.09871
6023.38584,0.10025
6021.45713,0.09861
6019.52841,0.09532
6017.59969,0.09404
6015.67097,0.09484
6013.74226,0.09532
6011.81354,0.09524
6009.88482,0.09482
6007.95610,0.09440
6006.02738,0.09504
6004.09867,0.09582
6002.16995,0.09552
6000.24123,0.09593
5998.31251,0.09789
5996.38379,0.09879
5994.45508,0.09787
5992.52636,0.09689
5990.59764,0.09746
5988.66892,0.09935
5986.74021,0.10002
5984.81149,0.09915
5982.88277,0.09875
5980.95405,0.09870
5979.02533,0.09701
5977.09662,0.09408
5975.16790,0.09268
5973.23918,0.09354
5971.31046,0.09519
5969.38174,0.09611
5967.45303,0.09604
5965.52431,0.09619
5963.59559,0.09703
5961.66687,0.09764
5959.73816,0.09716
5957.80944,0.09630
5955.88072,0.09683
5953.95200,0.09837
5952.02328,0.09924
5950.09457,0.09894
5948.16585,0.09703
5946.23713,0.09418
5944.30841,0.09308
5942.37969,0.09470
5940.45098,0.09666
5938.52226,0.09684
5936.59354,0.09614
5934.66482,0.09610
5932.73611,0.09668
5930.80739,0.09754
5928.87867,0.09799
5926.94995,0.09757
5925.02123,0.09705
5923.09252,0.09692
5921.16380,0.09621
5919.23508,0.09480
5917.30636,0.09440
5915.37764,0.09513
5913.44893,0.09592
5911.52021,0.09663
5909.59149,0.09636
5907.66277,0.09432
5905.73406,0.09275
5903.80534,0.09370
5901.87662,0.09487
5899.94790,0.09410
5898.01918,0.09334
5896.09047,0.09503
5894.16175,0.09852
5892.23303,0.10084
5890.30431,0.09998
5888.37559,0.09675
5886.44688,0.09417
5884.51816,0.09375
5882.58944,0.09404
5880.66072,0.09491
5878.73201,0.09683
5876.80329,0.09703
5874.87457,0.09385
5872.94585,0.09060
5871.01713,0.09049
5869.08842,0.09267
5867.15970,0.09536
5865.23098,0.09766
5863.30226,0.09858
5861.37354,0.09749
5859.44483,0.09501
5857.51611,0.09303
5855.58739,0.09318
5853.65867,0.09459
5851.72996,0.09496
5849.80124,0.09396
5847.87252,0.09268
5845.94380,0.09112
5844.01508,0.08934
5842.08637,0.08875
5840.15765,0.09020
5838.22893,0.09204
5836.30021,0.09237
5834.37150,0.09221
5832.44278,0.09269
5830.51406,0.09301
5828.58534,0.09314
5826.65662,0.09339
5824.72791,0.09281
5822.79919,0.09074
5820.87047,0.08893
5818.94175,0.08982
5817.01303,0.09192
5815.08432,0.09210
5813.15560,0.09091
5811.22688,0.08944
5809.29816,0.08734
5807.36945,0.08589
5805.44073,0.08637
5803.51201,0.08720
5801.58329,0.08727
5799.65457,0.08763
5797.72586,0.08819
5795.79714,0.08774
5793.86842,0.08709
5791.93970,0.08793
5790.01098,0.08910
5788.08227,0.08817
5786.15355,0.08609
5784.22483,0.08555
5782.29611,0.08635
5780.36740,0.08618
5778.43868,0.08509
5776.50996,0.08489
5774.58124,0.08544
5772.65252,0.08528
5770.72381,0.08454
5768.79509,0.08500
5766.86637,0.08697
5764.93765,0.08882
5763.00893,0.08992
5761.08022,0.09019
5759.15150,0.08965
5757.22278,0.08967
5755.29406,0.09074
5753.36535,0.09086
5751.43663,0.08956
5749.50791,0.08956
5747.57919,0.09129
5745.65047,0.09232
5743.72176,0.09222
5741.79304,0.09246
5739.86432,0.09323
5737.93560,0.09378
5736.00688,0.09429
5734.07817,0.09485
5732.14945,0.09502
5730.22073,0.09536
5728.29201,0.09616
5726.36330,0.09664
5724.43458,0.09652
5722.50586,0.09596
5720.57714,0.09497
5718.64842,0.09411
5716.71971,0.09409
5714.79099,0.09455
5712.86227,0.09467
5710.93355,0.09437
5709.00483,0.09448
5707.07612,0.09502
5705.14740,0.09445
5703.21868,0.09280
5701.28996,0.09183
5699.36125,0.09171
5697.43253,0.09131
5695.50381,0.09000
5693.57509,0.08867
5691.64637,0.08936
5689.71766,0.09185
5687.78894,0.09356
5685.86022,0.09391
5683.93150,0.09398
5682.00278,0.09350
5680.07407,0.09219
5678.14535,0.09092
5676.21663,0.09060
5674.28791,0.09135
5672.35920,0.09194
5670.43048,0.09134
5668.50176,0.09031
5666.57304,0.08955
5664.64432,0.08872
5662.71561,0.08822
5660.78689,0.08876
5658.85817,0.08979
5656.92945,0.09056
5655.00074,0.09081
5653.07202,0.09083
5651.14330,0.09177
5649.21458,0.09370
5647.28586,0.09452
5645.35715,0.09378
5643.42843,0.09337
5641.49971,0.09374
5639.57099,0.09411
5637.64227,0.09432
5635.71356,0.09424
5633.78484,0.09385
5631.85612,0.09334
5629.92740,0.09289
5627.99869,0.09299
5626.06997,0.09339
5624.14125,0.09328
5622.21253,0.09312
5620.28381,0.09402
5618.35510,0.09544
5616.42638,0.09578
5614.49766,0.09472
5612.56894,0.09328
5610.64022,0.09270
5608.71151,0.09381
5606.78279,0.09550
5604.85407,0.09596
5602.92535,0.09599
5600.99664,0.09646
5599.06792,0.09634
5597.13920,0.09625
5595.21048,0.09671
5593.28176,0.09700
5591.35305,0.09770
5589.42433,0.09900
5587.49561,0.09949
5585.56689,0.09879
5583.63817,0.09770
5581.70946,0.09629
5579.78074,0.09504
5577.85202,0.09468
5575.92330,0.09512
5573.99459,0.09638
5572.06587,0.09710
5570.13715,0.09629
5568.20843,0.09568
5566.27971,0.09602
5564.35100,0.09652
5562.42228,0.09711
5560.49356,0.09754
5558.56484,0.09708
5556.63612,0.09607
5554.70741,0.09580
5552.77869,0.09586
5550.84997,0.09517
5548.92125,0.09423
5546.99254,0.09408
5545.06382,0.09469
5543.13510,0.09506
5541.20638,0.09435
5539.27766,0.09310
5537.34895,0.09303
5535.42023,0.09397
5533.49151,0.09460
5531.56279,0.09523
5529.63407,0.09529
5527.70536,0.09412
5525.77664,0.09343
5523.84792,0.09403
5521.91920,0.09445
5519.99049,0.09455
5518.06177,0.09523
5516.13305,0.09574
5514.20433,0.09556
5512.27561,0.09558
5510.34690,0.09630
5508.41818,0.09704
5506.48946,0.09718
5504.56074,0.09694
5502.63202,0.09594
5500.70331,0.09431
5498.77459,0.09346
5496.84587,0.09378
5494.91715,0.09471
5492.98844,0.09545
5491.05972,0.09486
5489.13100,0.09354
5487.20228,0.09377
5485.27356,0.09564
5483.34485,0.09664
5481.41613,0.09597
5479.48741,0.09527
5477.55869,0.09527
5475.62998,0.09514
5473.70126,0.09485
5471.77254,0.09500
5469.84382,0.09515
5467.91510,0.09521
5465.98639,0.09588
5464.05767,0.09691
5462.12895,0.09765
5460.20023,0.09808
5458.27151,0.09781
5456.34280,0.09674
5454.41408,0.09597
5452.48536,0.09605
5450.55664,0.09603
5448.62793,0.09530
5446.69921,0.09462
5444.77049,0.09475
5442.84177,0.09553
5440.91305,0.09630
5438.98434,0.09632
5437.05562,0.09547
5435.12690,0.09468
5433.19818,0.09514
5431.26946,0.09610
5429.34075,0.09626
5427.41203,0.09565
5425.48331,0.09495
5423.55459,0.09489
5421.62588,0.09557
5419.69716,0.09645
5417.76844,0.09703
5415.83972,0.09660
5413.91100,0.09557
5411.98229,0.09518
5410.05357,0.09509
5408.12485,0.09533
5406.19613,0.09660
5404.26741,0.09801
5402.33870,0.09814
5400.40998,0.09690
5398.48126,0.09568
5396.55254,0.09528
5394.62383,0.09468
5392.69511,0.09361
5390.76639,0.09325
5388.83767,0.09391
5386.90895,0.09562
5384.98024,0.09796
5383.05152,0.09895
5381.12280,0.09796
5379.19408,0.09679
5377.26536,0.09661
5375.33665,0.09715
5373.40793,0.09774
5371.47921,0.09791
5369.55049,0.09792
5367.62178,0.09805
5365.69306,0.09782
5363.76434,0.09751
5361.83562,0.09793
5359.90690,0.09858
5357.97819,0.09884
5356.04947,0.09863
5354.12075,0.09791
5352.19203,0.09734
5350.26331,0.09720
5348.33460,0.09712
5346.40588,0.09743
5344.47716,0.09817
5342.54844,0.09849
5340.61973,0.09818
5338.69101,0.09814
5336.76229,0.09852
5334.83357,0.09857
5332.90485,0.09847
5330.97614,0.09877
5329.04742,0.09896
5327.11870,0.09828
5325.18998,0.09752
5323.26126,0.09758
5321.33255,0.09767
5319.40383,0.09712
5317.47511,0.09663
5315.54639,0.09675
5313.61768,0.09732
5311.68896,0.09798
5309.76024,0.09849
5307.83152,0.09872
5305.90280,0.09868
5303.97409,0.09848
5302.04537,0.09827
5300.11665,0.09790
5298.18793,0.09710
5296.25922,0.09681
5294.33050,0.09798
5292.40178,0.09904
5290.47306,0.09822
5288.54434,0.09693
5286.61563,0.09710
5284.68691,0.09822
5282.75819,0.09886
5280.82947,0.09867
5278.90075,0.09821
5276.97204,0.09808
5275.04332,0.09824
5273.11460,0.09807
5271.18588,0.09752
5269.25717,0.09716
5267.32845,0.09682
5265.39973,0.09651
5263.47101,0.09711
5261.54229,0.09831
5259.61358,0.09887
5257.68486,0.09855
5255.75614,0.09778
5253.82742,0.09764
5251.89870,0.09835
5249.96999,0.09841
5248.04127,0.09770
5246.11255,0.09802
5244.18383,0.09952
5242.25512,0.10022
5240.32640,0.09915
5238.39768,0.09750
5236.46896,0.09679
5234.54024,0.09724
5232.61153,0.09786
5230.68281,0.09782
5228.75409,0.09761
5226.82537,0.09763
5224.89665,0.09706
5222.96794,0.09638
5221.03922,0.09691
5219.11050,0.09800
5217.18178,0.09839
5215.25307,0.09793
5213.32435,0.09707
5211.39563,0.09627
5209.46691,0.09581
5207.53819,0.09606
5205.60948,0.09715
5203.68076,0.09800
5201.75204,0.09824
5199.82332,0.09820
5197.89460,0.09784
5195.96589,0.09779
5194.03717,0.09835
5192.10845,0.09824
5190.17973,0.09738
5188.25102,0.09716
5186.32230,0.09757
5184.39358,0.09783
5182.46486,0.09765
5180.53614,0.09716
5178.60743,0.09683
5176.67871,0.09698
5174.74999,0.09771
5172.82127,0.09874
5170.89255,0.09917
5168.96384,0.09876
5167.03512,0.09832
5165.10640,0.09817
5163.17768,0.09778
5161.24897,0.09744
5159.32025,0.09805
5157.39153,0.09915
5155.46281,0.09954
5153.53409,0.09918
5151.60538,0.09883
5149.67666,0.09874
5147.74794,0.09844
5145.81922,0.09789
5143.89050,0.09766
5141.96179,0.09818
5140.03307,0.09885
5138.10435,0.09872
5136.17563,0.09775
5134.24692,0.09659
5132.31820,0.09628
5130.38948,0.09700
5128.46076,0.09789
5126.53204,0.09862
5124.60333,0.09910
5122.67461,0.09882
5120.74589,0.09812
5118.81717,0.09771
5116.88846,0.09756
5114.95974,0.09774
5113.03102,0.09830
5111.10230,0.09870
5109.17358,0.09896
5107.24487,0.09933
5105.31615,0.09930
5103.38743,0.09912
5101.45871,0.09947
5099.52999,0.09996
5097.60128,0.10023
5095.67256,0.10026
5093.74384,0.09962
5091.81512,0.09841
5089.88641,0.09733
5087.95769,0.09694
5086.02897,0.09748
5084.10025,0.09837
5082.17153,0.09870
5080.24282,0.09844
5078.31410,0.09835
5076.38538,0.09876
5074.45666,0.09915
5072.52794,0.09884
5070.59923,0.09811
5068.67051,0.09817
5066.74179,0.09890
5064.81307,0.09909
5062.88436,0.09867
5060.95564,0.09815
5059.02692,0.09770
5057.09820,0.09748
5055.16948,0.09771
5053.24077,0.09782
5051.31205,0.09729
5049.38333,0.09724
5047.45461,0.09827
5045.52589,0.09909
5043.59718,0.09915
5041.66846,0.09898
5039.73974,0.09876
5037.81102,0.09862
5035.88231,0.09868
5033.95359,0.09851
5032.02487,0.09770
5030.09615,0.09694
5028.16743,0.09709
5026.23872,0.09756
5024.31000,0.09746
5022.38128,0.09723
5020.45256,0.09739
5018.52384,0.09755
5016.59513,0.09757
5014.66641,0.09809
5012.73769,0.09911
5010.80897,0.09972
5008.88026,0.09946
5006.95154,0.09880
5005.02282,0.09819
5003.09410,0.09768
5001.16538,0.09778
4999.23667,0.09846
4997.30795,0.09854
4995.37923,0.09798
4993.45051,0.09794
4991.52179,0.09866
4989.59308,0.09924
4987.66436,0.09896
4985.73564,0.09833
4983.80692,0.09818
4981.87821,0.09867
4979.94949,0.09946
4978.02077,0.09997
4976.09205,0.09977
4974.16333,0.09907
4972.23462,0.09826
4970.30590,0.09747
4968.37718,0.09728
4966.44846,0.09796
4964.51974,0.09883
4962.59103,0.09926
4960.66231,0.09937
4958.73359,0.09936
4956.80487,0.09941
4954.87616,0.09949
4952.94744,0.09931
4951.01872,0.09907
4949.09000,0.09917
4947.16128,0.09920
4945.23257,0.09884
4943.30385,0.09879
4941.37513,0.09927
4939.44641,0.09925
4937.51769,0.09871
4935.58898,0.09884
4933.66026,0.09960
4931.73154,0.10014
4929.80282,0.09995
4927.87411,0.09928
4925.94539,0.09890
4924.01667,0.09847
4922.08795,0.09762
4920.15923,0.09713
4918.23052,0.09732
4916.30180,0.09803
4914.37308,0.09926
4912.44436,0.10031
4910.51565,0.10016
4908.58693,0.09932
4906.65821,0.09892
4904.72949,0.09882
4902.80077,0.09871
4900.87206,0.09870
4898.94334,0.09865
4897.01462,0.09860
4895.08590,0.09860
4893.15718,0.09862
4891.22847,0.09907
4889.29975,0.09992
4887.37103,0.10034
4885.44231,0.10002
4883.51360,0.09969
4881.58488,0.09983
4879.65616,0.10026
4877.72744,0.10031
4875.79872,0.09951
4873.87001,0.09842
4871.94129,0.09794
4870.01257,0.09801
4868.08385,0.09809
4866.15513,0.09837
4864.22642,0.09878
4862.29770,0.09890
4860.36898,0.09916
4858.44026,0.09981
4856.51155,0.10044
4854.58283,0.10065
4852.65411,0.10033
4850.72539,0.09972
4848.79667,0.09915
4846.86796,0.09867
4844.93924,0.09849
4843.01052,0.09877
4841.08180,0.09921
4839.15308,0.09939
4837.22437,0.09932
4835.29565,0.09907
4833.36693,0.09878
4831.43821,0.09852
4829.50950,0.09837
4827.58078,0.09867
4825.65206,0.09919
4823.72334,0.09902
4821.79462,0.09821
4819.86591,0.09781
4817.93719,0.09825
4816.00847,0.09892
4814.07975,0.09942
4812.15103,0.09976
4810.22232,0.09958
4808.29360,0.09892
4806.36488,0.09878
4804.43616,0.09964
4802.50745,0.10070
4800.57873,0.10108
4798.65001,0.10101
4796.72129,0.10088
4794.79257,0.10037
4792.86386,0.09958
4790.93514,0.09915
4789.00642,0.09937
4787.07770,0.09992
4785.14898,0.10022
4783.22027,0.10002
4781.29155,0.09963
4779.36283,0.09939
4777.43411,0.09922
4775.50540,0.09917
4773.57668,0.09951
4771.64796,0.09971
4769.71924,0.09914
4767.79052,0.09838
4765.86181,0.09823
4763.93309,0.09884
4762.00437,0.09971
4760.07565,0.10003
4758.14693,0.09986
4756.21822,0.10009
4754.28950,0.10056
4752.36078,0.10026
4750.43206,0.09948
4748.50335,0.09928
4746.57463,0.09972
4744.64591,0.10012
4742.71719,0.10001
4740.78847,0.09953
4738.85976,0.09897
4736.93104,0.09871
4735.00232,0.09914
4733.07360,0.09993
4731.14489,0.10032
4729.21617,0.10030
4727.28745,0.10031
4725.35873,0.10040
4723.43001,0.10035
4721.50130,0.10016
4719.57258,0.10001
4717.64386,0.10004
4715.71514,0.10020
4713.78642,0.10008
4711.85771,0.09953
4709.92899,0.09935
4708.00027,0.09970
4706.07155,0.09997
4704.14284,0.10025
4702.21412,0.10059
4700.28540,0.10059
4698.35668,0.10028
4696.42796,0.10002
4694.49925,0.10010
4692.57053,0.10047
4690.64181,0.10064
4688.71309,0.10061
4686.78437,0.10079
4684.85566,0.10098
4682.92694,0.10106
4680.99822,0.10118
4679.06950,0.10117
4677.14079,0.10110
4675.21207,0.10104
4673.28335,0.10073
4671.35463,0.10026
4669.42591,0.10010
4667.49720,0.10052
4665.56848,0.10121
4663.63976,0.10180
4661.71104,0.10204
4659.78232,0.10162
4657.85361,0.10069
4655.92489,0.09981
4653.99617,0.09942
4652.06745,0.09957
4650.13874,0.09980
4648.21002,0.10000
4646.28130,0.10023
4644.35258,0.10007
4642.42386,0.09940
4640.49515,0.09918
4638.56643,0.09987
4636.63771,0.10045
4634.70899,0.10046
4632.78027,0.10050
4630.85156,0.10050
4628.92284,0.09995
4626.99412,0.09942
4625.06540,0.09978
4623.13669,0.10056
4621.20797,0.10086
4619.27925,0.10094
4617.35053,0.10114
4615.42181,0.10126
4613.49310,0.10108
4611.56438,0.10036
4609.63566,0.09961
4607.70694,0.09969
4605.77822,0.10025
4603.84951,0.10038
4601.92079,0.09997
4599.99207,0.09946
4598.06335,0.09923
4596.13464,0.09923
4594.20592,0.09925
4592.27720,0.09924
4590.34848,0.09923
4588.41976,0.09910
4586.49105,0.09896
4584.56233,0.09898
4582.63361,0.09916
4580.70489,0.09949
4578.77617,0.09963
4576.84746,0.09963
4574.91874,0.10003
4572.99002,0.10039
4571.06130,0.09993
4569.13259,0.09931
4567.20387,0.09941
4565.27515,0.09963
4563.34643,0.09945
4561.41771,0.09927
4559.48900,0.09934
4557.56028,0.09932
4555.63156,0.09896
4553.70284,0.09868
4551.77413,0.09857
4549.84541,0.09829
4547.91669,0.09825
4545.98797,0.09870
4544.05925,0.09909
4542.13054,0.09901
4540.20182,0.09871
4538.27310,0.09879
4536.34438,0.09918
4534.41566,0.09938
4532.48695,0.09951
4530.55823,0.09996
4528.62951,0.10054
4526.70079,0.10073
4524.77208,0.10042
4522.84336,0.09988
4520.91464,0.09941
4518.98592,0.09909
4517.05720,0.09892
4515.12849,0.09886
4513.19977,0.09906
4511.27105,0.09954
4509.34233,0.09972
4507.41361,0.09942
4505.48490,0.09920
4503.55618,0.09953
4501.62746,0.10019
4499.69874,0.10042
4497.77003,0.10034
4495.84131,0.10037
4493.91259,0.10016
4491.98387,0.09961
4490.05515,0.09895
4488.12644,0.09849
4486.19772,0.09854
4484.26900,0.09883
4482.34028,0.09888
4480.41156,0.09873
4478.48285,0.09853
4476.55413,0.09837
4474.62541,0.09830
4472.69669,0.09822
4470.76798,0.09840
4468.83926,0.09917
4466.91054,0.09975
4464.98182,0.09934
4463.05310,0.09844
4461.12439,0.09815
4459.19567,0.09849
4457.26695,0.09855
4455.33823,0.09828
4453.40951,0.09827
4451.48080,0.09823
4449.55208,0.09778
4447.62336,0.09736
4445.69464,0.09731
4443.76593,0.09754
4441.83721,0.09779
4439.90849,0.09764
4437.97977,0.09723
4436.05105,0.09699
4434.12234,0.09697
4432.19362,0.09709
4430.26490,0.09727
4428.33618,0.09725
4426.40746,0.09702
4424.47875,0.09680
4422.55003,0.09682
4420.62131,0.09680
4418.69259,0.09615
4416.76388,0.09520
4414.83516,0.09471
4412.90644,0.09460
4410.97772,0.09457
4409.04900,0.09450
4407.12029,0.09414
4405.19157,0.09377
4403.26285,0.09355
4401.33413,0.09316
4399.40541,0.09276
4397.47670,0.09251
4395.54798,0.09205
4393.61926,0.09147
4391.69054,0.09132
4389.76183,0.09145
4387.83311,0.09115
4385.90439,0.09028
4383.97567,0.08951
4382.04695,0.08939
4380.11824,0.08943
4378.18952,0.08901
4376.26080,0.08834
4374.33208,0.08783
4372.40337,0.08748
4370.47465,0.08735
4368.54593,0.08748
4366.61721,0.08754
4364.68849,0.08730
4362.75978,0.08711
4360.83106,0.08711
4358.90234,0.08664
4356.97362,0.08529
4355.04490,0.08363
4353.11619,0.08226
4351.18747,0.08123
4349.25875,0.08031
4347.33003,0.07915
4345.40132,0.07775
4343.47260,0.07632
4341.54388,0.07494
4339.61516,0.07368
4337.68644,0.07267
4335.75773,0.07209
4333.82901,0.07160
4331.90029,0.07069
4329.97157,0.06947
4328.04285,0.06823
4326.11414,0.06698
4324.18542,0.06573
4322.25670,0.06513
4320.32798,0.06605
4318.39927,0.06856
4316.47055,0.07193
4314.54183,0.07513
4312.61311,0.07745
4310.68439,0.07906
4308.75568,0.08035
4306.82696,0.08144
4304.89824,0.08235
4302.96952,0.08308
4301.04080,0.08359
4299.11209,0.08414
4297.18337,0.08492
4295.25465,0.08525
4293.32593,0.08479
4291.39722,0.08443
4289.46850,0.08464
4287.53978,0.08482
4285.61106,0.08443
4283.68234,0.08377
4281.75363,0.08353
4279.82491,0.08366
4277.89619,0.08342
4275.96747,0.08255
4274.03875,0.08151
4272.11004,0.08065
4270.18132,0.07978
4268.25260,0.07890
4266.32388,0.07824
4264.39517,0.07755
4262.46645,0.07637
4260.53773,0.07482
4258.60901,0.07347
4256.68029,0.07250
4254.75158,0.07169
4252.82286,0.07110
4250.89414,0.07112
4248.96542,0.07200
4247.03670,0.07354
4245.10799,0.07536
4243.17927,0.07719
4241.25055,0.07864
4239.32183,0.07943
4237.39312,0.07988
4235.46440,0.08033
4233.53568,0.08066
4231.60696,0.08053
4229.67824,0.07975
4227.74953,0.07879
4225.82081,0.07811
4223.89209,0.07776
4221.96337,0.07784
4220.03465,0.07823
4218.10594,0.07857
4216.17722,0.07894
4214.24850,0.07933
4212.31978,0.07933
4210.39107,0.07908
4208.46235,0.07900
4206.53363,0.07872
4204.60491,0.07808
4202.67619,0.07766
4200.74748,0.07723
4198.81876,0.07629
4196.89004,0.07533
4194.96132,0.07482
4193.03261,0.07441
4191.10389,0.07391
4189.17517,0.07388
4187.24645,0.07463
4185.31773,0.07565
4183.38902,0.07613
4181.46030,0.07606
4179.53158,0.07599
4177.60286,0.07599
4175.67414,0.07611
4173.74543,0.07654
4171.81671,0.07685
4169.88799,0.07669
4167.95927,0.07636
4166.03056,0.07602
4164.10184,0.07556
4162.17312,0.07524
4160.24440,0.07537
4158.31568,0.07554
4156.38697,0.07559
4154.45825,0.07586
4152.52953,0.07634
4150.60081,0.07684
4148.67209,0.07699
4146.74338,0.07681
4144.81466,0.07677
4142.88594,0.07694
4140.95722,0.07697
4139.02851,0.07677
4137.09979,0.07661
4135.17107,0.07680
4133.24235,0.07713
4131.31363,0.07712
4129.38492,0.07688
4127.45620,0.07683
4125.52748,0.07704
4123.59876,0.07737
4121.67004,0.07750
4119.74133,0.07731
4117.81261,0.07717
4115.88389,0.07731
4113.95517,0.07749
4112.02646,0.07754
4110.09774,0.07753
4108.16902,0.07756
4106.24030,0.07763
4104.31158,0.07768
4102.38287,0.07770
4100.45415,0.07754
4098.52543,0.07718
4096.59671,0.07700
4094.66799,0.07726
4092.73928,0.07765
4090.81056,0.07793
4088.88184,0.07829
4086.95312,0.07873
4085.02441,0.07916
4083.09569,0.07967
4081.16697,0.08033
4079.23825,0.08134
4077.30953,0.08244
4075.38082,0.08305
4073.45210,0.08314
4071.52338,0.08306
4069.59466,0.08311
4067.66594,0.08342
4065.73723,0.08361
4063.80851,0.08342
4061.87979,0.08322
4059.95107,0.08319
4058.02236,0.08312
4056.09364,0.08307
4054.16492,0.08322
4052.23620,0.08335
4050.30748,0.08350
4048.37877,0.08398
4046.45005,0.08456
4044.52133,0.08496
4042.59261,0.08529
4040.66389,0.08558
4038.73518,0.08584
4036.80646,0.08616
4034.87774,0.08641
4032.94902,0.08646
4031.02031,0.08631
4029.09159,0.08601
4027.16287,0.08571
4025.23415,0.08547
4023.30543,0.08531
4021.37672,0.08542
4019.44800,0.08590
4017.51928,0.08663
4015.59056,0.08734
4013.66185,0.08782
4011.73313,0.08811
4009.80441,0.08830
4007.87569,0.08848
4005.94697,0.08890
4004.01826,0.08962
4002.08954,0.09019
4000.16082,0.09024
3998.23210,0.08990
3996.30338,0.08943
3994.37467,0.08898
3992.44595,0.08868
3990.51723,0.08863
3988.58851,0.08868
3986.65980,0.08870
3984.73108,0.08882
3982.80236,0.08901
3980.87364,0.08920
3978.94492,0.08950
3977.01621,0.08986
3975.08749,0.08998
3973.15877,0.08990
3971.23005,0.08985
3969.30133,0.08983
3967.37262,0.08983
3965.44390,0.08983
3963.51518,0.08972
3961.58646,0.08959
3959.65775,0.08952
3957.72903,0.08951
3955.80031,0.08956
3953.87159,0.08949
3951.94287,0.08911
3950.01416,0.08863
3948.08544,0.08859
3946.15672,0.08900
3944.22800,0.08928
3942.29928,0.08941
3940.37057,0.08976
3938.44185,0.09014
3936.51313,0.09030
3934.58441,0.09016
3932.65570,0.08963
3930.72698,0.08896
3928.79826,0.08855
3926.86954,0.08844
3924.94082,0.08826
3923.01211,0.08767
3921.08339,0.08720
3919.15467,0.08734
3917.22595,0.08758
3915.29723,0.08747
3913.36852,0.08742
3911.43980,0.08766
3909.51108,0.08825
3907.58236,0.08886
3905.65365,0.08905
3903.72493,0.08889
3901.79621,0.08885
3899.86749,0.08926
3897.93877,0.08981
3896.01006,0.08990
3894.08134,0.08961
3892.15262,0.08917
3890.22390,0.08896
3888.29518,0.08910
3886.36647,0.08893
3884.43775,0.08850
3882.50903,0.08859
3880.58031,0.08881
3878.65160,0.08889
3876.72288,0.08917
3874.79416,0.08941
3872.86544,0.08925
3870.93672,0.08903
3869.00801,0.08940
3867.07929,0.08999
3865.15057,0.09021
3863.22185,0.09024
3861.29313,0.09026
3859.36442,0.09027
3857.43570,0.09036
3855.50698,0.09037
3853.57826,0.09006
3851.64955,0.08965
3849.72083,0.08945
3847.79211,0.08944
3845.86339,0.08964
3843.93467,0.09002
3842.00596,0.09040
3840.07724,0.09032
3838.14852,0.08983
3836.21980,0.08966
3834.29109,0.08986
3832.36237,0.09024
3830.43365,0.09066
3828.50493,0.09084
3826.57621,0.09087
3824.64750,0.09105
3822.71878,0.09116
3820.79006,0.09089
3818.86134,0.09080
3816.93262,0.09092
3815.00391,0.09067
3813.07519,0.09033
3811.14647,0.09014
3809.21775,0.08999
3807.28904,0.09025
3805.36032,0.09102
3803.43160,0.09146
3801.50288,0.09150
3799.57416,0.09173
3797.64545,0.09215
3795.71673,0.09256
3793.78801,0.09278
3791.85929,0.09272
3789.93057,0.09252
3788.00186,0.09231
3786.07314,0.09205
3784.14442,0.09181
3782.21570,0.09174
3780.28699,0.09162
3778.35827,0.09156
3776.42955,0.09177
3774.50083,0.09197
3772.57211,0.09201
3770.64340,0.09212
3768.71468,0.09266
3766.78596,0.09344
3764.85724,0.09372
3762.92852,0.09355
3760.99981,0.09344
3759.07109,0.09344
3757.14237,0.09329
3755.21365,0.09284
3753.28494,0.09206
3751.35622,0.09132
3749.42750,0.09139
3747.49878,0.09173
3745.57006,0.09182
3743.64135,0.09205
3741.71263,0.09256
3739.78391,0.09289
3737.85519,0.09283
3735.92647,0.09256
3733.99776,0.09243
3732.06904,0.09260
3730.14032,0.09297
3728.21160,0.09304
3726.28289,0.09265
3724.35417,0.09242
3722.42545,0.09258
3720.49673,0.09294
3718.56801,0.09335
3716.63930,0.09334
3714.71058,0.09269
3712.78186,0.09157
3710.85314,0.09068
3708.92442,0.09092
3706.99571,0.09165
3705.06699,0.09200
3703.13827,0.09171
3701.20955,0.09119
3699.28084,0.09123
3697.35212,0.09178
3695.42340,0.09244
3693.49468,0.09302
3691.56596,0.09324
3689.63725,0.09272
3687.70853,0.09193
3685.77981,0.09174
3683.85109,0.09203
3681.92237,0.09239
3679.99366,0.09237
3678.06494,0.09172
3676.13622,0.09058
3674.20750,0.08997
3672.27879,0.09027
3670.35007,0.09051
3668.42135,0.09047
3666.49263,0.09067
3664.56391,0.09102
3662.63520,0.09122
3660.70648,0.09132
3658.77776,0.09131
3656.84904,0.09099
3654.92033,0.09046
3652.99161,0.08991
3651.06289,0.08905
3649.13417,0.08817
3647.20545,0.08812
3645.27674,0.08836
3643.34802,0.08832
3641.41930,0.08811
3639.49058,0.08808
3637.56186,0.08837
3635.63315,0.08891
3633.70443,0.08948
3631.77571,0.08973
3629.84699,0.08958
3627.91828,0.08947
3625.98956,0.08965
3624.06084,0.08980
3622.13212,0.08996
3620.20340,0.09000
3618.27469,0.08968
3616.34597,0.08923
3614.41725,0.08853
3612.48853,0.08744
3610.55981,0.08639
3608.63110,0.08563
3606.70238,0.08501
3604.77366,0.08436
3602.84494,0.08410
3600.91623,0.08472
3598.98751,0.08582
3597.05879,0.08680
3595.13007,0.08806
3593.20135,0.08967
3591.27264,0.09066
3589.34392,0.09081
3587.41520,0.09152
3585.48648,0.09312
3583.55776,0.09386
3581.62905,0.09366
3579.70033,0.09341
3577.77161,0.09345
3575.84289,0.09382
3573.91418,0.09432
3571.98546,0.09458
3570.05674,0.09447
3568.12802,0.09403
3566.19930,0.09383
3564.27059,0.09435
3562.34187,0.09490
3560.41315,0.09515
3558.48443,0.09531
3556.55571,0.09554
3554.62700,0.09572
3552.69828,0.09575
3550.76956,0.09570
3548.84084,0.09564
3546.91213,0.09565
3544.98341,0.09574
3543.05469,0.09582
3541.12597,0.09584
3539.19725,0.09562
3537.26854,0.09508
3535.33982,0.09460
3533.41110,0.09461
3531.48238,0.09495
3529.55366,0.09525
3527.62495,0.09538
3525.69623,0.09541
3523.76751,0.09550
3521.83879,0.09551
3519.91008,0.09552
3517.98136,0.09595
3516.05264,0.09656
3514.12392,0.09663
3512.19520,0.09618
3510.26649,0.09591
3508.33777,0.09591
3506.40905,0.09560
3504.48033,0.09490
3502.55161,0.09445
3500.62290,0.09453
3498.69418,0.09469
3496.76546,0.09474
3494.83674,0.09478
3492.90803,0.09486
3490.97931,0.09484
3489.05059,0.09460
3487.12187,0.09443
3485.19315,0.09464
3483.26444,0.09508
3481.33572,0.09543
3479.40700,0.09541
3477.47828,0.09509
3475.54956,0.09492
3473.62085,0.09487
3471.69213,0.09462
3469.76341,0.09425
3467.83469,0.09388
3465.90598,0.09359
3463.97726,0.09347
3462.04854,0.09351
3460.11982,0.09357
3458.19110,0.09354
3456.26239,0.09361
3454.33367,0.09372
3452.40495,0.09398
3450.47623,0.09446
3448.54752,0.09448
3446.61880,0.09367
3444.69008,0.09309
3442.76136,0.09330
3440.83264,0.09336
3438.90393,0.09304
3436.97521,0.09304
3435.04649,0.09310
3433.11777,0.09270
3431.18905,0.09240
3429.26034,0.09267
3427.33162,0.09320
3425.40290,0.09345
3423.47418,0.09344
3421.54547,0.09360
3419.61675,0.09404
3417.68803,0.09437
3415.75931,0.09424
3413.83059,0.09369
3411.90188,0.09343
3409.97316,0.09375
3408.04444,0.09405
3406.11572,0.09406
3404.18700,0.09396
3402.25829,0.09355
3400.32957,0.09307
3398.40085,0.09295
3396.47213,0.09273
3394.54342,0.09207
3392.61470,0.09171
3390.68598,0.09209
3388.75726,0.09250
3386.82854,0.09244
3384.89983,0.09242
3382.97111,0.09265
3381.04239,0.09284
3379.11367,0.09273
3377.18495,0.09220
3375.25624,0.09166
3373.32752,0.09150
3371.39880,0.09136
3369.47008,0.09112
3367.54137,0.09121
3365.61265,0.09154
3363.68393,0.09163
3361.75521,0.09171
3359.82649,0.09197
3357.89778,0.09226
3355.96906,0.09248
3354.04034,0.09267
3352.11162,0.09298
3350.18290,0.09323
3348.25419,0.09322
3346.32547,0.09324
3344.39675,0.09353
3342.46803,0.09384
3340.53932,0.09384
3338.61060,0.09351
3336.68188,0.09308
3334.75316,0.09261
3332.82444,0.09205
3330.89573,0.09169
3328.96701,0.09178
3327.03829,0.09229
3325.10957,0.09311
3323.18085,0.09366
3321.25214,0.09355
3319.32342,0.09345
3317.39470,0.09379
3315.46598,0.09412
3313.53727,0.09407
3311.60855,0.09391
3309.67983,0.09380
3307.75111,0.09351
3305.82239,0.09307
3303.89368,0.09291
3301.96496,0.09314
3300.03624,0.09324
3298.10752,0.09300
3296.17880,0.09278
3294.25009,0.09297
3292.32137,0.09342
3290.39265,0.09356
3288.46393,0.09332
3286.53522,0.09317
3284.60650,0.09307
3282.67778,0.09293
3280.74906,0.09304
3278.82034,0.09334
3276.89163,0.09347
3274.96291,0.09339
3273.03419,0.09322
3271.10547,0.09299
3269.17676,0.09276
3267.24804,0.09260
3265.31932,0.09253
3263.39060,0.09256
3261.46188,0.09277
3259.53317,0.09292
3257.60445,0.09266
3255.67573,0.09220
3253.74701,0.09202
3251.81829,0.09221
3249.88958,0.09243
3247.96086,0.09253
3246.03214,0.09263
3244.10342,0.09273
3242.17471,0.09277
3240.24599,0.09287
3238.31727,0.09296
3236.38855,0.09280
3234.45983,0.09251
3232.53112,0.09248
3230.60240,0.09265
3228.67368,0.09257
3226.74496,0.09216
3224.81624,0.09173
3222.88753,0.09139
3220.95881,0.09128
3219.03009,0.09158
3217.10137,0.09196
3215.17266,0.09207
3213.24394,0.09186
3211.31522,0.09155
3209.38650,0.09147
3207.45778,0.09148
3205.52907,0.09121
3203.60035,0.09090
3201.67163,0.09073
3199.74291,0.09040
3197.81419,0.08993
3195.88548,0.08980
3193.95676,0.08994
3192.02804,0.08988
3190.09932,0.08969
3188.17061,0.08984
3186.24189,0.09029
3184.31317,0.09063
3182.38445,0.09085
3180.45573,0.09093
3178.52702,0.09054
3176.59830,0.08984
3174.66958,0.08940
3172.74086,0.08938
3170.81214,0.08962
3168.88343,0.08951
3166.95471,0.08886
3165.02599,0.08829
3163.09727,0.08806
3161.16856,0.08798
3159.23984,0.08815
3157.31112,0.08836
3155.38240,0.08815
3153.45368,0.08782
3151.52497,0.08791
3149.59625,0.08807
3147.66753,0.08788
3145.73881,0.08756
3143.81009,0.08728
3141.88138,0.08711
3139.95266,0.08713
3138.02394,0.08708
3136.09522,0.08673
3134.16651,0.08647
3132.23779,0.08653
3130.30907,0.08656
3128.38035,0.08626
3126.45163,0.08578
3124.52292,0.08532
3122.59420,0.08489
3120.66548,0.08443
3118.73676,0.08406
3116.80804,0.08393
3114.87933,0.08370
3112.95061,0.08316
3111.02189,0.08251
3109.09317,0.08176
3107.16446,0.08115
3105.23574,0.08090
3103.30702,0.08066
3101.37830,0.07995
3099.44958,0.07877
3097.52087,0.07787
3095.59215,0.07742
3093.66343,0.07678
3091.73471,0.07597
3089.80600,0.07542
3087.87728,0.07508
3085.94856,0.07459
3084.01984,0.07395
3082.09112,0.07339
3080.16241,0.07299
3078.23369,0.07283
3076.30497,0.07278
3074.37625,0.07248
3072.44753,0.07186
3070.51882,0.07121
3068.59010,0.07076
3066.66138,0.07041
3064.73266,0.07002
3062.80395,0.06952
3060.87523,0.06889
3058.94651,0.06841
3057.01779,0.06820
3055.08907,0.06799
3053.16036,0.06768
3051.23164,0.06725
3049.30292,0.06657
3047.37420,0.06583
3045.44548,0.06519
3043.51677,0.06447
3041.58805,0.06396
3039.65933,0.06380
3037.73061,0.06350
3035.80190,0.06289
3033.87318,0.06237
3031.94446,0.06201
3030.01574,0.06159
3028.08702,0.06114
3026.15831,0.06076
3024.22959,0.06039
3022.30087,0.05999
3020.37215,0.05944
3018.44343,0.05877
3016.51472,0.05844
3014.58600,0.05843
3012.65728,0.05820
3010.72856,0.05765
3008.79985,0.05703
3006.87113,0.05653
3004.94241,0.05626
3003.01369,0.05603
3001.08497,0.05560
2999.15626,0.05513
2997.22754,0.05476
2995.29882,0.05434
2993.37010,0.05386
2991.44138,0.05340
2989.51267,0.05298
2987.58395,0.05251
2985.65523,0.05208
2983.72651,0.05164
2981.79780,0.05108
2979.86908,0.05058
2977.94036,0.05010
2976.01164,0.04944
2974.08292,0.04887
2972.15421,0.04867
2970.22549,0.04859
2968.29677,0.04844
2966.36805,0.04824
2964.43933,0.04774
2962.51062,0.04685
2960.58190,0.04611
2958.65318,0.04588
2956.72446,0.04586
2954.79575,0.04575
2952.86703,0.04559
2950.93831,0.04521
2949.00959,0.04449
2947.08087,0.04347
2945.15216,0.04220
2943.22344,0.04102
2941.29472,0.04026
2939.36600,0.03970
2937.43728,0.03913
2935.50857,0.03875
2933.57985,0.03882
2931.65113,0.03947
2929.72241,0.04112
2927.79370,0.04411
2925.86498,0.04853
2923.93626,0.05470
2922.00754,0.06277
2920.07882,0.07218
2918.15011,0.08124
2916.22139,0.08710
2914.29267,0.08799
2912.36395,0.08527
2910.43524,0.08159
2908.50652,0.07847
2906.57780,0.07599
2904.64908,0.07390
2902.72036,0.07216
2900.79165,0.07099
2898.86293,0.07025
2896.93421,0.06952
2895.00549,0.06887
2893.07677,0.06851
2891.14806,0.06821
2889.21934,0.06777
2887.29062,0.06712
2885.36190,0.06639
2883.43319,0.06578
2881.50447,0.06524
2879.57575,0.06446
2877.64703,0.06347
2875.71831,0.06257
2873.78960,0.06190
2871.86088,0.06123
2869.93216,0.06028
2868.00344,0.05895
2866.07472,0.05740
2864.14601,0.05583
2862.21729,0.05447
2860.28857,0.05347
2858.35985,0.05295
2856.43114,0.05331
2854.50242,0.05564
2852.57370,0.06130
2850.64498,0.07027
2848.71626,0.07936
2846.78755,0.08425
2844.85883,0.08409
2842.93011,0.08149
2841.00139,0.07871
2839.07267,0.07632
2837.14396,0.07428
2835.21524,0.07260
2833.28652,0.07139
2831.35780,0.07058
2829.42909,0.06993
2827.50037,0.06931
2825.57165,0.06867
2823.64293,0.06814
2821.71421,0.06785
2819.78550,0.06774
2817.85678,0.06759
2815.92806,0.06727
2813.99934,0.06691
2812.07062,0.06677
2810.14191,0.06675
2808.21319,0.06667
2806.28447,0.06661
2804.35575,0.06668
2802.42704,0.06677
2800.49832,0.06673
2798.56960,0.06668
2796.64088,0.06676
2794.71216,0.06702
2792.78345,0.06740
2790.85473,0.06777
2788.92601,0.06799
2786.99729,0.06806
2785.06857,0.06817
2783.13986,0.06851
2781.21114,0.06913
2779.28242,0.06978
2777.35370,0.07031
2775.42499,0.07071
2773.49627,0.07092
2771.56755,0.07104
2769.63883,0.07129
2767.71011,0.07152
2765.78140,0.07159
2763.85268,0.07174
2761.92396,0.07209
2759.99524,0.07247
2758.06652,0.07267
2756.13781,0.07279
2754.20909,0.07309
2752.28037,0.07344
2750.35165,0.07364
2748.42294,0.07371
2746.49422,0.07356
2744.56550,0.07316
2742.63678,0.07280
2740.70806,0.07262
2738.77935,0.07254
2736.85063,0.07260
2734.92191,0.07272
2732.99319,0.07277
2731.06448,0.07299
2729.13576,0.07337
2727.20704,0.07368
2725.27832,0.07390
2723.34960,0.07400
2721.42089,0.07394
2719.49217,0.07392
2717.56345,0.07403
2715.63473,0.07414
2713.70601,0.07415
2711.77730,0.07401
2709.84858,0.07384
2707.91986,0.07397
2705.99114,0.07436
2704.06243,0.07467
2702.13371,0.07493
2700.20499,0.07532
2698.27627,0.07578
2696.34755,0.07608
2694.41884,0.07595
2692.49012,0.07553
2690.56140,0.07513
2688.63268,0.07472
2686.70396,0.07413
2684.77525,0.07358
2682.84653,0.07327
2680.91781,0.07291
2678.98909,0.07243
2677.06038,0.07230
2675.13166,0.07266
2673.20294,0.07297
2671.27422,0.07295
2669.34550,0.07283
2667.41679,0.07282
2665.48807,0.07275
2663.55935,0.07251
2661.63063,0.07231
2659.70191,0.07223
2657.77320,0.07220
2655.84448,0.07219
2653.91576,0.07213
2651.98704,0.07203
2650.05833,0.07205
2648.12961,0.07223
2646.20089,0.07243
2644.27217,0.07253
2642.34345,0.07265
2640.41474,0.07278
2638.48602,0.07290
2636.55730,0.07316
2634.62858,0.07343
2632.69986,0.07366
2630.77115,0.07400
2628.84243,0.07440
2626.91371,0.07479
2624.98499,0.07507
2623.05628,0.07513
2621.12756,0.07509
2619.19884,0.07521
2617.27012,0.07566
2615.34140,0.07635
2613.41269,0.07698
2611.48397,0.07753
2609.55525,0.07813
2607.62653,0.07877
2605.69781,0.07949
2603.76910,0.08025
2601.84038,0.08078
2599.91166,0.08102
2597.98294,0.08114
2596.05423,0.08125
2594.12551,0.08134
2592.19679,0.08132
2590.26807,0.08131
2588.33935,0.08158
2586.41064,0.08208
2584.48192,0.08259
2582.55320,0.08314
2580.62448,0.08377
2578.69576,0.08444
2576.76705,0.08515
2574.83833,0.08595
2572.90961,0.08679
2570.98089,0.08745
2569.05218,0.08781
2567.12346,0.08788
2565.19474,0.08779
2563.26602,0.08766
2561.33730,0.08753
2559.40859,0.08736
2557.47987,0.08715
2555.55115,0.08700
2553.62243,0.08706
2551.69372,0.08731
2549.76500,0.08761
2547.83628,0.08803
2545.90756,0.08870
2543.97884,0.08952
2542.05013,0.09032
2540.12141,0.09100
2538.19269,0.09143
2536.26397,0.09161
2534.33525,0.09158
2532.40654,0.09122
2530.47782,0.09076
2528.54910,0.09045
2526.62038,0.09009
2524.69167,0.08971
2522.76295,0.08964
2520.83423,0.09001
2518.90551,0.09059
2516.97679,0.09119
2515.04808,0.09186
2513.11936,0.09247
2511.19064,0.09286
2509.26192,0.09339
2507.33320,0.09412
2505.40449,0.09455
2503.47577,0.09480
2501.54705,0.09515
2499.61833,0.09528
2497.68962,0.09496
2495.76090,0.09452
2493.83218,0.09410
2491.90346,0.09372
2489.97474,0.09357
2488.04603,0.09364
2486.11731,0.09372
2484.18859,0.09387
2482.25987,0.09419
2480.33115,0.09467
2478.40244,0.09511
2476.47372,0.09535
2474.54500,0.09561
2472.61628,0.09611
2470.68757,0.09676
2468.75885,0.09723
2466.83013,0.09741
2464.90141,0.09738
2462.97269,0.09710
2461.04398,0.09666
2459.11526,0.09620
2457.18654,0.09586
2455.25782,0.09571
2453.32910,0.09579
2451.40039,0.09604
2449.47167,0.09634
2447.54295,0.09655
2445.61423,0.09668
2443.68552,0.09693
2441.75680,0.09729
2439.82808,0.09761
2437.89936,0.09786
2435.97064,0.09797
2434.04193,0.09779
2432.11321,0.09736
2430.18449,0.09679
2428.25577,0.09611
2426.32705,0.09536
2424.39834,0.09466
2422.46962,0.09418
2420.54090,0.09390
2418.61218,0.09360
2416.68347,0.09341
2414.75475,0.09361
2412.82603,0.09413
2410.89731,0.09475
2408.96859,0.09545
2407.03988,0.09612
2405.11116,0.09661
2403.18244,0.09693
2401.25372,0.09702
2399.32500,0.09685
2397.39629,0.09655
2395.46757,0.09614
2393.53885,0.09572
2391.61013,0.09537
2389.68142,0.09488
2387.75270,0.09437
2385.82398,0.09435
2383.89526,0.09478
2381.96654,0.09518
2380.03783,0.09537
2378.10911,0.09541
2376.18039,0.09559
2374.25167,0.09598
2372.32296,0.09630
2370.39424,0.09629
2368.46552,0.09596
2366.53680,0.09551
2364.60808,0.09510
2362.67937,0.09469
2360.75065,0.09397
2358.82193,0.09281
2356.89321,0.09156
2354.96449,0.09051
2353.03578,0.08982
2351.10706,0.08948
2349.17834,0.08922
2347.24962,0.08894
2345.32091,0.08887
2343.39219,0.08915
2341.46347,0.08955
2339.53475,0.08980
2337.60603,0.08985
2335.67732,0.08976
2333.74860,0.08964
2331.81988,0.08968
2329.89116,0.08984
2327.96244,0.08975
2326.03373,0.08950
2324.10501,0.08948
2322.17629,0.08955
2320.24757,0.08953
2318.31886,0.08961
2316.39014,0.08997
2314.46142,0.09058
2312.53270,0.09122
2310.60398,0.09174
2308.67527,0.09223
2306.74655,0.09281
2304.81783,0.09347
2302.88911,0.09409
2300.96039,0.09452
2299.03168,0.09462
2297.10296,0.09449
2295.17424,0.09435
2293.24552,0.09424
2291.31681,0.09412
2289.38809,0.09401
2287.45937,0.09388
2285.53065,0.09364
2283.60193,0.09337
2281.67322,0.09321
2279.74450,0.09324
2277.81578,0.09349
2275.88706,0.09391
2273.95834,0.09445
2272.02963,0.09517
2270.10091,0.09609
2268.17219,0.09696
2266.24347,0.09749
2264.31476,0.09769
2262.38604,0.09764
2260.45732,0.09736
2258.52860,0.09703
2256.59988,0.09672
2254.67117,0.09629
2252.74245,0.09580
2250.81373,0.09537
2248.88501,0.09500
2246.95629,0.09485
2245.02758,0.09498
2243.09886,0.09527
2241.17014,0.09580
2239.24142,0.09665
2237.31271,0.09751
2235.38399,0.09811
2233.45527,0.09855
2231.52655,0.09898
2229.59783,0.09923
2227.66912,0.09900
2225.74040,0.09846
2223.81168,0.09794
2221.88296,0.09756
2219.95424,0.09731
2218.02553,0.09711
2216.09681,0.09698
2214.16809,0.09694
2212.23937,0.09689
2210.31066,0.09691
2208.38194,0.09716
2206.45322,0.09749
2204.52450,0.09785
2202.59578,0.09834
2200.66707,0.09890
2198.73835,0.09927
2196.80963,0.09934
2194.88091,0.09913
2192.95220,0.09881
2191.02348,0.09857
2189.09476,0.09835
2187.16604,0.09795
2185.23732,0.09749
2183.30861,0.09721
2181.37989,0.09707
2179.45117,0.09687
2177.52245,0.09668
2175.59373,0.09668
2173.66502,0.09683
2171.73630,0.09699
2169.80758,0.09725
2167.87886,0.09774
2165.95015,0.09820
2164.02143,0.09843
2162.09271,0.09851
2160.16399,0.09839
2158.23527,0.09802
2156.30656,0.09754
2154.37784,0.09697
2152.44912,0.09643
2150.52040,0.09606
2148.59168,0.09577
2146.66297,0.09552
2144.73425,0.09550
2142.80553,0.09579
2140.87681,0.09617
2138.94810,0.09648
2137.01938,0.09691
2135.09066,0.09762
2133.16194,0.09848
2131.23322,0.09916
2129.30451,0.09950
2127.37579,0.09965
2125.44707,0.09981
2123.51835,0.09995
2121.58963,0.09990
2119.66092,0.09960
2117.73220,0.09912
2115.80348,0.09864
2113.87476,0.09828
2111.94605,0.09806
2110.01733,0.09800
2108.08861,0.09805
2106.15989,0.09806
2104.23117,0.09813
2102.30246,0.09848
2100.37374,0.09907
2098.44502,0.09961
2096.51630,0.09989
2094.58758,0.09995
2092.65887,0.09985
2090.73015,0.09961
2088.80143,0.09932
2086.87271,0.09898
2084.94400,0.09857
2083.01528,0.09820
2081.08656,0.09785
2079.15784,0.09749
2077.22912,0.09729
2075.30041,0.09726
2073.37169,0.09726
2071.44297,0.09726
2069.51425,0.09742
2067.58553,0.09775
2065.65682,0.09794
2063.72810,0.09785
2061.79938,0.09776
2059.87066,0.09782
2057.94195,0.09782
2056.01323,0.09775
2054.08451,0.09760
2052.15579,0.09725
2050.22707,0.09677
2048.29836,0.09621
2046.36964,0.09557
2044.44092,0.09499
2042.51220,0.09456
2040.58348,0.09434
2038.65477,0.09426
2036.72605,0.09416
2034.79733,0.09405
2032.86861,0.09402
2030.93990,0.09391
2029.01118,0.09363
2027.08246,0.09346
2025.15374,0.09343
2023.22502,0.09319
2021.29631,0.09274
2019.36759,0.09234
2017.43887,0.09223
2015.51015,0.09257
2013.58143,0.09333
2011.65272,0.09425
2009.72400,0.09500
2007.79528,0.09556
2005.86656,0.09612
2003.93785,0.09672
2002.00913,0.09724
2000.08041,0.09770
1998.15169,0.09811
1996.22297,0.09852
1994.29426,0.09891
1992.36554,0.09926
1990.43682,0.09944
1988.50810,0.09944
1986.57939,0.09939
1984.65067,0.09933
1982.72195,0.09913
1980.79323,0.09884
1978.86451,0.09863
1976.93580,0.09849
1975.00708,0.09839
1973.07836,0.09831
1971.14964,0.09822
1969.22092,0.09816
1967.29221,0.09817
1965.36349,0.09831
1963.43477,0.09856
1961.50605,0.09880
1959.57734,0.09888
1957.64862,0.09879
1955.71990,0.09874
1953.79118,0.09873
1951.86246,0.09859
1949.93375,0.09842
1948.00503,0.09831
1946.07631,0.09817
1944.14759,0.09798
1942.21887,0.09778
1940.29016,0.09764
1938.36144,0.09758
1936.43272,0.09753
1934.50400,0.09756
1932.57529,0.09768
1930.64657,0.09775
1928.71785,0.09780
1926.78913,0.09798
1924.86041,0.09810
1922.93170,0.09800
1921.00298,0.09787
1919.07426,0.09770
1917.14554,0.09743
1915.21682,0.09723
1913.28811,0.09698
1911.35939,0.09656
1909.43067,0.09613
1907.50195,0.09575
1905.57324,0.09541
1903.64452,0.09504
1901.71580,0.09460
1899.78708,0.09424
1897.85836,0.09418
1895.92965,0.09437
1894.00093,0.09484
1892.07221,0.09567
1890.14349,0.09667
1888.21477,0.09732
1886.28606,0.09749
1884.35734,0.09761
1882.42862,0.09788
1880.49990,0.09810
1878.57119,0.09819
1876.64247,0.09824
1874.71375,0.09825
1872.78503,0.09826
1870.85631,0.09825
1868.92760,0.09817
1866.99888,0.09830
1865.07016,0.09871
1863.14144,0.09914
1861.21272,0.09937
1859.28401,0.09934
1857.35529,0.09923
1855.42657,0.09925
1853.49785,0.09932
1851.56914,0.09928
1849.64042,0.09920
1847.71170,0.09911
1845.78298,0.09895
1843.85426,0.09861
1841.92555,0.09836
1839.99683,0.09845
1838.06811,0.09863
1836.13939,0.09869
1834.21067,0.09882
1832.28196,0.09897
1830.35324,0.09881
1828.42452,0.09851
1826.49580,0.09838
1824.56709,0.09824
1822.63837,0.09809
1820.70965,0.09797
1818.78093,0.09775
1816.85221,0.09743
1814.92350,0.09710
1812.99478,0.09682
1811.06606,0.09665
1809.13734,0.09674
1807.20863,0.09709
1805.27991,0.09750
1803.35119,0.09773
1801.42247,0.09767
1799.49375,0.09764
1797.56504,0.09777
1795.63632,0.09778
1793.70760,0.09783
1791.77888,0.09816
1789.85016,0.09828
1787.92145,0.09803
1785.99273,0.09768
1784.06401,0.09730
1782.13529,0.09689
1780.20658,0.09646
1778.27786,0.09623
1776.34914,0.09626
1774.42042,0.09622
1772.49170,0.09570
1770.56299,0.09516
1768.63427,0.09506
1766.70555,0.09517
1764.77683,0.09537
1762.84811,0.09549
1760.91940,0.09526
1758.99068,0.09479
1757.06196,0.09419
1755.13324,0.09356
1753.20453,0.09286
1751.27581,0.09191
1749.34709,0.09096
1747.41837,0.09029
1745.48965,0.08972
1743.56094,0.08929
1741.63222,0.08922
1739.70350,0.08961
1737.77478,0.09039
1735.84606,0.09124
1733.91735,0.09206
1731.98863,0.09280
1730.05991,0.09332
1728.13119,0.09359
1726.20248,0.09357
1724.27376,0.09334
1722.34504,0.09323
1720.41632,0.09326
1718.48760,0.09297
1716.55889,0.09217
1714.63017,0.09157
1712.70145,0.09146
1710.77273,0.09168
1708.84401,0.09199
1706.91530,0.09225
1704.98658,0.09256
1703.05786,0.09303
1701.12914,0.09316
1699.20043,0.09273
1697.27171,0.09309
1695.34299,0.09430
1693.41427,0.09522
1691.48555,0.09568
1689.55684,0.09589
1687.62812,0.09593
1685.69940,0.09589
1683.77068,0.09570
1681.84196,0.09522
1679.91325,0.09464
1677.98453,0.09397
1676.05581,0.09315
1674.12709,0.09261
1672.19838,0.09252
1670.26966,0.09234
1668.34094,0.09217
1666.41222,0.09248
1664.48350,0.09292
1662.55479,0.09339
1660.62607,0.09405
1658.69735,0.09468
1656.76863,0.09510
1654.83991,0.09525
1652.91120,0.09504
1650.98248,0.09472
1649.05376,0.09427
1647.12504,0.09331
1645.19633,0.09213
1643.26761,0.09133
1641.33889,0.09068
1639.41017,0.09020
1637.48145,0.08987
1635.55274,0.08952
1633.62402,0.08971
1631.69530,0.09039
1629.76658,0.09116
1627.83787,0.09189
1625.90915,0.09249
1623.98043,0.09310
1622.05171,0.09369
1620.12299,0.09405
1618.19428,0.09420
1616.26556,0.09408
1614.33684,0.09357
1612.40812,0.09287
1610.47940,0.09210
1608.55069,0.09122
1606.62197,0.09029
1604.69325,0.08954
1602.76453,0.08913
1600.83582,0.08897
1598.90710,0.08898
1596.97838,0.08934
1595.04966,0.09017
1593.12094,0.09114
1591.19223,0.09192
1589.26351,0.09248
1587.33479,0.09292
1585.40607,0.09318
1583.47735,0.09315
1581.54864,0.09281
1579.61992,0.09231
1577.69120,0.09147
1575.76248,0.09001
1573.83377,0.08884
1571.90505,0.08823
1569.97633,0.08762
1568.04761,0.08717
1566.11889,0.08713
1564.19018,0.08738
1562.26146,0.08788
1560.33274,0.08846
1558.40402,0.08907
1556.47530,0.09008
1554.54659,0.09121
1552.61787,0.09204
1550.68915,0.09230
1548.76043,0.09200
1546.83172,0.09122
1544.90300,0.08991
1542.97428,0.08824
1541.04556,0.08641
1539.11684,0.08470
1537.18813,0.08411
1535.25941,0.08390
1533.33069,0.08365
1531.40197,0.08388
1529.47325,0.08465
1527.54454,0.08555
1525.61582,0.08641
1523.68710,0.08727
1521.75838,0.08792
1519.82967,0.08801
1517.90095,0.08764
1515.97223,0.08672
1514.04351,0.08528
1512.11479,0.08370
1510.18608,0.08222
1508.25736,0.08016
1506.32864,0.07687
1504.39992,0.07559
1502.47120,0.07578
1500.54249,0.07616
1498.61377,0.07645
1496.68505,0.07648
1494.75633,0.07624
1492.82762,0.07570
1490.89890,0.07442
1488.97018,0.07177
1487.04146,0.06822
1485.11274,0.06478
1483.18403,0.06184
1481.25531,0.05942
1479.32659,0.05716
1477.39787,0.05456
1475.46915,0.05249
1473.54044,0.05291
1471.61172,0.05473
1469.68300,0.05532
1467.75428,0.05546
1465.82557,0.05636
1463.89685,0.05847
1461.96813,0.06056
1460.03941,0.06151
1458.11069,0.06117
1456.18198,0.06056
1454.25326,0.06066
1452.32454,0.06083
1450.39582,0.06085
1448.46711,0.06055
1446.53839,0.06001
1444.60967,0.05964
1442.68095,0.05958
1440.75223,0.05981
1438.82352,0.06033
1436.89480,0.06116
1434.96608,0.06257
1433.03736,0.06477
1431.10864,0.06807
1429.17993,0.07229
1427.25121,0.07592
1425.32249,0.07827
1423.39377,0.07958
1421.46506,0.07996
1419.53634,0.07918
1417.60762,0.07788
1415.67890,0.07749
1413.75018,0.07794
1411.82147,0.07904
1409.89275,0.08079
1407.96403,0.08300
1406.03531,0.08541
1404.10659,0.08768
1402.17788,0.08928
1400.24916,0.09013
1398.32044,0.09017
1396.39172,0.08926
1394.46301,0.08723
1392.53429,0.08444
1390.60557,0.08147
1388.67685,0.07818
1386.74813,0.07464
1384.81942,0.07144
1382.89070,0.06827
1380.96198,0.06495
1379.03326,0.06277
1377.10454,0.06291
1375.17583,0.06476
1373.24711,0.06632
1371.31839,0.06673
1369.38967,0.06686
1367.46096,0.06742
1365.53224,0.06846
1363.60352,0.06971
1361.67480,0.07083
1359.74608,0.07114
1357.81737,0.07040
1355.88865,0.06887
1353.95993,0.06721
1352.03121,0.06606
1350.10249,0.06555
1348.17378,0.06563
1346.24506,0.06639
1344.31634,0.06789
1342.38762,0.06993
1340.45891,0.07259
1338.53019,0.07616
1336.60147,0.07998
1334.67275,0.08324
1332.74403,0.08564
1330.81532,0.08700
1328.88660,0.08715
1326.95788,0.08601
1325.02916,0.08381
1323.10044,0.08094
1321.17173,0.07765
1319.24301,0.07423
1317.31429,0.07135
1315.38557,0.06941
1313.45686,0.06825
1311.52814,0.06775
1309.59942,0.06788
1307.67070,0.06877
1305.74198,0.07056
1303.81327,0.07282
1301.88455,0.07495
1299.95583,0.07689
1298.02711,0.07882
1296.09839,0.08054
1294.16968,0.08168
1292.24096,0.08206
1290.31224,0.08163
1288.38352,0.08039
1286.45481,0.07866
1284.52609,0.07683
1282.59737,0.07499
1280.66865,0.07326
1278.73993,0.07212
1276.81122,0.07198
1274.88250,0.07283
1272.95378,0.07452
1271.02506,0.07701
1269.09635,0.08010
1267.16763,0.08342
1265.23891,0.08644
1263.31019,0.08895
1261.38147,0.09094
1259.45276,0.09203
1257.52404,0.09196
1255.59532,0.09082
1253.66660,0.08883
1251.73788,0.08618
1249.80917,0.08302
1247.88045,0.07997
1245.95173,0.07780
1244.02301,0.07678
1242.09430,0.07674
1240.16558,0.07754
1238.23686,0.07943
1236.30814,0.08233
1234.37942,0.08564
1232.45071,0.08897
1230.52199,0.09216
1228.59327,0.09486
1226.66455,0.09670
1224.73583,0.09748
1222.80712,0.09699
1220.87840,0.09518
1218.94968,0.09244
1217.02096,0.08914
1215.09225,0.08551
1213.16353,0.08192
1211.23481,0.07902
1209.30609,0.07734
1207.37737,0.07688
1205.44866,0.07758
1203.51994,0.07947
1201.59122,0.08236
1199.66250,0.08589
1197.73378,0.08966
1195.80507,0.09313
1193.87635,0.09598
1191.94763,0.09807
1190.01891,0.09899
1188.09020,0.09835
1186.16148,0.09618
1184.23276,0.09294
1182.30404,0.08901
1180.37532,0.08453
1178.44661,0.08021
1176.51789,0.07715
1174.58917,0.07545
1172.66045,0.07485
1170.73173,0.07544
1168.80302,0.07729
1166.87430,0.08030
1164.94558,0.08420
1163.01686,0.08834
1161.08815,0.09233
1159.15943,0.09589
1157.23071,0.09848
1155.30199,0.09962
1153.37327,0.09909
1151.44456,0.09707
1149.51584,0.09396
1147.58712,0.09013
1145.65840,0.08596
1143.72968,0.08197
1141.80097,0.07859
1139.87225,0.07611
1137.94353,0.07475
1136.01481,0.07483
1134.08610,0.07665
1132.15738,0.08015
1130.22866,0.08475
1128.29994,0.08970
1126.37122,0.09437
1124.44251,0.09851
1122.51379,0.10176
1120.58507,0.10356
1118.65635,0.10377
1116.72763,0.10233
1114.79892,0.09917
1112.87020,0.09484
1110.94148,0.09008
1109.01276,0.08519
1107.08405,0.08066
1105.15533,0.07735
1103.22661,0.07552
1101.29789,0.07516
1099.36917,0.07676
1097.44046,0.08008
1095.51174,0.08428
1093.58302,0.08882
1091.65430,0.09312
1089.72559,0.09677
1087.79687,0.09969
1085.86815,0.10150
1083.93943,0.10169
1082.01071,0.10026
1080.08200,0.09753
1078.15328,0.09388
1076.22456,0.08972
1074.29584,0.08541
1072.36712,0.08130
1070.43841,0.07775
1068.50969,0.07535
1066.58097,0.07451
1064.65225,0.07546
1062.72354,0.07848
1060.79482,0.08322
1058.86610,0.08889
1056.93738,0.09467
1055.00866,0.09977
1053.07995,0.10390
1051.15123,0.10684
1049.22251,0.10822
1047.29379,0.10791
1045.36507,0.10594
1043.43636,0.10220
1041.50764,0.09698
1039.57892,0.09128
1037.65020,0.08588
1035.72149,0.08110
1033.79277,0.07753
1031.86405,0.07585
1029.93533,0.07629
1028.00661,0.07877
1026.07790,0.08292
1024.14918,0.08795
1022.22046,0.09311
1020.29174,0.09802
1018.36302,0.10264
1016.43431,0.10680
1014.50559,0.10995
1012.57687,0.11164
1010.64815,0.11146
1008.71944,0.10892
1006.79072,0.10432
1004.86200,0.09842
1002.93328,0.09187
1001.00456,0.08550
999.07585,0.08022
997.14713,0.07684
995.21841,0.07602
993.28969,0.07780
991.36097,0.08156
989.43226,0.08688
987.50354,0.09356
985.57482,0.10079
983.64610,0.10739
981.71739,0.11243
979.78867,0.11520
977.85995,0.11551
975.93123,0.11357
974.00251,0.10963
972.07380,0.10398
970.14508,0.09700
968.21636,0.08950
966.28764,0.08246
964.35892,0.07667
962.43021,0.07290
960.50149,0.07171
958.57277,0.07304
956.64405,0.07663
954.71534,0.08221
952.78662,0.08919
950.85790,0.09679
948.92918,0.10438
947.00046,0.11111
945.07175,0.11584
943.14303,0.11775
941.21431,0.11683
939.28559,0.11343
937.35687,0.10779
935.42816,0.10033
933.49944,0.09202
931.57072,0.08409
929.64200,0.07754
927.71329,0.07280
925.78457,0.07026
923.85585,0.07047
921.92713,0.07370
919.99841,0.07952
918.06970,0.08708
916.14098,0.09541
914.21226,0.10352
912.28354,0.11034
910.35483,0.11509
908.42611,0.11744
906.49739,0.11722
904.56867,0.11453
902.63995,0.10958
900.71124,0.10253
898.78252,0.09392
896.85380,0.08498
894.92508,0.07706
892.99636,0.07113
891.06765,0.06783
889.13893,0.06742
887.21021,0.07012
885.28149,0.07572
883.35278,0.08339
881.42406,0.09239
879.49534,0.10191
877.56662,0.11038
875.63790,0.11652
873.70919,0.12001
871.78047,0.12064
869.85175,0.11827
867.92303,0.11316
865.99431,0.10565
864.06560,0.09625
862.13688,0.08619
860.20816,0.07722
858.27944,0.07065
856.35073,0.06684
854.42201,0.06591
852.49329,0.06802
850.56457,0.07316
848.63585,0.08099
846.70714,0.09051
844.77842,0.10046
842.84970,0.10975
840.92098,0.11717
838.99226,0.12176
837.06355,0.12283
835.13483,0.12007
833.20611,0.11418
831.27739,0.10624
829.34868,0.09694
827.41996,0.08698
825.49124,0.07753
823.56252,0.06999
821.63380,0.06525
819.70509,0.06359
817.77637,0.06550
815.84765,0.07110
813.91893,0.07927
811.99021,0.08876
810.06150,0.09865
808.13278,0.10760
806.20406,0.11476
804.27534,0.11949
802.34663,0.12050
800.41791,0.11729
798.48919,0.11070
796.56047,0.10173
794.63175,0.09119
792.70304,0.08039
790.77432,0.07091
788.84560,0.06368
786.91688,0.05921
784.98816,0.05794
783.05945,0.05999
781.13073,0.06517
779.20201,0.07272
777.27329,0.08156
775.34458,0.09040
773.41586,0.09826
771.48714,0.10469
769.55842,0.10879
767.62970,0.10957
765.70099,0.10686
763.77227,0.10094
761.84355,0.09210
759.91483,0.08115
757.98611,0.06985
756.05740,0.06040
754.12868,0.05434
752.19996,0.05249
750.27124,0.05524
748.34253,0.06221
746.41381,0.07163
744.48509,0.08094
742.55637,0.08771
740.62765,0.08948
738.69894,0.08397
736.77022,0.07193
734.84150,0.05903
732.91278,0.05182
730.98407,0.05189
729.05535,0.05533
727.12663,0.05712
725.19791,0.05568
723.26919,0.05351
721.34048,0.05413
719.41176,0.05785
717.48304,0.06265
715.55432,0.06824
713.62560,0.07439
711.69689,0.07760
709.76817,0.07463
707.83945,0.06658
705.91073,0.05779
703.98202,0.05275
702.05330,0.05368
700.12458,0.06051
698.19586,0.07242
696.26714,0.08798
694.33843,0.10455
692.40971,0.11900
690.48099,0.12863
688.55227,0.13191
686.62355,0.12918
684.69484,0.12170
682.76612,0.11032
680.83740,0.09623
678.90868,0.08142
676.97997,0.06831
675.05125,0.05907
673.12253,0.05454
671.19381,0.05474
669.26509,0.06054
667.33638,0.07285
665.40766,0.08769
663.47894,0.10213
661.55022,0.11629
659.62150,0.12887
657.69279,0.13778
655.76407,0.14128
653.83535,0.13933
651.90663,0.13255
649.97792,0.12112
648.04920,0.10662
646.12048,0.09158
644.19176,0.07771
642.26304,0.06597
640.33433,0.05701
638.40561,0.05225
636.47689,0.05361
634.54817,0.06149
632.61945,0.07425
630.69074,0.08918
628.76202,0.10424
626.83330,0.11892
624.90458,0.13210
622.97587,0.14108
621.04715,0.14429
619.11843,0.14214
617.18971,0.13547
615.26099,0.12465
613.33228,0.11032
611.40356,0.09434
609.47484,0.07900
607.54612,0.06606
605.61740,0.05711
603.68869,0.05331
601.75997,0.05538
599.83125,0.06373
