7496.90619,0.93807
7494.97747,0.94180
7493.04876,0.93577
7491.12005,0.93050
7489.19134,0.93976
7487.26262,0.95669
7485.33391,0.96525
7483.40520,0.96335
7481.47648,0.95749
7479.54777,0.95616
7477.61906,0.96270
7475.69035,0.96948
7473.76163,0.97005
7471.83292,0.96614
7469.90421,0.95852
7467.97550,0.94961
7466.04678,0.95004
7464.11807,0.95770
7462.18936,0.95929
7460.26065,0.95647
7458.33193,0.95572
7456.40322,0.95487
7454.47451,0.95229
7452.54579,0.95127
7450.61708,0.95307
7448.68837,0.95780
7446.75966,0.96427
7444.83094,0.96265
7442.90223,0.95081
7440.97352,0.94362
7439.04481,0.94956
7437.11609,0.95681
7435.18738,0.95168
7433.25867,0.94166
7431.32996,0.93843
7429.40124,0.93908
7427.47253,0.93879
7425.54382,0.93959
7423.61510,0.94275
7421.68639,0.94641
7419.75768,0.94807
7417.82897,0.94498
7415.90025,0.94114
7413.97154,0.94379
7412.04283,0.94956
7410.11412,0.95122
7408.18540,0.95017
7406.25669,0.94717
7404.32798,0.94050
7402.39927,0.93692
7400.47055,0.94102
7398.54184,0.94537
7396.61313,0.94135
7394.68441,0.93305
7392.75570,0.93529
7390.82699,0.94718
7388.89828,0.95011
7386.96956,0.94145
7385.04085,0.93054
7383.11214,0.92072
7381.18343,0.91887
7379.25471,0.92346
7377.32600,0.92149
7375.39729,0.91938
7373.46857,0.93051
7371.53986,0.94297
7369.61115,0.94046
7367.68244,0.92803
7365.75372,0.92050
7363.82501,0.91892
7361.89630,0.92139
7359.96759,0.93089
7358.03887,0.93680
7356.11016,0.93017
7354.18145,0.92635
7352.25274,0.93284
7350.32402,0.93724
7348.39531,0.93395
7346.46660,0.92575
7344.53788,0.91569
7342.60917,0.90794
7340.68046,0.90944
7338.75175,0.92237
7336.82303,0.93409
7334.89432,0.93491
7332.96561,0.92759
7331.03690,0.91568
7329.10818,0.90820
7327.17947,0.91550
7325.25076,0.92708
7323.32205,0.93322
7321.39333,0.93805
7319.46462,0.93909
7317.53591,0.93417
7315.60719,0.92967
7313.67848,0.92629
7311.74977,0.92103
7309.82106,0.91842
7307.89234,0.92089
7305.96363,0.92711
7304.03492,0.93233
7302.10621,0.92921
7300.17749,0.92267
7298.24878,0.92218
7296.32007,0.92213
7294.39136,0.91914
7292.46264,0.92178
7290.53393,0.92617
7288.60522,0.92465
7286.67650,0.92136
7284.74779,0.91626
7282.81908,0.91244
7280.89037,0.91715
7278.96165,0.92035
7277.03294,0.91724
7275.10423,0.92013
7273.17552,0.92835
7271.24680,0.93209
7269.31809,0.93309
7267.38938,0.93398
7265.46066,0.93093
7263.53195,0.92469
7261.60324,0.92576
7259.67453,0.93814
7257.74581,0.94603
7255.81710,0.93693
7253.88839,0.92206
7251.95968,0.92003
7250.03096,0.92821
7248.10225,0.93041
7246.17354,0.92079
7244.24483,0.90434
7242.31611,0.89697
7240.38740,0.90851
7238.45869,0.92196
7236.52997,0.92060
7234.60126,0.90448
7232.67255,0.89320
7230.74384,0.90313
7228.81512,0.91760
7226.88641,0.92649
7224.95770,0.93286
7223.02899,0.92827
7221.10027,0.91405
7219.17156,0.90817
7217.24285,0.91608
7215.31414,0.92486
7213.38542,0.92688
7211.45671,0.93020
7209.52800,0.93758
7207.59928,0.93591
7205.67057,0.92245
7203.74186,0.91409
7201.81315,0.91878
7199.88443,0.92553
7197.95572,0.92499
7196.02701,0.92053
7194.09830,0.92048
7192.16958,0.92370
7190.24087,0.92398
7188.31216,0.92325
7186.38344,0.92344
7184.45473,0.91815
7182.52602,0.90963
7180.59731,0.91501
7178.66859,0.93282
7176.73988,0.94193
7174.81117,0.93674
7172.88246,0.92648
7170.95374,0.91717
7169.02503,0.91195
7167.09632,0.91274
7165.16761,0.91675
7163.23889,0.91824
7161.31018,0.91576
7159.38147,0.91683
7157.45275,0.92461
7155.52404,0.93483
7153.59533,0.94365
7151.66662,0.94592
7149.73790,0.94186
7147.80919,0.93672
7145.88048,0.93283
7143.95177,0.93085
7142.02305,0.92726
7140.09434,0.92151
7138.16563,0.92107
7136.23692,0.92668
7134.30820,0.93228
7132.37949,0.93660
7130.45078,0.94155
7128.52206,0.94613
7126.59335,0.94542
7124.66464,0.93818
7122.73593,0.93062
7120.80721,0.92336
7118.87850,0.91234
7116.94979,0.90839
7115.02108,0.91926
7113.09236,0.92940
7111.16365,0.93027
7109.23494,0.92850
7107.30623,0.92385
7105.37751,0.91929
7103.44880,0.92668
7101.52009,0.93778
7099.59137,0.93611
7097.66266,0.92377
7095.73395,0.91290
7093.80524,0.91242
7091.87652,0.92035
7089.94781,0.92832
7088.01910,0.93289
7086.09039,0.93547
7084.16167,0.93501
7082.23296,0.93258
7080.30425,0.93451
7078.37553,0.93657
7076.44682,0.93105
7074.51811,0.92391
7072.58940,0.92228
7070.66068,0.92524
7068.73197,0.92923
7066.80326,0.93200
7064.87455,0.93342
7062.94583,0.93453
7061.01712,0.93543
7059.08841,0.93531
7057.15970,0.93419
7055.23098,0.93205
7053.30227,0.92971
7051.37356,0.92857
7049.44484,0.92631
7047.51613,0.92098
7045.58742,0.91781
7043.65871,0.92209
7041.72999,0.92980
7039.80128,0.93371
7037.87257,0.93533
7035.94386,0.93985
7034.01514,0.94345
7032.08643,0.94304
7030.15772,0.94361
7028.22901,0.94550
7026.30029,0.94281
7024.37158,0.93395
7022.44287,0.92811
7020.51415,0.93105
7018.58544,0.93352
7016.65673,0.93105
7014.72802,0.92918
7012.79930,0.92783
7010.87059,0.92505
7008.94188,0.92479
7007.01317,0.92886
7005.08445,0.93129
7003.15574,0.92979
7001.22703,0.93040
6999.29832,0.93463
6997.36960,0.93698
6995.44089,0.93547
6993.51218,0.93436
6991.58346,0.93535
6989.65475,0.93612
6987.72604,0.93666
6985.79733,0.93616
6983.86861,0.93168
6981.93990,0.92751
6980.01119,0.93006
6978.08248,0.93635
6976.15376,0.93948
6974.22505,0.93598
6972.29634,0.92894
6970.36762,0.92686
6968.43891,0.93365
6966.51020,0.94100
6964.58149,0.93932
6962.65277,0.93537
6960.72406,0.93800
6958.79535,0.94329
6956.86664,0.94645
6954.93792,0.94560
6953.00921,0.94138
6951.08050,0.93696
6949.15179,0.93327
6947.22307,0.92867
6945.29436,0.92342
6943.36565,0.92375
6941.43693,0.93114
6939.50822,0.93827
6937.57951,0.94182
6935.65080,0.94239
6933.72208,0.94153
6931.79337,0.94227
6929.86466,0.94385
6927.93595,0.94584
6926.00723,0.94912
6924.07852,0.94745
6922.14981,0.93869
6920.22110,0.93151
6918.29238,0.92950
6916.36367,0.93024
6914.43496,0.93331
6912.50624,0.93700
6910.57753,0.93824
6908.64882,0.93846
6906.72011,0.94007
6904.79139,0.94083
6902.86268,0.94019
6900.93397,0.94218
6899.00526,0.94758
6897.07654,0.94943
6895.14783,0.94347
6893.21912,0.93893
6891.29040,0.94160
6889.36169,0.94230
6887.43298,0.93886
6885.50427,0.93861
6883.57555,0.94020
6881.64684,0.94236
6879.71813,0.94897
6877.78942,0.95506
6875.86070,0.95338
6873.93199,0.94626
6872.00328,0.94032
6870.07457,0.93969
6868.14585,0.94340
6866.21714,0.94615
6864.28843,0.94518
6862.35971,0.94509
6860.43100,0.94890
6858.50229,0.95184
6856.57358,0.95093
6854.64486,0.94960
6852.71615,0.94886
6850.78744,0.94496
6848.85873,0.94048
6846.93001,0.94212
6845.00130,0.94605
6843.07259,0.94605
6841.14388,0.94551
6839.21516,0.94586
6837.28645,0.94424
6835.35774,0.94112
6833.42902,0.93806
6831.50031,0.93897
6829.57160,0.94508
6827.64289,0.94813
6825.71417,0.94437
6823.78546,0.94175
6821.85675,0.94442
6819.92804,0.94640
6817.99932,0.94418
6816.07061,0.94310
6814.14190,0.94601
6812.21319,0.94784
6810.28447,0.94528
6808.35576,0.93999
6806.42705,0.93451
6804.49833,0.93223
6802.56962,0.93314
6800.64091,0.93302
6798.71220,0.93124
6796.78348,0.93126
6794.85477,0.93507
6792.92606,0.94059
6790.99735,0.94378
6789.06863,0.94215
6787.13992,0.93750
6785.21121,0.93510
6783.28249,0.93601
6781.35378,0.93717
6779.42507,0.93889
6777.49636,0.94123
6775.56764,0.94166
6773.63893,0.94096
6771.71022,0.94173
6769.78151,0.94396
6767.85279,0.94549
6765.92408,0.94570
6763.99537,0.94716
6762.06666,0.94851
6760.13794,0.94616
6758.20923,0.94260
6756.28052,0.93974
6754.35180,0.93582
6752.42309,0.93275
6750.49438,0.93455
6748.56567,0.93934
6746.63695,0.94151
6744.70824,0.94108
6742.77953,0.94110
6740.85082,0.94205
6738.92210,0.94455
6736.99339,0.94814
6735.06468,0.94961
6733.13597,0.94919
6731.20725,0.95030
6729.27854,0.95308
6727.34983,0.95635
6725.42111,0.95833
6723.49240,0.95725
6721.56369,0.95417
6719.63498,0.94939
6717.70626,0.94313
6715.77755,0.93855
6713.84884,0.93921
6711.92013,0.94435
6709.99141,0.94848
6708.06270,0.94904
6706.13399,0.94896
6704.20528,0.94927
6702.27656,0.94718
6700.34785,0.94256
6698.41914,0.93860
6696.49042,0.93736
6694.56171,0.93885
6692.63300,0.94076
6690.70429,0.94117
6688.77557,0.94173
6686.84686,0.94318
6684.91815,0.94570
6682.98944,0.95175
6681.06072,0.95739
6679.13201,0.95497
6677.20330,0.94884
6675.27458,0.94626
6673.34587,0.94470
6671.41716,0.94336
6669.48845,0.94470
6667.55973,0.94697
6665.63102,0.94760
6663.70231,0.94603
6661.77360,0.94542
6659.84488,0.94620
6657.91617,0.94224
6655.98746,0.93680
6654.05875,0.93956
6652.13003,0.94707
6650.20132,0.94943
6648.27261,0.94640
6646.34389,0.94532
6644.41518,0.94849
6642.48647,0.95125
6640.55776,0.95109
6638.62904,0.95012
6636.70033,0.95073
6634.77162,0.95038
6632.84291,0.94545
6630.91419,0.94092
6628.98548,0.94179
6627.05677,0.94361
6625.12806,0.94340
6623.19934,0.94372
6621.27063,0.94553
6619.34192,0.94882
6617.41320,0.95112
6615.48449,0.94986
6613.55578,0.94808
6611.62707,0.94649
6609.69835,0.94380
6607.76964,0.94373
6605.84093,0.94673
6603.91222,0.94941
6601.98350,0.95199
6600.05479,0.95333
6598.12608,0.95168
6596.19736,0.95045
6594.26865,0.95131
6592.33994,0.95113
6590.41123,0.94809
6588.48251,0.94463
6586.55380,0.94409
6584.62509,0.94632
6582.69638,0.94814
6580.76766,0.94811
6578.83895,0.94903
6576.91024,0.95253
6574.98153,0.95532
6573.05281,0.95363
6571.12410,0.94899
6569.19539,0.94723
6567.26667,0.94920
6565.33796,0.94970
6563.40925,0.94729
6561.48054,0.94541
6559.55182,0.94404
6557.62311,0.94202
6555.69440,0.94359
6553.76569,0.94816
6551.83697,0.94863
6549.90826,0.94537
6547.97955,0.94390
6546.05084,0.94495
6544.12212,0.94698
6542.19341,0.94865
6540.26470,0.94704
6538.33598,0.94402
6536.40727,0.94554
6534.47856,0.95000
6532.54985,0.95202
6530.62113,0.95208
6528.69242,0.95166
6526.76371,0.94870
6524.83500,0.94433
6522.90628,0.94195
6520.97757,0.94073
6519.04886,0.94005
6517.12015,0.94208
6515.19143,0.94580
6513.26272,0.94611
6511.33401,0.94361
6509.40529,0.94393
6507.47658,0.94576
6505.54787,0.94567
6503.61916,0.94623
6501.69044,0.94895
6499.76173,0.95026
6497.83302,0.94896
6495.90431,0.94797
6493.97559,0.94626
6492.04688,0.94172
6490.11817,0.93706
6488.18945,0.93502
6486.26074,0.93607
6484.33203,0.93964
6482.40332,0.94308
6480.47460,0.94465
6478.54589,0.94458
6476.61718,0.94304
6474.68847,0.94245
6472.75975,0.94342
6470.83104,0.94426
6468.90233,0.94665
6466.97362,0.94919
6465.04490,0.94876
6463.11619,0.94683
6461.18748,0.94440
6459.25876,0.94256
6457.33005,0.94326
6455.40134,0.94459
6453.47263,0.94360
6451.54391,0.94305
6449.61520,0.94567
6447.68649,0.94760
6445.75778,0.94731
6443.82906,0.94767
6441.90035,0.94742
6439.97164,0.94457
6438.04293,0.94119
6436.11421,0.93931
6434.18550,0.94029
6432.25679,0.94444
6430.32807,0.94819
6428.39936,0.94953
6426.47065,0.95064
6424.54194,0.95018
6422.61322,0.94567
6420.68451,0.94149
6418.75580,0.94303
6416.82709,0.94865
6414.89837,0.95182
6412.96966,0.94899
6411.04095,0.94362
6409.11224,0.94015
6407.18352,0.93920
6405.25481,0.94121
6403.32610,0.94616
6401.39738,0.95068
6399.46867,0.95166
6397.53996,0.95012
6395.61125,0.94882
6393.68253,0.94830
6391.75382,0.94781
6389.82511,0.94720
6387.89640,0.94680
6385.96768,0.94922
6384.03897,0.95434
6382.11026,0.95619
6380.18154,0.95335
6378.25283,0.94987
6376.32412,0.94663
6374.39541,0.94502
6372.46669,0.94750
6370.53798,0.95042
6368.60927,0.94980
6366.68056,0.94779
6364.75184,0.94687
6362.82313,0.94780
6360.89442,0.95081
6358.96571,0.95384
6357.03699,0.95444
6355.10828,0.95295
6353.17957,0.95164
6351.25085,0.95218
6349.32214,0.95336
6347.39343,0.95207
6345.46472,0.94913
6343.53600,0.94835
6341.60729,0.94852
6339.67858,0.94702
6337.74987,0.94569
6335.82115,0.94541
6333.89244,0.94622
6331.96373,0.94889
6330.03502,0.95034
6328.10630,0.94931
6326.17759,0.94905
6324.24888,0.94907
6322.32016,0.94738
6320.39145,0.94493
6318.46274,0.94354
6316.53403,0.94466
6314.60531,0.94604
6312.67660,0.94447
6310.74789,0.94308
6308.81918,0.94496
6306.89046,0.94643
6304.96175,0.94504
6303.03304,0.94430
6301.10432,0.94650
6299.17561,0.94947
6297.24690,0.95030
6295.31819,0.94908
6293.38947,0.94932
6291.46076,0.95087
6289.53205,0.94850
6287.60334,0.94328
6285.67462,0.94220
6283.74591,0.94492
6281.81720,0.94462
6279.88849,0.94203
6277.95977,0.94290
6276.03106,0.94622
6274.10235,0.94814
6272.17363,0.94807
6270.24492,0.94825
6268.31621,0.94954
6266.38750,0.94981
6264.45878,0.94907
6262.53007,0.94778
6260.60136,0.94588
6258.67265,0.94580
6256.74393,0.94791
6254.81522,0.94968
6252.88651,0.95007
6250.95780,0.94962
6249.02908,0.94893
6247.10037,0.94884
6245.17166,0.94832
6243.24294,0.94613
6241.31423,0.94484
6239.38552,0.94609
6237.45681,0.94858
6235.52809,0.95050
6233.59938,0.95001
6231.67067,0.94750
6229.74196,0.94550
6227.81324,0.94478
6225.88453,0.94279
6223.95582,0.94019
6222.02711,0.94156
6220.09839,0.94634
6218.16968,0.94985
6216.24097,0.95046
6214.31225,0.94992
6212.38354,0.94944
6210.45483,0.94818
6208.52612,0.94553
6206.59740,0.94205
6204.66869,0.94015
6202.73998,0.94222
6200.81127,0.94601
6198.88255,0.94739
6196.95384,0.94663
6195.02513,0.94625
6193.09641,0.94619
6191.16770,0.94656
6189.23899,0.94804
6187.31028,0.94900
6185.38156,0.94820
6183.45285,0.94666
6181.52414,0.94657
6179.59543,0.94792
6177.66671,0.94800
6175.73800,0.94699
6173.80929,0.94674
6171.88058,0.94715
6169.95186,0.94733
6168.02315,0.94719
6166.09444,0.94752
6164.16572,0.94666
6162.23701,0.94373
6160.30830,0.94217
6158.37959,0.94260
6156.45087,0.94270
6154.52216,0.94249
6152.59345,0.94281
6150.66474,0.94368
6148.73602,0.94489
6146.80731,0.94592
6144.87860,0.94639
6142.94989,0.94614
6141.02117,0.94469
6139.09246,0.94288
6137.16375,0.94264
6135.23503,0.94371
6133.30632,0.94364
6131.37761,0.94093
6129.44890,0.93785
6127.52018,0.93704
6125.59147,0.93796
6123.66276,0.93995
6121.73405,0.94223
6119.80533,0.94355
6117.87662,0.94461
6115.94791,0.94552
6114.01919,0.94536
6112.09048,0.94466
6110.16177,0.94377
6108.23306,0.94217
6106.30434,0.94066
6104.37563,0.94125
6102.44692,0.94320
6100.51821,0.94352
6098.58949,0.94281
6096.66078,0.94366
6094.73207,0.94387
6092.80336,0.94099
6090.87464,0.93821
6088.94593,0.93850
6087.01722,0.94095
6085.08850,0.94332
6083.15979,0.94444
6081.23108,0.94514
6079.30237,0.94527
6077.37365,0.94341
6075.44494,0.93991
6073.51623,0.93758
6071.58752,0.93905
6069.65880,0.94251
6067.73009,0.94422
6065.80138,0.94321
6063.87267,0.94012
6061.94395,0.93752
6060.01524,0.93740
6058.08653,0.93740
6056.15781,0.93680
6054.22910,0.93799
6052.30039,0.93996
6050.37168,0.94051
6048.44296,0.94041
6046.51425,0.94063
6044.58554,0.94070
6042.65683,0.94012
6040.72811,0.93922
6038.79940,0.93811
6036.87069,0.93730
6034.94198,0.93756
6033.01326,0.93774
6031.08455,0.93740
6029.15584,0.93850
6027.22712,0.94032
6025.29841,0.94037
6023.36970,0.94005
6021.44099,0.94102
6019.51227,0.94134
6017.58356,0.94052
6015.65485,0.94067
6013.72614,0.94097
6011.79742,0.93989
6009.86871,0.93974
6007.94000,0.94087
6006.01128,0.93997
6004.08257,0.93713
6002.15386,0.93553
6000.22515,0.93565
5998.29643,0.93613
5996.36772,0.93734
5994.43901,0.93935
5992.51030,0.94012
5990.58158,0.93853
5988.65287,0.93541
5986.72416,0.93248
5984.79545,0.93155
5982.86673,0.93264
5980.93802,0.93388
5979.00931,0.93463
5977.08059,0.93586
5975.15188,0.93726
5973.22317,0.93788
5971.29446,0.93758
5969.36574,0.93656
5967.43703,0.93535
5965.50832,0.93487
5963.57961,0.93411
5961.65089,0.93118
5959.72218,0.92868
5957.79347,0.92954
5955.86476,0.93126
5953.93604,0.93116
5952.00733,0.93017
5950.07862,0.93055
5948.14990,0.93272
5946.22119,0.93417
5944.29248,0.93364
5942.36377,0.93272
5940.43505,0.93274
5938.50634,0.93348
5936.57763,0.93343
5934.64892,0.93185
5932.72020,0.93038
5930.79149,0.93006
5928.86278,0.93065
5926.93407,0.93128
5925.00535,0.92951
5923.07664,0.92590
5921.14793,0.92477
5919.21921,0.92667
5917.29050,0.92790
5915.36179,0.92747
5913.43308,0.92737
5911.50436,0.92749
5909.57565,0.92709
5907.64694,0.92696
5905.71823,0.92725
5903.78951,0.92747
5901.86080,0.92707
5899.93209,0.92602
5898.00337,0.92523
5896.07466,0.92475
5894.14595,0.92413
5892.21724,0.92392
5890.28852,0.92396
5888.35981,0.92283
5886.43110,0.92009
5884.50239,0.91783
5882.57367,0.91794
5880.64496,0.91960
5878.71625,0.92116
5876.78754,0.92111
5874.85882,0.91912
5872.93011,0.91647
5871.00140,0.91365
5869.07268,0.91148
5867.14397,0.91031
5865.21526,0.90887
5863.28655,0.90710
5861.35783,0.90533
5859.42912,0.90324
5857.50041,0.90087
5855.57170,0.89885
5853.64298,0.89788
5851.71427,0.89692
5849.78556,0.89496
5847.85685,0.89278
5845.92813,0.89100
5843.99942,0.88948
5842.07071,0.88811
5840.14199,0.88684
5838.21328,0.88522
5836.28457,0.88274
5834.35586,0.88087
5832.42714,0.88046
5830.49843,0.87852
5828.56972,0.87382
5826.64101,0.87010
5824.71229,0.86882
5822.78358,0.86690
5820.85487,0.86301
5818.92615,0.85930
5816.99744,0.85727
5815.06873,0.85672
5813.14002,0.85629
5811.21130,0.85404
5809.28259,0.85026
5807.35388,0.84702
5805.42517,0.84500
5803.49645,0.84326
5801.56774,0.84160
5799.63903,0.83997
5797.71032,0.83725
5795.78160,0.83292
5793.85289,0.82687
5791.92418,0.81974
5789.99546,0.81348
5788.06675,0.80901
5786.13804,0.80546
5784.20933,0.80117
5782.28061,0.79522
5780.35190,0.78782
5778.42319,0.78067
5776.49448,0.77721
5774.56576,0.77872
5772.63705,0.78356
5770.70834,0.79032
5768.77963,0.79817
5766.85091,0.80709
5764.92220,0.81717
5762.99349,0.82623
5761.06477,0.83291
5759.13606,0.83903
5757.20735,0.84552
5755.27864,0.85190
5753.34992,0.85754
5751.42121,0.86145
5749.49250,0.86414
5747.56379,0.86689
5745.63507,0.87001
5743.70636,0.87352
5741.77765,0.87775
5739.84894,0.88241
5737.92022,0.88523
5735.99151,0.88536
5734.06280,0.88532
5732.13408,0.88648
5730.20537,0.88852
5728.27666,0.89132
5726.34795,0.89386
5724.41923,0.89567
5722.49052,0.89732
5720.56181,0.89822
5718.63310,0.89828
5716.70438,0.89850
5714.77567,0.89889
5712.84696,0.89935
5710.91824,0.89954
5708.98953,0.89792
5707.06082,0.89418
5705.13211,0.89077
5703.20339,0.89006
5701.27468,0.89143
5699.34597,0.89246
5697.41726,0.89122
5695.48854,0.88848
5693.55983,0.88682
5691.63112,0.88618
5689.70241,0.88442
5687.77369,0.88165
5685.84498,0.87949
5683.91627,0.87765
5681.98755,0.87538
5680.05884,0.87313
5678.13013,0.87063
5676.20142,0.86789
5674.27270,0.86598
5672.34399,0.86459
5670.41528,0.86281
5668.48657,0.86072
5666.55785,0.85873
5664.62914,0.85750
5662.70043,0.85774
5660.77172,0.85946
5658.84300,0.86253
5656.91429,0.86665
5654.98558,0.87101
5653.05686,0.87491
5651.12815,0.87869
5649.19944,0.88283
5647.27073,0.88626
5645.34201,0.88847
5643.41330,0.89001
5641.48459,0.89087
5639.55588,0.89175
5637.62716,0.89323
5635.69845,0.89509
5633.76974,0.89726
5631.84103,0.89875
5629.91231,0.89903
5627.98360,0.89924
5626.05489,0.89992
5624.12617,0.90059
5622.19746,0.90073
5620.26875,0.90077
5618.34004,0.90190
5616.41132,0.90336
5614.48261,0.90355
5612.55390,0.90240
5610.62519,0.90056
5608.69647,0.90031
5606.76776,0.90253
5604.83905,0.90445
5602.91033,0.90513
5600.98162,0.90499
5599.05291,0.90409
5597.12420,0.90415
5595.19548,0.90613
5593.26677,0.90915
5591.33806,0.91188
5589.40935,0.91210
5587.48063,0.90963
5585.55192,0.90764
5583.62321,0.90722
5581.69450,0.90682
5579.76578,0.90639
5577.83707,0.90581
5575.90836,0.90490
5573.97964,0.90473
5572.05093,0.90514
5570.12222,0.90470
5568.19351,0.90274
5566.26479,0.90047
5564.33608,0.90051
5562.40737,0.90295
5560.47866,0.90463
5558.54994,0.90462
5556.62123,0.90389
5554.69252,0.90219
5552.76381,0.90029
5550.83509,0.89960
5548.90638,0.89984
5546.97767,0.90009
5545.04895,0.90058
5543.12024,0.90209
5541.19153,0.90322
5539.26282,0.90118
5537.33410,0.89688
5535.40539,0.89579
5533.47668,0.89938
5531.54797,0.90270
5529.61925,0.90347
5527.69054,0.90323
5525.76183,0.90179
5523.83311,0.89853
5521.90440,0.89681
5519.97569,0.89832
5518.04698,0.89811
5516.11826,0.89615
5514.18955,0.89814
5512.26084,0.90107
5510.33213,0.89760
5508.40341,0.89066
5506.47470,0.88941
5504.54599,0.89379
5502.61728,0.89771
5500.68856,0.89866
5498.75985,0.89797
5496.83114,0.89526
5494.90242,0.88616
5492.97371,0.87577
5491.04500,0.87489
5489.11629,0.88049
5487.18757,0.88837
5485.25886,0.89833
5483.33015,0.90550
5481.40144,0.90694
5479.47272,0.90177
5477.54401,0.88917
5475.61530,0.87930
5473.68659,0.88463
5471.75787,0.89315
5469.82916,0.89231
5467.90045,0.88843
5465.97173,0.88740
5464.04302,0.88562
5462.11431,0.88250
5460.18560,0.88406
5458.25688,0.89093
5456.32817,0.89769
5454.39946,0.90192
5452.47075,0.90039
5450.54203,0.89205
5448.61332,0.88207
5446.68461,0.87466
5444.75590,0.87123
5442.82718,0.87133
5440.89847,0.87724
5438.96976,0.88749
5437.04104,0.88912
5435.11233,0.88254
5433.18362,0.87978
5431.25491,0.87566
5429.32619,0.86958
5427.39748,0.87680
5425.46877,0.89228
5423.54006,0.90250
5421.61134,0.90756
5419.68263,0.90920
5417.75392,0.90406
5415.82520,0.88938
5413.89649,0.87119
5411.96778,0.86246
5410.03907,0.86973
5408.11035,0.88686
5406.18164,0.89942
5404.25293,0.90281
5402.32422,0.90481
5400.39550,0.90615
5398.46679,0.90021
5396.53808,0.88782
5394.60937,0.88055
5392.68065,0.88854
5390.75194,0.90281
5388.82323,0.90617
5386.89451,0.89748
5384.96580,0.89351
5383.03709,0.90212
5381.10838,0.90943
5379.17966,0.90314
5377.25095,0.88878
5375.32224,0.88569
5373.39353,0.89766
5371.46481,0.90964
5369.53610,0.91404
5367.60739,0.91247
5365.67868,0.90683
5363.74996,0.90284
5361.82125,0.90646
5359.89254,0.91156
5357.96382,0.90866
5356.03511,0.89459
5354.10640,0.87966
5352.17769,0.88163
5350.24897,0.89189
5348.32026,0.89176
5346.39155,0.88049
5344.46284,0.87360
5342.53412,0.88016
5340.60541,0.88099
5338.67670,0.87147
5336.74799,0.87513
5334.81927,0.89052
5332.89056,0.89948
5330.96185,0.90051
5329.03313,0.89657
5327.10442,0.89515
5325.17571,0.90309
5323.24700,0.91182
5321.31828,0.91536
5319.38957,0.91618
5317.46086,0.91542
5315.53215,0.91526
5313.60343,0.91783
5311.67472,0.91872
5309.74601,0.91251
5307.81729,0.90544
5305.88858,0.90824
5303.95987,0.91519
5302.03116,0.91611
5300.10244,0.91387
5298.17373,0.91520
5296.24502,0.91843
5294.31631,0.91679
5292.38759,0.90793
5290.45888,0.90115
5288.53017,0.90420
5286.60146,0.90745
5284.67274,0.90603
5282.74403,0.90644
5280.81532,0.90963
5278.88660,0.91424
5276.95789,0.91947
5275.02918,0.92225
5273.10047,0.92050
5271.17175,0.91450
5269.24304,0.90734
5267.31433,0.90014
5265.38562,0.89071
5263.45690,0.88538
5261.52819,0.89331
5259.59948,0.90552
5257.67077,0.90714
5255.74205,0.89985
5253.81334,0.89907
5251.88463,0.90378
5249.95591,0.89893
5248.02720,0.88785
5246.09849,0.88387
5244.16978,0.89007
5242.24106,0.90312
5240.31235,0.91416
5238.38364,0.91764
5236.45493,0.91596
5234.52621,0.91084
5232.59750,0.90446
5230.66879,0.90228
5228.74007,0.90102
5226.81136,0.89384
5224.88265,0.89059
5222.95394,0.89943
5221.02522,0.90719
5219.09651,0.90797
5217.16780,0.90997
5215.23909,0.91542
5213.31037,0.91754
5211.38166,0.91087
5209.45295,0.89576
5207.52424,0.88274
5205.59552,0.88705
5203.66681,0.90421
5201.73810,0.91650
5199.80938,0.91633
5197.88067,0.91019
5195.95196,0.91057
5194.02325,0.91700
5192.09453,0.91872
5190.16582,0.91455
5188.23711,0.90992
5186.30840,0.90743
5184.37968,0.90929
5182.45097,0.91391
5180.52226,0.91587
5178.59355,0.91575
5176.66483,0.91737
5174.73612,0.91987
5172.80741,0.91945
5170.87869,0.91713
5168.94998,0.91777
5167.02127,0.91930
5165.09256,0.91768
5163.16384,0.91621
5161.23513,0.91678
5159.30642,0.91548
5157.37771,0.91225
5155.44899,0.91237
5153.52028,0.91623
5151.59157,0.91944
5149.66286,0.92151
5147.73414,0.92340
5145.80543,0.92384
5143.87672,0.92216
5141.94800,0.92060
5140.01929,0.92172
5138.09058,0.92400
5136.16187,0.92472
5134.23315,0.92415
5132.30444,0.92346
5130.37573,0.92349
5128.44702,0.92512
5126.51830,0.92758
5124.58959,0.92801
5122.66088,0.92542
5120.73216,0.92219
5118.80345,0.92126
5116.87474,0.92282
5114.94603,0.92403
5113.01731,0.92407
5111.08860,0.92432
5109.15989,0.92453
5107.23118,0.92471
5105.30246,0.92550
5103.37375,0.92616
5101.44504,0.92589
5099.51633,0.92484
5097.58761,0.92391
5095.65890,0.92366
5093.73019,0.92367
5091.80147,0.92404
5089.87276,0.92498
5087.94405,0.92576
5086.01534,0.92638
5084.08662,0.92718
5082.15791,0.92737
5080.22920,0.92666
5078.30049,0.92614
5076.37177,0.92665
5074.44306,0.92750
5072.51435,0.92733
5070.58564,0.92652
5068.65692,0.92677
5066.72821,0.92793
5064.79950,0.92813
5062.87078,0.92705
5060.94207,0.92600
5059.01336,0.92613
5057.08465,0.92726
5055.15593,0.92776
5053.22722,0.92670
5051.29851,0.92559
5049.36980,0.92578
5047.44108,0.92620
5045.51237,0.92585
5043.58366,0.92564
5041.65495,0.92606
5039.72623,0.92645
5037.79752,0.92648
5035.86881,0.92628
5033.94009,0.92600
5032.01138,0.92589
5030.08267,0.92606
5028.15396,0.92620
5026.22524,0.92566
5024.29653,0.92467
5022.36782,0.92456
5020.43911,0.92518
5018.51039,0.92532
5016.58168,0.92526
5014.65297,0.92544
5012.72425,0.92590
5010.79554,0.92646
5008.86683,0.92654
5006.93812,0.92650
5005.00940,0.92685
5003.08069,0.92706
5001.15198,0.92700
4999.22327,0.92666
4997.29455,0.92600
4995.36584,0.92555
4993.43713,0.92515
4991.50842,0.92395
4989.57970,0.92262
4987.65099,0.92238
4985.72228,0.92271
4983.79356,0.92256
4981.86485,0.92220
4979.93614,0.92237
4978.00743,0.92342
4976.07871,0.92511
4974.15000,0.92610
4972.22129,0.92563
4970.29258,0.92468
4968.36386,0.92410
4966.43515,0.92401
4964.50644,0.92418
4962.57773,0.92408
4960.64901,0.92351
4958.72030,0.92320
4956.79159,0.92394
4954.86287,0.92503
4952.93416,0.92550
4951.00545,0.92575
4949.07674,0.92605
4947.14802,0.92601
4945.21931,0.92600
4943.29060,0.92665
4941.36189,0.92731
4939.43317,0.92705
4937.50446,0.92615
4935.57575,0.92605
4933.64703,0.92768
4931.71832,0.92962
4929.78961,0.93025
4927.86090,0.92971
4925.93218,0.92855
4924.00347,0.92754
4922.07476,0.92750
4920.14605,0.92793
4918.21733,0.92818
4916.28862,0.92816
4914.35991,0.92769
4912.43120,0.92707
4910.50248,0.92690
4908.57377,0.92734
4906.64506,0.92803
4904.71634,0.92820
4902.78763,0.92789
4900.85892,0.92805
4898.93021,0.92857
4897.00149,0.92864
4895.07278,0.92848
4893.14407,0.92830
4891.21536,0.92742
4889.28664,0.92629
4887.35793,0.92627
4885.42922,0.92682
4883.50051,0.92674
4881.57179,0.92602
4879.64308,0.92513
4877.71437,0.92478
4875.78565,0.92523
4873.85694,0.92595
4871.92823,0.92646
4869.99952,0.92678
4868.07080,0.92743
4866.14209,0.92814
4864.21338,0.92800
4862.28467,0.92750
4860.35595,0.92741
4858.42724,0.92751
4856.49853,0.92761
4854.56982,0.92751
4852.64110,0.92705
4850.71239,0.92671
4848.78368,0.92678
4846.85496,0.92721
4844.92625,0.92794
4842.99754,0.92852
4841.06883,0.92884
4839.14011,0.92879
4837.21140,0.92814
4835.28269,0.92807
4833.35398,0.92938
4831.42526,0.93109
4829.49655,0.93226
4827.56784,0.93275
4825.63912,0.93288
4823.71041,0.93310
4821.78170,0.93314
4819.85299,0.93248
4817.92427,0.93165
4815.99556,0.93139
4814.06685,0.93121
4812.13814,0.93035
4810.20942,0.92909
4808.28071,0.92856
4806.35200,0.92946
4804.42329,0.93097
4802.49457,0.93192
4800.56586,0.93253
4798.63715,0.93344
4796.70843,0.93444
4794.77972,0.93498
4792.85101,0.93513
4790.92230,0.93508
4788.99358,0.93492
4787.06487,0.93459
4785.13616,0.93370
4783.20745,0.93283
4781.27873,0.93287
4779.35002,0.93307
4777.42131,0.93257
4775.49260,0.93188
4773.56388,0.93127
4771.63517,0.93071
4769.70646,0.93079
4767.77774,0.93148
4765.84903,0.93226
4763.92032,0.93326
4761.99161,0.93400
4760.06289,0.93399
4758.13418,0.93392
4756.20547,0.93389
4754.27676,0.93344
4752.34804,0.93294
4750.41933,0.93263
4748.49062,0.93244
4746.56191,0.93262
4744.63319,0.93282
4742.70448,0.93238
4740.77577,0.93168
4738.84705,0.93100
4736.91834,0.93030
4734.98963,0.93041
4733.06092,0.93154
4731.13220,0.93271
4729.20349,0.93333
4727.27478,0.93373
4725.34607,0.93459
4723.41735,0.93575
4721.48864,0.93629
4719.55993,0.93585
4717.63121,0.93498
4715.70250,0.93426
4713.77379,0.93343
4711.84508,0.93221
4709.91636,0.93141
4707.98765,0.93151
4706.05894,0.93186
4704.13023,0.93196
4702.20151,0.93182
4700.27280,0.93145
4698.34409,0.93116
4696.41538,0.93174
4694.48666,0.93353
4692.55795,0.93535
4690.62924,0.93602
4688.70052,0.93590
4686.77181,0.93582
4684.84310,0.93612
4682.91439,0.93637
4680.98567,0.93633
4679.05696,0.93605
4677.12825,0.93501
4675.19954,0.93332
4673.27082,0.93203
4671.34211,0.93142
4669.41340,0.93102
4667.48469,0.93060
4665.55597,0.93015
4663.62726,0.93004
4661.69855,0.93069
4659.76983,0.93197
4657.84112,0.93329
4655.91241,0.93422
4653.98370,0.93498
4652.05498,0.93553
4650.12627,0.93530
4648.19756,0.93488
4646.26885,0.93486
4644.34013,0.93438
4642.41142,0.93317
4640.48271,0.93209
4638.55399,0.93171
4636.62528,0.93176
4634.69657,0.93146
4632.76786,0.93099
4630.83914,0.93136
4628.91043,0.93241
4626.98172,0.93310
4625.05301,0.93327
4623.12429,0.93361
4621.19558,0.93455
4619.26687,0.93575
4617.33816,0.93648
4615.40944,0.93643
4613.48073,0.93605
4611.55202,0.93567
4609.62330,0.93524
4607.69459,0.93470
4605.76588,0.93379
4603.83717,0.93245
4601.90845,0.93120
4599.97974,0.93064
4598.05103,0.93102
4596.12232,0.93206
4594.19360,0.93304
4592.26489,0.93346
4590.33618,0.93366
4588.40747,0.93413
4586.47875,0.93484
4584.55004,0.93535
4582.62133,0.93532
4580.69261,0.93519
4578.76390,0.93500
4576.83519,0.93438
4574.90648,0.93381
4572.97776,0.93342
4571.04905,0.93262
4569.12034,0.93175
4567.19163,0.93103
4565.26291,0.92998
4563.33420,0.92897
4561.40549,0.92877
4559.47678,0.92925
4557.54806,0.92989
4555.61935,0.93037
4553.69064,0.93053
4551.76192,0.93072
4549.83321,0.93152
4547.90450,0.93282
4545.97579,0.93391
4544.04707,0.93407
4542.11836,0.93328
4540.18965,0.93244
4538.26094,0.93188
4536.33222,0.93103
4534.40351,0.92944
4532.47480,0.92726
4530.54608,0.92547
4528.61737,0.92497
4526.68866,0.92533
4524.75995,0.92571
4522.83123,0.92623
4520.90252,0.92718
4518.97381,0.92780
4517.04510,0.92776
4515.11638,0.92799
4513.18767,0.92857
4511.25896,0.92883
4509.33025,0.92869
4507.40153,0.92844
4505.47282,0.92796
4503.54411,0.92667
4501.61539,0.92502
4499.68668,0.92412
4497.75797,0.92360
4495.82926,0.92262
4493.90054,0.92142
4491.97183,0.92049
4490.04312,0.92004
4488.11441,0.91999
4486.18569,0.91998
4484.25698,0.92008
4482.32827,0.92075
4480.39956,0.92176
4478.47084,0.92222
4476.54213,0.92183
4474.61342,0.92116
4472.68470,0.92088
4470.75599,0.92071
4468.82728,0.91979
4466.89857,0.91837
4464.96985,0.91707
4463.04114,0.91597
4461.11243,0.91499
4459.18372,0.91372
4457.25500,0.91224
4455.32629,0.91135
4453.39758,0.91119
4451.46886,0.91113
4449.54015,0.91075
4447.61144,0.91028
4445.68273,0.91009
4443.75401,0.90999
4441.82530,0.90960
4439.89659,0.90873
4437.96788,0.90747
4436.03916,0.90609
4434.11045,0.90447
4432.18174,0.90253
4430.25303,0.90035
4428.32431,0.89788
4426.39560,0.89517
4424.46689,0.89229
4422.53817,0.88962
4420.60946,0.88759
4418.68075,0.88574
4416.75204,0.88382
4414.82332,0.88186
4412.89461,0.87950
4410.96590,0.87690
4409.03719,0.87423
4407.10847,0.87109
4405.17976,0.86751
4403.25105,0.86368
4401.32234,0.85960
4399.39362,0.85519
4397.46491,0.85056
4395.53620,0.84591
4393.60748,0.84111
4391.67877,0.83625
4389.75006,0.83175
4387.82135,0.82745
4385.89263,0.82311
4383.96392,0.81903
4382.03521,0.81525
4380.10650,0.81127
4378.17778,0.80676
4376.24907,0.80182
4374.32036,0.79691
4372.39165,0.79217
4370.46293,0.78716
4368.53422,0.78192
4366.60551,0.77657
4364.67679,0.77054
4362.74808,0.76358
4360.81937,0.75575
4358.89066,0.74679
4356.96194,0.73639
4355.03323,0.72427
4353.10452,0.71020
4351.17581,0.69446
4349.24709,0.67708
4347.31838,0.65763
4345.38967,0.63647
4343.46095,0.61515
4341.53224,0.59531
4339.60353,0.57754
4337.67482,0.56087
4335.74610,0.54371
4333.81739,0.52472
4331.88868,0.50292
4329.95997,0.47681
4328.03125,0.44461
4326.10254,0.40785
4324.17383,0.37577
4322.24512,0.36456
4320.31640,0.38672
4318.38769,0.43883
4316.45898,0.50393
4314.53026,0.56560
4312.60155,0.61594
4310.67284,0.65388
4308.74413,0.68155
4306.81541,0.70176
4304.88670,0.71700
4302.95799,0.72859
4301.02928,0.73679
4299.10056,0.74194
4297.17185,0.74455
4295.24314,0.74510
4293.31443,0.74399
4291.38571,0.74138
4289.45700,0.73744
4287.52829,0.73277
4285.59957,0.72821
4283.67086,0.72407
4281.74215,0.72007
4279.81344,0.71615
4277.88472,0.71207
4275.95601,0.70710
4274.02730,0.70084
4272.09859,0.69335
4270.16987,0.68441
4268.24116,0.67306
4266.31245,0.65827
4264.38374,0.63996
4262.45502,0.61823
4260.52631,0.59318
4258.59760,0.56597
4256.66888,0.53815
4254.74017,0.51205
4252.81146,0.49368
4250.88275,0.49205
4248.95403,0.51193
4247.02532,0.54794
4245.09661,0.58792
4243.16790,0.62182
4241.23918,0.64624
4239.31047,0.66232
4237.38176,0.67215
4235.45304,0.67712
4233.52433,0.67828
4231.59562,0.67621
4229.66691,0.67122
4227.73819,0.66436
4225.80948,0.65700
4223.88077,0.65020
4221.95206,0.64499
4220.02334,0.64228
4218.09463,0.64251
4216.16592,0.64468
4214.23721,0.64679
4212.30849,0.64751
4210.37978,0.64674
4208.45107,0.64472
4206.52235,0.64120
4204.59364,0.63558
4202.66493,0.62783
4200.73622,0.61853
4198.80750,0.60858
4196.87879,0.59985
4194.95008,0.59426
4193.02137,0.59179
4191.09265,0.59126
4189.16394,0.59182
4187.23523,0.59286
4185.30652,0.59391
4183.37780,0.59491
4181.44909,0.59601
4179.52038,0.59693
4177.59166,0.59733
4175.66295,0.59766
4173.73424,0.59832
4171.80553,0.59887
4169.87681,0.59930
4167.94810,0.60021
4166.01939,0.60136
4164.09068,0.60217
4162.16196,0.60285
4160.23325,0.60380
4158.30454,0.60481
4156.37582,0.60535
4154.44711,0.60555
4152.51840,0.60600
4150.58969,0.60669
4148.66097,0.60725
4146.73226,0.60790
4144.80355,0.60895
4142.87484,0.61001
4140.94612,0.61088
4139.01741,0.61188
4137.08870,0.61293
4135.15999,0.61399
4133.23127,0.61563
4131.30256,0.61764
4129.37385,0.61924
4127.44513,0.62059
4125.51642,0.62199
4123.58771,0.62337
4121.65900,0.62466
4119.73028,0.62579
4117.80157,0.62652
4115.87286,0.62679
4113.94415,0.62660
4112.01543,0.62586
4110.08672,0.62456
4108.15801,0.62268
4106.22930,0.62094
4104.30058,0.62060
4102.37187,0.62111
4100.44316,0.62143
4098.51444,0.62229
4096.58573,0.62432
4094.65702,0.62775
4092.72831,0.63321
4090.79959,0.64057
4088.87088,0.64898
4086.94217,0.65828
4085.01346,0.66789
4083.08474,0.67617
4081.15603,0.68243
4079.22732,0.68775
4077.29861,0.69299
4075.36989,0.69766
4073.44118,0.70130
4071.51247,0.70416
4069.58375,0.70653
4067.65504,0.70870
4065.72633,0.71099
4063.79762,0.71357
4061.86890,0.71640
4059.94019,0.71942
4058.01148,0.72264
4056.08277,0.72588
4054.15405,0.72903
4052.22534,0.73212
4050.29663,0.73503
4048.36791,0.73695
4046.43920,0.73755
4044.51049,0.73906
4042.58178,0.74317
4040.65306,0.74769
4038.72435,0.75051
4036.79564,0.75171
4034.86693,0.75158
4032.93821,0.75049
4031.00950,0.74940
4029.08079,0.74849
4027.15208,0.74675
4025.22336,0.74503
4023.29465,0.74541
4021.36594,0.74754
4019.43722,0.75173
4017.50851,0.75931
4015.57980,0.76830
4013.65109,0.77583
4011.72237,0.78098
4009.79366,0.78402
4007.86495,0.78683
4005.93624,0.79042
4004.00752,0.79293
4002.07881,0.79357
4000.15010,0.79334
3998.22139,0.79185
3996.29267,0.78888
3994.36396,0.78630
3992.43525,0.78509
3990.50653,0.78522
3988.57782,0.78704
3986.64911,0.78892
3984.72040,0.78883
3982.79168,0.78808
3980.86297,0.78864
3978.93426,0.78914
3977.00555,0.78710
3975.07683,0.78455
3973.14812,0.78545
3971.21941,0.78899
3969.29070,0.79302
3967.36198,0.79676
3965.43327,0.79754
3963.50456,0.79388
3961.57584,0.79044
3959.64713,0.79051
3957.71842,0.79137
3955.78971,0.79148
3953.86099,0.78953
3951.93228,0.78306
3950.00357,0.77500
3948.07486,0.77395
3946.14614,0.77762
3944.21743,0.77682
3942.28872,0.77749
3940.36000,0.78533
3938.43129,0.79122
3936.50258,0.78857
3934.57387,0.77642
3932.64515,0.76027
3930.71644,0.75434
3928.78773,0.75944
3926.85902,0.75919
3924.93030,0.75164
3923.00159,0.75045
3921.07288,0.75287
3919.14417,0.74922
3917.21545,0.74805
3915.28674,0.75909
3913.35803,0.77304
3911.42931,0.78002
3909.50060,0.77757
3907.57189,0.76191
3905.64318,0.73305
3903.71446,0.70884
3901.78575,0.70674
3899.85704,0.72070
3897.92833,0.74236
3895.99961,0.75601
3894.07090,0.74994
3892.14219,0.73723
3890.21348,0.74173
3888.28476,0.74840
3886.35605,0.73959
3884.42734,0.72880
3882.49862,0.72675
3880.56991,0.73357
3878.64120,0.74994
3876.71249,0.75527
3874.78377,0.74130
3872.85506,0.72149
3870.92635,0.71064
3868.99764,0.71795
3867.06892,0.72740
3865.14021,0.72334
3863.21150,0.72694
3861.28278,0.74745
3859.35407,0.75727
3857.42536,0.74375
3855.49665,0.71121
3853.56793,0.68185
3851.63922,0.70331
3849.71051,0.74274
3847.78180,0.76530
3845.85308,0.76531
3843.92437,0.74755
3841.99566,0.72255
3840.06695,0.69853
3838.13823,0.69169
3836.20952,0.71055
3834.28081,0.73290
3832.35209,0.74931
3830.42338,0.76013
3828.49467,0.76078
3826.56596,0.75362
3824.63724,0.74293
3822.70853,0.72195
3820.77982,0.70190
3818.85111,0.70646
3816.92239,0.72143
3814.99368,0.74683
3813.06497,0.77423
3811.13626,0.78437
3809.20754,0.77391
3807.27883,0.75509
3805.35012,0.74470
3803.42140,0.73312
3801.49269,0.72359
3799.56398,0.73653
3797.63527,0.75708
3795.70655,0.78165
3793.77784,0.80729
3791.84913,0.82117
3789.92042,0.82249
3787.99170,0.81405
3786.06299,0.80087
3784.13428,0.79536
3782.20557,0.79476
3780.27685,0.78937
3778.34814,0.79360
3776.41943,0.81081
3774.49071,0.81895
3772.56200,0.80791
3770.63329,0.78769
3768.70458,0.77994
3766.77586,0.78607
3764.84715,0.79569
3762.91844,0.80019
3760.98973,0.78913
3759.06101,0.77191
3757.13230,0.76752
3755.20359,0.76200
3753.27487,0.73461
3751.34616,0.69437
3749.41745,0.68687
3747.48874,0.70141
3745.56002,0.71181
3743.63131,0.72594
3741.70260,0.73708
3739.77389,0.73349
3737.84517,0.71256
3735.91646,0.68473
3733.98775,0.68600
3732.05904,0.71952
3730.13032,0.74758
3728.20161,0.75334
3726.27290,0.74458
3724.34418,0.74038
3722.41547,0.74936
3720.48676,0.76689
3718.55805,0.78520
3716.62933,0.79313
3714.70062,0.77955
3712.77191,0.74289
3710.84320,0.71893
3708.91448,0.74044
3706.98577,0.76873
3705.05706,0.77854
3703.12835,0.77418
3701.19963,0.77429
3699.27092,0.78463
3697.34221,0.79069
3695.41349,0.78635
3693.48478,0.76929
3691.55607,0.73845
3689.62736,0.71918
3687.69864,0.74436
3685.76993,0.77928
3683.84122,0.79651
3681.91251,0.79355
3679.98379,0.77195
3678.05508,0.73887
3676.12637,0.71072
3674.19766,0.71391
3672.26894,0.72286
3670.34023,0.72465
3668.41152,0.75090
3666.48280,0.78700
3664.55409,0.80617
3662.62538,0.80939
3660.69667,0.80297
3658.76795,0.78909
3656.83924,0.77284
3654.91053,0.76371
3652.98182,0.74844
3651.05310,0.70634
3649.12439,0.66369
3647.19568,0.68721
3645.26696,0.73047
3643.33825,0.75419
3641.40954,0.76406
3639.48083,0.76946
3637.55211,0.77175
3635.62340,0.76836
3633.69469,0.75826
3631.76598,0.74026
3629.83726,0.71664
3627.90855,0.71803
3625.97984,0.74610
3624.05113,0.76171
3622.12241,0.75432
3620.19370,0.73140
3618.26499,0.71726
3616.33627,0.71659
3614.40756,0.71272
3612.47885,0.70843
3610.55014,0.70413
3608.62142,0.69633
3606.69271,0.69756
3604.76400,0.70520
3602.83529,0.70502
3600.90657,0.70332
3598.97786,0.71334
3597.04915,0.72989
3595.12044,0.74844
3593.19172,0.77237
3591.26301,0.78808
3589.33430,0.78224
3587.40558,0.77544
3585.47687,0.79720
3583.54816,0.82478
3581.61945,0.83919
3579.69073,0.84392
3577.76202,0.84539
3575.83331,0.84729
3573.90460,0.85036
3571.97588,0.84825
3570.04717,0.82988
3568.11846,0.79705
3566.18974,0.78542
3564.26103,0.80924
3562.33232,0.83522
3560.40361,0.85275
3558.47489,0.86632
3556.54618,0.87313
3554.61747,0.86866
3552.68876,0.86178
3550.76004,0.86289
3548.83133,0.86147
3546.90262,0.85086
3544.97391,0.84859
3543.04519,0.86350
3541.11648,0.87924
3539.18777,0.88289
3537.25905,0.87823
3535.33034,0.87690
3533.40163,0.87817
3531.47292,0.87200
3529.54420,0.85932
3527.61549,0.85164
3525.68678,0.85205
3523.75807,0.85721
3521.82935,0.86854
3519.90064,0.88179
3517.97193,0.89058
3516.04322,0.89461
3514.11450,0.89341
3512.18579,0.88647
3510.25708,0.87944
3508.32836,0.87847
3506.39965,0.87621
3504.47094,0.86603
3502.54223,0.86117
3500.61351,0.86957
3498.68480,0.87717
3496.75609,0.87799
3494.82738,0.87955
3492.89866,0.88350
3490.96995,0.88409
3489.04124,0.88111
3487.11253,0.88015
3485.18381,0.88082
3483.25510,0.87861
3481.32639,0.87795
3479.39767,0.88350
3477.46896,0.88817
3475.54025,0.88750
3473.61154,0.88580
3471.68282,0.88515
3469.75411,0.88301
3467.82540,0.87902
3465.89669,0.87520
3463.96797,0.87169
3462.03926,0.86938
3460.11055,0.87054
3458.18183,0.87352
3456.25312,0.87592
3454.32441,0.87800
3452.39570,0.87914
3450.46698,0.87554
3448.53827,0.86684
3446.60956,0.86234
3444.68085,0.86619
3442.75213,0.87105
3440.82342,0.87407
3438.89471,0.87550
3436.96600,0.87460
3435.03728,0.87285
3433.10857,0.87102
3431.17986,0.86930
3429.25114,0.86880
3427.32243,0.86934
3425.39372,0.86883
3423.46501,0.86548
3421.53629,0.86227
3419.60758,0.86493
3417.67887,0.87205
3415.75016,0.87711
3413.82144,0.87873
3411.89273,0.87961
3409.96402,0.88054
3408.03531,0.88061
3406.10659,0.87955
3404.17788,0.87755
3402.24917,0.87496
3400.32045,0.87161
3398.39174,0.86769
3396.46303,0.86492
3394.53432,0.86331
3392.60560,0.86268
3390.67689,0.86424
3388.74818,0.86592
3386.81947,0.86559
3384.89075,0.86540
3382.96204,0.86714
3381.03333,0.86909
3379.10462,0.87006
3377.17590,0.87070
3375.24719,0.87080
3373.31848,0.86973
3371.38976,0.86753
3369.46105,0.86446
3367.53234,0.86143
3365.60363,0.85977
3363.67491,0.85981
3361.74620,0.86078
3359.81749,0.86202
3357.88878,0.86285
3355.96006,0.86367
3354.03135,0.86576
3352.10264,0.86859
3350.17392,0.87110
3348.24521,0.87360
3346.31650,0.87625
3344.38779,0.87824
3342.45907,0.87888
3340.53036,0.87841
3338.60165,0.87722
3336.67294,0.87609
3334.74422,0.87601
3332.81551,0.87665
3330.88680,0.87678
3328.95809,0.87561
3327.02937,0.87380
3325.10066,0.87318
3323.17195,0.87432
3321.24323,0.87586
3319.31452,0.87661
3317.38581,0.87712
3315.45710,0.87800
3313.52838,0.87867
3311.59967,0.87883
3309.67096,0.87938
3307.74225,0.88146
3305.81353,0.88436
3303.88482,0.88589
3301.95611,0.88545
3300.02740,0.88368
3298.09868,0.88140
3296.16997,0.87915
3294.24126,0.87639
3292.31254,0.87370
3290.38383,0.87290
3288.45512,0.87394
3286.52641,0.87516
3284.59769,0.87592
3282.66898,0.87685
3280.74027,0.87794
3278.81156,0.87811
3276.88284,0.87702
3274.95413,0.87616
3273.02542,0.87737
3271.09670,0.88011
3269.16799,0.88198
3267.23928,0.88178
3265.31057,0.88026
3263.38185,0.87866
3261.45314,0.87719
3259.52443,0.87542
3257.59572,0.87320
3255.66700,0.87133
3253.73829,0.87150
3251.80958,0.87368
3249.88087,0.87550
3247.95215,0.87515
3246.02344,0.87397
3244.09473,0.87510
3242.16601,0.87789
3240.23730,0.87906
3238.30859,0.87836
3236.37988,0.87726
3234.45116,0.87581
3232.52245,0.87363
3230.59374,0.87096
3228.66503,0.86858
3226.73631,0.86729
3224.80760,0.86671
3222.87889,0.86516
3220.95018,0.86278
3219.02146,0.86177
3217.09275,0.86209
3215.16404,0.86230
3213.23532,0.86285
3211.30661,0.86348
3209.37790,0.86363
3207.44919,0.86441
3205.52047,0.86518
3203.59176,0.86434
3201.66305,0.86182
3199.73434,0.85814
3197.80562,0.85464
3195.87691,0.85304
3193.94820,0.85262
3192.01949,0.85142
3190.09077,0.84942
3188.16206,0.84752
3186.23335,0.84634
3184.30463,0.84660
3182.37592,0.84766
3180.44721,0.84774
3178.51850,0.84718
3176.58978,0.84779
3174.66107,0.84901
3172.73236,0.84932
3170.80365,0.84831
3168.87493,0.84582
3166.94622,0.84274
3165.01751,0.84029
3163.08879,0.83819
3161.16008,0.83583
3159.23137,0.83353
3157.30266,0.83165
3155.37394,0.83023
3153.44523,0.82957
3151.51652,0.82987
3149.58781,0.83028
3147.65909,0.83007
3145.73038,0.82941
3143.80167,0.82851
3141.87296,0.82736
3139.94424,0.82587
3138.01553,0.82385
3136.08682,0.82041
3134.15810,0.81530
3132.22939,0.81091
3130.30068,0.80835
3128.37197,0.80547
3126.44325,0.80144
3124.51454,0.79723
3122.58583,0.79367
3120.65712,0.79078
3118.72840,0.78773
3116.79969,0.78487
3114.87098,0.78301
3112.94227,0.78084
3111.01355,0.77675
3109.08484,0.77098
3107.15613,0.76437
3105.22741,0.75641
3103.29870,0.74613
3101.36999,0.73479
3099.44128,0.72402
3097.51256,0.71276
3095.58385,0.70062
3093.65514,0.68929
3091.72643,0.67915
3089.79771,0.66951
3087.86900,0.66028
3085.94029,0.65178
3084.01158,0.64412
3082.08286,0.63711
3080.15415,0.63095
3078.22544,0.62614
3076.29672,0.62238
3074.36801,0.61853
3072.43930,0.61385
3070.51059,0.60804
3068.58187,0.60085
3066.65316,0.59330
3064.72445,0.58736
3062.79574,0.58303
3060.86702,0.57814
3058.93831,0.57137
3057.00960,0.56352
3055.08088,0.55601
3053.15217,0.54852
3051.22346,0.53962
3049.29475,0.52963
3047.36603,0.51986
3045.43732,0.51013
3043.50861,0.49979
3041.57990,0.48910
3039.65118,0.47844
3037.72247,0.46757
3035.79376,0.45631
3033.86505,0.44509
3031.93633,0.43505
3030.00762,0.42698
3028.07891,0.41969
3026.15019,0.41172
3024.22148,0.40350
3022.29277,0.39560
3020.36406,0.38764
3018.43534,0.37927
3016.50663,0.37054
3014.57792,0.36149
3012.64921,0.35231
3010.72049,0.34345
3008.79178,0.33463
3006.86307,0.32489
3004.93436,0.31410
3003.00564,0.30288
3001.07693,0.29137
2999.14822,0.27913
2997.21950,0.26592
2995.29079,0.25181
2993.36208,0.23693
2991.43337,0.22108
2989.50465,0.20391
2987.57594,0.18541
2985.64723,0.16585
2983.71852,0.14538
2981.78980,0.12420
2979.86109,0.10281
2977.93238,0.08189
2976.00366,0.06221
2974.07495,0.04467
2972.14624,0.03017
2970.21753,0.01901
2968.28881,0.01112
2966.36010,0.00626
2964.43139,0.00353
2962.50268,0.00192
2960.57396,0.00103
2958.64525,0.00084
2956.71654,0.00100
2954.78783,0.00107
2952.85911,0.00096
2950.93040,0.00086
2949.00169,0.00075
2947.07297,0.00064
2945.14426,0.00061
2943.21555,0.00051
2941.28684,0.00032
2939.35812,0.00032
2937.42941,0.00044
2935.50070,0.00046
2933.57199,0.00046
2931.64327,0.00062
2929.71456,0.00077
2927.78585,0.00088
2925.85714,0.00107
2923.92842,0.00118
2921.99971,0.00112
2920.07100,0.00115
2918.14228,0.00124
2916.21357,0.00114
2914.28486,0.00090
2912.35615,0.00079
2910.42743,0.00081
2908.49872,0.00083
2906.57001,0.00088
2904.64130,0.00102
2902.71258,0.00101
2900.78387,0.00081
2898.85516,0.00061
2896.92645,0.00061
2894.99773,0.00070
2893.06902,0.00074
2891.14031,0.00065
2889.21159,0.00047
2887.28288,0.00033
2885.35417,0.00036
2883.42546,0.00037
2881.49674,0.00036
2879.56803,0.00043
2877.63932,0.00075
2875.71061,0.00108
2873.78189,0.00110
2871.85318,0.00088
2869.92447,0.00074
2867.99575,0.00065
2866.06704,0.00053
2864.13833,0.00045
2862.20962,0.00056
2860.28090,0.00082
2858.35219,0.00105
2856.42348,0.00113
2854.49477,0.00121
2852.56605,0.00132
2850.63734,0.00137
2848.70863,0.00124
2846.77992,0.00113
2844.85120,0.00121
2842.92249,0.00127
2840.99378,0.00095
2839.06506,0.00069
2837.13635,0.00132
2835.20764,0.00280
2833.27893,0.00497
2831.35021,0.00825
2829.42150,0.01284
2827.49279,0.01848
2825.56408,0.02517
2823.63536,0.03293
2821.70665,0.04156
2819.77794,0.05089
2817.84923,0.06091
2815.92051,0.07157
2813.99180,0.08255
2812.06309,0.09358
2810.13437,0.10485
2808.20566,0.11665
2806.27695,0.12880
2804.34824,0.14108
2802.41952,0.15359
2800.49081,0.16643
2798.56210,0.17979
2796.63339,0.19388
2794.70467,0.20872
2792.77596,0.22403
2790.84725,0.23964
2788.91854,0.25569
2786.98982,0.27203
2785.06111,0.28827
2783.13240,0.30422
2781.20368,0.31966
2779.27497,0.33426
2777.34626,0.34784
2775.41755,0.36047
2773.48883,0.37209
2771.56012,0.38231
2769.63141,0.39107
2767.70270,0.39875
2765.77398,0.40578
2763.84527,0.41239
2761.91656,0.41889
2759.98784,0.42548
2758.05913,0.43199
2756.13042,0.43800
2754.20171,0.44294
2752.27299,0.44636
2750.34428,0.44825
2748.41557,0.44872
2746.48686,0.44792
2744.55814,0.44646
2742.62943,0.44529
2740.70072,0.44498
2738.77201,0.44559
2736.84329,0.44710
2734.91458,0.44927
2732.98587,0.45194
2731.05715,0.45533
2729.12844,0.45962
2727.19973,0.46457
2725.27102,0.46968
2723.34230,0.47455
2721.41359,0.47903
2719.48488,0.48311
2717.55617,0.48690
2715.62745,0.49059
2713.69874,0.49426
2711.77003,0.49797
2709.84132,0.50182
2707.91260,0.50581
2705.98389,0.50986
2704.05518,0.51382
2702.12646,0.51715
2700.19775,0.51924
2698.26904,0.51989
2696.34033,0.51891
2694.41161,0.51618
2692.48290,0.51202
2690.55419,0.50700
2688.62548,0.50205
2686.69676,0.49778
2684.76805,0.49409
2682.83934,0.49076
2680.91062,0.48782
2678.98191,0.48514
2677.05320,0.48253
2675.12449,0.47992
2673.19577,0.47728
2671.26706,0.47459
2669.33835,0.47209
2667.40964,0.47033
2665.48092,0.46944
2663.55221,0.46914
2661.62350,0.46930
2659.69479,0.47006
2657.76607,0.47170
2655.83736,0.47410
2653.90865,0.47677
2651.97993,0.47961
2650.05122,0.48255
2648.12251,0.48495
2646.19380,0.48631
2644.26508,0.48661
2642.33637,0.48607
2640.40766,0.48507
2638.47895,0.48413
2636.55023,0.48411
2634.62152,0.48602
2632.69281,0.49051
2630.76410,0.49739
2628.83538,0.50566
2626.90667,0.51430
2624.97796,0.52302
2623.04924,0.53175
2621.12053,0.54007
2619.19182,0.54808
2617.26311,0.55638
2615.33439,0.56518
2613.40568,0.57404
2611.47697,0.58256
2609.54826,0.59073
2607.61954,0.59845
2605.69083,0.60543
2603.76212,0.61161
2601.83341,0.61709
2599.90469,0.62194
2597.97598,0.62645
2596.04727,0.63123
2594.11855,0.63658
2592.18984,0.64240
2590.26113,0.64863
2588.33242,0.65527
2586.40370,0.66230
2584.47499,0.66946
2582.54628,0.67656
2580.61757,0.68360
2578.68885,0.69046
2576.76014,0.69702
2574.83143,0.70323
2572.90271,0.70909
2570.97400,0.71440
2569.04529,0.71886
2567.11658,0.72259
2565.18786,0.72584
2563.25915,0.72864
2561.33044,0.73113
2559.40173,0.73333
2557.47301,0.73509
2555.54430,0.73674
2553.61559,0.73868
2551.68688,0.74086
2549.75816,0.74367
2547.82945,0.74806
2545.90074,0.75445
2543.97202,0.76189
2542.04331,0.76865
2540.11460,0.77333
2538.18589,0.77540
2536.25717,0.77505
2534.32846,0.77278
2532.39975,0.76960
2530.47104,0.76683
2528.54232,0.76539
2526.61361,0.76582
2524.68490,0.76850
2522.75619,0.77338
2520.82747,0.77970
2518.89876,0.78624
2516.97005,0.79232
2515.04133,0.79806
2513.11262,0.80342
2511.18391,0.80815
2509.25520,0.81226
2507.32648,0.81584
2505.39777,0.81880
2503.46906,0.82085
2501.54035,0.82202
2499.61163,0.82259
2497.68292,0.82277
2495.75421,0.82280
2493.82549,0.82283
2491.89678,0.82290
2489.96807,0.82322
2488.03936,0.82418
2486.11064,0.82573
2484.18193,0.82747
2482.25322,0.82916
2480.32451,0.83093
2478.39579,0.83258
2476.46708,0.83378
2474.53837,0.83504
2472.60966,0.83771
2470.68094,0.84235
2468.75223,0.84756
2466.82352,0.85145
2464.89480,0.85334
2462.96609,0.85363
2461.03738,0.85311
2459.10867,0.85263
2457.17995,0.85259
2455.25124,0.85284
2453.32253,0.85317
2451.39382,0.85370
2449.46510,0.85462
2447.53639,0.85597
2445.60768,0.85741
2443.67897,0.85848
2441.75025,0.85898
2439.82154,0.85897
2437.89283,0.85843
2435.96411,0.85732
2434.03540,0.85563
2432.10669,0.85363
2430.17798,0.85152
2428.24926,0.84899
2426.32055,0.84571
2424.39184,0.84180
2422.46313,0.83781
2420.53441,0.83452
2418.60570,0.83260
2416.67699,0.83231
2414.74828,0.83363
2412.81956,0.83617
2410.89085,0.83927
2408.96214,0.84226
2407.03342,0.84478
2405.10471,0.84675
2403.17600,0.84813
2401.24729,0.84894
2399.31857,0.84930
2397.38986,0.84908
2395.46115,0.84816
2393.53244,0.84673
2391.60372,0.84503
2389.67501,0.84227
2387.74630,0.83609
2385.81758,0.82322
2383.88887,0.80086
2381.96016,0.76852
2380.03145,0.72868
2378.10273,0.68532
2376.17402,0.64184
2374.24531,0.60017
2372.31660,0.56126
2370.38788,0.52576
2368.45917,0.49452
2366.53046,0.46823
2364.60175,0.44750
2362.67303,0.43284
2360.74432,0.42470
2358.81561,0.42404
2356.88689,0.43216
2354.95818,0.45026
2353.02947,0.48002
2351.10076,0.51584
2349.17204,0.53584
2347.24333,0.52314
2345.31462,0.49029
2343.38591,0.46675
2341.45719,0.46104
2339.52848,0.46392
2337.59977,0.46928
2335.67106,0.47457
2333.74234,0.47812
2331.81363,0.48086
2329.88492,0.48719
2327.95620,0.49811
2326.02749,0.50962
2324.09878,0.52030
2322.17007,0.53400
2320.24135,0.55404
2318.31264,0.57832
2316.38393,0.60101
2314.45522,0.61859
2312.52650,0.63360
2310.59779,0.65055
2308.66908,0.67050
2306.74037,0.69179
2304.81165,0.71180
2302.88294,0.72847
2300.95423,0.74223
2299.02551,0.75461
2297.09680,0.76595
2295.16809,0.77623
2293.23938,0.78573
2291.31066,0.79459
2289.38195,0.80283
2287.45324,0.81050
2285.52453,0.81723
2283.59581,0.82161
2281.66710,0.82259
2279.73839,0.82141
2277.80967,0.82041
2275.88096,0.82080
2273.95225,0.82274
2272.02354,0.82611
2270.09482,0.83037
2268.16611,0.83489
2266.23740,0.83934
2264.30869,0.84330
2262.37997,0.84642
2260.45126,0.84884
2258.52255,0.85074
2256.59384,0.85218
2254.66512,0.85320
2252.73641,0.85385
2250.80770,0.85421
2248.87898,0.85442
2246.95027,0.85464
2245.02156,0.85503
2243.09285,0.85601
2241.16413,0.85824
2239.23542,0.86203
2237.30671,0.86685
2235.37800,0.87175
2233.44928,0.87572
2231.52057,0.87821
2229.59186,0.87940
2227.66315,0.87965
2225.73443,0.87922
2223.80572,0.87851
2221.87701,0.87789
2219.94829,0.87762
2218.01958,0.87780
2216.09087,0.87813
2214.16216,0.87825
2212.23344,0.87830
2210.30473,0.87853
2208.37602,0.87881
2206.44731,0.87912
2204.51859,0.87956
2202.58988,0.87998
2200.66117,0.88024
2198.73245,0.88045
2196.80374,0.88069
2194.87503,0.88081
2192.94632,0.88063
2191.01760,0.88016
2189.08889,0.87968
2187.16018,0.87935
2185.23147,0.87906
2183.30275,0.87853
2181.37404,0.87783
2179.44533,0.87744
2177.51662,0.87751
2175.58790,0.87757
2173.65919,0.87734
2171.73048,0.87706
2169.80176,0.87675
2167.87305,0.87622
2165.94434,0.87539
2164.01563,0.87439
2162.08691,0.87332
2160.15820,0.87217
2158.22949,0.87094
2156.30078,0.86993
2154.37206,0.86928
2152.44335,0.86885
2150.51464,0.86860
2148.58593,0.86855
2146.65721,0.86899
2144.72850,0.87035
2142.79979,0.87252
2140.87107,0.87490
2138.94236,0.87709
2137.01365,0.87925
2135.08494,0.88175
2133.15622,0.88438
2131.22751,0.88654
2129.29880,0.88817
2127.37009,0.88955
2125.44137,0.89089
2123.51266,0.89225
2121.58395,0.89354
2119.65524,0.89463
2117.72652,0.89532
2115.79781,0.89570
2113.86910,0.89628
2111.94038,0.89690
2110.01167,0.89703
2108.08296,0.89684
2106.15425,0.89657
2104.22553,0.89616
2102.29682,0.89544
2100.36811,0.89445
2098.43940,0.89357
2096.51068,0.89302
2094.58197,0.89241
2092.65326,0.89097
2090.72454,0.88919
2088.79583,0.88879
2086.86712,0.88995
2084.93841,0.89121
2083.00969,0.89167
2081.08098,0.89131
2079.15227,0.89059
2077.22356,0.88988
2075.29484,0.88901
2073.36613,0.88805
2071.43742,0.88703
2069.50871,0.88503
2067.57999,0.88091
2065.65128,0.87638
2063.72257,0.87485
2061.79385,0.87527
2059.86514,0.87486
2057.93643,0.87386
2056.00772,0.87271
2054.07900,0.87130
2052.15029,0.87011
2050.22158,0.86918
2048.29287,0.86791
2046.36415,0.86559
2044.43544,0.86165
2042.50673,0.85694
2040.57802,0.85422
2038.64930,0.85343
2036.72059,0.85163
2034.79188,0.84811
2032.86316,0.84383
2030.93445,0.83902
2029.00574,0.83338
2027.07703,0.82691
2025.14831,0.82005
2023.21960,0.81351
2021.29089,0.80724
2019.36218,0.80135
2017.43346,0.80120
2015.50475,0.81252
2013.57604,0.83040
2011.64733,0.84673
2009.71861,0.85952
2007.78990,0.86989
2005.86119,0.87841
2003.93247,0.88473
2002.00376,0.88851
2000.07505,0.89025
1998.14634,0.89115
1996.21762,0.88972
1994.28891,0.88263
1992.36020,0.87491
1990.43149,0.87524
1988.50277,0.88096
1986.57406,0.88674
1984.64535,0.89125
1982.71663,0.89377
1980.78792,0.89534
1978.85921,0.89688
1976.93050,0.89837
1975.00178,0.89991
1973.07307,0.90124
1971.14436,0.89995
1969.21565,0.89285
1967.28693,0.88550
1965.35822,0.88694
1963.42951,0.89204
1961.50080,0.89295
1959.57208,0.89132
1957.64337,0.88885
1955.71466,0.88592
1953.78594,0.88505
1951.85723,0.88594
1949.92852,0.88537
1947.99981,0.88135
1946.07109,0.87403
1944.14238,0.86624
1942.21367,0.86708
1940.28496,0.87957
1938.35624,0.89110
1936.42753,0.89493
1934.49882,0.89466
1932.57011,0.89399
1930.64139,0.89358
1928.71268,0.89212
1926.78397,0.88622
1924.85525,0.87254
1922.92654,0.85910
1920.99783,0.85514
1919.06912,0.85394
1917.14040,0.85576
1915.21169,0.86363
1913.28298,0.86618
1911.35427,0.85863
1909.42555,0.85135
1907.49684,0.85382
1905.56813,0.86018
1903.63941,0.86240
1901.71070,0.86123
1899.78199,0.85820
1897.85328,0.85170
1895.92456,0.84481
1893.99585,0.84476
1892.06714,0.84701
1890.13843,0.84762
1888.20971,0.85551
1886.28100,0.86740
1884.35229,0.87476
1882.42358,0.87957
1880.49486,0.88334
1878.56615,0.88636
1876.63744,0.88993
1874.70872,0.89224
1872.78001,0.88612
1870.85130,0.86515
1868.92259,0.84466
1866.99387,0.85616
1865.06516,0.88531
1863.13645,0.90273
1861.20774,0.90622
1859.27902,0.90546
1857.35031,0.90606
1855.42160,0.90673
1853.49289,0.90489
1851.56417,0.89897
1849.63546,0.88649
1847.70675,0.86741
1845.77803,0.84754
1843.84932,0.84502
1841.92061,0.86595
1839.99190,0.88351
1838.06318,0.88817
1836.13447,0.89109
1834.20576,0.89341
1832.27705,0.88179
1830.34833,0.86100
1828.41962,0.85683
1826.49091,0.86440
1824.56220,0.87045
1822.63348,0.87967
1820.70477,0.88662
1818.77606,0.88576
1816.84734,0.88227
1814.91863,0.87689
1812.98992,0.86447
1811.06121,0.85282
1809.13249,0.85600
1807.20378,0.86741
1805.27507,0.87227
1803.34636,0.86491
1801.41764,0.85318
1799.48893,0.85191
1797.56022,0.85637
1795.63150,0.85207
1793.70279,0.83821
1791.77408,0.83683
1789.84537,0.86134
1787.91665,0.88146
1785.98794,0.88252
1784.05923,0.87315
1782.13052,0.86145
1780.20180,0.85356
1778.27309,0.85227
1776.34438,0.84363
1774.41567,0.81754
1772.48695,0.79179
1770.55824,0.80014
1768.62953,0.82927
1766.70081,0.85303
1764.77210,0.85927
1762.84339,0.84826
1760.91468,0.83803
1758.98596,0.83509
1757.05725,0.83003
1755.12854,0.82294
1753.19983,0.80406
1751.27111,0.76367
1749.34240,0.72561
1747.41369,0.71884
1745.48498,0.72590
1743.55626,0.72959
1741.62755,0.72991
1739.69884,0.73407
1737.77012,0.74155
1735.84141,0.73907
1733.91270,0.73405
1731.98399,0.75558
1730.05527,0.78899
1728.12656,0.81581
1726.19785,0.82459
1724.26914,0.81646
1722.34042,0.80347
1720.41171,0.78216
1718.48300,0.73844
1716.55429,0.70252
1714.62557,0.72159
1712.69686,0.75419
1710.76815,0.77153
1708.83943,0.76979
1706.91072,0.75466
1704.98201,0.74438
1703.05330,0.74352
1701.12458,0.73322
1699.19587,0.71542
1697.26716,0.72335
1695.33845,0.76803
1693.40973,0.81203
1691.48102,0.82512
1689.55231,0.81626
1687.62359,0.79959
1685.69488,0.77450
1683.76617,0.75757
1681.83746,0.77887
1679.90874,0.80440
1677.98003,0.81444
1676.05132,0.80626
1674.12261,0.79126
1672.19389,0.77687
1670.26518,0.76602
1668.33647,0.78493
1666.40776,0.81235
1664.47904,0.81629
1662.55033,0.81240
1660.62162,0.82538
1658.69290,0.83538
1656.76419,0.82146
1654.83548,0.78247
1652.90677,0.75170
1650.97805,0.76282
1649.04934,0.75782
1647.12063,0.74576
1645.19192,0.77185
1643.26320,0.80244
1641.33449,0.80771
1639.40578,0.78955
1637.47707,0.75588
1635.54835,0.74522
1633.61964,0.77995
1631.69093,0.80483
1629.76221,0.80639
1627.83350,0.79836
1625.90479,0.79123
1623.97608,0.78605
1622.04736,0.79425
1620.11865,0.80419
1618.18994,0.79581
1616.26123,0.79101
1614.33251,0.81160
1612.40380,0.82534
1610.47509,0.82039
1608.54637,0.81121
1606.61766,0.80990
1604.68895,0.80985
1602.76024,0.80780
1600.83152,0.81001
1598.90281,0.81330
1596.97410,0.81052
1595.04539,0.80726
1593.11667,0.81098
1591.18796,0.81836
1589.25925,0.82576
1587.33054,0.83250
1585.40182,0.83635
1583.47311,0.83658
1581.54440,0.83171
1579.61568,0.81439
1577.68697,0.78191
1575.75826,0.76331
1573.82955,0.77546
1571.90083,0.77632
1569.97212,0.76108
1568.04341,0.75912
1566.11470,0.76606
1564.18598,0.76411
1562.25727,0.75021
1560.32856,0.71420
1558.39985,0.67890
1556.47113,0.70351
1554.54242,0.73587
1552.61371,0.75684
1550.68499,0.76600
1548.75628,0.76906
1546.82757,0.75751
1544.89886,0.71807
1542.97014,0.66209
1541.04143,0.62767
1539.11272,0.65931
1537.18401,0.69720
1535.25529,0.70248
1533.32658,0.69933
1531.39787,0.70975
1529.46916,0.71213
1527.54044,0.69492
1525.61173,0.67306
1523.68302,0.65467
1521.75430,0.64368
1519.82559,0.65212
1517.89688,0.66276
1515.96817,0.67530
1514.03945,0.68864
1512.11074,0.68229
1510.18203,0.64965
1508.25332,0.60073
1506.32460,0.59191
1504.39589,0.62753
1502.46718,0.64029
1500.53846,0.62855
1498.60975,0.60382
1496.68104,0.59045
1494.75233,0.59423
1492.82361,0.58649
1490.89490,0.55206
1488.96619,0.51083
1487.03748,0.49336
1485.10876,0.47708
1483.18005,0.43756
1481.25134,0.36820
1479.32263,0.27926
1477.39391,0.17987
1475.46520,0.08311
1473.53649,0.02096
1471.60777,0.00283
1469.67906,0.00091
1467.75035,0.00053
1465.82164,0.00037
1463.89292,0.00029
1461.96421,0.00051
1460.03550,0.00168
1458.10679,0.00645
1456.17807,0.01987
1454.24936,0.03738
1452.32065,0.05742
1450.39194,0.07947
1448.46322,0.10140
1446.53451,0.12231
1444.60580,0.14020
1442.67708,0.15634
1440.74837,0.17173
1438.81966,0.18698
1436.89095,0.21342
1434.96223,0.25689
1433.03352,0.30340
1431.10481,0.35917
1429.17610,0.43149
1427.24738,0.49839
1425.31867,0.54673
1423.38996,0.58270
1421.46125,0.60405
1419.53253,0.61258
1417.60382,0.63126
1415.67511,0.65988
1413.74639,0.67917
1411.81768,0.68879
1409.88897,0.69727
1407.96026,0.70338
1406.03154,0.70461
1404.10283,0.71049
1402.17412,0.71762
1400.24541,0.71229
1398.31669,0.69905
1396.38798,0.69231
1394.45927,0.69840
1392.53055,0.70985
1390.60184,0.70729
1388.67313,0.68277
1386.74442,0.64658
1384.81570,0.60391
1382.88699,0.53604
1380.95828,0.44639
1379.02957,0.37935
1377.10085,0.36309
1375.17214,0.37740
1373.24343,0.38846
1371.31472,0.38298
1369.38600,0.37278
1367.45729,0.37400
1365.52858,0.38691
1363.59986,0.40520
1361.67115,0.43224
1359.74244,0.45987
1357.81373,0.47423
1355.88501,0.47529
1353.95630,0.47248
1352.02759,0.47479
1350.09888,0.48624
1348.17016,0.50704
1346.24145,0.53206
1344.31274,0.55319
1342.38403,0.56408
1340.45531,0.57026
1338.52660,0.59095
1336.59789,0.62750
1334.66917,0.66089
1332.74046,0.68211
1330.81175,0.69262
1328.88304,0.69594
1326.95432,0.69383
1325.02561,0.68640
1323.09690,0.67266
1321.16819,0.65178
1319.23947,0.62806
1317.31076,0.60871
1315.38205,0.59308
1313.45333,0.57803
1311.52462,0.56623
1309.59591,0.55835
1307.66720,0.55305
1305.73848,0.55113
1303.80977,0.55241
1301.88106,0.55610
1299.95235,0.56233
1298.02363,0.57155
1296.09492,0.58426
1294.16621,0.59938
1292.23750,0.61378
1290.30878,0.62508
1288.38007,0.63421
1286.45136,0.64300
1284.52264,0.65046
1282.59393,0.65491
1280.66522,0.65708
1278.73651,0.65843
1276.80779,0.65939
1274.87908,0.65950
1272.95037,0.65906
1271.02166,0.66085
1269.09294,0.66713
1267.16423,0.67670
1265.23552,0.68730
1263.30681,0.69701
1261.37809,0.70507
1259.44938,0.71303
1257.52067,0.72113
1255.59195,0.72722
1253.66324,0.73061
1251.73453,0.73222
1249.80582,0.73283
1247.87710,0.73294
1245.94839,0.73305
1244.01968,0.73385
1242.09097,0.73551
1240.16225,0.73733
1238.23354,0.73902
1236.30483,0.74124
1234.37612,0.74437
1232.44740,0.74816
1230.51869,0.75242
1228.58998,0.75683
1226.66126,0.76104
1224.73255,0.76524
1222.80384,0.76926
1220.87513,0.77218
1218.94641,0.77356
1217.01770,0.77350
1215.08899,0.77182
1213.16028,0.76874
1211.23156,0.76538
1209.30285,0.76263
1207.37414,0.76078
1205.44542,0.76023
1203.51671,0.76096
1201.58800,0.76229
1199.65929,0.76370
1197.73057,0.76518
1195.80186,0.76713
1193.87315,0.76940
1191.94444,0.77133
1190.01572,0.77245
1188.08701,0.77304
1186.15830,0.77369
1184.22959,0.77399
1182.30087,0.77243
1180.37216,0.76787
1178.44345,0.76162
1176.51473,0.75729
1174.58602,0.75608
1172.65731,0.75553
1170.72860,0.75405
1168.79988,0.75262
1166.87117,0.75231
1164.94246,0.75303
1163.01375,0.75446
1161.08503,0.75651
1159.15632,0.75901
1157.22761,0.76160
1155.29890,0.76393
1153.37018,0.76574
1151.44147,0.76707
1149.51276,0.76811
1147.58404,0.76898
1145.65533,0.76962
1143.72662,0.77010
1141.79791,0.77059
1139.86919,0.77092
1137.94048,0.77088
1136.01177,0.77078
1134.08306,0.77098
1132.15434,0.77173
1130.22563,0.77346
1128.29692,0.77626
1126.36821,0.77943
1124.43949,0.78212
1122.51078,0.78406
1120.58207,0.78559
1118.65335,0.78696
1116.72464,0.78802
1114.79593,0.78822
1112.86722,0.78732
1110.93850,0.78586
1109.00979,0.78427
1107.08108,0.78215
1105.15237,0.77916
1103.22365,0.77536
1101.29494,0.77094
1099.36623,0.76620
1097.43751,0.76140
1095.50880,0.75665
1093.58009,0.75206
1091.65138,0.74755
1089.72266,0.74315
1087.79395,0.73894
1085.86524,0.73479
1083.93653,0.73123
1082.00781,0.72957
1080.07910,0.73087
1078.15039,0.73555
1076.22168,0.74275
1074.29296,0.75051
1072.36425,0.75705
1070.43554,0.76125
1068.50682,0.76293
1066.57811,0.76286
1064.64940,0.76217
1062.72069,0.76220
1060.79197,0.76409
1058.86326,0.76746
1056.93455,0.77076
1055.00584,0.77267
1053.07712,0.77253
1051.14841,0.77213
1049.21970,0.77491
1047.29099,0.78049
1045.36227,0.78545
1043.43356,0.78832
1041.50485,0.78942
1039.57613,0.78900
1037.64742,0.78728
1035.71871,0.78445
1033.79000,0.78038
1031.86128,0.77480
1029.93257,0.76772
1028.00386,0.75923
1026.07515,0.74958
1024.14643,0.73911
1022.21772,0.72871
1020.28901,0.72067
1018.36029,0.71805
1016.43158,0.72296
1014.50287,0.73506
1012.57416,0.75140
1010.64544,0.76836
1008.71673,0.78354
1006.78802,0.79607
1004.85931,0.80596
1002.93059,0.81340
1001.00188,0.81872
999.07317,0.82232
997.14446,0.82453
995.21574,0.82575
993.28703,0.82645
991.35832,0.82714
989.42960,0.82832
987.50089,0.82999
985.57218,0.83152
983.64347,0.83235
981.71475,0.83240
979.78604,0.83204
977.85733,0.83121
975.92862,0.82954
973.99990,0.82736
972.07119,0.82543
970.14248,0.82393
968.21377,0.82270
966.28505,0.82196
964.35634,0.82208
962.42763,0.82299
960.49891,0.82440
958.57020,0.82622
956.64149,0.82859
954.71278,0.83124
952.78406,0.83351
950.85535,0.83516
948.92664,0.83629
946.99793,0.83701
945.06921,0.83750
943.14050,0.83826
941.21179,0.83978
939.28308,0.84199
937.35436,0.84440
935.42565,0.84688
933.49694,0.84946
931.56822,0.85190
929.63951,0.85396
927.71080,0.85532
925.78209,0.85575
923.85337,0.85539
921.92466,0.85431
919.99595,0.85269
918.06724,0.85091
916.13852,0.84871
914.20981,0.84529
912.28110,0.84047
910.35238,0.83561
908.42367,0.83343
906.49496,0.83543
904.56625,0.83988
902.63753,0.84422
900.70882,0.84720
898.78011,0.84847
896.85140,0.84882
894.92268,0.84924
892.99397,0.84933
891.06526,0.84829
889.13655,0.84685
887.20783,0.84669
885.27912,0.84825
883.35041,0.85037
881.42169,0.85185
879.49298,0.85229
877.56427,0.85158
875.63556,0.85009
873.70684,0.84891
871.77813,0.84883
869.84942,0.84969
867.92071,0.85123
865.99199,0.85377
864.06328,0.85699
862.13457,0.85981
860.20586,0.86192
858.27714,0.86344
856.34843,0.86409
854.41972,0.86389
852.49100,0.86318
850.56229,0.86180
848.63358,0.85971
846.70487,0.85707
844.77615,0.85383
842.84744,0.85032
840.91873,0.84731
838.99002,0.84522
837.06130,0.84378
835.13259,0.84297
833.20388,0.84357
831.27516,0.84585
829.34645,0.84893
827.41774,0.85197
825.48903,0.85475
823.56031,0.85708
821.63160,0.85857
819.70289,0.85884
817.77418,0.85742
815.84546,0.85402
813.91675,0.84900
811.98804,0.84269
810.05933,0.83552
808.13061,0.82839
806.20190,0.82164
804.27319,0.81535
802.34447,0.81011
800.41576,0.80639
798.48705,0.80419
796.55834,0.80331
794.62962,0.80359
792.70091,0.80419
790.77220,0.80402
788.84349,0.80247
786.91477,0.79872
784.98606,0.79221
783.05735,0.78320
781.12864,0.77212
779.19992,0.75961
777.27121,0.74666
775.34250,0.73441
773.41378,0.72405
771.48507,0.71708
769.55636,0.71445
767.62765,0.71579
765.69893,0.72000
763.77022,0.72559
761.84151,0.73103
759.91280,0.73513
757.98408,0.73703
756.05537,0.73584
754.12666,0.73104
752.19795,0.72246
750.26923,0.70999
748.34052,0.69341
746.41181,0.67188
744.48309,0.64493
742.55438,0.61214
740.62567,0.57082
738.69696,0.51441
736.76824,0.43076
734.83953,0.30984
732.91082,0.17118
730.98211,0.06915
729.05339,0.03733
727.12468,0.04911
725.19597,0.05696
723.26725,0.04310
721.33854,0.02281
719.40983,0.02127
717.48112,0.05773
715.55240,0.13475
713.62369,0.23557
711.69498,0.33860
709.76627,0.43203
707.83755,0.51323
705.90884,0.58257
703.98013,0.64065
702.05142,0.68655
700.12270,0.71953
698.19399,0.74164
696.26528,0.75574
694.33656,0.76306
692.40785,0.76382
690.47914,0.75997
688.55043,0.75664
686.62171,0.75806
684.69300,0.76293
682.76429,0.76905
680.83558,0.77719
678.90686,0.78791
676.97815,0.80025
675.04944,0.81186
673.12073,0.81136
671.19201,0.77608
669.26330,0.72274
667.33459,0.73882
665.40587,0.81053
663.47716,0.84342
661.54845,0.83826
659.61974,0.82586
657.69102,0.81788
655.76231,0.81492
653.83360,0.81518
651.90489,0.81824
649.97617,0.82559
648.04746,0.83987
646.11875,0.85969
644.19004,0.87933
642.26132,0.89551
640.33261,0.90842
638.40390,0.91814
636.47518,0.92374
634.54647,0.92680
632.61776,0.92861
630.68905,0.92694
628.76033,0.91943
626.83162,0.90767
624.90291,0.89699
622.97420,0.89049
621.04548,0.88504
619.11677,0.87825
617.18806,0.87773
615.25934,0.88960
613.33063,0.90547
611.40192,0.91770
609.47321,0.92784
607.54449,0.93725
605.61578,0.94462
603.68707,0.94824
601.75836,0.94746
599.82964,0.94410
