7497.33348,0.11241
7495.40466,0.10999
7493.47584,0.09957
7491.54702,0.09159
7489.61819,0.09308
7487.68937,0.09549
7485.76055,0.09152
7483.83173,0.08989
7481.90290,0.09353
7479.97408,0.09678
7478.04526,0.09809
7476.11644,0.09884
7474.18761,0.10022
7472.25879,0.10340
7470.32997,0.10483
7468.40115,0.10114
7466.47232,0.09804
7464.54350,0.10144
7462.61468,0.10346
7460.68585,0.10167
7458.75703,0.10405
7456.82821,0.10900
7454.89939,0.10897
7452.97056,0.10287
7451.04174,0.09633
7449.11292,0.09298
7447.18410,0.09495
7445.25527,0.10111
7443.32645,0.10282
7441.39763,0.10132
7439.46881,0.10351
7437.53998,0.10725
7435.61116,0.10924
7433.68234,0.10574
7431.75352,0.09565
7429.82469,0.08774
7427.89587,0.09062
7425.96705,0.10076
7424.03823,0.10727
7422.10940,0.10592
7420.18058,0.10108
7418.25176,0.09816
7416.32293,0.09936
7414.39411,0.10325
7412.46529,0.10735
7410.53647,0.10894
7408.60764,0.10570
7406.67882,0.10050
7404.75000,0.09840
7402.82118,0.09696
7400.89235,0.09217
7398.96353,0.09050
7397.03471,0.09605
7395.10589,0.10104
7393.17706,0.10033
7391.24824,0.09672
7389.31942,0.09169
7387.39060,0.08882
7385.46177,0.09325
7383.53295,0.09959
7381.60413,0.09981
7379.67531,0.09817
7377.74648,0.09802
7375.81766,0.09598
7373.88884,0.09450
7371.96001,0.09871
7370.03119,0.10502
7368.10237,0.10552
7366.17355,0.09863
7364.24472,0.09174
7362.31590,0.09089
7360.38708,0.09345
7358.45826,0.09190
7356.52943,0.08919
7354.60061,0.09387
7352.67179,0.10492
7350.74297,0.11746
7348.81414,0.12610
7346.88532,0.12208
7344.95650,0.10917
7343.02768,0.10106
7341.09885,0.10164
7339.17003,0.10745
7337.24121,0.11323
7335.31239,0.11222
7333.38356,0.10744
7331.45474,0.10633
7329.52592,0.10737
7327.59709,0.10464
7325.66827,0.10054
7323.73945,0.10148
7321.81063,0.10475
7319.88180,0.10436
7317.95298,0.10185
7316.02416,0.10026
7314.09534,0.10210
7312.16651,0.10721
7310.23769,0.10903
7308.30887,0.10622
7306.38005,0.10617
7304.45122,0.11032
7302.52240,0.11159
7300.59358,0.10774
7298.66476,0.10602
7296.73593,0.10654
7294.80711,0.10152
7292.87829,0.09385
7290.94947,0.09280
7289.02064,0.09728
7287.09182,0.10001
7285.16300,0.09824
7283.23417,0.09530
7281.30535,0.09482
7279.37653,0.09810
7277.44771,0.10217
7275.51888,0.10344
7273.59006,0.10251
7271.66124,0.10225
7269.73242,0.10277
7267.80359,0.10287
7265.87477,0.10194
7263.94595,0.10120
7262.01713,0.10157
7260.08830,0.10072
7258.15948,0.09765
7256.23066,0.09665
7254.30184,0.09754
7252.37301,0.09296
7250.44419,0.08559
7248.51537,0.08539
7246.58655,0.09050
7244.65772,0.09283
7242.72890,0.09325
7240.80008,0.09836
7238.87125,0.10321
7236.94243,0.10193
7235.01361,0.09815
7233.08479,0.09652
7231.15596,0.09701
7229.22714,0.09917
7227.29832,0.10138
7225.36950,0.10269
7223.44067,0.10527
7221.51185,0.10716
7219.58303,0.10348
7217.65421,0.09998
7215.72538,0.10170
7213.79656,0.10227
7211.86774,0.09775
7209.93892,0.09094
7208.01009,0.08560
7206.08127,0.08630
7204.15245,0.09420
7202.22363,0.10251
7200.29480,0.10315
7198.36598,0.09593
7196.43716,0.08985
7194.50833,0.09256
7192.57951,0.09825
7190.65069,0.09802
7188.72187,0.09379
7186.79304,0.09239
7184.86422,0.09355
7182.93540,0.09533
7181.00658,0.09772
7179.07775,0.09957
7177.14893,0.09900
7175.22011,0.09438
7173.29129,0.08868
7171.36246,0.08952
7169.43364,0.09539
7167.50482,0.09793
7165.57600,0.09641
7163.64717,0.09531
7161.71835,0.09629
7159.78953,0.09948
7157.86071,0.10237
7155.93188,0.10329
7154.00306,0.10365
7152.07424,0.10431
7150.14541,0.10607
7148.21659,0.10879
7146.28777,0.10758
7144.35895,0.10122
7142.43012,0.09604
7140.50130,0.09641
7138.57248,0.10009
7136.64366,0.10306
7134.71483,0.10374
7132.78601,0.10208
7130.85719,0.10000
7128.92837,0.09987
7126.99954,0.10035
7125.07072,0.09990
7123.14190,0.09818
7121.21308,0.09481
7119.28425,0.09272
7117.35543,0.09467
7115.42661,0.09776
7113.49779,0.09813
7111.56896,0.09737
7109.64014,0.09960
7107.71132,0.10237
7105.78249,0.10097
7103.85367,0.09799
7101.92485,0.09895
7099.99603,0.10204
7098.06720,0.10340
7096.13838,0.10453
7094.20956,0.10526
7092.28074,0.10402
7090.35191,0.10340
7088.42309,0.10229
7086.49427,0.09870
7084.56545,0.09634
7082.63662,0.09788
7080.70780,0.09947
7078.77898,0.09945
7076.85016,0.10191
7074.92133,0.10592
7072.99251,0.10394
7071.06369,0.09690
7069.13487,0.09484
7067.20604,0.09856
7065.27722,0.10045
7063.34840,0.09711
7061.41957,0.09135
7059.49075,0.09094
7057.56193,0.09824
7055.63311,0.10554
7053.70428,0.10523
7051.77546,0.09863
7049.84664,0.09407
7047.91782,0.09546
7045.98899,0.09696
7044.06017,0.09586
7042.13135,0.09634
7040.20253,0.09860
7038.27370,0.09889
7036.34488,0.09712
7034.41606,0.09659
7032.48724,0.09880
7030.55841,0.10018
7028.62959,0.09819
7026.70077,0.09688
7024.77195,0.09905
7022.84312,0.10045
7020.91430,0.09894
7018.98548,0.09819
7017.05665,0.09921
7015.12783,0.10013
7013.19901,0.10079
7011.27019,0.10108
7009.34136,0.10086
7007.41254,0.09939
7005.48372,0.09776
7003.55490,0.09868
7001.62607,0.10138
6999.69725,0.10273
6997.76843,0.10127
6995.83961,0.09813
6993.91078,0.09737
6991.98196,0.10045
6990.05314,0.10424
6988.12432,0.10652
6986.19549,0.10675
6984.26667,0.10672
6982.33785,0.10953
6980.40903,0.11224
6978.48020,0.10913
6976.55138,0.10086
6974.62256,0.09347
6972.69373,0.09205
6970.76491,0.09531
6968.83609,0.09786
6966.90727,0.09831
6964.97844,0.09846
6963.04962,0.09818
6961.12080,0.09868
6959.19198,0.10253
6957.26315,0.10644
6955.33433,0.10560
6953.40551,0.10043
6951.47669,0.09584
6949.54786,0.09670
6947.61904,0.10144
6945.69022,0.10347
6943.76140,0.10163
6941.83257,0.10043
6939.90375,0.10231
6937.97493,0.10513
6936.04611,0.10633
6934.11728,0.10597
6932.18846,0.10315
6930.25964,0.09844
6928.33081,0.09716
6926.40199,0.09980
6924.47317,0.10237
6922.54435,0.10314
6920.61552,0.10107
6918.68670,0.09845
6916.75788,0.09868
6914.82906,0.09837
6912.90023,0.09591
6910.97141,0.09555
6909.04259,0.09729
6907.11377,0.09844
6905.18494,0.09926
6903.25612,0.10038
6901.32730,0.10266
6899.39848,0.10491
6897.46965,0.10333
6895.54083,0.09906
6893.61201,0.09759
6891.68319,0.09731
6889.75436,0.09517
6887.82554,0.09644
6885.89672,0.10151
6883.96789,0.10312
6882.03907,0.10101
6880.11025,0.09796
6878.18143,0.09485
6876.25260,0.09373
6874.32378,0.09487
6872.39496,0.09623
6870.46614,0.09754
6868.53731,0.10007
6866.60849,0.10322
6864.67967,0.10420
6862.75085,0.10388
6860.82202,0.10442
6858.89320,0.10355
6856.96438,0.10084
6855.03556,0.09977
6853.10673,0.10140
6851.17791,0.10397
6849.24909,0.10504
6847.32027,0.10413
6845.39144,0.10318
6843.46262,0.10342
6841.53380,0.10383
6839.60497,0.10296
6837.67615,0.10134
6835.74733,0.10205
6833.81851,0.10567
6831.88968,0.10900
6829.96086,0.10905
6828.03204,0.10577
6826.10322,0.10221
6824.17439,0.10077
6822.24557,0.09988
6820.31675,0.09773
6818.38793,0.09611
6816.45910,0.09776
6814.53028,0.10104
6812.60146,0.10209
6810.67264,0.10078
6808.74381,0.09987
6806.81499,0.10094
6804.88617,0.10260
6802.95734,0.10191
6801.02852,0.09953
6799.09970,0.09913
6797.17088,0.10022
6795.24205,0.09933
6793.31323,0.09664
6791.38441,0.09521
6789.45559,0.09683
6787.52676,0.09927
6785.59794,0.09960
6783.66912,0.09829
6781.74030,0.09721
6779.81147,0.09605
6777.88265,0.09488
6775.95383,0.09558
6774.02501,0.09810
6772.09618,0.09997
6770.16736,0.09899
6768.23854,0.09521
6766.30972,0.09328
6764.38089,0.09642
6762.45207,0.09965
6760.52325,0.09902
6758.59442,0.09896
6756.66560,0.10146
6754.73678,0.10275
6752.80796,0.10186
6750.87913,0.10041
6748.95031,0.10035
6747.02149,0.10198
6745.09267,0.10142
6743.16384,0.09878
6741.23502,0.09948
6739.30620,0.10338
6737.37738,0.10543
6735.44855,0.10371
6733.51973,0.10025
6731.59091,0.09787
6729.66209,0.09692
6727.73326,0.09706
6725.80444,0.09866
6723.87562,0.09980
6721.94680,0.09886
6720.01797,0.09817
6718.08915,0.09869
6716.16033,0.09767
6714.23150,0.09426
6712.30268,0.09315
6710.37386,0.09784
6708.44504,0.10459
6706.51621,0.10693
6704.58739,0.10239
6702.65857,0.09604
6700.72975,0.09414
6698.80092,0.09489
6696.87210,0.09640
6694.94328,0.10005
6693.01446,0.10310
6691.08563,0.10336
6689.15681,0.10276
6687.22799,0.10149
6685.29917,0.09854
6683.37034,0.09522
6681.44152,0.09389
6679.51270,0.09518
6677.58388,0.09839
6675.65505,0.10123
6673.72623,0.10278
6671.79741,0.10471
6669.86858,0.10540
6667.93976,0.10298
6666.01094,0.10196
6664.08212,0.10326
6662.15329,0.10219
6660.22447,0.09934
6658.29565,0.09783
6656.36683,0.09695
6654.43800,0.09642
6652.50918,0.09706
6650.58036,0.09868
6648.65154,0.10040
6646.72271,0.10122
6644.79389,0.10119
6642.86507,0.10106
6640.93625,0.09970
6639.00742,0.09710
6637.07860,0.09528
6635.14978,0.09519
6633.22096,0.09739
6631.29213,0.10125
6629.36331,0.10490
6627.43449,0.10725
6625.50566,0.10753
6623.57684,0.10650
6621.64802,0.10526
6619.71920,0.10317
6617.79037,0.10004
6615.86155,0.09875
6613.93273,0.10032
6612.00391,0.10042
6610.07508,0.09807
6608.14626,0.09838
6606.21744,0.10142
6604.28862,0.10216
6602.35979,0.09992
6600.43097,0.09778
6598.50215,0.09839
6596.57333,0.10153
6594.64450,0.10351
6592.71568,0.10193
6590.78686,0.09865
6588.85804,0.09726
6586.92921,0.09773
6585.00039,0.09708
6583.07157,0.09659
6581.14274,0.09812
6579.21392,0.09909
6577.28510,0.09874
6575.35628,0.09918
6573.42745,0.10143
6571.49863,0.10450
6569.56981,0.10581
6567.64099,0.10494
6565.71216,0.10464
6563.78334,0.10505
6561.85452,0.10373
6559.92570,0.10161
6557.99687,0.10165
6556.06805,0.10271
6554.13923,0.10163
6552.21041,0.09898
6550.28158,0.09726
6548.35276,0.09647
6546.42394,0.09631
6544.49512,0.09704
6542.56629,0.09746
6540.63747,0.09790
6538.70865,0.09891
6536.77982,0.09764
6534.85100,0.09559
6532.92218,0.09743
6530.99336,0.10037
6529.06453,0.10030
6527.13571,0.10018
6525.20689,0.10145
6523.27807,0.09975
6521.34924,0.09606
6519.42042,0.09676
6517.49160,0.10092
6515.56278,0.10300
6513.63395,0.10118
6511.70513,0.09834
6509.77631,0.09786
6507.84749,0.09908
6505.91866,0.10048
6503.98984,0.10200
6502.06102,0.10266
6500.13220,0.10171
6498.20337,0.10009
6496.27455,0.09906
6494.34573,0.09849
6492.41690,0.09781
6490.48808,0.09751
6488.55926,0.09853
6486.63044,0.09949
6484.70161,0.09877
6482.77279,0.09783
6480.84397,0.09735
6478.91515,0.09638
6476.98632,0.09527
6475.05750,0.09442
6473.12868,0.09398
6471.19986,0.09520
6469.27103,0.09765
6467.34221,0.09784
6465.41339,0.09604
6463.48457,0.09676
6461.55574,0.10001
6459.62692,0.10168
6457.69810,0.10040
6455.76928,0.09779
6453.84045,0.09574
6451.91163,0.09564
6449.98281,0.09642
6448.05398,0.09620
6446.12516,0.09690
6444.19634,0.09992
6442.26752,0.10305
6440.33869,0.10436
6438.40987,0.10388
6436.48105,0.10270
6434.55223,0.10106
6432.62340,0.09923
6430.69458,0.09814
6428.76576,0.09738
6426.83694,0.09671
6424.90811,0.09799
6422.97929,0.10236
6421.05047,0.10599
6419.12165,0.10462
6417.19282,0.10070
6415.26400,0.09864
6413.33518,0.09862
6411.40636,0.09895
6409.47753,0.09841
6407.54871,0.09729
6405.61989,0.09763
6403.69106,0.10006
6401.76224,0.10198
6399.83342,0.10061
6397.90460,0.09771
6395.97577,0.09799
6394.04695,0.10126
6392.11813,0.10352
6390.18931,0.10403
6388.26048,0.10382
6386.33166,0.10276
6384.40284,0.10093
6382.47402,0.09968
6380.54519,0.09988
6378.61637,0.09900
6376.68755,0.09652
6374.75873,0.09627
6372.82990,0.09803
6370.90108,0.09921
6368.97226,0.10037
6367.04344,0.10210
6365.11461,0.10324
6363.18579,0.10274
6361.25697,0.10161
6359.32814,0.10127
6357.39932,0.10100
6355.47050,0.09974
6353.54168,0.09935
6351.61285,0.10184
6349.68403,0.10392
6347.75521,0.10205
6345.82639,0.09932
6343.89756,0.09824
6341.96874,0.09654
6340.03992,0.09471
6338.11110,0.09467
6336.18227,0.09521
6334.25345,0.09672
6332.32463,0.09908
6330.39581,0.09979
6328.46698,0.09926
6326.53816,0.09998
6324.60934,0.10231
6322.68052,0.10433
6320.75169,0.10459
6318.82287,0.10426
6316.89405,0.10384
6314.96522,0.10175
6313.03640,0.09908
6311.10758,0.09870
6309.17876,0.09923
6307.24993,0.09796
6305.32111,0.09579
6303.39229,0.09474
6301.46347,0.09538
6299.53464,0.09780
6297.60582,0.10090
6295.67700,0.10260
6293.74818,0.10256
6291.81935,0.10182
6289.89053,0.10030
6287.96171,0.09828
6286.03289,0.09796
6284.10406,0.09999
6282.17524,0.10083
6280.24642,0.09931
6278.31760,0.09905
6276.38877,0.10102
6274.45995,0.10275
6272.53113,0.10379
6270.60230,0.10307
6268.67348,0.09825
6266.74466,0.09329
6264.81584,0.09416
6262.88701,0.09798
6260.95819,0.09940
6259.02937,0.09997
6257.10055,0.10229
6255.17172,0.10487
6253.24290,0.10561
6251.31408,0.10448
6249.38526,0.10317
6247.45643,0.10257
6245.52761,0.10204
6243.59879,0.10083
6241.66997,0.09909
6239.74114,0.09782
6237.81232,0.09727
6235.88350,0.09654
6233.95468,0.09544
6232.02585,0.09557
6230.09703,0.09841
6228.16821,0.10158
6226.23938,0.10162
6224.31056,0.09941
6222.38174,0.09875
6220.45292,0.10084
6218.52409,0.10291
6216.59527,0.10306
6214.66645,0.10217
6212.73763,0.10123
6210.80880,0.10059
6208.87998,0.10016
6206.95116,0.10058
6205.02234,0.10160
6203.09351,0.10188
6201.16469,0.10226
6199.23587,0.10317
6197.30705,0.10307
6195.37822,0.10214
6193.44940,0.10163
6191.52058,0.10146
6189.59176,0.10120
6187.66293,0.10125
6185.73411,0.10108
6183.80529,0.10027
6181.87646,0.09978
6179.94764,0.09984
6178.01882,0.09949
6176.09000,0.09855
6174.16117,0.09871
6172.23235,0.10033
6170.30353,0.10134
6168.37471,0.10158
6166.44588,0.10152
6164.51706,0.10075
6162.58824,0.09986
6160.65942,0.09921
6158.73059,0.09847
6156.80177,0.09834
6154.87295,0.09909
6152.94413,0.10008
6151.01530,0.10128
6149.08648,0.10138
6147.15766,0.09922
6145.22884,0.09777
6143.30001,0.09833
6141.37119,0.09874
6139.44237,0.09855
6137.51354,0.09894
6135.58472,0.09970
6133.65590,0.09990
6131.72708,0.10021
6129.79825,0.10121
6127.86943,0.10173
6125.94061,0.10120
6124.01179,0.10008
6122.08296,0.09893
6120.15414,0.09887
6118.22532,0.10059
6116.29650,0.10186
6114.36767,0.10041
6112.43885,0.09891
6110.51003,0.10031
6108.58121,0.10217
6106.65238,0.10231
6104.72356,0.10224
6102.79474,0.10192
6100.86591,0.10063
6098.93709,0.10012
6097.00827,0.10046
6095.07945,0.10020
6093.15062,0.10001
6091.22180,0.10118
6089.29298,0.10236
6087.36416,0.10128
6085.43533,0.09892
6083.50651,0.09840
6081.57769,0.10063
6079.64887,0.10308
6077.72004,0.10326
6075.79122,0.10209
6073.86240,0.10127
6071.93358,0.10069
6070.00475,0.09992
6068.07593,0.09917
6066.14711,0.09868
6064.21829,0.09830
6062.28946,0.09801
6060.36064,0.09855
6058.43182,0.09987
6056.50299,0.10066
6054.57417,0.10054
6052.64535,0.10021
6050.71653,0.09976
6048.78770,0.09925
6046.85888,0.09924
6044.93006,0.10015
6043.00124,0.10089
6041.07241,0.09995
6039.14359,0.09887
6037.21477,0.09970
6035.28595,0.10087
6033.35712,0.09999
6031.42830,0.09762
6029.49948,0.09679
6027.57066,0.09875
6025.64183,0.10077
6023.71301,0.10048
6021.78419,0.09922
6019.85537,0.09833
6017.92654,0.09770
6015.99772,0.09859
6014.06890,0.10049
6012.14007,0.10018
6010.21125,0.09821
6008.28243,0.09749
6006.35361,0.09768
6004.42478,0.09760
6002.49596,0.09803
6000.56714,0.09949
5998.63832,0.10128
5996.70949,0.10206
5994.78067,0.10111
5992.85185,0.10062
5990.92303,0.10247
5988.99420,0.10382
5987.06538,0.10200
5985.13656,0.09836
5983.20774,0.09591
5981.27891,0.09692
5979.35009,0.09989
5977.42127,0.10093
5975.49245,0.09968
5973.56362,0.09847
5971.63480,0.09767
5969.70598,0.09680
5967.77715,0.09676
5965.84833,0.09782
5963.91951,0.09850
5961.99069,0.09801
5960.06186,0.09785
5958.13304,0.09877
5956.20422,0.09919
5954.27540,0.09871
5952.34657,0.09875
5950.41775,0.09975
5948.48893,0.10061
5946.56011,0.10044
5944.63128,0.10027
5942.70246,0.10089
5940.77364,0.10098
5938.84482,0.09967
5936.91599,0.09855
5934.98717,0.09930
5933.05835,0.10108
5931.12953,0.10162
5929.20070,0.10089
5927.27188,0.10066
5925.34306,0.10093
5923.41423,0.09999
5921.48541,0.09839
5919.55659,0.09849
5917.62777,0.09974
5915.69894,0.09972
5913.77012,0.09817
5911.84130,0.09607
5909.91248,0.09464
5907.98365,0.09511
5906.05483,0.09717
5904.12601,0.09935
5902.19719,0.10041
5900.26836,0.09997
5898.33954,0.09898
5896.41072,0.09840
5894.48190,0.09738
5892.55307,0.09637
5890.62425,0.09739
5888.69543,0.09884
5886.76661,0.09806
5884.83778,0.09627
5882.90896,0.09595
5880.98014,0.09686
5879.05131,0.09729
5877.12249,0.09716
5875.19367,0.09777
5873.26485,0.09840
5871.33602,0.09713
5869.40720,0.09520
5867.47838,0.09449
5865.54956,0.09400
5863.62073,0.09322
5861.69191,0.09280
5859.76309,0.09293
5857.83427,0.09309
5855.90544,0.09295
5853.97662,0.09316
5852.04780,0.09362
5850.11898,0.09331
5848.19015,0.09243
5846.26133,0.09172
5844.33251,0.09153
5842.40369,0.09179
5840.47486,0.09197
5838.54604,0.09194
5836.61722,0.09182
5834.68839,0.09144
5832.75957,0.09078
5830.83075,0.09041
5828.90193,0.09078
5826.97310,0.09133
5825.04428,0.09152
5823.11546,0.09078
5821.18664,0.08898
5819.25781,0.08788
5817.32899,0.08859
5815.40017,0.08993
5813.47135,0.09055
5811.54252,0.08995
5809.61370,0.08857
5807.68488,0.08778
5805.75606,0.08800
5803.82723,0.08772
5801.89841,0.08706
5799.96959,0.08742
5798.04077,0.08772
5796.11194,0.08680
5794.18312,0.08583
5792.25430,0.08626
5790.32547,0.08746
5788.39665,0.08717
5786.46783,0.08552
5784.53901,0.08475
5782.61018,0.08415
5780.68136,0.08206
5778.75254,0.08055
5776.82372,0.08122
5774.89489,0.08238
5772.96607,0.08286
5771.03725,0.08258
5769.10843,0.08217
5767.17960,0.08353
5765.25078,0.08580
5763.32196,0.08644
5761.39314,0.08639
5759.46431,0.08757
5757.53549,0.08968
5755.60667,0.09130
5753.67785,0.09095
5751.74902,0.08927
5749.82020,0.08883
5747.89138,0.09032
5745.96255,0.09189
5744.03373,0.09233
5742.10491,0.09195
5740.17609,0.09146
5738.24726,0.09141
5736.31844,0.09135
5734.38962,0.09069
5732.46080,0.09005
5730.53197,0.09059
5728.60315,0.09298
5726.67433,0.09567
5724.74551,0.09656
5722.81668,0.09639
5720.88786,0.09606
5718.95904,0.09496
5717.03022,0.09374
5715.10139,0.09291
5713.17257,0.09227
5711.24375,0.09273
5709.31493,0.09360
5707.38610,0.09356
5705.45728,0.09382
5703.52846,0.09437
5701.59963,0.09374
5699.67081,0.09313
5697.74199,0.09377
5695.81317,0.09463
5693.88434,0.09514
5691.95552,0.09528
5690.02670,0.09499
5688.09788,0.09445
5686.16905,0.09360
5684.24023,0.09273
5682.31141,0.09241
5680.38259,0.09245
5678.45376,0.09164
5676.52494,0.08985
5674.59612,0.08920
5672.66730,0.09024
5670.73847,0.09061
5668.80965,0.08939
5666.88083,0.08863
5664.95201,0.08954
5663.02318,0.09063
5661.09436,0.09043
5659.16554,0.08969
5657.23671,0.08998
5655.30789,0.09058
5653.37907,0.09012
5651.45025,0.09024
5649.52142,0.09182
5647.59260,0.09278
5645.66378,0.09254
5643.73496,0.09293
5641.80613,0.09417
5639.87731,0.09486
5637.94849,0.09496
5636.01967,0.09493
5634.09084,0.09403
5632.16202,0.09275
5630.23320,0.09322
5628.30438,0.09514
5626.37555,0.09633
5624.44673,0.09648
5622.51791,0.09631
5620.58909,0.09579
5618.66026,0.09529
5616.73144,0.09539
5614.80262,0.09520
5612.87379,0.09441
5610.94497,0.09452
5609.01615,0.09576
5607.08733,0.09643
5605.15850,0.09566
5603.22968,0.09441
5601.30086,0.09384
5599.37204,0.09431
5597.44321,0.09509
5595.51439,0.09521
5593.58557,0.09491
5591.65675,0.09452
5589.72792,0.09419
5587.79910,0.09390
5585.87028,0.09359
5583.94146,0.09386
5582.01263,0.09520
5580.08381,0.09722
5578.15499,0.09813
5576.22617,0.09740
5574.29734,0.09722
5572.36852,0.09789
5570.43970,0.09771
5568.51087,0.09662
5566.58205,0.09595
5564.65323,0.09605
5562.72441,0.09599
5560.79558,0.09554
5558.86676,0.09543
5556.93794,0.09577
5555.00912,0.09606
5553.08029,0.09620
5551.15147,0.09623
5549.22265,0.09606
5547.29383,0.09575
5545.36500,0.09538
5543.43618,0.09562
5541.50736,0.09666
5539.57854,0.09689
5537.64971,0.09579
5535.72089,0.09497
5533.79207,0.09502
5531.86325,0.09532
5529.93442,0.09607
5528.00560,0.09735
5526.07678,0.09829
5524.14795,0.09857
5522.21913,0.09839
5520.29031,0.09729
5518.36149,0.09554
5516.43266,0.09473
5514.50384,0.09494
5512.57502,0.09486
5510.64620,0.09436
5508.71737,0.09456
5506.78855,0.09587
5504.85973,0.09720
5502.93091,0.09743
5501.00208,0.09633
5499.07326,0.09496
5497.14444,0.09439
5495.21562,0.09386
5493.28679,0.09317
5491.35797,0.09365
5489.42915,0.09529
5487.50033,0.09662
5485.57150,0.09651
5483.64268,0.09543
5481.71386,0.09512
5479.78503,0.09593
5477.85621,0.09645
5475.92739,0.09635
5473.99857,0.09669
5472.06974,0.09764
5470.14092,0.09835
5468.21210,0.09802
5466.28328,0.09677
5464.35445,0.09586
5462.42563,0.09615
5460.49681,0.09698
5458.56799,0.09733
5456.63916,0.09730
5454.71034,0.09702
5452.78152,0.09624
5450.85270,0.09567
5448.92387,0.09620
5446.99505,0.09722
5445.06623,0.09753
5443.13741,0.09712
5441.20858,0.09695
5439.27976,0.09704
5437.35094,0.09671
5435.42211,0.09653
5433.49329,0.09725
5431.56447,0.09768
5429.63565,0.09687
5427.70682,0.09654
5425.77800,0.09741
5423.84918,0.09761
5421.92036,0.09710
5419.99153,0.09739
5418.06271,0.09862
5416.13389,0.09956
5414.20507,0.09937
5412.27624,0.09924
5410.34742,0.09979
5408.41860,0.09958
5406.48978,0.09860
5404.56095,0.09775
5402.63213,0.09815
5400.70331,0.09968
5398.77449,0.10019
5396.84566,0.09896
5394.91684,0.09753
5392.98802,0.09745
5391.05919,0.09847
5389.13037,0.09893
5387.20155,0.09862
5385.27273,0.09862
5383.34390,0.09867
5381.41508,0.09796
5379.48626,0.09712
5377.55744,0.09705
5375.62861,0.09768
5373.69979,0.09821
5371.77097,0.09818
5369.84215,0.09765
5367.91332,0.09668
5365.98450,0.09580
5364.05568,0.09557
5362.12686,0.09585
5360.19803,0.09635
5358.26921,0.09668
5356.34039,0.09710
5354.41156,0.09829
5352.48274,0.09932
5350.55392,0.09887
5348.62510,0.09785
5346.69627,0.09793
5344.76745,0.09917
5342.83863,0.09989
5340.90981,0.09946
5338.98098,0.09852
5337.05216,0.09815
5335.12334,0.09818
5333.19452,0.09790
5331.26569,0.09767
5329.33687,0.09768
5327.40805,0.09752
5325.47923,0.09717
5323.55040,0.09746
5321.62158,0.09871
5319.69276,0.09969
5317.76394,0.09984
5315.83511,0.09985
5313.90629,0.09940
5311.97747,0.09837
5310.04864,0.09752
5308.11982,0.09717
5306.19100,0.09762
5304.26218,0.09873
5302.33335,0.09959
5300.40453,0.09941
5298.47571,0.09846
5296.54689,0.09821
5294.61806,0.09859
5292.68924,0.09833
5290.76042,0.09838
5288.83160,0.09988
5286.90277,0.10073
5284.97395,0.09982
5283.04513,0.09906
5281.11631,0.09918
5279.18748,0.09871
5277.25866,0.09740
5275.32984,0.09671
5273.40102,0.09731
5271.47219,0.09839
5269.54337,0.09917
5267.61455,0.09900
5265.68572,0.09803
5263.75690,0.09754
5261.82808,0.09774
5259.89926,0.09794
5257.97043,0.09820
5256.04161,0.09877
5254.11279,0.09926
5252.18397,0.09913
5250.25514,0.09862
5248.32632,0.09842
5246.39750,0.09901
5244.46868,0.10007
5242.53985,0.10060
5240.61103,0.09987
5238.68221,0.09803
5236.75339,0.09621
5234.82456,0.09560
5232.89574,0.09655
5230.96692,0.09809
5229.03810,0.09884
5227.10927,0.09908
5225.18045,0.09949
5223.25163,0.09967
5221.32280,0.09900
5219.39398,0.09760
5217.46516,0.09672
5215.53634,0.09705
5213.60751,0.09806
5211.67869,0.09929
5209.74987,0.10012
5207.82105,0.10027
5205.89222,0.10018
5203.96340,0.09976
5202.03458,0.09888
5200.10576,0.09810
5198.17693,0.09805
5196.24811,0.09866
5194.31929,0.09929
5192.39047,0.09943
5190.46164,0.09912
5188.53282,0.09850
5186.60400,0.09803
5184.67518,0.09869
5182.74635,0.09988
5180.81753,0.10007
5178.88871,0.09934
5176.95988,0.09886
5175.03106,0.09907
5173.10224,0.09967
5171.17342,0.10044
5169.24459,0.10067
5167.31577,0.09964
5165.38695,0.09857
5163.45813,0.09877
5161.52930,0.09931
5159.60048,0.09920
5157.67166,0.09875
5155.74284,0.09830
5153.81401,0.09814
5151.88519,0.09830
5149.95637,0.09854
5148.02755,0.09897
5146.09872,0.10003
5144.16990,0.10097
5142.24108,0.10051
5140.31226,0.09926
5138.38343,0.09883
5136.45461,0.09958
5134.52579,0.10014
5132.59696,0.09973
5130.66814,0.09936
5128.73932,0.09933
5126.81050,0.09926
5124.88167,0.09924
5122.95285,0.09923
5121.02403,0.09909
5119.09521,0.09866
5117.16638,0.09831
5115.23756,0.09855
5113.30874,0.09904
5111.37992,0.09911
5109.45109,0.09891
5107.52227,0.09893
5105.59345,0.09894
5103.66463,0.09890
5101.73580,0.09914
5099.80698,0.09938
5097.87816,0.09897
5095.94934,0.09821
5094.02051,0.09828
5092.09169,0.09896
5090.16287,0.09940
5088.23404,0.09947
5086.30522,0.09889
5084.37640,0.09809
5082.44758,0.09810
5080.51875,0.09863
5078.58993,0.09854
5076.66111,0.09794
5074.73229,0.09775
5072.80346,0.09811
5070.87464,0.09859
5068.94582,0.09881
5067.01700,0.09889
5065.08817,0.09950
5063.15935,0.10063
5061.23053,0.10138
5059.30171,0.10076
5057.37288,0.09938
5055.44406,0.09879
5053.51524,0.09891
5051.58642,0.09886
5049.65759,0.09828
5047.72877,0.09747
5045.79995,0.09743
5043.87112,0.09834
5041.94230,0.09940
5040.01348,0.09978
5038.08466,0.09926
5036.15583,0.09883
5034.22701,0.09903
5032.29819,0.09942
5030.36937,0.09971
5028.44054,0.09977
5026.51172,0.09960
5024.58290,0.09931
5022.65408,0.09898
5020.72525,0.09860
5018.79643,0.09833
5016.86761,0.09843
5014.93879,0.09886
5013.00996,0.09942
5011.08114,0.09971
5009.15232,0.09961
5007.22350,0.09953
5005.29467,0.09959
5003.36585,0.09930
5001.43703,0.09866
4999.50820,0.09849
4997.57938,0.09878
4995.65056,0.09886
4993.72174,0.09880
4991.79291,0.09870
4989.86409,0.09853
4987.93527,0.09844
4986.00645,0.09852
4984.07762,0.09866
4982.14880,0.09879
4980.21998,0.09916
4978.29116,0.09976
4976.36233,0.09980
4974.43351,0.09916
4972.50469,0.09890
4970.57587,0.09928
4968.64704,0.09949
4966.71822,0.09925
4964.78940,0.09897
4962.86058,0.09898
4960.93175,0.09943
4959.00293,0.09990
4957.07411,0.09974
4955.14528,0.09904
4953.21646,0.09849
4951.28764,0.09873
4949.35882,0.09949
4947.42999,0.10002
4945.50117,0.10026
4943.57235,0.10024
4941.64353,0.09964
4939.71470,0.09902
4937.78588,0.09911
4935.85706,0.09940
4933.92824,0.09931
4931.99941,0.09901
4930.07059,0.09866
4928.14177,0.09843
4926.21295,0.09880
4924.28412,0.09980
4922.35530,0.10067
4920.42648,0.10083
4918.49766,0.10023
4916.56883,0.09938
4914.64001,0.09915
4912.71119,0.09934
4910.78236,0.09915
4908.85354,0.09898
4906.92472,0.09934
4904.99590,0.09938
4903.06707,0.09866
4901.13825,0.09818
4899.20943,0.09863
4897.28061,0.09934
4895.35178,0.09968
4893.42296,0.09967
4891.49414,0.09956
4889.56532,0.09977
4887.63649,0.10041
4885.70767,0.10087
4883.77885,0.10080
4881.85003,0.10036
4879.92120,0.09981
4877.99238,0.09941
4876.06356,0.09886
4874.13474,0.09824
4872.20591,0.09818
4870.27709,0.09873
4868.34827,0.09926
4866.41944,0.09927
4864.49062,0.09889
4862.56180,0.09911
4860.63298,0.10018
4858.70415,0.10104
4856.77533,0.10117
4854.84651,0.10093
4852.91769,0.10051
4850.98886,0.10017
4849.06004,0.10007
4847.13122,0.09996
4845.20240,0.09962
4843.27357,0.09934
4841.34475,0.09951
4839.41593,0.10025
4837.48711,0.10099
4835.55828,0.10067
4833.62946,0.09943
4831.70064,0.09855
4829.77182,0.09855
4827.84299,0.09907
4825.91417,0.09964
4823.98535,0.09995
4822.05652,0.10015
4820.12770,0.10045
4818.19888,0.10078
4816.27006,0.10108
4814.34123,0.10136
4812.41241,0.10156
4810.48359,0.10156
4808.55477,0.10106
4806.62594,0.10011
4804.69712,0.09964
4802.76830,0.10025
4800.83948,0.10125
4798.91065,0.10183
4796.98183,0.10189
4795.05301,0.10163
4793.12419,0.10112
4791.19536,0.10061
4789.26654,0.10072
4787.33772,0.10117
4785.40890,0.10118
4783.48007,0.10073
4781.55125,0.10026
4779.62243,0.10026
4777.69360,0.10095
4775.76478,0.10170
4773.83596,0.10156
4771.90714,0.10072
4769.97831,0.10030
4768.04949,0.10058
4766.12067,0.10104
4764.19185,0.10141
4762.26302,0.10154
4760.33420,0.10146
4758.40538,0.10137
4756.47656,0.10111
4754.54773,0.10081
4752.61891,0.10068
4750.69009,0.10057
4748.76127,0.10042
4746.83244,0.10028
4744.90362,0.10024
4742.97480,0.10059
4741.04598,0.10131
4739.11715,0.10175
4737.18833,0.10151
4735.25951,0.10102
4733.33068,0.10079
4731.40186,0.10101
4729.47304,0.10136
4727.54422,0.10116
4725.61539,0.10059
4723.68657,0.10035
4721.75775,0.10062
4719.82893,0.10107
4717.90010,0.10122
4715.97128,0.10092
4714.04246,0.10058
4712.11364,0.10061
4710.18481,0.10078
4708.25599,0.10078
4706.32717,0.10094
4704.39835,0.10133
4702.46952,0.10146
4700.54070,0.10134
4698.61188,0.10133
4696.68306,0.10124
4694.75423,0.10095
4692.82541,0.10076
4690.89659,0.10050
4688.96776,0.09999
4687.03894,0.09974
4685.11012,0.09991
4683.18130,0.09979
4681.25247,0.09935
4679.32365,0.09959
4677.39483,0.10020
4675.46601,0.10014
4673.53718,0.09972
4671.60836,0.09942
4669.67954,0.09919
4667.75072,0.09927
4665.82189,0.09970
4663.89307,0.10009
4661.96425,0.10003
4660.03543,0.09952
4658.10660,0.09917
4656.17778,0.09930
4654.24896,0.09949
4652.32013,0.09966
4650.39131,0.09985
4648.46249,0.09987
4646.53367,0.10008
4644.60484,0.10055
4642.67602,0.10080
4640.74720,0.10062
4638.81838,0.09991
4636.88955,0.09923
4634.96073,0.09934
4633.03191,0.09988
4631.10309,0.10001
4629.17426,0.09957
4627.24544,0.09917
4625.31662,0.09916
4623.38780,0.09935
4621.45897,0.09971
4619.53015,0.10019
4617.60133,0.10024
4615.67251,0.09998
4613.74368,0.10007
4611.81486,0.10034
4609.88604,0.10023
4607.95721,0.10001
4606.02839,0.10015
4604.09957,0.10041
4602.17075,0.10043
4600.24192,0.10031
4598.31310,0.10011
4596.38428,0.09994
4594.45546,0.09983
4592.52663,0.09975
4590.59781,0.09993
4588.66899,0.10036
4586.74017,0.10076
4584.81134,0.10091
4582.88252,0.10069
4580.95370,0.10044
4579.02488,0.10041
4577.09605,0.10033
4575.16723,0.10025
4573.23841,0.10024
4571.30959,0.10003
4569.38076,0.09981
4567.45194,0.10011
4565.52312,0.10060
4563.59429,0.10069
4561.66547,0.10066
4559.73665,0.10088
4557.80783,0.10090
4555.87900,0.10063
4553.95018,0.10060
4552.02136,0.10080
4550.09254,0.10085
4548.16371,0.10092
4546.23489,0.10116
4544.30607,0.10112
4542.37725,0.10061
4540.44842,0.10024
4538.51960,0.10037
4536.59078,0.10067
4534.66196,0.10106
4532.73313,0.10137
4530.80431,0.10112
4528.87549,0.10049
4526.94667,0.10018
4525.01784,0.10042
4523.08902,0.10063
4521.16020,0.10032
4519.23137,0.10004
4517.30255,0.10040
4515.37373,0.10093
4513.44491,0.10084
4511.51608,0.10028
4509.58726,0.09985
4507.65844,0.09983
4505.72962,0.10026
4503.80079,0.10065
4501.87197,0.10036
4499.94315,0.09975
4498.01433,0.09937
4496.08550,0.09902
4494.15668,0.09880
4492.22786,0.09926
4490.29904,0.09997
4488.37021,0.09976
4486.44139,0.09893
4484.51257,0.09849
4482.58375,0.09836
4480.65492,0.09817
4478.72610,0.09802
4476.79728,0.09798
4474.86845,0.09813
4472.93963,0.09839
4471.01081,0.09835
4469.08199,0.09802
4467.15316,0.09756
4465.22434,0.09704
4463.29552,0.09672
4461.36670,0.09689
4459.43787,0.09731
4457.50905,0.09733
4455.58023,0.09685
4453.65141,0.09641
4451.72258,0.09624
4449.79376,0.09597
4447.86494,0.09526
4445.93612,0.09445
4444.00729,0.09412
4442.07847,0.09410
4440.14965,0.09410
4438.22083,0.09414
4436.29200,0.09396
4434.36318,0.09360
4432.43436,0.09353
4430.50553,0.09365
4428.57671,0.09344
4426.64789,0.09279
4424.71907,0.09205
4422.79024,0.09155
4420.86142,0.09139
4418.93260,0.09152
4417.00378,0.09162
4415.07495,0.09143
4413.14613,0.09111
4411.21731,0.09081
4409.28849,0.09033
4407.35966,0.08970
4405.43084,0.08910
4403.50202,0.08844
4401.57320,0.08769
4399.64437,0.08703
4397.71555,0.08674
4395.78673,0.08690
4393.85791,0.08716
4391.92908,0.08701
4390.00026,0.08614
4388.07144,0.08477
4386.14261,0.08392
4384.21379,0.08394
4382.28497,0.08386
4380.35615,0.08310
4378.42732,0.08214
4376.49850,0.08164
4374.56968,0.08149
4372.64086,0.08124
4370.71203,0.08063
4368.78321,0.07972
4366.85439,0.07911
4364.92557,0.07898
4362.99674,0.07857
4361.06792,0.07770
4359.13910,0.07693
4357.21028,0.07610
4355.28145,0.07485
4353.35263,0.07350
4351.42381,0.07250
4349.49499,0.07162
4347.56616,0.07049
4345.63734,0.06948
4343.70852,0.06911
4341.77969,0.06886
4339.85087,0.06827
4337.92205,0.06768
4335.99323,0.06712
4334.06440,0.06642
4332.13558,0.06549
4330.20676,0.06438
4328.27794,0.06365
4326.34911,0.06355
4324.42029,0.06345
4322.49147,0.06304
4320.56265,0.06320
4318.63382,0.06457
4316.70500,0.06680
4314.77618,0.06929
4312.84736,0.07157
4310.91853,0.07344
4308.98971,0.07485
4307.06089,0.07576
4305.13207,0.07626
4303.20324,0.07667
4301.27442,0.07733
4299.34560,0.07810
4297.41677,0.07862
4295.48795,0.07879
4293.55913,0.07858
4291.63031,0.07808
4289.70148,0.07767
4287.77266,0.07745
4285.84384,0.07730
4283.91502,0.07704
4281.98619,0.07680
4280.05737,0.07664
4278.12855,0.07613
4276.19973,0.07533
4274.27090,0.07469
4272.34208,0.07407
4270.41326,0.07349
4268.48444,0.07317
4266.55561,0.07266
4264.62679,0.07149
4262.69797,0.07022
4260.76915,0.06932
4258.84032,0.06841
4256.91150,0.06748
4254.98268,0.06696
4253.05385,0.06679
4251.12503,0.06698
4249.19621,0.06787
4247.26739,0.06939
4245.33856,0.07083
4243.40974,0.07192
4241.48092,0.07279
4239.55210,0.07337
4237.62327,0.07358
4235.69445,0.07362
4233.76563,0.07380
4231.83681,0.07414
4229.90798,0.07409
4227.97916,0.07340
4226.05034,0.07262
4224.12152,0.07243
4222.19269,0.07280
4220.26387,0.07303
4218.33505,0.07285
4216.40623,0.07253
4214.47740,0.07214
4212.54858,0.07195
4210.61976,0.07233
4208.69093,0.07277
4206.76211,0.07256
4204.83329,0.07191
4202.90447,0.07144
4200.97564,0.07117
4199.04682,0.07078
4197.11800,0.07029
4195.18918,0.06993
4193.26035,0.06975
4191.33153,0.06960
4189.40271,0.06940
4187.47389,0.06918
4185.54506,0.06913
4183.61624,0.06956
4181.68742,0.07023
4179.75860,0.07047
4177.82977,0.07032
4175.90095,0.07014
4173.97213,0.06978
4172.04331,0.06919
4170.11448,0.06898
4168.18566,0.06942
4166.25684,0.07004
4164.32801,0.07047
4162.39919,0.07081
4160.47037,0.07092
4158.54155,0.07053
4156.61272,0.07009
4154.68390,0.07008
4152.75508,0.07016
4150.82626,0.07003
4148.89743,0.07012
4146.96861,0.07053
4145.03979,0.07068
4143.11097,0.07077
4141.18214,0.07113
4139.25332,0.07118
4137.32450,0.07085
4135.39568,0.07069
4133.46685,0.07071
4131.53803,0.07080
4129.60921,0.07134
4127.68039,0.07228
4125.75156,0.07288
4123.82274,0.07276
4121.89392,0.07223
4119.96509,0.07176
4118.03627,0.07163
4116.10745,0.07193
4114.17863,0.07212
4112.24980,0.07174
4110.32098,0.07146
4108.39216,0.07166
4106.46334,0.07179
4104.53451,0.07185
4102.60569,0.07209
4100.67687,0.07219
4098.74805,0.07213
4096.81922,0.07239
4094.89040,0.07288
4092.96158,0.07318
4091.03276,0.07324
4089.10393,0.07335
4087.17511,0.07372
4085.24629,0.07428
4083.31747,0.07496
4081.38864,0.07573
4079.45982,0.07614
4077.53100,0.07636
4075.60217,0.07691
4073.67335,0.07730
4071.74453,0.07722
4069.81571,0.07730
4067.88688,0.07766
4065.95806,0.07787
4064.02924,0.07795
4062.10042,0.07825
4060.17159,0.07864
4058.24277,0.07887
4056.31395,0.07907
4054.38513,0.07922
4052.45630,0.07922
4050.52748,0.07911
4048.59866,0.07901
4046.66984,0.07903
4044.74101,0.07916
4042.81219,0.07942
4040.88337,0.07973
4038.95455,0.07978
4037.02572,0.07967
4035.09690,0.07958
4033.16808,0.07943
4031.23925,0.07949
4029.31043,0.07977
4027.38161,0.07993
4025.45279,0.08024
4023.52396,0.08081
4021.59514,0.08109
4019.66632,0.08100
4017.73750,0.08106
4015.80867,0.08154
4013.87985,0.08214
4011.95103,0.08251
4010.02221,0.08289
4008.09338,0.08354
4006.16456,0.08411
4004.23574,0.08433
4002.30692,0.08430
4000.37809,0.08408
3998.44927,0.08384
3996.52045,0.08384
3994.59163,0.08383
3992.66280,0.08340
3990.73398,0.08287
3988.80516,0.08270
3986.87633,0.08267
3984.94751,0.08254
3983.01869,0.08250
3981.08987,0.08260
3979.16104,0.08260
3977.23222,0.08255
3975.30340,0.08252
3973.37458,0.08236
3971.44575,0.08224
3969.51693,0.08243
3967.58811,0.08279
3965.65929,0.08308
3963.73046,0.08334
3961.80164,0.08382
3959.87282,0.08441
3957.94400,0.08467
3956.01517,0.08447
3954.08635,0.08406
3952.15753,0.08377
3950.22870,0.08379
3948.29988,0.08386
3946.37106,0.08378
3944.44224,0.08373
3942.51341,0.08366
3940.58459,0.08338
3938.65577,0.08318
3936.72695,0.08336
3934.79812,0.08361
3932.86930,0.08338
3930.94048,0.08301
3929.01166,0.08299
3927.08283,0.08284
3925.15401,0.08249
3923.22519,0.08273
3921.29637,0.08357
3919.36754,0.08411
3917.43872,0.08393
3915.50990,0.08348
3913.58108,0.08329
3911.65225,0.08348
3909.72343,0.08381
3907.79461,0.08390
3905.86578,0.08379
3903.93696,0.08364
3902.00814,0.08340
3900.07932,0.08323
3898.15049,0.08331
3896.22167,0.08359
3894.29285,0.08391
3892.36403,0.08414
3890.43520,0.08439
3888.50638,0.08483
3886.57756,0.08518
3884.64874,0.08512
3882.71991,0.08479
3880.79109,0.08452
3878.86227,0.08472
3876.93345,0.08508
3875.00462,0.08508
3873.07580,0.08488
3871.14698,0.08478
3869.21816,0.08485
3867.28933,0.08508
3865.36051,0.08546
3863.43169,0.08610
3861.50286,0.08660
3859.57404,0.08670
3857.64522,0.08697
3855.71640,0.08757
3853.78757,0.08740
3851.85875,0.08660
3849.92993,0.08669
3848.00111,0.08709
3846.07228,0.08740
3844.14346,0.08749
3842.21464,0.08726
3840.28582,0.08706
3838.35699,0.08739
3836.42817,0.08772
3834.49935,0.08764
3832.57053,0.08767
3830.64170,0.08799
3828.71288,0.08818
3826.78406,0.08803
3824.85524,0.08774
3822.92641,0.08745
3820.99759,0.08715
3819.06877,0.08715
3817.13994,0.08718
3815.21112,0.08714
3813.28230,0.08740
3811.35348,0.08768
3809.42465,0.08772
3807.49583,0.08776
3805.56701,0.08798
3803.63819,0.08774
3801.70936,0.08729
3799.78054,0.08783
3797.85172,0.08861
3795.92290,0.08893
3793.99407,0.08913
3792.06525,0.08943
3790.13643,0.08974
3788.20761,0.08987
3786.27878,0.08969
3784.34996,0.08949
3782.42114,0.08960
3780.49232,0.08973
3778.56349,0.08972
3776.63467,0.08988
3774.70585,0.09024
3772.77702,0.09055
3770.84820,0.09055
3768.91938,0.09017
3766.99056,0.08976
3765.06173,0.08956
3763.13291,0.08950
3761.20409,0.08942
3759.27527,0.08954
3757.34644,0.09010
3755.41762,0.09066
3753.48880,0.09081
3751.55998,0.09043
3749.63115,0.09027
3747.70233,0.09050
3745.77351,0.09023
3743.84469,0.08967
3741.91586,0.08954
3739.98704,0.08951
3738.05822,0.08951
3736.12940,0.08971
3734.20057,0.08974
3732.27175,0.08935
3730.34293,0.08906
3728.41410,0.08908
3726.48528,0.08920
3724.55646,0.08924
3722.62764,0.08922
3720.69881,0.08917
3718.76999,0.08911
3716.84117,0.08902
3714.91235,0.08890
3712.98352,0.08851
3711.05470,0.08777
3709.12588,0.08746
3707.19706,0.08773
3705.26823,0.08807
3703.33941,0.08789
3701.41059,0.08731
3699.48177,0.08707
3697.55294,0.08695
3695.62412,0.08685
3693.69530,0.08691
3691.76648,0.08694
3689.83765,0.08673
3687.90883,0.08628
3685.98001,0.08589
3684.05118,0.08581
3682.12236,0.08616
3680.19354,0.08669
3678.26472,0.08677
3676.33589,0.08615
3674.40707,0.08571
3672.47825,0.08581
3670.54943,0.08589
3668.62060,0.08571
3666.69178,0.08521
3664.76296,0.08477
3662.83414,0.08482
3660.90531,0.08507
3658.97649,0.08495
3657.04767,0.08450
3655.11885,0.08436
3653.19002,0.08461
3651.26120,0.08476
3649.33238,0.08431
3647.40356,0.08355
3645.47473,0.08320
3643.54591,0.08327
3641.61709,0.08359
3639.68826,0.08389
3637.75944,0.08400
3635.83062,0.08410
3633.90180,0.08439
3631.97297,0.08462
3630.04415,0.08429
3628.11533,0.08389
3626.18651,0.08437
3624.25768,0.08477
3622.32886,0.08460
3620.40004,0.08404
3618.47122,0.08375
3616.54239,0.08361
3614.61357,0.08284
3612.68475,0.08185
3610.75593,0.08137
3608.82710,0.08110
3606.89828,0.08096
3604.96946,0.08102
3603.04064,0.08125
3601.11181,0.08201
3599.18299,0.08345
3597.25417,0.08492
3595.32534,0.08623
3593.39652,0.08747
3591.46770,0.08848
3589.53888,0.08919
3587.61005,0.08948
3585.68123,0.08955
3583.75241,0.08994
3581.82359,0.09058
3579.89476,0.09102
3577.96594,0.09116
3576.03712,0.09125
3574.10830,0.09125
3572.17947,0.09122
3570.25065,0.09122
3568.32183,0.09086
3566.39301,0.09048
3564.46418,0.09099
3562.53536,0.09165
3560.60654,0.09177
3558.67772,0.09162
3556.74889,0.09170
3554.82007,0.09202
3552.89125,0.09226
3550.96242,0.09248
3549.03360,0.09279
3547.10478,0.09294
3545.17596,0.09297
3543.24713,0.09277
3541.31831,0.09212
3539.38949,0.09168
3537.46067,0.09184
3535.53184,0.09210
3533.60302,0.09220
3531.67420,0.09222
3529.74538,0.09213
3527.81655,0.09183
3525.88773,0.09154
3523.95891,0.09156
3522.03009,0.09177
3520.10126,0.09199
3518.17244,0.09213
3516.24362,0.09210
3514.31480,0.09207
3512.38597,0.09207
3510.45715,0.09185
3508.52833,0.09139
3506.59950,0.09108
3504.67068,0.09121
3502.74186,0.09163
3500.81304,0.09172
3498.88421,0.09141
3496.95539,0.09126
3495.02657,0.09145
3493.09775,0.09160
3491.16892,0.09149
3489.24010,0.09114
3487.31128,0.09046
3485.38246,0.08953
3483.45363,0.08881
3481.52481,0.08864
3479.59599,0.08851
3477.66717,0.08783
3475.73834,0.08681
3473.80952,0.08592
3471.88070,0.08492
3469.95188,0.08347
3468.02305,0.08206
3466.09423,0.08106
3464.16541,0.08006
3462.23658,0.07901
3460.30776,0.07829
3458.37894,0.07791
3456.45012,0.07776
3454.52129,0.07798
3452.59247,0.07867
3450.66365,0.07953
3448.73483,0.08012
3446.80600,0.08046
3444.87718,0.08097
3442.94836,0.08183
3441.01954,0.08305
3439.09071,0.08429
3437.16189,0.08508
3435.23307,0.08556
3433.30425,0.08612
3431.37542,0.08677
3429.44660,0.08738
3427.51778,0.08796
3425.58896,0.08843
3423.66013,0.08863
3421.73131,0.08865
3419.80249,0.08856
3417.87366,0.08850
3415.94484,0.08869
3414.01602,0.08920
3412.08720,0.08954
3410.15837,0.08929
3408.22955,0.08878
3406.30073,0.08858
3404.37191,0.08891
3402.44308,0.08954
3400.51426,0.08986
3398.58544,0.08961
3396.65662,0.08932
3394.72779,0.08946
3392.79897,0.08971
3390.87015,0.08972
3388.94133,0.08965
3387.01250,0.08966
3385.08368,0.08963
3383.15486,0.08928
3381.22604,0.08881
3379.29721,0.08867
3377.36839,0.08873
3375.43957,0.08878
3373.51074,0.08875
3371.58192,0.08853
3369.65310,0.08829
3367.72428,0.08845
3365.79545,0.08896
3363.86663,0.08914
3361.93781,0.08891
3360.00899,0.08892
3358.08016,0.08924
3356.15134,0.08956
3354.22252,0.08985
3352.29370,0.08998
3350.36487,0.08994
3348.43605,0.08980
3346.50723,0.08951
3344.57841,0.08931
3342.64958,0.08950
3340.72076,0.08986
3338.79194,0.09010
3336.86312,0.09023
3334.93429,0.09022
3333.00547,0.09000
3331.07665,0.08978
3329.14782,0.08971
3327.21900,0.08966
3325.29018,0.08966
3323.36136,0.08994
3321.43253,0.09035
3319.50371,0.09033
3317.57489,0.09011
3315.64607,0.09021
3313.71724,0.09029
3311.78842,0.08988
3309.85960,0.08929
3307.93078,0.08914
3306.00195,0.08919
3304.07313,0.08895
3302.14431,0.08864
3300.21549,0.08855
3298.28666,0.08866
3296.35784,0.08897
3294.42902,0.08924
3292.50020,0.08915
3290.57137,0.08876
3288.64255,0.08856
3286.71373,0.08873
3284.78490,0.08886
3282.85608,0.08868
3280.92726,0.08849
3278.99844,0.08842
3277.06961,0.08836
3275.14079,0.08838
3273.21197,0.08853
3271.28315,0.08866
3269.35432,0.08855
3267.42550,0.08821
3265.49668,0.08806
3263.56786,0.08827
3261.63903,0.08842
3259.71021,0.08827
3257.78139,0.08792
3255.85257,0.08782
3253.92374,0.08822
3251.99492,0.08856
3250.06610,0.08840
3248.13728,0.08808
3246.20845,0.08794
3244.27963,0.08795
3242.35081,0.08799
3240.42198,0.08786
3238.49316,0.08748
3236.56434,0.08719
3234.63552,0.08730
3232.70669,0.08746
3230.77787,0.08722
3228.84905,0.08690
3226.92023,0.08693
3224.99140,0.08714
3223.06258,0.08737
3221.13376,0.08756
3219.20494,0.08755
3217.27611,0.08743
3215.34729,0.08717
3213.41847,0.08658
3211.48965,0.08599
3209.56082,0.08594
3207.63200,0.08642
3205.70318,0.08687
3203.77435,0.08687
3201.84553,0.08651
3199.91671,0.08625
3197.98789,0.08629
3196.05906,0.08628
3194.13024,0.08603
3192.20142,0.08581
3190.27260,0.08568
3188.34377,0.08540
3186.41495,0.08508
3184.48613,0.08521
3182.55731,0.08562
3180.62848,0.08568
3178.69966,0.08549
3176.77084,0.08529
3174.84202,0.08498
3172.91319,0.08465
3170.98437,0.08455
3169.05555,0.08474
3167.12673,0.08501
3165.19790,0.08483
3163.26908,0.08423
3161.34026,0.08380
3159.41143,0.08381
3157.48261,0.08392
3155.55379,0.08385
3153.62497,0.08369
3151.69614,0.08353
3149.76732,0.08332
3147.83850,0.08298
3145.90968,0.08270
3143.98085,0.08269
3142.05203,0.08280
3140.12321,0.08274
3138.19439,0.08232
3136.26556,0.08169
3134.33674,0.08124
3132.40792,0.08109
3130.47910,0.08091
3128.55027,0.08051
3126.62145,0.08010
3124.69263,0.07980
3122.76381,0.07942
3120.83498,0.07876
3118.90616,0.07800
3116.97734,0.07740
3115.04851,0.07688
3113.11969,0.07647
3111.19087,0.07617
3109.26205,0.07588
3107.33322,0.07548
3105.40440,0.07486
3103.47558,0.07412
3101.54676,0.07335
3099.61793,0.07235
3097.68911,0.07115
3095.76029,0.07016
3093.83147,0.06954
3091.90264,0.06904
3089.97382,0.06853
3088.04500,0.06797
3086.11618,0.06734
3084.18735,0.06669
3082.25853,0.06611
3080.32971,0.06565
3078.40089,0.06520
3076.47206,0.06482
3074.54324,0.06467
3072.61442,0.06458
3070.68559,0.06420
3068.75677,0.06352
3066.82795,0.06290
3064.89913,0.06246
3062.97030,0.06198
3061.04148,0.06155
3059.11266,0.06131
3057.18384,0.06102
3055.25501,0.06061
3053.32619,0.06036
3051.39737,0.06011
3049.46855,0.05963
3047.53972,0.05911
3045.61090,0.05867
3043.68208,0.05821
3041.75326,0.05793
3039.82443,0.05789
3037.89561,0.05781
3035.96679,0.05744
3034.03797,0.05682
3032.10914,0.05633
3030.18032,0.05605
3028.25150,0.05590
3026.32267,0.05591
3024.39385,0.05591
3022.46503,0.05570
3020.53621,0.05547
3018.60738,0.05538
3016.67856,0.05532
3014.74974,0.05511
3012.82092,0.05480
3010.89209,0.05462
3008.96327,0.05460
3007.03445,0.05452
3005.10563,0.05432
3003.17680,0.05422
3001.24798,0.05417
2999.31916,0.05407
2997.39034,0.05402
2995.46151,0.05390
2993.53269,0.05350
2991.60387,0.05293
2989.67505,0.05251
2987.74622,0.05222
2985.81740,0.05188
2983.88858,0.05151
2981.95975,0.05114
2980.03093,0.05077
2978.10211,0.05043
2976.17329,0.04999
2974.24446,0.04949
2972.31564,0.04912
2970.38682,0.04900
2968.45800,0.04905
2966.52917,0.04890
2964.60035,0.04829
2962.67153,0.04763
2960.74271,0.04741
2958.81388,0.04745
2956.88506,0.04733
2954.95624,0.04695
2953.02742,0.04644
2951.09859,0.04569
2949.16977,0.04461
2947.24095,0.04352
2945.31213,0.04265
2943.38330,0.04184
2941.45448,0.04103
2939.52566,0.04026
2937.59683,0.03960
2935.66801,0.03920
2933.73919,0.03932
2931.81037,0.04010
2929.88154,0.04165
2927.95272,0.04432
2926.02390,0.04851
2924.09508,0.05464
2922.16625,0.06276
2920.23743,0.07192
2918.30861,0.08029
2916.37979,0.08572
2914.45096,0.08699
2912.52214,0.08493
2910.59332,0.08144
2908.66450,0.07799
2906.73567,0.07526
2904.80685,0.07334
2902.87803,0.07198
2900.94921,0.07098
2899.02038,0.07025
2897.09156,0.06973
2895.16274,0.06923
2893.23391,0.06871
2891.30509,0.06819
2889.37627,0.06758
2887.44745,0.06691
2885.51862,0.06620
2883.58980,0.06549
2881.66098,0.06490
2879.73216,0.06443
2877.80333,0.06382
2875.87451,0.06303
2873.94569,0.06230
2872.01687,0.06159
2870.08804,0.06067
2868.15922,0.05959
2866.23040,0.05828
2864.30158,0.05666
2862.37275,0.05506
2860.44393,0.05393
2858.51511,0.05337
2856.58629,0.05378
2854.65746,0.05622
2852.72864,0.06182
2850.79982,0.07031
2848.87099,0.07876
2846.94217,0.08340
2845.01335,0.08348
2843.08453,0.08130
2841.15570,0.07888
2839.22688,0.07674
2837.29806,0.07473
2835.36924,0.07290
2833.44041,0.07145
2831.51159,0.07031
2829.58277,0.06937
2827.65395,0.06867
2825.72512,0.06819
2823.79630,0.06779
2821.86748,0.06751
2819.93866,0.06738
2818.00983,0.06723
2816.08101,0.06715
2814.15219,0.06733
2812.22337,0.06765
2810.29454,0.06786
2808.36572,0.06781
2806.43690,0.06758
2804.50807,0.06737
2802.57925,0.06734
2800.65043,0.06759
2798.72161,0.06791
2796.79278,0.06791
2794.86396,0.06767
2792.93514,0.06758
2791.00632,0.06759
2789.07749,0.06749
2787.14867,0.06742
2785.21985,0.06751
2783.29103,0.06776
2781.36220,0.06806
2779.43338,0.06816
2777.50456,0.06804
2775.57574,0.06791
2773.64691,0.06794
2771.71809,0.06807
2769.78927,0.06805
2767.86045,0.06786
2765.93162,0.06773
2764.00280,0.06780
2762.07398,0.06791
2760.14515,0.06785
2758.21633,0.06756
2756.28751,0.06711
2754.35869,0.06679
2752.42986,0.06686
2750.50104,0.06714
2748.57222,0.06726
2746.64340,0.06711
2744.71457,0.06688
2742.78575,0.06670
2740.85693,0.06657
2738.92811,0.06656
2736.99928,0.06660
2735.07046,0.06656
2733.14164,0.06643
2731.21282,0.06631
2729.28399,0.06626
2727.35517,0.06629
2725.42635,0.06636
2723.49753,0.06637
2721.56870,0.06643
2719.63988,0.06658
2717.71106,0.06666
2715.78223,0.06673
2713.85341,0.06691
2711.92459,0.06705
2709.99577,0.06701
2708.06694,0.06682
2706.13812,0.06681
2704.20930,0.06714
2702.28048,0.06756
2700.35165,0.06783
2698.42283,0.06786
2696.49401,0.06762
2694.56519,0.06728
2692.63636,0.06696
2690.70754,0.06670
2688.77872,0.06657
2686.84990,0.06656
2684.92107,0.06655
2682.99225,0.06654
2681.06343,0.06657
2679.13461,0.06656
2677.20578,0.06635
2675.27696,0.06612
2673.34814,0.06612
2671.41931,0.06627
2669.49049,0.06644
2667.56167,0.06668
2665.63285,0.06693
2663.70402,0.06705
2661.77520,0.06719
2659.84638,0.06746
2657.91756,0.06762
2655.98873,0.06762
2654.05991,0.06776
2652.13109,0.06806
2650.20227,0.06823
2648.27344,0.06830
2646.34462,0.06847
2644.41580,0.06865
2642.48698,0.06869
2640.55815,0.06870
2638.62933,0.06880
2636.70051,0.06893
2634.77169,0.06904
2632.84286,0.06914
2630.91404,0.06940
2628.98522,0.06983
2627.05639,0.07024
2625.12757,0.07058
2623.19875,0.07087
2621.26993,0.07109
2619.34110,0.07135
2617.41228,0.07169
2615.48346,0.07211
2613.55464,0.07266
2611.62581,0.07316
2609.69699,0.07349
2607.76817,0.07374
2605.83935,0.07388
2603.91052,0.07395
2601.98170,0.07415
2600.05288,0.07453
2598.12406,0.07497
2596.19523,0.07531
2594.26641,0.07562
2592.33759,0.07606
2590.40877,0.07651
2588.47994,0.07678
2586.55112,0.07697
2584.62230,0.07732
2582.69347,0.07782
2580.76465,0.07826
2578.83583,0.07852
2576.90701,0.07877
2574.97818,0.07919
2573.04936,0.07965
2571.12054,0.08000
2569.19172,0.08035
2567.26289,0.08060
2565.33407,0.08059
2563.40525,0.08047
2561.47643,0.08056
2559.54760,0.08082
2557.61878,0.08107
2555.68996,0.08133
2553.76114,0.08161
2551.83231,0.08181
2549.90349,0.08186
2547.97467,0.08190
2546.04585,0.08209
2544.11702,0.08236
2542.18820,0.08251
2540.25938,0.08251
2538.33055,0.08244
2536.40173,0.08242
2534.47291,0.08243
2532.54409,0.08234
2530.61526,0.08223
2528.68644,0.08220
2526.75762,0.08223
2524.82880,0.08243
2522.89997,0.08284
2520.97115,0.08328
2519.04233,0.08372
2517.11351,0.08423
2515.18468,0.08476
2513.25586,0.08523
2511.32704,0.08560
2509.39822,0.08584
2507.46939,0.08591
2505.54057,0.08583
2503.61175,0.08574
2501.68292,0.08573
2499.75410,0.08573
2497.82528,0.08581
2495.89646,0.08597
2493.96763,0.08596
2492.03881,0.08581
2490.10999,0.08582
2488.18117,0.08588
2486.25234,0.08573
2484.32352,0.08543
2482.39470,0.08533
2480.46588,0.08553
2478.53705,0.08574
2476.60823,0.08577
2474.67941,0.08577
2472.75059,0.08595
2470.82176,0.08644
2468.89294,0.08709
2466.96412,0.08763
2465.03530,0.08802
2463.10647,0.08846
2461.17765,0.08895
2459.24883,0.08920
2457.32000,0.08933
2455.39118,0.08974
2453.46236,0.09045
2451.53354,0.09126
2449.60471,0.09176
2447.67589,0.09167
2445.74707,0.09145
2443.81825,0.09161
2441.88942,0.09191
2439.96060,0.09217
2438.03178,0.09249
2436.10296,0.09282
2434.17413,0.09304
2432.24531,0.09307
2430.31649,0.09276
2428.38767,0.09222
2426.45884,0.09170
2424.53002,0.09134
2422.60120,0.09110
2420.67238,0.09094
2418.74355,0.09098
2416.81473,0.09125
2414.88591,0.09147
2412.95708,0.09156
2411.02826,0.09157
2409.09944,0.09150
2407.17062,0.09145
2405.24179,0.09141
2403.31297,0.09132
2401.38415,0.09119
2399.45533,0.09110
2397.52650,0.09115
2395.59768,0.09141
2393.66886,0.09178
2391.74004,0.09192
2389.81121,0.09181
2387.88239,0.09162
2385.95357,0.09131
2384.02475,0.09081
2382.09592,0.09020
2380.16710,0.08988
2378.23828,0.09009
2376.30946,0.09055
2374.38063,0.09090
2372.45181,0.09090
2370.52299,0.09049
2368.59416,0.08986
2366.66534,0.08938
2364.73652,0.08917
2362.80770,0.08877
2360.87887,0.08788
2358.95005,0.08687
2357.02123,0.08621
2355.09241,0.08588
2353.16358,0.08561
2351.23476,0.08540
2349.30594,0.08519
2347.37712,0.08464
2345.44829,0.08369
2343.51947,0.08269
2341.59065,0.08195
2339.66183,0.08171
2337.73300,0.08194
2335.80418,0.08223
2333.87536,0.08235
2331.94654,0.08229
2330.01771,0.08207
2328.08889,0.08169
2326.16007,0.08130
2324.23124,0.08119
2322.30242,0.08144
2320.37360,0.08176
2318.44478,0.08194
2316.51595,0.08207
2314.58713,0.08223
2312.65831,0.08244
2310.72949,0.08268
2308.80066,0.08284
2306.87184,0.08280
2304.94302,0.08268
2303.01420,0.08261
2301.08537,0.08267
2299.15655,0.08298
2297.22773,0.08351
2295.29891,0.08399
2293.37008,0.08425
2291.44126,0.08440
2289.51244,0.08449
2287.58362,0.08454
2285.65479,0.08457
2283.72597,0.08460
2281.79715,0.08457
2279.86832,0.08457
2277.93950,0.08481
2276.01068,0.08528
2274.08186,0.08574
2272.15303,0.08614
2270.22421,0.08660
2268.29539,0.08703
2266.36657,0.08717
2264.43774,0.08705
2262.50892,0.08691
2260.58010,0.08683
2258.65128,0.08686
2256.72245,0.08715
2254.79363,0.08765
2252.86481,0.08820
2250.93599,0.08876
2249.00716,0.08913
2247.07834,0.08917
2245.14952,0.08908
2243.22070,0.08908
2241.29187,0.08933
2239.36305,0.08989
2237.43423,0.09059
2235.50540,0.09131
2233.57658,0.09206
2231.64776,0.09271
2229.71894,0.09306
2227.79011,0.09316
2225.86129,0.09310
2223.93247,0.09292
2222.00365,0.09275
2220.07482,0.09268
2218.14600,0.09275
2216.21718,0.09318
2214.28836,0.09398
2212.35953,0.09467
2210.43071,0.09485
2208.50189,0.09465
2206.57307,0.09427
2204.64424,0.09385
2202.71542,0.09353
2200.78660,0.09336
2198.85778,0.09335
2196.92895,0.09345
2195.00013,0.09355
2193.07131,0.09368
2191.14248,0.09386
2189.21366,0.09384
2187.28484,0.09340
2185.35602,0.09276
2183.42719,0.09224
2181.49837,0.09184
2179.56955,0.09158
2177.64073,0.09155
2175.71190,0.09176
2173.78308,0.09209
2171.85426,0.09238
2169.92544,0.09245
2167.99661,0.09227
2166.06779,0.09185
2164.13897,0.09120
2162.21015,0.09060
2160.28132,0.09044
2158.35250,0.09062
2156.42368,0.09073
2154.49486,0.09078
2152.56603,0.09105
2150.63721,0.09143
2148.70839,0.09162
2146.77956,0.09156
2144.85074,0.09139
2142.92192,0.09121
2140.99310,0.09116
2139.06427,0.09141
2137.13545,0.09189
2135.20663,0.09247
2133.27781,0.09316
2131.34898,0.09389
2129.42016,0.09439
2127.49134,0.09439
2125.56252,0.09401
2123.63369,0.09357
2121.70487,0.09307
2119.77605,0.09255
2117.84723,0.09232
2115.91840,0.09257
2113.98958,0.09312
2112.06076,0.09364
2110.13194,0.09387
2108.20311,0.09378
2106.27429,0.09347
2104.34547,0.09296
2102.41664,0.09235
2100.48782,0.09183
2098.55900,0.09149
2096.63018,0.09134
2094.70135,0.09146
2092.77253,0.09176
2090.84371,0.09209
2088.91489,0.09228
2086.98606,0.09220
2085.05724,0.09186
2083.12842,0.09130
2081.19960,0.09058
2079.27077,0.08990
2077.34195,0.08953
2075.41313,0.08953
2073.48431,0.08975
2071.55548,0.09008
2069.62666,0.09031
2067.69784,0.09019
2065.76902,0.08970
2063.84019,0.08905
2061.91137,0.08848
2059.98255,0.08803
2058.05372,0.08766
2056.12490,0.08737
2054.19608,0.08717
2052.26726,0.08710
2050.33843,0.08716
2048.40961,0.08731
2046.48079,0.08746
2044.55197,0.08731
2042.62314,0.08664
2040.69432,0.08567
2038.76550,0.08497
2036.83668,0.08478
2034.90785,0.08475
2032.97903,0.08451
2031.05021,0.08431
2029.12139,0.08442
2027.19256,0.08448
2025.26374,0.08410
2023.33492,0.08341
2021.40610,0.08275
2019.47727,0.08234
2017.54845,0.08242
2015.61963,0.08318
2013.69080,0.08439
2011.76198,0.08573
2009.83316,0.08697
2007.90434,0.08802
2005.97551,0.08894
2004.04669,0.08963
2002.11787,0.08987
2000.18905,0.08976
1998.26022,0.08963
1996.33140,0.08977
1994.40258,0.09022
1992.47376,0.09073
1990.54493,0.09122
1988.61611,0.09186
1986.68729,0.09252
1984.75847,0.09288
1982.82964,0.09280
1980.90082,0.09238
1978.97200,0.09196
1977.04318,0.09181
1975.11435,0.09189
1973.18553,0.09210
1971.25671,0.09248
1969.32788,0.09298
1967.39906,0.09338
1965.47024,0.09342
1963.54142,0.09316
1961.61259,0.09271
1959.68377,0.09217
1957.75495,0.09174
1955.82613,0.09155
1953.89730,0.09163
1951.96848,0.09199
1950.03966,0.09251
1948.11084,0.09301
1946.18201,0.09335
1944.25319,0.09339
1942.32437,0.09302
1940.39555,0.09243
1938.46672,0.09187
1936.53790,0.09150
1934.60908,0.09144
1932.68026,0.09158
1930.75143,0.09180
1928.82261,0.09208
1926.89379,0.09220
1924.96496,0.09196
1923.03614,0.09146
1921.10732,0.09091
1919.17850,0.09030
1917.24967,0.08972
1915.32085,0.08949
1913.39203,0.08945
1911.46321,0.08928
1909.53438,0.08912
1907.60556,0.08902
1905.67674,0.08880
1903.74792,0.08824
1901.81909,0.08732
1899.89027,0.08630
1897.96145,0.08543
1896.03263,0.08489
1894.10380,0.08483
1892.17498,0.08524
1890.24616,0.08595
1888.31734,0.08657
1886.38851,0.08685
1884.45969,0.08686
1882.53087,0.08650
1880.60204,0.08566
1878.67322,0.08470
1876.74440,0.08404
1874.81558,0.08379
1872.88675,0.08389
1870.95793,0.08418
1869.02911,0.08432
1867.10029,0.08412
1865.17146,0.08380
1863.24264,0.08342
1861.31382,0.08292
1859.38500,0.08243
1857.45617,0.08211
1855.52735,0.08212
1853.59853,0.08251
1851.66971,0.08307
1849.74088,0.08349
1847.81206,0.08371
1845.88324,0.08362
1843.95442,0.08301
1842.02559,0.08226
1840.09677,0.08171
1838.16795,0.08119
1836.23912,0.08071
1834.31030,0.08051
1832.38148,0.08051
1830.45266,0.08037
1828.52383,0.08001
1826.59501,0.07954
1824.66619,0.07866
1822.73737,0.07751
1820.80854,0.07664
1818.87972,0.07620
1816.95090,0.07606
1815.02208,0.07602
1813.09325,0.07604
1811.16443,0.07603
1809.23561,0.07575
1807.30679,0.07510
1805.37796,0.07424
1803.44914,0.07346
1801.52032,0.07283
1799.59150,0.07234
1797.66267,0.07210
1795.73385,0.07199
1793.80503,0.07173
1791.87620,0.07104
1789.94738,0.07017
1788.01856,0.06949
1786.08974,0.06886
1784.16091,0.06827
1782.23209,0.06790
1780.30327,0.06767
1778.37445,0.06755
1776.44562,0.06741
1774.51680,0.06680
1772.58798,0.06536
1770.65916,0.06416
1768.73033,0.06376
1766.80151,0.06345
1764.87269,0.06320
1762.94387,0.06300
1761.01504,0.06288
1759.08622,0.06317
1757.15740,0.06389
1755.22857,0.06490
1753.29975,0.06614
1751.37093,0.06770
1749.44211,0.06958
1747.51328,0.07150
1745.58446,0.07296
1743.65564,0.07336
1741.72682,0.07222
1739.79799,0.06923
1737.86917,0.06569
1735.94035,0.06252
1734.01153,0.05880
1732.08270,0.05604
1730.15388,0.05506
1728.22506,0.05468
1726.29624,0.05468
1724.36741,0.05497
1722.43859,0.05548
1720.50977,0.05619
1718.58095,0.05687
1716.65212,0.05707
1714.72330,0.05742
1712.79448,0.05819
1710.86565,0.05884
1708.93683,0.05911
1707.00801,0.05916
1705.07919,0.05927
1703.15036,0.05934
1701.22154,0.05920
1699.29272,0.05927
1697.36390,0.05966
1695.43507,0.05991
1693.50625,0.06027
1691.57743,0.06093
1689.64861,0.06189
1687.71978,0.06311
1685.79096,0.06465
1683.86214,0.06665
1681.93332,0.06797
1680.00449,0.06875
1678.07567,0.06946
1676.14685,0.06986
1674.21803,0.06991
1672.28920,0.06999
1670.36038,0.07029
1668.43156,0.07079
1666.50273,0.07109
1664.57391,0.07102
1662.64509,0.07067
1660.71627,0.07035
1658.78744,0.07028
1656.85862,0.07038
1654.92980,0.07027
1653.00098,0.06910
1651.07215,0.06823
1649.14333,0.06802
1647.21451,0.06807
1645.28569,0.06912
1643.35686,0.07054
1641.42804,0.07187
1639.49922,0.07306
1637.57040,0.07406
1635.64157,0.07481
1633.71275,0.07530
1631.78393,0.07583
1629.85511,0.07648
1627.92628,0.07713
1625.99746,0.07759
1624.06864,0.07766
1622.13981,0.07741
1620.21099,0.07729
1618.28217,0.07732
1616.35335,0.07741
1614.42452,0.07783
1612.49570,0.07844
1610.56688,0.07882
1608.63806,0.07868
1606.70923,0.07821
1604.78041,0.07788
1602.85159,0.07779
1600.92277,0.07776
1598.99394,0.07771
1597.06512,0.07763
1595.13630,0.07767
1593.20748,0.07782
1591.27865,0.07784
1589.34983,0.07774
1587.42101,0.07759
1585.49219,0.07739
1583.56336,0.07721
1581.63454,0.07706
1579.70572,0.07690
1577.77689,0.07668
1575.84807,0.07644
1573.91925,0.07637
1571.99043,0.07628
1570.06160,0.07596
1568.13278,0.07562
1566.20396,0.07540
1564.27514,0.07537
1562.34631,0.07575
1560.41749,0.07622
1558.48867,0.07571
1556.55985,0.07519
1554.63102,0.07545
1552.70220,0.07576
1550.77338,0.07576
1548.84456,0.07555
1546.91573,0.07552
1544.98691,0.07569
1543.05809,0.07560
1541.12927,0.07482
1539.20044,0.07455
1537.27162,0.07507
1535.34280,0.07536
1533.41397,0.07525
1531.48515,0.07499
1529.55633,0.07461
1527.62751,0.07396
1525.69868,0.07320
1523.76986,0.07252
1521.84104,0.07206
1519.91222,0.07241
1517.98339,0.07260
1516.05457,0.07210
1514.12575,0.07172
1512.19693,0.07154
1510.26810,0.07121
1508.33928,0.07034
1506.41046,0.06902
1504.48164,0.06875
1502.55281,0.06871
1500.62399,0.06832
1498.69517,0.06740
1496.76635,0.06600
1494.83752,0.06502
1492.90870,0.06462
1490.97988,0.06408
1489.05105,0.06280
1487.12223,0.06113
1485.19341,0.05967
1483.26459,0.05830
1481.33576,0.05675
1479.40694,0.05509
1477.47812,0.05342
1475.54930,0.05212
1473.62047,0.05287
1471.69165,0.05555
1469.76283,0.05700
1467.83401,0.05742
1465.90518,0.05804
1463.97636,0.05968
1462.04754,0.06183
1460.11872,0.06335
1458.18989,0.06357
1456.26107,0.06280
1454.33225,0.06265
1452.40343,0.06270
1450.47460,0.06248
1448.54578,0.06187
1446.61696,0.06129
1444.68813,0.06115
1442.75931,0.06113
1440.83049,0.06095
1438.90167,0.06067
1436.97284,0.06027
1435.04402,0.05997
1433.11520,0.05983
1431.18638,0.05965
1429.25755,0.05955
1427.32873,0.05961
1425.39991,0.05965
1423.47109,0.05956
1421.54226,0.05949
1419.61344,0.05958
1417.68462,0.05976
1415.75580,0.05998
1413.82697,0.06036
1411.89815,0.06079
1409.96933,0.06113
1408.04051,0.06138
1406.11168,0.06129
1404.18286,0.06069
1402.25404,0.05997
1400.32521,0.05927
1398.39639,0.05865
1396.46757,0.05817
1394.53875,0.05738
1392.60992,0.05633
1390.68110,0.05548
1388.75228,0.05480
1386.82346,0.05415
1384.89463,0.05361
1382.96581,0.05336
1381.03699,0.05341
1379.10817,0.05369
1377.17934,0.05407
1375.25052,0.05458
1373.32170,0.05520
1371.39288,0.05578
1369.46405,0.05631
1367.53523,0.05686
1365.60641,0.05740
1363.67759,0.05770
1361.74876,0.05769
1359.81994,0.05771
1357.89112,0.05773
1355.96229,0.05758
1354.03347,0.05740
1352.10465,0.05728
1350.17583,0.05727
1348.24700,0.05753
1346.31818,0.05800
1344.38936,0.05855
1342.46054,0.05917
1340.53171,0.05980
1338.60289,0.06035
1336.67407,0.06080
1334.74525,0.06139
1332.81642,0.06209
1330.88760,0.06249
1328.95878,0.06251
1327.02996,0.06234
1325.10113,0.06210
1323.17231,0.06189
1321.24349,0.06170
1319.31467,0.06150
1317.38584,0.06143
1315.45702,0.06152
1313.52820,0.06158
1311.59937,0.06146
1309.67055,0.06125
1307.74173,0.06106
1305.81291,0.06097
1303.88408,0.06099
1301.95526,0.06117
1300.02644,0.06155
1298.09762,0.06202
1296.16879,0.06243
1294.23997,0.06271
1292.31115,0.06292
1290.38233,0.06323
1288.45350,0.06363
1286.52468,0.06393
1284.59586,0.06424
1282.66704,0.06462
1280.73821,0.06490
1278.80939,0.06521
1276.88057,0.06568
1274.95175,0.06610
1273.02292,0.06637
1271.09410,0.06663
1269.16528,0.06705
1267.23645,0.06773
1265.30763,0.06848
1263.37881,0.06895
1261.44999,0.06915
1259.52116,0.06925
1257.59234,0.06910
1255.66352,0.06860
1253.73470,0.06784
1251.80587,0.06675
1249.87705,0.06494
1247.94823,0.06242
1246.01941,0.05951
1244.09058,0.05641
1242.16176,0.05337
1240.23294,0.05074
1238.30412,0.04867
1236.37529,0.04731
1234.44647,0.04689
1232.51765,0.04732
1230.58883,0.04819
1228.66000,0.04927
1226.73118,0.05056
1224.80236,0.05188
1222.87353,0.05288
1220.94471,0.05354
1219.01589,0.05401
1217.08707,0.05439
1215.15824,0.05483
1213.22942,0.05544
1211.30060,0.05609
1209.37178,0.05672
1207.44295,0.05726
1205.51413,0.05755
1203.58531,0.05762
1201.65649,0.05780
1199.72766,0.05829
1197.79884,0.05894
1195.87002,0.05952
1193.94120,0.05973
1192.01237,0.05945
1190.08355,0.05907
1188.15473,0.05905
1186.22591,0.05938
1184.29708,0.05980
1182.36826,0.06019
1180.43944,0.06043
1178.51061,0.06030
1176.58179,0.05981
1174.65297,0.05947
1172.72415,0.05970
1170.79532,0.06023
1168.86650,0.06073
1166.93768,0.06100
1165.00886,0.06087
1163.08003,0.06042
1161.15121,0.05992
1159.22239,0.05956
1157.29357,0.05931
1155.36474,0.05907
1153.43592,0.05885
1151.50710,0.05871
1149.57828,0.05879
1147.64945,0.05897
1145.72063,0.05892
1143.79181,0.05869
1141.86299,0.05857
1139.93416,0.05855
1138.00534,0.05843
1136.07652,0.05831
1134.14769,0.05853
1132.21887,0.05907
1130.29005,0.05946
1128.36123,0.05955
1126.43240,0.05973
1124.50358,0.06001
1122.57476,0.06010
1120.64594,0.06011
1118.71711,0.06025
1116.78829,0.06036
1114.85947,0.06040
1112.93065,0.06058
1111.00182,0.06091
1109.07300,0.06136
1107.14418,0.06176
1105.21536,0.06179
1103.28653,0.06159
1101.35771,0.06146
1099.42889,0.06133
1097.50007,0.06128
1095.57124,0.06159
1093.64242,0.06209
1091.71360,0.06250
1089.78477,0.06275
1087.85595,0.06263
1085.92713,0.06222
1083.99831,0.06196
1082.06948,0.06191
1080.14066,0.06197
1078.21184,0.06217
1076.28302,0.06249
1074.35419,0.06291
1072.42537,0.06326
1070.49655,0.06344
1068.56773,0.06367
1066.63890,0.06383
1064.71008,0.06350
1062.78126,0.06301
1060.85244,0.06287
1058.92361,0.06314
1056.99479,0.06358
1055.06597,0.06380
1053.13714,0.06393
1051.20832,0.06417
1049.27950,0.06415
1047.35068,0.06386
1045.42185,0.06359
1043.49303,0.06344
1041.56421,0.06352
1039.63539,0.06369
1037.70656,0.06395
1035.77774,0.06429
1033.84892,0.06444
1031.92010,0.06448
1029.99127,0.06454
1028.06245,0.06449
1026.13363,0.06430
1024.20481,0.06395
1022.27598,0.06339
1020.34716,0.06296
1018.41834,0.06276
1016.48952,0.06260
1014.56069,0.06236
1012.63187,0.06211
1010.70305,0.06186
1008.77422,0.06148
1006.84540,0.06107
1004.91658,0.06093
1002.98776,0.06127
1001.05893,0.06203
999.13011,0.06277
997.20129,0.06305
995.27247,0.06287
993.34364,0.06246
991.41482,0.06199
989.48600,0.06177
987.55718,0.06199
985.62835,0.06233
983.69953,0.06258
981.77071,0.06285
979.84189,0.06303
977.91306,0.06287
975.98424,0.06235
974.05542,0.06170
972.12660,0.06109
970.19777,0.06042
968.26895,0.05975
966.34013,0.05955
964.41130,0.05989
962.48248,0.06018
960.55366,0.06025
958.62484,0.06019
956.69601,0.05991
954.76719,0.05950
952.83837,0.05914
950.90955,0.05879
948.98072,0.05864
947.05190,0.05891
945.12308,0.05949
943.19426,0.06010
941.26543,0.06061
939.33661,0.06103
937.40779,0.06127
935.47897,0.06122
933.55014,0.06123
931.62132,0.06151
929.69250,0.06172
927.76368,0.06210
925.83485,0.06339
923.90603,0.06569
921.97721,0.06841
920.04838,0.07069
918.11956,0.07175
916.19074,0.07131
914.26192,0.06985
912.33309,0.06816
910.40427,0.06704
908.47545,0.06717
906.54663,0.06849
904.61780,0.07031
902.68898,0.07222
900.76016,0.07374
898.83134,0.07413
896.90251,0.07307
894.97369,0.07097
893.04487,0.06875
891.11605,0.06739
889.18722,0.06722
887.25840,0.06827
885.32958,0.07027
883.40076,0.07255
881.47193,0.07443
879.54311,0.07540
877.61429,0.07513
875.68546,0.07357
873.75664,0.07117
871.82782,0.06898
869.89900,0.06801
867.97017,0.06847
866.04135,0.07005
864.11253,0.07232
862.18371,0.07462
860.25488,0.07609
858.32606,0.07622
856.39724,0.07515
854.46842,0.07336
852.53959,0.07133
850.61077,0.06994
848.68195,0.06997
846.75313,0.07147
844.82430,0.07426
842.89548,0.07765
840.96666,0.08038
839.03784,0.08154
837.10901,0.08093
835.18019,0.07898
833.25137,0.07653
831.32254,0.07457
829.39372,0.07386
827.46490,0.07476
825.53608,0.07725
823.60725,0.08040
821.67843,0.08285
819.74961,0.08394
817.82079,0.08336
815.89196,0.08075
813.96314,0.07670
812.03432,0.07313
810.10550,0.07155
808.17667,0.07189
806.24785,0.07362
804.31903,0.07621
802.39021,0.07894
800.46138,0.08082
798.53256,0.08107
796.60374,0.07947
794.67492,0.07646
792.74609,0.07328
790.81727,0.07135
788.88845,0.07151
786.95962,0.07397
785.03080,0.07780
783.10198,0.08144
781.17316,0.08374
779.24433,0.08378
777.31551,0.08120
775.38669,0.07691
773.45787,0.07245
771.52904,0.06926
769.60022,0.06842
767.67140,0.07028
765.74258,0.07390
763.81375,0.07745
761.88493,0.07954
759.95611,0.07952
758.02729,0.07686
756.09846,0.07218
754.16964,0.06733
752.24082,0.06416
750.31200,0.06366
748.38317,0.06527
746.45435,0.06731
744.52553,0.06821
742.59670,0.06695
740.66788,0.06338
738.73906,0.05867
736.81024,0.05488
734.88141,0.05335
732.95259,0.05353
731.02377,0.05464
729.09495,0.05592
727.16612,0.05623
725.23730,0.05586
723.30848,0.05603
721.37966,0.05745
719.45083,0.06015
717.52201,0.06231
715.59319,0.06220
713.66437,0.06152
711.73554,0.06337
709.80672,0.06776
707.87790,0.07190
705.94908,0.07356
704.02025,0.07236
702.09143,0.06965
700.16261,0.06851
698.23378,0.07184
696.30496,0.07961
694.37614,0.08877
692.44732,0.09538
690.51849,0.09650
688.58967,0.09204
686.66085,0.08469
684.73203,0.07752
682.80320,0.07354
680.87438,0.07537
678.94556,0.08254
677.01674,0.09137
675.08791,0.09810
673.15909,0.10080
671.23027,0.09892
669.30145,0.09239
667.37262,0.08307
665.44380,0.07616
663.51498,0.07343
661.58616,0.07484
659.65733,0.08043
657.72851,0.08774
655.79969,0.09309
653.87086,0.09441
651.94204,0.09117
650.01322,0.08360
648.08440,0.07387
646.15557,0.06579
644.22675,0.06204
642.29793,0.06275
640.36911,0.06690
638.44028,0.07345
636.51146,0.08043
634.58264,0.08429
632.65382,0.08300
630.72499,0.07832
628.79617,0.07273
626.86735,0.06740
624.93853,0.06331
623.00970,0.06187
621.08088,0.06397
619.15206,0.06921
617.22324,0.07514
615.29441,0.07760
613.36559,0.07457
611.43677,0.06932
609.50794,0.06593
607.57912,0.06435
605.65030,0.06254
603.72148,0.06033
601.79265,0.05875
599.86383,0.05913
