7497.19974,0.11013
7495.27095,0.10592
7493.34216,0.10203
7491.41337,0.09545
7489.48459,0.08997
7487.55580,0.09345
7485.62701,0.10273
7483.69822,0.10685
7481.76943,0.10445
7479.84065,0.10181
7477.91186,0.09991
7475.98307,0.09959
7474.05428,0.10419
7472.12549,0.10850
7470.19670,0.10864
7468.26792,0.10798
7466.33913,0.10573
7464.41034,0.10529
7462.48155,0.10862
7460.55276,0.10978
7458.62398,0.10658
7456.69519,0.10184
7454.76640,0.09703
7452.83761,0.09646
7450.90882,0.10388
7448.98003,0.11508
7447.05125,0.12084
7445.12246,0.11642
7443.19367,0.10823
7441.26488,0.10405
7439.33609,0.10175
7437.40731,0.09982
7435.47852,0.10184
7433.54973,0.10418
7431.62094,0.10036
7429.69215,0.09379
7427.76336,0.09009
7425.83458,0.09024
7423.90579,0.09144
7421.97700,0.08938
7420.04821,0.08751
7418.11942,0.09054
7416.19063,0.09676
7414.26185,0.10402
7412.33306,0.10750
7410.40427,0.10498
7408.47548,0.10041
7406.54669,0.09661
7404.61791,0.09498
7402.68912,0.09871
7400.76033,0.10703
7398.83154,0.11262
7396.90275,0.11245
7394.97396,0.11172
7393.04518,0.11143
7391.11639,0.10897
7389.18760,0.10574
7387.25881,0.10426
7385.33002,0.10456
7383.40124,0.10580
7381.47245,0.10539
7379.54366,0.10333
7377.61487,0.10369
7375.68608,0.10561
7373.75729,0.10649
7371.82851,0.10763
7369.89972,0.10713
7367.97093,0.10123
7366.04214,0.09358
7364.11335,0.09270
7362.18457,0.09737
7360.25578,0.10073
7358.32699,0.10079
7356.39820,0.09719
7354.46941,0.09426
7352.54062,0.09675
7350.61184,0.09801
7348.68305,0.09604
7346.75426,0.09661
7344.82547,0.09959
7342.89668,0.10179
7340.96790,0.10264
7339.03911,0.10227
7337.11032,0.10196
7335.18153,0.10336
7333.25274,0.10486
7331.32395,0.10327
7329.39517,0.09978
7327.46638,0.09717
7325.53759,0.09918
7323.60880,0.10577
7321.68001,0.11048
7319.75122,0.11019
7317.82244,0.10695
7315.89365,0.10187
7313.96486,0.09769
7312.03607,0.09825
7310.10728,0.10127
7308.17850,0.10169
7306.24971,0.10079
7304.32092,0.09988
7302.39213,0.09974
7300.46334,0.10135
7298.53455,0.10157
7296.60577,0.09973
7294.67698,0.10005
7292.74819,0.10304
7290.81940,0.10686
7288.89061,0.10967
7286.96183,0.10975
7285.03304,0.10576
7283.10425,0.09925
7281.17546,0.09497
7279.24667,0.09438
7277.31788,0.09717
7275.38910,0.10262
7273.46031,0.10516
7271.53152,0.10380
7269.60273,0.10691
7267.67394,0.11426
7265.74516,0.11526
7263.81637,0.11009
7261.88758,0.10681
7259.95879,0.10713
7258.03000,0.10643
7256.10121,0.10152
7254.17243,0.09444
7252.24364,0.09050
7250.31485,0.09253
7248.38606,0.09691
7246.45727,0.09841
7244.52848,0.10029
7242.59970,0.10860
7240.67091,0.11777
7238.74212,0.11997
7236.81333,0.11581
7234.88454,0.10562
7232.95576,0.09164
7231.02697,0.08393
7229.09818,0.08583
7227.16939,0.09124
7225.24060,0.09653
7223.31181,0.10149
7221.38303,0.10432
7219.45424,0.10195
7217.52545,0.09840
7215.59666,0.09777
7213.66787,0.09838
7211.73909,0.09814
7209.81030,0.09858
7207.88151,0.10293
7205.95272,0.10966
7204.02393,0.11233
7202.09514,0.10949
7200.16636,0.10708
7198.23757,0.10793
7196.30878,0.10653
7194.37999,0.10151
7192.45120,0.09937
7190.52242,0.10022
7188.59363,0.09883
7186.66484,0.09652
7184.73605,0.09800
7182.80726,0.10147
7180.87847,0.10056
7178.94969,0.09648
7177.02090,0.09538
7175.09211,0.09806
7173.16332,0.10306
7171.23453,0.10708
7169.30575,0.10329
7167.37696,0.09466
7165.44817,0.09344
7163.51938,0.09994
7161.59059,0.10668
7159.66180,0.11158
7157.73302,0.11267
7155.80423,0.10883
7153.87544,0.10386
7151.94665,0.09940
7150.01786,0.09484
7148.08907,0.09355
7146.16029,0.09634
7144.23150,0.09991
7142.30271,0.10160
7140.37392,0.09952
7138.44513,0.09679
7136.51635,0.09787
7134.58756,0.09984
7132.65877,0.09885
7130.72998,0.09583
7128.80119,0.09597
7126.87240,0.10162
7124.94362,0.10588
7123.01483,0.10225
7121.08604,0.09716
7119.15725,0.09659
7117.22846,0.09495
7115.29968,0.08970
7113.37089,0.08744
7111.44210,0.09120
7109.51331,0.09654
7107.58452,0.09984
7105.65573,0.10169
7103.72695,0.10282
7101.79816,0.10464
7099.86937,0.10650
7097.94058,0.10751
7096.01179,0.10788
7094.08301,0.10576
7092.15422,0.10124
7090.22543,0.09710
7088.29664,0.09538
7086.36785,0.09783
7084.43906,0.10122
7082.51028,0.10081
7080.58149,0.09864
7078.65270,0.09858
7076.72391,0.09856
7074.79512,0.09846
7072.86634,0.10114
7070.93755,0.10375
7069.00876,0.10406
7067.07997,0.10516
7065.15118,0.10688
7063.22239,0.10757
7061.29361,0.10710
7059.36482,0.10610
7057.43603,0.10531
7055.50724,0.10367
7053.57845,0.10153
7051.64966,0.10199
7049.72088,0.10339
7047.79209,0.10098
7045.86330,0.09596
7043.93451,0.09331
7042.00572,0.09472
7040.07694,0.09924
7038.14815,0.10304
7036.21936,0.10256
7034.29057,0.09946
7032.36178,0.09782
7030.43299,0.09704
7028.50421,0.09558
7026.57542,0.09563
7024.64663,0.09932
7022.71784,0.10376
7020.78905,0.10284
7018.86027,0.09672
7016.93148,0.09479
7015.00269,0.10013
7013.07390,0.10533
7011.14511,0.10574
7009.21632,0.10219
7007.28754,0.09782
7005.35875,0.09627
7003.42996,0.09796
7001.50117,0.09975
6999.57238,0.09982
6997.64360,0.10102
6995.71481,0.10483
6993.78602,0.10723
6991.85723,0.10588
6989.92844,0.10357
6987.99965,0.10304
6986.07087,0.10443
6984.14208,0.10512
6982.21329,0.10348
6980.28450,0.10136
6978.35571,0.10082
6976.42692,0.10190
6974.49814,0.10284
6972.56935,0.10355
6970.64056,0.10533
6968.71177,0.10491
6966.78298,0.10113
6964.85420,0.09808
6962.92541,0.09630
6960.99662,0.09502
6959.06783,0.09691
6957.13904,0.10135
6955.21025,0.10384
6953.28147,0.10334
6951.35268,0.10213
6949.42389,0.10075
6947.49510,0.09975
6945.56631,0.09974
6943.63753,0.09849
6941.70874,0.09600
6939.77995,0.09601
6937.85116,0.09783
6935.92237,0.09866
6933.99358,0.09979
6932.06480,0.10151
6930.13601,0.10131
6928.20722,0.10014
6926.27843,0.10029
6924.34964,0.10107
6922.42086,0.10138
6920.49207,0.10227
6918.56328,0.10307
6916.63449,0.10299
6914.70570,0.10468
6912.77691,0.10821
6910.84813,0.11113
6908.91934,0.11236
6906.99055,0.11104
6905.06176,0.10805
6903.13297,0.10436
6901.20419,0.10063
6899.27540,0.09957
6897.34661,0.10058
6895.41782,0.10024
6893.48903,0.10010
6891.56024,0.10219
6889.63146,0.10439
6887.70267,0.10507
6885.77388,0.10592
6883.84509,0.10852
6881.91630,0.11098
6879.98751,0.11009
6878.05873,0.10702
6876.12994,0.10506
6874.20115,0.10333
6872.27236,0.10076
6870.34357,0.09948
6868.41479,0.09915
6866.48600,0.09945
6864.55721,0.10196
6862.62842,0.10441
6860.69963,0.10489
6858.77084,0.10603
6856.84206,0.10750
6854.91327,0.10602
6852.98448,0.10350
6851.05569,0.10263
6849.12690,0.10031
6847.19812,0.09616
6845.26933,0.09351
6843.34054,0.09253
6841.41175,0.09285
6839.48296,0.09448
6837.55417,0.09642
6835.62539,0.09755
6833.69660,0.09873
6831.76781,0.10262
6829.83902,0.10710
6827.91023,0.10798
6825.98145,0.10576
6824.05266,0.10307
6822.12387,0.10067
6820.19508,0.09910
6818.26629,0.09975
6816.33750,0.10208
6814.40872,0.10436
6812.47993,0.10535
6810.55114,0.10503
6808.62235,0.10524
6806.69356,0.10534
6804.76478,0.10322
6802.83599,0.10042
6800.90720,0.10018
6798.97841,0.10282
6797.04962,0.10548
6795.12083,0.10652
6793.19205,0.10650
6791.26326,0.10528
6789.33447,0.10312
6787.40568,0.10082
6785.47689,0.09777
6783.54810,0.09492
6781.61932,0.09520
6779.69053,0.09690
6777.76174,0.09663
6775.83295,0.09593
6773.90416,0.09688
6771.97538,0.09783
6770.04659,0.09709
6768.11780,0.09571
6766.18901,0.09553
6764.26022,0.09667
6762.33143,0.09712
6760.40265,0.09579
6758.47386,0.09574
6756.54507,0.09924
6754.61628,0.10331
6752.68749,0.10441
6750.75871,0.10359
6748.82992,0.10228
6746.90113,0.09876
6744.97234,0.09524
6743.04355,0.09647
6741.11476,0.10003
6739.18598,0.10142
6737.25719,0.10050
6735.32840,0.09924
6733.39961,0.09873
6731.47082,0.09685
6729.54204,0.09342
6727.61325,0.09358
6725.68446,0.09763
6723.75567,0.09931
6721.82688,0.09722
6719.89809,0.09692
6717.96931,0.09982
6716.04052,0.10044
6714.11173,0.09849
6712.18294,0.09898
6710.25415,0.10110
6708.32536,0.10035
6706.39658,0.09651
6704.46779,0.09407
6702.53900,0.09633
6700.61021,0.10019
6698.68142,0.10140
6696.75264,0.10118
6694.82385,0.10084
6692.89506,0.09893
6690.96627,0.09714
6689.03748,0.09835
6687.10869,0.10122
6685.17991,0.10294
6683.25112,0.10253
6681.32233,0.10130
6679.39354,0.10029
6677.46475,0.10023
6675.53597,0.10277
6673.60718,0.10610
6671.67839,0.10611
6669.74960,0.10382
6667.82081,0.10363
6665.89202,0.10613
6663.96324,0.10724
6662.03445,0.10508
6660.10566,0.10212
6658.17687,0.09974
6656.24808,0.09763
6654.31930,0.09674
6652.39051,0.09763
6650.46172,0.09935
6648.53293,0.10038
6646.60414,0.10013
6644.67535,0.10085
6642.74657,0.10384
6640.81778,0.10661
6638.88899,0.10674
6636.96020,0.10410
6635.03141,0.10052
6633.10263,0.09753
6631.17384,0.09484
6629.24505,0.09318
6627.31626,0.09416
6625.38747,0.09642
6623.45868,0.09742
6621.52990,0.09798
6619.60111,0.10044
6617.67232,0.10322
6615.74353,0.10314
6613.81474,0.10141
6611.88595,0.10055
6609.95717,0.09965
6608.02838,0.09788
6606.09959,0.09703
6604.17080,0.09846
6602.24201,0.10088
6600.31323,0.10221
6598.38444,0.10128
6596.45565,0.09873
6594.52686,0.09776
6592.59807,0.09976
6590.66928,0.10136
6588.74050,0.10067
6586.81171,0.09960
6584.88292,0.09900
6582.95413,0.09767
6581.02534,0.09577
6579.09656,0.09527
6577.16777,0.09771
6575.23898,0.10099
6573.31019,0.10158
6571.38140,0.10114
6569.45261,0.10309
6567.52383,0.10519
6565.59504,0.10457
6563.66625,0.10358
6561.73746,0.10530
6559.80867,0.10770
6557.87989,0.10725
6555.95110,0.10423
6554.02231,0.10154
6552.09352,0.10204
6550.16473,0.10547
6548.23594,0.10828
6546.30716,0.10844
6544.37837,0.10721
6542.44958,0.10580
6540.52079,0.10313
6538.59200,0.09939
6536.66322,0.09842
6534.73443,0.10050
6532.80564,0.10100
6530.87685,0.09935
6528.94806,0.09964
6527.01927,0.10304
6525.09049,0.10586
6523.16170,0.10547
6521.23291,0.10349
6519.30412,0.10178
6517.37533,0.10068
6515.44654,0.10013
6513.51776,0.09868
6511.58897,0.09687
6509.66018,0.09786
6507.73139,0.10051
6505.80260,0.10148
6503.87382,0.10143
6501.94503,0.10097
6500.01624,0.09922
6498.08745,0.09693
6496.15866,0.09739
6494.22987,0.10174
6492.30109,0.10523
6490.37230,0.10368
6488.44351,0.10014
6486.51472,0.09842
6484.58593,0.09833
6482.65715,0.09942
6480.72836,0.10174
6478.79957,0.10397
6476.87078,0.10334
6474.94199,0.09983
6473.01320,0.09764
6471.08442,0.09852
6469.15563,0.10067
6467.22684,0.10124
6465.29805,0.09918
6463.36926,0.09836
6461.44048,0.10031
6459.51169,0.10084
6457.58290,0.09930
6455.65411,0.09814
6453.72532,0.09738
6451.79653,0.09707
6449.86775,0.09836
6447.93896,0.10031
6446.01017,0.10145
6444.08138,0.10112
6442.15259,0.09985
6440.22380,0.09867
6438.29502,0.09797
6436.36623,0.09817
6434.43744,0.09928
6432.50865,0.10039
6430.57986,0.10146
6428.65108,0.10257
6426.72229,0.10276
6424.79350,0.10250
6422.86471,0.10395
6420.93592,0.10673
6419.00713,0.10708
6417.07835,0.10394
6415.14956,0.10074
6413.22077,0.09962
6411.29198,0.09994
6409.36319,0.10156
6407.43441,0.10336
6405.50562,0.10368
6403.57683,0.10297
6401.64804,0.10115
6399.71925,0.09830
6397.79046,0.09782
6395.86168,0.10142
6393.93289,0.10510
6392.00410,0.10478
6390.07531,0.10247
6388.14652,0.10147
6386.21774,0.10098
6384.28895,0.10029
6382.36016,0.09911
6380.43137,0.09821
6378.50258,0.09988
6376.57379,0.10255
6374.64501,0.10379
6372.71622,0.10385
6370.78743,0.10268
6368.85864,0.10028
6366.92985,0.09788
6365.00107,0.09747
6363.07228,0.09910
6361.14349,0.10077
6359.21470,0.10175
6357.28591,0.10209
6355.35712,0.10118
6353.42834,0.09990
6351.49955,0.10014
6349.57076,0.10136
6347.64197,0.10189
6345.71318,0.10188
6343.78439,0.10234
6341.85561,0.10306
6339.92682,0.10331
6337.99803,0.10427
6336.06924,0.10615
6334.14045,0.10602
6332.21167,0.10290
6330.28288,0.10052
6328.35409,0.10144
6326.42530,0.10214
6324.49651,0.10025
6322.56772,0.09929
6320.63894,0.10026
6318.71015,0.09961
6316.78136,0.09698
6314.85257,0.09593
6312.92378,0.09741
6310.99500,0.09876
6309.06621,0.09915
6307.13742,0.10007
6305.20863,0.10101
6303.27984,0.10068
6301.35105,0.10021
6299.42227,0.10039
6297.49348,0.10022
6295.56469,0.09896
6293.63590,0.09733
6291.70711,0.09733
6289.77833,0.09961
6287.84954,0.10262
6285.92075,0.10359
6283.99196,0.10184
6282.06317,0.09945
6280.13438,0.09784
6278.20560,0.09821
6276.27681,0.10048
6274.34802,0.10206
6272.41923,0.10238
6270.49044,0.10202
6268.56165,0.10090
6266.63287,0.09945
6264.70408,0.09832
6262.77529,0.09831
6260.84650,0.09988
6258.91771,0.10239
6256.98893,0.10457
6255.06014,0.10529
6253.13135,0.10424
6251.20256,0.10232
6249.27377,0.10072
6247.34498,0.10016
6245.41620,0.10130
6243.48741,0.10363
6241.55862,0.10527
6239.62983,0.10497
6237.70104,0.10360
6235.77226,0.10314
6233.84347,0.10282
6231.91468,0.10026
6229.98589,0.09781
6228.05710,0.09931
6226.12831,0.10249
6224.19953,0.10299
6222.27074,0.10106
6220.34195,0.09959
6218.41316,0.09962
6216.48437,0.09925
6214.55559,0.09715
6212.62680,0.09566
6210.69801,0.09740
6208.76922,0.10066
6206.84043,0.10251
6204.91164,0.10274
6202.98286,0.10191
6201.05407,0.10108
6199.12528,0.10112
6197.19649,0.10080
6195.26770,0.10033
6193.33892,0.10111
6191.41013,0.10247
6189.48134,0.10349
6187.55255,0.10331
6185.62376,0.10234
6183.69497,0.10300
6181.76619,0.10472
6179.83740,0.10459
6177.90861,0.10272
6175.97982,0.10164
6174.05103,0.10217
6172.12224,0.10268
6170.19346,0.10190
6168.26467,0.10074
6166.33588,0.10124
6164.40709,0.10362
6162.47830,0.10522
6160.54952,0.10450
6158.62073,0.10299
6156.69194,0.10257
6154.76315,0.10280
6152.83436,0.10209
6150.90557,0.09998
6148.97679,0.09745
6147.04800,0.09695
6145.11921,0.09892
6143.19042,0.10040
6141.26163,0.10067
6139.33285,0.10144
6137.40406,0.10194
6135.47527,0.10081
6133.54648,0.09964
6131.61769,0.09978
6129.68890,0.10070
6127.76012,0.10176
6125.83133,0.10197
6123.90254,0.10119
6121.97375,0.10067
6120.04496,0.10036
6118.11618,0.10005
6116.18739,0.10120
6114.25860,0.10347
6112.32981,0.10406
6110.40102,0.10286
6108.47223,0.10263
6106.54345,0.10360
6104.61466,0.10332
6102.68587,0.10124
6100.75708,0.09916
6098.82829,0.09827
6096.89951,0.09823
6094.97072,0.09838
6093.04193,0.09820
6091.11314,0.09876
6089.18435,0.10101
6087.25556,0.10347
6085.32678,0.10470
6083.39799,0.10391
6081.46920,0.10175
6079.54041,0.10090
6077.61162,0.10201
6075.68283,0.10376
6073.75405,0.10430
6071.82526,0.10306
6069.89647,0.10288
6067.96768,0.10463
6066.03889,0.10483
6064.11011,0.10218
6062.18132,0.10022
6060.25253,0.10128
6058.32374,0.10226
6056.39495,0.10077
6054.46616,0.09895
6052.53738,0.09856
6050.60859,0.09848
6048.67980,0.09797
6046.75101,0.09805
6044.82222,0.09880
6042.89344,0.09870
6040.96465,0.09814
6039.03586,0.09891
6037.10707,0.09952
6035.17828,0.09824
6033.24949,0.09712
6031.32071,0.09704
6029.39192,0.09678
6027.46313,0.09629
6025.53434,0.09684
6023.60555,0.09906
6021.67677,0.10081
6019.74798,0.10035
6017.81919,0.09923
6015.89040,0.09848
6013.96161,0.09760
6012.03282,0.09743
6010.10404,0.09904
6008.17525,0.10060
6006.24646,0.10008
6004.31767,0.09891
6002.38888,0.09931
6000.46009,0.10098
5998.53131,0.10217
5996.60252,0.10144
5994.67373,0.09950
5992.74494,0.09913
5990.81615,0.10096
5988.88737,0.10236
5986.95858,0.10157
5985.02979,0.09983
5983.10100,0.09856
5981.17221,0.09782
5979.24342,0.09779
5977.31464,0.09760
5975.38585,0.09684
5973.45706,0.09761
5971.52827,0.09910
5969.59948,0.09857
5967.67070,0.09760
5965.74191,0.09749
5963.81312,0.09645
5961.88433,0.09518
5959.95554,0.09593
5958.02675,0.09746
5956.09797,0.09738
5954.16918,0.09651
5952.24039,0.09688
5950.31160,0.09834
5948.38281,0.09942
5946.45403,0.09939
5944.52524,0.09858
5942.59645,0.09740
5940.66766,0.09617
5938.73887,0.09583
5936.81008,0.09691
5934.88130,0.09842
5932.95251,0.09872
5931.02372,0.09779
5929.09493,0.09746
5927.16614,0.09836
5925.23736,0.09915
5923.30857,0.09881
5921.37978,0.09733
5919.45099,0.09545
5917.52220,0.09461
5915.59341,0.09526
5913.66463,0.09616
5911.73584,0.09632
5909.80705,0.09609
5907.87826,0.09590
5905.94947,0.09563
5904.02068,0.09548
5902.09190,0.09543
5900.16311,0.09486
5898.23432,0.09386
5896.30553,0.09380
5894.37674,0.09594
5892.44796,0.09879
5890.51917,0.09957
5888.59038,0.09776
5886.66159,0.09486
5884.73280,0.09291
5882.80401,0.09295
5880.87523,0.09362
5878.94644,0.09314
5877.01765,0.09214
5875.08886,0.09201
5873.16007,0.09249
5871.23129,0.09334
5869.30250,0.09435
5867.37371,0.09400
5865.44492,0.09165
5863.51613,0.08929
5861.58734,0.08865
5859.65856,0.08885
5857.72977,0.08851
5855.80098,0.08774
5853.87219,0.08763
5851.94340,0.08880
5850.01462,0.09007
5848.08583,0.09018
5846.15704,0.08927
5844.22825,0.08789
5842.29946,0.08726
5840.37067,0.08773
5838.44189,0.08705
5836.51310,0.08523
5834.58431,0.08501
5832.65552,0.08603
5830.72673,0.08602
5828.79795,0.08515
5826.86916,0.08509
5824.94037,0.08605
5823.01158,0.08670
5821.08279,0.08692
5819.15400,0.08750
5817.22522,0.08780
5815.29643,0.08729
5813.36764,0.08679
5811.43885,0.08742
5809.51006,0.08928
5807.58127,0.09052
5805.65249,0.08976
5803.72370,0.08887
5801.79491,0.08984
5799.86612,0.09141
5797.93733,0.09138
5796.00855,0.08996
5794.07976,0.08877
5792.15097,0.08826
5790.22218,0.08868
5788.29339,0.08999
5786.36460,0.09065
5784.43582,0.09034
5782.50703,0.09004
5780.57824,0.08961
5778.64945,0.08968
5776.72066,0.09058
5774.79188,0.09101
5772.86309,0.09083
5770.93430,0.09121
5769.00551,0.09223
5767.07672,0.09318
5765.14793,0.09388
5763.21915,0.09410
5761.29036,0.09328
5759.36157,0.09230
5757.43278,0.09261
5755.50399,0.09358
5753.57521,0.09389
5751.64642,0.09420
5749.71763,0.09533
5747.78884,0.09640
5745.86005,0.09622
5743.93126,0.09501
5742.00248,0.09380
5740.07369,0.09322
5738.14490,0.09296
5736.21611,0.09247
5734.28732,0.09230
5732.35853,0.09262
5730.42975,0.09259
5728.50096,0.09268
5726.57217,0.09297
5724.64338,0.09246
5722.71459,0.09141
5720.78581,0.09050
5718.85702,0.08994
5716.92823,0.09019
5714.99944,0.09134
5713.07065,0.09263
5711.14186,0.09369
5709.21308,0.09431
5707.28429,0.09414
5705.35550,0.09371
5703.42671,0.09304
5701.49792,0.09157
5699.56914,0.09080
5697.64035,0.09191
5695.71156,0.09298
5693.78277,0.09311
5691.85398,0.09378
5689.92519,0.09451
5687.99641,0.09364
5686.06762,0.09202
5684.13883,0.09116
5682.21004,0.09174
5680.28125,0.09389
5678.35247,0.09567
5676.42368,0.09530
5674.49489,0.09414
5672.56610,0.09376
5670.63731,0.09416
5668.70852,0.09477
5666.77974,0.09534
5664.85095,0.09585
5662.92216,0.09582
5660.99337,0.09529
5659.06458,0.09478
5657.13580,0.09474
5655.20701,0.09556
5653.27822,0.09641
5651.34943,0.09656
5649.42064,0.09639
5647.49185,0.09609
5645.56307,0.09554
5643.63428,0.09473
5641.70549,0.09450
5639.77670,0.09545
5637.84791,0.09625
5635.91912,0.09601
5633.99034,0.09562
5632.06155,0.09530
5630.13276,0.09455
5628.20397,0.09394
5626.27518,0.09491
5624.34640,0.09721
5622.41761,0.09860
5620.48882,0.09840
5618.56003,0.09831
5616.63124,0.09879
5614.70245,0.09833
5612.77367,0.09627
5610.84488,0.09397
5608.91609,0.09365
5606.98730,0.09532
5605.05851,0.09680
5603.12973,0.09705
5601.20094,0.09673
5599.27215,0.09724
5597.34336,0.09865
5595.41457,0.09916
5593.48578,0.09797
5591.55700,0.09660
5589.62821,0.09674
5587.69942,0.09755
5585.77063,0.09784
5583.84184,0.09785
5581.91306,0.09733
5579.98427,0.09642
5578.05548,0.09615
5576.12669,0.09667
5574.19790,0.09715
5572.26911,0.09699
5570.34033,0.09675
5568.41154,0.09738
5566.48275,0.09835
5564.55396,0.09863
5562.62517,0.09911
5560.69639,0.10019
5558.76760,0.10050
5556.83881,0.09983
5554.91002,0.09940
5552.98123,0.09933
5551.05244,0.09902
5549.12366,0.09843
5547.19487,0.09753
5545.26608,0.09676
5543.33729,0.09660
5541.40850,0.09670
5539.47971,0.09713
5537.55093,0.09860
5535.62214,0.10066
5533.69335,0.10149
5531.76456,0.10024
5529.83577,0.09810
5527.90699,0.09643
5525.97820,0.09648
5524.04941,0.09845
5522.12062,0.10028
5520.19183,0.10055
5518.26304,0.09998
5516.33426,0.09941
5514.40547,0.09929
5512.47668,0.09960
5510.54789,0.09960
5508.61910,0.09891
5506.69032,0.09829
5504.76153,0.09839
5502.83274,0.09886
5500.90395,0.09919
5498.97516,0.09920
5497.04637,0.09946
5495.11759,0.10025
5493.18880,0.10043
5491.26001,0.09963
5489.33122,0.09839
5487.40243,0.09680
5485.47365,0.09632
5483.54486,0.09798
5481.61607,0.09974
5479.68728,0.09960
5477.75849,0.09833
5475.82970,0.09711
5473.90092,0.09637
5471.97213,0.09673
5470.04334,0.09776
5468.11455,0.09817
5466.18576,0.09810
5464.25697,0.09865
5462.32819,0.09952
5460.39940,0.09947
5458.47061,0.09841
5456.54182,0.09762
5454.61303,0.09834
5452.68425,0.10009
5450.75546,0.10107
5448.82667,0.10059
5446.89788,0.10000
5444.96909,0.10005
5443.04030,0.09986
5441.11152,0.09945
5439.18273,0.09962
5437.25394,0.09974
5435.32515,0.09926
5433.39636,0.09896
5431.46758,0.09916
5429.53879,0.09945
5427.61000,0.09981
5425.68121,0.09954
5423.75242,0.09872
5421.82363,0.09913
5419.89485,0.10053
5417.96606,0.10044
5416.03727,0.09862
5414.10848,0.09700
5412.17969,0.09662
5410.25091,0.09706
5408.32212,0.09782
5406.39333,0.09898
5404.46454,0.10023
5402.53575,0.10046
5400.60696,0.09999
5398.67818,0.10014
5396.74939,0.10095
5394.82060,0.10171
5392.89181,0.10159
5390.96302,0.10074
5389.03424,0.10037
5387.10545,0.10020
5385.17666,0.09939
5383.24787,0.09911
5381.31908,0.09997
5379.39029,0.10056
5377.46151,0.10046
5375.53272,0.10075
5373.60393,0.10110
5371.67514,0.10059
5369.74635,0.09988
5367.81756,0.09975
5365.88878,0.10008
5363.95999,0.10042
5362.03120,0.10093
5360.10241,0.10206
5358.17362,0.10263
5356.24484,0.10178
5354.31605,0.10127
5352.38726,0.10173
5350.45847,0.10125
5348.52968,0.09946
5346.60089,0.09769
5344.67211,0.09765
5342.74332,0.09962
5340.81453,0.10164
5338.88574,0.10257
5336.95695,0.10237
5335.02817,0.10121
5333.09938,0.09940
5331.17059,0.09805
5329.24180,0.09848
5327.31301,0.09998
5325.38422,0.10071
5323.45544,0.10039
5321.52665,0.09995
5319.59786,0.09982
5317.66907,0.09973
5315.74028,0.09935
5313.81150,0.09881
5311.88271,0.09870
5309.95392,0.09956
5308.02513,0.10108
5306.09634,0.10251
5304.16755,0.10332
5302.23877,0.10318
5300.30998,0.10246
5298.38119,0.10216
5296.45240,0.10231
5294.52361,0.10147
5292.59483,0.09938
5290.66604,0.09840
5288.73725,0.09969
5286.80846,0.10094
5284.87967,0.10075
5282.95088,0.10033
5281.02210,0.10054
5279.09331,0.10098
5277.16452,0.10102
5275.23573,0.10039
5273.30694,0.10004
5271.37815,0.10060
5269.44937,0.10121
5267.52058,0.10125
5265.59179,0.10125
5263.66300,0.10160
5261.73421,0.10182
5259.80543,0.10151
5257.87664,0.10070
5255.94785,0.09963
5254.01906,0.09926
5252.09027,0.09998
5250.16148,0.10054
5248.23270,0.10027
5246.30391,0.09965
5244.37512,0.09902
5242.44633,0.09898
5240.51754,0.09992
5238.58876,0.10101
5236.65997,0.10154
5234.73118,0.10150
5232.80239,0.10107
5230.87360,0.10073
5228.94481,0.10080
5227.01603,0.10121
5225.08724,0.10167
5223.15845,0.10127
5221.22966,0.10016
5219.30087,0.09964
5217.37209,0.09996
5215.44330,0.10056
5213.51451,0.10102
5211.58572,0.10072
5209.65693,0.09960
5207.72814,0.09881
5205.79936,0.09940
5203.87057,0.10086
5201.94178,0.10212
5200.01299,0.10286
5198.08420,0.10253
5196.15541,0.10136
5194.22663,0.10089
5192.29784,0.10085
5190.36905,0.10027
5188.44026,0.09999
5186.51147,0.10065
5184.58269,0.10139
5182.65390,0.10104
5180.72511,0.10043
5178.79632,0.10086
5176.86753,0.10140
5174.93874,0.10112
5173.00996,0.10066
5171.08117,0.10060
5169.15238,0.10068
5167.22359,0.10057
5165.29480,0.10057
5163.36602,0.10079
5161.43723,0.10107
5159.50844,0.10128
5157.57965,0.10123
5155.65086,0.10100
5153.72207,0.10128
5151.79329,0.10221
5149.86450,0.10259
5147.93571,0.10209
5146.00692,0.10189
5144.07813,0.10233
5142.14935,0.10279
5140.22056,0.10282
5138.29177,0.10203
5136.36298,0.10088
5134.43419,0.10028
5132.50540,0.10035
5130.57662,0.10089
5128.64783,0.10165
5126.71904,0.10236
5124.79025,0.10274
5122.86146,0.10246
5120.93268,0.10179
5119.00389,0.10138
5117.07510,0.10151
5115.14631,0.10210
5113.21752,0.10234
5111.28873,0.10156
5109.35995,0.10049
5107.43116,0.10020
5105.50237,0.10070
5103.57358,0.10137
5101.64479,0.10203
5099.71600,0.10248
5097.78722,0.10267
5095.85843,0.10276
5093.92964,0.10231
5092.00085,0.10127
5090.07206,0.10062
5088.14328,0.10104
5086.21449,0.10208
5084.28570,0.10291
5082.35691,0.10284
5080.42812,0.10190
5078.49933,0.10110
5076.57055,0.10108
5074.64176,0.10142
5072.71297,0.10151
5070.78418,0.10107
5068.85539,0.10052
5066.92661,0.10065
5064.99782,0.10127
5063.06903,0.10186
5061.14024,0.10245
5059.21145,0.10260
5057.28266,0.10244
5055.35388,0.10305
5053.42509,0.10374
5051.49630,0.10325
5049.56751,0.10238
5047.63872,0.10176
5045.70994,0.10150
5043.78115,0.10222
5041.85236,0.10307
5039.92357,0.10285
5037.99478,0.10233
5036.06599,0.10225
5034.13721,0.10209
5032.20842,0.10177
5030.27963,0.10176
5028.35084,0.10198
5026.42205,0.10198
5024.49327,0.10179
5022.56448,0.10192
5020.63569,0.10217
5018.70690,0.10166
5016.77811,0.10062
5014.84932,0.10000
5012.92054,0.09990
5010.99175,0.09994
5009.06296,0.10015
5007.13417,0.10072
5005.20538,0.10137
5003.27659,0.10166
5001.34781,0.10176
4999.41902,0.10196
4997.49023,0.10173
4995.56144,0.10106
4993.63265,0.10088
4991.70387,0.10116
4989.77508,0.10144
4987.84629,0.10183
4985.91750,0.10226
4983.98871,0.10240
4982.05992,0.10239
4980.13114,0.10275
4978.20235,0.10323
4976.27356,0.10331
4974.34477,0.10328
4972.41598,0.10322
4970.48720,0.10280
4968.55841,0.10261
4966.62962,0.10307
4964.70083,0.10347
4962.77204,0.10325
4960.84325,0.10257
4958.91447,0.10187
4956.98568,0.10168
4955.05689,0.10203
4953.12810,0.10233
4951.19931,0.10246
4949.27053,0.10264
4947.34174,0.10275
4945.41295,0.10254
4943.48416,0.10204
4941.55537,0.10198
4939.62658,0.10262
4937.69780,0.10299
4935.76901,0.10253
4933.84022,0.10178
4931.91143,0.10153
4929.98264,0.10194
4928.05385,0.10230
4926.12507,0.10216
4924.19628,0.10192
4922.26749,0.10181
4920.33870,0.10160
4918.40991,0.10165
4916.48113,0.10235
4914.55234,0.10309
4912.62355,0.10301
4910.69476,0.10244
4908.76597,0.10208
4906.83718,0.10165
4904.90840,0.10133
4902.97961,0.10185
4901.05082,0.10256
4899.12203,0.10277
4897.19324,0.10252
4895.26446,0.10172
4893.33567,0.10095
4891.40688,0.10106
4889.47809,0.10180
4887.54930,0.10225
4885.62051,0.10196
4883.69173,0.10152
4881.76294,0.10162
4879.83415,0.10220
4877.90536,0.10299
4875.97657,0.10338
4874.04779,0.10275
4872.11900,0.10144
4870.19021,0.10043
4868.26142,0.10050
4866.33263,0.10140
4864.40384,0.10221
4862.47506,0.10244
4860.54627,0.10208
4858.61748,0.10141
4856.68869,0.10114
4854.75990,0.10179
4852.83112,0.10273
4850.90233,0.10284
4848.97354,0.10247
4847.04475,0.10266
4845.11596,0.10300
4843.18717,0.10289
4841.25839,0.10265
4839.32960,0.10247
4837.40081,0.10229
4835.47202,0.10248
4833.54323,0.10299
4831.61444,0.10305
4829.68566,0.10250
4827.75687,0.10186
4825.82808,0.10181
4823.89929,0.10251
4821.97050,0.10288
4820.04172,0.10245
4818.11293,0.10205
4816.18414,0.10209
4814.25535,0.10227
4812.32656,0.10210
4810.39777,0.10164
4808.46899,0.10170
4806.54020,0.10229
4804.61141,0.10223
4802.68262,0.10153
4800.75383,0.10137
4798.82505,0.10187
4796.89626,0.10223
4794.96747,0.10212
4793.03868,0.10171
4791.10989,0.10110
4789.18110,0.10056
4787.25232,0.10066
4785.32353,0.10145
4783.39474,0.10212
4781.46595,0.10246
4779.53716,0.10294
4777.60838,0.10332
4775.67959,0.10317
4773.75080,0.10263
4771.82201,0.10223
4769.89322,0.10203
4767.96443,0.10154
4766.03565,0.10093
4764.10686,0.10097
4762.17807,0.10183
4760.24928,0.10273
4758.32049,0.10313
4756.39170,0.10319
4754.46292,0.10299
4752.53413,0.10255
4750.60534,0.10212
4748.67655,0.10191
4746.74776,0.10212
4744.81898,0.10233
4742.89019,0.10212
4740.96140,0.10217
4739.03261,0.10275
4737.10382,0.10287
4735.17503,0.10233
4733.24625,0.10195
4731.31746,0.10199
4729.38867,0.10225
4727.45988,0.10228
4725.53109,0.10178
4723.60231,0.10110
4721.67352,0.10084
4719.74473,0.10098
4717.81594,0.10104
4715.88715,0.10113
4713.95836,0.10135
4712.02958,0.10134
4710.10079,0.10116
4708.17200,0.10118
4706.24321,0.10118
4704.31442,0.10070
4702.38564,0.10001
4700.45685,0.09964
4698.52806,0.09970
4696.59927,0.09982
4694.67048,0.09976
4692.74169,0.09977
4690.81291,0.09974
4688.88412,0.09949
4686.95533,0.09935
4685.02654,0.09943
4683.09775,0.09975
4681.16897,0.09995
4679.24018,0.09967
4677.31139,0.09958
4675.38260,0.09997
4673.45381,0.10020
4671.52502,0.10006
4669.59624,0.09999
4667.66745,0.10025
4665.73866,0.10062
4663.80987,0.10085
4661.88108,0.10077
4659.95229,0.10050
4658.02351,0.10041
4656.09472,0.10064
4654.16593,0.10116
4652.23714,0.10166
4650.30835,0.10174
4648.37957,0.10134
4646.45078,0.10074
4644.52199,0.10025
4642.59320,0.09987
4640.66441,0.09976
4638.73562,0.09999
4636.80684,0.09981
4634.87805,0.09906
4632.94926,0.09856
4631.02047,0.09852
4629.09168,0.09854
4627.16290,0.09876
4625.23411,0.09961
4623.30532,0.10060
4621.37653,0.10083
4619.44774,0.10051
4617.51895,0.10069
4615.59017,0.10150
4613.66138,0.10201
4611.73259,0.10194
4609.80380,0.10179
4607.87501,0.10172
4605.94623,0.10169
4604.01744,0.10176
4602.08865,0.10168
4600.15986,0.10127
4598.23107,0.10093
4596.30228,0.10093
4594.37350,0.10120
4592.44471,0.10145
4590.51592,0.10133
4588.58713,0.10103
4586.65834,0.10093
4584.72956,0.10080
4582.80077,0.10064
4580.87198,0.10077
4578.94319,0.10095
4577.01440,0.10066
4575.08561,0.10022
4573.15683,0.10025
4571.22804,0.10061
4569.29925,0.10093
4567.37046,0.10131
4565.44167,0.10173
4563.51288,0.10204
4561.58410,0.10217
4559.65531,0.10192
4557.72652,0.10164
4555.79773,0.10165
4553.86894,0.10162
4551.94016,0.10139
4550.01137,0.10115
4548.08258,0.10084
4546.15379,0.10050
4544.22500,0.10043
4542.29621,0.10053
4540.36743,0.10057
4538.43864,0.10066
4536.50985,0.10084
4534.58106,0.10096
4532.65227,0.10101
4530.72349,0.10118
4528.79470,0.10146
4526.86591,0.10150
4524.93712,0.10151
4523.00833,0.10186
4521.07954,0.10231
4519.15076,0.10223
4517.22197,0.10144
4515.29318,0.10058
4513.36439,0.10015
4511.43560,0.10015
4509.50682,0.10046
4507.57803,0.10072
4505.64924,0.10058
4503.72045,0.10024
4501.79166,0.10026
4499.86287,0.10057
4497.93409,0.10051
4496.00530,0.10010
4494.07651,0.09996
4492.14772,0.10007
4490.21893,0.09988
4488.29014,0.09919
4486.36136,0.09810
4484.43257,0.09721
4482.50378,0.09722
4480.57499,0.09775
4478.64620,0.09809
4476.71742,0.09806
4474.78863,0.09798
4472.85984,0.09815
4470.93105,0.09804
4469.00226,0.09756
4467.07347,0.09742
4465.14469,0.09750
4463.21590,0.09720
4461.28711,0.09670
4459.35832,0.09634
4457.42953,0.09621
4455.50075,0.09640
4453.57196,0.09646
4451.64317,0.09591
4449.71438,0.09517
4447.78559,0.09469
4445.85680,0.09445
4443.92802,0.09427
4441.99923,0.09387
4440.07044,0.09330
4438.14165,0.09281
4436.21286,0.09217
4434.28408,0.09128
4432.35529,0.09049
4430.42650,0.08987
4428.49771,0.08922
4426.56892,0.08877
4424.64013,0.08840
4422.71135,0.08752
4420.78256,0.08651
4418.85377,0.08589
4416.92498,0.08529
4414.99619,0.08455
4413.06741,0.08397
4411.13862,0.08328
4409.20983,0.08219
4407.28104,0.08142
4405.35225,0.08119
4403.42346,0.08085
4401.49468,0.08070
4399.56589,0.08108
4397.63710,0.08130
4395.70831,0.08104
4393.77952,0.08095
4391.85073,0.08119
4389.92195,0.08088
4387.99316,0.08001
4386.06437,0.07952
4384.13558,0.07942
4382.20679,0.07906
4380.27801,0.07847
4378.34922,0.07805
4376.42043,0.07762
4374.49164,0.07677
4372.56285,0.07553
4370.63406,0.07454
4368.70528,0.07434
4366.77649,0.07441
4364.84770,0.07396
4362.91891,0.07317
4360.99012,0.07254
4359.06134,0.07206
4357.13255,0.07150
4355.20376,0.07093
4353.27497,0.07046
4351.34618,0.07003
4349.41739,0.06971
4347.48861,0.06945
4345.55982,0.06926
4343.63103,0.06928
4341.70224,0.06901
4339.77345,0.06815
4337.84467,0.06742
4335.91588,0.06733
4333.98709,0.06732
4332.05830,0.06712
4330.12951,0.06719
4328.20072,0.06774
4326.27194,0.06846
4324.34315,0.06895
4322.41436,0.06915
4320.48557,0.06946
4318.55678,0.06990
4316.62800,0.07042
4314.69921,0.07121
4312.77042,0.07209
4310.84163,0.07267
4308.91284,0.07270
4306.98405,0.07234
4305.05527,0.07226
4303.12648,0.07286
4301.19769,0.07365
4299.26890,0.07401
4297.34011,0.07380
4295.41132,0.07345
4293.48254,0.07340
4291.55375,0.07335
4289.62496,0.07284
4287.69617,0.07233
4285.76738,0.07227
4283.83860,0.07235
4281.90981,0.07255
4279.98102,0.07287
4278.05223,0.07303
4276.12344,0.07313
4274.19465,0.07337
4272.26587,0.07347
4270.33708,0.07324
4268.40829,0.07308
4266.47950,0.07340
4264.55071,0.07395
4262.62193,0.07429
4260.69314,0.07435
4258.76435,0.07437
4256.83556,0.07426
4254.90677,0.07398
4252.97798,0.07366
4251.04920,0.07333
4249.12041,0.07319
4247.19162,0.07325
4245.26283,0.07316
4243.33404,0.07293
4241.40526,0.07295
4239.47647,0.07312
4237.54768,0.07325
4235.61889,0.07360
4233.69010,0.07397
4231.76131,0.07374
4229.83253,0.07315
4227.90374,0.07265
4225.97495,0.07226
4224.04616,0.07225
4222.11737,0.07270
4220.18858,0.07303
4218.25980,0.07283
4216.33101,0.07228
4214.40222,0.07191
4212.47343,0.07204
4210.54464,0.07242
4208.61586,0.07268
4206.68707,0.07288
4204.75828,0.07334
4202.82949,0.07404
4200.90070,0.07458
4198.97191,0.07458
4197.04313,0.07418
4195.11434,0.07401
4193.18555,0.07428
4191.25676,0.07479
4189.32797,0.07543
4187.39919,0.07574
4185.47040,0.07532
4183.54161,0.07476
4181.61282,0.07468
4179.68403,0.07474
4177.75524,0.07453
4175.82646,0.07409
4173.89767,0.07365
4171.96888,0.07352
4170.04009,0.07375
4168.11130,0.07389
4166.18252,0.07368
4164.25373,0.07357
4162.32494,0.07403
4160.39615,0.07478
4158.46736,0.07515
4156.53857,0.07512
4154.60979,0.07529
4152.68100,0.07597
4150.75221,0.07688
4148.82342,0.07748
4146.89463,0.07762
4144.96585,0.07758
4143.03706,0.07760
4141.10827,0.07785
4139.17948,0.07835
4137.25069,0.07881
4135.32190,0.07887
4133.39312,0.07856
4131.46433,0.07851
4129.53554,0.07901
4127.60675,0.07930
4125.67796,0.07913
4123.74917,0.07902
4121.82039,0.07907
4119.89160,0.07920
4117.96281,0.07928
4116.03402,0.07913
4114.10523,0.07908
4112.17645,0.07915
4110.24766,0.07915
4108.31887,0.07917
4106.39008,0.07898
4104.46129,0.07821
4102.53250,0.07737
4100.60372,0.07731
4098.67493,0.07777
4096.74614,0.07772
4094.81735,0.07711
4092.88856,0.07673
4090.95978,0.07662
4089.03099,0.07618
4087.10220,0.07537
4085.17341,0.07462
4083.24462,0.07429
4081.31583,0.07428
4079.38705,0.07435
4077.45826,0.07472
4075.52947,0.07558
4073.60068,0.07637
4071.67189,0.07670
4069.74311,0.07704
4067.81432,0.07777
4065.88553,0.07858
4063.95674,0.07921
4062.02795,0.07958
4060.09916,0.07981
4058.17038,0.08005
4056.24159,0.08026
4054.31280,0.08047
4052.38401,0.08079
4050.45522,0.08137
4048.52644,0.08209
4046.59765,0.08237
4044.66886,0.08208
4042.74007,0.08184
4040.81128,0.08188
4038.88249,0.08187
4036.95371,0.08189
4035.02492,0.08211
4033.09613,0.08217
4031.16734,0.08215
4029.23855,0.08246
4027.30976,0.08280
4025.38098,0.08263
4023.45219,0.08221
4021.52340,0.08222
4019.59461,0.08251
4017.66582,0.08259
4015.73704,0.08269
4013.80825,0.08278
4011.87946,0.08246
4009.95067,0.08218
4008.02188,0.08245
4006.09309,0.08299
4004.16431,0.08327
4002.23552,0.08336
4000.30673,0.08384
3998.37794,0.08453
3996.44915,0.08486
3994.52037,0.08502
3992.59158,0.08516
3990.66279,0.08516
3988.73400,0.08521
3986.80521,0.08533
3984.87642,0.08540
3982.94764,0.08540
3981.01885,0.08547
3979.09006,0.08568
3977.16127,0.08594
3975.23248,0.08619
3973.30370,0.08664
3971.37491,0.08709
3969.44612,0.08706
3967.51733,0.08690
3965.58854,0.08704
3963.65975,0.08716
3961.73097,0.08716
3959.80218,0.08738
3957.87339,0.08769
3955.94460,0.08774
3954.01581,0.08756
3952.08702,0.08729
3950.15824,0.08706
3948.22945,0.08695
3946.30066,0.08688
3944.37187,0.08689
3942.44308,0.08709
3940.51430,0.08731
3938.58551,0.08741
3936.65672,0.08748
3934.72793,0.08747
3932.79914,0.08714
3930.87035,0.08661
3928.94157,0.08636
3927.01278,0.08645
3925.08399,0.08657
3923.15520,0.08662
3921.22641,0.08675
3919.29763,0.08692
3917.36884,0.08721
3915.44005,0.08771
3913.51126,0.08800
3911.58247,0.08803
3909.65368,0.08811
3907.72490,0.08817
3905.79611,0.08807
3903.86732,0.08784
3901.93853,0.08762
3900.00974,0.08780
3898.08096,0.08817
3896.15217,0.08838
3894.22338,0.08855
3892.29459,0.08859
3890.36580,0.08858
3888.43701,0.08870
3886.50823,0.08871
3884.57944,0.08867
3882.65065,0.08873
3880.72186,0.08853
3878.79307,0.08813
3876.86429,0.08796
3874.93550,0.08809
3873.00671,0.08818
3871.07792,0.08810
3869.14913,0.08826
3867.22034,0.08834
3865.29156,0.08803
3863.36277,0.08786
3861.43398,0.08810
3859.50519,0.08837
3857.57640,0.08852
3855.64761,0.08846
3853.71883,0.08816
3851.79004,0.08816
3849.86125,0.08847
3847.93246,0.08872
3846.00367,0.08875
3844.07489,0.08860
3842.14610,0.08874
3840.21731,0.08934
3838.28852,0.08992
3836.35973,0.09002
3834.43094,0.08971
3832.50216,0.08936
3830.57337,0.08935
3828.64458,0.08972
3826.71579,0.09000
3824.78700,0.08987
3822.85822,0.08970
3820.92943,0.09004
3819.00064,0.09056
3817.07185,0.09040
3815.14306,0.08980
3813.21427,0.08976
3811.28549,0.09033
3809.35670,0.09086
3807.42791,0.09087
3805.49912,0.09056
3803.57033,0.09018
3801.64155,0.08971
3799.71276,0.08988
3797.78397,0.09043
3795.85518,0.09075
3793.92639,0.09108
3791.99760,0.09144
3790.06882,0.09165
3788.14003,0.09184
3786.21124,0.09203
3784.28245,0.09203
3782.35366,0.09173
3780.42488,0.09118
3778.49609,0.09090
3776.56730,0.09129
3774.63851,0.09182
3772.70972,0.09190
3770.78093,0.09176
3768.85215,0.09172
3766.92336,0.09143
3764.99457,0.09100
3763.06578,0.09105
3761.13699,0.09138
3759.20820,0.09145
3757.27942,0.09131
3755.35063,0.09141
3753.42184,0.09183
3751.49305,0.09210
3749.56426,0.09176
3747.63548,0.09143
3745.70669,0.09115
3743.77790,0.09127
3741.84911,0.09224
3739.92032,0.09309
3737.99153,0.09313
3736.06275,0.09269
3734.13396,0.09240
3732.20517,0.09231
3730.27638,0.09274
3728.34759,0.09342
3726.41881,0.09356
3724.49002,0.09324
3722.56123,0.09311
3720.63244,0.09312
3718.70365,0.09315
3716.77486,0.09303
3714.84608,0.09262
3712.91729,0.09212
3710.98850,0.09192
3709.05971,0.09204
3707.13092,0.09215
3705.20214,0.09217
3703.27335,0.09189
3701.34456,0.09116
3699.41577,0.09061
3697.48698,0.09026
3695.55819,0.08945
3693.62941,0.08830
3691.70062,0.08715
3689.77183,0.08598
3687.84304,0.08555
3685.91425,0.08607
3683.98546,0.08646
3682.05668,0.08631
3680.12789,0.08582
3678.19910,0.08504
3676.27031,0.08427
3674.34152,0.08450
3672.41274,0.08507
3670.48395,0.08528
3668.55516,0.08536
3666.62637,0.08537
3664.69758,0.08534
3662.76879,0.08552
3660.84001,0.08591
3658.91122,0.08591
3656.98243,0.08514
3655.05364,0.08454
3653.12485,0.08487
3651.19607,0.08534
3649.26728,0.08514
3647.33849,0.08515
3645.40970,0.08566
3643.48091,0.08599
3641.55212,0.08615
3639.62334,0.08620
3637.69455,0.08612
3635.76576,0.08594
3633.83697,0.08581
3631.90818,0.08569
3629.97940,0.08506
3628.05061,0.08400
3626.12182,0.08378
3624.19303,0.08397
3622.26424,0.08385
3620.33545,0.08334
3618.40667,0.08301
3616.47788,0.08330
3614.54909,0.08366
3612.62030,0.08374
3610.69151,0.08378
3608.76273,0.08363
3606.83394,0.08312
3604.90515,0.08287
3602.97636,0.08289
3601.04757,0.08241
3599.11878,0.08158
3597.19000,0.08144
3595.26121,0.08174
3593.33242,0.08170
3591.40363,0.08153
3589.47484,0.08133
3587.54605,0.08078
3585.61727,0.08048
3583.68848,0.08077
3581.75969,0.08087
3579.83090,0.08027
3577.90211,0.07940
3575.97333,0.07903
3574.04454,0.07902
3572.11575,0.07889
3570.18696,0.07878
3568.25817,0.07877
3566.32938,0.07832
3564.40060,0.07761
3562.47181,0.07726
3560.54302,0.07711
3558.61423,0.07680
3556.68544,0.07637
3554.75666,0.07608
3552.82787,0.07613
3550.89908,0.07639
3548.97029,0.07646
3547.04150,0.07623
3545.11271,0.07600
3543.18393,0.07601
3541.25514,0.07612
3539.32635,0.07607
3537.39756,0.07578
3535.46877,0.07534
3533.53999,0.07493
3531.61120,0.07471
3529.68241,0.07473
3527.75362,0.07486
3525.82483,0.07493
3523.89604,0.07480
3521.96726,0.07459
3520.03847,0.07444
3518.10968,0.07435
3516.18089,0.07443
3514.25210,0.07475
3512.32332,0.07480
3510.39453,0.07447
3508.46574,0.07438
3506.53695,0.07451
3504.60816,0.07430
3502.67937,0.07380
3500.75059,0.07348
3498.82180,0.07343
3496.89301,0.07313
3494.96422,0.07250
3493.03543,0.07218
3491.10664,0.07232
3489.17786,0.07235
3487.24907,0.07200
3485.32028,0.07130
3483.39149,0.07045
3481.46270,0.06994
3479.53392,0.06990
3477.60513,0.06983
3475.67634,0.06968
3473.74755,0.06968
3471.81876,0.06970
3469.88997,0.06945
3467.96119,0.06902
3466.03240,0.06884
3464.10361,0.06894
3462.17482,0.06888
3460.24603,0.06866
3458.31725,0.06868
3456.38846,0.06888
3454.45967,0.06879
3452.53088,0.06844
3450.60209,0.06812
3448.67330,0.06754
3446.74452,0.06674
3444.81573,0.06636
3442.88694,0.06618
3440.95815,0.06585
3439.02936,0.06570
3437.10058,0.06563
3435.17179,0.06520
3433.24300,0.06472
3431.31421,0.06461
3429.38542,0.06464
3427.45663,0.06434
3425.52785,0.06379
3423.59906,0.06353
3421.67027,0.06357
3419.74148,0.06372
3417.81269,0.06394
3415.88390,0.06417
3413.95512,0.06449
3412.02633,0.06490
3410.09754,0.06551
3408.16875,0.06641
3406.23996,0.06695
3404.31118,0.06685
3402.38239,0.06660
3400.45360,0.06670
3398.52481,0.06725
3396.59602,0.06781
3394.66723,0.06807
3392.73845,0.06819
3390.80966,0.06827
3388.88087,0.06830
3386.95208,0.06848
3385.02329,0.06882
3383.09451,0.06924
3381.16572,0.06970
3379.23693,0.07000
3377.30814,0.07015
3375.37935,0.07058
3373.45056,0.07106
3371.52178,0.07100
3369.59299,0.07071
3367.66420,0.07074
3365.73541,0.07103
3363.80662,0.07155
3361.87784,0.07220
3359.94905,0.07258
3358.02026,0.07262
3356.09147,0.07264
3354.16268,0.07271
3352.23389,0.07260
3350.30511,0.07239
3348.37632,0.07234
3346.44753,0.07240
3344.51874,0.07225
3342.58995,0.07209
3340.66117,0.07241
3338.73238,0.07283
3336.80359,0.07272
3334.87480,0.07224
3332.94601,0.07182
3331.01722,0.07171
3329.08844,0.07186
3327.15965,0.07192
3325.23086,0.07176
3323.30207,0.07129
3321.37328,0.07056
3319.44449,0.07006
3317.51571,0.06995
3315.58692,0.06962
3313.65813,0.06870
3311.72934,0.06757
3309.80055,0.06647
3307.87177,0.06534
3305.94298,0.06453
3304.01419,0.06428
3302.08540,0.06404
3300.15661,0.06376
3298.22782,0.06402
3296.29904,0.06465
3294.37025,0.06537
3292.44146,0.06631
3290.51267,0.06725
3288.58388,0.06788
3286.65510,0.06846
3284.72631,0.06945
3282.79752,0.07059
3280.86873,0.07142
3278.93994,0.07198
3277.01115,0.07256
3275.08237,0.07335
3273.15358,0.07420
3271.22479,0.07471
3269.29600,0.07473
3267.36721,0.07441
3265.43843,0.07401
3263.50964,0.07404
3261.58085,0.07474
3259.65206,0.07544
3257.72327,0.07568
3255.79448,0.07579
3253.86570,0.07615
3251.93691,0.07661
3250.00812,0.07668
3248.07933,0.07655
3246.15054,0.07669
3244.22175,0.07694
3242.29297,0.07712
3240.36418,0.07713
3238.43539,0.07682
3236.50660,0.07639
3234.57781,0.07602
3232.64903,0.07582
3230.72024,0.07565
3228.79145,0.07537
3226.86266,0.07518
3224.93387,0.07519
3223.00508,0.07535
3221.07630,0.07552
3219.14751,0.07557
3217.21872,0.07557
3215.28993,0.07536
3213.36114,0.07487
3211.43236,0.07460
3209.50357,0.07477
3207.57478,0.07506
3205.64599,0.07516
3203.71720,0.07501
3201.78841,0.07467
3199.85963,0.07435
3197.93084,0.07409
3196.00205,0.07387
3194.07326,0.07388
3192.14447,0.07403
3190.21569,0.07401
3188.28690,0.07409
3186.35811,0.07457
3184.42932,0.07503
3182.50053,0.07498
3180.57174,0.07465
3178.64296,0.07442
3176.71417,0.07435
3174.78538,0.07433
3172.85659,0.07429
3170.92780,0.07443
3168.99902,0.07464
3167.07023,0.07447
3165.14144,0.07407
3163.21265,0.07406
3161.28386,0.07439
3159.35507,0.07434
3157.42629,0.07400
3155.49750,0.07398
3153.56871,0.07420
3151.63992,0.07438
3149.71113,0.07440
3147.78234,0.07402
3145.85356,0.07341
3143.92477,0.07316
3141.99598,0.07333
3140.06719,0.07329
3138.13840,0.07283
3136.20962,0.07247
3134.28083,0.07233
3132.35204,0.07216
3130.42325,0.07202
3128.49446,0.07195
3126.56567,0.07189
3124.63689,0.07173
3122.70810,0.07146
3120.77931,0.07122
3118.85052,0.07101
3116.92173,0.07072
3114.99295,0.07055
3113.06416,0.07069
3111.13537,0.07085
3109.20658,0.07063
3107.27779,0.07015
3105.34900,0.06970
3103.42022,0.06933
3101.49143,0.06887
3099.56264,0.06834
3097.63385,0.06786
3095.70506,0.06727
3093.77628,0.06672
3091.84749,0.06647
3089.91870,0.06615
3087.98991,0.06562
3086.06112,0.06532
3084.13233,0.06524
3082.20355,0.06503
3080.27476,0.06480
3078.34597,0.06486
3076.41718,0.06502
3074.48839,0.06496
3072.55961,0.06487
3070.63082,0.06480
3068.70203,0.06463
3066.77324,0.06440
3064.84445,0.06399
3062.91566,0.06363
3060.98688,0.06354
3059.05809,0.06331
3057.12930,0.06283
3055.20051,0.06255
3053.27172,0.06247
3051.34293,0.06234
3049.41415,0.06235
3047.48536,0.06255
3045.55657,0.06269
3043.62778,0.06271
3041.69899,0.06263
3039.77021,0.06242
3037.84142,0.06224
3035.91263,0.06214
3033.98384,0.06181
3032.05505,0.06126
3030.12626,0.06091
3028.19748,0.06082
3026.26869,0.06062
3024.33990,0.06027
3022.41111,0.05997
3020.48232,0.05975
3018.55354,0.05951
3016.62475,0.05928
3014.69596,0.05902
3012.76717,0.05868
3010.83838,0.05834
3008.90959,0.05816
3006.98081,0.05811
3005.05202,0.05785
3003.12323,0.05729
3001.19444,0.05697
2999.26565,0.05723
2997.33687,0.05766
2995.40808,0.05782
2993.47929,0.05763
2991.55050,0.05708
2989.62171,0.05640
2987.69292,0.05584
2985.76414,0.05563
2983.83535,0.05580
2981.90656,0.05595
2979.97777,0.05592
2978.04898,0.05606
2976.12019,0.05624
2974.19141,0.05608
2972.26262,0.05587
2970.33383,0.05598
2968.40504,0.05630
2966.47625,0.05675
2964.54747,0.05728
2962.61868,0.05772
2960.68989,0.05824
2958.76110,0.05891
2956.83231,0.05934
2954.90352,0.05936
2952.97474,0.05938
2951.04595,0.05964
2949.11716,0.05977
2947.18837,0.05949
2945.25958,0.05913
2943.33080,0.05898
2941.40201,0.05894
2939.47322,0.05901
2937.54443,0.05905
2935.61564,0.05899
2933.68685,0.05913
2931.75807,0.05968
2929.82928,0.06038
2927.90049,0.06101
2925.97170,0.06165
2924.04291,0.06220
2922.11413,0.06244
2920.18534,0.06243
2918.25655,0.06228
2916.32776,0.06212
2914.39897,0.06211
2912.47018,0.06236
2910.54140,0.06260
2908.61261,0.06259
2906.68382,0.06261
2904.75503,0.06290
2902.82624,0.06316
2900.89746,0.06304
2898.96867,0.06271
2897.03988,0.06243
2895.11109,0.06211
2893.18230,0.06188
2891.25351,0.06180
2889.32473,0.06165
2887.39594,0.06141
2885.46715,0.06120
2883.53836,0.06101
2881.60957,0.06092
2879.68078,0.06092
2877.75200,0.06084
2875.82321,0.06076
2873.89442,0.06096
2871.96563,0.06137
2870.03684,0.06175
2868.10806,0.06204
2866.17927,0.06222
2864.25048,0.06226
2862.32169,0.06227
2860.39290,0.06239
2858.46411,0.06268
2856.53533,0.06308
2854.60654,0.06341
2852.67775,0.06350
2850.74896,0.06335
2848.82017,0.06330
2846.89139,0.06342
2844.96260,0.06347
2843.03381,0.06340
2841.10502,0.06326
2839.17623,0.06306
2837.24744,0.06285
2835.31866,0.06259
2833.38987,0.06242
2831.46108,0.06252
2829.53229,0.06267
2827.60350,0.06258
2825.67472,0.06243
2823.74593,0.06246
2821.81714,0.06244
2819.88835,0.06224
2817.95956,0.06211
2816.03077,0.06219
2814.10199,0.06237
2812.17320,0.06251
2810.24441,0.06265
2808.31562,0.06295
2806.38683,0.06342
2804.45805,0.06391
2802.52926,0.06406
2800.60047,0.06389
2798.67168,0.06391
2796.74289,0.06432
2794.81410,0.06476
2792.88532,0.06514
2790.95653,0.06567
2789.02774,0.06613
2787.09895,0.06625
2785.17016,0.06634
2783.24137,0.06661
2781.31259,0.06680
2779.38380,0.06690
2777.45501,0.06705
2775.52622,0.06726
2773.59743,0.06753
2771.66865,0.06784
2769.73986,0.06816
2767.81107,0.06835
2765.88228,0.06847
2763.95349,0.06862
2762.02470,0.06871
2760.09592,0.06863
2758.16713,0.06851
2756.23834,0.06856
2754.30955,0.06853
2752.38076,0.06814
2750.45198,0.06774
2748.52319,0.06764
2746.59440,0.06756
2744.66561,0.06735
2742.73682,0.06723
2740.80803,0.06722
2738.87925,0.06704
2736.95046,0.06666
2735.02167,0.06649
2733.09288,0.06659
2731.16409,0.06675
2729.23531,0.06700
2727.30652,0.06745
2725.37773,0.06795
2723.44894,0.06832
2721.52015,0.06857
2719.59136,0.06887
2717.66258,0.06929
2715.73379,0.06974
2713.80500,0.07023
2711.87621,0.07069
2709.94742,0.07091
2708.01863,0.07092
2706.08985,0.07095
2704.16106,0.07106
2702.23227,0.07127
2700.30348,0.07158
2698.37469,0.07178
2696.44591,0.07176
2694.51712,0.07178
2692.58833,0.07198
2690.65954,0.07231
2688.73075,0.07259
2686.80196,0.07260
2684.87318,0.07236
2682.94439,0.07207
2681.01560,0.07185
2679.08681,0.07175
2677.15802,0.07176
2675.22924,0.07182
2673.30045,0.07188
2671.37166,0.07189
2669.44287,0.07183
2667.51408,0.07173
2665.58529,0.07173
2663.65651,0.07198
2661.72772,0.07243
2659.79893,0.07287
2657.87014,0.07323
2655.94135,0.07356
2654.01257,0.07403
2652.08378,0.07455
2650.15499,0.07475
2648.22620,0.07457
2646.29741,0.07425
2644.36862,0.07405
2642.43984,0.07410
2640.51105,0.07430
2638.58226,0.07442
2636.65347,0.07434
2634.72468,0.07403
2632.79590,0.07359
2630.86711,0.07323
2628.93832,0.07303
2627.00953,0.07295
2625.08074,0.07308
2623.15195,0.07333
2621.22317,0.07348
2619.29438,0.07342
2617.36559,0.07320
2615.43680,0.07291
2613.50801,0.07269
2611.57922,0.07269
2609.65044,0.07284
2607.72165,0.07285
2605.79286,0.07277
2603.86407,0.07286
2601.93528,0.07317
2600.00650,0.07346
2598.07771,0.07345
2596.14892,0.07328
2594.22013,0.07330
2592.29134,0.07340
2590.36255,0.07338
2588.43377,0.07334
2586.50498,0.07326
2584.57619,0.07299
2582.64740,0.07272
2580.71861,0.07261
2578.78983,0.07266
2576.86104,0.07287
2574.93225,0.07310
2573.00346,0.07320
2571.07467,0.07315
2569.14588,0.07316
2567.21710,0.07330
2565.28831,0.07346
2563.35952,0.07361
2561.43073,0.07370
2559.50194,0.07367
2557.57316,0.07359
2555.64437,0.07369
2553.71558,0.07397
2551.78679,0.07412
2549.85800,0.07411
2547.92921,0.07419
2546.00043,0.07439
2544.07164,0.07456
2542.14285,0.07463
2540.21406,0.07455
2538.28527,0.07451
2536.35649,0.07474
2534.42770,0.07505
2532.49891,0.07519
2530.57012,0.07517
2528.64133,0.07521
2526.71254,0.07544
2524.78376,0.07571
2522.85497,0.07591
2520.92618,0.07606
2518.99739,0.07616
2517.06860,0.07634
2515.13981,0.07673
2513.21103,0.07723
2511.28224,0.07762
2509.35345,0.07785
2507.42466,0.07793
2505.49587,0.07799
2503.56709,0.07812
2501.63830,0.07830
2499.70951,0.07854
2497.78072,0.07878
2495.85193,0.07893
2493.92314,0.07898
2491.99436,0.07892
2490.06557,0.07884
2488.13678,0.07896
2486.20799,0.07926
2484.27920,0.07937
2482.35042,0.07919
2480.42163,0.07909
2478.49284,0.07923
2476.56405,0.07937
2474.63526,0.07944
2472.70647,0.07966
2470.77769,0.08008
2468.84890,0.08041
2466.92011,0.08050
2464.99132,0.08048
2463.06253,0.08047
2461.13375,0.08051
2459.20496,0.08061
2457.27617,0.08058
2455.34738,0.08041
2453.41859,0.08031
2451.48980,0.08028
2449.56102,0.08024
2447.63223,0.08009
2445.70344,0.07980
2443.77465,0.07962
2441.84586,0.07969
2439.91707,0.07972
2437.98829,0.07953
2436.05950,0.07935
2434.13071,0.07935
2432.20192,0.07924
2430.27313,0.07878
2428.34435,0.07816
2426.41556,0.07767
2424.48677,0.07726
2422.55798,0.07691
2420.62919,0.07681
2418.70040,0.07687
2416.77162,0.07673
2414.84283,0.07643
2412.91404,0.07625
2410.98525,0.07616
2409.05646,0.07605
2407.12768,0.07593
2405.19889,0.07574
2403.27010,0.07547
2401.34131,0.07521
2399.41252,0.07508
2397.48373,0.07510
2395.55495,0.07512
2393.62616,0.07503
2391.69737,0.07482
2389.76858,0.07447
2387.83979,0.07410
2385.91101,0.07386
2383.98222,0.07375
2382.05343,0.07373
2380.12464,0.07386
2378.19585,0.07404
2376.26706,0.07412
2374.33828,0.07424
2372.40949,0.07453
2370.48070,0.07474
2368.55191,0.07477
2366.62312,0.07486
2364.69434,0.07511
2362.76555,0.07533
2360.83676,0.07550
2358.90797,0.07589
2356.97918,0.07654
2355.05039,0.07697
2353.12161,0.07719
2351.19282,0.07766
2349.26403,0.07817
2347.33524,0.07849
2345.40645,0.07891
2343.47766,0.07955
2341.54888,0.07994
2339.62009,0.07987
2337.69130,0.07972
2335.76251,0.07979
2333.83372,0.08003
2331.90494,0.08051
2329.97615,0.08116
2328.04736,0.08162
2326.11857,0.08170
2324.18978,0.08150
2322.26099,0.08137
2320.33221,0.08158
2318.40342,0.08193
2316.47463,0.08215
2314.54584,0.08216
2312.61705,0.08196
2310.68827,0.08187
2308.75948,0.08210
2306.83069,0.08242
2304.90190,0.08249
2302.97311,0.08227
2301.04432,0.08183
2299.11554,0.08135
2297.18675,0.08117
2295.25796,0.08128
2293.32917,0.08124
2291.40038,0.08090
2289.47160,0.08045
2287.54281,0.07986
2285.61402,0.07928
2283.68523,0.07890
2281.75644,0.07862
2279.82765,0.07840
2277.89887,0.07838
2275.97008,0.07845
2274.04129,0.07856
2272.11250,0.07882
2270.18371,0.07923
2268.25493,0.07972
2266.32614,0.08012
2264.39735,0.08027
2262.46856,0.08028
2260.53977,0.08029
2258.61098,0.08034
2256.68220,0.08054
2254.75341,0.08071
2252.82462,0.08073
2250.89583,0.08059
2248.96704,0.08033
2247.03825,0.08015
2245.10947,0.08007
2243.18068,0.07993
2241.25189,0.07984
2239.32310,0.07989
2237.39431,0.07986
2235.46553,0.07981
2233.53674,0.07985
2231.60795,0.07983
2229.67916,0.07973
2227.75037,0.07982
2225.82158,0.08007
2223.89280,0.08010
2221.96401,0.07998
2220.03522,0.08018
2218.10643,0.08066
2216.17764,0.08100
2214.24886,0.08100
2212.32007,0.08073
2210.39128,0.08052
2208.46249,0.08066
2206.53370,0.08124
2204.60491,0.08204
2202.67613,0.08268
2200.74734,0.08294
2198.81855,0.08285
2196.88976,0.08269
2194.96097,0.08276
2193.03219,0.08307
2191.10340,0.08345
2189.17461,0.08375
2187.24582,0.08389
2185.31703,0.08395
2183.38824,0.08404
2181.45946,0.08423
2179.53067,0.08445
2177.60188,0.08456
2175.67309,0.08457
2173.74430,0.08463
2171.81551,0.08475
2169.88673,0.08479
2167.95794,0.08476
2166.02915,0.08475
2164.10036,0.08473
2162.17157,0.08457
2160.24279,0.08428
2158.31400,0.08401
2156.38521,0.08380
2154.45642,0.08373
2152.52763,0.08379
2150.59884,0.08386
2148.67006,0.08377
2146.74127,0.08357
2144.81248,0.08351
2142.88369,0.08361
2140.95490,0.08379
2139.02612,0.08388
2137.09733,0.08372
2135.16854,0.08346
2133.23975,0.08331
2131.31096,0.08327
2129.38217,0.08340
2127.45339,0.08358
2125.52460,0.08362
2123.59581,0.08351
2121.66702,0.08334
2119.73823,0.08314
2117.80945,0.08296
2115.88066,0.08290
2113.95187,0.08301
2112.02308,0.08320
2110.09429,0.08319
2108.16550,0.08289
2106.23672,0.08263
2104.30793,0.08270
2102.37914,0.08297
2100.45035,0.08315
2098.52156,0.08305
2096.59278,0.08276
2094.66399,0.08249
2092.73520,0.08235
2090.80641,0.08238
2088.87762,0.08236
2086.94883,0.08212
2085.02005,0.08178
2083.09126,0.08143
2081.16247,0.08124
2079.23368,0.08144
2077.30489,0.08176
2075.37610,0.08175
2073.44732,0.08156
2071.51853,0.08149
2069.58974,0.08150
2067.66095,0.08154
2065.73216,0.08155
2063.80338,0.08153
2061.87459,0.08154
2059.94580,0.08159
2058.01701,0.08169
2056.08822,0.08183
2054.15943,0.08199
2052.23065,0.08213
2050.30186,0.08228
2048.37307,0.08253
2046.44428,0.08278
2044.51549,0.08284
2042.58671,0.08275
2040.65792,0.08271
2038.72913,0.08277
2036.80034,0.08294
2034.87155,0.08312
2032.94276,0.08318
2031.01398,0.08316
2029.08519,0.08311
2027.15640,0.08309
2025.22761,0.08321
2023.29882,0.08340
2021.37004,0.08354
2019.44125,0.08362
2017.51246,0.08371
2015.58367,0.08388
2013.65488,0.08414
2011.72609,0.08443
2009.79731,0.08459
2007.86852,0.08437
2005.93973,0.08399
2004.01094,0.08384
2002.08215,0.08392
2000.15336,0.08400
1998.22458,0.08386
1996.29579,0.08335
1994.36700,0.08272
1992.43821,0.08227
1990.50942,0.08201
1988.58064,0.08186
1986.65185,0.08175
1984.72306,0.08152
1982.79427,0.08118
1980.86548,0.08089
1978.93669,0.08075
1977.00791,0.08079
1975.07912,0.08081
1973.15033,0.08052
1971.22154,0.08002
1969.29275,0.07944
1967.36397,0.07877
1965.43518,0.07809
1963.50639,0.07748
1961.57760,0.07675
1959.64881,0.07574
1957.72002,0.07452
1955.79124,0.07324
1953.86245,0.07211
1951.93366,0.07138
1950.00487,0.07107
1948.07608,0.07108
1946.14730,0.07137
1944.21851,0.07187
1942.28972,0.07243
1940.36093,0.07316
1938.43214,0.07414
1936.50335,0.07527
1934.57457,0.07631
1932.64578,0.07698
1930.71699,0.07732
1928.78820,0.07768
1926.85941,0.07816
1924.93063,0.07872
1923.00184,0.07928
1921.07305,0.07957
1919.14426,0.07945
1917.21547,0.07916
1915.28668,0.07919
1913.35790,0.07958
1911.42911,0.07991
1909.50032,0.07983
1907.57153,0.07961
1905.64274,0.07954
1903.71395,0.07955
1901.78517,0.07963
1899.85638,0.07983
1897.92759,0.08001
1895.99880,0.08001
1894.07001,0.07990
1892.14123,0.07982
1890.21244,0.07987
1888.28365,0.08016
1886.35486,0.08052
1884.42607,0.08058
1882.49728,0.08035
1880.56850,0.08013
1878.63971,0.08001
1876.71092,0.08008
1874.78213,0.08032
1872.85334,0.08040
1870.92456,0.08007
1868.99577,0.07949
1867.06698,0.07904
1865.13819,0.07894
1863.20940,0.07903
1861.28061,0.07894
1859.35183,0.07845
1857.42304,0.07783
1855.49425,0.07728
1853.56546,0.07680
1851.63667,0.07644
1849.70789,0.07610
1847.77910,0.07549
1845.85031,0.07453
1843.92152,0.07352
1841.99273,0.07297
1840.06394,0.07272
1838.13516,0.07221
1836.20637,0.07118
1834.27758,0.06992
1832.34879,0.06883
1830.42000,0.06795
1828.49122,0.06726
1826.56243,0.06673
1824.63364,0.06613
1822.70485,0.06551
1820.77606,0.06520
1818.84727,0.06540
1816.91849,0.06600
1814.98970,0.06650
1813.06091,0.06660
1811.13212,0.06643
1809.20333,0.06636
1807.27454,0.06648
1805.34576,0.06658
1803.41697,0.06647
1801.48818,0.06607
1799.55939,0.06548
1797.63060,0.06498
1795.70182,0.06473
1793.77303,0.06439
1791.84424,0.06355
1789.91545,0.06269
1787.98666,0.06222
1786.05787,0.06198
1784.12909,0.06179
1782.20030,0.06144
1780.27151,0.06083
1778.34272,0.06005
1776.41393,0.05947
1774.48515,0.05910
1772.55636,0.05861
1770.62757,0.05805
1768.69878,0.05756
1766.76999,0.05711
1764.84120,0.05676
1762.91242,0.05621
1760.98363,0.05545
1759.05484,0.05493
1757.12605,0.05453
1755.19726,0.05420
1753.26848,0.05408
1751.33969,0.05395
1749.41090,0.05361
1747.48211,0.05310
1745.55332,0.05261
1743.62453,0.05217
1741.69575,0.05159
1739.76696,0.05084
1737.83817,0.05033
1735.90938,0.05001
1733.98059,0.04953
1732.05180,0.04949
1730.12302,0.05017
1728.19423,0.05131
1726.26544,0.05299
1724.33665,0.05539
1722.40786,0.05807
1720.47908,0.06059
1718.55029,0.06345
1716.62150,0.06646
1714.69271,0.06828
1712.76392,0.06923
1710.83513,0.06963
1708.90635,0.06942
1706.97756,0.06856
1705.04877,0.06729
1703.11998,0.06615
1701.19119,0.06487
1699.26241,0.06362
1697.33362,0.06309
1695.40483,0.06273
1693.47604,0.06241
1691.54725,0.06210
1689.61846,0.06169
1687.68968,0.06140
1685.76089,0.06113
1683.83210,0.06049
1681.90331,0.05988
1679.97452,0.05975
1678.04574,0.05992
1676.11695,0.06009
1674.18816,0.05999
1672.25937,0.05985
1670.33058,0.05985
1668.40179,0.06011
1666.47301,0.06043
1664.54422,0.06052
1662.61543,0.06070
1660.68664,0.06139
1658.75785,0.06221
1656.82907,0.06291
1654.90028,0.06336
1652.97149,0.06325
1651.04270,0.06311
1649.11391,0.06314
1647.18512,0.06259
1645.25634,0.06163
1643.32755,0.06107
1641.39876,0.06058
1639.46997,0.05993
1637.54118,0.05928
1635.61239,0.05918
1633.68361,0.06003
1631.75482,0.06113
1629.82603,0.06223
1627.89724,0.06310
1625.96845,0.06355
1624.03967,0.06363
1622.11088,0.06345
1620.18209,0.06326
1618.25330,0.06288
1616.32451,0.06200
1614.39572,0.06139
1612.46694,0.06131
1610.53815,0.06140
1608.60936,0.06170
1606.68057,0.06221
1604.75178,0.06262
1602.82300,0.06287
1600.89421,0.06323
1598.96542,0.06376
1597.03663,0.06424
1595.10784,0.06433
1593.17905,0.06392
1591.25027,0.06329
1589.32148,0.06275
1587.39269,0.06219
1585.46390,0.06125
1583.53511,0.05986
1581.60633,0.05849
1579.67754,0.05775
1577.74875,0.05778
1575.81996,0.05808
1573.89117,0.05829
1571.96238,0.05854
1570.03360,0.05877
1568.10481,0.05892
1566.17602,0.05916
1564.24723,0.05950
1562.31844,0.05979
1560.38966,0.06015
1558.46087,0.06051
1556.53208,0.06044
1554.60329,0.06019
1552.67450,0.06000
1550.74571,0.05999
1548.81693,0.06014
1546.88814,0.06030
1544.95935,0.06020
1543.03056,0.05966
1541.10177,0.05864
1539.17298,0.05795
1537.24420,0.05846
1535.31541,0.05922
1533.38662,0.05940
1531.45783,0.05897
1529.52904,0.05875
1527.60026,0.05900
1525.67147,0.05962
1523.74268,0.06023
1521.81389,0.06015
1519.88510,0.05942
1517.95631,0.05882
1516.02753,0.05839
1514.09874,0.05800
1512.16995,0.05758
1510.24116,0.05702
1508.31237,0.05617
1506.38359,0.05563
1504.45480,0.05619
1502.52601,0.05690
1500.59722,0.05745
1498.66843,0.05781
1496.73964,0.05784
1494.81086,0.05776
1492.88207,0.05775
1490.95328,0.05741
1489.02449,0.05662
1487.09570,0.05604
1485.16692,0.05565
1483.23813,0.05509
1481.30934,0.05452
1479.38055,0.05415
1477.45176,0.05389
1475.52297,0.05360
1473.59419,0.05331
1471.66540,0.05313
1469.73661,0.05334
1467.80782,0.05381
1465.87903,0.05431
1463.95024,0.05478
1462.02146,0.05536
1460.09267,0.05618
1458.16388,0.05700
1456.23509,0.05713
1454.30630,0.05683
1452.37752,0.05652
1450.44873,0.05612
1448.51994,0.05572
1446.59115,0.05555
1444.66236,0.05549
1442.73357,0.05520
1440.80479,0.05480
1438.87600,0.05462
1436.94721,0.05473
1435.01842,0.05507
1433.08963,0.05536
1431.16085,0.05546
1429.23206,0.05554
1427.30327,0.05579
1425.37448,0.05610
1423.44569,0.05637
1421.51690,0.05650
1419.58812,0.05627
1417.65933,0.05579
1415.73054,0.05558
1413.80175,0.05550
1411.87296,0.05540
1409.94418,0.05555
1408.01539,0.05610
1406.08660,0.05655
1404.15781,0.05642
1402.22902,0.05610
1400.30023,0.05594
1398.37145,0.05564
1396.44266,0.05508
1394.51387,0.05459
1392.58508,0.05434
1390.65629,0.05425
1388.72751,0.05424
1386.79872,0.05429
1384.86993,0.05448
1382.94114,0.05477
1381.01235,0.05511
1379.08356,0.05540
1377.15478,0.05556
1375.22599,0.05570
1373.29720,0.05572
1371.36841,0.05549
1369.43962,0.05519
1367.51083,0.05493
1365.58205,0.05480
1363.65326,0.05465
1361.72447,0.05421
1359.79568,0.05369
1357.86689,0.05342
1355.93811,0.05340
1354.00932,0.05350
1352.08053,0.05356
1350.15174,0.05345
1348.22295,0.05316
1346.29416,0.05292
1344.36538,0.05289
1342.43659,0.05283
1340.50780,0.05251
1338.57901,0.05223
1336.65022,0.05225
1334.72144,0.05246
1332.79265,0.05273
1330.86386,0.05290
1328.93507,0.05291
1327.00628,0.05284
1325.07749,0.05270
1323.14871,0.05258
1321.21992,0.05251
1319.29113,0.05246
1317.36234,0.05226
1315.43355,0.05185
1313.50477,0.05141
1311.57598,0.05126
1309.64719,0.05129
1307.71840,0.05104
1305.78961,0.05061
1303.86082,0.05050
1301.93204,0.05042
1300.00325,0.04986
1298.07446,0.04890
1296.14567,0.04794
1294.21688,0.04724
1292.28810,0.04676
1290.35931,0.04638
1288.43052,0.04624
1286.50173,0.04646
1284.57294,0.04700
1282.64415,0.04782
1280.71537,0.04907
1278.78658,0.05091
1276.85779,0.05351
1274.92900,0.05697
1273.00021,0.06118
1271.07142,0.06558
1269.14264,0.06929
1267.21385,0.07180
1265.28506,0.07293
1263.35627,0.07272
1261.42748,0.07163
1259.49870,0.07025
1257.56991,0.06908
1255.64112,0.06859
1253.71233,0.06892
1251.78354,0.06985
1249.85475,0.07108
1247.92597,0.07226
1245.99718,0.07310
1244.06839,0.07344
1242.13960,0.07321
1240.21081,0.07260
1238.28203,0.07192
1236.35324,0.07128
1234.42445,0.07059
1232.49566,0.06995
1230.56687,0.06945
1228.63808,0.06896
1226.70930,0.06842
1224.78051,0.06781
1222.85172,0.06700
1220.92293,0.06613
1218.99414,0.06543
1217.06536,0.06492
1215.13657,0.06450
1213.20778,0.06417
1211.27899,0.06400
1209.35020,0.06392
1207.42141,0.06381
1205.49263,0.06359
1203.56384,0.06329
1201.63505,0.06288
1199.70626,0.06250
1197.77747,0.06240
1195.84868,0.06246
1193.91990,0.06233
1191.99111,0.06218
1190.06232,0.06224
1188.13353,0.06210
1186.20474,0.06162
1184.27596,0.06114
1182.34717,0.06081
1180.41838,0.06061
1178.48959,0.06041
1176.56080,0.06007
1174.63201,0.05978
1172.70323,0.05972
1170.77444,0.05965
1168.84565,0.05958
1166.91686,0.05960
1164.98807,0.05949
1163.05929,0.05922
1161.13050,0.05892
1159.20171,0.05871
1157.27292,0.05870
1155.34413,0.05861
1153.41534,0.05820
1151.48656,0.05770
1149.55777,0.05743
1147.62898,0.05734
1145.70019,0.05720
1143.77140,0.05690
1141.84262,0.05652
1139.91383,0.05614
1137.98504,0.05577
1136.05625,0.05542
1134.12746,0.05483
1132.19867,0.05398
1130.26989,0.05332
1128.34110,0.05308
1126.41231,0.05330
1124.48352,0.05433
1122.55473,0.05651
1120.62595,0.05942
1118.69716,0.06206
1116.76837,0.06377
1114.83958,0.06477
1112.91079,0.06539
1110.98200,0.06530
1109.05322,0.06449
1107.12443,0.06415
1105.19564,0.06531
1103.26685,0.06764
1101.33806,0.06995
1099.40927,0.07127
1097.48049,0.07130
1095.55170,0.07035
1093.62291,0.06918
1091.69412,0.06832
1089.76533,0.06760
1087.83655,0.06682
1085.90776,0.06637
1083.97897,0.06645
1082.05018,0.06681
1080.12139,0.06706
1078.19260,0.06683
1076.26382,0.06620
1074.33503,0.06570
1072.40624,0.06553
1070.47745,0.06528
1068.54866,0.06466
1066.61988,0.06420
1064.69109,0.06428
1062.76230,0.06429
1060.83351,0.06391
1058.90472,0.06365
1056.97593,0.06364
1055.04715,0.06346
1053.11836,0.06303
1051.18957,0.06272
1049.26078,0.06266
1047.33199,0.06250
1045.40321,0.06217
1043.47442,0.06190
1041.54563,0.06169
1039.61684,0.06156
1037.68805,0.06155
1035.75926,0.06150
1033.83048,0.06126
1031.90169,0.06079
1029.97290,0.06021
1028.04411,0.05986
1026.11532,0.05985
1024.18654,0.05978
1022.25775,0.05985
1020.32896,0.06120
1018.40017,0.06350
1016.47138,0.06475
1014.54259,0.06450
1012.61381,0.06391
1010.68502,0.06348
1008.75623,0.06306
1006.82744,0.06263
1004.89865,0.06211
1002.96986,0.06143
1001.04108,0.06092
999.11229,0.06080
997.18350,0.06082
995.25471,0.06083
993.32592,0.06091
991.39714,0.06097
989.46835,0.06090
987.53956,0.06075
985.61077,0.06065
983.68198,0.06071
981.75319,0.06088
979.82441,0.06091
977.89562,0.06079
975.96683,0.06069
974.03804,0.06055
972.10925,0.06037
970.18047,0.06055
968.25168,0.06105
966.32289,0.06138
964.39410,0.06148
962.46531,0.06164
960.53652,0.06194
958.60774,0.06229
956.67895,0.06270
954.75016,0.06316
952.82137,0.06346
950.89258,0.06356
948.96380,0.06362
947.03501,0.06370
945.10622,0.06372
943.17743,0.06361
941.24864,0.06347
939.31985,0.06343
937.39107,0.06335
935.46228,0.06309
933.53349,0.06293
931.60470,0.06312
929.67591,0.06341
927.74712,0.06338
925.81834,0.06302
923.88955,0.06285
921.96076,0.06300
920.03197,0.06301
918.10318,0.06282
916.17440,0.06266
914.24561,0.06251
912.31682,0.06241
910.38803,0.06249
908.45924,0.06255
906.53045,0.06249
904.60167,0.06252
902.67288,0.06260
900.74409,0.06252
898.81530,0.06246
896.88651,0.06247
894.95773,0.06229
893.02894,0.06201
891.10015,0.06197
889.17136,0.06210
887.24257,0.06199
885.31378,0.06145
883.38500,0.06080
881.45621,0.06040
879.52742,0.06028
877.59863,0.06042
875.66984,0.06106
873.74106,0.06207
871.81227,0.06271
869.88348,0.06289
867.95469,0.06301
866.02590,0.06289
864.09711,0.06247
862.16833,0.06232
860.23954,0.06263
858.31075,0.06301
856.38196,0.06309
854.45317,0.06261
852.52439,0.06180
850.59560,0.06147
848.66681,0.06173
846.73802,0.06186
844.80923,0.06161
842.88044,0.06140
840.95166,0.06145
839.02287,0.06157
837.09408,0.06162
835.16529,0.06168
833.23650,0.06165
831.30771,0.06142
829.37893,0.06121
827.45014,0.06113
825.52135,0.06106
823.59256,0.06127
821.66377,0.06205
819.73499,0.06268
817.80620,0.06231
815.87741,0.06158
813.94862,0.06170
812.01983,0.06269
810.09104,0.06343
808.16226,0.06308
806.23347,0.06188
804.30468,0.06091
802.37589,0.06072
800.44710,0.06102
798.51832,0.06136
796.58953,0.06141
794.66074,0.06104
792.73195,0.06070
790.80316,0.06073
788.87437,0.06084
786.94559,0.06074
785.01680,0.06023
783.08801,0.05943
781.15922,0.05902
779.23043,0.05944
777.30165,0.06003
775.37286,0.05983
773.44407,0.05916
771.51528,0.05891
769.58649,0.05904
767.65770,0.05925
765.72892,0.05948
763.80013,0.05932
761.87134,0.05867
759.94255,0.05825
758.01376,0.05859
756.08498,0.05900
754.15619,0.05852
752.22740,0.05764
750.29861,0.05722
748.36982,0.05692
746.44103,0.05614
744.51225,0.05509
742.58346,0.05417
740.65467,0.05298
738.72588,0.05140
736.79709,0.05093
734.86830,0.05343
732.93952,0.05890
731.01073,0.06472
729.08194,0.06780
727.15315,0.06763
725.22436,0.06603
723.29558,0.06455
721.36679,0.06346
719.43800,0.06262
717.50921,0.06164
715.58042,0.06022
713.65163,0.05903
711.72285,0.05878
709.79406,0.05874
707.86527,0.05812
705.93648,0.05751
704.00769,0.05764
702.07891,0.05831
700.15012,0.05874
698.22133,0.05879
696.29254,0.05898
694.36375,0.05935
692.43496,0.05946
690.50618,0.05952
688.57739,0.05991
686.64860,0.06009
684.71981,0.05955
682.79102,0.05900
680.86224,0.05902
678.93345,0.05935
677.00466,0.05962
675.07587,0.05951
673.14708,0.05925
671.21829,0.05927
669.28951,0.05930
667.36072,0.05923
665.43193,0.05925
663.50314,0.05909
661.57435,0.05870
659.64556,0.05824
657.71678,0.05766
655.78799,0.05702
653.85920,0.05643
651.93041,0.05621
650.00162,0.05648
648.07284,0.05683
646.14405,0.05708
644.21526,0.05734
642.28647,0.05731
640.35768,0.05707
638.42889,0.05778
636.50011,0.05932
634.57132,0.06017
632.64253,0.06017
630.71374,0.05986
628.78495,0.05925
626.85617,0.05813
624.92738,0.05732
622.99859,0.05839
621.06980,0.06045
619.14101,0.06141
617.21222,0.06131
615.28344,0.06112
613.35465,0.06178
611.42586,0.06312
609.49707,0.06348
607.56828,0.06297
605.63950,0.06299
603.71071,0.06301
601.78192,0.06277
599.85313,0.06309
