7496.92628,0.03532
7494.99756,0.03045
7493.06885,0.03016
7491.14013,0.03438
7489.21141,0.03121
7487.28269,0.02375
7485.35397,0.01978
7483.42526,0.02264
7481.49654,0.02971
7479.56782,0.03383
7477.63910,0.03199
7475.71039,0.03172
7473.78167,0.03431
7471.85295,0.03564
7469.92423,0.03534
7467.99551,0.03549
7466.06680,0.03375
7464.13808,0.03349
7462.20936,0.03808
7460.28064,0.04389
7458.35192,0.04850
7456.42321,0.05107
7454.49449,0.04814
7452.56577,0.04195
7450.63705,0.03765
7448.70834,0.03625
7446.77962,0.03580
7444.85090,0.03310
7442.92218,0.02532
7440.99346,0.01910
7439.06475,0.02071
7437.13603,0.02952
7435.20731,0.03379
7433.27859,0.03124
7431.34987,0.02952
7429.42116,0.03023
7427.49244,0.02825
7425.56372,0.02627
7423.63500,0.03009
7421.70629,0.03790
7419.77757,0.04341
7417.84885,0.03930
7415.92013,0.02767
7413.99141,0.02113
7412.06270,0.02310
7410.13398,0.02728
7408.20526,0.03142
7406.27654,0.03912
7404.34782,0.04609
7402.41911,0.04607
7400.49039,0.04094
7398.56167,0.03508
7396.63295,0.03011
7394.70424,0.02722
7392.77552,0.02865
7390.84680,0.03049
7388.91808,0.02708
7386.98936,0.02209
7385.06065,0.02023
7383.13193,0.02273
7381.20321,0.02671
7379.27449,0.03018
7377.34577,0.03220
7375.41706,0.03051
7373.48834,0.02657
7371.55962,0.02770
7369.63090,0.03073
7367.70219,0.03031
7365.77347,0.03131
7363.84475,0.03627
7361.91603,0.03713
7359.98731,0.03415
7358.05860,0.03066
7356.12988,0.02890
7354.20116,0.03151
7352.27244,0.03535
7350.34372,0.03637
7348.41501,0.03721
7346.48629,0.03587
7344.55757,0.03087
7342.62885,0.03096
7340.70014,0.04211
7338.77142,0.05360
7336.84270,0.05173
7334.91398,0.04029
7332.98526,0.03522
7331.05655,0.03409
7329.12783,0.02423
7327.19911,0.01479
7325.27039,0.01820
7323.34167,0.02269
7321.41296,0.02415
7319.48424,0.02885
7317.55552,0.03326
7315.62680,0.03148
7313.69809,0.03193
7311.76937,0.03784
7309.84065,0.04046
7307.91193,0.04182
7305.98321,0.04343
7304.05450,0.03901
7302.12578,0.03375
7300.19706,0.03193
7298.26834,0.02913
7296.33963,0.02566
7294.41091,0.02703
7292.48219,0.03097
7290.55347,0.02813
7288.62475,0.01956
7286.69604,0.01710
7284.76732,0.02557
7282.83860,0.04049
7280.90988,0.04802
7278.98116,0.04398
7277.05245,0.03821
7275.12373,0.03420
7273.19501,0.02971
7271.26629,0.02871
7269.33758,0.03280
7267.40886,0.03671
7265.48014,0.03789
7263.55142,0.04011
7261.62270,0.04181
7259.69399,0.03812
7257.76527,0.03300
7255.83655,0.03385
7253.90783,0.03797
7251.97911,0.04050
7250.05040,0.04280
7248.12168,0.04410
7246.19296,0.04134
7244.26424,0.04060
7242.33553,0.04408
7240.40681,0.04061
7238.47809,0.02989
7236.54937,0.02622
7234.62065,0.03192
7232.69194,0.03379
7230.76322,0.02627
7228.83450,0.02233
7226.90578,0.02640
7224.97706,0.03318
7223.04835,0.03371
7221.11963,0.02989
7219.19091,0.02815
7217.26219,0.02924
7215.33348,0.02896
7213.40476,0.02942
7211.47604,0.03224
7209.54732,0.03541
7207.61860,0.03862
7205.68989,0.04099
7203.76117,0.03910
7201.83245,0.03380
7199.90373,0.03130
7197.97501,0.03485
7196.04630,0.03991
7194.11758,0.04057
7192.18886,0.03516
7190.26014,0.02821
7188.33143,0.02425
7186.40271,0.02466
7184.47399,0.02546
7182.54527,0.02745
7180.61655,0.03230
7178.68784,0.03382
7176.75912,0.03279
7174.83040,0.03551
7172.90168,0.03832
7170.97296,0.03721
7169.04425,0.03453
7167.11553,0.03236
7165.18681,0.03141
7163.25809,0.03227
7161.32938,0.03261
7159.40066,0.03026
7157.47194,0.02792
7155.54322,0.02989
7153.61450,0.03528
7151.68579,0.03799
7149.75707,0.03778
7147.82835,0.04001
7145.89963,0.04292
7143.97091,0.04295
7142.04220,0.03884
7140.11348,0.03226
7138.18476,0.02921
7136.25604,0.03274
7134.32733,0.03805
7132.39861,0.03704
7130.46989,0.03079
7128.54117,0.02868
7126.61245,0.03126
7124.68374,0.03442
7122.75502,0.03521
7120.82630,0.03334
7118.89758,0.03186
7116.96887,0.03105
7115.04015,0.03052
7113.11143,0.03348
7111.18271,0.03884
7109.25399,0.04195
7107.32528,0.04309
7105.39656,0.04666
7103.46784,0.05141
7101.53912,0.05228
7099.61040,0.04868
7097.68169,0.04399
7095.75297,0.03823
7093.82425,0.03338
7091.89553,0.03309
7089.96682,0.03428
7088.03810,0.03314
7086.10938,0.03348
7084.18066,0.03539
7082.25194,0.03597
7080.32323,0.03663
7078.39451,0.03887
7076.46579,0.03771
7074.53707,0.03375
7072.60835,0.03183
7070.67964,0.03056
7068.75092,0.02869
7066.82220,0.02768
7064.89348,0.02918
7062.96477,0.03456
7061.03605,0.03876
7059.10733,0.03829
7057.17861,0.03701
7055.24989,0.03722
7053.32118,0.03624
7051.39246,0.03377
7049.46374,0.03224
7047.53502,0.03110
7045.60630,0.02789
7043.67759,0.02741
7041.74887,0.03360
7039.82015,0.04290
7037.89143,0.04763
7035.96272,0.04386
7034.03400,0.03616
7032.10528,0.03208
7030.17656,0.03218
7028.24784,0.03308
7026.31913,0.03292
7024.39041,0.03436
7022.46169,0.03578
7020.53297,0.03363
7018.60425,0.02975
7016.67554,0.02849
7014.74682,0.03132
7012.81810,0.03735
7010.88938,0.04121
7008.96067,0.03763
7007.03195,0.03174
7005.10323,0.03162
7003.17451,0.03382
7001.24579,0.03394
6999.31708,0.03355
6997.38836,0.03276
6995.45964,0.03084
6993.53092,0.03111
6991.60220,0.03405
6989.67349,0.03451
6987.74477,0.03114
6985.81605,0.02975
6983.88733,0.03364
6981.95862,0.03664
6980.02990,0.03282
6978.10118,0.02872
6976.17246,0.03040
6974.24374,0.03283
6972.31503,0.03301
6970.38631,0.03391
6968.45759,0.03475
6966.52887,0.03389
6964.60015,0.03193
6962.67144,0.03140
6960.74272,0.03302
6958.81400,0.03434
6956.88528,0.03498
6954.95657,0.03664
6953.02785,0.03638
6951.09913,0.03311
6949.17041,0.03039
6947.24169,0.02742
6945.31298,0.02365
6943.38426,0.02483
6941.45554,0.02923
6939.52682,0.02947
6937.59811,0.02789
6935.66939,0.03036
6933.74067,0.03231
6931.81195,0.02893
6929.88323,0.02691
6927.95452,0.03144
6926.02580,0.03630
6924.09708,0.03792
6922.16836,0.03705
6920.23964,0.03353
6918.31093,0.03046
6916.38221,0.03069
6914.45349,0.03191
6912.52477,0.03181
6910.59606,0.02936
6908.66734,0.02609
6906.73862,0.02541
6904.80990,0.02747
6902.88118,0.02918
6900.95247,0.03013
6899.02375,0.03179
6897.09503,0.03173
6895.16631,0.02958
6893.23759,0.03070
6891.30888,0.03439
6889.38016,0.03539
6887.45144,0.03311
6885.52272,0.03090
6883.59401,0.03257
6881.66529,0.03617
6879.73657,0.03473
6877.80785,0.02970
6875.87913,0.02616
6873.95042,0.02585
6872.02170,0.02997
6870.09298,0.03489
6868.16426,0.03531
6866.23554,0.03423
6864.30683,0.03547
6862.37811,0.03764
6860.44939,0.03832
6858.52067,0.03659
6856.59196,0.03273
6854.66324,0.02906
6852.73452,0.02810
6850.80580,0.03049
6848.87708,0.03356
6846.94837,0.03338
6845.01965,0.03140
6843.09093,0.03084
6841.16221,0.03012
6839.23349,0.02871
6837.30478,0.02725
6835.37606,0.02845
6833.44734,0.03218
6831.51862,0.03242
6829.58991,0.02764
6827.66119,0.02635
6825.73247,0.03014
6823.80375,0.03296
6821.87503,0.03430
6819.94632,0.03588
6818.01760,0.03641
6816.08888,0.03550
6814.16016,0.03317
6812.23144,0.03071
6810.30273,0.02934
6808.37401,0.02833
6806.44529,0.02890
6804.51657,0.03299
6802.58786,0.03663
6800.65914,0.03594
6798.73042,0.03357
6796.80170,0.03317
6794.87298,0.03338
6792.94427,0.03352
6791.01555,0.03334
6789.08683,0.03305
6787.15811,0.03472
6785.22939,0.03702
6783.30068,0.03736
6781.37196,0.03728
6779.44324,0.03719
6777.51452,0.03549
6775.58581,0.03412
6773.65709,0.03525
6771.72837,0.03585
6769.79965,0.03388
6767.87093,0.03025
6765.94222,0.02592
6764.01350,0.02459
6762.08478,0.02773
6760.15606,0.02999
6758.22735,0.02966
6756.29863,0.03026
6754.36991,0.03254
6752.44119,0.03412
6750.51247,0.03334
6748.58376,0.03063
6746.65504,0.02806
6744.72632,0.02793
6742.79760,0.03181
6740.86888,0.03650
6738.94017,0.03639
6737.01145,0.03149
6735.08273,0.02774
6733.15401,0.02841
6731.22530,0.03265
6729.29658,0.03699
6727.36786,0.03894
6725.43914,0.03773
6723.51042,0.03388
6721.58171,0.03088
6719.65299,0.02971
6717.72427,0.02659
6715.79555,0.02314
6713.86683,0.02318
6711.93812,0.02620
6710.00940,0.03016
6708.08068,0.03236
6706.15196,0.03074
6704.22325,0.02796
6702.29453,0.02775
6700.36581,0.02906
6698.43709,0.02937
6696.50837,0.03034
6694.57966,0.03221
6692.65094,0.03096
6690.72222,0.02672
6688.79350,0.02570
6686.86478,0.02970
6684.93607,0.03359
6683.00735,0.03377
6681.07863,0.03225
6679.14991,0.03113
6677.22120,0.03161
6675.29248,0.03357
6673.36376,0.03481
6671.43504,0.03306
6669.50632,0.02970
6667.57761,0.02837
6665.64889,0.03062
6663.72017,0.03259
6661.79145,0.03136
6659.86273,0.02936
6657.93402,0.02891
6656.00530,0.02914
6654.07658,0.03010
6652.14786,0.03208
6650.21915,0.03364
6648.29043,0.03145
6646.36171,0.02601
6644.43299,0.02385
6642.50427,0.02663
6640.57556,0.02837
6638.64684,0.02865
6636.71812,0.03044
6634.78940,0.03091
6632.86068,0.02906
6630.93197,0.02970
6629.00325,0.03273
6627.07453,0.03348
6625.14581,0.03099
6623.21710,0.02837
6621.28838,0.02782
6619.35966,0.02952
6617.43094,0.03031
6615.50222,0.02828
6613.57351,0.02615
6611.64479,0.02500
6609.71607,0.02467
6607.78735,0.02766
6605.85863,0.03210
6603.92992,0.03317
6602.00120,0.03178
6600.07248,0.03153
6598.14376,0.03267
6596.21505,0.03230
6594.28633,0.02909
6592.35761,0.02744
6590.42889,0.02851
6588.50017,0.02762
6586.57146,0.02501
6584.64274,0.02474
6582.71402,0.02609
6580.78530,0.02731
6578.85659,0.03085
6576.92787,0.03564
6574.99915,0.03612
6573.07043,0.03376
6571.14171,0.03299
6569.21300,0.03397
6567.28428,0.03591
6565.35556,0.03739
6563.42684,0.03681
6561.49812,0.03465
6559.56941,0.03221
6557.64069,0.03235
6555.71197,0.03433
6553.78325,0.03501
6551.85454,0.03539
6549.92582,0.03542
6547.99710,0.03253
6546.06838,0.02907
6544.13966,0.02857
6542.21095,0.03012
6540.28223,0.03042
6538.35351,0.02972
6536.42479,0.02901
6534.49607,0.02761
6532.56736,0.02729
6530.63864,0.02907
6528.70992,0.03019
6526.78120,0.02933
6524.85249,0.02784
6522.92377,0.02780
6520.99505,0.02942
6519.06633,0.03113
6517.13761,0.03220
6515.20890,0.03402
6513.28018,0.03540
6511.35146,0.03310
6509.42274,0.02810
6507.49402,0.02465
6505.56531,0.02406
6503.63659,0.02505
6501.70787,0.02677
6499.77915,0.02804
6497.85044,0.02806
6495.92172,0.02850
6493.99300,0.02918
6492.06428,0.02874
6490.13556,0.02830
6488.20685,0.03015
6486.27813,0.03352
6484.34941,0.03573
6482.42069,0.03623
6480.49197,0.03435
6478.56326,0.03108
6476.63454,0.03045
6474.70582,0.03171
6472.77710,0.03139
6470.84839,0.03006
6468.91967,0.03062
6466.99095,0.03361
6465.06223,0.03666
6463.13351,0.03818
6461.20480,0.03778
6459.27608,0.03496
6457.34736,0.03123
6455.41864,0.02890
6453.48992,0.02871
6451.56121,0.02919
6449.63249,0.02959
6447.70377,0.03027
6445.77505,0.03212
6443.84634,0.03305
6441.91762,0.03123
6439.98890,0.02956
6438.06018,0.03006
6436.13146,0.03185
6434.20275,0.03430
6432.27403,0.03432
6430.34531,0.03108
6428.41659,0.02945
6426.48787,0.03053
6424.55916,0.03087
6422.63044,0.03068
6420.70172,0.03112
6418.77300,0.03129
6416.84429,0.03054
6414.91557,0.02857
6412.98685,0.02589
6411.05813,0.02483
6409.12941,0.02618
6407.20070,0.02899
6405.27198,0.03172
6403.34326,0.03286
6401.41454,0.03278
6399.48583,0.03258
6397.55711,0.03156
6395.62839,0.03018
6393.69967,0.03000
6391.77095,0.03095
6389.84224,0.03235
6387.91352,0.03296
6385.98480,0.03173
6384.05608,0.02895
6382.12736,0.02600
6380.19865,0.02657
6378.26993,0.03011
6376.34121,0.03130
6374.41249,0.02990
6372.48378,0.02942
6370.55506,0.02891
6368.62634,0.02703
6366.69762,0.02623
6364.76890,0.02804
6362.84019,0.03056
6360.91147,0.03116
6358.98275,0.03040
6357.05403,0.03144
6355.12531,0.03266
6353.19660,0.03056
6351.26788,0.02788
6349.33916,0.02814
6347.41044,0.02913
6345.48173,0.02822
6343.55301,0.02677
6341.62429,0.02646
6339.69557,0.02689
6337.76685,0.02772
6335.83814,0.02855
6333.90942,0.02912
6331.98070,0.02942
6330.05198,0.02917
6328.12326,0.02828
6326.19455,0.02727
6324.26583,0.02746
6322.33711,0.02888
6320.40839,0.02909
6318.47968,0.02867
6316.55096,0.02940
6314.62224,0.03079
6312.69352,0.03264
6310.76480,0.03339
6308.83609,0.03078
6306.90737,0.02843
6304.97865,0.02901
6303.04993,0.02921
6301.12121,0.02727
6299.19250,0.02579
6297.26378,0.02697
6295.33506,0.02936
6293.40634,0.02999
6291.47763,0.03024
6289.54891,0.03178
6287.62019,0.03464
6285.69147,0.03695
6283.76275,0.03640
6281.83404,0.03376
6279.90532,0.03194
6277.97660,0.03299
6276.04788,0.03614
6274.11916,0.03728
6272.19045,0.03436
6270.26173,0.03181
6268.33301,0.03409
6266.40429,0.03737
6264.47558,0.03659
6262.54686,0.03348
6260.61814,0.03088
6258.68942,0.02968
6256.76070,0.03144
6254.83199,0.03522
6252.90327,0.03723
6250.97455,0.03589
6249.04583,0.03361
6247.11711,0.03184
6245.18840,0.02905
6243.25968,0.02555
6241.33096,0.02487
6239.40224,0.02728
6237.47353,0.02852
6235.54481,0.02817
6233.61609,0.02990
6231.68737,0.03277
6229.75865,0.03364
6227.82994,0.03230
6225.90122,0.02969
6223.97250,0.02715
6222.04378,0.02655
6220.11506,0.02727
6218.18635,0.02695
6216.25763,0.02658
6214.32891,0.02858
6212.40019,0.03077
6210.47148,0.03076
6208.54276,0.02934
6206.61404,0.02799
6204.68532,0.02730
6202.75660,0.02766
6200.82789,0.02923
6198.89917,0.03044
6196.97045,0.03002
6195.04173,0.02894
6193.11302,0.02811
6191.18430,0.02798
6189.25558,0.02804
6187.32686,0.02793
6185.39814,0.02813
6183.46943,0.02924
6181.54071,0.03149
6179.61199,0.03304
6177.68327,0.03234
6175.75455,0.03178
6173.82584,0.03219
6171.89712,0.03220
6169.96840,0.03122
6168.03968,0.02938
6166.11097,0.02807
6164.18225,0.02850
6162.25353,0.03013
6160.32481,0.03207
6158.39609,0.03314
6156.46738,0.03320
6154.53866,0.03317
6152.60994,0.03311
6150.68122,0.03218
6148.75250,0.03129
6146.82379,0.03158
6144.89507,0.03179
6142.96635,0.03055
6141.03763,0.02875
6139.10892,0.02814
6137.18020,0.02930
6135.25148,0.03107
6133.32276,0.03238
6131.39404,0.03261
6129.46533,0.03170
6127.53661,0.03078
6125.60789,0.03039
6123.67917,0.02982
6121.75045,0.02941
6119.82174,0.02999
6117.89302,0.03070
6115.96430,0.02942
6114.03558,0.02649
6112.10687,0.02489
6110.17815,0.02631
6108.24943,0.02929
6106.32071,0.03123
6104.39199,0.03190
6102.46328,0.03201
6100.53456,0.03060
6098.60584,0.02848
6096.67712,0.02784
6094.74840,0.02790
6092.81969,0.02709
6090.89097,0.02671
6088.96225,0.02801
6087.03353,0.02990
6085.10482,0.03100
6083.17610,0.03110
6081.24738,0.03109
6079.31866,0.03118
6077.38994,0.03076
6075.46123,0.03111
6073.53251,0.03243
6071.60379,0.03218
6069.67507,0.03035
6067.74635,0.02984
6065.81764,0.03061
6063.88892,0.03087
6061.96020,0.03069
6060.03148,0.02976
6058.10277,0.02814
6056.17405,0.02843
6054.24533,0.03096
6052.31661,0.03208
6050.38789,0.03061
6048.45918,0.02983
6046.53046,0.03028
6044.60174,0.02989
6042.67302,0.02881
6040.74430,0.02833
6038.81559,0.02812
6036.88687,0.02804
6034.95815,0.02931
6033.02943,0.03090
6031.10072,0.03057
6029.17200,0.02981
6027.24328,0.02990
6025.31456,0.02889
6023.38584,0.02676
6021.45713,0.02686
6019.52841,0.02873
6017.59969,0.02937
6015.67097,0.02969
6013.74226,0.03010
6011.81354,0.02895
6009.88482,0.02751
6007.95610,0.02699
6006.02738,0.02780
6004.09867,0.02946
6002.16995,0.02963
6000.24123,0.02884
5998.31251,0.02875
5996.38379,0.02833
5994.45508,0.02789
5992.52636,0.02825
5990.59764,0.02833
5988.66892,0.02759
5986.74021,0.02690
5984.81149,0.02646
5982.88277,0.02638
5980.95405,0.02786
5979.02533,0.03017
5977.09662,0.03015
5975.16790,0.02745
5973.23918,0.02558
5971.31046,0.02650
5969.38174,0.02879
5967.45303,0.03090
5965.52431,0.03141
5963.59559,0.03017
5961.66687,0.02909
5959.73816,0.02900
5957.80944,0.02846
5955.88072,0.02746
5953.95200,0.02819
5952.02328,0.03026
5950.09457,0.03059
5948.16585,0.02960
5946.23713,0.02918
5944.30841,0.02956
5942.37969,0.03064
5940.45098,0.03157
5938.52226,0.03123
5936.59354,0.03024
5934.66482,0.02988
5932.73611,0.03063
5930.80739,0.03133
5928.87867,0.03089
5926.94995,0.02970
5925.02123,0.02866
5923.09252,0.02803
5921.16380,0.02762
5919.23508,0.02795
5917.30636,0.02939
5915.37764,0.03023
5913.44893,0.02972
5911.52021,0.02880
5909.59149,0.02906
5907.66277,0.03091
5905.73406,0.03267
5903.80534,0.03310
5901.87662,0.03235
5899.94790,0.03118
5898.01918,0.03088
5896.09047,0.03155
5894.16175,0.03191
5892.23303,0.03140
5890.30431,0.03083
5888.37559,0.03071
5886.44688,0.03001
5884.51816,0.02903
5882.58944,0.02912
5880.66072,0.02898
5878.73201,0.02823
5876.80329,0.02863
5874.87457,0.02927
5872.94585,0.02845
5871.01713,0.02870
5869.08842,0.03153
5867.15970,0.03317
5865.23098,0.03114
5863.30226,0.02866
5861.37354,0.02869
5859.44483,0.03006
5857.51611,0.03012
5855.58739,0.02839
5853.65867,0.02711
5851.72996,0.02823
5849.80124,0.02950
5847.87252,0.02881
5845.94380,0.02833
5844.01508,0.02941
5842.08637,0.03039
5840.15765,0.03066
5838.22893,0.03031
5836.30021,0.02927
5834.37150,0.02855
5832.44278,0.02837
5830.51406,0.02819
5828.58534,0.02801
5826.65662,0.02793
5824.72791,0.02821
5822.79919,0.02826
5820.87047,0.02798
5818.94175,0.02913
5817.01303,0.03193
5815.08432,0.03360
5813.15560,0.03298
5811.22688,0.03159
5809.29816,0.02994
5807.36945,0.02845
5805.44073,0.02867
5803.51201,0.02998
5801.58329,0.03051
5799.65457,0.02984
5797.72586,0.02870
5795.79714,0.02826
5793.86842,0.02888
5791.93970,0.02947
5790.01098,0.02936
5788.08227,0.02949
5786.15355,0.03038
5784.22483,0.03122
5782.29611,0.03117
5780.36740,0.03048
5778.43868,0.03018
5776.50996,0.03042
5774.58124,0.03040
5772.65252,0.02957
5770.72381,0.02838
5768.79509,0.02805
5766.86637,0.02923
5764.93765,0.03104
5763.00893,0.03144
5761.08022,0.02982
5759.15150,0.02861
5757.22278,0.02908
5755.29406,0.02971
5753.36535,0.03018
5751.43663,0.03114
5749.50791,0.03183
5747.57919,0.03178
5745.65047,0.03177
5743.72176,0.03139
5741.79304,0.02971
5739.86432,0.02835
5737.93560,0.02911
5736.00688,0.03055
5734.07817,0.03041
5732.14945,0.02922
5730.22073,0.02864
5728.29201,0.02830
5726.36330,0.02801
5724.43458,0.02878
5722.50586,0.02954
5720.57714,0.02967
5718.64842,0.03032
5716.71971,0.03070
5714.79099,0.03002
5712.86227,0.02941
5710.93355,0.02942
5709.00483,0.02971
5707.07612,0.02996
5705.14740,0.03032
5703.21868,0.03077
5701.28996,0.03047
5699.36125,0.02993
5697.43253,0.03038
5695.50381,0.03102
5693.57509,0.03112
5691.64637,0.03098
5689.71766,0.03018
5687.78894,0.02893
5685.86022,0.02902
5683.93150,0.03070
5682.00278,0.03211
5680.07407,0.03236
5678.14535,0.03148
5676.21663,0.02992
5674.28791,0.02952
5672.35920,0.03116
5670.43048,0.03289
5668.50176,0.03225
5666.57304,0.02982
5664.64432,0.02852
5662.71561,0.02965
5660.78689,0.03139
5658.85817,0.03140
5656.92945,0.03039
5655.00074,0.03053
5653.07202,0.03152
5651.14330,0.03200
5649.21458,0.03194
5647.28586,0.03132
5645.35715,0.03004
5643.42843,0.02933
5641.49971,0.02937
5639.57099,0.02859
5637.64227,0.02739
5635.71356,0.02766
5633.78484,0.02896
5631.85612,0.02943
5629.92740,0.02906
5627.99869,0.02892
5626.06997,0.02861
5624.14125,0.02782
5622.21253,0.02774
5620.28381,0.02854
5618.35510,0.02861
5616.42638,0.02797
5614.49766,0.02846
5612.56894,0.02956
5610.64022,0.02935
5608.71151,0.02862
5606.78279,0.02879
5604.85407,0.02933
5602.92535,0.02889
5600.99664,0.02829
5599.06792,0.02940
5597.13920,0.03155
5595.21048,0.03255
5593.28176,0.03157
5591.35305,0.02947
5589.42433,0.02755
5587.49561,0.02699
5585.56689,0.02807
5583.63817,0.02926
5581.70946,0.02943
5579.78074,0.02988
5577.85202,0.03114
5575.92330,0.03131
5573.99459,0.02996
5572.06587,0.02890
5570.13715,0.02913
5568.20843,0.03017
5566.27971,0.03099
5564.35100,0.03028
5562.42228,0.02836
5560.49356,0.02748
5558.56484,0.02864
5556.63612,0.03031
5554.70741,0.03091
5552.77869,0.03047
5550.84997,0.03030
5548.92125,0.03021
5546.99254,0.02915
5545.06382,0.02842
5543.13510,0.02915
5541.20638,0.03017
5539.27766,0.03030
5537.34895,0.02964
5535.42023,0.02899
5533.49151,0.02886
5531.56279,0.02973
5529.63407,0.03140
5527.70536,0.03282
5525.77664,0.03337
5523.84792,0.03262
5521.91920,0.03050
5519.99049,0.02827
5518.06177,0.02657
5516.13305,0.02572
5514.20433,0.02656
5512.27561,0.02863
5510.34690,0.03077
5508.41818,0.03205
5506.48946,0.03150
5504.56074,0.03005
5502.63202,0.02934
5500.70331,0.02902
5498.77459,0.02852
5496.84587,0.02876
5494.91715,0.02973
5492.98844,0.03069
5491.05972,0.03202
5489.13100,0.03344
5487.20228,0.03370
5485.27356,0.03290
5483.34485,0.03196
5481.41613,0.03147
5479.48741,0.03140
5477.55869,0.03122
5475.62998,0.03046
5473.70126,0.02988
5471.77254,0.03036
5469.84382,0.03074
5467.91510,0.02976
5465.98639,0.02851
5464.05767,0.02852
5462.12895,0.02998
5460.20023,0.03132
5458.27151,0.03039
5456.34280,0.02826
5454.41408,0.02780
5452.48536,0.02855
5450.55664,0.02881
5448.62793,0.02876
5446.69921,0.02885
5444.77049,0.02939
5442.84177,0.02979
5440.91305,0.02865
5438.98434,0.02737
5437.05562,0.02789
5435.12690,0.02946
5433.19818,0.03098
5431.26946,0.03197
5429.34075,0.03227
5427.41203,0.03220
5425.48331,0.03150
5423.55459,0.03004
5421.62588,0.02844
5419.69716,0.02746
5417.76844,0.02749
5415.83972,0.02814
5413.91100,0.02923
5411.98229,0.03063
5410.05357,0.03085
5408.12485,0.02989
5406.19613,0.02931
5404.26741,0.02934
5402.33870,0.02939
5400.40998,0.02980
5398.48126,0.03052
5396.55254,0.03067
5394.62383,0.03055
5392.69511,0.03080
5390.76639,0.03037
5388.83767,0.02913
5386.90895,0.02834
5384.98024,0.02885
5383.05152,0.02995
5381.12280,0.03021
5379.19408,0.02929
5377.26536,0.02823
5375.33665,0.02828
5373.40793,0.02881
5371.47921,0.02869
5369.55049,0.02872
5367.62178,0.02959
5365.69306,0.03032
5363.76434,0.03038
5361.83562,0.03051
5359.90690,0.03096
5357.97819,0.03119
5356.04947,0.03093
5354.12075,0.03030
5352.19203,0.02957
5350.26331,0.02879
5348.33460,0.02780
5346.40588,0.02739
5344.47716,0.02839
5342.54844,0.02978
5340.61973,0.03045
5338.69101,0.03032
5336.76229,0.02981
5334.83357,0.03002
5332.90485,0.03082
5330.97614,0.03102
5329.04742,0.03009
5327.11870,0.02904
5325.18998,0.02921
5323.26126,0.03007
5321.33255,0.03060
5319.40383,0.03078
5317.47511,0.03064
5315.54639,0.03042
5313.61768,0.03007
5311.68896,0.02917
5309.76024,0.02794
5307.83152,0.02728
5305.90280,0.02791
5303.97409,0.02887
5302.04537,0.02916
5300.11665,0.02918
5298.18793,0.02927
5296.25922,0.02934
5294.33050,0.02967
5292.40178,0.03077
5290.47306,0.03180
5288.54434,0.03144
5286.61563,0.03075
5284.68691,0.03086
5282.75819,0.03085
5280.82947,0.03017
5278.90075,0.02937
5276.97204,0.02906
5275.04332,0.02937
5273.11460,0.02988
5271.18588,0.02998
5269.25717,0.02985
5267.32845,0.03027
5265.39973,0.03101
5263.47101,0.03074
5261.54229,0.02998
5259.61358,0.03017
5257.68486,0.03053
5255.75614,0.03053
5253.82742,0.03063
5251.89870,0.02985
5249.96999,0.02788
5248.04127,0.02686
5246.11255,0.02801
5244.18383,0.02938
5242.25512,0.02947
5240.32640,0.02923
5238.39768,0.02972
5236.46896,0.03045
5234.54024,0.03044
5232.61153,0.02975
5230.68281,0.02919
5228.75409,0.02926
5226.82537,0.02970
5224.89665,0.03010
5222.96794,0.03064
5221.03922,0.03101
5219.11050,0.03036
5217.18178,0.02924
5215.25307,0.02913
5213.32435,0.03032
5211.39563,0.03163
5209.46691,0.03175
5207.53819,0.03075
5205.60948,0.02973
5203.68076,0.02964
5201.75204,0.03025
5199.82332,0.03077
5197.89460,0.03092
5195.96589,0.03099
5194.03717,0.03106
5192.10845,0.03088
5190.17973,0.03075
5188.25102,0.03095
5186.32230,0.03056
5184.39358,0.02957
5182.46486,0.02921
5180.53614,0.02947
5178.60743,0.02970
5176.67871,0.02972
5174.74999,0.02962
5172.82127,0.02972
5170.89255,0.02999
5168.96384,0.03019
5167.03512,0.03068
5165.10640,0.03142
5163.17768,0.03134
5161.24897,0.03074
5159.32025,0.03093
5157.39153,0.03145
5155.46281,0.03130
5153.53409,0.03087
5151.60538,0.03032
5149.67666,0.02940
5147.74794,0.02865
5145.81922,0.02836
5143.89050,0.02869
5141.96179,0.02993
5140.03307,0.03118
5138.10435,0.03148
5136.17563,0.03126
5134.24692,0.03118
5132.31820,0.03090
5130.38948,0.03004
5128.46076,0.02945
5126.53204,0.03015
5124.60333,0.03162
5122.67461,0.03241
5120.74589,0.03203
5118.81717,0.03109
5116.88846,0.03033
5114.95974,0.02986
5113.03102,0.02956
5111.10230,0.02961
5109.17358,0.02963
5107.24487,0.02925
5105.31615,0.02910
5103.38743,0.02961
5101.45871,0.02999
5099.52999,0.02977
5097.60128,0.02965
5095.67256,0.02996
5093.74384,0.03000
5091.81512,0.02968
5089.88641,0.02957
5087.95769,0.02961
5086.02897,0.02953
5084.10025,0.02964
5082.17153,0.02989
5080.24282,0.02982
5078.31410,0.02959
5076.38538,0.02998
5074.45666,0.03089
5072.52794,0.03108
5070.59923,0.03048
5068.67051,0.03002
5066.74179,0.02942
5064.81307,0.02851
5062.88436,0.02809
5060.95564,0.02841
5059.02692,0.02880
5057.09820,0.02834
5055.16948,0.02757
5053.24077,0.02809
5051.31205,0.02966
5049.38333,0.03072
5047.45461,0.03074
5045.52589,0.03029
5043.59718,0.03001
5041.66846,0.02980
5039.73974,0.02915
5037.81102,0.02868
5035.88231,0.02909
5033.95359,0.03008
5032.02487,0.03073
5030.09615,0.03015
5028.16743,0.02896
5026.23872,0.02885
5024.31000,0.02941
5022.38128,0.02944
5020.45256,0.02948
5018.52384,0.03002
5016.59513,0.03057
5014.66641,0.03089
5012.73769,0.03096
5010.80897,0.03063
5008.88026,0.03008
5006.95154,0.03008
5005.02282,0.03042
5003.09410,0.03006
5001.16538,0.02942
4999.23667,0.02922
4997.30795,0.02899
4995.37923,0.02861
4993.45051,0.02863
4991.52179,0.02912
4989.59308,0.02971
4987.66436,0.03030
4985.73564,0.03099
4983.80692,0.03143
4981.87821,0.03087
4979.94949,0.02978
4978.02077,0.02954
4976.09205,0.03015
4974.16333,0.03059
4972.23462,0.03047
4970.30590,0.03021
4968.37718,0.03025
4966.44846,0.03065
4964.51974,0.03132
4962.59103,0.03175
4960.66231,0.03131
4958.73359,0.03048
4956.80487,0.03009
4954.87616,0.02981
4952.94744,0.02959
4951.01872,0.03011
4949.09000,0.03069
4947.16128,0.03025
4945.23257,0.02955
4943.30385,0.02942
4941.37513,0.02947
4939.44641,0.02977
4937.51769,0.03038
4935.58898,0.03042
4933.66026,0.02985
4931.73154,0.02946
4929.80282,0.02936
4927.87411,0.02929
4925.94539,0.02941
4924.01667,0.02983
4922.08795,0.03035
4920.15923,0.03050
4918.23052,0.02965
4916.30180,0.02851
4914.37308,0.02865
4912.44436,0.02971
4910.51565,0.03052
4908.58693,0.03064
4906.65821,0.03008
4904.72949,0.02947
4902.80077,0.02939
4900.87206,0.02949
4898.94334,0.02949
4897.01462,0.02947
4895.08590,0.02941
4893.15718,0.02942
4891.22847,0.02971
4889.29975,0.03017
4887.37103,0.03025
4885.44231,0.02998
4883.51360,0.03015
4881.58488,0.03040
4879.65616,0.03009
4877.72744,0.02979
4875.79872,0.02996
4873.87001,0.03046
4871.94129,0.03101
4870.01257,0.03103
4868.08385,0.03044
4866.15513,0.03014
4864.22642,0.03054
4862.29770,0.03087
4860.36898,0.03058
4858.44026,0.03010
4856.51155,0.03020
4854.58283,0.03071
4852.65411,0.03093
4850.72539,0.03073
4848.79667,0.03010
4846.86796,0.02940
4844.93924,0.02934
4843.01052,0.02956
4841.08180,0.02925
4839.15308,0.02854
4837.22437,0.02831
4835.29565,0.02871
4833.36693,0.02947
4831.43821,0.03051
4829.50950,0.03124
4827.58078,0.03120
4825.65206,0.03070
4823.72334,0.03004
4821.79462,0.02988
4819.86591,0.03043
4817.93719,0.03064
4816.00847,0.02994
4814.07975,0.02891
4812.15103,0.02827
4810.22232,0.02846
4808.29360,0.02894
4806.36488,0.02908
4804.43616,0.02941
4802.50745,0.03021
4800.57873,0.03089
4798.65001,0.03102
4796.72129,0.03030
4794.79257,0.02934
4792.86386,0.02943
4790.93514,0.03019
4789.00642,0.03009
4787.07770,0.02938
4785.14898,0.02941
4783.22027,0.02990
4781.29155,0.02962
4779.36283,0.02893
4777.43411,0.02888
4775.50540,0.02934
4773.57668,0.02979
4771.64796,0.02994
4769.71924,0.02960
4767.79052,0.02942
4765.86181,0.02986
4763.93309,0.03034
4762.00437,0.03046
4760.07565,0.03010
4758.14693,0.02950
4756.21822,0.02937
4754.28950,0.02985
4752.36078,0.03031
4750.43206,0.03020
4748.50335,0.02979
4746.57463,0.02983
4744.64591,0.03032
4742.71719,0.03053
4740.78847,0.03042
4738.85976,0.03039
4736.93104,0.03033
4735.00232,0.02979
4733.07360,0.02886
4731.14489,0.02856
4729.21617,0.02948
4727.28745,0.03021
4725.35873,0.02984
4723.43001,0.02956
4721.50130,0.02994
4719.57258,0.03032
4717.64386,0.03043
4715.71514,0.03044
4713.78642,0.03001
4711.85771,0.02896
4709.92899,0.02834
4708.00027,0.02890
4706.07155,0.02981
4704.14284,0.03023
4702.21412,0.03043
4700.28540,0.03048
4698.35668,0.03002
4696.42796,0.02944
4694.49925,0.02920
4692.57053,0.02905
4690.64181,0.02897
4688.71309,0.02919
4686.78437,0.02947
4684.85566,0.02964
4682.92694,0.02992
4680.99822,0.02987
4679.06950,0.02924
4677.14079,0.02900
4675.21207,0.02930
4673.28335,0.02929
4671.35463,0.02917
4669.42591,0.02937
4667.49720,0.02942
4665.56848,0.02928
4663.63976,0.02947
4661.71104,0.02980
4659.78232,0.02981
4657.85361,0.02957
4655.92489,0.02951
4653.99617,0.02983
4652.06745,0.03031
4650.13874,0.03070
4648.21002,0.03070
4646.28130,0.03010
4644.35258,0.02950
4642.42386,0.02930
4640.49515,0.02934
4638.56643,0.02974
4636.63771,0.03032
4634.70899,0.03052
4632.78027,0.03049
4630.85156,0.03020
4628.92284,0.02954
4626.99412,0.02900
4625.06540,0.02900
4623.13669,0.02944
4621.20797,0.02963
4619.27925,0.02930
4617.35053,0.02928
4615.42181,0.02978
4613.49310,0.02994
4611.56438,0.02979
4609.63566,0.03027
4607.70694,0.03094
4605.77822,0.03056
4603.84951,0.02970
4601.92079,0.02942
4599.99207,0.02954
4598.06335,0.02967
4596.13464,0.02962
4594.20592,0.02944
4592.27720,0.02967
4590.34848,0.03009
4588.41976,0.02980
4586.49105,0.02908
4584.56233,0.02899
4582.63361,0.02955
4580.70489,0.02991
4578.77617,0.02989
4576.84746,0.03012
4574.91874,0.03063
4572.99002,0.03078
4571.06130,0.03017
4569.13259,0.02937
4567.20387,0.02922
4565.27515,0.02980
4563.34643,0.03064
4561.41771,0.03110
4559.48900,0.03073
4557.56028,0.03011
4555.63156,0.03001
4553.70284,0.03013
4551.77413,0.03002
4549.84541,0.02987
4547.91669,0.02984
4545.98797,0.02988
4544.05925,0.02981
4542.13054,0.02968
4540.20182,0.02979
4538.27310,0.02996
4536.34438,0.02976
4534.41566,0.02921
4532.48695,0.02866
4530.55823,0.02845
4528.62951,0.02870
4526.70079,0.02909
4524.77208,0.02941
4522.84336,0.02982
4520.91464,0.03027
4518.98592,0.03047
4517.05720,0.03023
4515.12849,0.02973
4513.19977,0.02955
4511.27105,0.02964
4509.34233,0.02954
4507.41361,0.02959
4505.48490,0.03002
4503.55618,0.03011
4501.62746,0.02967
4499.69874,0.02925
4497.77003,0.02910
4495.84131,0.02926
4493.91259,0.02950
4491.98387,0.02953
4490.05515,0.02972
4488.12644,0.03006
4486.19772,0.03031
4484.26900,0.03061
4482.34028,0.03081
4480.41156,0.03053
4478.48285,0.03002
4476.55413,0.02969
4474.62541,0.02940
4472.69669,0.02899
4470.76798,0.02876
4468.83926,0.02897
4466.91054,0.02943
4464.98182,0.02968
4463.05310,0.02969
4461.12439,0.02977
4459.19567,0.02979
4457.26695,0.02975
4455.33823,0.03003
4453.40951,0.03033
4451.48080,0.03003
4449.55208,0.02963
4447.62336,0.02967
4445.69464,0.02974
4443.76593,0.02947
4441.83721,0.02900
4439.90849,0.02882
4437.97977,0.02937
4436.05105,0.03015
4434.12234,0.03045
4432.19362,0.03044
4430.26490,0.03028
4428.33618,0.02986
4426.40746,0.02930
4424.47875,0.02880
4422.55003,0.02869
4420.62131,0.02914
4418.69259,0.02972
4416.76388,0.03002
4414.83516,0.03001
4412.90644,0.02987
4410.97772,0.02977
4409.04900,0.02954
4407.12029,0.02913
4405.19157,0.02890
4403.26285,0.02914
4401.33413,0.02980
4399.40541,0.03034
4397.47670,0.03022
4395.54798,0.02987
4393.61926,0.02984
4391.69054,0.02996
4389.76183,0.03001
4387.83311,0.02995
4385.90439,0.02976
4383.97567,0.02956
4382.04695,0.02936
4380.11824,0.02925
4378.18952,0.02941
4376.26080,0.02971
4374.33208,0.03008
4372.40337,0.03042
4370.47465,0.03030
4368.54593,0.02978
4366.61721,0.02951
4364.68849,0.02969
4362.75978,0.02994
4360.83106,0.03009
4358.90234,0.03031
4356.97362,0.03051
4355.04490,0.03058
4353.11619,0.03044
4351.18747,0.03008
4349.25875,0.02990
4347.33003,0.02995
4345.40132,0.02989
4343.47260,0.02982
4341.54388,0.02973
4339.61516,0.02938
4337.68644,0.02908
4335.75773,0.02933
4333.82901,0.02976
4331.90029,0.02978
4329.97157,0.02945
4328.04285,0.02935
4326.11414,0.02972
4324.18542,0.02995
4322.25670,0.02975
4320.32798,0.02966
4318.39927,0.02982
4316.47055,0.03002
4314.54183,0.03019
4312.61311,0.03029
4310.68439,0.03073
4308.75568,0.03140
4306.82696,0.03108
4304.89824,0.02978
4302.96952,0.02913
4301.04080,0.02964
4299.11209,0.03016
4297.18337,0.03024
4295.25465,0.03039
4293.32593,0.03053
4291.39722,0.03023
4289.46850,0.02967
4287.53978,0.02944
4285.61106,0.02952
4283.68234,0.02950
4281.75363,0.02954
4279.82491,0.02979
4277.89619,0.02978
4275.96747,0.02929
4274.03875,0.02899
4272.11004,0.02933
4270.18132,0.02989
4268.25260,0.03038
4266.32388,0.03075
4264.39517,0.03076
4262.46645,0.03038
4260.53773,0.03014
4258.60901,0.03040
4256.68029,0.03065
4254.75158,0.03049
4252.82286,0.03007
4250.89414,0.02970
4248.96542,0.02961
4247.03670,0.02954
4245.10799,0.02936
4243.17927,0.02933
4241.25055,0.02935
4239.32183,0.02914
4237.39312,0.02900
4235.46440,0.02915
4233.53568,0.02927
4231.60696,0.02935
4229.67824,0.02950
4227.74953,0.02968
4225.82081,0.03013
4223.89209,0.03054
4221.96337,0.03017
4220.03465,0.02966
4218.10594,0.02979
4216.17722,0.03003
4214.24850,0.03002
4212.31978,0.03026
4210.39107,0.03051
4208.46235,0.03017
4206.53363,0.02967
4204.60491,0.02952
4202.67619,0.02941
4200.74748,0.02938
4198.81876,0.02970
4196.89004,0.03008
4194.96132,0.03012
4193.03261,0.02972
4191.10389,0.02923
4189.17517,0.02912
4187.24645,0.02943
4185.31773,0.02972
4183.38902,0.02969
4181.46030,0.02952
4179.53158,0.02951
4177.60286,0.02949
4175.67414,0.02941
4173.74543,0.02955
4171.81671,0.02974
4169.88799,0.02973
4167.95927,0.02949
4166.03056,0.02904
4164.10184,0.02886
4162.17312,0.02933
4160.24440,0.02979
4158.31568,0.02970
4156.38697,0.02949
4154.45825,0.02937
4152.52953,0.02918
4150.60081,0.02903
4148.67209,0.02893
4146.74338,0.02881
4144.81466,0.02898
4142.88594,0.02956
4140.95722,0.03019
4139.02851,0.03054
4137.09979,0.03052
4135.17107,0.03025
4133.24235,0.03005
4131.31363,0.02996
4129.38492,0.02978
4127.45620,0.02960
4125.52748,0.02960
4123.59876,0.02972
4121.67004,0.03002
4119.74133,0.03057
4117.81261,0.03085
4115.88389,0.03060
4113.95517,0.03019
4112.02646,0.02973
4110.09774,0.02938
4108.16902,0.02943
4106.24030,0.02977
4104.31158,0.03003
4102.38287,0.03013
4100.45415,0.03030
4098.52543,0.03038
4096.59671,0.03005
4094.66799,0.02960
4092.73928,0.02936
4090.81056,0.02947
4088.88184,0.02998
4086.95312,0.03028
4085.02441,0.02991
4083.09569,0.02944
4081.16697,0.02939
4079.23825,0.02948
4077.30953,0.02935
4075.38082,0.02913
4073.45210,0.02917
4071.52338,0.02945
4069.59466,0.02973
4067.66594,0.02982
4065.73723,0.02969
4063.80851,0.02956
4061.87979,0.02954
4059.95107,0.02940
4058.02236,0.02927
4056.09364,0.02946
4054.16492,0.02969
4052.23620,0.02969
4050.30748,0.02958
4048.37877,0.02939
4046.45005,0.02932
4044.52133,0.02963
4042.59261,0.03008
4040.66389,0.03021
4038.73518,0.03006
4036.80646,0.02985
4034.87774,0.02968
4032.94902,0.02970
4031.02031,0.02974
4029.09159,0.02948
4027.16287,0.02924
4025.23415,0.02942
4023.30543,0.02971
4021.37672,0.02988
4019.44800,0.03004
4017.51928,0.03001
4015.59056,0.02973
4013.66185,0.02949
4011.73313,0.02944
4009.80441,0.02954
4007.87569,0.02962
4005.94697,0.02926
4004.01826,0.02871
4002.08954,0.02878
4000.16082,0.02936
3998.23210,0.02972
3996.30338,0.02966
3994.37467,0.02951
3992.44595,0.02957
3990.51723,0.02956
3988.58851,0.02916
3986.65980,0.02875
3984.73108,0.02866
3982.80236,0.02879
3980.87364,0.02909
3978.94492,0.02943
3977.01621,0.02957
3975.08749,0.02951
3973.15877,0.02951
3971.23005,0.02967
3969.30133,0.02984
3967.37262,0.02985
3965.44390,0.02974
3963.51518,0.02952
3961.58646,0.02927
3959.65775,0.02929
3957.72903,0.02934
3955.80031,0.02922
3953.87159,0.02923
3951.94287,0.02926
3950.01416,0.02930
3948.08544,0.02968
3946.15672,0.03000
3944.22800,0.03006
3942.29928,0.03015
3940.37057,0.03011
3938.44185,0.02978
3936.51313,0.02941
3934.58441,0.02929
3932.65570,0.02946
3930.72698,0.02980
3928.79826,0.03018
3926.86954,0.03037
3924.94082,0.03010
3923.01211,0.02966
3921.08339,0.02952
3919.15467,0.02968
3917.22595,0.02990
3915.29723,0.02988
3913.36852,0.02971
3911.43980,0.02956
3909.51108,0.02945
3907.58236,0.02935
3905.65365,0.02937
3903.72493,0.02961
3901.79621,0.02974
3899.86749,0.02970
3897.93877,0.02984
3896.01006,0.02994
3894.08134,0.02976
3892.15262,0.02940
3890.22390,0.02921
3888.29518,0.02928
3886.36647,0.02943
3884.43775,0.02986
3882.50903,0.03029
3880.58031,0.03018
3878.65160,0.03001
3876.72288,0.03007
3874.79416,0.02995
3872.86544,0.03010
3870.93672,0.03083
3869.00801,0.03126
3867.07929,0.03129
3865.15057,0.03129
3863.22185,0.03071
3861.29313,0.02988
3859.36442,0.02983
3857.43570,0.03035
3855.50698,0.03071
3853.57826,0.03043
3851.64955,0.02987
3849.72083,0.02959
3847.79211,0.02947
3845.86339,0.02944
3843.93467,0.02955
3842.00596,0.02993
3840.07724,0.03032
3838.14852,0.03005
3836.21980,0.02956
3834.29109,0.02966
3832.36237,0.02993
3830.43365,0.02997
3828.50493,0.02985
3826.57621,0.02983
3824.64750,0.03015
3822.71878,0.03039
3820.79006,0.03006
3818.86134,0.02993
3816.93262,0.03005
3815.00391,0.02972
3813.07519,0.02951
3811.14647,0.02967
3809.21775,0.02956
3807.28904,0.02920
3805.36032,0.02970
3803.43160,0.03079
3801.50288,0.03111
3799.57416,0.03056
3797.64545,0.03008
3795.71673,0.02966
3793.78801,0.02934
3791.85929,0.02914
3789.93057,0.02894
3788.00186,0.02899
3786.07314,0.02936
3784.14442,0.02957
3782.21570,0.02935
3780.28699,0.02890
3778.35827,0.02854
3776.42955,0.02877
3774.50083,0.02943
3772.57211,0.02992
3770.64340,0.03005
3768.71468,0.03009
3766.78596,0.02999
3764.85724,0.02962
3762.92852,0.02938
3760.99981,0.02976
3759.07109,0.03050
3757.14237,0.03088
3755.21365,0.03098
3753.28494,0.03084
3751.35622,0.02993
3749.42750,0.02930
3747.49878,0.02991
3745.57006,0.03030
3743.64135,0.02974
3741.71263,0.02956
3739.78391,0.02999
3737.85519,0.03017
3735.92647,0.02953
3733.99776,0.02858
3732.06904,0.02860
3730.14032,0.02931
3728.21160,0.02965
3726.28289,0.02936
3724.35417,0.02905
3722.42545,0.02911
3720.49673,0.02915
3718.56801,0.02898
3716.63930,0.02902
3714.71058,0.02932
3712.78186,0.02925
3710.85314,0.02869
3708.92442,0.02854
3706.99571,0.02903
3705.06699,0.02974
3703.13827,0.03007
3701.20955,0.02980
3699.28084,0.02938
3697.35212,0.02916
3695.42340,0.02939
3693.49468,0.02992
3691.56596,0.03004
3689.63725,0.02930
3687.70853,0.02871
3685.77981,0.02876
3683.85109,0.02880
3681.92237,0.02868
3679.99366,0.02863
3678.06494,0.02885
3676.13622,0.02914
3674.20750,0.02918
3672.27879,0.02900
3670.35007,0.02866
3668.42135,0.02868
3666.49263,0.02906
3664.56391,0.02920
3662.63520,0.02901
3660.70648,0.02886
3658.77776,0.02884
3656.84904,0.02874
3654.92033,0.02855
3652.99161,0.02848
3651.06289,0.02861
3649.13417,0.02890
3647.20545,0.02901
3645.27674,0.02902
3643.34802,0.02893
3641.41930,0.02862
3639.49058,0.02835
3637.56186,0.02832
3635.63315,0.02845
3633.70443,0.02868
3631.77571,0.02882
3629.84699,0.02838
3627.91828,0.02777
3625.98956,0.02793
3624.06084,0.02823
3622.13212,0.02835
3620.20340,0.02833
3618.27469,0.02801
3616.34597,0.02762
3614.41725,0.02755
3612.48853,0.02774
3610.55981,0.02778
3608.63110,0.02741
3606.70238,0.02732
3604.77366,0.02776
3602.84494,0.02809
3600.91623,0.02832
3598.98751,0.02877
3597.05879,0.02904
3595.13007,0.02880
3593.20135,0.02827
3591.27264,0.02787
3589.34392,0.02771
3587.41520,0.02741
3585.48648,0.02676
3583.55776,0.02639
3581.62905,0.02662
3579.70033,0.02722
3577.77161,0.02768
3575.84289,0.02751
3573.91418,0.02678
3571.98546,0.02631
3570.05674,0.02659
3568.12802,0.02720
3566.19930,0.02751
3564.27059,0.02754
3562.34187,0.02734
3560.41315,0.02695
3558.48443,0.02670
3556.55571,0.02686
3554.62700,0.02740
3552.69828,0.02797
3550.76956,0.02815
3548.84084,0.02787
3546.91213,0.02721
3544.98341,0.02661
3543.05469,0.02649
3541.12597,0.02658
3539.19725,0.02679
3537.26854,0.02702
3535.33982,0.02691
3533.41110,0.02653
3531.48238,0.02626
3529.55366,0.02631
3527.62495,0.02679
3525.69623,0.02749
3523.76751,0.02776
3521.83879,0.02728
3519.91008,0.02661
3517.98136,0.02631
3516.05264,0.02652
3514.12392,0.02689
3512.19520,0.02689
3510.26649,0.02649
3508.33777,0.02605
3506.40905,0.02600
3504.48033,0.02636
3502.55161,0.02675
3500.62290,0.02699
3498.69418,0.02716
3496.76546,0.02714
3494.83674,0.02680
3492.90803,0.02642
3490.97931,0.02630
3489.05059,0.02640
3487.12187,0.02643
3485.19315,0.02640
3483.26444,0.02643
3481.33572,0.02643
3479.40700,0.02656
3477.47828,0.02686
3475.54956,0.02714
3473.62085,0.02713
3471.69213,0.02664
3469.76341,0.02599
3467.83469,0.02583
3465.90598,0.02626
3463.97726,0.02690
3462.04854,0.02713
3460.11982,0.02679
3458.19110,0.02636
3456.26239,0.02618
3454.33367,0.02624
3452.40495,0.02657
3450.47623,0.02701
3448.54752,0.02719
3446.61880,0.02703
3444.69008,0.02669
3442.76136,0.02639
3440.83264,0.02636
3438.90393,0.02651
3436.97521,0.02662
3435.04649,0.02655
3433.11777,0.02636
3431.18905,0.02632
3429.26034,0.02648
3427.33162,0.02639
3425.40290,0.02598
3423.47418,0.02569
3421.54547,0.02562
3419.61675,0.02557
3417.68803,0.02566
3415.75931,0.02577
3413.83059,0.02560
3411.90188,0.02554
3409.97316,0.02586
3408.04444,0.02608
3406.11572,0.02598
3404.18700,0.02586
3402.25829,0.02598
3400.32957,0.02608
3398.40085,0.02590
3396.47213,0.02585
3394.54342,0.02593
3392.61470,0.02574
3390.68598,0.02548
3388.75726,0.02544
3386.82854,0.02554
3384.89983,0.02556
3382.97111,0.02547
3381.04239,0.02550
3379.11367,0.02571
3377.18495,0.02582
3375.25624,0.02559
3373.32752,0.02531
3371.39880,0.02544
3369.47008,0.02597
3367.54137,0.02656
3365.61265,0.02690
3363.68393,0.02683
3361.75521,0.02663
3359.82649,0.02650
3357.89778,0.02637
3355.96906,0.02639
3354.04034,0.02664
3352.11162,0.02670
3350.18290,0.02618
3348.25419,0.02569
3346.32547,0.02578
3344.39675,0.02594
3342.46803,0.02578
3340.53932,0.02562
3338.61060,0.02568
3336.68188,0.02574
3334.75316,0.02567
3332.82444,0.02567
3330.89573,0.02586
3328.96701,0.02600
3327.03829,0.02604
3325.10957,0.02624
3323.18085,0.02642
3321.25214,0.02629
3319.32342,0.02611
3317.39470,0.02612
3315.46598,0.02616
3313.53727,0.02624
3311.60855,0.02622
3309.67983,0.02596
3307.75111,0.02578
3305.82239,0.02577
3303.89368,0.02578
3301.96496,0.02586
3300.03624,0.02608
3298.10752,0.02627
3296.17880,0.02621
3294.25009,0.02601
3292.32137,0.02576
3290.39265,0.02550
3288.46393,0.02543
3286.53522,0.02558
3284.60650,0.02577
3282.67778,0.02593
3280.74906,0.02603
3278.82034,0.02597
3276.89163,0.02593
3274.96291,0.02613
3273.03419,0.02633
3271.10547,0.02623
3269.17676,0.02601
3267.24804,0.02582
3265.31932,0.02584
3263.39060,0.02601
3261.46188,0.02602
3259.53317,0.02596
3257.60445,0.02603
3255.67573,0.02608
3253.74701,0.02627
3251.81829,0.02695
3249.88958,0.02756
3247.96086,0.02746
3246.03214,0.02690
3244.10342,0.02649
3242.17471,0.02637
3240.24599,0.02626
3238.31727,0.02621
3236.38855,0.02655
3234.45983,0.02701
3232.53112,0.02716
3230.60240,0.02705
3228.67368,0.02690
3226.74496,0.02686
3224.81624,0.02684
3222.88753,0.02655
3220.95881,0.02623
3219.03009,0.02636
3217.10137,0.02664
3215.17266,0.02656
3213.24394,0.02628
3211.31522,0.02628
3209.38650,0.02632
3207.45778,0.02601
3205.52907,0.02585
3203.60035,0.02608
3201.67163,0.02633
3199.74291,0.02663
3197.81419,0.02699
3195.88548,0.02706
3193.95676,0.02680
3192.02804,0.02647
3190.09932,0.02621
3188.17061,0.02605
3186.24189,0.02598
3184.31317,0.02591
3182.38445,0.02601
3180.45573,0.02632
3178.52702,0.02650
3176.59830,0.02661
3174.66958,0.02672
3172.74086,0.02659
3170.81214,0.02640
3168.88343,0.02624
3166.95471,0.02614
3165.02599,0.02630
3163.09727,0.02667
3161.16856,0.02703
3159.23984,0.02719
3157.31112,0.02708
3155.38240,0.02676
3153.45368,0.02649
3151.52497,0.02654
3149.59625,0.02661
3147.66753,0.02651
3145.73881,0.02666
3143.81009,0.02696
3141.88138,0.02706
3139.95266,0.02715
3138.02394,0.02720
3136.09522,0.02729
3134.16651,0.02757
3132.23779,0.02761
3130.30907,0.02710
3128.38035,0.02660
3126.45163,0.02669
3124.52292,0.02701
3122.59420,0.02704
3120.66548,0.02699
3118.73676,0.02709
3116.80804,0.02716
3114.87933,0.02710
3112.95061,0.02689
3111.02189,0.02668
3109.09317,0.02673
3107.16446,0.02683
3105.23574,0.02685
3103.30702,0.02693
3101.37830,0.02704
3099.44958,0.02721
3097.52087,0.02730
3095.59215,0.02699
3093.66343,0.02655
3091.73471,0.02652
3089.80600,0.02684
3087.87728,0.02718
3085.94856,0.02727
3084.01984,0.02712
3082.09112,0.02686
3080.16241,0.02661
3078.23369,0.02642
3076.30497,0.02631
3074.37625,0.02634
3072.44753,0.02646
3070.51882,0.02659
3068.59010,0.02663
3066.66138,0.02659
3064.73266,0.02653
3062.80395,0.02650
3060.87523,0.02661
3058.94651,0.02671
3057.01779,0.02668
3055.08907,0.02680
3053.16036,0.02704
3051.23164,0.02696
3049.30292,0.02652
3047.37420,0.02611
3045.44548,0.02619
3043.51677,0.02662
3041.58805,0.02670
3039.65933,0.02632
3037.73061,0.02600
3035.80190,0.02604
3033.87318,0.02621
3031.94446,0.02634
3030.01574,0.02649
3028.08702,0.02672
3026.15831,0.02698
3024.22959,0.02702
3022.30087,0.02667
3020.37215,0.02620
3018.44343,0.02598
3016.51472,0.02619
3014.58600,0.02661
3012.65728,0.02669
3010.72856,0.02641
3008.79985,0.02621
3006.87113,0.02615
3004.94241,0.02610
3003.01369,0.02614
3001.08497,0.02622
2999.15626,0.02629
2997.22754,0.02633
2995.29882,0.02624
2993.37010,0.02606
2991.44138,0.02603
2989.51267,0.02609
2987.58395,0.02609
2985.65523,0.02602
2983.72651,0.02586
2981.79780,0.02564
2979.86908,0.02555
2977.94036,0.02563
2976.01164,0.02560
2974.08292,0.02537
2972.15421,0.02534
2970.22549,0.02561
2968.29677,0.02569
2966.36805,0.02540
2964.43933,0.02514
2962.51062,0.02518
2960.58190,0.02543
2958.65318,0.02577
2956.72446,0.02585
2954.79575,0.02541
2952.86703,0.02505
2950.93831,0.02527
2949.00959,0.02548
2947.08087,0.02535
2945.15216,0.02529
2943.22344,0.02550
2941.29472,0.02566
2939.36600,0.02560
2937.43728,0.02551
2935.50857,0.02540
2933.57985,0.02519
2931.65113,0.02511
2929.72241,0.02527
2927.79370,0.02544
2925.86498,0.02552
2923.93626,0.02573
2922.00754,0.02618
2920.07882,0.02632
2918.15011,0.02600
2916.22139,0.02580
2914.29267,0.02592
2912.36395,0.02608
2910.43524,0.02625
2908.50652,0.02646
2906.57780,0.02651
2904.64908,0.02626
2902.72036,0.02590
2900.79165,0.02581
2898.86293,0.02605
2896.93421,0.02634
2895.00549,0.02642
2893.07677,0.02644
2891.14806,0.02654
2889.21934,0.02654
2887.29062,0.02636
2885.36190,0.02614
2883.43319,0.02598
2881.50447,0.02588
2879.57575,0.02588
2877.64703,0.02595
2875.71831,0.02617
2873.78960,0.02648
2871.86088,0.02658
2869.93216,0.02640
2868.00344,0.02617
2866.07472,0.02602
2864.14601,0.02594
2862.21729,0.02606
2860.28857,0.02631
2858.35985,0.02642
2856.43114,0.02628
2854.50242,0.02613
2852.57370,0.02617
2850.64498,0.02629
2848.71626,0.02652
2846.78755,0.02689
2844.85883,0.02716
2842.93011,0.02713
2841.00139,0.02698
2839.07267,0.02689
2837.14396,0.02686
2835.21524,0.02680
2833.28652,0.02665
2831.35780,0.02651
2829.42909,0.02659
2827.50037,0.02673
2825.57165,0.02685
2823.64293,0.02711
2821.71421,0.02730
2819.78550,0.02718
2817.85678,0.02700
2815.92806,0.02703
2813.99934,0.02702
2812.07062,0.02689
2810.14191,0.02676
2808.21319,0.02663
2806.28447,0.02668
2804.35575,0.02687
2802.42704,0.02695
2800.49832,0.02693
2798.56960,0.02688
2796.64088,0.02683
2794.71216,0.02685
2792.78345,0.02692
2790.85473,0.02698
2788.92601,0.02701
2786.99729,0.02713
2785.06857,0.02727
2783.13986,0.02722
2781.21114,0.02702
2779.28242,0.02692
2777.35370,0.02681
2775.42499,0.02679
2773.49627,0.02702
2771.56755,0.02711
2769.63883,0.02690
2767.71011,0.02678
2765.78140,0.02687
2763.85268,0.02698
2761.92396,0.02710
2759.99524,0.02720
2758.06652,0.02716
2756.13781,0.02709
2754.20909,0.02718
2752.28037,0.02721
2750.35165,0.02716
2748.42294,0.02718
2746.49422,0.02715
2744.56550,0.02696
2742.63678,0.02677
2740.70806,0.02680
2738.77935,0.02702
2736.85063,0.02713
2734.92191,0.02700
2732.99319,0.02691
2731.06448,0.02697
2729.13576,0.02694
2727.20704,0.02681
2725.27832,0.02680
2723.34960,0.02689
2721.42089,0.02687
2719.49217,0.02679
2717.56345,0.02695
2715.63473,0.02729
2713.70601,0.02746
2711.77730,0.02739
2709.84858,0.02727
2707.91986,0.02715
2705.99114,0.02697
2704.06243,0.02682
2702.13371,0.02683
2700.20499,0.02704
2698.27627,0.02727
2696.34755,0.02718
2694.41884,0.02690
2692.49012,0.02679
2690.56140,0.02679
2688.63268,0.02672
2686.70396,0.02668
2684.77525,0.02685
2682.84653,0.02720
2680.91781,0.02740
2678.98909,0.02729
2677.06038,0.02713
2675.13166,0.02711
2673.20294,0.02719
2671.27422,0.02722
2669.34550,0.02708
2667.41679,0.02684
2665.48807,0.02662
2663.55935,0.02659
2661.63063,0.02674
2659.70191,0.02689
2657.77320,0.02696
2655.84448,0.02688
2653.91576,0.02676
2651.98704,0.02687
2650.05833,0.02713
2648.12961,0.02716
2646.20089,0.02691
2644.27217,0.02676
2642.34345,0.02686
2640.41474,0.02699
2638.48602,0.02701
2636.55730,0.02703
2634.62858,0.02709
2632.69986,0.02711
2630.77115,0.02700
2628.84243,0.02675
2626.91371,0.02659
2624.98499,0.02671
2623.05628,0.02682
2621.12756,0.02675
2619.19884,0.02677
2617.27012,0.02694
2615.34140,0.02708
2613.41269,0.02705
2611.48397,0.02688
2609.55525,0.02673
2607.62653,0.02670
2605.69781,0.02687
2603.76910,0.02711
2601.84038,0.02723
2599.91166,0.02734
2597.98294,0.02745
2596.05423,0.02735
2594.12551,0.02715
2592.19679,0.02708
2590.26807,0.02707
2588.33935,0.02698
2586.41064,0.02678
2584.48192,0.02671
2582.55320,0.02688
2580.62448,0.02692
2578.69576,0.02682
2576.76705,0.02692
2574.83833,0.02707
2572.90961,0.02698
2570.98089,0.02680
2569.05218,0.02686
2567.12346,0.02706
2565.19474,0.02701
2563.26602,0.02675
2561.33730,0.02660
2559.40859,0.02675
2557.47987,0.02703
2555.55115,0.02702
2553.62243,0.02682
2551.69372,0.02676
2549.76500,0.02673
2547.83628,0.02670
2545.90756,0.02676
2543.97884,0.02690
2542.05013,0.02703
2540.12141,0.02701
2538.19269,0.02677
2536.26397,0.02652
2534.33525,0.02651
2532.40654,0.02673
2530.47782,0.02686
2528.54910,0.02667
2526.62038,0.02636
2524.69167,0.02632
2522.76295,0.02655
2520.83423,0.02679
2518.90551,0.02697
2516.97679,0.02711
2515.04808,0.02707
2513.11936,0.02689
2511.19064,0.02678
2509.26192,0.02670
2507.33320,0.02655
2505.40449,0.02652
2503.47577,0.02677
2501.54705,0.02698
2499.61833,0.02699
2497.68962,0.02698
2495.76090,0.02706
2493.83218,0.02710
2491.90346,0.02703
2489.97474,0.02696
2488.04603,0.02691
2486.11731,0.02682
2484.18859,0.02675
2482.25987,0.02674
2480.33115,0.02677
2478.40244,0.02687
2476.47372,0.02693
2474.54500,0.02676
2472.61628,0.02654
2470.68757,0.02649
2468.75885,0.02647
2466.83013,0.02647
2464.90141,0.02661
2462.97269,0.02677
2461.04398,0.02692
2459.11526,0.02700
2457.18654,0.02685
2455.25782,0.02668
2453.32910,0.02676
2451.40039,0.02686
2449.47167,0.02673
2447.54295,0.02665
2445.61423,0.02685
2443.68552,0.02699
2441.75680,0.02687
2439.82808,0.02673
2437.89936,0.02673
2435.97064,0.02688
2434.04193,0.02698
2432.11321,0.02689
2430.18449,0.02689
2428.25577,0.02698
2426.32705,0.02679
2424.39834,0.02645
2422.46962,0.02634
2420.54090,0.02652
2418.61218,0.02683
2416.68347,0.02702
2414.75475,0.02692
2412.82603,0.02674
2410.89731,0.02668
2408.96859,0.02667
2407.03988,0.02665
2405.11116,0.02659
2403.18244,0.02647
2401.25372,0.02646
2399.32500,0.02658
2397.39629,0.02664
2395.46757,0.02671
2393.53885,0.02680
2391.61013,0.02679
2389.68142,0.02678
2387.75270,0.02681
2385.82398,0.02684
2383.89526,0.02689
2381.96654,0.02695
2380.03783,0.02698
2378.10911,0.02694
2376.18039,0.02675
2374.25167,0.02670
2372.32296,0.02692
2370.39424,0.02703
2368.46552,0.02698
2366.53680,0.02694
2364.60808,0.02691
2362.67937,0.02691
2360.75065,0.02717
2358.82193,0.02756
2356.89321,0.02759
2354.96449,0.02721
2353.03578,0.02686
2351.10706,0.02680
2349.17834,0.02699
2347.24962,0.02725
2345.32091,0.02733
2343.39219,0.02718
2341.46347,0.02699
2339.53475,0.02698
2337.60603,0.02699
2335.67732,0.02682
2333.74860,0.02676
2331.81988,0.02695
2329.89116,0.02712
2327.96244,0.02714
2326.03373,0.02700
2324.10501,0.02675
2322.17629,0.02664
2320.24757,0.02658
2318.31886,0.02644
2316.39014,0.02639
2314.46142,0.02646
2312.53270,0.02657
2310.60398,0.02681
2308.67527,0.02700
2306.74655,0.02694
2304.81783,0.02671
2302.88911,0.02651
2300.96039,0.02638
2299.03168,0.02629
2297.10296,0.02622
2295.17424,0.02605
2293.24552,0.02580
2291.31681,0.02572
2289.38809,0.02598
2287.45937,0.02638
2285.53065,0.02665
2283.60193,0.02672
2281.67322,0.02657
2279.74450,0.02625
2277.81578,0.02609
2275.88706,0.02620
2273.95834,0.02634
2272.02963,0.02636
2270.10091,0.02629
2268.17219,0.02617
2266.24347,0.02608
2264.31476,0.02613
2262.38604,0.02631
2260.45732,0.02658
2258.52860,0.02673
2256.59988,0.02657
2254.67117,0.02627
2252.74245,0.02614
2250.81373,0.02609
2248.88501,0.02596
2246.95629,0.02593
2245.02758,0.02598
2243.09886,0.02603
2241.17014,0.02620
2239.24142,0.02636
2237.31271,0.02628
2235.38399,0.02608
2233.45527,0.02598
2231.52655,0.02604
2229.59783,0.02617
2227.66912,0.02609
2225.74040,0.02584
2223.81168,0.02583
2221.88296,0.02610
2219.95424,0.02636
2218.02553,0.02639
2216.09681,0.02628
2214.16809,0.02625
2212.23937,0.02627
2210.31066,0.02622
2208.38194,0.02615
2206.45322,0.02609
2204.52450,0.02611
2202.59578,0.02615
2200.66707,0.02614
2198.73835,0.02606
2196.80963,0.02595
2194.88091,0.02592
2192.95220,0.02609
2191.02348,0.02633
2189.09476,0.02644
2187.16604,0.02640
2185.23732,0.02631
2183.30861,0.02619
2181.37989,0.02605
2179.45117,0.02593
2177.52245,0.02590
2175.59373,0.02602
2173.66502,0.02608
2171.73630,0.02598
2169.80758,0.02596
2167.87886,0.02605
2165.95015,0.02595
2164.02143,0.02575
2162.09271,0.02571
2160.16399,0.02573
2158.23527,0.02566
2156.30656,0.02568
2154.37784,0.02585
2152.44912,0.02597
2150.52040,0.02594
2148.59168,0.02592
2146.66297,0.02602
2144.73425,0.02606
2142.80553,0.02584
2140.87681,0.02559
2138.94810,0.02566
2137.01938,0.02589
2135.09066,0.02602
2133.16194,0.02602
2131.23322,0.02578
2129.30451,0.02546
2127.37579,0.02543
2125.44707,0.02565
2123.51835,0.02586
2121.58963,0.02598
2119.66092,0.02597
2117.73220,0.02577
2115.80348,0.02557
2113.87476,0.02553
2111.94605,0.02554
2110.01733,0.02557
2108.08861,0.02570
2106.15989,0.02573
2104.23117,0.02563
2102.30246,0.02569
2100.37374,0.02590
2098.44502,0.02599
2096.51630,0.02598
2094.58758,0.02599
2092.65887,0.02598
2090.73015,0.02588
2088.80143,0.02576
2086.87271,0.02576
2084.94400,0.02589
2083.01528,0.02599
2081.08656,0.02591
2079.15784,0.02570
2077.22912,0.02563
2075.30041,0.02568
2073.37169,0.02562
2071.44297,0.02543
2069.51425,0.02542
2067.58553,0.02559
2065.65682,0.02568
2063.72810,0.02567
2061.79938,0.02572
2059.87066,0.02575
2057.94195,0.02572
2056.01323,0.02574
2054.08451,0.02576
2052.15579,0.02579
2050.22707,0.02595
2048.29836,0.02604
2046.36964,0.02586
2044.44092,0.02558
2042.51220,0.02539
2040.58348,0.02525
2038.65477,0.02519
2036.72605,0.02528
2034.79733,0.02545
2032.86861,0.02553
2030.93990,0.02549
2029.01118,0.02541
2027.08246,0.02541
2025.15374,0.02554
2023.22502,0.02565
2021.29631,0.02572
2019.36759,0.02586
2017.43887,0.02596
2015.51015,0.02582
2013.58143,0.02555
2011.65272,0.02542
2009.72400,0.02553
2007.79528,0.02572
2005.86656,0.02585
2003.93785,0.02581
2002.00913,0.02564
2000.08041,0.02546
1998.15169,0.02532
1996.22297,0.02528
1994.29426,0.02536
1992.36554,0.02545
1990.43682,0.02545
1988.50810,0.02534
1986.57939,0.02520
1984.65067,0.02521
1982.72195,0.02531
1980.79323,0.02537
1978.86451,0.02537
1976.93580,0.02531
1975.00708,0.02530
1973.07836,0.02545
1971.14964,0.02557
1969.22092,0.02549
1967.29221,0.02523
1965.36349,0.02497
1963.43477,0.02489
1961.50605,0.02503
1959.57734,0.02517
1957.64862,0.02510
1955.71990,0.02507
1953.79118,0.02532
1951.86246,0.02559
1949.93375,0.02563
1948.00503,0.02557
1946.07631,0.02557
1944.14759,0.02559
1942.21887,0.02546
1940.29016,0.02529
1938.36144,0.02526
1936.43272,0.02524
1934.50400,0.02524
1932.57529,0.02533
1930.64657,0.02543
1928.71785,0.02546
1926.78913,0.02554
1924.86041,0.02566
1922.93170,0.02565
1921.00298,0.02552
1919.07426,0.02533
1917.14554,0.02509
1915.21682,0.02507
1913.28811,0.02532
1911.35939,0.02554
1909.43067,0.02547
1907.50195,0.02528
1905.57324,0.02534
1903.64452,0.02556
1901.71580,0.02559
1899.78708,0.02538
1897.85836,0.02511
1895.92965,0.02500
1894.00093,0.02518
1892.07221,0.02543
1890.14349,0.02539
1888.21477,0.02511
1886.28606,0.02491
1884.35734,0.02491
1882.42862,0.02497
1880.49990,0.02493
1878.57119,0.02480
1876.64247,0.02475
1874.71375,0.02491
1872.78503,0.02518
1870.85631,0.02529
1868.92760,0.02521
1866.99888,0.02507
1865.07016,0.02499
1863.14144,0.02499
1861.21272,0.02503
1859.28401,0.02502
1857.35529,0.02490
1855.42657,0.02470
1853.49785,0.02451
1851.56914,0.02435
1849.64042,0.02434
1847.71170,0.02462
1845.78298,0.02494
1843.85426,0.02493
1841.92555,0.02479
1839.99683,0.02468
1838.06811,0.02454
1836.13939,0.02450
1834.21067,0.02456
1832.28196,0.02463
1830.35324,0.02477
1828.42452,0.02494
1826.49580,0.02491
1824.56709,0.02469
1822.63837,0.02452
1820.70965,0.02444
1818.78093,0.02438
1816.85221,0.02433
1814.92350,0.02422
1812.99478,0.02405
1811.06606,0.02394
1809.13734,0.02391
1807.20863,0.02393
1805.27991,0.02404
1803.35119,0.02414
1801.42247,0.02417
1799.49375,0.02415
1797.56504,0.02409
1795.63632,0.02404
1793.70760,0.02396
1791.77888,0.02375
1789.85016,0.02361
1787.92145,0.02370
1785.99273,0.02371
1784.06401,0.02353
1782.13529,0.02333
1780.20658,0.02317
1778.27786,0.02303
1776.34914,0.02306
1774.42042,0.02318
1772.49170,0.02308
1770.56299,0.02274
1768.63427,0.02254
1766.70555,0.02245
1764.77683,0.02237
1762.84811,0.02243
1760.91940,0.02252
1758.99068,0.02226
1757.06196,0.02166
1755.13324,0.02118
1753.20453,0.02106
1751.27581,0.02107
1749.34709,0.02116
1747.41837,0.02149
1745.48965,0.02188
1743.56094,0.02212
1741.63222,0.02225
1739.70350,0.02246
1737.77478,0.02273
1735.84606,0.02286
1733.91735,0.02278
1731.98863,0.02296
1730.05991,0.02347
1728.13119,0.02385
1726.20248,0.02396
1724.27376,0.02395
1722.34504,0.02409
1720.41632,0.02453
1718.48760,0.02501
1716.55889,0.02492
1714.63017,0.02450
1712.70145,0.02443
1710.77273,0.02455
1708.84401,0.02454
1706.91530,0.02435
1704.98658,0.02412
1703.05786,0.02400
1701.12914,0.02390
1699.20043,0.02365
1697.27171,0.02332
1695.34299,0.02285
1693.41427,0.02258
1691.48555,0.02262
1689.55684,0.02271
1687.62812,0.02289
1685.69940,0.02306
1683.77068,0.02281
1681.84196,0.02253
1679.91325,0.02252
1677.98453,0.02255
1676.05581,0.02251
1674.12709,0.02237
1672.19838,0.02226
1670.26966,0.02195
1668.34094,0.02147
1666.41222,0.02141
1664.48350,0.02172
1662.55479,0.02204
1660.62607,0.02221
1658.69735,0.02229
1656.76863,0.02218
1654.83991,0.02184
1652.91120,0.02160
1650.98248,0.02189
1649.05376,0.02208
1647.12504,0.02180
1645.19633,0.02138
1643.26761,0.02141
1641.33889,0.02166
1639.41017,0.02195
1637.48145,0.02219
1635.55274,0.02226
1633.62402,0.02215
1631.69530,0.02216
1629.76658,0.02227
1627.83787,0.02222
1625.90915,0.02195
1623.98043,0.02180
1622.05171,0.02191
1620.12299,0.02206
1618.19428,0.02216
1616.26556,0.02223
1614.33684,0.02232
1612.40812,0.02241
1610.47940,0.02229
1608.55069,0.02205
1606.62197,0.02200
1604.69325,0.02211
1602.76453,0.02218
1600.83582,0.02212
1598.90710,0.02206
1596.97838,0.02219
1595.04966,0.02234
1593.12094,0.02229
1591.19223,0.02207
1589.26351,0.02190
1587.33479,0.02181
1585.40607,0.02172
1583.47735,0.02153
1581.54864,0.02141
1579.61992,0.02165
1577.69120,0.02203
1575.76248,0.02193
1573.83377,0.02157
1571.90505,0.02149
1569.97633,0.02155
1568.04761,0.02156
1566.11889,0.02154
1564.19018,0.02161
1562.26146,0.02192
1560.33274,0.02243
1558.40402,0.02245
1556.47530,0.02182
1554.54659,0.02152
1552.61787,0.02158
1550.68915,0.02169
1548.76043,0.02156
1546.83172,0.02140
1544.90300,0.02159
1542.97428,0.02238
1541.04556,0.02329
1539.11684,0.02283
1537.18813,0.02204
1535.25941,0.02174
1533.33069,0.02161
1531.40197,0.02157
1529.47325,0.02182
1527.54454,0.02241
1525.61582,0.02287
1523.68710,0.02278
1521.75838,0.02233
1519.82967,0.02204
1517.90095,0.02205
1515.97223,0.02216
1514.04351,0.02239
1512.11479,0.02271
1510.18608,0.02300
1508.25736,0.02302
1506.32864,0.02228
1504.39992,0.02166
1502.47120,0.02169
1500.54249,0.02196
1498.61377,0.02220
1496.68505,0.02218
1494.75633,0.02213
1492.82762,0.02236
1490.89890,0.02267
1488.97018,0.02271
1487.04146,0.02268
1485.11274,0.02262
1483.18403,0.02232
1481.25531,0.02199
1479.32659,0.02188
1477.39787,0.02183
1475.46915,0.02165
1473.54044,0.02127
1471.61172,0.02093
1469.68300,0.02097
1467.75428,0.02109
1465.82557,0.02107
1463.89685,0.02112
1461.96813,0.02140
1460.03941,0.02165
1458.11069,0.02158
1456.18198,0.02137
1454.25326,0.02144
1452.32454,0.02153
1450.39582,0.02155
1448.46711,0.02154
1446.53839,0.02147
1444.60967,0.02138
1442.68095,0.02138
1440.75223,0.02145
1438.82352,0.02135
1436.89480,0.02091
1434.96608,0.02082
1433.03736,0.02118
1431.10864,0.02143
1429.17993,0.02155
1427.25121,0.02176
1425.32249,0.02199
1423.39377,0.02197
1421.46506,0.02184
1419.53634,0.02177
1417.60762,0.02138
1415.67890,0.02088
1413.75018,0.02054
1411.82147,0.02048
1409.89275,0.02075
1407.96403,0.02093
1406.03531,0.02074
1404.10659,0.02050
1402.17788,0.02059
1400.24916,0.02080
1398.32044,0.02089
1396.39172,0.02091
1394.46301,0.02083
1392.53429,0.02065
1390.60557,0.02058
1388.67685,0.02067
1386.74813,0.02071
1384.81942,0.02057
1382.89070,0.02042
1380.96198,0.02046
1379.03326,0.02068
1377.10454,0.02084
1375.17583,0.02073
1373.24711,0.02054
1371.31839,0.02052
1369.38967,0.02059
1367.46096,0.02061
1365.53224,0.02057
1363.60352,0.02053
1361.67480,0.02051
1359.74608,0.02040
1357.81737,0.02028
1355.88865,0.02033
1353.95993,0.02048
1352.03121,0.02061
1350.10249,0.02064
1348.17378,0.02051
1346.24506,0.02031
1344.31634,0.02025
1342.38762,0.02041
1340.45891,0.02051
1338.53019,0.02030
1336.60147,0.02010
1334.67275,0.02017
1332.74403,0.02030
1330.81532,0.02019
1328.88660,0.01988
1326.95788,0.01978
1325.02916,0.01991
1323.10044,0.01993
1321.17173,0.01977
1319.24301,0.01950
1317.31429,0.01937
1315.38557,0.01944
1313.45686,0.01939
1311.52814,0.01923
1309.59942,0.01924
1307.67070,0.01943
1305.74198,0.01956
1303.81327,0.01954
1301.88455,0.01960
1299.95583,0.01985
1298.02711,0.02013
1296.09839,0.02030
1294.16968,0.02031
1292.24096,0.02025
1290.31224,0.02033
1288.38352,0.02060
1286.45481,0.02078
1284.52609,0.02075
1282.59737,0.02076
1280.66865,0.02094
1278.73993,0.02115
1276.81122,0.02130
1274.88250,0.02143
1272.95378,0.02155
1271.02506,0.02160
1269.09635,0.02162
1267.16763,0.02170
1265.23891,0.02192
1263.31019,0.02228
1261.38147,0.02267
1259.45276,0.02279
1257.52404,0.02264
1255.59532,0.02248
1253.66660,0.02242
1251.73788,0.02246
1249.80917,0.02259
1247.88045,0.02266
1245.95173,0.02240
1244.02301,0.02190
1242.09430,0.02165
1240.16558,0.02177
1238.23686,0.02190
1236.30814,0.02188
1234.37942,0.02189
1232.45071,0.02189
1230.52199,0.02173
1228.59327,0.02167
1226.66455,0.02187
1224.73583,0.02203
1222.80712,0.02194
1220.87840,0.02178
1218.94968,0.02174
1217.02096,0.02186
1215.09225,0.02195
1213.16353,0.02191
1211.23481,0.02181
1209.30609,0.02172
1207.37737,0.02159
1205.44866,0.02134
1203.51994,0.02112
1201.59122,0.02110
1199.66250,0.02119
1197.73378,0.02125
1195.80507,0.02121
1193.87635,0.02105
1191.94763,0.02088
1190.01891,0.02073
1188.09020,0.02058
1186.16148,0.02051
1184.23276,0.02051
1182.30404,0.02054
1180.37532,0.02057
1178.44661,0.02061
1176.51789,0.02065
1174.58917,0.02054
1172.66045,0.02024
1170.73173,0.01997
1168.80302,0.01988
1166.87430,0.01982
1164.94558,0.01981
1163.01686,0.02007
1161.08815,0.02036
1159.15943,0.02049
1157.23071,0.02055
1155.30199,0.02046
1153.37327,0.02019
1151.44456,0.01997
1149.51584,0.01982
1147.58712,0.01976
1145.65840,0.01982
1143.72968,0.01992
1141.80097,0.02008
1139.87225,0.02034
1137.94353,0.02055
1136.01481,0.02069
1134.08610,0.02089
1132.15738,0.02102
1130.22866,0.02100
1128.29994,0.02100
1126.37122,0.02107
1124.44251,0.02115
1122.51379,0.02123
1120.58507,0.02133
1118.65635,0.02157
1116.72763,0.02209
1114.79892,0.02262
1112.87020,0.02268
1110.94148,0.02229
1109.01276,0.02189
1107.08405,0.02158
1105.15533,0.02127
1103.22661,0.02127
1101.29789,0.02171
1099.36917,0.02214
1097.44046,0.02209
1095.51174,0.02175
1093.58302,0.02169
1091.65430,0.02205
1089.72559,0.02227
1087.79687,0.02193
1085.86815,0.02148
1083.93943,0.02149
1082.01071,0.02177
1080.08200,0.02215
1078.15328,0.02268
1076.22456,0.02299
1074.29584,0.02320
1072.36712,0.02388
1070.43841,0.02459
1068.50969,0.02448
1066.58097,0.02385
1064.65225,0.02344
1062.72354,0.02345
1060.79482,0.02359
1058.86610,0.02349
1056.93738,0.02309
1055.00866,0.02281
1053.07995,0.02284
1051.15123,0.02300
1049.22251,0.02320
1047.29379,0.02344
1045.36507,0.02350
1043.43636,0.02320
1041.50764,0.02292
1039.57892,0.02300
1037.65020,0.02316
1035.72149,0.02316
1033.79277,0.02310
1031.86405,0.02294
1029.93533,0.02283
1028.00661,0.02299
1026.07790,0.02300
1024.14918,0.02251
1022.22046,0.02213
1020.29174,0.02231
1018.36302,0.02250
1016.43431,0.02232
1014.50559,0.02234
1012.57687,0.02287
1010.64815,0.02343
1008.71944,0.02368
1006.79072,0.02384
1004.86200,0.02415
1002.93328,0.02439
1001.00456,0.02437
999.07585,0.02430
997.14713,0.02420
995.21841,0.02388
993.28969,0.02359
991.36097,0.02367
989.43226,0.02405
987.50354,0.02442
985.57482,0.02455
983.64610,0.02440
981.71739,0.02402
979.78867,0.02357
977.85995,0.02325
975.93123,0.02310
974.00251,0.02308
972.07380,0.02308
970.14508,0.02307
968.21636,0.02313
966.28764,0.02331
964.35892,0.02355
962.43021,0.02362
960.50149,0.02354
958.57277,0.02367
956.64405,0.02387
954.71534,0.02379
952.78662,0.02345
950.85790,0.02306
948.92918,0.02286
947.00046,0.02288
945.07175,0.02284
943.14303,0.02269
941.21431,0.02255
939.28559,0.02231
937.35687,0.02217
935.42816,0.02239
933.49944,0.02258
931.57072,0.02237
929.64200,0.02211
927.71329,0.02215
925.78457,0.02223
923.85585,0.02214
921.92713,0.02207
919.99841,0.02203
918.06970,0.02180
916.14098,0.02144
914.21226,0.02129
912.28354,0.02154
910.35483,0.02198
908.42611,0.02230
906.49739,0.02243
904.56867,0.02250
902.63995,0.02253
900.71124,0.02243
898.78252,0.02228
896.85380,0.02215
894.92508,0.02201
892.99636,0.02205
891.06765,0.02223
889.13893,0.02217
887.21021,0.02186
885.28149,0.02159
883.35278,0.02159
881.42406,0.02186
879.49534,0.02197
877.56662,0.02186
875.63790,0.02205
873.70919,0.02241
871.78047,0.02241
869.85175,0.02219
867.92303,0.02201
865.99431,0.02184
864.06560,0.02175
862.13688,0.02188
860.20816,0.02212
858.27944,0.02222
856.35073,0.02217
854.42201,0.02209
852.49329,0.02192
850.56457,0.02194
848.63585,0.02223
846.70714,0.02226
844.77842,0.02181
842.84970,0.02138
840.92098,0.02131
838.99226,0.02141
837.06355,0.02149
835.13483,0.02150
833.20611,0.02143
831.27739,0.02136
829.34868,0.02143
827.41996,0.02162
825.49124,0.02152
823.56252,0.02110
821.63380,0.02085
819.70509,0.02076
817.77637,0.02060
815.84765,0.02070
813.91893,0.02123
811.99021,0.02146
810.06150,0.02099
808.13278,0.02046
806.20406,0.02055
804.27534,0.02101
802.34663,0.02147
800.41791,0.02179
798.48919,0.02173
796.56047,0.02127
794.63175,0.02084
792.70304,0.02075
790.77432,0.02093
788.84560,0.02096
786.91688,0.02074
784.98816,0.02052
783.05945,0.02051
781.13073,0.02066
779.20201,0.02080
777.27329,0.02106
775.34458,0.02132
773.41586,0.02107
771.48714,0.02041
769.55842,0.01990
767.62970,0.01973
765.70099,0.01986
763.77227,0.02008
761.84355,0.02002
759.91483,0.01985
757.98611,0.01969
756.05740,0.01935
754.12868,0.01911
752.19996,0.01927
750.27124,0.01978
748.34253,0.02030
746.41381,0.02015
744.48509,0.01946
742.55637,0.01918
740.62765,0.01955
738.69894,0.01993
736.77022,0.02006
734.84150,0.02020
732.91278,0.02012
730.98407,0.01968
729.05535,0.01927
727.12663,0.01889
725.19791,0.01867
723.26919,0.01904
721.34048,0.01957
719.41176,0.01944
717.48304,0.01906
715.55432,0.01911
713.62560,0.01940
711.69689,0.01953
709.76817,0.01949
707.83945,0.01945
705.91073,0.01948
703.98202,0.01967
702.05330,0.02005
700.12458,0.02010
698.19586,0.01957
696.26714,0.01914
694.33843,0.01921
692.40971,0.01951
690.48099,0.01951
688.55227,0.01906
686.62355,0.01892
684.69484,0.01947
682.76612,0.01991
680.83740,0.01987
678.90868,0.01958
676.97997,0.01888
675.05125,0.01786
673.12253,0.01739
671.19381,0.01777
669.26509,0.01839
667.33638,0.01859
665.40766,0.01862
663.47894,0.01890
661.55022,0.01904
659.62150,0.01879
657.69279,0.01819
655.76407,0.01748
653.83535,0.01742
651.90663,0.01827
649.97792,0.01893
648.04920,0.01875
646.12048,0.01862
644.19176,0.01895
642.26304,0.01886
640.33433,0.01806
638.40561,0.01739
636.47689,0.01758
634.54817,0.01834
632.61945,0.01907
630.69074,0.01957
628.76202,0.01941
626.83330,0.01856
624.90458,0.01801
622.97587,0.01817
621.04715,0.01820
619.11843,0.01755
617.18971,0.01727
615.26099,0.01819
613.33228,0.01926
611.40356,0.01935
609.47484,0.01854
607.54612,0.01733
605.61740,0.01640
603.68869,0.01664
601.75997,0.01816
599.83125,0.01917
