7496.90619,0.93519
7494.97747,0.94565
7493.04876,0.95224
7491.12005,0.95135
7489.19134,0.94967
7487.26262,0.95153
7485.33391,0.95271
7483.40520,0.95139
7481.47648,0.94873
7479.54777,0.94689
7477.61906,0.94631
7475.69035,0.94210
7473.76163,0.93672
7471.83292,0.93874
7469.90421,0.94453
7467.97550,0.94266
7466.04678,0.93328
7464.11807,0.92770
7462.18936,0.93185
7460.26065,0.94054
7458.33193,0.94309
7456.40322,0.93730
7454.47451,0.93179
7452.54579,0.93094
7450.61708,0.93126
7448.68837,0.93020
7446.75966,0.92798
7444.83094,0.92594
7442.90223,0.92735
7440.97352,0.93163
7439.04481,0.93701
7437.11609,0.94451
7435.18738,0.94665
7433.25867,0.94017
7431.32996,0.93365
7429.40124,0.92798
7427.47253,0.92423
7425.54382,0.92862
7423.61510,0.93413
7421.68639,0.92984
7419.75768,0.92261
7417.82897,0.92413
7415.90025,0.93103
7413.97154,0.93602
7412.04283,0.93731
7410.11412,0.93365
7408.18540,0.92758
7406.25669,0.92558
7404.32798,0.93141
7402.39927,0.93809
7400.47055,0.93560
7398.54184,0.93120
7396.61313,0.93224
7394.68441,0.93097
7392.75570,0.92816
7390.82699,0.92821
7388.89828,0.92758
7386.96956,0.92776
7385.04085,0.92860
7383.11214,0.92402
7381.18343,0.91894
7379.25471,0.92655
7377.32600,0.94459
7375.39729,0.95588
7373.46857,0.95134
7371.53986,0.93660
7369.61115,0.92161
7367.68244,0.91849
7365.75372,0.92597
7363.82501,0.92889
7361.89630,0.92550
7359.96759,0.92447
7358.03887,0.92868
7356.11016,0.93588
7354.18145,0.93881
7352.25274,0.93472
7350.32402,0.92721
7348.39531,0.91862
7346.46660,0.91364
7344.53788,0.91280
7342.60917,0.91223
7340.68046,0.91201
7338.75175,0.91620
7336.82303,0.92643
7334.89432,0.93658
7332.96561,0.93700
7331.03690,0.92655
7329.10818,0.91672
7327.17947,0.91783
7325.25076,0.92568
7323.32205,0.93277
7321.39333,0.93687
7319.46462,0.93369
7317.53591,0.92554
7315.60719,0.92370
7313.67848,0.92731
7311.74977,0.92752
7309.82106,0.92729
7307.89234,0.93287
7305.96363,0.93915
7304.03492,0.93679
7302.10621,0.92923
7300.17749,0.92361
7298.24878,0.91876
7296.32007,0.91290
7294.39136,0.91068
7292.46264,0.91548
7290.53393,0.91824
7288.60522,0.91371
7286.67650,0.91300
7284.74779,0.92104
7282.81908,0.92873
7280.89037,0.93131
7278.96165,0.93043
7277.03294,0.92816
7275.10423,0.92641
7273.17552,0.92683
7271.24680,0.93024
7269.31809,0.93120
7267.38938,0.92534
7265.46066,0.92139
7263.53195,0.92502
7261.60324,0.93177
7259.67453,0.93927
7257.74581,0.94233
7255.81710,0.93614
7253.88839,0.92786
7251.95968,0.92503
7250.03096,0.92590
7248.10225,0.92571
7246.17354,0.92089
7244.24483,0.91467
7242.31611,0.91705
7240.38740,0.92825
7238.45869,0.93615
7236.52997,0.93259
7234.60126,0.92049
7232.67255,0.90964
7230.74384,0.90565
7228.81512,0.90810
7226.88641,0.91490
7224.95770,0.91848
7223.02899,0.91530
7221.10027,0.91520
7219.17156,0.91940
7217.24285,0.91660
7215.31414,0.90843
7213.38542,0.90609
7211.45671,0.91118
7209.52800,0.91337
7207.59928,0.90770
7205.67057,0.90361
7203.74186,0.90676
7201.81315,0.91307
7199.88443,0.91979
7197.95572,0.92234
7196.02701,0.91765
7194.09830,0.91234
7192.16958,0.91465
7190.24087,0.92302
7188.31216,0.92584
7186.38344,0.91681
7184.45473,0.90470
7182.52602,0.90186
7180.59731,0.91126
7178.66859,0.92142
7176.73988,0.92182
7174.81117,0.91590
7172.88246,0.91188
7170.95374,0.90977
7169.02503,0.90714
7167.09632,0.90779
7165.16761,0.91134
7163.23889,0.91298
7161.31018,0.91272
7159.38147,0.91180
7157.45275,0.91005
7155.52404,0.90901
7153.59533,0.91131
7151.66662,0.91412
7149.73790,0.91591
7147.80919,0.92226
7145.88048,0.93008
7143.95177,0.92684
7142.02305,0.91134
7140.09434,0.90089
7138.16563,0.90713
7136.23692,0.91640
7134.30820,0.91756
7132.37949,0.91550
7130.45078,0.91681
7128.52206,0.92420
7126.59335,0.93124
7124.66464,0.93039
7122.73593,0.92290
7120.80721,0.91363
7118.87850,0.90762
7116.94979,0.90764
7115.02108,0.91057
7113.09236,0.91427
7111.16365,0.91970
7109.23494,0.92207
7107.30623,0.91797
7105.37751,0.91454
7103.44880,0.91526
7101.52009,0.91799
7099.59137,0.92194
7097.66266,0.91933
7095.73395,0.90757
7093.80524,0.90423
7091.87652,0.91561
7089.94781,0.92215
7088.01910,0.91625
7086.09039,0.91345
7084.16167,0.91827
7082.23296,0.92010
7080.30425,0.91965
7078.37553,0.92378
7076.44682,0.92789
7074.51811,0.92415
7072.58940,0.91357
7070.66068,0.90613
7068.73197,0.90950
7066.80326,0.91738
7064.87455,0.92015
7062.94583,0.91914
7061.01712,0.91800
7059.08841,0.91662
7057.15970,0.91786
7055.23098,0.92297
7053.30227,0.92567
7051.37356,0.92115
7049.44484,0.91547
7047.51613,0.91711
7045.58742,0.92256
7043.65871,0.92345
7041.72999,0.92194
7039.80128,0.92295
7037.87257,0.92511
7035.94386,0.92553
7034.01514,0.92267
7032.08643,0.91931
7030.15772,0.91964
7028.22901,0.92125
7026.30029,0.92113
7024.37158,0.91902
7022.44287,0.91559
7020.51415,0.91485
7018.58544,0.91698
7016.65673,0.92008
7014.72802,0.92668
7012.79930,0.93349
7010.87059,0.93444
7008.94188,0.93295
7007.01317,0.93338
7005.08445,0.93406
7003.15574,0.93119
7001.22703,0.92397
6999.29832,0.91833
6997.36960,0.91960
6995.44089,0.92442
6993.51218,0.92714
6991.58346,0.92635
6989.65475,0.92365
6987.72604,0.92243
6985.79733,0.92425
6983.86861,0.92621
6981.93990,0.92629
6980.01119,0.92669
6978.08248,0.92851
6976.15376,0.92687
6974.22505,0.91916
6972.29634,0.91258
6970.36762,0.91295
6968.43891,0.91777
6966.51020,0.92323
6964.58149,0.92588
6962.65277,0.92221
6960.72406,0.91583
6958.79535,0.91468
6956.86664,0.91759
6954.93792,0.91757
6953.00921,0.91553
6951.08050,0.91851
6949.15179,0.92545
6947.22307,0.92864
6945.29436,0.92900
6943.36565,0.93029
6941.43693,0.92988
6939.50822,0.92766
6937.57951,0.92670
6935.65080,0.92819
6933.72208,0.93031
6931.79337,0.93022
6929.86466,0.93030
6927.93595,0.93256
6926.00723,0.93281
6924.07852,0.93172
6922.14981,0.93375
6920.22110,0.93660
6918.29238,0.93529
6916.36367,0.92821
6914.43496,0.92236
6912.50624,0.92705
6910.57753,0.93627
6908.64882,0.93829
6906.72011,0.93531
6904.79139,0.93255
6902.86268,0.92877
6900.93397,0.92492
6899.00526,0.92344
6897.07654,0.92373
6895.14783,0.92431
6893.21912,0.92567
6891.29040,0.92774
6889.36169,0.92833
6887.43298,0.93073
6885.50427,0.93660
6883.57555,0.93819
6881.64684,0.93461
6879.71813,0.93324
6877.78942,0.93502
6875.86070,0.93478
6873.93199,0.93156
6872.00328,0.92886
6870.07457,0.92756
6868.14585,0.92791
6866.21714,0.93320
6864.28843,0.94345
6862.35971,0.94933
6860.43100,0.94527
6858.50229,0.93901
6856.57358,0.93755
6854.64486,0.93910
6852.71615,0.93925
6850.78744,0.93740
6848.85873,0.93509
6846.93001,0.93404
6845.00130,0.93677
6843.07259,0.94031
6841.14388,0.93879
6839.21516,0.93558
6837.28645,0.93556
6835.35774,0.93455
6833.42902,0.93141
6831.50031,0.93013
6829.57160,0.92925
6827.64289,0.92680
6825.71417,0.92546
6823.78546,0.92726
6821.85675,0.92786
6819.92804,0.92445
6817.99932,0.92258
6816.07061,0.92275
6814.14190,0.92233
6812.21319,0.92605
6810.28447,0.93428
6808.35576,0.93881
6806.42705,0.93687
6804.49833,0.93457
6802.56962,0.93486
6800.64091,0.93401
6798.71220,0.93246
6796.78348,0.93374
6794.85477,0.93461
6792.92606,0.93186
6790.99735,0.92866
6789.06863,0.92794
6787.13992,0.92930
6785.21121,0.93115
6783.28249,0.93338
6781.35378,0.93641
6779.42507,0.93773
6777.49636,0.93523
6775.56764,0.93405
6773.63893,0.93887
6771.71022,0.94179
6769.78151,0.93742
6767.85279,0.93290
6765.92408,0.93087
6763.99537,0.92965
6762.06666,0.93178
6760.13794,0.93527
6758.20923,0.93536
6756.28052,0.93391
6754.35180,0.93355
6752.42309,0.93430
6750.49438,0.93415
6748.56567,0.93091
6746.63695,0.92745
6744.70824,0.92629
6742.77953,0.92816
6740.85082,0.93257
6738.92210,0.93505
6736.99339,0.93630
6735.06468,0.93888
6733.13597,0.93942
6731.20725,0.93769
6729.27854,0.93555
6727.34983,0.93276
6725.42111,0.93180
6723.49240,0.93444
6721.56369,0.93736
6719.63498,0.93761
6717.70626,0.93732
6715.77755,0.93960
6713.84884,0.94284
6711.92013,0.94221
6709.99141,0.93611
6708.06270,0.92993
6706.13399,0.93020
6704.20528,0.93595
6702.27656,0.94045
6700.34785,0.94034
6698.41914,0.93865
6696.49042,0.93941
6694.56171,0.94294
6692.63300,0.94572
6690.70429,0.94532
6688.77557,0.94472
6686.84686,0.94581
6684.91815,0.94638
6682.98944,0.94541
6681.06072,0.94226
6679.13201,0.93679
6677.20330,0.93245
6675.27458,0.93287
6673.34587,0.93597
6671.41716,0.93753
6669.48845,0.93904
6667.55973,0.94231
6665.63102,0.94301
6663.70231,0.93973
6661.77360,0.93610
6659.84488,0.93379
6657.91617,0.93458
6655.98746,0.93851
6654.05875,0.94111
6652.13003,0.94147
6650.20132,0.94105
6648.27261,0.93930
6646.34389,0.93896
6644.41518,0.94134
6642.48647,0.94102
6640.55776,0.93751
6638.62904,0.93585
6636.70033,0.93547
6634.77162,0.93407
6632.84291,0.93378
6630.91419,0.93526
6628.98548,0.93587
6627.05677,0.93669
6625.12806,0.93963
6623.19934,0.94270
6621.27063,0.94387
6619.34192,0.94260
6617.41320,0.94145
6615.48449,0.94253
6613.55578,0.94305
6611.62707,0.94095
6609.69835,0.93746
6607.76964,0.93500
6605.84093,0.93432
6603.91222,0.93303
6601.98350,0.93091
6600.05479,0.93147
6598.12608,0.93433
6596.19736,0.93598
6594.26865,0.93827
6592.33994,0.94198
6590.41123,0.94207
6588.48251,0.94004
6586.55380,0.94299
6584.62509,0.94816
6582.69638,0.94807
6580.76766,0.94549
6578.83895,0.94445
6576.91024,0.94326
6574.98153,0.94279
6573.05281,0.94221
6571.12410,0.93844
6569.19539,0.93481
6567.26667,0.93572
6565.33796,0.93857
6563.40925,0.93885
6561.48054,0.93816
6559.55182,0.93984
6557.62311,0.94261
6555.69440,0.94431
6553.76569,0.94356
6551.83697,0.94016
6549.90826,0.93804
6547.97955,0.93880
6546.05084,0.93886
6544.12212,0.93827
6542.19341,0.93955
6540.26470,0.94066
6538.33598,0.93977
6536.40727,0.93851
6534.47856,0.93707
6532.54985,0.93522
6530.62113,0.93480
6528.69242,0.93612
6526.76371,0.93681
6524.83500,0.93588
6522.90628,0.93564
6520.97757,0.93863
6519.04886,0.94414
6517.12015,0.94711
6515.19143,0.94536
6513.26272,0.94321
6511.33401,0.94263
6509.40529,0.94242
6507.47658,0.94224
6505.54787,0.94233
6503.61916,0.94452
6501.69044,0.94741
6499.76173,0.94639
6497.83302,0.94221
6495.90431,0.93893
6493.97559,0.93726
6492.04688,0.93567
6490.11817,0.93488
6488.18945,0.93628
6486.26074,0.93789
6484.33203,0.93897
6482.40332,0.94051
6480.47460,0.93961
6478.54589,0.93591
6476.61718,0.93486
6474.68847,0.93690
6472.75975,0.93798
6470.83104,0.93890
6468.90233,0.94099
6466.97362,0.94176
6465.04490,0.93999
6463.11619,0.93724
6461.18748,0.93711
6459.25876,0.94035
6457.33005,0.94213
6455.40134,0.93969
6453.47263,0.93604
6451.54391,0.93583
6449.61520,0.93898
6447.68649,0.93998
6445.75778,0.93764
6443.82906,0.93610
6441.90035,0.93636
6439.97164,0.93667
6438.04293,0.93777
6436.11421,0.94077
6434.18550,0.94346
6432.25679,0.94336
6430.32807,0.94176
6428.39936,0.94102
6426.47065,0.94089
6424.54194,0.94096
6422.61322,0.94148
6420.68451,0.94080
6418.75580,0.93830
6416.82709,0.93616
6414.89837,0.93606
6412.96966,0.93680
6411.04095,0.93636
6409.11224,0.93460
6407.18352,0.93206
6405.25481,0.92941
6403.32610,0.92904
6401.39738,0.93306
6399.46867,0.93898
6397.53996,0.94257
6395.61125,0.94381
6393.68253,0.94386
6391.75382,0.94303
6389.82511,0.94326
6387.89640,0.94426
6385.96768,0.94183
6384.03897,0.93685
6382.11026,0.93545
6380.18154,0.93728
6378.25283,0.93724
6376.32412,0.93574
6374.39541,0.93627
6372.46669,0.93845
6370.53798,0.94013
6368.60927,0.94198
6366.68056,0.94476
6364.75184,0.94593
6362.82313,0.94414
6360.89442,0.94224
6358.96571,0.94102
6357.03699,0.93858
6355.10828,0.93682
6353.17957,0.93822
6351.25085,0.94067
6349.32214,0.94067
6347.39343,0.93833
6345.46472,0.93723
6343.53600,0.93924
6341.60729,0.94219
6339.67858,0.94301
6337.74987,0.94204
6335.82115,0.94186
6333.89244,0.94162
6331.96373,0.93832
6330.03502,0.93442
6328.10630,0.93502
6326.17759,0.93911
6324.24888,0.94180
6322.32016,0.94112
6320.39145,0.93949
6318.46274,0.93959
6316.53403,0.94025
6314.60531,0.94018
6312.67660,0.93998
6310.74789,0.94028
6308.81918,0.94095
6306.89046,0.94131
6304.96175,0.94261
6303.03304,0.94470
6301.10432,0.94437
6299.17561,0.94154
6297.24690,0.94066
6295.31819,0.94359
6293.38947,0.94495
6291.46076,0.94048
6289.53205,0.93482
6287.60334,0.93458
6285.67462,0.93854
6283.74591,0.94050
6281.81720,0.93967
6279.88849,0.93927
6277.95977,0.94038
6276.03106,0.94202
6274.10235,0.94248
6272.17363,0.94167
6270.24492,0.94093
6268.31621,0.94091
6266.38750,0.94139
6264.45878,0.94199
6262.53007,0.94264
6260.60136,0.94253
6258.67265,0.94079
6256.74393,0.93815
6254.81522,0.93709
6252.88651,0.93884
6250.95780,0.94052
6249.02908,0.93995
6247.10037,0.93946
6245.17166,0.93969
6243.24294,0.93853
6241.31423,0.93729
6239.38552,0.93846
6237.45681,0.94168
6235.52809,0.94352
6233.59938,0.94131
6231.67067,0.93821
6229.74196,0.93793
6227.81324,0.93911
6225.88453,0.93944
6223.95582,0.93924
6222.02711,0.93941
6220.09839,0.93941
6218.16968,0.94027
6216.24097,0.94338
6214.31225,0.94609
6212.38354,0.94476
6210.45483,0.94048
6208.52612,0.93654
6206.59740,0.93419
6204.66869,0.93460
6202.73998,0.93762
6200.81127,0.94083
6198.88255,0.94187
6196.95384,0.94017
6195.02513,0.93849
6193.09641,0.93841
6191.16770,0.93851
6189.23899,0.93768
6187.31028,0.93570
6185.38156,0.93449
6183.45285,0.93556
6181.52414,0.93719
6179.59543,0.93747
6177.66671,0.93676
6175.73800,0.93671
6173.80929,0.93785
6171.88058,0.93941
6169.95186,0.94084
6168.02315,0.94146
6166.09444,0.93998
6164.16572,0.93617
6162.23701,0.93229
6160.30830,0.93161
6158.37959,0.93457
6156.45087,0.93711
6154.52216,0.93590
6152.59345,0.93265
6150.66474,0.93149
6148.73602,0.93347
6146.80731,0.93531
6144.87860,0.93425
6142.94989,0.93130
6141.02117,0.93012
6139.09246,0.93172
6137.16375,0.93340
6135.23503,0.93427
6133.30632,0.93523
6131.37761,0.93626
6129.44890,0.93550
6127.52018,0.93232
6125.59147,0.93057
6123.66276,0.93175
6121.73405,0.93286
6119.80533,0.93320
6117.87662,0.93428
6115.94791,0.93586
6114.01919,0.93590
6112.09048,0.93343
6110.16177,0.93150
6108.23306,0.93291
6106.30434,0.93474
6104.37563,0.93397
6102.44692,0.93224
6100.51821,0.93183
6098.58949,0.93256
6096.66078,0.93267
6094.73207,0.93214
6092.80336,0.93310
6090.87464,0.93516
6088.94593,0.93564
6087.01722,0.93439
6085.08850,0.93283
6083.15979,0.93070
6081.23108,0.92874
6079.30237,0.92889
6077.37365,0.92988
6075.44494,0.92975
6073.51623,0.92953
6071.58752,0.93003
6069.65880,0.93036
6067.73009,0.93034
6065.80138,0.93043
6063.87267,0.93032
6061.94395,0.92958
6060.01524,0.92935
6058.08653,0.93053
6056.15781,0.93109
6054.22910,0.93002
6052.30039,0.93003
6050.37168,0.93150
6048.44296,0.93158
6046.51425,0.93089
6044.58554,0.93106
6042.65683,0.93089
6040.72811,0.92976
6038.79940,0.92801
6036.87069,0.92666
6034.94198,0.92731
6033.01326,0.92921
6031.08455,0.93075
6029.15584,0.93123
6027.22712,0.93061
6025.29841,0.92904
6023.36970,0.92654
6021.44099,0.92543
6019.51227,0.92674
6017.58356,0.92601
6015.65485,0.92219
6013.72614,0.92040
6011.79742,0.92208
6009.86871,0.92447
6007.94000,0.92601
6006.01128,0.92675
6004.08257,0.92731
6002.15386,0.92729
6000.22515,0.92594
5998.29643,0.92470
5996.36772,0.92520
5994.43901,0.92637
5992.51030,0.92599
5990.58158,0.92382
5988.65287,0.92160
5986.72416,0.92074
5984.79545,0.92143
5982.86673,0.92265
5980.93802,0.92364
5979.00931,0.92414
5977.08059,0.92359
5975.15188,0.92292
5973.22317,0.92302
5971.29446,0.92286
5969.36574,0.92235
5967.43703,0.92186
5965.50832,0.92090
5963.57961,0.92028
5961.65089,0.92052
5959.72218,0.92027
5957.79347,0.91937
5955.86476,0.91828
5953.93604,0.91769
5952.00733,0.91842
5950.07862,0.91820
5948.14990,0.91572
5946.22119,0.91356
5944.29248,0.91327
5942.36377,0.91479
5940.43505,0.91685
5938.50634,0.91742
5936.57763,0.91644
5934.64892,0.91586
5932.72020,0.91607
5930.79149,0.91493
5928.86278,0.91279
5926.93407,0.91229
5925.00535,0.91307
5923.07664,0.91338
5921.14793,0.91358
5919.21921,0.91447
5917.29050,0.91514
5915.36179,0.91447
5913.43308,0.91251
5911.50436,0.91111
5909.57565,0.91256
5907.64694,0.91371
5905.71823,0.91026
5903.78951,0.90544
5901.86080,0.90401
5899.93209,0.90449
5898.00337,0.90370
5896.07466,0.90324
5894.14595,0.90470
5892.21724,0.90517
5890.28852,0.90352
5888.35981,0.90118
5886.43110,0.89909
5884.50239,0.89842
5882.57367,0.89824
5880.64496,0.89632
5878.71625,0.89327
5876.78754,0.89093
5874.85882,0.88894
5872.93011,0.88692
5871.00140,0.88532
5869.07268,0.88262
5867.14397,0.87845
5865.21526,0.87516
5863.28655,0.87307
5861.35783,0.87049
5859.42912,0.86782
5857.50041,0.86577
5855.57170,0.86254
5853.64298,0.85790
5851.71427,0.85422
5849.78556,0.85266
5847.85685,0.85254
5845.92813,0.85127
5843.99942,0.84704
5842.07071,0.84214
5840.14199,0.83858
5838.21328,0.83564
5836.28457,0.83258
5834.35586,0.82957
5832.42714,0.82782
5830.49843,0.82756
5828.56972,0.82585
5826.64101,0.82167
5824.71229,0.81793
5822.78358,0.81563
5820.85487,0.81310
5818.92615,0.80968
5816.99744,0.80606
5815.06873,0.80277
5813.14002,0.79979
5811.21130,0.79639
5809.28259,0.79215
5807.35388,0.78826
5805.42517,0.78510
5803.49645,0.78166
5801.56774,0.77827
5799.63903,0.77536
5797.71032,0.77229
5795.78160,0.76860
5793.85289,0.76403
5791.92418,0.75903
5789.99546,0.75374
5788.06675,0.74760
5786.13804,0.74103
5784.20933,0.73393
5782.28061,0.72636
5780.35190,0.72068
5778.42319,0.71814
5776.49448,0.71772
5774.56576,0.71893
5772.63705,0.72252
5770.70834,0.72934
5768.77963,0.73959
5766.85091,0.75235
5764.92220,0.76483
5762.99349,0.77420
5761.06477,0.78148
5759.13606,0.78952
5757.20735,0.79820
5755.27864,0.80581
5753.34992,0.81235
5751.42121,0.81860
5749.49250,0.82517
5747.56379,0.83198
5745.63507,0.83713
5743.70636,0.83968
5741.77765,0.84145
5739.84894,0.84334
5737.92022,0.84522
5735.99151,0.84762
5734.06280,0.85040
5732.13408,0.85259
5730.20537,0.85423
5728.27666,0.85639
5726.34795,0.85882
5724.41923,0.86027
5722.49052,0.86051
5720.56181,0.86031
5718.63310,0.86011
5716.70438,0.85974
5714.77567,0.86000
5712.84696,0.86036
5710.91824,0.85846
5708.98953,0.85548
5707.06082,0.85369
5705.13211,0.85229
5703.20339,0.85009
5701.27468,0.84745
5699.34597,0.84567
5697.41726,0.84467
5695.48854,0.84358
5693.55983,0.84257
5691.63112,0.84129
5689.70241,0.83916
5687.77369,0.83697
5685.84498,0.83529
5683.91627,0.83347
5681.98755,0.83153
5680.05884,0.82979
5678.13013,0.82763
5676.20142,0.82512
5674.27270,0.82319
5672.34399,0.82118
5670.41528,0.81792
5668.48657,0.81495
5666.55785,0.81428
5664.62914,0.81540
5662.70043,0.81739
5660.77172,0.82012
5658.84300,0.82288
5656.91429,0.82590
5654.98558,0.83071
5653.05686,0.83630
5651.12815,0.84059
5649.19944,0.84453
5647.27073,0.84912
5645.34201,0.85273
5643.41330,0.85410
5641.48459,0.85443
5639.55588,0.85553
5637.62716,0.85750
5635.69845,0.85945
5633.76974,0.86163
5631.84103,0.86473
5629.91231,0.86765
5627.98360,0.86835
5626.05489,0.86738
5624.12617,0.86687
5622.19746,0.86712
5620.26875,0.86782
5618.34004,0.86908
5616.41132,0.87094
5614.48261,0.87334
5612.55390,0.87491
5610.62519,0.87462
5608.69647,0.87469
5606.76776,0.87678
5604.83905,0.87874
5602.91033,0.87857
5600.98162,0.87717
5599.05291,0.87631
5597.12420,0.87675
5595.19548,0.87788
5593.26677,0.87865
5591.33806,0.87908
5589.40935,0.87982
5587.48063,0.88044
5585.55192,0.87962
5583.62321,0.87698
5581.69450,0.87510
5579.76578,0.87626
5577.83707,0.87785
5575.90836,0.87772
5573.97964,0.87708
5572.05093,0.87566
5570.12222,0.87342
5568.19351,0.87243
5566.26479,0.87297
5564.33608,0.87349
5562.40737,0.87368
5560.47866,0.87446
5558.54994,0.87552
5556.62123,0.87575
5554.69252,0.87517
5552.76381,0.87498
5550.83509,0.87615
5548.90638,0.87773
5546.97767,0.87807
5545.04895,0.87773
5543.12024,0.87800
5541.19153,0.87751
5539.26282,0.87556
5537.33410,0.87450
5535.40539,0.87495
5533.47668,0.87520
5531.54797,0.87480
5529.61925,0.87509
5527.69054,0.87663
5525.76183,0.87727
5523.83311,0.87541
5521.90440,0.87343
5519.97569,0.87311
5518.04698,0.87258
5516.11826,0.87182
5514.18955,0.87312
5512.26084,0.87547
5510.33213,0.87553
5508.40341,0.87341
5506.47470,0.87306
5504.54599,0.87479
5502.61728,0.87559
5500.68856,0.87548
5498.75985,0.87573
5496.83114,0.87436
5494.90242,0.86903
5492.97371,0.86444
5491.04500,0.86610
5489.11629,0.86992
5487.18757,0.87289
5485.25886,0.87659
5483.33015,0.87971
5481.40144,0.88052
5479.47272,0.87881
5477.54401,0.87372
5475.61530,0.86929
5473.68659,0.87238
5471.75787,0.87741
5469.82916,0.87800
5467.90045,0.87761
5465.97173,0.87836
5464.04302,0.87741
5462.11431,0.87461
5460.18560,0.87319
5458.25688,0.87457
5456.32817,0.87826
5454.39946,0.88221
5452.47075,0.88237
5450.54203,0.87915
5448.61332,0.87571
5446.68461,0.87280
5444.75590,0.87100
5442.82718,0.86977
5440.89847,0.87073
5438.96976,0.87550
5437.04104,0.87750
5435.11233,0.87525
5433.18362,0.87549
5431.25491,0.87606
5429.32619,0.87379
5427.39748,0.87513
5425.46877,0.88089
5423.54006,0.88573
5421.61134,0.88824
5419.68263,0.88858
5417.75392,0.88593
5415.82520,0.87969
5413.89649,0.87232
5411.96778,0.86918
5410.03907,0.87257
5408.11035,0.87934
5406.18164,0.88449
5404.25293,0.88725
5402.32422,0.88955
5400.39550,0.89085
5398.46679,0.88964
5396.53808,0.88630
5394.60937,0.88410
5392.68065,0.88685
5390.75194,0.89170
5388.82323,0.89168
5386.89451,0.88658
5384.96580,0.88481
5383.03709,0.88975
5381.10838,0.89390
5379.17966,0.89130
5377.25095,0.88482
5375.32224,0.88345
5373.39353,0.88920
5371.46481,0.89574
5369.53610,0.89903
5367.60739,0.89918
5365.67868,0.89739
5363.74996,0.89545
5361.82125,0.89593
5359.89254,0.89801
5357.96382,0.89731
5356.03511,0.89081
5354.10640,0.88313
5352.17769,0.88310
5350.24897,0.88773
5348.32026,0.88870
5346.39155,0.88409
5344.46284,0.88036
5342.53412,0.88345
5340.60541,0.88537
5338.67670,0.88312
5336.74799,0.88593
5334.81927,0.89268
5332.89056,0.89593
5330.96185,0.89535
5329.03313,0.89261
5327.10442,0.89216
5325.17571,0.89714
5323.24700,0.90213
5321.31828,0.90374
5319.38957,0.90376
5317.46086,0.90294
5315.53215,0.90177
5313.60343,0.90164
5311.67472,0.90153
5309.74601,0.89881
5307.81729,0.89570
5305.88858,0.89720
5303.95987,0.90095
5302.03116,0.90240
5300.10244,0.90266
5298.17373,0.90355
5296.24502,0.90419
5294.31631,0.90384
5292.38759,0.90186
5290.45888,0.89991
5288.53017,0.90070
5286.60146,0.90163
5284.67274,0.90081
5282.74403,0.90034
5280.81532,0.90100
5278.88660,0.90276
5276.95789,0.90450
5275.02918,0.90445
5273.10047,0.90301
5271.17175,0.90093
5269.24304,0.89893
5267.31433,0.89697
5265.38562,0.89386
5263.45690,0.89238
5261.52819,0.89626
5259.59948,0.90138
5257.67077,0.90118
5255.74205,0.89659
5253.81334,0.89518
5251.88463,0.89652
5249.95591,0.89357
5248.02720,0.88794
5246.09849,0.88552
5244.16978,0.88832
5242.24106,0.89489
5240.31235,0.90012
5238.38364,0.90188
5236.45493,0.90190
5234.52621,0.90047
5232.59750,0.89873
5230.66879,0.89909
5228.74007,0.89920
5226.81136,0.89564
5224.88265,0.89315
5222.95394,0.89639
5221.02522,0.89959
5219.09651,0.89906
5217.16780,0.89925
5215.23909,0.90276
5213.31037,0.90550
5211.38166,0.90316
5209.45295,0.89534
5207.52424,0.88758
5205.59552,0.88852
5203.66681,0.89638
5201.73810,0.90206
5199.80938,0.90188
5197.88067,0.89888
5195.95196,0.89906
5194.02325,0.90237
5192.09453,0.90372
5190.16582,0.90241
5188.23711,0.90045
5186.30840,0.89853
5184.37968,0.89849
5182.45097,0.90071
5180.52226,0.90186
5178.59355,0.90140
5176.66483,0.90212
5174.73612,0.90399
5172.80741,0.90443
5170.87869,0.90375
5168.94998,0.90405
5167.02127,0.90426
5165.09256,0.90290
5163.16384,0.90182
5161.23513,0.90212
5159.30642,0.90165
5157.37771,0.90002
5155.44899,0.89986
5153.52028,0.90118
5151.59157,0.90173
5149.66286,0.90183
5147.73414,0.90313
5145.80543,0.90508
5143.87672,0.90559
5141.94800,0.90480
5140.01929,0.90483
5138.09058,0.90579
5136.16187,0.90669
5134.23315,0.90737
5132.30444,0.90733
5130.37573,0.90658
5128.44702,0.90596
5126.51830,0.90560
5124.58959,0.90525
5122.66088,0.90506
5120.73216,0.90523
5118.80345,0.90582
5116.87474,0.90636
5114.94603,0.90635
5113.01731,0.90625
5111.08860,0.90686
5109.15989,0.90784
5107.23118,0.90821
5105.30246,0.90790
5103.37375,0.90760
5101.44504,0.90762
5099.51633,0.90800
5097.58761,0.90831
5095.65890,0.90787
5093.73019,0.90731
5091.80147,0.90753
5089.87276,0.90816
5087.94405,0.90878
5086.01534,0.90931
5084.08662,0.90923
5082.15791,0.90887
5080.22920,0.90942
5078.30049,0.91038
5076.37177,0.91048
5074.44306,0.91005
5072.51435,0.91000
5070.58564,0.91008
5068.65692,0.90957
5066.72821,0.90889
5064.79950,0.90885
5062.87078,0.90937
5060.94207,0.91004
5059.01336,0.91045
5057.08465,0.91024
5055.15593,0.90959
5053.22722,0.90900
5051.29851,0.90889
5049.36980,0.90922
5047.44108,0.90970
5045.51237,0.91009
5043.58366,0.91003
5041.65495,0.90961
5039.72623,0.90978
5037.79752,0.91065
5035.86881,0.91128
5033.94009,0.91104
5032.01138,0.91050
5030.08267,0.91052
5028.15396,0.91035
5026.22524,0.90954
5024.29653,0.90928
5022.36782,0.90961
5020.43911,0.90980
5018.51039,0.91005
5016.58168,0.91022
5014.65297,0.91008
5012.72425,0.91024
5010.79554,0.91058
5008.86683,0.91042
5006.93812,0.90980
5005.00940,0.90882
5003.08069,0.90761
5001.15198,0.90694
4999.22327,0.90713
4997.29455,0.90734
4995.36584,0.90693
4993.43713,0.90656
4991.50842,0.90657
4989.57970,0.90641
4987.65099,0.90619
4985.72228,0.90605
4983.79356,0.90590
4981.86485,0.90576
4979.93614,0.90544
4978.00743,0.90507
4976.07871,0.90466
4974.15000,0.90395
4972.22129,0.90356
4970.29258,0.90381
4968.36386,0.90395
4966.43515,0.90403
4964.50644,0.90473
4962.57773,0.90595
4960.64901,0.90678
4958.72030,0.90692
4956.79159,0.90732
4954.86287,0.90866
4952.93416,0.90987
4951.00545,0.90977
4949.07674,0.90903
4947.14802,0.90886
4945.21931,0.90932
4943.29060,0.91002
4941.36189,0.91036
4939.43317,0.90994
4937.50446,0.90969
4935.57575,0.91014
4933.64703,0.91029
4931.71832,0.90992
4929.78961,0.90963
4927.86090,0.90933
4925.93218,0.90921
4924.00347,0.90974
4922.07476,0.91068
4920.14605,0.91143
4918.21733,0.91135
4916.28862,0.91072
4914.35991,0.91073
4912.43120,0.91110
4910.50248,0.91101
4908.57377,0.91090
4906.64506,0.91070
4904.71634,0.91012
4902.78763,0.90985
4900.85892,0.91001
4898.93021,0.91034
4897.00149,0.91103
4895.07278,0.91146
4893.14407,0.91089
4891.21536,0.91018
4889.28664,0.90989
4887.35793,0.90924
4885.42922,0.90838
4883.50051,0.90831
4881.57179,0.90891
4879.64308,0.90958
4877.71437,0.91020
4875.78565,0.91034
4873.85694,0.90956
4871.92823,0.90856
4869.99952,0.90835
4868.07080,0.90860
4866.14209,0.90862
4864.21338,0.90892
4862.28467,0.90984
4860.35595,0.91074
4858.42724,0.91124
4856.49853,0.91179
4854.56982,0.91266
4852.64110,0.91313
4850.71239,0.91264
4848.78368,0.91192
4846.85496,0.91185
4844.92625,0.91202
4842.99754,0.91188
4841.06883,0.91190
4839.14011,0.91239
4837.21140,0.91292
4835.28269,0.91317
4833.35398,0.91320
4831.42526,0.91304
4829.49655,0.91269
4827.56784,0.91269
4825.63912,0.91302
4823.71041,0.91291
4821.78170,0.91246
4819.85299,0.91248
4817.92427,0.91301
4815.99556,0.91303
4814.06685,0.91265
4812.13814,0.91297
4810.20942,0.91396
4808.28071,0.91479
4806.35200,0.91487
4804.42329,0.91446
4802.49457,0.91433
4800.56586,0.91456
4798.63715,0.91479
4796.70843,0.91499
4794.77972,0.91528
4792.85101,0.91535
4790.92230,0.91486
4788.99358,0.91439
4787.06487,0.91443
4785.13616,0.91441
4783.20745,0.91410
4781.27873,0.91403
4779.35002,0.91436
4777.42131,0.91447
4775.49260,0.91407
4773.56388,0.91387
4771.63517,0.91393
4769.70646,0.91347
4767.77774,0.91276
4765.84903,0.91252
4763.92032,0.91263
4761.99161,0.91254
4760.06289,0.91247
4758.13418,0.91288
4756.20547,0.91319
4754.27676,0.91295
4752.34804,0.91301
4750.41933,0.91364
4748.49062,0.91405
4746.56191,0.91391
4744.63319,0.91374
4742.70448,0.91401
4740.77577,0.91460
4738.84705,0.91491
4736.91834,0.91452
4734.98963,0.91377
4733.06092,0.91338
4731.13220,0.91345
4729.20349,0.91357
4727.27478,0.91373
4725.34607,0.91394
4723.41735,0.91361
4721.48864,0.91271
4719.55993,0.91244
4717.63121,0.91318
4715.70250,0.91392
4713.77379,0.91421
4711.84508,0.91428
4709.91636,0.91415
4707.98765,0.91392
4706.05894,0.91367
4704.13023,0.91320
4702.20151,0.91246
4700.27280,0.91166
4698.34409,0.91100
4696.41538,0.91049
4694.48666,0.91007
4692.55795,0.90955
4690.62924,0.90870
4688.70052,0.90781
4686.77181,0.90712
4684.84310,0.90632
4682.91439,0.90552
4680.98567,0.90491
4679.05696,0.90424
4677.12825,0.90363
4675.19954,0.90346
4673.27082,0.90369
4671.34211,0.90425
4669.41340,0.90522
4667.48469,0.90641
4665.55597,0.90739
4663.62726,0.90790
4661.69855,0.90803
4659.76983,0.90818
4657.84112,0.90874
4655.91241,0.90971
4653.98370,0.91069
4652.05498,0.91157
4650.12627,0.91231
4648.19756,0.91230
4646.26885,0.91202
4644.34013,0.91271
4642.41142,0.91389
4640.48271,0.91452
4638.55399,0.91464
4636.62528,0.91420
4634.69657,0.91371
4632.76786,0.91424
4630.83914,0.91547
4628.91043,0.91611
4626.98172,0.91580
4625.05301,0.91515
4623.12429,0.91475
4621.19558,0.91466
4619.26687,0.91441
4617.33816,0.91394
4615.40944,0.91369
4613.48073,0.91389
4611.55202,0.91469
4609.62330,0.91574
4607.69459,0.91609
4605.76588,0.91568
4603.83717,0.91504
4601.90845,0.91441
4599.97974,0.91400
4598.05103,0.91384
4596.12232,0.91386
4594.19360,0.91412
4592.26489,0.91475
4590.33618,0.91546
4588.40747,0.91574
4586.47875,0.91579
4584.55004,0.91586
4582.62133,0.91546
4580.69261,0.91449
4578.76390,0.91369
4576.83519,0.91353
4574.90648,0.91375
4572.97776,0.91411
4571.04905,0.91460
4569.12034,0.91486
4567.19163,0.91457
4565.26291,0.91416
4563.33420,0.91388
4561.40549,0.91334
4559.47678,0.91269
4557.54806,0.91217
4555.61935,0.91173
4553.69064,0.91158
4551.76192,0.91170
4549.83321,0.91157
4547.90450,0.91129
4545.97579,0.91115
4544.04707,0.91053
4542.11836,0.90945
4540.18965,0.90870
4538.26094,0.90833
4536.33222,0.90820
4534.40351,0.90811
4532.47480,0.90760
4530.54608,0.90681
4528.61737,0.90610
4526.68866,0.90546
4524.75995,0.90492
4522.83123,0.90466
4520.90252,0.90430
4518.97381,0.90346
4517.04510,0.90289
4515.11638,0.90283
4513.18767,0.90226
4511.25896,0.90100
4509.33025,0.89990
4507.40153,0.89916
4505.47282,0.89826
4503.54411,0.89701
4501.61539,0.89582
4499.68668,0.89505
4497.75797,0.89435
4495.82926,0.89338
4493.90054,0.89229
4491.97183,0.89137
4490.04312,0.89066
4488.11441,0.88969
4486.18569,0.88835
4484.25698,0.88706
4482.32827,0.88600
4480.39956,0.88511
4478.47084,0.88436
4476.54213,0.88322
4474.61342,0.88144
4472.68470,0.87966
4470.75599,0.87827
4468.82728,0.87685
4466.89857,0.87504
4464.96985,0.87310
4463.04114,0.87136
4461.11243,0.86958
4459.18372,0.86731
4457.25500,0.86443
4455.32629,0.86159
4453.39758,0.85930
4451.46886,0.85694
4449.54015,0.85397
4447.61144,0.85075
4445.68273,0.84746
4443.75401,0.84380
4441.82530,0.83974
4439.89659,0.83580
4437.96788,0.83262
4436.03916,0.83012
4434.11045,0.82765
4432.18174,0.82495
4430.25303,0.82256
4428.32431,0.82080
4426.39560,0.81914
4424.46689,0.81720
4422.53817,0.81497
4420.60946,0.81230
4418.68075,0.80939
4416.75204,0.80643
4414.82332,0.80307
4412.89461,0.79909
4410.96590,0.79483
4409.03719,0.79058
4407.10847,0.78654
4405.17976,0.78252
4403.25105,0.77797
4401.32234,0.77308
4399.39362,0.76808
4397.46491,0.76284
4395.53620,0.75734
4393.60748,0.75115
4391.67877,0.74449
4389.75006,0.73824
4387.82135,0.73220
4385.89263,0.72576
4383.96392,0.71916
4382.03521,0.71242
4380.10650,0.70500
4378.17778,0.69701
4376.24907,0.68878
4374.32036,0.68071
4372.39165,0.67310
4370.46293,0.66539
4368.53422,0.65691
4366.60551,0.64777
4364.67679,0.63845
4362.74808,0.62874
4360.81937,0.61766
4358.89066,0.60473
4356.96194,0.59015
4355.03323,0.57396
4353.10452,0.55603
4351.17581,0.53616
4349.24709,0.51440
4347.31838,0.49148
4345.38967,0.46866
4343.46095,0.44729
4341.53224,0.42803
4339.60353,0.41089
4337.67482,0.39578
4335.74610,0.38164
4333.81739,0.36637
4331.88868,0.34878
4329.95997,0.32856
4328.03125,0.30542
4326.10254,0.28127
4324.17383,0.26302
4322.24512,0.26150
4320.31640,0.28484
4318.38769,0.33091
4316.45898,0.38797
4314.53026,0.44338
4312.60155,0.49015
4310.67284,0.52667
4308.74413,0.55408
4306.81541,0.57413
4304.88670,0.58844
4302.95799,0.59853
4301.02928,0.60541
4299.10056,0.60968
4297.17185,0.61184
4295.24314,0.61217
4293.31443,0.61063
4291.38571,0.60728
4289.45700,0.60258
4287.52829,0.59753
4285.59957,0.59296
4283.67086,0.58861
4281.74215,0.58374
4279.81344,0.57825
4277.88472,0.57201
4275.95601,0.56454
4274.02730,0.55552
4272.09859,0.54458
4270.16987,0.53153
4268.24116,0.51640
4266.31245,0.49896
4264.38374,0.47902
4262.45502,0.45678
4260.52631,0.43283
4258.59760,0.40876
4256.66888,0.38664
4254.74017,0.36878
4252.81146,0.35951
4250.88275,0.36454
4248.95403,0.38608
4247.02532,0.41929
4245.09661,0.45458
4243.16790,0.48443
4241.23918,0.50658
4239.31047,0.52152
4237.38176,0.53046
4235.45304,0.53469
4233.52433,0.53493
4231.59562,0.53168
4229.66691,0.52611
4227.73819,0.51938
4225.80948,0.51227
4223.88077,0.50591
4221.95206,0.50144
4220.02334,0.49941
4218.09463,0.49982
4216.16592,0.50187
4214.23721,0.50430
4212.30849,0.50588
4210.37978,0.50579
4208.45107,0.50381
4206.52235,0.50001
4204.59364,0.49453
4202.66493,0.48759
4200.73622,0.47940
4198.80750,0.47065
4196.87879,0.46258
4194.95008,0.45662
4193.02137,0.45364
4191.09265,0.45282
4189.16394,0.45277
4187.23523,0.45309
4185.30652,0.45392
4183.37780,0.45509
4181.44909,0.45639
4179.52038,0.45761
4177.59166,0.45847
4175.66295,0.45913
4173.73424,0.46013
4171.80553,0.46149
4169.87681,0.46293
4167.94810,0.46463
4166.01939,0.46662
4164.09068,0.46858
4162.16196,0.47028
4160.23325,0.47155
4158.30454,0.47276
4156.37582,0.47417
4154.44711,0.47528
4152.51840,0.47591
4150.58969,0.47652
4148.66097,0.47749
4146.73226,0.47893
4144.80355,0.48071
4142.87484,0.48269
4140.94612,0.48495
4139.01741,0.48734
4137.08870,0.48953
4135.15999,0.49129
4133.23127,0.49269
4131.30256,0.49396
4129.37385,0.49500
4127.44513,0.49610
4125.51642,0.49775
4123.58771,0.49939
4121.65900,0.50043
4119.73028,0.50126
4117.80157,0.50198
4115.87286,0.50241
4113.94415,0.50286
4112.01543,0.50348
4110.08672,0.50388
4108.15801,0.50364
4106.22930,0.50305
4104.30058,0.50295
4102.37187,0.50363
4100.44316,0.50472
4098.51444,0.50623
4096.58573,0.50847
4094.65702,0.51191
4092.72831,0.51716
4090.79959,0.52430
4088.87088,0.53261
4086.94217,0.54128
4085.01346,0.54966
4083.08474,0.55707
4081.15603,0.56350
4079.22732,0.56948
4077.29861,0.57492
4075.36989,0.57944
4073.44118,0.58330
4071.51247,0.58682
4069.58375,0.59000
4067.65504,0.59290
4065.72633,0.59575
4063.79762,0.59851
4061.86890,0.60102
4059.94019,0.60342
4058.01148,0.60588
4056.08277,0.60841
4054.15405,0.61090
4052.22534,0.61303
4050.29663,0.61502
4048.36791,0.61726
4046.43920,0.61937
4044.51049,0.62157
4042.58178,0.62448
4040.65306,0.62745
4038.72435,0.62970
4036.79564,0.63141
4034.86693,0.63302
4032.93821,0.63450
4031.00950,0.63561
4029.08079,0.63614
4027.15208,0.63603
4025.22336,0.63608
4023.29465,0.63755
4021.36594,0.64086
4019.43722,0.64630
4017.50851,0.65387
4015.57980,0.66233
4013.65109,0.67034
4011.72237,0.67691
4009.79366,0.68142
4007.86495,0.68484
4005.93624,0.68812
4004.00752,0.69073
4002.07881,0.69246
4000.15010,0.69356
3998.22139,0.69357
3996.29267,0.69263
3994.36396,0.69195
3992.43525,0.69178
3990.50653,0.69153
3988.57782,0.69140
3986.64911,0.69093
3984.72040,0.68945
3982.79168,0.68794
3980.86297,0.68719
3978.93426,0.68647
3977.00555,0.68531
3975.07683,0.68465
3973.14812,0.68583
3971.21941,0.68885
3969.29070,0.69252
3967.36198,0.69586
3965.43327,0.69804
3963.50456,0.69856
3961.57584,0.69882
3959.64713,0.70041
3957.71842,0.70247
3955.78971,0.70378
3953.86099,0.70359
3951.93228,0.70126
3950.00357,0.69807
3948.07486,0.69746
3946.14614,0.69908
3944.21743,0.69943
3942.28872,0.70032
3940.36000,0.70366
3938.43129,0.70575
3936.50258,0.70383
3934.57387,0.69782
3932.64515,0.69047
3930.71644,0.68757
3928.78773,0.68928
3926.85902,0.68931
3924.93030,0.68708
3923.00159,0.68739
3921.07288,0.68841
3919.14417,0.68648
3917.21545,0.68559
3915.28674,0.68984
3913.35803,0.69522
3911.42931,0.69815
3909.50060,0.69795
3907.57189,0.69263
3905.64318,0.68178
3903.71446,0.67244
3901.78575,0.67193
3899.85704,0.67798
3897.92833,0.68698
3895.99961,0.69290
3894.07090,0.69120
3892.14219,0.68708
3890.21348,0.68976
3888.28476,0.69287
3886.35605,0.68947
3884.42734,0.68504
3882.49862,0.68404
3880.56991,0.68728
3878.64120,0.69529
3876.71249,0.69858
3874.78377,0.69341
3872.85506,0.68592
3870.92635,0.68259
3868.99764,0.68672
3867.06892,0.69148
3865.14021,0.69104
3863.21150,0.69428
3861.28278,0.70449
3859.35407,0.71004
3857.42536,0.70563
3855.49665,0.69299
3853.56793,0.68168
3851.63922,0.69177
3849.71051,0.70877
3847.78180,0.71813
3845.85308,0.71757
3843.92437,0.70973
3841.99566,0.69975
3840.06695,0.69011
3838.13823,0.68688
3836.20952,0.69448
3834.28081,0.70373
3832.35209,0.71047
3830.42338,0.71476
3828.49467,0.71488
3826.56596,0.71222
3824.63724,0.70846
3822.70853,0.70030
3820.77982,0.69255
3818.85111,0.69537
3816.92239,0.70250
3814.99368,0.71388
3813.06497,0.72595
3811.13626,0.73093
3809.20754,0.72771
3807.27883,0.72171
3805.35012,0.71934
3803.42140,0.71548
3801.49269,0.71214
3799.56398,0.71888
3797.63527,0.72868
3795.70655,0.73958
3793.77784,0.75084
3791.84913,0.75754
3789.92042,0.75937
3787.99170,0.75730
3786.06299,0.75318
3784.13428,0.75228
3782.20557,0.75359
3780.27685,0.75273
3778.34814,0.75502
3776.41943,0.76217
3774.49071,0.76597
3772.56200,0.76215
3770.63329,0.75413
3768.70458,0.75068
3766.77586,0.75311
3764.84715,0.75740
3762.91844,0.75950
3760.98973,0.75519
3759.06101,0.74905
3757.13230,0.74872
3755.20359,0.74734
3753.27487,0.73605
3751.34616,0.71916
3749.41745,0.71705
3747.48874,0.72417
3745.56002,0.72862
3743.63131,0.73463
3741.70260,0.73974
3739.77389,0.73840
3737.84517,0.72908
3735.91646,0.71640
3733.98775,0.71658
3732.05904,0.73073
3730.13032,0.74256
3728.20161,0.74489
3726.27290,0.74074
3724.34418,0.73851
3722.41547,0.74223
3720.48676,0.74976
3718.55805,0.75788
3716.62933,0.76179
3714.70062,0.75626
3712.77191,0.74015
3710.84320,0.72876
3708.91448,0.73704
3706.98577,0.74855
3705.05706,0.75193
3703.12835,0.74869
3701.19963,0.74687
3699.27092,0.74963
3697.34221,0.75087
3695.41349,0.74760
3693.48478,0.73892
3691.55607,0.72433
3689.62736,0.71425
3687.69864,0.72337
3685.76993,0.73761
3683.84122,0.74501
3681.91251,0.74432
3679.98379,0.73580
3678.05508,0.72140
3676.12637,0.70798
3674.19766,0.70881
3672.26894,0.71237
3670.34023,0.71148
3668.41152,0.72086
3666.48280,0.73504
3664.55409,0.74160
3662.62538,0.74103
3660.69667,0.73648
3658.76795,0.72859
3656.83924,0.71905
3654.91053,0.71263
3652.98182,0.70428
3651.05310,0.68439
3649.12439,0.66426
3647.19568,0.67344
3645.26696,0.69156
3643.33825,0.70190
3641.40954,0.70730
3639.48083,0.71203
3637.55211,0.71614
3635.62340,0.71748
3633.69469,0.71537
3631.76598,0.70930
3629.83726,0.70020
3627.90855,0.70142
3625.97984,0.71333
3624.05113,0.71914
3622.12241,0.71457
3620.19370,0.70289
3618.26499,0.69476
3616.33627,0.69221
3614.40756,0.68672
3612.47885,0.67887
3610.55014,0.67079
3608.62142,0.66202
3606.69271,0.65845
3604.76400,0.66045
3602.83529,0.66248
3600.90657,0.66793
3598.97786,0.68233
3597.04915,0.70165
3595.12044,0.72206
3593.19172,0.74267
3591.26301,0.75654
3589.33430,0.75910
3587.40558,0.76037
3585.47687,0.77312
3583.54816,0.78717
3581.61945,0.79476
3579.69073,0.79816
3577.76202,0.80043
3575.83331,0.80306
3573.90460,0.80626
3571.97588,0.80691
3570.04717,0.80000
3568.11846,0.78689
3566.18974,0.78373
3564.26103,0.79559
3562.33232,0.80723
3560.40361,0.81476
3558.47489,0.82069
3556.54618,0.82395
3554.61747,0.82259
3552.68876,0.82005
3550.76004,0.82055
3548.83133,0.82029
3546.90262,0.81674
3544.97391,0.81675
3543.04519,0.82371
3541.11648,0.83085
3539.18777,0.83294
3537.25905,0.83165
3535.33034,0.83178
3533.40163,0.83285
3531.47292,0.83051
3529.54420,0.82499
3527.61549,0.82136
3525.68678,0.82152
3523.75807,0.82377
3521.82935,0.82793
3519.90064,0.83223
3517.97193,0.83465
3516.04322,0.83583
3514.11450,0.83544
3512.18579,0.83222
3510.25708,0.82843
3508.32836,0.82757
3506.39965,0.82676
3504.47094,0.82282
3502.54223,0.82081
3500.61351,0.82365
3498.68480,0.82583
3496.75609,0.82503
3494.82738,0.82406
3492.89866,0.82364
3490.96995,0.82167
3489.04124,0.81816
3487.11253,0.81474
3485.18381,0.81057
3483.25510,0.80410
3481.32639,0.79766
3479.39767,0.79294
3477.46896,0.78628
3475.54025,0.77535
3473.61154,0.76188
3471.68282,0.74723
3469.75411,0.73100
3467.82540,0.71353
3465.89669,0.69667
3463.96797,0.68196
3462.03926,0.67044
3460.11055,0.66313
3458.18183,0.65980
3456.25312,0.66015
3454.32441,0.66434
3452.39570,0.67141
3450.46698,0.67911
3448.53827,0.68709
3446.60956,0.69812
3444.68085,0.71197
3442.75213,0.72581
3440.82342,0.73926
3438.89471,0.75175
3436.96600,0.76222
3435.03728,0.77101
3433.10857,0.77866
3431.17986,0.78534
3429.25114,0.79088
3427.32243,0.79508
3425.39372,0.79799
3423.46501,0.79966
3421.53629,0.80088
3419.60758,0.80295
3417.67887,0.80597
3415.75016,0.80889
3413.82144,0.81100
3411.89273,0.81239
3409.96402,0.81326
3408.03531,0.81344
3406.10659,0.81308
3404.17788,0.81273
3402.24917,0.81266
3400.32045,0.81225
3398.39174,0.81091
3396.46303,0.80949
3394.53432,0.80861
3392.60560,0.80816
3390.67689,0.80824
3388.74818,0.80787
3386.81947,0.80617
3384.89075,0.80439
3382.96204,0.80362
3381.03333,0.80297
3379.10462,0.80209
3377.17590,0.80162
3375.24719,0.80123
3373.31848,0.80079
3371.38976,0.80080
3369.46105,0.80077
3367.53234,0.80037
3365.60363,0.80057
3363.67491,0.80182
3361.74620,0.80331
3359.81749,0.80490
3357.88878,0.80707
3355.96006,0.80961
3354.03135,0.81190
3352.10264,0.81357
3350.17392,0.81469
3348.24521,0.81552
3346.31650,0.81653
3344.38779,0.81795
3342.45907,0.81911
3340.53036,0.81943
3338.60165,0.81934
3336.67294,0.81962
3334.74422,0.82063
3332.81551,0.82209
3330.88680,0.82318
3328.95809,0.82354
3327.02937,0.82356
3325.10066,0.82371
3323.17195,0.82405
3321.24323,0.82436
3319.31452,0.82448
3317.38581,0.82474
3315.45710,0.82517
3313.52838,0.82532
3311.59967,0.82508
3309.67096,0.82476
3307.74225,0.82489
3305.81353,0.82561
3303.88482,0.82611
3301.95611,0.82608
3300.02740,0.82590
3298.09868,0.82568
3296.16997,0.82532
3294.24126,0.82475
3292.31254,0.82433
3290.38383,0.82453
3288.45512,0.82510
3286.52641,0.82552
3284.59769,0.82533
3282.66898,0.82421
3280.74027,0.82254
3278.81156,0.82118
3276.88284,0.82034
3274.95413,0.82013
3273.02542,0.82090
3271.09670,0.82206
3269.16799,0.82264
3267.23928,0.82226
3265.31057,0.82113
3263.38185,0.82001
3261.45314,0.81920
3259.52443,0.81836
3257.59572,0.81743
3255.66700,0.81662
3253.73829,0.81641
3251.80958,0.81685
3249.88087,0.81703
3247.95215,0.81605
3246.02344,0.81442
3244.09473,0.81359
3242.16601,0.81365
3240.23730,0.81349
3238.30859,0.81259
3236.37988,0.81126
3234.45116,0.80998
3232.52245,0.80864
3230.59374,0.80671
3228.66503,0.80470
3226.73631,0.80346
3224.80760,0.80268
3222.87889,0.80118
3220.95018,0.79864
3219.02146,0.79639
3217.09275,0.79505
3215.16404,0.79387
3213.23532,0.79270
3211.30661,0.79118
3209.37790,0.78891
3207.44919,0.78661
3205.52047,0.78485
3203.59176,0.78342
3201.66305,0.78160
3199.73434,0.77901
3197.80562,0.77657
3195.87691,0.77517
3193.94820,0.77423
3192.01949,0.77274
3190.09077,0.77065
3188.16206,0.76836
3186.23335,0.76593
3184.30463,0.76374
3182.37592,0.76208
3180.44721,0.76018
3178.51850,0.75801
3176.58978,0.75647
3174.66107,0.75532
3172.73236,0.75373
3170.80365,0.75163
3168.87493,0.74936
3166.94622,0.74739
3165.01751,0.74602
3163.08879,0.74483
3161.16008,0.74322
3159.23137,0.74145
3157.30266,0.73991
3155.37394,0.73809
3153.44523,0.73559
3151.51652,0.73284
3149.58781,0.73027
3147.65909,0.72771
3145.73038,0.72532
3143.80167,0.72353
3141.87296,0.72200
3139.94424,0.72012
3138.01553,0.71769
3136.08682,0.71417
3134.15810,0.70940
3132.22939,0.70503
3130.30068,0.70186
3128.37197,0.69834
3126.44325,0.69351
3124.51454,0.68809
3122.58583,0.68291
3120.65712,0.67825
3118.72840,0.67366
3116.79969,0.66855
3114.87098,0.66273
3112.94227,0.65602
3111.01355,0.64850
3109.08484,0.64073
3107.15613,0.63276
3105.22741,0.62371
3103.29870,0.61294
3101.36999,0.60095
3099.44128,0.58847
3097.51256,0.57520
3095.58385,0.56094
3093.65514,0.54669
3091.72643,0.53329
3089.79771,0.52101
3087.86900,0.51006
3085.94029,0.50053
3084.01158,0.49217
3082.08286,0.48437
3080.15415,0.47678
3078.22544,0.46964
3076.29672,0.46303
3074.36801,0.45655
3072.43930,0.44989
3070.51059,0.44272
3068.58187,0.43487
3066.65316,0.42661
3064.72445,0.41841
3062.79574,0.41023
3060.86702,0.40188
3058.93831,0.39339
3057.00960,0.38485
3055.08088,0.37616
3053.15217,0.36684
3051.22346,0.35669
3049.29475,0.34610
3047.36603,0.33548
3045.43732,0.32488
3043.50861,0.31390
3041.57990,0.30223
3039.65118,0.29019
3037.72247,0.27812
3035.79376,0.26600
3033.86505,0.25401
3031.93633,0.24257
3030.00762,0.23207
3028.07891,0.22231
3026.15019,0.21270
3024.22148,0.20339
3022.29277,0.19478
3020.36406,0.18673
3018.43534,0.17910
3016.50663,0.17220
3014.57792,0.16611
3012.64921,0.16039
3010.72049,0.15460
3008.79178,0.14851
3006.86307,0.14195
3004.93436,0.13484
3003.00564,0.12710
3001.07693,0.11871
2999.14822,0.10975
2997.21950,0.10037
2995.29079,0.09060
2993.36208,0.08048
2991.43337,0.07028
2989.50465,0.06035
2987.57594,0.05094
2985.64723,0.04212
2983.71852,0.03373
2981.78980,0.02593
2979.86109,0.01921
2977.93238,0.01367
2976.00366,0.00908
2974.07495,0.00556
2972.14624,0.00328
2970.21753,0.00186
2968.28881,0.00095
2966.36010,0.00045
2964.43139,0.00036
2962.50268,0.00067
2960.57396,0.00084
2958.64525,0.00082
2956.71654,0.00050
2954.78783,0.00033
2952.85911,0.00047
2950.93040,0.00067
2949.00169,0.00072
2947.07297,0.00056
2945.14426,0.00031
2943.21555,0.00025
2941.28684,0.00036
2939.35812,0.00052
2937.42941,0.00046
2935.50070,0.00037
2933.57199,0.00060
2931.64327,0.00096
2929.71456,0.00101
2927.78585,0.00080
2925.85714,0.00052
2923.92842,0.00013
2921.99971,-0.00019
2920.07100,0.00017
2918.14228,0.00014
2916.21357,0.00040
2914.28486,0.00063
2912.35615,0.00047
2910.42743,0.00044
2908.49872,0.00081
2906.57001,0.00106
2904.64130,0.00086
2902.71258,0.00051
2900.78387,0.00052
2898.85516,0.00081
2896.92645,0.00094
2894.99773,0.00078
2893.06902,0.00070
2891.14031,0.00067
2889.21159,0.00040
2887.28288,0.00011
2885.35417,0.00015
2883.42546,0.00032
2881.49674,0.00039
2879.56803,0.00046
2877.63932,0.00051
2875.71061,0.00052
2873.78189,0.00063
2871.85318,0.00067
2869.92447,0.00050
2867.99575,0.00025
2866.06704,0.00016
2864.13833,0.00023
2862.20962,0.00046
2860.28090,0.00055
2858.35219,0.00047
2856.42348,0.00057
2854.49477,0.00086
2852.56605,0.00101
2850.63734,0.00098
2848.70863,0.00097
2846.77992,0.00088
2844.85120,0.00051
2842.92249,0.00019
2840.99378,0.00025
2839.06506,0.00048
2837.13635,0.00045
2835.20764,0.00044
2833.27893,0.00056
2831.35021,0.00078
2829.42150,0.00120
2827.49279,0.00217
2825.56408,0.00379
2823.63536,0.00590
2821.70665,0.00859
2819.77794,0.01185
2817.84923,0.01554
2815.92051,0.01974
2813.99180,0.02452
2812.06309,0.02986
2810.13437,0.03565
2808.20566,0.04182
2806.27695,0.04843
2804.34824,0.05573
2802.41952,0.06366
2800.49081,0.07195
2798.56210,0.08058
2796.63339,0.08977
2794.70467,0.09980
2792.77596,0.11044
2790.84725,0.12122
2788.91854,0.13221
2786.98982,0.14372
2785.06111,0.15576
2783.13240,0.16792
2781.20368,0.17983
2779.27497,0.19134
2777.34626,0.20215
2775.41755,0.21198
2773.48883,0.22085
2771.56012,0.22883
2769.63141,0.23586
2767.70270,0.24185
2765.77398,0.24700
2763.84527,0.25175
2761.91656,0.25639
2759.98784,0.26085
2758.05913,0.26498
2756.13042,0.26878
2754.20171,0.27211
2752.27299,0.27473
2750.34428,0.27659
2748.41557,0.27778
2746.48686,0.27841
2744.55814,0.27860
2742.62943,0.27856
2740.70072,0.27879
2738.77201,0.27978
2736.84329,0.28155
2734.91458,0.28400
2732.98587,0.28715
2731.05715,0.29101
2729.12844,0.29554
2727.19973,0.30051
2725.27102,0.30558
2723.34230,0.31057
2721.41359,0.31531
2719.48488,0.31986
2717.55617,0.32445
2715.62745,0.32907
2713.69874,0.33345
2711.77003,0.33739
2709.84132,0.34090
2707.91260,0.34393
2705.98389,0.34652
2704.05518,0.34875
2702.12646,0.35034
2700.19775,0.35089
2698.26904,0.35022
2696.34033,0.34818
2694.41161,0.34470
2692.48290,0.33999
2690.55419,0.33458
2688.62548,0.32920
2686.69676,0.32451
2684.76805,0.32078
2682.83934,0.31783
2680.91062,0.31541
2678.98191,0.31339
2677.05320,0.31174
2675.12449,0.31049
2673.19577,0.30973
2671.26706,0.30952
2669.33835,0.31012
2667.40964,0.31182
2665.48092,0.31441
2663.55221,0.31736
2661.62350,0.32037
2659.69479,0.32342
2657.76607,0.32654
2655.83736,0.32970
2653.90865,0.33284
2651.97993,0.33597
2650.05122,0.33897
2648.12251,0.34155
2646.19380,0.34343
2644.26508,0.34446
2642.33637,0.34472
2640.40766,0.34476
2638.47895,0.34525
2636.55023,0.34662
2634.62152,0.34945
2632.69281,0.35425
2630.76410,0.36092
2628.83538,0.36892
2626.90667,0.37765
2624.97796,0.38658
2623.04924,0.39534
2621.12053,0.40373
2619.19182,0.41180
2617.26311,0.41971
2615.33439,0.42749
2613.40568,0.43513
2611.47697,0.44273
2609.54826,0.45042
2607.61954,0.45826
2605.69083,0.46602
2603.76212,0.47328
2601.83341,0.47988
2599.90469,0.48609
2597.97598,0.49221
2596.04727,0.49840
2594.11855,0.50493
2592.18984,0.51213
2590.26113,0.52013
2588.33242,0.52873
2586.40370,0.53749
2584.47499,0.54610
2582.54628,0.55435
2580.61757,0.56207
2578.68885,0.56913
2576.76014,0.57561
2574.83143,0.58194
2572.90271,0.58848
2570.97400,0.59527
2569.04529,0.60211
2567.11658,0.60856
2565.18786,0.61438
2563.25915,0.61950
2561.33044,0.62374
2559.40173,0.62704
2557.47301,0.62968
2555.54430,0.63191
2553.61559,0.63402
2551.68688,0.63650
2549.75816,0.63993
2547.82945,0.64479
2545.90074,0.65088
2543.97202,0.65709
2542.04331,0.66223
2540.11460,0.66525
2538.18589,0.66555
2536.25717,0.66373
2534.32846,0.66139
2532.39975,0.65977
2530.47104,0.65926
2528.54232,0.66018
2526.61361,0.66306
2524.68490,0.66811
2522.75619,0.67445
2520.82747,0.68065
2518.89876,0.68580
2516.97005,0.68996
2515.04133,0.69356
2513.11262,0.69713
2511.18391,0.70086
2509.25520,0.70427
2507.32648,0.70673
2505.39777,0.70813
2503.46906,0.70861
2501.54035,0.70829
2499.61163,0.70736
2497.68292,0.70613
2495.75421,0.70499
2493.82549,0.70436
2491.89678,0.70422
2489.96807,0.70423
2488.03936,0.70386
2486.11064,0.70255
2484.18193,0.70042
2482.25322,0.69804
2480.32451,0.69574
2478.39579,0.69360
2476.46708,0.69213
2474.53837,0.69261
2472.60966,0.69629
2470.68094,0.70274
2468.75223,0.71008
2466.82352,0.71684
2464.89480,0.72246
2462.96609,0.72701
2461.03738,0.73090
2459.10867,0.73453
2457.17995,0.73807
2455.25124,0.74189
2453.32253,0.74625
2451.39382,0.75072
2449.46510,0.75463
2447.53639,0.75774
2445.60768,0.75999
2443.67897,0.76121
2441.75025,0.76140
2439.82154,0.76103
2437.89283,0.76066
2435.96411,0.76051
2434.03540,0.76054
2432.10669,0.76060
2430.17798,0.76047
2428.24926,0.75977
2426.32055,0.75802
2424.39184,0.75489
2422.46313,0.75065
2420.53441,0.74615
2418.60570,0.74246
2416.67699,0.74038
2414.74828,0.74019
2412.81956,0.74159
2410.89085,0.74373
2408.96214,0.74580
2407.03342,0.74742
2405.10471,0.74828
2403.17600,0.74829
2401.24729,0.74793
2399.31857,0.74755
2397.38986,0.74719
2395.46115,0.74720
2393.53244,0.74787
2391.60372,0.74884
2389.67501,0.74921
2387.74630,0.74786
2385.81758,0.74322
2383.88887,0.73339
2381.96016,0.71752
2380.03145,0.69671
2378.10273,0.67343
2376.17402,0.65000
2374.24531,0.62752
2372.31660,0.60610
2370.38788,0.58572
2368.45917,0.56689
2366.53046,0.55018
2364.60175,0.53605
2362.67303,0.52507
2360.74432,0.51783
2358.81561,0.51513
2356.88689,0.51785
2354.95818,0.52690
2353.02947,0.54338
2351.10076,0.56314
2349.17204,0.57279
2347.24333,0.56280
2345.31462,0.54074
2343.38591,0.52418
2341.45719,0.51829
2339.52848,0.51756
2337.59977,0.51870
2335.67106,0.52039
2333.74234,0.52157
2331.81363,0.52284
2329.88492,0.52656
2327.95620,0.53308
2326.02749,0.54027
2324.09878,0.54720
2322.17007,0.55558
2320.24135,0.56708
2318.31264,0.58069
2316.38393,0.59359
2314.45522,0.60409
2312.52650,0.61334
2310.59779,0.62339
2308.66908,0.63474
2306.74037,0.64645
2304.81165,0.65724
2302.88294,0.66633
2300.95423,0.67399
2299.02551,0.68113
2297.09680,0.68824
2295.16809,0.69529
2293.23938,0.70225
2291.31066,0.70909
2289.38195,0.71565
2287.45324,0.72158
2285.52453,0.72635
2283.59581,0.72929
2281.66710,0.73010
2279.73839,0.72948
2277.80967,0.72879
2275.88096,0.72911
2273.95225,0.73092
2272.02354,0.73428
2270.09482,0.73849
2268.16611,0.74251
2266.23740,0.74565
2264.30869,0.74772
2262.37997,0.74885
2260.45126,0.74940
2258.52255,0.74994
2256.59384,0.75081
2254.66512,0.75217
2252.73641,0.75405
2250.80770,0.75644
2248.87898,0.75919
2246.95027,0.76203
2245.02156,0.76489
2243.09285,0.76800
2241.16413,0.77164
2239.23542,0.77592
2237.30671,0.78074
2235.37800,0.78580
2233.44928,0.79055
2231.52057,0.79437
2229.59186,0.79705
2227.66315,0.79869
2225.73443,0.79939
2223.80572,0.79928
2221.87701,0.79864
2219.94829,0.79790
2218.01958,0.79735
2216.09087,0.79696
2214.16216,0.79685
2212.23344,0.79710
2210.30473,0.79740
2208.37602,0.79729
2206.44731,0.79636
2204.51859,0.79452
2202.58988,0.79201
2200.66117,0.78914
2198.73245,0.78591
2196.80374,0.78238
2194.87503,0.77907
2192.94632,0.77626
2191.01760,0.77386
2189.08889,0.77178
2187.16018,0.76983
2185.23147,0.76766
2183.30275,0.76519
2181.37404,0.76253
2179.44533,0.75978
2177.51662,0.75705
2175.58790,0.75461
2173.65919,0.75277
2171.73048,0.75156
2169.80176,0.75073
2167.87305,0.75003
2165.94434,0.74927
2164.01563,0.74822
2162.08691,0.74676
2160.15820,0.74501
2158.22949,0.74327
2156.30078,0.74196
2154.37206,0.74142
2152.44335,0.74185
2150.51464,0.74340
2148.58593,0.74622
2146.65721,0.75022
2144.72850,0.75502
2142.79979,0.76006
2140.87107,0.76471
2138.94236,0.76847
2137.01365,0.77158
2135.08494,0.77486
2133.15622,0.77861
2131.22751,0.78248
2129.29880,0.78629
2127.37009,0.79001
2125.44137,0.79335
2123.51266,0.79574
2121.58395,0.79691
2119.65524,0.79720
2117.72652,0.79708
2115.79781,0.79691
2113.86910,0.79723
2111.94038,0.79821
2110.01167,0.79953
2108.08296,0.80101
2106.15425,0.80231
2104.22553,0.80299
2102.29682,0.80291
2100.36811,0.80207
2098.43940,0.80068
2096.51068,0.79940
2094.58197,0.79858
2092.65326,0.79797
2090.72454,0.79764
2088.79583,0.79815
2086.86712,0.79925
2084.93841,0.79987
2083.00969,0.79948
2081.08098,0.79815
2079.15227,0.79616
2077.22356,0.79401
2075.29484,0.79208
2073.36613,0.79050
2071.43742,0.78931
2069.50871,0.78826
2067.57999,0.78665
2065.65128,0.78479
2063.72257,0.78361
2061.79385,0.78241
2059.86514,0.78006
2057.93643,0.77674
2056.00772,0.77294
2054.07900,0.76927
2052.15029,0.76627
2050.22158,0.76374
2048.29287,0.76112
2046.36415,0.75809
2044.43544,0.75433
2042.50673,0.74987
2040.57802,0.74560
2038.64930,0.74168
2036.72059,0.73729
2034.79188,0.73257
2032.86316,0.72819
2030.93445,0.72415
2029.00574,0.71987
2027.07703,0.71507
2025.14831,0.70983
2023.21960,0.70441
2021.29089,0.69925
2019.36218,0.69543
2017.43346,0.69625
2015.50475,0.70483
2013.57604,0.71897
2011.64733,0.73393
2009.71861,0.74718
2007.78990,0.75836
2005.86119,0.76760
2003.93247,0.77471
2002.00376,0.77974
2000.07505,0.78325
1998.14634,0.78611
1996.21762,0.78816
1994.28891,0.78822
1992.36020,0.78829
1990.43149,0.79176
1988.50277,0.79725
1986.57406,0.80221
1984.64535,0.80574
1982.71663,0.80732
1980.78792,0.80726
1978.85921,0.80621
1976.93050,0.80460
1975.00178,0.80286
1973.07307,0.80133
1971.14436,0.79951
1969.21565,0.79642
1967.28693,0.79398
1965.35822,0.79505
1963.42951,0.79685
1961.50080,0.79616
1959.57208,0.79389
1957.64337,0.79108
1955.71466,0.78837
1953.78594,0.78702
1951.85723,0.78700
1949.92852,0.78697
1947.99981,0.78602
1946.07109,0.78362
1944.14238,0.78022
1942.21367,0.77943
1940.28496,0.78271
1938.35624,0.78515
1936.42753,0.78429
1934.49882,0.78221
1932.57011,0.78084
1930.64139,0.78047
1928.71268,0.78035
1926.78397,0.77880
1924.85525,0.77398
1922.92654,0.76821
1920.99783,0.76490
1919.06912,0.76164
1917.14040,0.75874
1915.21169,0.75811
1913.28298,0.75567
1911.35427,0.74959
1909.42555,0.74374
1907.49684,0.74143
1905.56813,0.74007
1903.63941,0.73645
1901.71070,0.73086
1899.78199,0.72428
1897.85328,0.71696
1895.92456,0.71073
1893.99585,0.70891
1892.06714,0.70992
1890.13843,0.71197
1888.20971,0.71748
1886.28100,0.72367
1884.35229,0.72660
1882.42358,0.72672
1880.49486,0.72478
1878.56615,0.72113
1876.63744,0.71682
1874.70872,0.71217
1872.78001,0.70546
1870.85130,0.69459
1868.92259,0.68424
1866.99387,0.68569
1865.06516,0.69430
1863.13645,0.69950
1861.20774,0.70020
1859.27902,0.69968
1857.35031,0.70026
1855.42160,0.70154
1853.49289,0.70272
1851.56417,0.70303
1849.63546,0.70095
1847.70675,0.69555
1845.77803,0.68793
1843.84932,0.68405
1841.92061,0.68668
1839.99190,0.68750
1838.06318,0.68293
1836.13447,0.67711
1834.20576,0.67151
1832.27705,0.66190
1830.34833,0.64893
1828.41962,0.64110
1826.49091,0.63744
1824.56220,0.63216
1822.63348,0.62736
1820.70477,0.62246
1818.77606,0.61538
1816.84734,0.60793
1814.91863,0.60061
1812.98992,0.59180
1811.06121,0.58253
1809.13249,0.57627
1807.20378,0.57121
1805.27507,0.56326
1803.34636,0.55090
1801.41764,0.53552
1799.48893,0.52236
1797.56022,0.51205
1795.63150,0.50053
1793.70279,0.48520
1791.77408,0.46926
1789.84537,0.45984
1787.91665,0.45155
1785.98794,0.43803
1784.05923,0.42090
1782.13052,0.40352
1780.20180,0.38596
1778.27309,0.36904
1776.34438,0.35115
1774.41567,0.32736
1772.48695,0.29430
1770.55824,0.26010
1768.62953,0.22909
1766.70081,0.19504
1764.77210,0.16130
1762.84339,0.12744
1760.91468,0.09476
1758.98596,0.07073
1757.05725,0.04990
1755.12854,0.03103
1753.19983,0.01740
1751.27111,0.00775
1749.34240,0.00205
1747.41369,0.00052
1745.48498,0.00056
1743.55626,0.00044
1741.62755,0.00052
1739.69884,0.00048
1737.77012,0.00046
1735.84141,0.00048
1733.91270,0.00068
1731.98399,0.00074
1730.05527,0.00034
1728.12656,0.00059
1726.19785,0.00203
1724.26914,0.00651
1722.34042,0.01468
1720.41171,0.02596
1718.48300,0.04530
1716.55429,0.07815
1714.62557,0.11116
1712.69686,0.13676
1710.76815,0.15841
1708.83943,0.17586
1706.91072,0.18945
1704.98201,0.19950
1703.05330,0.20431
1701.12458,0.20374
1699.19587,0.20230
1697.26716,0.21218
1695.33845,0.23769
1693.40973,0.26617
1691.48102,0.29141
1689.55231,0.31969
1687.62359,0.34598
1685.69488,0.36844
1683.76617,0.40263
1681.83746,0.43678
1679.90874,0.45845
1677.98003,0.47307
1676.05132,0.48323
1674.12261,0.49187
1672.19389,0.49757
1670.26518,0.50297
1668.33647,0.51640
1666.40776,0.52836
1664.47904,0.53073
1662.55033,0.52906
1660.62162,0.53073
1658.69290,0.53123
1656.76419,0.52498
1654.83548,0.51012
1652.90677,0.49009
1650.97805,0.48147
1649.04934,0.47402
1647.12063,0.47316
1645.19192,0.50038
1643.26320,0.53396
1641.33449,0.55864
1639.40578,0.57264
1637.47707,0.57833
1635.54835,0.59375
1633.61964,0.62040
1631.69093,0.63654
1629.76221,0.64259
1627.83350,0.64451
1625.90479,0.64480
1623.97608,0.64366
1622.04736,0.64629
1620.11865,0.64951
1618.18994,0.64701
1616.26123,0.64796
1614.33251,0.65922
1612.40380,0.66745
1610.47509,0.66845
1608.54637,0.66707
1606.61766,0.66697
1604.68895,0.66610
1602.76024,0.66371
1600.83152,0.66258
1598.90281,0.66243
1596.97410,0.66094
1595.04539,0.65948
1593.11667,0.65975
1591.18796,0.66027
1589.25925,0.65969
1587.33054,0.65795
1585.40182,0.65480
1583.47311,0.65077
1581.54440,0.64624
1579.61568,0.63862
1577.68697,0.62641
1575.75826,0.61899
1573.82955,0.62197
1571.90083,0.62019
1569.97212,0.61045
1568.04341,0.60385
1566.11470,0.60126
1564.18598,0.59630
1562.25727,0.58801
1560.32856,0.57235
1558.39985,0.55744
1556.47113,0.56622
1554.54242,0.57730
1552.61371,0.58277
1550.68499,0.58295
1548.75628,0.58054
1546.82757,0.57393
1544.89886,0.55840
1542.97014,0.53723
1541.04143,0.52394
1539.11272,0.53366
1537.18401,0.54573
1535.25529,0.54574
1533.32658,0.54071
1531.39787,0.53928
1529.46916,0.53548
1527.54044,0.52430
1525.61173,0.51102
1523.68302,0.49992
1521.75430,0.49100
1519.82559,0.48863
1517.89688,0.48735
1515.96817,0.48549
1514.03945,0.48420
1512.11074,0.47751
1510.18203,0.46291
1508.25332,0.44174
1506.32460,0.42955
1504.39589,0.43379
1502.46718,0.43269
1500.53846,0.42236
1498.60975,0.40438
1496.68104,0.38538
1494.75233,0.37208
1492.82361,0.35867
1490.89490,0.33519
1488.96619,0.30222
1487.03748,0.27296
1485.10876,0.24517
1483.18005,0.20995
1481.25134,0.16274
1479.32263,0.11085
1477.39391,0.06369
1475.46520,0.02647
1473.53649,0.00605
1471.60777,0.00068
1469.67906,0.00012
1467.75035,0.00005
1465.82164,0.00014
1463.89292,0.00017
1461.96421,0.00008
1460.03550,0.00021
1458.10679,0.00042
1456.17807,0.00099
1454.24936,0.00199
1452.32065,0.00332
1450.39194,0.00494
1448.46322,0.00690
1446.53451,0.00876
1444.60580,0.00997
1442.67708,0.01082
1440.74837,0.01146
1438.81966,0.01222
1436.89095,0.01412
1434.96223,0.01788
1433.03352,0.02323
1431.10481,0.03230
1429.17610,0.04730
1427.24738,0.06542
1425.31867,0.08648
1423.38996,0.11137
1421.46125,0.13551
1419.53253,0.16172
1417.60382,0.19252
1415.67511,0.21745
1413.74639,0.23654
1411.81768,0.25346
1409.88897,0.26823
1407.96026,0.27857
1406.03154,0.28379
1404.10283,0.28546
1402.17412,0.28335
1400.24541,0.27479
1398.31669,0.25934
1396.38798,0.23897
1394.45927,0.21270
1392.53055,0.18370
1390.60184,0.15390
1388.67313,0.11797
1386.74442,0.07719
1384.81570,0.04476
1382.88699,0.02403
1380.95828,0.01100
1379.02957,0.00423
1377.10085,0.00165
1375.17214,0.00083
1373.24343,0.00053
1371.31472,0.00054
1369.38600,0.00069
1367.45729,0.00083
1365.52858,0.00125
1363.59986,0.00234
1361.67115,0.00489
1359.74244,0.00875
1357.81373,0.01344
1355.88501,0.01914
1353.95630,0.02685
1352.02759,0.03864
1350.09888,0.05741
1348.17016,0.08494
1346.24145,0.11928
1344.31274,0.15535
1342.38403,0.18851
1340.45531,0.22032
1338.52660,0.25411
1336.59789,0.28511
1334.66917,0.30788
1332.74046,0.32156
1330.81175,0.32711
1328.88304,0.32633
1326.95432,0.32066
1325.02561,0.31108
1323.09690,0.29813
1321.16819,0.28197
1319.23947,0.26349
1317.31076,0.24495
1315.38205,0.22741
1313.45333,0.21027
1311.52462,0.19444
1309.59591,0.18102
1307.66720,0.16979
1305.73848,0.16056
1303.80977,0.15292
1301.88106,0.14639
1299.95235,0.14080
1298.02363,0.13601
1296.09492,0.13166
1294.16621,0.12731
1292.23750,0.12224
1290.30878,0.11565
1288.38007,0.10739
1286.45136,0.09797
1284.52264,0.08787
1282.59393,0.07727
1280.66522,0.06629
1278.73651,0.05514
1276.80779,0.04416
1274.87908,0.03385
1272.95037,0.02448
1271.02166,0.01639
1269.09294,0.00997
1267.16423,0.00540
1265.23552,0.00260
1263.30681,0.00113
1261.37809,0.00036
1259.44938,0.00015
1257.52067,0.00016
1255.59195,0.00006
1253.66324,0.00006
1251.73453,0.00024
1249.80582,0.00043
1247.87710,0.00026
1245.94839,0.00021
1244.01968,0.00034
1242.09097,0.00039
1240.16225,0.00023
1238.23354,0.00018
1236.30483,0.00025
1234.37612,0.00041
1232.44740,0.00060
1230.51869,0.00060
1228.58998,0.00036
1226.66126,0.00016
1224.73255,0.00040
1222.80384,0.00115
1220.87513,0.00224
1218.94641,0.00385
1217.01770,0.00666
1215.08899,0.01111
1213.16028,0.01746
1211.23156,0.02592
1209.30285,0.03643
1207.37414,0.04855
1205.44542,0.06183
1203.51671,0.07593
1201.58800,0.09020
1199.65929,0.10408
1197.73057,0.11758
1195.80186,0.13067
1193.87315,0.14293
1191.94444,0.15433
1190.01572,0.16513
1188.08701,0.17518
1186.15830,0.18414
1184.22959,0.19175
1182.30087,0.19791
1180.37216,0.20290
1178.44345,0.20758
1176.51473,0.21266
1174.58602,0.21759
1172.65731,0.22132
1170.72860,0.22351
1168.79988,0.22422
1166.87117,0.22339
1164.94246,0.22080
1163.01375,0.21629
1161.08503,0.20987
1159.15632,0.20147
1157.22761,0.19098
1155.29890,0.17900
1153.37018,0.16652
1151.44147,0.15462
1149.51276,0.14488
1147.58404,0.13866
1145.65533,0.13571
1143.72662,0.13454
1141.79791,0.13387
1139.86919,0.13290
1137.94048,0.13114
1136.01177,0.12853
1134.08306,0.12535
1132.15434,0.12212
1130.22563,0.11977
1128.29692,0.11935
1126.36821,0.12099
1124.43949,0.12395
1122.51078,0.12767
1120.58207,0.13201
1118.65335,0.13669
1116.72464,0.14125
1114.79593,0.14555
1112.86722,0.14976
1110.93850,0.15386
1109.00979,0.15745
1107.08108,0.16017
1105.15237,0.16196
1103.22365,0.16263
1101.29494,0.16201
1099.36623,0.16013
1097.43751,0.15710
1095.50880,0.15301
1093.58009,0.14811
1091.65138,0.14285
1089.72266,0.13745
1087.79395,0.13191
1085.86524,0.12633
1083.93653,0.12075
1082.00781,0.11518
1080.07910,0.10979
1078.15039,0.10474
1076.22168,0.09988
1074.29296,0.09498
1072.36425,0.09005
1070.43554,0.08557
1068.50682,0.08214
1066.57811,0.07984
1064.64940,0.07813
1062.72069,0.07626
1060.79197,0.07372
1058.86326,0.07024
1056.93455,0.06575
1055.00584,0.06015
1053.07712,0.05323
1051.14841,0.04553
1049.21970,0.03838
1047.29099,0.03296
1045.36227,0.02955
1043.43356,0.02752
1041.50485,0.02599
1039.57613,0.02430
1037.64742,0.02192
1035.71871,0.01849
1033.79000,0.01417
1031.86128,0.00972
1029.93257,0.00585
1028.00386,0.00305
1026.07515,0.00157
1024.14643,0.00098
1022.21772,0.00060
1020.28901,0.00044
1018.36029,0.00079
1016.43158,0.00186
1014.50287,0.00442
1012.57416,0.00981
1010.64544,0.01981
1008.71673,0.03580
1006.78802,0.05741
1004.85931,0.08263
1002.93059,0.10896
1001.00188,0.13440
999.07317,0.15773
997.14446,0.17807
995.21574,0.19495
993.28703,0.20852
991.35832,0.21929
989.42960,0.22761
987.50089,0.23351
985.57218,0.23676
983.64347,0.23727
981.71475,0.23519
979.78604,0.23072
977.85733,0.22415
975.92862,0.21573
973.99990,0.20576
972.07119,0.19481
970.14248,0.18347
968.21377,0.17225
966.28505,0.16177
964.35634,0.15290
962.42763,0.14653
960.49891,0.14307
958.57020,0.14237
956.64149,0.14403
954.71278,0.14768
952.78406,0.15293
950.85535,0.15929
948.92664,0.16636
946.99793,0.17334
945.06921,0.17875
943.14050,0.18126
941.21179,0.18086
939.28308,0.17957
937.35436,0.18124
935.42565,0.19019
933.49694,0.20948
931.56822,0.23975
929.63951,0.27819
927.71080,0.31899
925.78209,0.35641
923.85337,0.38727
921.92466,0.41099
919.99595,0.42834
918.06724,0.44083
916.13852,0.45015
914.20981,0.45728
912.28110,0.46266
910.35238,0.46707
908.42367,0.47152
906.49496,0.47652
904.56625,0.48154
902.63753,0.48525
900.70882,0.48671
898.78011,0.48628
896.85140,0.48522
894.92268,0.48478
892.99397,0.48535
891.06526,0.48668
889.13655,0.48911
887.20783,0.49311
885.27912,0.49771
883.35041,0.50148
881.42169,0.50403
879.49298,0.50546
877.56427,0.50568
875.63556,0.50476
873.70684,0.50310
871.77813,0.50114
869.84942,0.49973
867.92071,0.50023
865.99199,0.50350
864.06328,0.50922
862.13457,0.51583
860.20586,0.52157
858.27714,0.52619
856.34843,0.53064
854.41972,0.53583
852.49100,0.54220
850.56229,0.54952
848.63358,0.55699
846.70487,0.56391
844.77615,0.57000
842.84744,0.57542
840.91873,0.58025
838.99002,0.58462
837.06130,0.58912
835.13259,0.59432
833.20388,0.60037
831.27516,0.60693
829.34645,0.61331
827.41774,0.61871
825.48903,0.62231
823.56031,0.62360
821.63160,0.62248
819.70289,0.61936
817.77418,0.61482
815.84546,0.60965
813.91675,0.60494
811.98804,0.60074
810.05933,0.59587
808.13061,0.59005
806.20190,0.58387
804.27319,0.57752
802.34447,0.57207
800.41576,0.56926
798.48705,0.56964
796.55834,0.57353
794.62962,0.58156
792.70091,0.59304
790.77220,0.60587
788.84349,0.61741
786.91477,0.62485
784.98606,0.62671
783.05735,0.62378
781.12864,0.61808
779.19992,0.61126
777.27121,0.60418
775.34250,0.59771
773.41378,0.59268
771.48507,0.58906
769.55636,0.58635
767.62765,0.58383
765.69893,0.58030
763.77022,0.57497
761.84151,0.56781
759.91280,0.55880
757.98408,0.54805
756.05537,0.53608
754.12666,0.52354
752.19795,0.51049
750.26923,0.49588
748.34052,0.47809
746.41181,0.45582
744.48309,0.42838
742.55438,0.39530
740.62567,0.35610
738.69696,0.30973
736.76824,0.25276
734.83953,0.18104
732.91082,0.10249
730.98211,0.04212
729.05339,0.01590
727.12468,0.01184
725.19597,0.01085
723.26725,0.00701
721.33854,0.00324
719.40983,0.00358
717.48112,0.01543
715.55240,0.04948
713.62369,0.11022
711.69498,0.18927
709.76627,0.27290
707.83755,0.35166
705.90884,0.42077
703.98013,0.47890
702.05142,0.52791
700.12270,0.57223
698.19399,0.61454
696.26528,0.65191
694.33656,0.67969
692.40785,0.69648
690.47914,0.70501
688.55043,0.71041
686.62171,0.71660
684.69300,0.72425
682.76429,0.73255
680.83558,0.73990
678.90686,0.74469
676.97815,0.74625
675.04944,0.74379
673.12073,0.73345
671.19201,0.70683
669.26330,0.67324
667.33459,0.67880
665.40587,0.71716
663.47716,0.73699
661.54845,0.73564
659.61974,0.72563
657.69102,0.71165
655.76231,0.69373
653.83360,0.67037
651.90489,0.64181
649.97617,0.61143
648.04746,0.58510
646.11875,0.56725
644.19004,0.55894
642.26132,0.56035
640.33261,0.56954
638.40390,0.58056
636.47518,0.58420
634.54647,0.57216
632.61776,0.54411
630.68905,0.51273
628.76033,0.49496
626.83162,0.49885
624.90291,0.52054
622.97420,0.54695
621.04548,0.56290
619.11677,0.55611
617.18806,0.51813
615.25934,0.44766
613.33063,0.35716
611.40192,0.27227
609.47321,0.22119
607.54449,0.22158
605.61578,0.27269
603.68707,0.35575
601.75836,0.44427
599.82964,0.52181
