7496.90619,0.95013
7494.97747,0.94875
7493.04876,0.94122
7491.12005,0.93249
7489.19134,0.92970
7487.26262,0.93262
7485.33391,0.93386
7483.40520,0.93450
7481.47648,0.93305
7479.54777,0.92414
7477.61906,0.91777
7475.69035,0.92299
7473.76163,0.93169
7471.83292,0.93268
7469.90421,0.92809
7467.97550,0.92754
7466.04678,0.93329
7464.11807,0.94086
7462.18936,0.94390
7460.26065,0.93903
7458.33193,0.93270
7456.40322,0.93442
7454.47451,0.94013
7452.54579,0.93702
7450.61708,0.92892
7448.68837,0.93074
7446.75966,0.93888
7444.83094,0.93847
7442.90223,0.93190
7440.97352,0.93187
7439.04481,0.94015
7437.11609,0.94614
7435.18738,0.94287
7433.25867,0.93818
7431.32996,0.93702
7429.40124,0.93501
7427.47253,0.93387
7425.54382,0.93644
7423.61510,0.93793
7421.68639,0.93741
7419.75768,0.93908
7417.82897,0.94117
7415.90025,0.94343
7413.97154,0.94715
7412.04283,0.94674
7410.11412,0.93895
7408.18540,0.92790
7406.25669,0.92360
7404.32798,0.92901
7402.39927,0.93159
7400.47055,0.92649
7398.54184,0.92203
7396.61313,0.92397
7394.68441,0.92991
7392.75570,0.93259
7390.82699,0.93222
7388.89828,0.93481
7386.96956,0.93858
7385.04085,0.93969
7383.11214,0.94090
7381.18343,0.93988
7379.25471,0.92949
7377.32600,0.91640
7375.39729,0.91306
7373.46857,0.91861
7371.53986,0.92265
7369.61115,0.91927
7367.68244,0.91369
7365.75372,0.91480
7363.82501,0.92009
7361.89630,0.92411
7359.96759,0.92687
7358.03887,0.92762
7356.11016,0.92552
7354.18145,0.92185
7352.25274,0.91872
7350.32402,0.91910
7348.39531,0.92363
7346.46660,0.92909
7344.53788,0.93350
7342.60917,0.93396
7340.68046,0.92641
7338.75175,0.91790
7336.82303,0.91477
7334.89432,0.91226
7332.96561,0.90953
7331.03690,0.91107
7329.10818,0.91742
7327.17947,0.92157
7325.25076,0.92103
7323.32205,0.92209
7321.39333,0.92190
7319.46462,0.91678
7317.53591,0.91597
7315.60719,0.92563
7313.67848,0.93528
7311.74977,0.93250
7309.82106,0.92152
7307.89234,0.91437
7305.96363,0.91727
7304.03492,0.92747
7302.10621,0.93199
7300.17749,0.92720
7298.24878,0.92721
7296.32007,0.93555
7294.39136,0.94032
7292.46264,0.93841
7290.53393,0.93522
7288.60522,0.92863
7286.67650,0.91903
7284.74779,0.91529
7282.81908,0.91705
7280.89037,0.92210
7278.96165,0.93361
7277.03294,0.94470
7275.10423,0.94577
7273.17552,0.93915
7271.24680,0.93084
7269.31809,0.92283
7267.38938,0.91928
7265.46066,0.92340
7263.53195,0.92898
7261.60324,0.93138
7259.67453,0.93129
7257.74581,0.92805
7255.81710,0.92313
7253.88839,0.91742
7251.95968,0.91146
7250.03096,0.91027
7248.10225,0.91483
7246.17354,0.92100
7244.24483,0.92510
7242.31611,0.92271
7240.38740,0.91619
7238.45869,0.91596
7236.52997,0.92186
7234.60126,0.92465
7232.67255,0.92345
7230.74384,0.92392
7228.81512,0.92457
7226.88641,0.92280
7224.95770,0.92182
7223.02899,0.92644
7221.10027,0.93023
7219.17156,0.92451
7217.24285,0.91854
7215.31414,0.91608
7213.38542,0.91003
7211.45671,0.90728
7209.52800,0.91407
7207.59928,0.92309
7205.67057,0.92608
7203.74186,0.92156
7201.81315,0.91805
7199.88443,0.91979
7197.95572,0.91848
7196.02701,0.91015
7194.09830,0.90438
7192.16958,0.90733
7190.24087,0.91328
7188.31216,0.91899
7186.38344,0.92283
7184.45473,0.91853
7182.52602,0.90889
7180.59731,0.90391
7178.66859,0.90242
7176.73988,0.90172
7174.81117,0.90715
7172.88246,0.91614
7170.95374,0.91548
7169.02503,0.90571
7167.09632,0.90331
7165.16761,0.90925
7163.23889,0.91235
7161.31018,0.91074
7159.38147,0.90855
7157.45275,0.90915
7155.52404,0.91094
7153.59533,0.91096
7151.66662,0.91178
7149.73790,0.91551
7147.80919,0.91878
7145.88048,0.91936
7143.95177,0.91916
7142.02305,0.92006
7140.09434,0.91923
7138.16563,0.91396
7136.23692,0.91123
7134.30820,0.91591
7132.37949,0.92068
7130.45078,0.92000
7128.52206,0.91643
7126.59335,0.91393
7124.66464,0.91441
7122.73593,0.91559
7120.80721,0.91529
7118.87850,0.91422
7116.94979,0.91334
7115.02108,0.91459
7113.09236,0.91980
7111.16365,0.92653
7109.23494,0.92732
7107.30623,0.91873
7105.37751,0.91055
7103.44880,0.91298
7101.52009,0.92171
7099.59137,0.92677
7097.66266,0.92447
7095.73395,0.91916
7093.80524,0.91562
7091.87652,0.91287
7089.94781,0.91151
7088.01910,0.91509
7086.09039,0.92112
7084.16167,0.92338
7082.23296,0.92072
7080.30425,0.91580
7078.37553,0.91267
7076.44682,0.91575
7074.51811,0.92222
7072.58940,0.92279
7070.66068,0.91684
7068.73197,0.91338
7066.80326,0.91493
7064.87455,0.91649
7062.94583,0.91551
7061.01712,0.91334
7059.08841,0.91061
7057.15970,0.90841
7055.23098,0.91062
7053.30227,0.91670
7051.37356,0.92044
7049.44484,0.92154
7047.51613,0.92448
7045.58742,0.92649
7043.65871,0.92230
7041.72999,0.91721
7039.80128,0.91733
7037.87257,0.91837
7035.94386,0.91829
7034.01514,0.92071
7032.08643,0.92253
7030.15772,0.91948
7028.22901,0.91587
7026.30029,0.91514
7024.37158,0.91333
7022.44287,0.90989
7020.51415,0.91142
7018.58544,0.91919
7016.65673,0.92660
7014.72802,0.92874
7012.79930,0.92726
7010.87059,0.92583
7008.94188,0.92360
7007.01317,0.91963
7005.08445,0.91564
7003.15574,0.91194
7001.22703,0.91166
6999.29832,0.91648
6997.36960,0.92216
6995.44089,0.92671
6993.51218,0.92845
6991.58346,0.92640
6989.65475,0.92495
6987.72604,0.92630
6985.79733,0.92809
6983.86861,0.92706
6981.93990,0.92123
6980.01119,0.91501
6978.08248,0.91547
6976.15376,0.92116
6974.22505,0.92418
6972.29634,0.92119
6970.36762,0.91600
6968.43891,0.91254
6966.51020,0.91193
6964.58149,0.91445
6962.65277,0.91717
6960.72406,0.91695
6958.79535,0.91705
6956.86664,0.91995
6954.93792,0.92047
6953.00921,0.91623
6951.08050,0.91278
6949.15179,0.91304
6947.22307,0.91533
6945.29436,0.91641
6943.36565,0.91391
6941.43693,0.91221
6939.50822,0.91593
6937.57951,0.91987
6935.65080,0.91895
6933.72208,0.91701
6931.79337,0.91596
6929.86466,0.91475
6927.93595,0.91535
6926.00723,0.91614
6924.07852,0.91526
6922.14981,0.91623
6920.22110,0.91773
6918.29238,0.91496
6916.36367,0.91175
6914.43496,0.91380
6912.50624,0.91945
6910.57753,0.92297
6908.64882,0.91957
6906.72011,0.91520
6904.79139,0.91769
6902.86268,0.92083
6900.93397,0.91878
6899.00526,0.91661
6897.07654,0.91948
6895.14783,0.92479
6893.21912,0.92802
6891.29040,0.92916
6889.36169,0.92794
6887.43298,0.92489
6885.50427,0.92243
6883.57555,0.92149
6881.64684,0.92246
6879.71813,0.92336
6877.78942,0.92201
6875.86070,0.92097
6873.93199,0.92291
6872.00328,0.92413
6870.07457,0.92104
6868.14585,0.91780
6866.21714,0.91882
6864.28843,0.92240
6862.35971,0.92495
6860.43100,0.92649
6858.50229,0.92894
6856.57358,0.92991
6854.64486,0.92666
6852.71615,0.92354
6850.78744,0.92393
6848.85873,0.92449
6846.93001,0.92468
6845.00130,0.92746
6843.07259,0.93174
6841.14388,0.93319
6839.21516,0.93032
6837.28645,0.92716
6835.35774,0.92721
6833.42902,0.92776
6831.50031,0.92624
6829.57160,0.92663
6827.64289,0.92914
6825.71417,0.92756
6823.78546,0.92253
6821.85675,0.91942
6819.92804,0.92056
6817.99932,0.92548
6816.07061,0.93016
6814.14190,0.93130
6812.21319,0.92999
6810.28447,0.92837
6808.35576,0.92693
6806.42705,0.92463
6804.49833,0.92243
6802.56962,0.92309
6800.64091,0.92626
6798.71220,0.92899
6796.78348,0.92996
6794.85477,0.92914
6792.92606,0.92720
6790.99735,0.92597
6789.06863,0.92661
6787.13992,0.92877
6785.21121,0.93110
6783.28249,0.93245
6781.35378,0.93241
6779.42507,0.93006
6777.49636,0.92707
6775.56764,0.92741
6773.63893,0.93034
6771.71022,0.93224
6769.78151,0.93318
6767.85279,0.93544
6765.92408,0.93957
6763.99537,0.94138
6762.06666,0.93577
6760.13794,0.92607
6758.20923,0.92110
6756.28052,0.92212
6754.35180,0.92384
6752.42309,0.92604
6750.49438,0.93067
6748.56567,0.93417
6746.63695,0.93586
6744.70824,0.93904
6742.77953,0.93918
6740.85082,0.93162
6738.92210,0.92490
6736.99339,0.92705
6735.06468,0.93299
6733.13597,0.93502
6731.20725,0.93237
6729.27854,0.93067
6727.34983,0.93355
6725.42111,0.93560
6723.49240,0.93450
6721.56369,0.93449
6719.63498,0.93276
6717.70626,0.92787
6715.77755,0.92777
6713.84884,0.93334
6711.92013,0.93633
6709.99141,0.93423
6708.06270,0.93185
6706.13399,0.93242
6704.20528,0.93357
6702.27656,0.93323
6700.34785,0.93390
6698.41914,0.93614
6696.49042,0.93695
6694.56171,0.93445
6692.63300,0.93029
6690.70429,0.92796
6688.77557,0.92839
6686.84686,0.93075
6684.91815,0.93251
6682.98944,0.93188
6681.06072,0.93191
6679.13201,0.93260
6677.20330,0.93164
6675.27458,0.93254
6673.34587,0.93567
6671.41716,0.93410
6669.48845,0.92852
6667.55973,0.92740
6665.63102,0.93035
6663.70231,0.93234
6661.77360,0.93316
6659.84488,0.93054
6657.91617,0.92611
6655.98746,0.92945
6654.05875,0.93967
6652.13003,0.94551
6650.20132,0.94460
6648.27261,0.94207
6646.34389,0.93965
6644.41518,0.93678
6642.48647,0.93371
6640.55776,0.93215
6638.62904,0.93338
6636.70033,0.93600
6634.77162,0.93728
6632.84291,0.93576
6630.91419,0.93319
6628.98548,0.93193
6627.05677,0.93124
6625.12806,0.92962
6623.19934,0.92879
6621.27063,0.93039
6619.34192,0.93181
6617.41320,0.93220
6615.48449,0.93378
6613.55578,0.93505
6611.62707,0.93466
6609.69835,0.93582
6607.76964,0.93928
6605.84093,0.94039
6603.91222,0.93754
6601.98350,0.93335
6600.05479,0.92979
6598.12608,0.93035
6596.19736,0.93361
6594.26865,0.93336
6592.33994,0.93272
6590.41123,0.93715
6588.48251,0.94258
6586.55380,0.94239
6584.62509,0.93611
6582.69638,0.92858
6580.76766,0.92461
6578.83895,0.92556
6576.91024,0.92857
6574.98153,0.93044
6573.05281,0.93101
6571.12410,0.93085
6569.19539,0.93074
6567.26667,0.93132
6565.33796,0.93242
6563.40925,0.93494
6561.48054,0.93882
6559.55182,0.94102
6557.62311,0.94059
6555.69440,0.93796
6553.76569,0.93228
6551.83697,0.92757
6549.90826,0.92767
6547.97955,0.92871
6546.05084,0.92731
6544.12212,0.92603
6542.19341,0.92804
6540.26470,0.93258
6538.33598,0.93642
6536.40727,0.93749
6534.47856,0.93510
6532.54985,0.93073
6530.62113,0.92896
6528.69242,0.93060
6526.76371,0.93095
6524.83500,0.93037
6522.90628,0.93281
6520.97757,0.93608
6519.04886,0.93690
6517.12015,0.93670
6515.19143,0.93648
6513.26272,0.93569
6511.33401,0.93397
6509.40529,0.93047
6507.47658,0.92856
6505.54787,0.93123
6503.61916,0.93310
6501.69044,0.93161
6499.76173,0.93101
6497.83302,0.93233
6495.90431,0.93351
6493.97559,0.93410
6492.04688,0.93467
6490.11817,0.93486
6488.18945,0.93382
6486.26074,0.93144
6484.33203,0.92960
6482.40332,0.92949
6480.47460,0.92913
6478.54589,0.92827
6476.61718,0.92853
6474.68847,0.92915
6472.75975,0.92875
6470.83104,0.92790
6468.90233,0.92835
6466.97362,0.93126
6465.04490,0.93517
6463.11619,0.93690
6461.18748,0.93554
6459.25876,0.93368
6457.33005,0.93370
6455.40134,0.93400
6453.47263,0.93214
6451.54391,0.92990
6449.61520,0.93060
6447.68649,0.93359
6445.75778,0.93537
6443.82906,0.93485
6441.90035,0.93433
6439.97164,0.93556
6438.04293,0.93669
6436.11421,0.93542
6434.18550,0.93376
6432.25679,0.93355
6430.32807,0.93382
6428.39936,0.93477
6426.47065,0.93586
6424.54194,0.93578
6422.61322,0.93472
6420.68451,0.93239
6418.75580,0.92923
6416.82709,0.92789
6414.89837,0.92897
6412.96966,0.93024
6411.04095,0.93101
6409.11224,0.93210
6407.18352,0.93401
6405.25481,0.93741
6403.32610,0.94116
6401.39738,0.94104
6399.46867,0.93609
6397.53996,0.93228
6395.61125,0.93258
6393.68253,0.93390
6391.75382,0.93578
6389.82511,0.93790
6387.89640,0.93833
6385.96768,0.93809
6384.03897,0.93734
6382.11026,0.93554
6380.18154,0.93523
6378.25283,0.93695
6376.32412,0.93839
6374.39541,0.93879
6372.46669,0.93735
6370.53798,0.93304
6368.60927,0.92926
6366.68056,0.93038
6364.75184,0.93403
6362.82313,0.93499
6360.89442,0.93333
6358.96571,0.93157
6357.03699,0.93084
6355.10828,0.93237
6353.17957,0.93379
6351.25085,0.93098
6349.32214,0.92771
6347.39343,0.92826
6345.46472,0.92900
6343.53600,0.92856
6341.60729,0.93083
6339.67858,0.93505
6337.74987,0.93607
6335.82115,0.93396
6333.89244,0.93321
6331.96373,0.93398
6330.03502,0.93399
6328.10630,0.93330
6326.17759,0.93338
6324.24888,0.93541
6322.32016,0.93743
6320.39145,0.93604
6318.46274,0.93319
6316.53403,0.93347
6314.60531,0.93589
6312.67660,0.93726
6310.74789,0.93725
6308.81918,0.93555
6306.89046,0.93235
6304.96175,0.93030
6303.03304,0.93060
6301.10432,0.93133
6299.17561,0.93122
6297.24690,0.93049
6295.31819,0.92907
6293.38947,0.92816
6291.46076,0.92990
6289.53205,0.93360
6287.60334,0.93583
6285.67462,0.93528
6283.74591,0.93476
6281.81720,0.93596
6279.88849,0.93714
6277.95977,0.93662
6276.03106,0.93422
6274.10235,0.93132
6272.17363,0.93024
6270.24492,0.93210
6268.31621,0.93521
6266.38750,0.93624
6264.45878,0.93430
6262.53007,0.93147
6260.60136,0.92981
6258.67265,0.93161
6256.74393,0.93582
6254.81522,0.93716
6252.88651,0.93539
6250.95780,0.93361
6249.02908,0.93147
6247.10037,0.93049
6245.17166,0.93344
6243.24294,0.93760
6241.31423,0.93867
6239.38552,0.93727
6237.45681,0.93625
6235.52809,0.93595
6233.59938,0.93540
6231.67067,0.93476
6229.74196,0.93451
6227.81324,0.93424
6225.88453,0.93314
6223.95582,0.93172
6222.02711,0.93185
6220.09839,0.93261
6218.16968,0.93150
6216.24097,0.93045
6214.31225,0.93168
6212.38354,0.93286
6210.45483,0.93165
6208.52612,0.92874
6206.59740,0.92703
6204.66869,0.92780
6202.73998,0.92951
6200.81127,0.93158
6198.88255,0.93287
6196.95384,0.93155
6195.02513,0.92978
6193.09641,0.92986
6191.16770,0.93062
6189.23899,0.93190
6187.31028,0.93408
6185.38156,0.93626
6183.45285,0.93761
6181.52414,0.93654
6179.59543,0.93314
6177.66671,0.93021
6175.73800,0.92884
6173.80929,0.92935
6171.88058,0.93235
6169.95186,0.93532
6168.02315,0.93544
6166.09444,0.93349
6164.16572,0.93139
6162.23701,0.93026
6160.30830,0.93009
6158.37959,0.93041
6156.45087,0.93111
6154.52216,0.93135
6152.59345,0.93099
6150.66474,0.93049
6148.73602,0.92931
6146.80731,0.92784
6144.87860,0.92737
6142.94989,0.92853
6141.02117,0.93034
6139.09246,0.93075
6137.16375,0.92987
6135.23503,0.92956
6133.30632,0.92974
6131.37761,0.92801
6129.44890,0.92512
6127.52018,0.92625
6125.59147,0.93138
6123.66276,0.93395
6121.73405,0.93218
6119.80533,0.93003
6117.87662,0.92955
6115.94791,0.92942
6114.01919,0.92858
6112.09048,0.92821
6110.16177,0.92817
6108.23306,0.92777
6106.30434,0.92793
6104.37563,0.92730
6102.44692,0.92561
6100.51821,0.92537
6098.58949,0.92489
6096.66078,0.92286
6094.73207,0.92255
6092.80336,0.92459
6090.87464,0.92644
6088.94593,0.92724
6087.01722,0.92747
6085.08850,0.92733
6083.15979,0.92670
6081.23108,0.92541
6079.30237,0.92431
6077.37365,0.92477
6075.44494,0.92638
6073.51623,0.92717
6071.58752,0.92684
6069.65880,0.92628
6067.73009,0.92514
6065.80138,0.92402
6063.87267,0.92412
6061.94395,0.92494
6060.01524,0.92522
6058.08653,0.92390
6056.15781,0.92199
6054.22910,0.92113
6052.30039,0.92157
6050.37168,0.92273
6048.44296,0.92293
6046.51425,0.92219
6044.58554,0.92218
6042.65683,0.92194
6040.72811,0.92047
6038.79940,0.91977
6036.87069,0.92051
6034.94198,0.92165
6033.01326,0.92253
6031.08455,0.92106
6029.15584,0.91795
6027.22712,0.91688
6025.29841,0.91770
6023.36970,0.91868
6021.44099,0.91959
6019.51227,0.92016
6017.58356,0.91919
6015.65485,0.91694
6013.72614,0.91602
6011.79742,0.91662
6009.86871,0.91705
6007.94000,0.91787
6006.01128,0.91967
6004.08257,0.92097
6002.15386,0.91995
6000.22515,0.91657
5998.29643,0.91392
5996.36772,0.91531
5994.43901,0.91869
5992.51030,0.92049
5990.58158,0.92098
5988.65287,0.92129
5986.72416,0.92186
5984.79545,0.92225
5982.86673,0.92044
5980.93802,0.91705
5979.00931,0.91612
5977.08059,0.91836
5975.15188,0.91994
5973.22317,0.91873
5971.29446,0.91677
5969.36574,0.91606
5967.43703,0.91551
5965.50832,0.91446
5963.57961,0.91387
5961.65089,0.91316
5959.72218,0.91237
5957.79347,0.91286
5955.86476,0.91296
5953.93604,0.91135
5952.00733,0.91098
5950.07862,0.91213
5948.14990,0.91210
5946.22119,0.91110
5944.29248,0.91010
5942.36377,0.90967
5940.43505,0.90975
5938.50634,0.90897
5936.57763,0.90775
5934.64892,0.90700
5932.72020,0.90619
5930.79149,0.90519
5928.86278,0.90447
5926.93407,0.90513
5925.00535,0.90681
5923.07664,0.90700
5921.14793,0.90594
5919.21921,0.90603
5917.29050,0.90701
5915.36179,0.90770
5913.43308,0.90802
5911.50436,0.90771
5909.57565,0.90649
5907.64694,0.90518
5905.71823,0.90455
5903.78951,0.90454
5901.86080,0.90428
5899.93209,0.90271
5898.00337,0.90046
5896.07466,0.89886
5894.14595,0.89811
5892.21724,0.89842
5890.28852,0.89895
5888.35981,0.89831
5886.43110,0.89675
5884.50239,0.89416
5882.57367,0.88969
5880.64496,0.88575
5878.71625,0.88581
5876.78754,0.88748
5874.85882,0.88629
5872.93011,0.88265
5871.00140,0.87860
5869.07268,0.87500
5867.14397,0.87276
5865.21526,0.87122
5863.28655,0.86853
5861.35783,0.86464
5859.42912,0.86033
5857.50041,0.85639
5855.57170,0.85395
5853.64298,0.85265
5851.71427,0.85074
5849.78556,0.84783
5847.85685,0.84500
5845.92813,0.84239
5843.99942,0.83975
5842.07071,0.83717
5840.14199,0.83383
5838.21328,0.83017
5836.28457,0.82764
5834.35586,0.82531
5832.42714,0.82165
5830.49843,0.81737
5828.56972,0.81388
5826.64101,0.81137
5824.71229,0.81008
5822.78358,0.80991
5820.85487,0.80912
5818.92615,0.80658
5816.99744,0.80315
5815.06873,0.79950
5813.14002,0.79528
5811.21130,0.79142
5809.28259,0.78919
5807.35388,0.78705
5805.42517,0.78372
5803.49645,0.77997
5801.56774,0.77643
5799.63903,0.77370
5797.71032,0.77041
5795.78160,0.76491
5793.85289,0.75965
5791.92418,0.75550
5789.99546,0.74922
5788.06675,0.74139
5786.13804,0.73574
5784.20933,0.73194
5782.28061,0.72708
5780.35190,0.72097
5778.42319,0.71585
5776.49448,0.71323
5774.56576,0.71389
5772.63705,0.71835
5770.70834,0.72593
5768.77963,0.73573
5766.85091,0.74687
5764.92220,0.75808
5762.99349,0.76890
5761.06477,0.77873
5759.13606,0.78719
5757.20735,0.79540
5755.27864,0.80358
5753.34992,0.81066
5751.42121,0.81611
5749.49250,0.82079
5747.56379,0.82573
5745.63507,0.82988
5743.70636,0.83241
5741.77765,0.83468
5739.84894,0.83818
5737.92022,0.84208
5735.99151,0.84369
5734.06280,0.84336
5732.13408,0.84443
5730.20537,0.84726
5728.27666,0.84956
5726.34795,0.85049
5724.41923,0.85096
5722.49052,0.85180
5720.56181,0.85335
5718.63310,0.85493
5716.70438,0.85501
5714.77567,0.85321
5712.84696,0.85097
5710.91824,0.84903
5708.98953,0.84712
5707.06082,0.84610
5705.13211,0.84596
5703.20339,0.84498
5701.27468,0.84287
5699.34597,0.84093
5697.41726,0.84075
5695.48854,0.84141
5693.55983,0.83994
5691.63112,0.83611
5689.70241,0.83221
5687.77369,0.82949
5685.84498,0.82753
5683.91627,0.82630
5681.98755,0.82581
5680.05884,0.82478
5678.13013,0.82288
5676.20142,0.82074
5674.27270,0.81852
5672.34399,0.81655
5670.41528,0.81475
5668.48657,0.81243
5666.55785,0.80965
5664.62914,0.80784
5662.70043,0.80840
5660.77172,0.81114
5658.84300,0.81524
5656.91429,0.82036
5654.98558,0.82575
5653.05686,0.83073
5651.12815,0.83602
5649.19944,0.84107
5647.27073,0.84427
5645.34201,0.84686
5643.41330,0.85002
5641.48459,0.85252
5639.55588,0.85341
5637.62716,0.85353
5635.69845,0.85499
5633.76974,0.85772
5631.84103,0.85959
5629.91231,0.86081
5627.98360,0.86212
5626.05489,0.86295
5624.12617,0.86334
5622.19746,0.86372
5620.26875,0.86446
5618.34004,0.86535
5616.41132,0.86594
5614.48261,0.86679
5612.55390,0.86828
5610.62519,0.86991
5608.69647,0.87162
5606.76776,0.87286
5604.83905,0.87297
5602.91033,0.87257
5600.98162,0.87199
5599.05291,0.87162
5597.12420,0.87257
5595.19548,0.87416
5593.26677,0.87480
5591.33806,0.87433
5589.40935,0.87319
5587.48063,0.87158
5585.55192,0.87018
5583.62321,0.87067
5581.69450,0.87307
5579.76578,0.87392
5577.83707,0.87213
5575.90836,0.87049
5573.97964,0.87000
5572.05093,0.87008
5570.12222,0.87049
5568.19351,0.87024
5566.26479,0.86916
5564.33608,0.86848
5562.40737,0.86887
5560.47866,0.86976
5558.54994,0.87043
5556.62123,0.87025
5554.69252,0.86859
5552.76381,0.86713
5550.83509,0.86782
5548.90638,0.86988
5546.97767,0.87143
5545.04895,0.87103
5543.12024,0.86962
5541.19153,0.86953
5539.26282,0.87022
5537.33410,0.86981
5535.40539,0.86898
5533.47668,0.86933
5531.54797,0.87069
5529.61925,0.87249
5527.69054,0.87391
5525.76183,0.87369
5523.83311,0.87264
5521.90440,0.87202
5519.97569,0.87156
5518.04698,0.87103
5516.11826,0.87059
5514.18955,0.87007
5512.26084,0.86923
5510.33213,0.86852
5508.40341,0.86874
5506.47470,0.86944
5504.54599,0.86926
5502.61728,0.86812
5500.68856,0.86756
5498.75985,0.86853
5496.83114,0.86905
5494.90242,0.86705
5492.97371,0.86492
5491.04500,0.86614
5489.11629,0.86953
5487.18757,0.87270
5485.25886,0.87520
5483.33015,0.87661
5481.40144,0.87661
5479.47272,0.87531
5477.54401,0.87222
5475.61530,0.86934
5473.68659,0.87048
5471.75787,0.87298
5469.82916,0.87290
5467.90045,0.87200
5465.97173,0.87269
5464.04302,0.87320
5462.11431,0.87253
5460.18560,0.87322
5458.25688,0.87517
5456.32817,0.87646
5454.39946,0.87785
5452.47075,0.87884
5450.54203,0.87811
5448.61332,0.87644
5446.68461,0.87461
5444.75590,0.87303
5442.82718,0.87233
5440.89847,0.87325
5438.96976,0.87579
5437.04104,0.87727
5435.11233,0.87663
5433.18362,0.87570
5431.25491,0.87439
5429.32619,0.87305
5427.39748,0.87470
5425.46877,0.87845
5423.54006,0.88101
5421.61134,0.88215
5419.68263,0.88320
5417.75392,0.88342
5415.82520,0.88071
5413.89649,0.87609
5411.96778,0.87402
5410.03907,0.87727
5408.11035,0.88350
5406.18164,0.88759
5404.25293,0.88817
5402.32422,0.88788
5400.39550,0.88748
5398.46679,0.88556
5396.53808,0.88235
5394.60937,0.88054
5392.68065,0.88261
5390.75194,0.88624
5388.82323,0.88697
5386.89451,0.88487
5384.96580,0.88456
5383.03709,0.88736
5381.10838,0.88892
5379.17966,0.88682
5377.25095,0.88350
5375.32224,0.88289
5373.39353,0.88546
5371.46481,0.88924
5369.53610,0.89199
5367.60739,0.89215
5365.67868,0.89050
5363.74996,0.88995
5361.82125,0.89194
5359.89254,0.89431
5357.96382,0.89489
5356.03511,0.89218
5354.10640,0.88723
5352.17769,0.88583
5350.24897,0.88826
5348.32026,0.88907
5346.39155,0.88695
5344.46284,0.88603
5342.53412,0.88838
5340.60541,0.88809
5338.67670,0.88403
5336.74799,0.88396
5334.81927,0.88867
5332.89056,0.89223
5330.96185,0.89292
5329.03313,0.89157
5327.10442,0.89073
5325.17571,0.89272
5323.24700,0.89631
5321.31828,0.89918
5319.38957,0.89949
5317.46086,0.89734
5315.53215,0.89553
5313.60343,0.89609
5311.67472,0.89708
5309.74601,0.89551
5307.81729,0.89283
5305.88858,0.89278
5303.95987,0.89489
5302.03116,0.89680
5300.10244,0.89823
5298.17373,0.89939
5296.24502,0.89939
5294.31631,0.89768
5292.38759,0.89454
5290.45888,0.89204
5288.53017,0.89236
5286.60146,0.89331
5284.67274,0.89308
5282.74403,0.89348
5280.81532,0.89518
5278.88660,0.89703
5276.95789,0.89845
5275.02918,0.89894
5273.10047,0.89836
5271.17175,0.89747
5269.24304,0.89628
5267.31433,0.89431
5265.38562,0.89197
5263.45690,0.89091
5261.52819,0.89318
5259.59948,0.89694
5257.67077,0.89739
5255.74205,0.89436
5253.81334,0.89365
5251.88463,0.89533
5249.95591,0.89388
5248.02720,0.89020
5246.09849,0.88896
5244.16978,0.89107
5242.24106,0.89487
5240.31235,0.89771
5238.38364,0.89871
5236.45493,0.89893
5234.52621,0.89839
5232.59750,0.89688
5230.66879,0.89578
5228.74007,0.89512
5226.81136,0.89354
5224.88265,0.89306
5222.95394,0.89528
5221.02522,0.89695
5219.09651,0.89675
5217.16780,0.89646
5215.23909,0.89731
5213.31037,0.89892
5211.38166,0.89908
5209.45295,0.89605
5207.52424,0.89237
5205.59552,0.89294
5203.66681,0.89688
5201.73810,0.89923
5199.80938,0.89852
5197.88067,0.89727
5195.95196,0.89803
5194.02325,0.89983
5192.09453,0.90024
5190.16582,0.89910
5188.23711,0.89733
5186.30840,0.89527
5184.37968,0.89456
5182.45097,0.89628
5180.52226,0.89836
5178.59355,0.89887
5176.66483,0.89814
5174.73612,0.89766
5172.80741,0.89783
5170.87869,0.89825
5168.94998,0.89831
5167.02127,0.89696
5165.09256,0.89504
5163.16384,0.89485
5161.23513,0.89596
5159.30642,0.89585
5157.37771,0.89462
5155.44899,0.89476
5153.52028,0.89619
5151.59157,0.89692
5149.66286,0.89737
5147.73414,0.89871
5145.80543,0.89980
5143.87672,0.89968
5141.94800,0.89957
5140.01929,0.89983
5138.09058,0.89999
5136.16187,0.90043
5134.23315,0.90123
5132.30444,0.90157
5130.37573,0.90117
5128.44702,0.90071
5126.51830,0.90077
5124.58959,0.90097
5122.66088,0.90080
5120.73216,0.90060
5118.80345,0.90097
5116.87474,0.90170
5114.94603,0.90187
5113.01731,0.90126
5111.08860,0.90079
5109.15989,0.90079
5107.23118,0.90069
5105.30246,0.90043
5103.37375,0.90012
5101.44504,0.89967
5099.51633,0.89954
5097.58761,0.90017
5095.65890,0.90122
5093.73019,0.90194
5091.80147,0.90189
5089.87276,0.90133
5087.94405,0.90118
5086.01534,0.90211
5084.08662,0.90345
5082.15791,0.90394
5080.22920,0.90349
5078.30049,0.90326
5076.37177,0.90374
5074.44306,0.90445
5072.51435,0.90517
5070.58564,0.90532
5068.65692,0.90424
5066.72821,0.90266
5064.79950,0.90219
5062.87078,0.90305
5060.94207,0.90392
5059.01336,0.90397
5057.08465,0.90373
5055.15593,0.90400
5053.22722,0.90437
5051.29851,0.90410
5049.36980,0.90402
5047.44108,0.90493
5045.51237,0.90563
5043.58366,0.90501
5041.65495,0.90436
5039.72623,0.90499
5037.79752,0.90575
5035.86881,0.90524
5033.94009,0.90409
5032.01138,0.90330
5030.08267,0.90314
5028.15396,0.90351
5026.22524,0.90405
5024.29653,0.90433
5022.36782,0.90413
5020.43911,0.90389
5018.51039,0.90427
5016.58168,0.90510
5014.65297,0.90545
5012.72425,0.90466
5010.79554,0.90349
5008.86683,0.90294
5006.93812,0.90294
5005.00940,0.90324
5003.08069,0.90356
5001.15198,0.90316
4999.22327,0.90223
4997.29455,0.90193
4995.36584,0.90217
4993.43713,0.90209
4991.50842,0.90174
4989.57970,0.90110
4987.65099,0.90023
4985.72228,0.89972
4983.79356,0.89983
4981.86485,0.90037
4979.93614,0.90085
4978.00743,0.90127
4976.07871,0.90167
4974.15000,0.90161
4972.22129,0.90123
4970.29258,0.90058
4968.36386,0.89949
4966.43515,0.89914
4964.50644,0.89977
4962.57773,0.89976
4960.64901,0.89899
4958.72030,0.89885
4956.79159,0.89975
4954.86287,0.90104
4952.93416,0.90191
4951.00545,0.90237
4949.07674,0.90294
4947.14802,0.90370
4945.21931,0.90414
4943.29060,0.90367
4941.36189,0.90288
4939.43317,0.90294
4937.50446,0.90384
4935.57575,0.90453
4933.64703,0.90438
4931.71832,0.90411
4929.78961,0.90443
4927.86090,0.90498
4925.93218,0.90544
4924.00347,0.90560
4922.07476,0.90509
4920.14605,0.90450
4918.21733,0.90485
4916.28862,0.90572
4914.35991,0.90598
4912.43120,0.90566
4910.50248,0.90536
4908.57377,0.90509
4906.64506,0.90473
4904.71634,0.90463
4902.78763,0.90478
4900.85892,0.90461
4898.93021,0.90447
4897.00149,0.90502
4895.07278,0.90567
4893.14407,0.90597
4891.21536,0.90578
4889.28664,0.90485
4887.35793,0.90402
4885.42922,0.90402
4883.50051,0.90409
4881.57179,0.90391
4879.64308,0.90407
4877.71437,0.90453
4875.78565,0.90484
4873.85694,0.90505
4871.92823,0.90543
4869.99952,0.90589
4868.07080,0.90584
4866.14209,0.90531
4864.21338,0.90505
4862.28467,0.90498
4860.35595,0.90480
4858.42724,0.90480
4856.49853,0.90509
4854.56982,0.90554
4852.64110,0.90590
4850.71239,0.90571
4848.78368,0.90533
4846.85496,0.90574
4844.92625,0.90670
4842.99754,0.90711
4841.06883,0.90683
4839.14011,0.90639
4837.21140,0.90602
4835.28269,0.90588
4833.35398,0.90616
4831.42526,0.90666
4829.49655,0.90700
4827.56784,0.90727
4825.63912,0.90746
4823.71041,0.90725
4821.78170,0.90663
4819.85299,0.90620
4817.92427,0.90641
4815.99556,0.90712
4814.06685,0.90797
4812.13814,0.90854
4810.20942,0.90842
4808.28071,0.90802
4806.35200,0.90810
4804.42329,0.90859
4802.49457,0.90905
4800.56586,0.90933
4798.63715,0.90944
4796.70843,0.90956
4794.77972,0.90968
4792.85101,0.90961
4790.92230,0.90923
4788.99358,0.90850
4787.06487,0.90772
4785.13616,0.90729
4783.20745,0.90733
4781.27873,0.90776
4779.35002,0.90838
4777.42131,0.90892
4775.49260,0.90927
4773.56388,0.90929
4771.63517,0.90878
4769.70646,0.90823
4767.77774,0.90811
4765.84903,0.90790
4763.92032,0.90729
4761.99161,0.90690
4760.06289,0.90722
4758.13418,0.90811
4756.20547,0.90876
4754.27676,0.90877
4752.34804,0.90856
4750.41933,0.90812
4748.49062,0.90775
4746.56191,0.90843
4744.63319,0.90973
4742.70448,0.91006
4740.77577,0.90926
4738.84705,0.90843
4736.91834,0.90794
4734.98963,0.90787
4733.06092,0.90832
4731.13220,0.90844
4729.20349,0.90767
4727.27478,0.90691
4725.34607,0.90710
4723.41735,0.90786
4721.48864,0.90836
4719.55993,0.90834
4717.63121,0.90790
4715.70250,0.90766
4713.77379,0.90798
4711.84508,0.90835
4709.91636,0.90850
4707.98765,0.90840
4706.05894,0.90801
4704.13023,0.90770
4702.20151,0.90721
4700.27280,0.90626
4698.34409,0.90562
4696.41538,0.90539
4694.48666,0.90481
4692.55795,0.90404
4690.62924,0.90349
4688.70052,0.90308
4686.77181,0.90255
4684.84310,0.90161
4682.91439,0.90026
4680.98567,0.89882
4679.05696,0.89771
4677.12825,0.89725
4675.19954,0.89724
4673.27082,0.89751
4671.34211,0.89801
4669.41340,0.89849
4667.48469,0.89918
4665.55597,0.90014
4663.62726,0.90099
4661.69855,0.90189
4659.76983,0.90301
4657.84112,0.90405
4655.91241,0.90473
4653.98370,0.90497
4652.05498,0.90497
4650.12627,0.90520
4648.19756,0.90603
4646.26885,0.90701
4644.34013,0.90755
4642.41142,0.90772
4640.48271,0.90767
4638.55399,0.90753
4636.62528,0.90761
4634.69657,0.90802
4632.76786,0.90847
4630.83914,0.90837
4628.91043,0.90770
4626.98172,0.90755
4625.05301,0.90818
4623.12429,0.90881
4621.19558,0.90904
4619.26687,0.90885
4617.33816,0.90871
4615.40944,0.90894
4613.48073,0.90915
4611.55202,0.90919
4609.62330,0.90911
4607.69459,0.90912
4605.76588,0.90950
4603.83717,0.90973
4601.90845,0.90911
4599.97974,0.90829
4598.05103,0.90809
4596.12232,0.90811
4594.19360,0.90793
4592.26489,0.90787
4590.33618,0.90815
4588.40747,0.90844
4586.47875,0.90846
4584.55004,0.90858
4582.62133,0.90885
4580.69261,0.90873
4578.76390,0.90814
4576.83519,0.90761
4574.90648,0.90713
4572.97776,0.90637
4571.04905,0.90601
4569.12034,0.90655
4567.19163,0.90730
4565.26291,0.90782
4563.33420,0.90800
4561.40549,0.90760
4559.47678,0.90689
4557.54806,0.90646
4555.61935,0.90640
4553.69064,0.90642
4551.76192,0.90631
4549.83321,0.90592
4547.90450,0.90541
4545.97579,0.90532
4544.04707,0.90560
4542.11836,0.90548
4540.18965,0.90460
4538.26094,0.90348
4536.33222,0.90267
4534.40351,0.90199
4532.47480,0.90109
4530.54608,0.90028
4528.61737,0.89996
4526.68866,0.89986
4524.75995,0.89959
4522.83123,0.89912
4520.90252,0.89864
4518.97381,0.89829
4517.04510,0.89761
4515.11638,0.89637
4513.18767,0.89542
4511.25896,0.89519
4509.33025,0.89520
4507.40153,0.89481
4505.47282,0.89382
4503.54411,0.89279
4501.61539,0.89204
4499.68668,0.89109
4497.75797,0.88982
4495.82926,0.88859
4493.90054,0.88721
4491.97183,0.88546
4490.04312,0.88394
4488.11441,0.88309
4486.18569,0.88255
4484.25698,0.88189
4482.32827,0.88102
4480.39956,0.87997
4478.47084,0.87892
4476.54213,0.87791
4474.61342,0.87652
4472.68470,0.87474
4470.75599,0.87308
4468.82728,0.87153
4466.89857,0.86971
4464.96985,0.86749
4463.04114,0.86508
4461.11243,0.86290
4459.18372,0.86099
4457.25500,0.85901
4455.32629,0.85674
4453.39758,0.85416
4451.46886,0.85138
4449.54015,0.84853
4447.61144,0.84542
4445.68273,0.84179
4443.75401,0.83785
4441.82530,0.83431
4439.89659,0.83157
4437.96788,0.82903
4436.03916,0.82612
4434.11045,0.82307
4432.18174,0.82008
4430.25303,0.81712
4428.32431,0.81461
4426.39560,0.81293
4424.46689,0.81153
4422.53817,0.80989
4420.60946,0.80777
4418.68075,0.80479
4416.75204,0.80122
4414.82332,0.79774
4412.89461,0.79429
4410.96590,0.79047
4409.03719,0.78645
4407.10847,0.78247
4405.17976,0.77805
4403.25105,0.77306
4401.32234,0.76813
4399.39362,0.76316
4397.46491,0.75769
4395.53620,0.75192
4393.60748,0.74607
4391.67877,0.73996
4389.75006,0.73355
4387.82135,0.72712
4385.89263,0.72088
4383.96392,0.71448
4382.03521,0.70770
4380.10650,0.70061
4378.17778,0.69309
4376.24907,0.68530
4374.32036,0.67735
4372.39165,0.66906
4370.46293,0.66071
4368.53422,0.65265
4366.60551,0.64429
4364.67679,0.63503
4362.74808,0.62506
4360.81937,0.61408
4358.89066,0.60133
4356.96194,0.58697
4355.03323,0.57102
4353.10452,0.55293
4351.17581,0.53286
4349.24709,0.51153
4347.31838,0.48916
4345.38967,0.46631
4343.46095,0.44469
4341.53224,0.42566
4339.60353,0.40899
4337.67482,0.39375
4335.74610,0.37914
4333.81739,0.36398
4331.88868,0.34687
4329.95997,0.32692
4328.03125,0.30387
4326.10254,0.27972
4324.17383,0.26156
4322.24512,0.26041
4320.31640,0.28433
4318.38769,0.33069
4316.45898,0.38732
4314.53026,0.44173
4312.60155,0.48747
4310.67284,0.52316
4308.74413,0.54978
4306.81541,0.56965
4304.88670,0.58468
4302.95799,0.59545
4301.02928,0.60248
4299.10056,0.60681
4297.17185,0.60901
4295.24314,0.60884
4293.31443,0.60661
4291.38571,0.60342
4289.45700,0.59970
4287.52829,0.59531
4285.59957,0.59054
4283.67086,0.58570
4281.74215,0.58065
4279.81344,0.57521
4277.88472,0.56908
4275.95601,0.56164
4274.02730,0.55236
4272.09859,0.54110
4270.16987,0.52812
4268.24116,0.51334
4266.31245,0.49615
4264.38374,0.47638
4262.45502,0.45455
4260.52631,0.43138
4258.59760,0.40792
4256.66888,0.38566
4254.74017,0.36743
4252.81146,0.35809
4250.88275,0.36306
4248.95403,0.38440
4247.02532,0.41741
4245.09661,0.45278
4243.16790,0.48279
4241.23918,0.50488
4239.31047,0.51983
4237.38176,0.52868
4235.45304,0.53242
4233.52433,0.53241
4231.59562,0.52941
4229.66691,0.52387
4227.73819,0.51676
4225.80948,0.50962
4223.88077,0.50360
4221.95206,0.49916
4220.02334,0.49697
4218.09463,0.49721
4216.16592,0.49904
4214.23721,0.50148
4212.30849,0.50352
4210.37978,0.50406
4208.45107,0.50229
4206.52235,0.49818
4204.59364,0.49260
4202.66493,0.48578
4200.73622,0.47737
4198.80750,0.46829
4196.87879,0.46035
4194.95008,0.45471
4193.02137,0.45166
4191.09265,0.45053
4189.16394,0.45024
4187.23523,0.45054
4185.30652,0.45163
4183.37780,0.45299
4181.44909,0.45406
4179.52038,0.45507
4177.59166,0.45651
4175.66295,0.45808
4173.73424,0.45934
4171.80553,0.46059
4169.87681,0.46207
4167.94810,0.46362
4166.01939,0.46521
4164.09068,0.46681
4162.16196,0.46817
4160.23325,0.46929
4158.30454,0.47033
4156.37582,0.47131
4154.44711,0.47229
4152.51840,0.47337
4150.58969,0.47478
4148.66097,0.47660
4146.73226,0.47828
4144.80355,0.47969
4142.87484,0.48132
4140.94612,0.48316
4139.01741,0.48506
4137.08870,0.48706
4135.15999,0.48891
4133.23127,0.49062
4131.30256,0.49235
4129.37385,0.49396
4127.44513,0.49540
4125.51642,0.49665
4123.58771,0.49753
4121.65900,0.49805
4119.73028,0.49863
4117.80157,0.49950
4115.87286,0.50013
4113.94415,0.50046
4112.01543,0.50094
4110.08672,0.50128
4108.15801,0.50097
4106.22930,0.50062
4104.30058,0.50085
4102.37187,0.50119
4100.44316,0.50160
4098.51444,0.50275
4096.58573,0.50522
4094.65702,0.50939
4092.72831,0.51522
4090.79959,0.52236
4088.87088,0.53058
4086.94217,0.53922
4085.01346,0.54732
4083.08474,0.55454
4081.15603,0.56104
4079.22732,0.56693
4077.29861,0.57205
4075.36989,0.57632
4073.44118,0.58016
4071.51247,0.58391
4069.58375,0.58725
4067.65504,0.59001
4065.72633,0.59258
4063.79762,0.59517
4061.86890,0.59777
4059.94019,0.60055
4058.01148,0.60332
4056.08277,0.60558
4054.15405,0.60729
4052.22534,0.60915
4050.29663,0.61162
4048.36791,0.61420
4046.43920,0.61641
4044.51049,0.61859
4042.58178,0.62103
4040.65306,0.62352
4038.72435,0.62591
4036.79564,0.62824
4034.86693,0.63019
4032.93821,0.63136
4031.00950,0.63200
4029.08079,0.63265
4027.15208,0.63307
4025.22336,0.63334
4023.29465,0.63451
4021.36594,0.63739
4019.43722,0.64259
4017.50851,0.65006
4015.57980,0.65845
4013.65109,0.66653
4011.72237,0.67356
4009.79366,0.67881
4007.86495,0.68241
4005.93624,0.68514
4004.00752,0.68713
4002.07881,0.68836
4000.15010,0.68925
3998.22139,0.68963
3996.29267,0.68912
3994.36396,0.68829
3992.43525,0.68788
3990.50653,0.68773
3988.57782,0.68758
3986.64911,0.68710
3984.72040,0.68598
3982.79168,0.68461
3980.86297,0.68360
3978.93426,0.68303
3977.00555,0.68239
3975.07683,0.68209
3973.14812,0.68327
3971.21941,0.68572
3969.29070,0.68852
3967.36198,0.69139
3965.43327,0.69386
3963.50456,0.69546
3961.57584,0.69681
3959.64713,0.69841
3957.71842,0.69980
3955.78971,0.70075
3953.86099,0.70098
3951.93228,0.69999
3950.00357,0.69841
3948.07486,0.69822
3946.14614,0.69922
3944.21743,0.69955
3942.28872,0.70010
3940.36000,0.70167
3938.43129,0.70254
3936.50258,0.70161
3934.57387,0.69827
3932.64515,0.69322
3930.71644,0.69008
3928.78773,0.69010
3926.85902,0.68989
3924.93030,0.68862
3923.00159,0.68863
3921.07288,0.68885
3919.14417,0.68747
3917.21545,0.68679
3915.28674,0.68883
3913.35803,0.69182
3911.42931,0.69427
3909.50060,0.69526
3907.57189,0.69295
3905.64318,0.68723
3903.71446,0.68253
3901.78575,0.68299
3899.85704,0.68687
3897.92833,0.69200
3895.99961,0.69516
3894.07090,0.69396
3892.14219,0.69147
3890.21348,0.69317
3888.28476,0.69546
3886.35605,0.69431
3884.42734,0.69251
3882.49862,0.69233
3880.56991,0.69417
3878.64120,0.69826
3876.71249,0.69970
3874.78377,0.69701
3872.85506,0.69359
3870.92635,0.69263
3868.99764,0.69607
3867.06892,0.70001
3865.14021,0.70120
3863.21150,0.70432
3861.28278,0.71045
3859.35407,0.71342
3857.42536,0.71091
3855.49665,0.70379
3853.56793,0.69710
3851.63922,0.70325
3849.71051,0.71380
3847.78180,0.71997
3845.85308,0.72072
3843.92437,0.71713
3841.99566,0.71136
3840.06695,0.70535
3838.13823,0.70338
3836.20952,0.70770
3834.28081,0.71269
3832.35209,0.71640
3830.42338,0.71932
3828.49467,0.72026
3826.56596,0.71932
3824.63724,0.71714
3822.70853,0.71226
3820.77982,0.70783
3818.85111,0.70936
3816.92239,0.71297
3814.99368,0.71918
3813.06497,0.72647
3811.13626,0.73022
3809.20754,0.72943
3807.27883,0.72704
3805.35012,0.72680
3803.42140,0.72600
3801.49269,0.72586
3799.56398,0.73096
3797.63527,0.73736
3795.70655,0.74447
3793.77784,0.75119
3791.84913,0.75489
3789.92042,0.75605
3787.99170,0.75513
3786.06299,0.75310
3784.13428,0.75325
3782.20557,0.75468
3780.27685,0.75476
3778.34814,0.75671
3776.41943,0.76107
3774.49071,0.76308
3772.56200,0.76089
3770.63329,0.75674
3768.70458,0.75553
3766.77586,0.75785
3764.84715,0.76125
3762.91844,0.76337
3760.98973,0.76168
3759.06101,0.75830
3757.13230,0.75756
3755.20359,0.75626
3753.27487,0.74940
3751.34616,0.73924
3749.41745,0.73846
3747.48874,0.74385
3745.56002,0.74749
3743.63131,0.75150
3741.70260,0.75489
3739.77389,0.75476
3737.84517,0.75031
3735.91646,0.74421
3733.98775,0.74524
3732.05904,0.75362
3730.13032,0.76033
3728.20161,0.76155
3726.27290,0.75892
3724.34418,0.75697
3722.41547,0.75820
3720.48676,0.76191
3718.55805,0.76580
3716.62933,0.76691
3714.70062,0.76274
3712.77191,0.75288
3710.84320,0.74615
3708.91448,0.75101
3706.98577,0.75734
3705.05706,0.75875
3703.12835,0.75616
3701.19963,0.75397
3699.27092,0.75402
3697.34221,0.75288
3695.41349,0.74913
3693.48478,0.74250
3691.55607,0.73205
3689.62736,0.72367
3687.69864,0.72791
3685.76993,0.73627
3683.84122,0.74059
3681.91251,0.74006
3679.98379,0.73486
3678.05508,0.72625
3676.12637,0.71823
3674.19766,0.71829
3672.26894,0.71970
3670.34023,0.71829
3668.41152,0.72217
3666.48280,0.72875
3664.55409,0.73146
3662.62538,0.73021
3660.69667,0.72640
3658.76795,0.72083
3656.83924,0.71424
3654.91053,0.70888
3652.98182,0.70287
3651.05310,0.69041
3649.12439,0.67564
3647.19568,0.67765
3645.26696,0.68728
3643.33825,0.69397
3641.40954,0.69882
3639.48083,0.70392
3637.55211,0.70895
3635.62340,0.71236
3633.69469,0.71347
3631.76598,0.71164
3629.83726,0.70714
3627.90855,0.70781
3625.97984,0.71455
3624.05113,0.71773
3622.12241,0.71450
3620.19370,0.70610
3618.26499,0.69878
3616.33627,0.69480
3614.40756,0.68909
3612.47885,0.68158
3610.55014,0.67373
3608.62142,0.66506
3606.69271,0.65992
3604.76400,0.66028
3602.83529,0.66337
3600.90657,0.67148
3598.97786,0.68718
3597.04915,0.70637
3595.12044,0.72596
3593.19172,0.74411
3591.26301,0.75597
3589.33430,0.76034
3587.40558,0.76426
3585.47687,0.77412
3583.54816,0.78345
3581.61945,0.78859
3579.69073,0.79128
3577.76202,0.79343
3575.83331,0.79561
3573.90460,0.79767
3571.97588,0.79836
3570.04717,0.79498
3568.11846,0.78748
3566.18974,0.78493
3564.26103,0.79141
3562.33232,0.79831
3560.40361,0.80309
3558.47489,0.80704
3556.54618,0.80962
3554.61747,0.80970
3552.68876,0.80911
3550.76004,0.80979
3548.83133,0.80939
3546.90262,0.80698
3544.97391,0.80688
3543.04519,0.81085
3541.11648,0.81500
3539.18777,0.81678
3537.25905,0.81702
3535.33034,0.81788
3533.40163,0.81885
3531.47292,0.81758
3529.54420,0.81438
3527.61549,0.81250
3525.68678,0.81307
3523.75807,0.81472
3521.82935,0.81726
3519.90064,0.81987
3517.97193,0.82159
3516.04322,0.82250
3514.11450,0.82216
3512.18579,0.82014
3510.25708,0.81775
3508.32836,0.81698
3506.39965,0.81644
3504.47094,0.81408
3502.54223,0.81255
3500.61351,0.81416
3498.68480,0.81600
3496.75609,0.81607
3494.82738,0.81545
3492.89866,0.81458
3490.96995,0.81249
3489.04124,0.80897
3487.11253,0.80531
3485.18381,0.80169
3483.25510,0.79668
3481.32639,0.79099
3479.39767,0.78551
3477.46896,0.77813
3475.54025,0.76750
3473.61154,0.75460
3471.68282,0.74031
3469.75411,0.72452
3467.82540,0.70762
3465.89669,0.69100
3463.96797,0.67602
3462.03926,0.66428
3460.11055,0.65711
3458.18183,0.65393
3456.25312,0.65428
3454.32441,0.65815
3452.39570,0.66463
3450.46698,0.67251
3448.53827,0.68165
3446.60956,0.69323
3444.68085,0.70661
3442.75213,0.71976
3440.82342,0.73226
3438.89471,0.74397
3436.96600,0.75459
3435.03728,0.76398
3433.10857,0.77191
3431.17986,0.77820
3429.25114,0.78297
3427.32243,0.78674
3425.39372,0.78976
3423.46501,0.79178
3421.53629,0.79325
3419.60758,0.79551
3417.67887,0.79879
3415.75016,0.80183
3413.82144,0.80399
3411.89273,0.80560
3409.96402,0.80648
3408.03531,0.80639
3406.10659,0.80579
3404.17788,0.80526
3402.24917,0.80522
3400.32045,0.80538
3398.39174,0.80514
3396.46303,0.80453
3394.53432,0.80361
3392.60560,0.80271
3390.67689,0.80217
3388.74818,0.80128
3386.81947,0.79960
3384.89075,0.79801
3382.96204,0.79715
3381.03333,0.79642
3379.10462,0.79536
3377.17590,0.79447
3375.24719,0.79418
3373.31848,0.79430
3371.38976,0.79438
3369.46105,0.79445
3367.53234,0.79489
3365.60363,0.79575
3363.67491,0.79665
3361.74620,0.79742
3359.81749,0.79844
3357.88878,0.80016
3355.96006,0.80271
3354.03135,0.80562
3352.10264,0.80793
3350.17392,0.80914
3348.24521,0.80977
3346.31650,0.81041
3344.38779,0.81078
3342.45907,0.81076
3340.53036,0.81112
3338.60165,0.81207
3336.67294,0.81312
3334.74422,0.81411
3332.81551,0.81497
3330.88680,0.81536
3328.95809,0.81530
3327.02937,0.81518
3325.10066,0.81551
3323.17195,0.81605
3321.24323,0.81634
3319.31452,0.81663
3317.38581,0.81701
3315.45710,0.81732
3313.52838,0.81765
3311.59967,0.81792
3309.67096,0.81827
3307.74225,0.81890
3305.81353,0.81922
3303.88482,0.81890
3301.95611,0.81840
3300.02740,0.81782
3298.09868,0.81711
3296.16997,0.81670
3294.24126,0.81693
3292.31254,0.81737
3290.38383,0.81741
3288.45512,0.81714
3286.52641,0.81700
3284.59769,0.81695
3282.66898,0.81664
3280.74027,0.81609
3278.81156,0.81549
3276.88284,0.81486
3274.95413,0.81460
3273.02542,0.81483
3271.09670,0.81499
3269.16799,0.81479
3267.23928,0.81416
3265.31057,0.81335
3263.38185,0.81282
3261.45314,0.81241
3259.52443,0.81183
3257.59572,0.81112
3255.66700,0.81077
3253.73829,0.81126
3251.80958,0.81165
3249.88087,0.81060
3247.95215,0.80848
3246.02344,0.80669
3244.09473,0.80574
3242.16601,0.80491
3240.23730,0.80385
3238.30859,0.80335
3236.37988,0.80374
3234.45116,0.80393
3232.52245,0.80291
3230.59374,0.80090
3228.66503,0.79862
3226.73631,0.79671
3224.80760,0.79544
3222.87889,0.79440
3220.95018,0.79314
3219.02146,0.79181
3217.09275,0.79046
3215.16404,0.78881
3213.23532,0.78704
3211.30661,0.78504
3209.37790,0.78256
3207.44919,0.78022
3205.52047,0.77841
3203.59176,0.77705
3201.66305,0.77550
3199.73434,0.77313
3197.80562,0.77092
3195.87691,0.76979
3193.94820,0.76877
3192.01949,0.76679
3190.09077,0.76418
3188.16206,0.76159
3186.23335,0.75930
3184.30463,0.75754
3182.37592,0.75622
3180.44721,0.75493
3178.51850,0.75356
3176.58978,0.75237
3174.66107,0.75086
3172.73236,0.74855
3170.80365,0.74614
3168.87493,0.74410
3166.94622,0.74224
3165.01751,0.74044
3163.08879,0.73888
3161.16008,0.73761
3159.23137,0.73603
3157.30266,0.73394
3155.37394,0.73166
3153.44523,0.72936
3151.51652,0.72694
3149.58781,0.72450
3147.65909,0.72250
3145.73038,0.72083
3143.80167,0.71895
3141.87296,0.71698
3139.94424,0.71497
3138.01553,0.71238
3136.08682,0.70894
3134.15810,0.70497
3132.22939,0.70108
3130.30068,0.69746
3128.37197,0.69359
3126.44325,0.68927
3124.51454,0.68463
3122.58583,0.67960
3120.65712,0.67423
3118.72840,0.66873
3116.79969,0.66336
3114.87098,0.65765
3112.94227,0.65104
3111.01355,0.64380
3109.08484,0.63627
3107.15613,0.62837
3105.22741,0.61976
3103.29870,0.60978
3101.36999,0.59800
3099.44128,0.58495
3097.51256,0.57134
3095.58385,0.55753
3093.65514,0.54388
3091.72643,0.53049
3089.79771,0.51773
3087.86900,0.50648
3085.94029,0.49690
3084.01158,0.48839
3082.08286,0.48054
3080.15415,0.47338
3078.22544,0.46676
3076.29672,0.46023
3074.36801,0.45367
3072.43930,0.44705
3070.51059,0.44000
3068.58187,0.43233
3066.65316,0.42430
3064.72445,0.41612
3062.79574,0.40797
3060.86702,0.40000
3058.93831,0.39181
3057.00960,0.38292
3055.08088,0.37355
3053.15217,0.36410
3051.22346,0.35432
3049.29475,0.34401
3047.36603,0.33345
3045.43732,0.32286
3043.50861,0.31204
3041.57990,0.30061
3039.65118,0.28867
3037.72247,0.27671
3035.79376,0.26499
3033.86505,0.25350
3031.93633,0.24239
3030.00762,0.23187
3028.07891,0.22186
3026.15019,0.21204
3024.22148,0.20253
3022.29277,0.19381
3020.36406,0.18592
3018.43534,0.17849
3016.50663,0.17154
3014.57792,0.16541
3012.64921,0.15991
3010.72049,0.15442
3008.79178,0.14857
3006.86307,0.14214
3004.93436,0.13494
3003.00564,0.12697
3001.07693,0.11834
2999.14822,0.10924
2997.21950,0.09985
2995.29079,0.09032
2993.36208,0.08056
2991.43337,0.07060
2989.50465,0.06070
2987.57594,0.05101
2985.64723,0.04184
2983.71852,0.03351
2981.78980,0.02596
2979.86109,0.01920
2977.93238,0.01351
2976.00366,0.00891
2974.07495,0.00531
2972.14624,0.00291
2970.21753,0.00165
2968.28881,0.00106
2966.36010,0.00059
2964.43139,0.00035
2962.50268,0.00069
2960.57396,0.00057
2958.64525,0.00046
2956.71654,0.00045
2954.78783,0.00046
2952.85911,0.00040
2950.93040,0.00057
2949.00169,0.00051
2947.07297,0.00040
2945.14426,0.00040
2943.21555,0.00038
2941.28684,0.00033
2939.35812,0.00030
2937.42941,0.00026
2935.50070,0.00048
2933.57199,0.00050
2931.64327,0.00070
2929.71456,0.00089
2927.78585,0.00085
2925.85714,0.00062
2923.92842,0.00052
2921.99971,0.00043
2920.07100,0.00029
2918.14228,0.00039
2916.21357,0.00066
2914.28486,0.00057
2912.35615,0.00051
2910.42743,0.00041
2908.49872,0.00029
2906.57001,0.00023
2904.64130,0.00054
2902.71258,0.00073
2900.78387,0.00068
2898.85516,0.00054
2896.92645,0.00049
2894.99773,0.00054
2893.06902,0.00069
2891.14031,0.00075
2889.21159,0.00074
2887.28288,0.00069
2885.35417,0.00063
2883.42546,0.00056
2881.49674,0.00043
2879.56803,0.00031
2877.63932,0.00039
2875.71061,0.00063
2873.78189,0.00071
2871.85318,0.00056
2869.92447,0.00032
2867.99575,0.00012
2866.06704,0.00016
2864.13833,0.00033
2862.20962,0.00058
2860.28090,0.00073
2858.35219,0.00063
2856.42348,0.00048
2854.49477,0.00056
2852.56605,0.00064
2850.63734,0.00051
2848.70863,0.00038
2846.77992,0.00038
2844.85120,0.00028
2842.92249,0.00022
2840.99378,0.00012
2839.06506,0.00010
2837.13635,0.00023
2835.20764,0.00036
2833.27893,0.00056
2831.35021,0.00093
2829.42150,0.00152
2827.49279,0.00245
2825.56408,0.00387
2823.63536,0.00594
2821.70665,0.00875
2819.77794,0.01210
2817.84923,0.01574
2815.92051,0.01978
2813.99180,0.02445
2812.06309,0.02973
2810.13437,0.03556
2808.20566,0.04190
2806.27695,0.04865
2804.34824,0.05580
2802.41952,0.06341
2800.49081,0.07147
2798.56210,0.08002
2796.63339,0.08924
2794.70467,0.09914
2792.77596,0.10958
2790.84725,0.12047
2788.91854,0.13178
2786.98982,0.14341
2785.06111,0.15533
2783.13240,0.16744
2781.20368,0.17925
2779.27497,0.19061
2777.34626,0.20153
2775.41755,0.21161
2773.48883,0.22052
2771.56012,0.22823
2769.63141,0.23497
2767.70270,0.24095
2765.77398,0.24625
2763.84527,0.25108
2761.91656,0.25567
2759.98784,0.25994
2758.05913,0.26371
2756.13042,0.26711
2754.20171,0.27036
2752.27299,0.27331
2750.34428,0.27549
2748.41557,0.27667
2746.48686,0.27715
2744.55814,0.27722
2742.62943,0.27713
2740.70072,0.27737
2738.77201,0.27834
2736.84329,0.28015
2734.91458,0.28275
2732.98587,0.28594
2731.05715,0.28956
2729.12844,0.29370
2727.19973,0.29842
2725.27102,0.30349
2723.34230,0.30855
2721.41359,0.31343
2719.48488,0.31819
2717.55617,0.32289
2715.62745,0.32737
2713.69874,0.33146
2711.77003,0.33532
2709.84132,0.33911
2707.91260,0.34258
2705.98389,0.34544
2704.05518,0.34760
2702.12646,0.34899
2700.19775,0.34949
2698.26904,0.34884
2696.34033,0.34673
2694.41161,0.34302
2692.48290,0.33816
2690.55419,0.33288
2688.62548,0.32771
2686.69676,0.32312
2684.76805,0.31938
2682.83934,0.31636
2680.91062,0.31374
2678.98191,0.31153
2677.05320,0.30994
2675.12449,0.30897
2673.19577,0.30839
2671.26706,0.30827
2669.33835,0.30891
2667.40964,0.31052
2665.48092,0.31295
2663.55221,0.31574
2661.62350,0.31866
2659.69479,0.32178
2657.76607,0.32506
2655.83736,0.32826
2653.90865,0.33133
2651.97993,0.33435
2650.05122,0.33726
2648.12251,0.33985
2646.19380,0.34177
2644.26508,0.34279
2642.33637,0.34318
2640.40766,0.34344
2638.47895,0.34391
2636.55023,0.34508
2634.62152,0.34781
2632.69281,0.35262
2630.76410,0.35929
2628.83538,0.36731
2626.90667,0.37608
2624.97796,0.38500
2623.04924,0.39361
2621.12053,0.40186
2619.19182,0.40984
2617.26311,0.41759
2615.33439,0.42524
2613.40568,0.43294
2611.47697,0.44072
2609.54826,0.44853
2607.61954,0.45625
2605.69083,0.46367
2603.76212,0.47063
2601.83341,0.47722
2599.90469,0.48339
2597.97598,0.48925
2596.04727,0.49535
2594.11855,0.50218
2592.18984,0.50982
2590.26113,0.51802
2588.33242,0.52635
2586.40370,0.53467
2584.47499,0.54305
2582.54628,0.55122
2580.61757,0.55881
2578.68885,0.56575
2576.76014,0.57232
2574.83143,0.57894
2572.90271,0.58565
2570.97400,0.59229
2569.04529,0.59883
2567.11658,0.60507
2565.18786,0.61068
2563.25915,0.61551
2561.33044,0.61953
2559.40173,0.62270
2557.47301,0.62522
2555.54430,0.62755
2553.61559,0.62991
2551.68688,0.63253
2549.75816,0.63599
2547.82945,0.64071
2545.90074,0.64651
2543.97202,0.65254
2542.04331,0.65752
2540.11460,0.66028
2538.18589,0.66060
2536.25717,0.65927
2534.32846,0.65725
2532.39975,0.65537
2530.47104,0.65462
2528.54232,0.65577
2526.61361,0.65892
2524.68490,0.66366
2522.75619,0.66936
2520.82747,0.67528
2518.89876,0.68074
2516.97005,0.68538
2515.04133,0.68945
2513.11262,0.69328
2511.18391,0.69669
2509.25520,0.69951
2507.32648,0.70182
2505.39777,0.70341
2503.46906,0.70393
2501.54035,0.70346
2499.61163,0.70253
2497.68292,0.70163
2495.75421,0.70098
2493.82549,0.70046
2491.89678,0.69986
2489.96807,0.69922
2488.03936,0.69850
2486.11064,0.69739
2484.18193,0.69570
2482.25322,0.69353
2480.32451,0.69124
2478.39579,0.68932
2476.46708,0.68824
2474.53837,0.68890
2472.60966,0.69248
2470.68094,0.69877
2468.75223,0.70598
2466.82352,0.71249
2464.89480,0.71785
2462.96609,0.72229
2461.03738,0.72613
2459.10867,0.72977
2457.17995,0.73369
2455.25124,0.73798
2453.32253,0.74235
2451.39382,0.74655
2449.46510,0.75024
2447.53639,0.75308
2445.60768,0.75516
2443.67897,0.75649
2441.75025,0.75688
2439.82154,0.75655
2437.89283,0.75603
2435.96411,0.75586
2434.03540,0.75625
2432.10669,0.75678
2430.17798,0.75667
2428.24926,0.75553
2426.32055,0.75328
2424.39184,0.74984
2422.46313,0.74555
2420.53441,0.74118
2418.60570,0.73767
2416.67699,0.73586
2414.74828,0.73595
2412.81956,0.73753
2410.89085,0.73978
2408.96214,0.74173
2407.03342,0.74291
2405.10471,0.74331
2403.17600,0.74305
2401.24729,0.74241
2399.31857,0.74187
2397.38986,0.74183
2395.46115,0.74236
2393.53244,0.74335
2391.60372,0.74451
2389.67501,0.74551
2387.74630,0.74603
2385.81758,0.74558
2383.88887,0.74357
2381.96016,0.73978
2380.03145,0.73450
2378.10273,0.72832
2376.17402,0.72209
2374.24531,0.71655
2372.31660,0.71164
2370.38788,0.70648
2368.45917,0.70060
2366.53046,0.69425
2364.60175,0.68763
2362.67303,0.68092
2360.74432,0.67454
2358.81561,0.66898
2356.88689,0.66497
2354.95818,0.66319
2353.02947,0.66372
2351.10076,0.66538
2349.17204,0.66464
2347.24333,0.65850
2345.31462,0.64862
2343.38591,0.64057
2341.45719,0.63613
2339.52848,0.63343
2337.59977,0.63189
2335.67106,0.63121
2333.74234,0.63072
2331.81363,0.63064
2329.88492,0.63183
2327.95620,0.63428
2326.02749,0.63699
2324.09878,0.63965
2322.17007,0.64315
2320.24135,0.64803
2318.31264,0.65358
2316.38393,0.65900
2314.45522,0.66403
2312.52650,0.66880
2310.59779,0.67373
2308.66908,0.67898
2306.74037,0.68400
2304.81165,0.68847
2302.88294,0.69248
2300.95423,0.69616
2299.02551,0.69980
2297.09680,0.70364
2295.16809,0.70774
2293.23938,0.71213
2291.31066,0.71664
2289.38195,0.72074
2287.45324,0.72402
2285.52453,0.72641
2283.59581,0.72783
2281.66710,0.72830
2279.73839,0.72828
2277.80967,0.72840
2275.88096,0.72936
2273.95225,0.73174
2272.02354,0.73549
2270.09482,0.73978
2268.16611,0.74364
2266.23740,0.74635
2264.30869,0.74774
2262.37997,0.74814
2260.45126,0.74818
2258.52255,0.74824
2256.59384,0.74865
2254.66512,0.74981
2252.73641,0.75178
2250.80770,0.75422
2248.87898,0.75674
2246.95027,0.75912
2245.02156,0.76151
2243.09285,0.76415
2241.16413,0.76736
2239.23542,0.77133
2237.30671,0.77601
2235.37800,0.78108
2233.44928,0.78591
2231.52057,0.79002
2229.59186,0.79308
2227.66315,0.79482
2225.73443,0.79520
2223.80572,0.79457
2221.87701,0.79342
2219.94829,0.79235
2218.01958,0.79182
2216.09087,0.79188
2214.16216,0.79233
2212.23344,0.79282
2210.30473,0.79319
2208.37602,0.79326
2206.44731,0.79251
2204.51859,0.79045
2202.58988,0.78722
2200.66117,0.78341
2198.73245,0.77976
2196.80374,0.77665
2194.87503,0.77395
2192.94632,0.77153
2191.01760,0.76953
2189.08889,0.76768
2187.16018,0.76550
2185.23147,0.76281
2183.30275,0.75981
2181.37404,0.75680
2179.44533,0.75402
2177.51662,0.75155
2175.58790,0.74961
2173.65919,0.74841
2171.73048,0.74773
2169.80176,0.74713
2167.87305,0.74632
2165.94434,0.74517
2164.01563,0.74355
2162.08691,0.74154
2160.15820,0.73952
2158.22949,0.73782
2156.30078,0.73667
2154.37206,0.73635
2152.44335,0.73726
2150.51464,0.73951
2148.58593,0.74273
2146.65721,0.74654
2144.72850,0.75058
2142.79979,0.75458
2140.87107,0.75849
2138.94236,0.76220
2137.01365,0.76560
2135.08494,0.76910
2133.15622,0.77324
2131.22751,0.77786
2129.29880,0.78221
2127.37009,0.78573
2125.44137,0.78838
2123.51266,0.79016
2121.58395,0.79098
2119.65524,0.79105
2117.72652,0.79071
2115.79781,0.79058
2113.86910,0.79134
2111.94038,0.79295
2110.01167,0.79479
2108.08296,0.79639
2106.15425,0.79740
2104.22553,0.79762
2102.29682,0.79716
2100.36811,0.79605
2098.43940,0.79445
2096.51068,0.79299
2094.58197,0.79225
2092.65326,0.79220
2090.72454,0.79260
2088.79583,0.79339
2086.86712,0.79418
2084.93841,0.79435
2083.00969,0.79363
2081.08098,0.79197
2079.15227,0.78962
2077.22356,0.78711
2075.29484,0.78505
2073.36613,0.78387
2071.43742,0.78354
2069.50871,0.78333
2067.57999,0.78242
2065.65128,0.78084
2063.72257,0.77915
2061.79385,0.77700
2059.86514,0.77381
2057.93643,0.76991
2056.00772,0.76598
2054.07900,0.76256
2052.15029,0.75998
2050.22158,0.75801
2048.29287,0.75608
2046.36415,0.75366
2044.43544,0.75024
2042.50673,0.74572
2040.57802,0.74067
2038.64930,0.73568
2036.72059,0.73095
2034.79188,0.72661
2032.86316,0.72267
2030.93445,0.71895
2029.00574,0.71511
2027.07703,0.71063
2025.14831,0.70531
2023.21960,0.69956
2021.29089,0.69422
2019.36218,0.69076
2017.43346,0.69205
2015.50475,0.70043
2013.57604,0.71407
2011.64733,0.72911
2009.71861,0.74293
2007.78990,0.75434
2005.86119,0.76333
2003.93247,0.77008
2002.00376,0.77474
2000.07505,0.77783
1998.14634,0.78020
1996.21762,0.78204
1994.28891,0.78305
1992.36020,0.78476
1990.43149,0.78883
1988.50277,0.79388
1986.57406,0.79814
1984.64535,0.80090
1982.71663,0.80183
1980.78792,0.80125
1978.85921,0.79982
1976.93050,0.79809
1975.00178,0.79655
1973.07307,0.79554
1971.14436,0.79476
1969.21565,0.79333
1967.28693,0.79196
1965.35822,0.79216
1963.42951,0.79242
1961.50080,0.79103
1959.57208,0.78850
1957.64337,0.78550
1955.71466,0.78276
1953.78594,0.78150
1951.85723,0.78178
1949.92852,0.78229
1947.99981,0.78215
1946.07109,0.78103
1944.14238,0.77904
1942.21367,0.77804
1940.28496,0.77898
1938.35624,0.77947
1936.42753,0.77828
1934.49882,0.77673
1932.57011,0.77592
1930.64139,0.77585
1928.71268,0.77591
1926.78397,0.77481
1924.85525,0.77134
1922.92654,0.76682
1920.99783,0.76335
1919.06912,0.75960
1917.14040,0.75592
1915.21169,0.75397
1913.28298,0.75144
1911.35427,0.74703
1909.42555,0.74263
1907.49684,0.73994
1905.56813,0.73738
1903.63941,0.73286
1901.71070,0.72655
1899.78199,0.71953
1897.85328,0.71271
1895.92456,0.70760
1893.99585,0.70628
1892.06714,0.70772
1890.13843,0.71078
1888.20971,0.71618
1886.28100,0.72102
1884.35229,0.72282
1882.42358,0.72215
1880.49486,0.71972
1878.56615,0.71595
1876.63744,0.71177
1874.70872,0.70770
1872.78001,0.70273
1870.85130,0.69552
1868.92259,0.68875
1866.99387,0.68913
1865.06516,0.69370
1863.13645,0.69625
1861.20774,0.69626
1859.27902,0.69573
1857.35031,0.69621
1855.42160,0.69744
1853.49289,0.69879
1851.56417,0.69959
1849.63546,0.69876
1847.70675,0.69570
1845.77803,0.69092
1843.84932,0.68749
1841.92061,0.68709
1839.99190,0.68550
1838.06318,0.68073
1836.13447,0.67526
1834.20576,0.67014
1832.27705,0.66277
1830.34833,0.65279
1828.41962,0.64486
1826.49091,0.63922
1824.56220,0.63232
1822.63348,0.62575
1820.70477,0.61961
1818.77606,0.61245
1816.84734,0.60540
1814.91863,0.59883
1812.98992,0.59149
1811.06121,0.58336
1809.13249,0.57667
1807.20378,0.57066
1805.27507,0.56254
1803.34636,0.55128
1801.41764,0.53773
1799.48893,0.52539
1797.56022,0.51508
1795.63150,0.50438
1793.70279,0.49085
1791.77408,0.47499
1789.84537,0.46266
1787.91665,0.45213
1785.98794,0.43846
1784.05923,0.42204
1782.13052,0.40528
1780.20180,0.38778
1778.27309,0.37032
1776.34438,0.35267
1774.41567,0.33059
1772.48695,0.29914
1770.55824,0.26421
1768.62953,0.23157
1766.70081,0.19657
1764.77210,0.16263
1762.84339,0.12879
1760.91468,0.09594
1758.98596,0.07177
1757.05725,0.05078
1755.12854,0.03171
1753.19983,0.01811
1751.27111,0.00862
1749.34240,0.00273
1747.41369,0.00076
1745.48498,0.00062
1743.55626,0.00059
1741.62755,0.00059
1739.69884,0.00033
1737.77012,0.00052
1735.84141,0.00105
1733.91270,0.00137
1731.98399,0.00108
1730.05527,0.00054
1728.12656,0.00071
1726.19785,0.00180
1724.26914,0.00565
1722.34042,0.01284
1720.41171,0.02307
1718.48300,0.04154
1716.55429,0.07403
1714.62557,0.10660
1712.69686,0.13159
1710.76815,0.15316
1708.83943,0.17165
1706.91072,0.18743
1704.98201,0.19952
1703.05330,0.20533
1701.12458,0.20631
1699.19587,0.20698
1697.26716,0.21707
1695.33845,0.24094
1693.40973,0.26756
1691.48102,0.29228
1689.55231,0.32132
1687.62359,0.34899
1685.69488,0.37375
1683.76617,0.40999
1681.83746,0.44201
1679.90874,0.46057
1677.98003,0.47390
1676.05132,0.48483
1674.12261,0.49471
1672.19389,0.50153
1670.26518,0.50776
1668.33647,0.51848
1666.40776,0.52694
1664.47904,0.52910
1662.55033,0.52839
1660.62162,0.52890
1658.69290,0.52863
1656.76419,0.52457
1654.83548,0.51458
1652.90677,0.49720
1650.97805,0.48637
1649.04934,0.47925
1647.12063,0.47935
1645.19192,0.50275
1643.26320,0.53172
1641.33449,0.55499
1639.40578,0.57084
1637.47707,0.58068
1635.54835,0.59661
1633.61964,0.61675
1631.69093,0.62832
1629.76221,0.63389
1627.83350,0.63709
1625.90479,0.63895
1623.97608,0.63972
1622.04736,0.64243
1620.11865,0.64501
1618.18994,0.64436
1616.26123,0.64592
1614.33251,0.65309
1612.40380,0.65848
1610.47509,0.65996
1608.54637,0.66001
1606.61766,0.66051
1604.68895,0.66028
1602.76024,0.65874
1600.83152,0.65752
1598.90281,0.65677
1596.97410,0.65533
1595.04539,0.65412
1593.11667,0.65413
1591.18796,0.65431
1589.25925,0.65358
1587.33054,0.65212
1585.40182,0.65005
1583.47311,0.64733
1581.54440,0.64383
1579.61568,0.63822
1577.68697,0.62963
1575.75826,0.62304
1573.82955,0.62297
1571.90083,0.62088
1569.97212,0.61390
1568.04341,0.60834
1566.11470,0.60515
1564.18598,0.60078
1562.25727,0.59511
1560.32856,0.58579
1558.39985,0.57576
1556.47113,0.57895
1554.54242,0.58450
1552.61371,0.58729
1550.68499,0.58700
1548.75628,0.58491
1546.82757,0.58031
1544.89886,0.57027
1542.97014,0.55633
1541.04143,0.54642
1539.11272,0.54918
1537.18401,0.55454
1535.25529,0.55366
1533.32658,0.54918
1531.39787,0.54628
1529.46916,0.54255
1527.54044,0.53435
1525.61173,0.52390
1523.68302,0.51478
1521.75430,0.50648
1519.82559,0.50144
1517.89688,0.49766
1515.96817,0.49392
1514.03945,0.49078
1512.11074,0.48446
1510.18203,0.47357
1508.25332,0.45799
1506.32460,0.44384
1504.39589,0.44019
1502.46718,0.43559
1500.53846,0.42538
1498.60975,0.40923
1496.68104,0.39060
1494.75233,0.37554
1492.82361,0.36179
1490.89490,0.34021
1488.96619,0.30800
1487.03748,0.27657
1485.10876,0.24672
1483.18005,0.21071
1481.25134,0.16346
1479.32263,0.11156
1477.39391,0.06407
1475.46520,0.02615
1473.53649,0.00533
1471.60777,0.00040
1469.67906,0.00026
1467.75035,0.00023
1465.82164,0.00043
1463.89292,0.00049
1461.96421,0.00044
1460.03550,0.00022
1458.10679,0.00013
1456.17807,0.00081
1454.24936,0.00180
1452.32065,0.00314
1450.39194,0.00480
1448.46322,0.00674
1446.53451,0.00849
1444.60580,0.00958
1442.67708,0.01035
1440.74837,0.01104
1438.81966,0.01195
1436.89095,0.01400
1434.96223,0.01787
1433.03352,0.02335
1431.10481,0.03265
1429.17610,0.04791
1427.24738,0.06613
1425.31867,0.08729
1423.38996,0.11239
1421.46125,0.13683
1419.53253,0.16365
1417.60382,0.19444
1415.67511,0.21815
1413.74639,0.23627
1411.81768,0.25291
1409.88897,0.26759
1407.96026,0.27802
1406.03154,0.28374
1404.10283,0.28566
1402.17412,0.28370
1400.24541,0.27607
1398.31669,0.26150
1396.38798,0.24080
1394.45927,0.21322
1392.53055,0.18312
1390.60184,0.15324
1388.67313,0.11783
1386.74442,0.07717
1384.81570,0.04459
1382.88699,0.02403
1380.95828,0.01128
1379.02957,0.00455
1377.10085,0.00187
1375.17214,0.00101
1373.24343,0.00055
1371.31472,0.00026
1369.38600,0.00028
1367.45729,0.00048
1365.52858,0.00110
1363.59986,0.00246
1361.67115,0.00521
1359.74244,0.00903
1357.81373,0.01351
1355.88501,0.01908
1353.95630,0.02687
1352.02759,0.03873
1350.09888,0.05739
1348.17016,0.08477
1346.24145,0.11902
1344.31274,0.15496
1342.38403,0.18833
1340.45531,0.22102
1338.52660,0.25518
1336.59789,0.28528
1334.66917,0.30708
1332.74046,0.32028
1330.81175,0.32549
1328.88304,0.32442
1326.95432,0.31861
1325.02561,0.30910
1323.09690,0.29646
1321.16819,0.28092
1319.23947,0.26311
1317.31076,0.24479
1315.38205,0.22711
1313.45333,0.20973
1311.52462,0.19361
1309.59591,0.18011
1307.66720,0.16907
1305.73848,0.15996
1303.80977,0.15232
1301.88106,0.14581
1299.95235,0.14032
1298.02363,0.13569
1296.09492,0.13141
1294.16621,0.12687
1292.23750,0.12140
1290.30878,0.11460
1288.38007,0.10648
1286.45136,0.09727
1284.52264,0.08727
1282.59393,0.07660
1280.66522,0.06543
1278.73651,0.05421
1276.80779,0.04332
1274.87908,0.03307
1272.95037,0.02376
1271.02166,0.01576
1269.09294,0.00941
1267.16423,0.00499
1265.23552,0.00241
1263.30681,0.00122
1261.37809,0.00067
1259.44938,0.00027
1257.52067,0.00004
1255.59195,0.00015
1253.66324,0.00046
1251.73453,0.00051
1249.80582,0.00039
1247.87710,0.00039
1245.94839,0.00047
1244.01968,0.00043
1242.09097,0.00040
1240.16225,-0.00002
1238.23354,0.00026
1236.30483,0.00071
1234.37612,0.00086
1232.44740,0.00066
1230.51869,0.00036
1228.58998,0.00020
1226.66126,0.00019
1224.73255,0.00027
1222.80384,0.00079
1220.87513,0.00195
1218.94641,0.00390
1217.01770,0.00695
1215.08899,0.01139
1213.16028,0.01765
1211.23156,0.02604
1209.30285,0.03645
1207.37414,0.04855
1205.44542,0.06197
1203.51671,0.07607
1201.58800,0.09023
1199.65929,0.10419
1197.73057,0.11768
1195.80186,0.13050
1193.87315,0.14271
1191.94444,0.15436
1190.01572,0.16516
1188.08701,0.17480
1186.15830,0.18333
1184.22959,0.19086
1182.30087,0.19720
1180.37216,0.20240
1178.44345,0.20723
1176.51473,0.21224
1174.58602,0.21690
1172.65731,0.22045
1170.72860,0.22268
1168.79988,0.22346
1166.87117,0.22256
1164.94246,0.21983
1163.01375,0.21520
1161.08503,0.20874
1159.15632,0.20053
1157.22761,0.19049
1155.29890,0.17881
1153.37018,0.16635
1151.44147,0.15450
1149.51276,0.14483
1147.58404,0.13852
1145.65533,0.13555
1143.72662,0.13469
1141.79791,0.13437
1139.86919,0.13345
1137.94048,0.13146
1136.01177,0.12858
1134.08306,0.12525
1132.15434,0.12203
1130.22563,0.11962
1128.29692,0.11883
1126.36821,0.12021
1124.43949,0.12337
1122.51078,0.12741
1120.58207,0.13185
1118.65335,0.13656
1116.72464,0.14136
1114.79593,0.14595
1112.86722,0.15012
1110.93850,0.15402
1109.00979,0.15755
1107.08108,0.16021
1105.15237,0.16171
1103.22365,0.16208
1101.29494,0.16144
1099.36623,0.15961
1097.43751,0.15644
1095.50880,0.15244
1093.58009,0.14807
1091.65138,0.14310
1089.72266,0.13743
1087.79395,0.13161
1085.86524,0.12589
1083.93653,0.12023
1082.00781,0.11474
1080.07910,0.10939
1078.15039,0.10429
1076.22168,0.09961
1074.29296,0.09505
1072.36425,0.09036
1070.43554,0.08587
1068.50682,0.08220
1066.57811,0.07961
1064.64940,0.07770
1062.72069,0.07583
1060.79197,0.07367
1058.86326,0.07079
1056.93455,0.06649
1055.00584,0.06045
1053.07712,0.05309
1051.14841,0.04543
1049.21970,0.03849
1047.29099,0.03292
1045.36227,0.02908
1043.43356,0.02697
1041.50485,0.02602
1039.57613,0.02489
1037.64742,0.02243
1035.71871,0.01852
1033.79000,0.01396
1031.86128,0.00961
1029.93257,0.00594
1028.00386,0.00328
1026.07515,0.00165
1024.14643,0.00084
1022.21772,0.00050
1020.28901,0.00030
1018.36029,0.00058
1016.43158,0.00170
1014.50287,0.00430
1012.57416,0.00996
1010.64544,0.02048
1008.71673,0.03664
1006.78802,0.05802
1004.85931,0.08304
1002.93059,0.10925
1001.00188,0.13452
999.07317,0.15747
997.14446,0.17729
995.21574,0.19364
993.28703,0.20693
991.35832,0.21786
989.42960,0.22646
987.50089,0.23250
985.57218,0.23587
983.64347,0.23646
981.71475,0.23441
979.78604,0.23000
977.85733,0.22331
975.92862,0.21476
973.99990,0.20505
972.07119,0.19445
970.14248,0.18314
968.21377,0.17168
966.28505,0.16103
964.35634,0.15218
962.42763,0.14584
960.49891,0.14243
958.57020,0.14182
956.64149,0.14359
954.71278,0.14728
952.78406,0.15249
950.85535,0.15893
948.92664,0.16616
946.99793,0.17326
945.06921,0.17867
943.14050,0.18094
941.21179,0.18021
939.28308,0.17887
937.35436,0.18075
935.42565,0.18990
933.49694,0.20930
931.56822,0.23944
929.63951,0.27747
927.71080,0.31818
925.78209,0.35589
923.85337,0.38673
921.92466,0.40977
919.99595,0.42620
918.06724,0.43780
916.13852,0.44624
914.20981,0.45284
912.28110,0.45836
910.35238,0.46344
908.42367,0.46887
906.49496,0.47490
904.56625,0.48039
902.63753,0.48366
900.70882,0.48413
898.78011,0.48272
896.85140,0.48086
894.92268,0.47980
892.99397,0.48032
891.06526,0.48259
889.13655,0.48644
887.20783,0.49154
885.27912,0.49676
883.35041,0.50058
881.42169,0.50230
879.49298,0.50215
877.56427,0.50090
875.63556,0.49922
873.70684,0.49742
871.77813,0.49612
869.84942,0.49620
867.92071,0.49855
865.99199,0.50341
864.06328,0.50963
862.13457,0.51538
860.20586,0.51946
858.27714,0.52214
856.34843,0.52511
854.41972,0.52975
852.49100,0.53646
850.56229,0.54490
848.63358,0.55391
846.70487,0.56198
844.77615,0.56830
842.84744,0.57296
840.91873,0.57639
838.99002,0.57932
837.06130,0.58258
835.13259,0.58703
833.20388,0.59313
831.27516,0.60063
829.34645,0.60895
827.41774,0.61668
825.48903,0.62163
823.56031,0.62262
821.63160,0.61987
819.70289,0.61454
817.77418,0.60830
815.84546,0.60236
813.91675,0.59745
811.98804,0.59392
810.05933,0.59120
808.13061,0.58800
806.20190,0.58322
804.27319,0.57687
802.34447,0.57039
800.41576,0.56545
798.48705,0.56354
796.55834,0.56618
794.62962,0.57395
792.70091,0.58599
790.77220,0.60054
788.84349,0.61460
786.91477,0.62430
784.98606,0.62725
783.05735,0.62368
781.12864,0.61567
779.19992,0.60580
777.27121,0.59629
775.34250,0.58895
773.41378,0.58477
771.48507,0.58311
769.55636,0.58277
767.62765,0.58249
765.69893,0.58011
763.77022,0.57413
761.84151,0.56509
759.91280,0.55390
757.98408,0.54140
756.05537,0.52882
754.12666,0.51718
752.19795,0.50595
750.26923,0.49295
748.34052,0.47614
746.41181,0.45429
744.48309,0.42664
742.55438,0.39323
740.62567,0.35408
738.69696,0.30802
736.76824,0.25146
734.83953,0.18019
732.91082,0.10203
730.98211,0.04162
729.05339,0.01503
727.12468,0.01107
725.19597,0.01066
723.26725,0.00697
721.33854,0.00289
719.40983,0.00309
717.48112,0.01514
715.55240,0.04961
713.62369,0.11067
711.69498,0.18952
709.76627,0.27225
707.83755,0.34957
705.90884,0.41760
703.98013,0.47630
702.05142,0.52800
700.12270,0.57656
698.19399,0.62329
696.26528,0.66344
694.33656,0.69147
692.40785,0.70717
690.47914,0.71478
688.55043,0.71987
686.62171,0.72712
684.69300,0.73857
682.76429,0.75276
680.83558,0.76594
678.90686,0.77452
676.97815,0.77587
675.04944,0.76877
673.12073,0.75476
671.19201,0.73724
669.26330,0.72256
667.33459,0.72488
665.40587,0.73968
663.47716,0.74964
661.54845,0.75188
659.61974,0.74667
657.69102,0.73403
655.76231,0.71382
653.83360,0.68616
651.90489,0.65330
649.97617,0.62014
648.04746,0.59257
646.11875,0.57452
644.19004,0.56688
642.26132,0.56877
640.33261,0.57762
638.40390,0.58708
636.47518,0.58701
634.54647,0.57020
632.61776,0.53954
630.68905,0.50813
628.76033,0.49102
626.83162,0.49561
624.90291,0.51796
622.97420,0.54520
621.04548,0.56301
619.11677,0.55838
617.18806,0.52061
615.25934,0.44844
613.33063,0.35649
611.40192,0.27113
609.47321,0.22028
607.54449,0.22072
605.61578,0.27118
603.68707,0.35386
601.75836,0.44319
599.82964,0.52216
