7496.92628,0.02595
7494.99756,0.03245
7493.06885,0.03427
7491.14013,0.03056
7489.21141,0.02718
7487.28269,0.02630
7485.35397,0.02568
7483.42526,0.02576
7481.49654,0.02837
7479.56782,0.03607
7477.63910,0.04285
7475.71039,0.04297
7473.78167,0.04107
7471.85295,0.04097
7469.92423,0.04199
7467.99551,0.04639
7466.06680,0.04855
7464.13808,0.04269
7462.20936,0.03566
7460.28064,0.03139
7458.35192,0.02763
7456.42321,0.03115
7454.49449,0.03643
7452.56577,0.03117
7450.63705,0.02529
7448.70834,0.03091
7446.77962,0.03981
7444.85090,0.04148
7442.92218,0.03797
7440.99346,0.03865
7439.06475,0.04351
7437.13603,0.04491
7435.20731,0.04336
7433.27859,0.04316
7431.34987,0.04234
7429.42116,0.04041
7427.49244,0.04010
7425.56372,0.04105
7423.63500,0.03565
7421.70629,0.02575
7419.77757,0.02324
7417.84885,0.03153
7415.92013,0.03982
7413.99141,0.04042
7412.06270,0.03594
7410.13398,0.03081
7408.20526,0.02569
7406.27654,0.02359
7404.34782,0.02404
7402.41911,0.02945
7400.49039,0.03408
7398.56167,0.03452
7396.63295,0.03203
7394.70424,0.02924
7392.77552,0.03001
7390.84680,0.03856
7388.91808,0.04212
7386.98936,0.03528
7385.06065,0.02944
7383.13193,0.03082
7381.20321,0.03477
7379.27449,0.03975
7377.34577,0.04030
7375.41706,0.03618
7373.48834,0.02999
7371.55962,0.02689
7369.63090,0.02847
7367.70219,0.03005
7365.77347,0.03062
7363.84475,0.03592
7361.91603,0.04535
7359.98731,0.05046
7358.05860,0.04716
7356.12988,0.04594
7354.20116,0.04760
7352.27244,0.04331
7350.34372,0.03769
7348.41501,0.03566
7346.48629,0.03259
7344.55757,0.03053
7342.62885,0.02938
7340.70014,0.02437
7338.77142,0.02336
7336.84270,0.03135
7334.91398,0.03821
7332.98526,0.03987
7331.05655,0.04158
7329.12783,0.04242
7327.19911,0.03930
7325.27039,0.03991
7323.34167,0.04171
7321.41296,0.04091
7319.48424,0.03782
7317.55552,0.03717
7315.62680,0.04069
7313.69809,0.04173
7311.76937,0.03721
7309.84065,0.03250
7307.91193,0.03001
7305.98321,0.03071
7304.05450,0.03082
7302.12578,0.02872
7300.19706,0.02765
7298.26834,0.03067
7296.33963,0.03484
7294.41091,0.03313
7292.48219,0.02550
7290.55347,0.02180
7288.62475,0.02459
7286.69604,0.03132
7284.76732,0.03757
7282.83860,0.03999
7280.90988,0.03823
7278.98116,0.03431
7277.05245,0.03306
7275.12373,0.03574
7273.19501,0.03824
7271.26629,0.03958
7269.33758,0.03896
7267.40886,0.03688
7265.48014,0.03351
7263.55142,0.03048
7261.62270,0.03353
7259.69399,0.03766
7257.76527,0.03545
7255.83655,0.03381
7253.90783,0.03519
7251.97911,0.03506
7250.05040,0.03424
7248.12168,0.03621
7246.19296,0.03699
7244.26424,0.03156
7242.33553,0.02031
7240.40681,0.01594
7238.47809,0.02150
7236.54937,0.02749
7234.62065,0.02683
7232.69194,0.02538
7230.76322,0.02803
7228.83450,0.03278
7226.90578,0.03917
7224.97706,0.04773
7223.04835,0.05118
7221.11963,0.04498
7219.19091,0.03343
7217.26219,0.02542
7215.33348,0.02461
7213.40476,0.03249
7211.47604,0.04113
7209.54732,0.04044
7207.61860,0.03732
7205.68989,0.03959
7203.76117,0.04163
7201.83245,0.03824
7199.90373,0.03083
7197.97501,0.02425
7196.04630,0.02591
7194.11758,0.03437
7192.18886,0.03736
7190.26014,0.03208
7188.33143,0.02810
7186.40271,0.03112
7184.47399,0.03398
7182.54527,0.03242
7180.61655,0.03129
7178.68784,0.03400
7176.75912,0.03608
7174.83040,0.03507
7172.90168,0.03098
7170.97296,0.02535
7169.04425,0.02395
7167.11553,0.02877
7165.18681,0.03050
7163.25809,0.02706
7161.32938,0.02542
7159.40066,0.02826
7157.47194,0.03021
7155.54322,0.03113
7153.61450,0.03198
7151.68579,0.03018
7149.75707,0.02401
7147.82835,0.01617
7145.89963,0.01403
7143.97091,0.01808
7142.04220,0.02094
7140.11348,0.02381
7138.18476,0.02804
7136.25604,0.02739
7134.32733,0.02184
7132.39861,0.01891
7130.46989,0.02095
7128.54117,0.02835
7126.61245,0.03783
7124.68374,0.04260
7122.75502,0.03964
7120.82630,0.03731
7118.89758,0.03962
7116.96887,0.04126
7115.04015,0.04061
7113.11143,0.04012
7111.18271,0.03885
7109.25399,0.03682
7107.32528,0.03577
7105.39656,0.03582
7103.46784,0.03421
7101.53912,0.03219
7099.61040,0.03193
7097.68169,0.03208
7095.75297,0.03118
7093.82425,0.03167
7091.89553,0.03461
7089.96682,0.03715
7088.03810,0.03673
7086.10938,0.03459
7084.18066,0.03321
7082.25194,0.03389
7080.32323,0.03454
7078.39451,0.03522
7076.46579,0.03621
7074.53707,0.03709
7072.60835,0.03636
7070.67964,0.03423
7068.75092,0.03043
7066.82220,0.02550
7064.89348,0.02218
7062.96477,0.02743
7061.03605,0.03637
7059.10733,0.03819
7057.17861,0.03106
7055.24989,0.02527
7053.32118,0.02810
7051.39246,0.03401
7049.46374,0.03362
7047.53502,0.02875
7045.60630,0.02722
7043.67759,0.03086
7041.74887,0.03579
7039.82015,0.03928
7037.89143,0.03923
7035.96272,0.03518
7034.03400,0.03065
7032.10528,0.02776
7030.17656,0.02526
7028.24784,0.02374
7026.31913,0.02261
7024.39041,0.02386
7022.46169,0.02868
7020.53297,0.03479
7018.60425,0.03630
7016.67554,0.03481
7014.74682,0.03439
7012.81810,0.03430
7010.88938,0.03568
7008.96067,0.03710
7007.03195,0.03440
7005.10323,0.03057
7003.17451,0.02866
7001.24579,0.03008
6999.31708,0.03265
6997.38836,0.03148
6995.45964,0.03037
6993.53092,0.03234
6991.60220,0.03174
6989.67349,0.02607
6987.74477,0.02238
6985.81605,0.02802
6983.88733,0.03523
6981.95862,0.03499
6980.02990,0.03217
6978.10118,0.03419
6976.17246,0.03771
6974.24374,0.03837
6972.31503,0.03808
6970.38631,0.03575
6968.45759,0.03402
6966.52887,0.03985
6964.60015,0.04418
6962.67144,0.03837
6960.74272,0.03195
6958.81400,0.03052
6956.88528,0.03019
6954.95657,0.02936
6953.02785,0.02887
6951.09913,0.02979
6949.17041,0.03042
6947.24169,0.03215
6945.31298,0.03569
6943.38426,0.03621
6941.45554,0.03243
6939.52682,0.02954
6937.59811,0.03238
6935.66939,0.03816
6933.74067,0.03824
6931.81195,0.03392
6929.88323,0.03295
6927.95452,0.03589
6926.02580,0.03720
6924.09708,0.03506
6922.16836,0.03481
6920.23964,0.03808
6918.31093,0.03652
6916.38221,0.02801
6914.45349,0.02155
6912.52477,0.02554
6910.59606,0.03344
6908.66734,0.03383
6906.73862,0.02719
6904.80990,0.02580
6902.88118,0.03144
6900.95247,0.03618
6899.02375,0.03401
6897.09503,0.03046
6895.16631,0.03233
6893.23759,0.03504
6891.30888,0.03245
6889.38016,0.02982
6887.45144,0.03154
6885.52272,0.03105
6883.59401,0.02604
6881.66529,0.02518
6879.73657,0.02980
6877.80785,0.03377
6875.87913,0.03625
6873.95042,0.03728
6872.02170,0.03450
6870.09298,0.03158
6868.16426,0.03272
6866.23554,0.03476
6864.30683,0.03221
6862.37811,0.02740
6860.44939,0.02492
6858.52067,0.02795
6856.59196,0.03287
6854.66324,0.03409
6852.73452,0.03133
6850.80580,0.03058
6848.87708,0.03424
6846.94837,0.03772
6845.01965,0.03783
6843.09093,0.03756
6841.16221,0.03647
6839.23349,0.03469
6837.30478,0.03386
6835.37606,0.03185
6833.44734,0.02895
6831.51862,0.02785
6829.58991,0.02870
6827.66119,0.03100
6825.73247,0.03105
6823.80375,0.02829
6821.87503,0.02685
6819.94632,0.02801
6818.01760,0.02832
6816.08888,0.02853
6814.16016,0.03174
6812.23144,0.03849
6810.30273,0.04249
6808.37401,0.04148
6806.44529,0.04037
6804.51657,0.04057
6802.58786,0.04041
6800.65914,0.03757
6798.73042,0.03188
6796.80170,0.02877
6794.87298,0.02773
6792.94427,0.02585
6791.01555,0.02685
6789.08683,0.03129
6787.15811,0.03439
6785.22939,0.03465
6783.30068,0.03341
6781.37196,0.03091
6779.44324,0.02633
6777.51452,0.02242
6775.58581,0.02224
6773.65709,0.02466
6771.72837,0.02861
6769.79965,0.03389
6767.87093,0.03552
6765.94222,0.03150
6764.01350,0.02666
6762.08478,0.02513
6760.15606,0.02709
6758.22735,0.02871
6756.29863,0.02743
6754.36991,0.02633
6752.44119,0.02972
6750.51247,0.03514
6748.58376,0.03647
6746.65504,0.03557
6744.72632,0.03523
6742.79760,0.03449
6740.86888,0.03277
6738.94017,0.03117
6737.01145,0.03100
6735.08273,0.03204
6733.15401,0.03159
6731.22530,0.02806
6729.29658,0.02426
6727.36786,0.02438
6725.43914,0.02622
6723.51042,0.02935
6721.58171,0.03206
6719.65299,0.03064
6717.72427,0.02741
6715.79555,0.02865
6713.86683,0.03224
6711.93812,0.03365
6710.00940,0.03323
6708.08068,0.03226
6706.15196,0.03099
6704.22325,0.03045
6702.29453,0.03241
6700.36581,0.03599
6698.43709,0.03779
6696.50837,0.03726
6694.57966,0.03470
6692.65094,0.03131
6690.72222,0.03012
6688.79350,0.03033
6686.86478,0.02995
6684.93607,0.03087
6683.00735,0.03121
6681.07863,0.02962
6679.14991,0.03074
6677.22120,0.03355
6675.29248,0.03264
6673.36376,0.02969
6671.43504,0.02748
6669.50632,0.02586
6667.57761,0.02536
6665.64889,0.02727
6663.72017,0.03031
6661.79145,0.03382
6659.86273,0.03655
6657.93402,0.03589
6656.00530,0.03325
6654.07658,0.03100
6652.14786,0.02828
6650.21915,0.02766
6648.29043,0.03082
6646.36171,0.03238
6644.43299,0.03049
6642.50427,0.03013
6640.57556,0.03199
6638.64684,0.03221
6636.71812,0.02955
6634.78940,0.02822
6632.86068,0.03071
6630.93197,0.03455
6629.00325,0.03583
6627.07453,0.03401
6625.14581,0.03166
6623.21710,0.03046
6621.28838,0.03098
6619.35966,0.03313
6617.43094,0.03349
6615.50222,0.03201
6613.57351,0.03240
6611.64479,0.03345
6609.71607,0.03195
6607.78735,0.02902
6605.85863,0.02862
6603.92992,0.03192
6602.00120,0.03473
6600.07248,0.03449
6598.14376,0.03217
6596.21505,0.02927
6594.28633,0.02867
6592.35761,0.03049
6590.42889,0.03224
6588.50017,0.03382
6586.57146,0.03364
6584.64274,0.03024
6582.71402,0.02708
6580.78530,0.02832
6578.85659,0.03374
6576.92787,0.03941
6574.99915,0.03954
6573.07043,0.03448
6571.14171,0.03224
6569.21300,0.03356
6567.28428,0.03173
6565.35556,0.02811
6563.42684,0.02885
6561.49812,0.03301
6559.56941,0.03507
6557.64069,0.03430
6555.71197,0.03333
6553.78325,0.03307
6551.85454,0.03293
6549.92582,0.03282
6547.99710,0.03284
6546.06838,0.03301
6544.13966,0.03216
6542.21095,0.03055
6540.28223,0.03028
6538.35351,0.03096
6536.42479,0.03131
6534.49607,0.03180
6532.56736,0.03062
6530.63864,0.02858
6528.70992,0.02996
6526.78120,0.03322
6524.85249,0.03445
6522.92377,0.03472
6520.99505,0.03393
6519.06633,0.03227
6517.13761,0.03262
6515.20890,0.03402
6513.28018,0.03231
6511.35146,0.02833
6509.42274,0.02643
6507.49402,0.02795
6505.56531,0.02929
6503.63659,0.02743
6501.70787,0.02534
6499.77915,0.02708
6497.85044,0.02957
6495.92172,0.02830
6493.99300,0.02527
6492.06428,0.02392
6490.13556,0.02458
6488.20685,0.02760
6486.27813,0.02952
6484.34941,0.02744
6482.42069,0.02645
6480.49197,0.02837
6478.56326,0.02824
6476.63454,0.02748
6474.70582,0.02751
6472.77710,0.02689
6470.84839,0.02679
6468.91967,0.02777
6466.99095,0.02815
6465.06223,0.02867
6463.13351,0.02928
6461.20480,0.02906
6459.27608,0.02969
6457.34736,0.03021
6455.41864,0.02772
6453.48992,0.02520
6451.56121,0.02626
6449.63249,0.02863
6447.70377,0.02915
6445.77505,0.02978
6443.84634,0.03218
6441.91762,0.03391
6439.98890,0.03288
6438.06018,0.03163
6436.13146,0.03234
6434.20275,0.03274
6432.27403,0.03186
6430.34531,0.03159
6428.41659,0.03111
6426.48787,0.02865
6424.55916,0.02591
6422.63044,0.02621
6420.70172,0.02921
6418.77300,0.03172
6416.84429,0.03179
6414.91557,0.03015
6412.98685,0.02840
6411.05813,0.02762
6409.12941,0.02651
6407.20070,0.02533
6405.27198,0.02756
6403.34326,0.03167
6401.41454,0.03243
6399.48583,0.03099
6397.55711,0.02961
6395.62839,0.02837
6393.69967,0.02715
6391.77095,0.02493
6389.84224,0.02316
6387.91352,0.02341
6385.98480,0.02374
6384.05608,0.02490
6382.12736,0.02808
6380.19865,0.03091
6378.26993,0.03200
6376.34121,0.03240
6374.41249,0.03255
6372.48378,0.03314
6370.55506,0.03369
6368.62634,0.03241
6366.69762,0.03087
6364.76890,0.03193
6362.84019,0.03391
6360.91147,0.03356
6358.98275,0.03095
6357.05403,0.02865
6355.12531,0.02869
6353.19660,0.03145
6351.26788,0.03399
6349.33916,0.03418
6347.41044,0.03392
6345.48173,0.03381
6343.55301,0.03212
6341.62429,0.02997
6339.69557,0.02895
6337.76685,0.02919
6335.83814,0.03111
6333.90942,0.03350
6331.98070,0.03426
6330.05198,0.03330
6328.12326,0.03014
6326.19455,0.02599
6324.26583,0.02457
6322.33711,0.02577
6320.40839,0.02702
6318.47968,0.02812
6316.55096,0.02886
6314.62224,0.02992
6312.69352,0.03130
6310.76480,0.03023
6308.83609,0.02655
6306.90737,0.02527
6304.97865,0.02944
6303.04993,0.03564
6301.12121,0.03916
6299.19250,0.03779
6297.26378,0.03268
6295.33506,0.02917
6293.40634,0.02987
6291.47763,0.03186
6289.54891,0.03315
6287.62019,0.03460
6285.69147,0.03496
6283.76275,0.03283
6281.83404,0.03030
6279.90532,0.02907
6277.97660,0.02819
6276.04788,0.02828
6274.11916,0.03024
6272.19045,0.03254
6270.26173,0.03271
6268.33301,0.03107
6266.40429,0.02995
6264.47558,0.03000
6262.54686,0.03011
6260.61814,0.03017
6258.68942,0.02928
6256.76070,0.02677
6254.83199,0.02515
6252.90327,0.02665
6250.97455,0.02982
6249.04583,0.03282
6247.11711,0.03457
6245.18840,0.03479
6243.25968,0.03372
6241.33096,0.03119
6239.40224,0.02871
6237.47353,0.02874
6235.54481,0.03055
6233.61609,0.03139
6231.68737,0.02957
6229.75865,0.02703
6227.82994,0.02667
6225.90122,0.02783
6223.97250,0.02922
6222.04378,0.03107
6220.11506,0.03202
6218.18635,0.03065
6216.25763,0.02835
6214.32891,0.02748
6212.40019,0.02742
6210.47148,0.02704
6208.54276,0.02769
6206.61404,0.02927
6204.68532,0.03028
6202.75660,0.03120
6200.82789,0.03232
6198.89917,0.03195
6196.97045,0.02952
6195.04173,0.02758
6193.11302,0.02737
6191.18430,0.02838
6189.25558,0.03115
6187.32686,0.03341
6185.39814,0.03173
6183.46943,0.02808
6181.54071,0.02626
6179.61199,0.02753
6177.68327,0.03017
6175.75455,0.03171
6173.82584,0.03174
6171.89712,0.03063
6169.96840,0.02903
6168.03968,0.02840
6166.11097,0.02901
6164.18225,0.03001
6162.25353,0.03048
6160.32481,0.03041
6158.39609,0.03060
6156.46738,0.03083
6154.53866,0.02994
6152.60994,0.02914
6150.68122,0.02938
6148.75250,0.02893
6146.82379,0.02776
6144.89507,0.02824
6142.96635,0.03007
6141.03763,0.03091
6139.10892,0.03069
6137.18020,0.03106
6135.25148,0.03198
6133.32276,0.03296
6131.39404,0.03327
6129.46533,0.03179
6127.53661,0.02945
6125.60789,0.02784
6123.67917,0.02685
6121.75045,0.02711
6119.82174,0.02926
6117.89302,0.03159
6115.96430,0.03125
6114.03558,0.02900
6112.10687,0.02747
6110.17815,0.02735
6108.24943,0.02823
6106.32071,0.02971
6104.39199,0.03030
6102.46328,0.02894
6100.53456,0.02801
6098.60584,0.02948
6096.67712,0.03151
6094.74840,0.03211
6092.81969,0.03109
6090.89097,0.02974
6088.96225,0.02901
6087.03353,0.02854
6085.10482,0.02808
6083.17610,0.02754
6081.24738,0.02648
6079.31866,0.02598
6077.38994,0.02751
6075.46123,0.02948
6073.53251,0.02983
6071.60379,0.03029
6069.67507,0.03162
6067.74635,0.03261
6065.81764,0.03285
6063.88892,0.03155
6061.96020,0.02999
6060.03148,0.03049
6058.10277,0.03179
6056.17405,0.03236
6054.24533,0.03198
6052.31661,0.03098
6050.38789,0.03087
6048.45918,0.03107
6046.53046,0.02991
6044.60174,0.02881
6042.67302,0.02890
6040.74430,0.02891
6038.81559,0.02830
6036.88687,0.02792
6034.95815,0.02827
6033.02943,0.02965
6031.10072,0.03172
6029.17200,0.03288
6027.24328,0.03232
6025.31456,0.03131
6023.38584,0.03046
6021.45713,0.02950
6019.52841,0.02958
6017.59969,0.03086
6015.67097,0.03128
6013.74226,0.03081
6011.81354,0.03153
6009.88482,0.03288
6007.95610,0.03247
6006.02738,0.03103
6004.09867,0.03016
6002.16995,0.02906
6000.24123,0.02671
5998.31251,0.02475
5996.38379,0.02577
5994.45508,0.02840
5992.52636,0.02933
5990.59764,0.02846
5988.66892,0.02804
5986.74021,0.02950
5984.81149,0.03133
5982.88277,0.03169
5980.95405,0.03003
5979.02533,0.02781
5977.09662,0.02752
5975.16790,0.02812
5973.23918,0.02732
5971.31046,0.02625
5969.38174,0.02591
5967.45303,0.02624
5965.52431,0.02776
5963.59559,0.03036
5961.66687,0.03286
5959.73816,0.03373
5957.80944,0.03236
5955.88072,0.03038
5953.95200,0.02958
5952.02328,0.02987
5950.09457,0.03006
5948.16585,0.02991
5946.23713,0.03032
5944.30841,0.03121
5942.37969,0.03141
5940.45098,0.03055
5938.52226,0.02919
5936.59354,0.02824
5934.66482,0.02826
5932.73611,0.02968
5930.80739,0.03113
5928.87867,0.03055
5926.94995,0.02838
5925.02123,0.02635
5923.09252,0.02548
5921.16380,0.02579
5919.23508,0.02735
5917.30636,0.02982
5915.37764,0.03110
5913.44893,0.03131
5911.52021,0.03238
5909.59149,0.03312
5907.66277,0.03223
5905.73406,0.03074
5903.80534,0.02935
5901.87662,0.02775
5899.94790,0.02717
5898.01918,0.02928
5896.09047,0.03114
5894.16175,0.03019
5892.23303,0.02989
5890.30431,0.03170
5888.37559,0.03189
5886.44688,0.02973
5884.51816,0.02848
5882.58944,0.02867
5880.66072,0.02825
5878.73201,0.02787
5876.80329,0.02890
5874.87457,0.03002
5872.94585,0.02998
5871.01713,0.02989
5869.08842,0.03029
5867.15970,0.03055
5865.23098,0.03070
5863.30226,0.03061
5861.37354,0.02919
5859.44483,0.02746
5857.51611,0.02775
5855.58739,0.03022
5853.65867,0.03314
5851.72996,0.03445
5849.80124,0.03277
5847.87252,0.03002
5845.94380,0.02910
5844.01508,0.02963
5842.08637,0.02986
5840.15765,0.02906
5838.22893,0.02834
5836.30021,0.02939
5834.37150,0.03045
5832.44278,0.02971
5830.51406,0.02907
5828.58534,0.02929
5826.65662,0.02892
5824.72791,0.02855
5822.79919,0.02893
5820.87047,0.02927
5818.94175,0.03013
5817.01303,0.03207
5815.08432,0.03337
5813.15560,0.03312
5811.22688,0.03126
5809.29816,0.02808
5807.36945,0.02587
5805.44073,0.02625
5803.51201,0.02769
5801.58329,0.02904
5799.65457,0.03025
5797.72586,0.03039
5795.79714,0.02985
5793.86842,0.02993
5791.93970,0.02973
5790.01098,0.02861
5788.08227,0.02798
5786.15355,0.02868
5784.22483,0.02978
5782.29611,0.03061
5780.36740,0.03152
5778.43868,0.03237
5776.50996,0.03199
5774.58124,0.03025
5772.65252,0.02932
5770.72381,0.03067
5768.79509,0.03207
5766.86637,0.03166
5764.93765,0.03056
5763.00893,0.02888
5761.08022,0.02629
5759.15150,0.02564
5757.22278,0.02788
5755.29406,0.03058
5753.36535,0.03239
5751.43663,0.03362
5749.50791,0.03393
5747.57919,0.03249
5745.65047,0.03052
5743.72176,0.02996
5741.79304,0.03015
5739.86432,0.02995
5737.93560,0.02952
5736.00688,0.02970
5734.07817,0.03013
5732.14945,0.02953
5730.22073,0.02864
5728.29201,0.02910
5726.36330,0.03004
5724.43458,0.03027
5722.50586,0.02994
5720.57714,0.02974
5718.64842,0.03019
5716.71971,0.03060
5714.79099,0.03037
5712.86227,0.02993
5710.93355,0.02967
5709.00483,0.02992
5707.07612,0.03010
5705.14740,0.02983
5703.21868,0.02949
5701.28996,0.02910
5699.36125,0.02881
5697.43253,0.02924
5695.50381,0.03051
5693.57509,0.03134
5691.64637,0.03060
5689.71766,0.02931
5687.78894,0.02862
5685.86022,0.02790
5683.93150,0.02684
5682.00278,0.02678
5680.07407,0.02794
5678.14535,0.02933
5676.21663,0.03056
5674.28791,0.03121
5672.35920,0.03157
5670.43048,0.03212
5668.50176,0.03229
5666.57304,0.03205
5664.64432,0.03190
5662.71561,0.03128
5660.78689,0.02981
5658.85817,0.02932
5656.92945,0.03052
5655.00074,0.03130
5653.07202,0.03077
5651.14330,0.02991
5649.21458,0.02917
5647.28586,0.02866
5645.35715,0.02866
5643.42843,0.02918
5641.49971,0.02972
5639.57099,0.02977
5637.64227,0.02931
5635.71356,0.02885
5633.78484,0.02893
5631.85612,0.03005
5629.92740,0.03136
5627.99869,0.03125
5626.06997,0.02995
5624.14125,0.02944
5622.21253,0.03047
5620.28381,0.03138
5618.35510,0.03088
5616.42638,0.03004
5614.49766,0.03087
5612.56894,0.03302
5610.64022,0.03379
5608.71151,0.03314
5606.78279,0.03233
5604.85407,0.03106
5602.92535,0.02975
5600.99664,0.02885
5599.06792,0.02796
5597.13920,0.02833
5595.21048,0.03031
5593.28176,0.03158
5591.35305,0.03148
5589.42433,0.03119
5587.49561,0.03040
5585.56689,0.02901
5583.63817,0.02821
5581.70946,0.02843
5579.78074,0.02911
5577.85202,0.02970
5575.92330,0.02975
5573.99459,0.02952
5572.06587,0.02962
5570.13715,0.03027
5568.20843,0.03075
5566.27971,0.03025
5564.35100,0.02918
5562.42228,0.02883
5560.49356,0.02961
5558.56484,0.03048
5556.63612,0.03020
5554.70741,0.02901
5552.77869,0.02810
5550.84997,0.02831
5548.92125,0.02906
5546.99254,0.02915
5545.06382,0.02931
5543.13510,0.02974
5541.20638,0.02858
5539.27766,0.02686
5537.34895,0.02730
5535.42023,0.02933
5533.49151,0.03111
5531.56279,0.03153
5529.63407,0.02999
5527.70536,0.02820
5525.77664,0.02825
5523.84792,0.02931
5521.91920,0.02986
5519.99049,0.02965
5518.06177,0.02845
5516.13305,0.02744
5514.20433,0.02849
5512.27561,0.03012
5510.34690,0.02991
5508.41818,0.02881
5506.48946,0.02863
5504.56074,0.02895
5502.63202,0.02892
5500.70331,0.02868
5498.77459,0.02830
5496.84587,0.02811
5494.91715,0.02846
5492.98844,0.02865
5491.05972,0.02824
5489.13100,0.02831
5487.20228,0.02897
5485.27356,0.02906
5483.34485,0.02826
5481.41613,0.02758
5479.48741,0.02765
5477.55869,0.02810
5475.62998,0.02861
5473.70126,0.02873
5471.77254,0.02815
5469.84382,0.02824
5467.91510,0.02938
5465.98639,0.02943
5464.05767,0.02837
5462.12895,0.02825
5460.20023,0.02956
5458.27151,0.03119
5456.34280,0.03179
5454.41408,0.03197
5452.48536,0.03256
5450.55664,0.03211
5448.62793,0.03005
5446.69921,0.02812
5444.77049,0.02746
5442.84177,0.02768
5440.91305,0.02787
5438.98434,0.02789
5437.05562,0.02829
5435.12690,0.02893
5433.19818,0.02945
5431.26946,0.02993
5429.34075,0.03000
5427.41203,0.02913
5425.48331,0.02785
5423.55459,0.02710
5421.62588,0.02699
5419.69716,0.02712
5417.76844,0.02784
5415.83972,0.02930
5413.91100,0.03004
5411.98229,0.02913
5410.05357,0.02839
5408.12485,0.02923
5406.19613,0.03039
5404.26741,0.03042
5402.33870,0.03002
5400.40998,0.03014
5398.48126,0.03019
5396.55254,0.02973
5394.62383,0.02891
5392.69511,0.02788
5390.76639,0.02735
5388.83767,0.02747
5386.90895,0.02783
5384.98024,0.02823
5383.05152,0.02829
5381.12280,0.02854
5379.19408,0.02916
5377.26536,0.02915
5375.33665,0.02872
5373.40793,0.02956
5371.47921,0.03091
5369.55049,0.03077
5367.62178,0.02933
5365.69306,0.02828
5363.76434,0.02835
5361.83562,0.02930
5359.90690,0.03029
5357.97819,0.03075
5356.04947,0.03081
5354.12075,0.03040
5352.19203,0.02970
5350.26331,0.02941
5348.33460,0.02926
5346.40588,0.02840
5344.47716,0.02727
5342.54844,0.02767
5340.61973,0.02934
5338.69101,0.03052
5336.76229,0.03063
5334.83357,0.03044
5332.90485,0.03007
5330.97614,0.02940
5329.04742,0.02873
5327.11870,0.02828
5325.18998,0.02821
5323.26126,0.02904
5321.33255,0.03061
5319.40383,0.03142
5317.47511,0.03072
5315.54639,0.02982
5313.61768,0.02963
5311.68896,0.03021
5309.76024,0.03131
5307.83152,0.03195
5305.90280,0.03169
5303.97409,0.03113
5302.04537,0.03056
5300.11665,0.02997
5298.18793,0.02911
5296.25922,0.02844
5294.33050,0.02877
5292.40178,0.02908
5290.47306,0.02859
5288.54434,0.02824
5286.61563,0.02805
5284.68691,0.02784
5282.75819,0.02781
5280.82947,0.02749
5278.90075,0.02732
5276.97204,0.02806
5275.04332,0.02924
5273.11460,0.02988
5271.18588,0.02956
5269.25717,0.02923
5267.32845,0.02953
5265.39973,0.02959
5263.47101,0.02956
5261.54229,0.03013
5259.61358,0.03053
5257.68486,0.03082
5255.75614,0.03114
5253.82742,0.03051
5251.89870,0.02931
5249.96999,0.02888
5248.04127,0.02927
5246.11255,0.02968
5244.18383,0.03000
5242.25512,0.03033
5240.32640,0.03005
5238.39768,0.02940
5236.46896,0.02939
5234.54024,0.02961
5232.61153,0.02945
5230.68281,0.02977
5228.75409,0.03010
5226.82537,0.02916
5224.89665,0.02856
5222.96794,0.02976
5221.03922,0.03082
5219.11050,0.03099
5217.18178,0.03084
5215.25307,0.03029
5213.32435,0.03006
5211.39563,0.03049
5209.46691,0.03048
5207.53819,0.02936
5205.60948,0.02839
5203.68076,0.02930
5201.75204,0.03041
5199.82332,0.02940
5197.89460,0.02784
5195.96589,0.02832
5194.03717,0.02978
5192.10845,0.03054
5190.17973,0.03072
5188.25102,0.03041
5186.32230,0.02984
5184.39358,0.02984
5182.46486,0.03002
5180.53614,0.03001
5178.60743,0.03037
5176.67871,0.03089
5174.74999,0.03085
5172.82127,0.03022
5170.89255,0.02923
5168.96384,0.02827
5167.03512,0.02815
5165.10640,0.02879
5163.17768,0.02907
5161.24897,0.02912
5159.32025,0.02960
5157.39153,0.03010
5155.46281,0.02991
5153.53409,0.02916
5151.60538,0.02871
5149.67666,0.02878
5147.74794,0.02866
5145.81922,0.02840
5143.89050,0.02879
5141.96179,0.02986
5140.03307,0.03081
5138.10435,0.03100
5136.17563,0.03030
5134.24692,0.02946
5132.31820,0.02917
5130.38948,0.02901
5128.46076,0.02877
5126.53204,0.02904
5124.60333,0.02988
5122.67461,0.03063
5120.74589,0.03028
5118.81717,0.02897
5116.88846,0.02827
5114.95974,0.02856
5113.03102,0.02905
5111.10230,0.02947
5109.17358,0.02945
5107.24487,0.02911
5105.31615,0.02929
5103.38743,0.02979
5101.45871,0.02949
5099.52999,0.02814
5097.60128,0.02694
5095.67256,0.02663
5093.74384,0.02700
5091.81512,0.02806
5089.88641,0.02947
5087.95769,0.03046
5086.02897,0.03072
5084.10025,0.03018
5082.17153,0.02892
5080.24282,0.02794
5078.31410,0.02880
5076.38538,0.03089
5074.45666,0.03184
5072.52794,0.03118
5070.59923,0.03027
5068.67051,0.03015
5066.74179,0.03057
5064.81307,0.03033
5062.88436,0.02915
5060.95564,0.02803
5059.02692,0.02789
5057.09820,0.02874
5055.16948,0.02983
5053.24077,0.03021
5051.31205,0.02949
5049.38333,0.02847
5047.45461,0.02831
5045.52589,0.02908
5043.59718,0.02974
5041.66846,0.02962
5039.73974,0.02934
5037.81102,0.02961
5035.88231,0.03011
5033.95359,0.03027
5032.02487,0.03024
5030.09615,0.03056
5028.16743,0.03090
5026.23872,0.03069
5024.31000,0.03013
5022.38128,0.02936
5020.45256,0.02871
5018.52384,0.02869
5016.59513,0.02887
5014.66641,0.02910
5012.73769,0.02939
5010.80897,0.02938
5008.88026,0.02924
5006.95154,0.02923
5005.02282,0.02899
5003.09410,0.02868
5001.16538,0.02876
4999.23667,0.02903
4997.30795,0.02935
4995.37923,0.02993
4993.45051,0.03060
4991.52179,0.03070
4989.59308,0.02979
4987.66436,0.02872
4985.73564,0.02848
4983.80692,0.02878
4981.87821,0.02921
4979.94949,0.02971
4978.02077,0.02986
4976.09205,0.02945
4974.16333,0.02881
4972.23462,0.02850
4970.30590,0.02888
4968.37718,0.02946
4966.44846,0.02987
4964.51974,0.02989
4962.59103,0.02925
4960.66231,0.02884
4958.73359,0.02928
4956.80487,0.03009
4954.87616,0.03068
4952.94744,0.03061
4951.01872,0.03037
4949.09000,0.03042
4947.16128,0.03007
4945.23257,0.02918
4943.30385,0.02865
4941.37513,0.02885
4939.44641,0.02941
4937.51769,0.03007
4935.58898,0.03030
4933.66026,0.02987
4931.73154,0.02968
4929.80282,0.03002
4927.87411,0.03040
4925.94539,0.03092
4924.01667,0.03142
4922.08795,0.03133
4920.15923,0.03103
4918.23052,0.03097
4916.30180,0.03072
4914.37308,0.02993
4912.44436,0.02881
4910.51565,0.02817
4908.58693,0.02881
4906.65821,0.02978
4904.72949,0.02942
4902.80077,0.02826
4900.87206,0.02787
4898.94334,0.02838
4897.01462,0.02906
4895.08590,0.02929
4893.15718,0.02914
4891.22847,0.02915
4889.29975,0.02889
4887.37103,0.02828
4885.44231,0.02798
4883.51360,0.02790
4881.58488,0.02778
4879.65616,0.02802
4877.72744,0.02871
4875.79872,0.02944
4873.87001,0.02969
4871.94129,0.02961
4870.01257,0.03014
4868.08385,0.03095
4866.15513,0.03084
4864.22642,0.02999
4862.29770,0.02903
4860.36898,0.02849
4858.44026,0.02878
4856.51155,0.02961
4854.58283,0.03043
4852.65411,0.03066
4850.72539,0.03001
4848.79667,0.02947
4846.86796,0.02968
4844.93924,0.02990
4843.01052,0.02978
4841.08180,0.02985
4839.15308,0.03051
4837.22437,0.03119
4835.29565,0.03110
4833.36693,0.03072
4831.43821,0.03059
4829.50950,0.03019
4827.58078,0.02930
4825.65206,0.02882
4823.72334,0.02906
4821.79462,0.02939
4819.86591,0.02989
4817.93719,0.03065
4816.00847,0.03089
4814.07975,0.03037
4812.15103,0.02958
4810.22232,0.02898
4808.29360,0.02866
4806.36488,0.02841
4804.43616,0.02820
4802.50745,0.02851
4800.57873,0.02953
4798.65001,0.03036
4796.72129,0.03039
4794.79257,0.02985
4792.86386,0.02921
4790.93514,0.02875
4789.00642,0.02847
4787.07770,0.02856
4785.14898,0.02938
4783.22027,0.03036
4781.29155,0.03057
4779.36283,0.03061
4777.43411,0.03113
4775.50540,0.03132
4773.57668,0.03067
4771.64796,0.02961
4769.71924,0.02895
4767.79052,0.02926
4765.86181,0.02980
4763.93309,0.02968
4762.00437,0.02946
4760.07565,0.02968
4758.14693,0.02990
4756.21822,0.02977
4754.28950,0.02941
4752.36078,0.02901
4750.43206,0.02859
4748.50335,0.02861
4746.57463,0.02944
4744.64591,0.03023
4742.71719,0.03031
4740.78847,0.02999
4738.85976,0.02965
4736.93104,0.02964
4735.00232,0.02998
4733.07360,0.03026
4731.14489,0.03020
4729.21617,0.02988
4727.28745,0.02962
4725.35873,0.02960
4723.43001,0.02972
4721.50130,0.02981
4719.57258,0.02976
4717.64386,0.02948
4715.71514,0.02910
4713.78642,0.02891
4711.85771,0.02874
4709.92899,0.02832
4708.00027,0.02821
4706.07155,0.02877
4704.14284,0.02924
4702.21412,0.02916
4700.28540,0.02892
4698.35668,0.02881
4696.42796,0.02905
4694.49925,0.02957
4692.57053,0.02997
4690.64181,0.03014
4688.71309,0.03004
4686.78437,0.02974
4684.85566,0.02980
4682.92694,0.03008
4680.99822,0.02964
4679.06950,0.02854
4677.14079,0.02801
4675.21207,0.02846
4673.28335,0.02925
4671.35463,0.02991
4669.42591,0.02990
4667.49720,0.02928
4665.56848,0.02904
4663.63976,0.02914
4661.71104,0.02876
4659.78232,0.02835
4657.85361,0.02846
4655.92489,0.02852
4653.99617,0.02848
4652.06745,0.02872
4650.13874,0.02892
4648.21002,0.02880
4646.28130,0.02864
4644.35258,0.02885
4642.42386,0.02954
4640.49515,0.03019
4638.56643,0.03026
4636.63771,0.02999
4634.70899,0.02970
4632.78027,0.02933
4630.85156,0.02913
4628.92284,0.02936
4626.99412,0.02990
4625.06540,0.03031
4623.13669,0.03000
4621.20797,0.02948
4619.27925,0.02957
4617.35053,0.02992
4615.42181,0.02981
4613.49310,0.02917
4611.56438,0.02878
4609.63566,0.02906
4607.70694,0.02920
4605.77822,0.02926
4603.84951,0.02974
4601.92079,0.02999
4599.99207,0.02977
4598.06335,0.02964
4596.13464,0.02950
4594.20592,0.02927
4592.27720,0.02937
4590.34848,0.02979
4588.41976,0.02989
4586.49105,0.02948
4584.56233,0.02897
4582.63361,0.02904
4580.70489,0.02978
4578.77617,0.03036
4576.84746,0.03033
4574.91874,0.03016
4572.99002,0.02993
4571.06130,0.02953
4569.13259,0.02922
4567.20387,0.02912
4565.27515,0.02915
4563.34643,0.02913
4561.41771,0.02885
4559.48900,0.02870
4557.56028,0.02894
4555.63156,0.02907
4553.70284,0.02898
4551.77413,0.02911
4549.84541,0.02940
4547.91669,0.02962
4545.98797,0.02981
4544.05925,0.02995
4542.13054,0.03009
4540.20182,0.03005
4538.27310,0.02957
4536.34438,0.02926
4534.41566,0.02963
4532.48695,0.03004
4530.55823,0.02995
4528.62951,0.02962
4526.70079,0.02956
4524.77208,0.02992
4522.84336,0.02996
4520.91464,0.02936
4518.98592,0.02891
4517.05720,0.02896
4515.12849,0.02917
4513.19977,0.02934
4511.27105,0.02940
4509.34233,0.02926
4507.41361,0.02900
4505.48490,0.02902
4503.55618,0.02955
4501.62746,0.03004
4499.69874,0.02978
4497.77003,0.02928
4495.84131,0.02925
4493.91259,0.02928
4491.98387,0.02908
4490.05515,0.02889
4488.12644,0.02868
4486.19772,0.02837
4484.26900,0.02817
4482.34028,0.02828
4480.41156,0.02839
4478.48285,0.02845
4476.55413,0.02896
4474.62541,0.02993
4472.69669,0.03054
4470.76798,0.03031
4468.83926,0.02961
4466.91054,0.02901
4464.98182,0.02892
4463.05310,0.02920
4461.12439,0.02934
4459.19567,0.02937
4457.26695,0.02966
4455.33823,0.03027
4453.40951,0.03070
4451.48080,0.03048
4449.55208,0.03003
4447.62336,0.02966
4445.69464,0.02921
4443.76593,0.02896
4441.83721,0.02914
4439.90849,0.02912
4437.97977,0.02873
4436.05105,0.02850
4434.12234,0.02859
4432.19362,0.02907
4430.26490,0.02981
4428.33618,0.03016
4426.40746,0.02998
4424.47875,0.02936
4422.55003,0.02863
4420.62131,0.02854
4418.69259,0.02891
4416.76388,0.02927
4414.83516,0.02970
4412.90644,0.03009
4410.97772,0.03011
4409.04900,0.02987
4407.12029,0.02985
4405.19157,0.02989
4403.26285,0.02936
4401.33413,0.02869
4399.40541,0.02880
4397.47670,0.02944
4395.54798,0.02980
4393.61926,0.02984
4391.69054,0.02986
4389.76183,0.02990
4387.83311,0.02995
4385.90439,0.02979
4383.97567,0.02936
4382.04695,0.02905
4380.11824,0.02904
4378.18952,0.02916
4376.26080,0.02923
4374.33208,0.02915
4372.40337,0.02896
4370.47465,0.02897
4368.54593,0.02942
4366.61721,0.02981
4364.68849,0.02958
4362.75978,0.02912
4360.83106,0.02900
4358.90234,0.02911
4356.97362,0.02919
4355.04490,0.02913
4353.11619,0.02903
4351.18747,0.02900
4349.25875,0.02910
4347.33003,0.02921
4345.40132,0.02898
4343.47260,0.02866
4341.54388,0.02866
4339.61516,0.02870
4337.68644,0.02863
4335.75773,0.02866
4333.82901,0.02889
4331.90029,0.02918
4329.97157,0.02935
4328.04285,0.02930
4326.11414,0.02891
4324.18542,0.02874
4322.25670,0.02927
4320.32798,0.02995
4318.39927,0.03022
4316.47055,0.03003
4314.54183,0.02959
4312.61311,0.02924
4310.68439,0.02901
4308.75568,0.02871
4306.82696,0.02857
4304.89824,0.02870
4302.96952,0.02875
4301.04080,0.02873
4299.11209,0.02893
4297.18337,0.02916
4295.25465,0.02918
4293.32593,0.02913
4291.39722,0.02890
4289.46850,0.02842
4287.53978,0.02819
4285.61106,0.02854
4283.68234,0.02908
4281.75363,0.02930
4279.82491,0.02923
4277.89619,0.02929
4275.96747,0.02927
4274.03875,0.02891
4272.11004,0.02863
4270.18132,0.02876
4268.25260,0.02914
4266.32388,0.02953
4264.39517,0.02979
4262.46645,0.02990
4260.53773,0.02991
4258.60901,0.02997
4256.68029,0.02999
4254.75158,0.02975
4252.82286,0.02963
4250.89414,0.03009
4248.96542,0.03056
4247.03670,0.03045
4245.10799,0.02998
4243.17927,0.02952
4241.25055,0.02919
4239.32183,0.02904
4237.39312,0.02917
4235.46440,0.02935
4233.53568,0.02934
4231.60696,0.02959
4229.67824,0.03024
4227.74953,0.03043
4225.82081,0.02979
4223.89209,0.02914
4221.96337,0.02898
4220.03465,0.02913
4218.10594,0.02944
4216.17722,0.02949
4214.24850,0.02908
4212.31978,0.02896
4210.39107,0.02945
4208.46235,0.02957
4206.53363,0.02894
4204.60491,0.02866
4202.67619,0.02911
4200.74748,0.02939
4198.81876,0.02922
4196.89004,0.02907
4194.96132,0.02926
4193.03261,0.02957
4191.10389,0.02960
4189.17517,0.02937
4187.24645,0.02913
4185.31773,0.02897
4183.38902,0.02893
4181.46030,0.02914
4179.53158,0.02951
4177.60286,0.02960
4175.67414,0.02945
4173.74543,0.02956
4171.81671,0.02997
4169.88799,0.03019
4167.95927,0.02997
4166.03056,0.02952
4164.10184,0.02902
4162.17312,0.02871
4160.24440,0.02898
4158.31568,0.02954
4156.38697,0.02993
4154.45825,0.03028
4152.52953,0.03053
4150.60081,0.03033
4148.67209,0.02989
4146.74338,0.02961
4144.81466,0.02947
4142.88594,0.02932
4140.95722,0.02923
4139.02851,0.02938
4137.09979,0.02962
4135.17107,0.02958
4133.24235,0.02932
4131.31363,0.02916
4129.38492,0.02918
4127.45620,0.02942
4125.52748,0.02993
4123.59876,0.03015
4121.67004,0.02961
4119.74133,0.02898
4117.81261,0.02897
4115.88389,0.02914
4113.95517,0.02909
4112.02646,0.02917
4110.09774,0.02940
4108.16902,0.02959
4106.24030,0.02959
4104.31158,0.02937
4102.38287,0.02904
4100.45415,0.02855
4098.52543,0.02810
4096.59671,0.02811
4094.66799,0.02845
4092.73928,0.02878
4090.81056,0.02911
4088.88184,0.02942
4086.95312,0.02954
4085.02441,0.02955
4083.09569,0.02949
4081.16697,0.02922
4079.23825,0.02901
4077.30953,0.02912
4075.38082,0.02938
4073.45210,0.02973
4071.52338,0.03011
4069.59466,0.03020
4067.66594,0.02983
4065.73723,0.02930
4063.80851,0.02897
4061.87979,0.02898
4059.95107,0.02922
4058.02236,0.02937
4056.09364,0.02932
4054.16492,0.02923
4052.23620,0.02919
4050.30748,0.02932
4048.37877,0.02950
4046.45005,0.02940
4044.52133,0.02908
4042.59261,0.02879
4040.66389,0.02862
4038.73518,0.02880
4036.80646,0.02931
4034.87774,0.02960
4032.94902,0.02946
4031.02031,0.02939
4029.09159,0.02961
4027.16287,0.02964
4025.23415,0.02916
4023.30543,0.02879
4021.37672,0.02906
4019.44800,0.02931
4017.51928,0.02901
4015.59056,0.02868
4013.66185,0.02882
4011.73313,0.02931
4009.80441,0.02968
4007.87569,0.02961
4005.94697,0.02925
4004.01826,0.02904
4002.08954,0.02916
4000.16082,0.02931
3998.23210,0.02910
3996.30338,0.02868
3994.37467,0.02845
3992.44595,0.02850
3990.51723,0.02873
3988.58851,0.02894
3986.65980,0.02891
3984.73108,0.02879
3982.80236,0.02896
3980.87364,0.02948
3978.94492,0.02993
3977.01621,0.03003
3975.08749,0.02981
3973.15877,0.02957
3971.23005,0.02938
3969.30133,0.02926
3967.37262,0.02948
3965.44390,0.03001
3963.51518,0.03023
3961.58646,0.02985
3959.65775,0.02924
3957.72903,0.02879
3955.80031,0.02876
3953.87159,0.02905
3951.94287,0.02928
3950.01416,0.02928
3948.08544,0.02914
3946.15672,0.02920
3944.22800,0.02947
3942.29928,0.02962
3940.37057,0.02946
3938.44185,0.02918
3936.51313,0.02927
3934.58441,0.02969
3932.65570,0.02970
3930.72698,0.02924
3928.79826,0.02920
3926.86954,0.02965
3924.94082,0.02980
3923.01211,0.02940
3921.08339,0.02907
3919.15467,0.02891
3917.22595,0.02867
3915.29723,0.02853
3913.36852,0.02868
3911.43980,0.02911
3909.51108,0.02957
3907.58236,0.02976
3905.65365,0.02999
3903.72493,0.03031
3901.79621,0.02973
3899.86749,0.02861
3897.93877,0.02837
3896.01006,0.02877
3894.08134,0.02888
3892.15262,0.02852
3890.22390,0.02849
3888.29518,0.02918
3886.36647,0.02980
3884.43775,0.02970
3882.50903,0.02938
3880.58031,0.02912
3878.65160,0.02901
3876.72288,0.02925
3874.79416,0.02947
3872.86544,0.02944
3870.93672,0.02937
3869.00801,0.02944
3867.07929,0.02975
3865.15057,0.02988
3863.22185,0.02944
3861.29313,0.02913
3859.36442,0.02933
3857.43570,0.02965
3855.50698,0.02983
3853.57826,0.02970
3851.64955,0.02977
3849.72083,0.03003
3847.79211,0.02991
3845.86339,0.02979
3843.93467,0.03007
3842.00596,0.03042
3840.07724,0.03000
3838.14852,0.02914
3836.21980,0.02928
3834.29109,0.02974
3832.36237,0.02952
3830.43365,0.02921
3828.50493,0.02926
3826.57621,0.02935
3824.64750,0.02932
3822.71878,0.02895
3820.79006,0.02842
3818.86134,0.02899
3816.93262,0.02994
3815.00391,0.03017
3813.07519,0.02999
3811.14647,0.02976
3809.21775,0.02931
3807.28904,0.02872
3805.36032,0.02875
3803.43160,0.02907
3801.50288,0.02875
3799.57416,0.02852
3797.64545,0.02887
3795.71673,0.02927
3793.78801,0.02947
3791.85929,0.02945
3789.93057,0.02936
3788.00186,0.02947
3786.07314,0.02957
3784.14442,0.02939
3782.21570,0.02912
3780.28699,0.02875
3778.35827,0.02849
3776.42955,0.02868
3774.50083,0.02915
3772.57211,0.02967
3770.64340,0.02990
3768.71468,0.02976
3766.78596,0.02961
3764.85724,0.02951
3762.92852,0.02950
3760.99981,0.02960
3759.07109,0.02954
3757.14237,0.02934
3755.21365,0.02931
3753.28494,0.02928
3751.35622,0.02903
3749.42750,0.02931
3747.49878,0.03004
3745.57006,0.03019
3743.64135,0.02964
3741.71263,0.02955
3739.78391,0.02980
3737.85519,0.02956
3735.92647,0.02840
3733.99776,0.02755
3732.06904,0.02818
3730.14032,0.02909
3728.21160,0.02949
3726.28289,0.02937
3724.35417,0.02898
3722.42545,0.02878
3720.49673,0.02892
3718.56801,0.02913
3716.63930,0.02926
3714.71058,0.02938
3712.78186,0.02921
3710.85314,0.02873
3708.92442,0.02877
3706.99571,0.02906
3705.06699,0.02908
3703.13827,0.02877
3701.20955,0.02845
3699.28084,0.02837
3697.35212,0.02819
3695.42340,0.02788
3693.49468,0.02793
3691.56596,0.02862
3689.63725,0.02893
3687.70853,0.02819
3685.77981,0.02806
3683.85109,0.02847
3681.92237,0.02859
3679.99366,0.02846
3678.06494,0.02855
3676.13622,0.02873
3674.20750,0.02866
3672.27879,0.02899
3670.35007,0.02938
3668.42135,0.02904
3666.49263,0.02876
3664.56391,0.02881
3662.63520,0.02867
3660.70648,0.02844
3658.77776,0.02829
3656.84904,0.02794
3654.92033,0.02774
3652.99161,0.02800
3651.06289,0.02816
3649.13417,0.02774
3647.20545,0.02727
3645.27674,0.02722
3643.34802,0.02732
3641.41930,0.02743
3639.49058,0.02745
3637.56186,0.02738
3635.63315,0.02740
3633.70443,0.02777
3631.77571,0.02819
3629.84699,0.02792
3627.91828,0.02713
3625.98956,0.02703
3624.06084,0.02735
3622.13212,0.02764
3620.20340,0.02752
3618.27469,0.02719
3616.34597,0.02743
3614.41725,0.02787
3612.48853,0.02803
3610.55981,0.02790
3608.63110,0.02728
3606.70238,0.02643
3604.77366,0.02624
3602.84494,0.02646
3600.91623,0.02661
3598.98751,0.02682
3597.05879,0.02729
3595.13007,0.02767
3593.20135,0.02761
3591.27264,0.02739
3589.34392,0.02729
3587.41520,0.02711
3585.48648,0.02686
3583.55776,0.02675
3581.62905,0.02673
3579.70033,0.02686
3577.77161,0.02716
3575.84289,0.02726
3573.91418,0.02713
3571.98546,0.02727
3570.05674,0.02751
3568.12802,0.02720
3566.19930,0.02664
3564.27059,0.02665
3562.34187,0.02667
3560.41315,0.02624
3558.48443,0.02591
3556.55571,0.02606
3554.62700,0.02631
3552.69828,0.02643
3550.76956,0.02661
3548.84084,0.02687
3546.91213,0.02682
3544.98341,0.02641
3543.05469,0.02610
3541.12597,0.02608
3539.19725,0.02617
3537.26854,0.02625
3535.33982,0.02628
3533.41110,0.02627
3531.48238,0.02634
3529.55366,0.02658
3527.62495,0.02670
3525.69623,0.02659
3523.76751,0.02653
3521.83879,0.02653
3519.91008,0.02654
3517.98136,0.02656
3516.05264,0.02644
3514.12392,0.02610
3512.19520,0.02581
3510.26649,0.02589
3508.33777,0.02623
3506.40905,0.02650
3504.48033,0.02656
3502.55161,0.02656
3500.62290,0.02664
3498.69418,0.02667
3496.76546,0.02677
3494.83674,0.02692
3492.90803,0.02667
3490.97931,0.02601
3489.05059,0.02579
3487.12187,0.02612
3485.19315,0.02613
3483.26444,0.02567
3481.33572,0.02532
3479.40700,0.02531
3477.47828,0.02533
3475.54956,0.02518
3473.62085,0.02503
3471.69213,0.02499
3469.76341,0.02498
3467.83469,0.02529
3465.90598,0.02600
3463.97726,0.02642
3462.04854,0.02629
3460.11982,0.02603
3458.19110,0.02584
3456.26239,0.02590
3454.33367,0.02623
3452.40495,0.02632
3450.47623,0.02583
3448.54752,0.02515
3446.61880,0.02499
3444.69008,0.02520
3442.76136,0.02510
3440.83264,0.02480
3438.90393,0.02483
3436.97521,0.02522
3435.04649,0.02570
3433.11777,0.02591
3431.18905,0.02578
3429.26034,0.02563
3427.33162,0.02580
3425.40290,0.02624
3423.47418,0.02660
3421.54547,0.02662
3419.61675,0.02629
3417.68803,0.02591
3415.75931,0.02585
3413.83059,0.02586
3411.90188,0.02565
3409.97316,0.02557
3408.04444,0.02582
3406.11572,0.02602
3404.18700,0.02586
3402.25829,0.02566
3400.32957,0.02572
3398.40085,0.02594
3396.47213,0.02597
3394.54342,0.02568
3392.61470,0.02541
3390.68598,0.02549
3388.75726,0.02566
3386.82854,0.02568
3384.89983,0.02563
3382.97111,0.02548
3381.04239,0.02534
3379.11367,0.02531
3377.18495,0.02507
3375.25624,0.02482
3373.32752,0.02508
3371.39880,0.02556
3369.47008,0.02562
3367.54137,0.02542
3365.61265,0.02534
3363.68393,0.02518
3361.75521,0.02495
3359.82649,0.02504
3357.89778,0.02531
3355.96906,0.02537
3354.04034,0.02515
3352.11162,0.02496
3350.18290,0.02514
3348.25419,0.02538
3346.32547,0.02529
3344.39675,0.02507
3342.46803,0.02498
3340.53932,0.02494
3338.61060,0.02480
3336.68188,0.02456
3334.75316,0.02446
3332.82444,0.02472
3330.89573,0.02526
3328.96701,0.02563
3327.03829,0.02542
3325.10957,0.02512
3323.18085,0.02532
3321.25214,0.02547
3319.32342,0.02505
3317.39470,0.02464
3315.46598,0.02471
3313.53727,0.02493
3311.60855,0.02491
3309.67983,0.02474
3307.75111,0.02460
3305.82239,0.02461
3303.89368,0.02486
3301.96496,0.02527
3300.03624,0.02560
3298.10752,0.02563
3296.17880,0.02563
3294.25009,0.02584
3292.32137,0.02587
3290.39265,0.02551
3288.46393,0.02524
3286.53522,0.02514
3284.60650,0.02493
3282.67778,0.02483
3280.74906,0.02513
3278.82034,0.02559
3276.89163,0.02574
3274.96291,0.02522
3273.03419,0.02456
3271.10547,0.02461
3269.17676,0.02509
3267.24804,0.02547
3265.31932,0.02577
3263.39060,0.02587
3261.46188,0.02584
3259.53317,0.02586
3257.60445,0.02608
3255.67573,0.02653
3253.74701,0.02673
3251.81829,0.02654
3249.88958,0.02613
3247.96086,0.02576
3246.03214,0.02586
3244.10342,0.02624
3242.17471,0.02615
3240.24599,0.02574
3238.31727,0.02563
3236.38855,0.02598
3234.45983,0.02645
3232.53112,0.02642
3230.60240,0.02572
3228.67368,0.02507
3226.74496,0.02495
3224.81624,0.02514
3222.88753,0.02535
3220.95881,0.02551
3219.03009,0.02566
3217.10137,0.02569
3215.17266,0.02564
3213.24394,0.02575
3211.31522,0.02609
3209.38650,0.02659
3207.45778,0.02696
3205.52907,0.02673
3203.60035,0.02629
3201.67163,0.02633
3199.74291,0.02675
3197.81419,0.02711
3195.88548,0.02695
3193.95676,0.02629
3192.02804,0.02581
3190.09932,0.02589
3188.17061,0.02603
3186.24189,0.02587
3184.31317,0.02574
3182.38445,0.02584
3180.45573,0.02583
3178.52702,0.02576
3176.59830,0.02615
3174.66958,0.02663
3172.74086,0.02658
3170.81214,0.02623
3168.88343,0.02606
3166.95471,0.02601
3165.02599,0.02611
3163.09727,0.02652
3161.16856,0.02686
3159.23984,0.02694
3157.31112,0.02699
3155.38240,0.02684
3153.45368,0.02646
3151.52497,0.02629
3149.59625,0.02651
3147.66753,0.02679
3145.73881,0.02676
3143.81009,0.02670
3141.88138,0.02698
3139.95266,0.02712
3138.02394,0.02683
3136.09522,0.02662
3134.16651,0.02667
3132.23779,0.02674
3130.30907,0.02666
3128.38035,0.02642
3126.45163,0.02630
3124.52292,0.02628
3122.59420,0.02624
3120.66548,0.02641
3118.73676,0.02655
3116.80804,0.02653
3114.87933,0.02660
3112.95061,0.02659
3111.02189,0.02650
3109.09317,0.02648
3107.16446,0.02637
3105.23574,0.02645
3103.30702,0.02672
3101.37830,0.02657
3099.44958,0.02622
3097.52087,0.02632
3095.59215,0.02670
3093.66343,0.02692
3091.73471,0.02698
3089.80600,0.02689
3087.87728,0.02643
3085.94856,0.02576
3084.01984,0.02543
3082.09112,0.02558
3080.16241,0.02588
3078.23369,0.02612
3076.30497,0.02636
3074.37625,0.02662
3072.44753,0.02670
3070.51882,0.02669
3068.59010,0.02662
3066.66138,0.02627
3064.73266,0.02587
3062.80395,0.02580
3060.87523,0.02586
3058.94651,0.02593
3057.01779,0.02603
3055.08907,0.02611
3053.16036,0.02620
3051.23164,0.02642
3049.30292,0.02679
3047.37420,0.02699
3045.44548,0.02676
3043.51677,0.02644
3041.58805,0.02634
3039.65933,0.02638
3037.73061,0.02625
3035.80190,0.02591
3033.87318,0.02566
3031.94446,0.02567
3030.01574,0.02577
3028.08702,0.02578
3026.15831,0.02573
3024.22959,0.02585
3022.30087,0.02616
3020.37215,0.02625
3018.44343,0.02612
3016.51472,0.02618
3014.58600,0.02643
3012.65728,0.02651
3010.72856,0.02651
3008.79985,0.02652
3006.87113,0.02634
3004.94241,0.02604
3003.01369,0.02580
3001.08497,0.02564
2999.15626,0.02572
2997.22754,0.02596
2995.29882,0.02601
2993.37010,0.02580
2991.44138,0.02557
2989.51267,0.02551
2987.58395,0.02551
2985.65523,0.02545
2983.72651,0.02543
2981.79780,0.02550
2979.86908,0.02557
2977.94036,0.02564
2976.01164,0.02558
2974.08292,0.02525
2972.15421,0.02500
2970.22549,0.02506
2968.29677,0.02511
2966.36805,0.02504
2964.43933,0.02496
2962.51062,0.02482
2960.58190,0.02478
2958.65318,0.02489
2956.72446,0.02485
2954.79575,0.02461
2952.86703,0.02460
2950.93831,0.02499
2949.00959,0.02538
2947.08087,0.02533
2945.15216,0.02501
2943.22344,0.02482
2941.29472,0.02485
2939.36600,0.02508
2937.43728,0.02529
2935.50857,0.02525
2933.57985,0.02521
2931.65113,0.02527
2929.72241,0.02522
2927.79370,0.02513
2925.86498,0.02523
2923.93626,0.02546
2922.00754,0.02574
2920.07882,0.02599
2918.15011,0.02614
2916.22139,0.02600
2914.29267,0.02571
2912.36395,0.02561
2910.43524,0.02552
2908.50652,0.02529
2906.57780,0.02522
2904.64908,0.02544
2902.72036,0.02585
2900.79165,0.02612
2898.86293,0.02592
2896.93421,0.02559
2895.00549,0.02560
2893.07677,0.02579
2891.14806,0.02593
2889.21934,0.02605
2887.29062,0.02608
2885.36190,0.02594
2883.43319,0.02587
2881.50447,0.02601
2879.57575,0.02617
2877.64703,0.02614
2875.71831,0.02593
2873.78960,0.02577
2871.86088,0.02580
2869.93216,0.02593
2868.00344,0.02607
2866.07472,0.02613
2864.14601,0.02608
2862.21729,0.02598
2860.28857,0.02587
2858.35985,0.02578
2856.43114,0.02574
2854.50242,0.02576
2852.57370,0.02584
2850.64498,0.02588
2848.71626,0.02582
2846.78755,0.02584
2844.85883,0.02607
2842.93011,0.02635
2841.00139,0.02663
2839.07267,0.02688
2837.14396,0.02685
2835.21524,0.02659
2833.28652,0.02648
2831.35780,0.02666
2829.42909,0.02696
2827.50037,0.02716
2825.57165,0.02712
2823.64293,0.02696
2821.71421,0.02664
2819.78550,0.02618
2817.85678,0.02600
2815.92806,0.02621
2813.99934,0.02646
2812.07062,0.02654
2810.14191,0.02651
2808.21319,0.02649
2806.28447,0.02654
2804.35575,0.02654
2802.42704,0.02652
2800.49832,0.02654
2798.56960,0.02652
2796.64088,0.02650
2794.71216,0.02653
2792.78345,0.02662
2790.85473,0.02673
2788.92601,0.02678
2786.99729,0.02678
2785.06857,0.02676
2783.13986,0.02669
2781.21114,0.02655
2779.28242,0.02639
2777.35370,0.02639
2775.42499,0.02662
2773.49627,0.02700
2771.56755,0.02713
2769.63883,0.02688
2767.71011,0.02671
2765.78140,0.02677
2763.85268,0.02682
2761.92396,0.02684
2759.99524,0.02680
2758.06652,0.02667
2756.13781,0.02662
2754.20909,0.02672
2752.28037,0.02679
2750.35165,0.02667
2748.42294,0.02650
2746.49422,0.02648
2744.56550,0.02653
2742.63678,0.02649
2740.70806,0.02644
2738.77935,0.02644
2736.85063,0.02648
2734.92191,0.02655
2732.99319,0.02671
2731.06448,0.02693
2729.13576,0.02695
2727.20704,0.02684
2725.27832,0.02688
2723.34960,0.02704
2721.42089,0.02694
2719.49217,0.02649
2717.56345,0.02615
2715.63473,0.02627
2713.70601,0.02656
2711.77730,0.02678
2709.84858,0.02682
2707.91986,0.02655
2705.99114,0.02631
2704.06243,0.02645
2702.13371,0.02663
2700.20499,0.02664
2698.27627,0.02652
2696.34755,0.02634
2694.41884,0.02634
2692.49012,0.02657
2690.56140,0.02673
2688.63268,0.02671
2686.70396,0.02661
2684.77525,0.02660
2682.84653,0.02656
2680.91781,0.02634
2678.98909,0.02620
2677.06038,0.02631
2675.13166,0.02645
2673.20294,0.02650
2671.27422,0.02648
2669.34550,0.02649
2667.41679,0.02662
2665.48807,0.02673
2663.55935,0.02659
2661.63063,0.02637
2659.70191,0.02634
2657.77320,0.02635
2655.84448,0.02625
2653.91576,0.02624
2651.98704,0.02645
2650.05833,0.02665
2648.12961,0.02660
2646.20089,0.02648
2644.27217,0.02648
2642.34345,0.02649
2640.41474,0.02651
2638.48602,0.02665
2636.55730,0.02671
2634.62858,0.02655
2632.69986,0.02643
2630.77115,0.02639
2628.84243,0.02628
2626.91371,0.02624
2624.98499,0.02640
2623.05628,0.02648
2621.12756,0.02632
2619.19884,0.02611
2617.27012,0.02608
2615.34140,0.02618
2613.41269,0.02632
2611.48397,0.02642
2609.55525,0.02647
2607.62653,0.02657
2605.69781,0.02661
2603.76910,0.02642
2601.84038,0.02622
2599.91166,0.02638
2597.98294,0.02671
2596.05423,0.02674
2594.12551,0.02652
2592.19679,0.02645
2590.26807,0.02650
2588.33935,0.02643
2586.41064,0.02628
2584.48192,0.02623
2582.55320,0.02622
2580.62448,0.02621
2578.69576,0.02623
2576.76705,0.02631
2574.83833,0.02640
2572.90961,0.02650
2570.98089,0.02668
2569.05218,0.02686
2567.12346,0.02681
2565.19474,0.02672
2563.26602,0.02669
2561.33730,0.02660
2559.40859,0.02648
2557.47987,0.02651
2555.55115,0.02656
2553.62243,0.02645
2551.69372,0.02636
2549.76500,0.02643
2547.83628,0.02653
2545.90756,0.02653
2543.97884,0.02636
2542.05013,0.02613
2540.12141,0.02610
2538.19269,0.02622
2536.26397,0.02641
2534.33525,0.02651
2532.40654,0.02642
2530.47782,0.02634
2528.54910,0.02639
2526.62038,0.02643
2524.69167,0.02631
2522.76295,0.02614
2520.83423,0.02609
2518.90551,0.02611
2516.97679,0.02613
2515.04808,0.02605
2513.11936,0.02596
2511.19064,0.02601
2509.26192,0.02612
2507.33320,0.02624
2505.40449,0.02639
2503.47577,0.02654
2501.54705,0.02666
2499.61833,0.02674
2497.68962,0.02660
2495.76090,0.02626
2493.83218,0.02611
2491.90346,0.02620
2489.97474,0.02627
2488.04603,0.02622
2486.11731,0.02612
2484.18859,0.02602
2482.25987,0.02597
2480.33115,0.02604
2478.40244,0.02618
2476.47372,0.02619
2474.54500,0.02608
2472.61628,0.02608
2470.68757,0.02624
2468.75885,0.02625
2466.83013,0.02604
2464.90141,0.02593
2462.97269,0.02596
2461.04398,0.02603
2459.11526,0.02616
2457.18654,0.02637
2455.25782,0.02659
2453.32910,0.02670
2451.40039,0.02667
2449.47167,0.02658
2447.54295,0.02653
2445.61423,0.02653
2443.68552,0.02648
2441.75680,0.02639
2439.82808,0.02630
2437.89936,0.02624
2435.97064,0.02624
2434.04193,0.02631
2432.11321,0.02646
2430.18449,0.02660
2428.25577,0.02650
2426.32705,0.02631
2424.39834,0.02636
2422.46962,0.02649
2420.54090,0.02641
2418.61218,0.02626
2416.68347,0.02613
2414.75475,0.02597
2412.82603,0.02591
2410.89731,0.02602
2408.96859,0.02616
2407.03988,0.02627
2405.11116,0.02625
2403.18244,0.02615
2401.25372,0.02619
2399.32500,0.02635
2397.39629,0.02638
2395.46757,0.02616
2393.53885,0.02580
2391.61013,0.02555
2389.68142,0.02551
2387.75270,0.02565
2385.82398,0.02600
2383.89526,0.02645
2381.96654,0.02674
2380.03783,0.02672
2378.10911,0.02656
2376.18039,0.02643
2374.25167,0.02632
2372.32296,0.02629
2370.39424,0.02636
2368.46552,0.02652
2366.53680,0.02655
2364.60808,0.02618
2362.67937,0.02587
2360.75065,0.02610
2358.82193,0.02639
2356.89321,0.02633
2354.96449,0.02610
2353.03578,0.02592
2351.10706,0.02596
2349.17834,0.02624
2347.24962,0.02662
2345.32091,0.02694
2343.39219,0.02700
2341.46347,0.02674
2339.53475,0.02645
2337.60603,0.02634
2335.67732,0.02643
2333.74860,0.02675
2331.81988,0.02697
2329.89116,0.02672
2327.96244,0.02626
2326.03373,0.02599
2324.10501,0.02597
2322.17629,0.02602
2320.24757,0.02596
2318.31886,0.02589
2316.39014,0.02598
2314.46142,0.02601
2312.53270,0.02582
2310.60398,0.02567
2308.67527,0.02580
2306.74655,0.02596
2304.81783,0.02589
2302.88911,0.02583
2300.96039,0.02595
2299.03168,0.02602
2297.10296,0.02586
2295.17424,0.02574
2293.24552,0.02591
2291.31681,0.02622
2289.38809,0.02634
2287.45937,0.02618
2285.53065,0.02605
2283.60193,0.02615
2281.67322,0.02619
2279.74450,0.02598
2277.81578,0.02572
2275.88706,0.02552
2273.95834,0.02530
2272.02963,0.02523
2270.10091,0.02534
2268.17219,0.02546
2266.24347,0.02556
2264.31476,0.02565
2262.38604,0.02567
2260.45732,0.02566
2258.52860,0.02569
2256.59988,0.02575
2254.67117,0.02582
2252.74245,0.02588
2250.81373,0.02591
2248.88501,0.02582
2246.95629,0.02577
2245.02758,0.02589
2243.09886,0.02597
2241.17014,0.02588
2239.24142,0.02582
2237.31271,0.02582
2235.38399,0.02563
2233.45527,0.02541
2231.52655,0.02546
2229.59783,0.02557
2227.66912,0.02561
2225.74040,0.02567
2223.81168,0.02558
2221.88296,0.02538
2219.95424,0.02540
2218.02553,0.02555
2216.09681,0.02548
2214.16809,0.02533
2212.23937,0.02533
2210.31066,0.02541
2208.38194,0.02552
2206.45322,0.02568
2204.52450,0.02576
2202.59578,0.02573
2200.66707,0.02579
2198.73835,0.02588
2196.80963,0.02587
2194.88091,0.02590
2192.95220,0.02600
2191.02348,0.02600
2189.09476,0.02582
2187.16604,0.02560
2185.23732,0.02548
2183.30861,0.02538
2181.37989,0.02527
2179.45117,0.02521
2177.52245,0.02521
2175.59373,0.02518
2173.66502,0.02509
2171.73630,0.02506
2169.80758,0.02510
2167.87886,0.02514
2165.95015,0.02512
2164.02143,0.02510
2162.09271,0.02517
2160.16399,0.02523
2158.23527,0.02514
2156.30656,0.02504
2154.37784,0.02510
2152.44912,0.02528
2150.52040,0.02549
2148.59168,0.02557
2146.66297,0.02552
2144.73425,0.02551
2142.80553,0.02547
2140.87681,0.02533
2138.94810,0.02528
2137.01938,0.02533
2135.09066,0.02524
2133.16194,0.02506
2131.23322,0.02503
2129.30451,0.02526
2127.37579,0.02562
2125.44707,0.02587
2123.51835,0.02582
2121.58963,0.02548
2119.66092,0.02516
2117.73220,0.02509
2115.80348,0.02520
2113.87476,0.02532
2111.94605,0.02541
2110.01733,0.02547
2108.08861,0.02551
2106.15989,0.02561
2104.23117,0.02569
2102.30246,0.02562
2100.37374,0.02538
2098.44502,0.02514
2096.51630,0.02507
2094.58758,0.02514
2092.65887,0.02521
2090.73015,0.02522
2088.80143,0.02527
2086.87271,0.02536
2084.94400,0.02539
2083.01528,0.02527
2081.08656,0.02517
2079.15784,0.02524
2077.22912,0.02523
2075.30041,0.02514
2073.37169,0.02522
2071.44297,0.02531
2069.51425,0.02527
2067.58553,0.02517
2065.65682,0.02498
2063.72810,0.02483
2061.79938,0.02495
2059.87066,0.02514
2057.94195,0.02516
2056.01323,0.02504
2054.08451,0.02486
2052.15579,0.02470
2050.22707,0.02472
2048.29836,0.02494
2046.36964,0.02520
2044.44092,0.02535
2042.51220,0.02536
2040.58348,0.02523
2038.65477,0.02503
2036.72605,0.02488
2034.79733,0.02488
2032.86861,0.02493
2030.93990,0.02495
2029.01118,0.02491
2027.08246,0.02482
2025.15374,0.02478
2023.22502,0.02480
2021.29631,0.02487
2019.36759,0.02508
2017.43887,0.02532
2015.51015,0.02539
2013.58143,0.02540
2011.65272,0.02543
2009.72400,0.02536
2007.79528,0.02520
2005.86656,0.02505
2003.93785,0.02505
2002.00913,0.02520
2000.08041,0.02525
1998.15169,0.02516
1996.22297,0.02511
1994.29426,0.02516
1992.36554,0.02517
1990.43682,0.02515
1988.50810,0.02518
1986.57939,0.02514
1984.65067,0.02499
1982.72195,0.02489
1980.79323,0.02488
1978.86451,0.02493
1976.93580,0.02502
1975.00708,0.02504
1973.07836,0.02498
1971.14964,0.02498
1969.22092,0.02506
1967.29221,0.02513
1965.36349,0.02508
1963.43477,0.02498
1961.50605,0.02485
1959.57734,0.02471
1957.64862,0.02471
1955.71990,0.02483
1953.79118,0.02483
1951.86246,0.02475
1949.93375,0.02476
1948.00503,0.02481
1946.07631,0.02487
1944.14759,0.02499
1942.21887,0.02518
1940.29016,0.02531
1938.36144,0.02526
1936.43272,0.02522
1934.50400,0.02526
1932.57529,0.02519
1930.64657,0.02502
1928.71785,0.02492
1926.78913,0.02493
1924.86041,0.02489
1922.93170,0.02470
1921.00298,0.02457
1919.07426,0.02471
1917.14554,0.02489
1915.21682,0.02486
1913.28811,0.02484
1911.35939,0.02490
1909.43067,0.02483
1907.50195,0.02461
1905.57324,0.02449
1903.64452,0.02455
1901.71580,0.02466
1899.78708,0.02472
1897.85836,0.02464
1895.92965,0.02446
1894.00093,0.02437
1892.07221,0.02443
1890.14349,0.02458
1888.21477,0.02482
1886.28606,0.02494
1884.35734,0.02482
1882.42862,0.02464
1880.49990,0.02449
1878.57119,0.02433
1876.64247,0.02420
1874.71375,0.02418
1872.78503,0.02436
1870.85631,0.02455
1868.92760,0.02443
1866.99888,0.02417
1865.07016,0.02417
1863.14144,0.02421
1861.21272,0.02415
1859.28401,0.02413
1857.35529,0.02416
1855.42657,0.02412
1853.49785,0.02409
1851.56914,0.02415
1849.64042,0.02413
1847.71170,0.02406
1845.78298,0.02413
1843.85426,0.02406
1841.92555,0.02378
1839.99683,0.02378
1838.06811,0.02400
1836.13939,0.02415
1834.21067,0.02424
1832.28196,0.02428
1830.35324,0.02410
1828.42452,0.02389
1826.49580,0.02394
1824.56709,0.02392
1822.63837,0.02376
1820.70965,0.02373
1818.78093,0.02379
1816.85221,0.02373
1814.92350,0.02351
1812.99478,0.02330
1811.06606,0.02317
1809.13734,0.02315
1807.20863,0.02322
1805.27991,0.02336
1803.35119,0.02351
1801.42247,0.02345
1799.49375,0.02325
1797.56504,0.02321
1795.63632,0.02327
1793.70760,0.02330
1791.77888,0.02317
1789.85016,0.02302
1787.92145,0.02294
1785.99273,0.02286
1784.06401,0.02289
1782.13529,0.02282
1780.20658,0.02239
1778.27786,0.02214
1776.34914,0.02232
1774.42042,0.02245
1772.49170,0.02228
1770.56299,0.02202
1768.63427,0.02179
1766.70555,0.02162
1764.77683,0.02165
1762.84811,0.02170
1760.91940,0.02158
1758.99068,0.02151
1757.06196,0.02140
1755.13324,0.02116
1753.20453,0.02111
1751.27581,0.02124
1749.34709,0.02127
1747.41837,0.02119
1745.48965,0.02123
1743.56094,0.02145
1741.63222,0.02169
1739.70350,0.02196
1737.77478,0.02246
1735.84606,0.02297
1733.91735,0.02296
1731.98863,0.02283
1730.05991,0.02315
1728.13119,0.02347
1726.20248,0.02367
1724.27376,0.02385
1722.34504,0.02402
1720.41632,0.02416
1718.48760,0.02421
1716.55889,0.02406
1714.63017,0.02380
1712.70145,0.02377
1710.77273,0.02390
1708.84401,0.02405
1706.91530,0.02402
1704.98658,0.02366
1703.05786,0.02332
1701.12914,0.02301
1699.20043,0.02259
1697.27171,0.02240
1695.34299,0.02221
1693.41427,0.02212
1691.48555,0.02223
1689.55684,0.02243
1687.62812,0.02263
1685.69940,0.02255
1683.77068,0.02186
1681.84196,0.02136
1679.91325,0.02134
1677.98453,0.02140
1676.05581,0.02147
1674.12709,0.02164
1672.19838,0.02192
1670.26966,0.02198
1668.34094,0.02161
1666.41222,0.02128
1664.48350,0.02103
1662.55479,0.02068
1660.62607,0.02060
1658.69735,0.02092
1656.76863,0.02122
1654.83991,0.02103
1652.91120,0.02038
1650.98248,0.02077
1649.05376,0.02152
1647.12504,0.02169
1645.19633,0.02120
1643.26761,0.02111
1641.33889,0.02138
1639.41017,0.02164
1637.48145,0.02169
1635.55274,0.02136
1633.62402,0.02114
1631.69530,0.02127
1629.76658,0.02153
1627.83787,0.02179
1625.90915,0.02195
1623.98043,0.02190
1622.05171,0.02158
1620.12299,0.02139
1618.19428,0.02133
1616.26556,0.02110
1614.33684,0.02098
1612.40812,0.02122
1610.47940,0.02162
1608.55069,0.02187
1606.62197,0.02190
1604.69325,0.02194
1602.76453,0.02197
1600.83582,0.02188
1598.90710,0.02178
1596.97838,0.02171
1595.04966,0.02160
1593.12094,0.02138
1591.19223,0.02109
1589.26351,0.02092
1587.33479,0.02095
1585.40607,0.02109
1583.47735,0.02121
1581.54864,0.02123
1579.61992,0.02134
1577.69120,0.02153
1575.76248,0.02145
1573.83377,0.02136
1571.90505,0.02148
1569.97633,0.02129
1568.04761,0.02073
1566.11889,0.02051
1564.19018,0.02076
1562.26146,0.02126
1560.33274,0.02151
1558.40402,0.02094
1556.47530,0.02071
1554.54659,0.02084
1552.61787,0.02077
1550.68915,0.02057
1548.76043,0.02057
1546.83172,0.02092
1544.90300,0.02133
1542.97428,0.02152
1541.04556,0.02150
1539.11684,0.02153
1537.18813,0.02171
1535.25941,0.02177
1533.33069,0.02159
1531.40197,0.02157
1529.47325,0.02172
1527.54454,0.02163
1525.61582,0.02124
1523.68710,0.02098
1521.75838,0.02108
1519.82967,0.02165
1517.90095,0.02210
1515.97223,0.02205
1514.04351,0.02177
1512.11479,0.02163
1510.18608,0.02168
1508.25736,0.02172
1506.32864,0.02125
1504.39992,0.02103
1502.47120,0.02124
1500.54249,0.02145
1498.61377,0.02138
1496.68505,0.02105
1494.75633,0.02106
1492.82762,0.02141
1490.89890,0.02166
1488.97018,0.02152
1487.04146,0.02120
1485.11274,0.02116
1483.18403,0.02129
1481.25531,0.02127
1479.32659,0.02113
1477.39787,0.02119
1475.46915,0.02135
1473.54044,0.02105
1471.61172,0.02046
1469.68300,0.02041
1467.75428,0.02065
1465.82557,0.02085
1463.89685,0.02102
1461.96813,0.02129
1460.03941,0.02152
1458.11069,0.02132
1456.18198,0.02068
1454.25326,0.02048
1452.32454,0.02058
1450.39582,0.02084
1448.46711,0.02113
1446.53839,0.02114
1444.60967,0.02096
1442.68095,0.02083
1440.75223,0.02088
1438.82352,0.02111
1436.89480,0.02115
1434.96608,0.02083
1433.03736,0.02065
1431.10864,0.02059
1429.17993,0.02059
1427.25121,0.02079
1425.32249,0.02103
1423.39377,0.02108
1421.46506,0.02111
1419.53634,0.02107
1417.60762,0.02079
1415.67890,0.02064
1413.75018,0.02049
1411.82147,0.02018
1409.89275,0.02009
1407.96403,0.02031
1406.03531,0.02045
1404.10659,0.02044
1402.17788,0.02054
1400.24916,0.02072
1398.32044,0.02082
1396.39172,0.02072
1394.46301,0.02044
1392.53429,0.02026
1390.60557,0.02022
1388.67685,0.02019
1386.74813,0.02021
1384.81942,0.02036
1382.89070,0.02045
1380.96198,0.02034
1379.03326,0.02027
1377.10454,0.02031
1375.17583,0.02037
1373.24711,0.02042
1371.31839,0.02044
1369.38967,0.02039
1367.46096,0.02023
1365.53224,0.02000
1363.60352,0.01966
1361.67480,0.01933
1359.74608,0.01940
1357.81737,0.01973
1355.88865,0.01993
1353.95993,0.01988
1352.03121,0.01980
1350.10249,0.01988
1348.17378,0.02001
1346.24506,0.01996
1344.31634,0.01979
1342.38762,0.01976
1340.45891,0.01979
1338.53019,0.01960
1336.60147,0.01946
1334.67275,0.01956
1332.74403,0.01966
1330.81532,0.01966
1328.88660,0.01958
1326.95788,0.01932
1325.02916,0.01910
1323.10044,0.01904
1321.17173,0.01892
1319.24301,0.01877
1317.31429,0.01878
1315.38557,0.01885
1313.45686,0.01887
1311.52814,0.01892
1309.59942,0.01902
1307.67070,0.01916
1305.74198,0.01931
1303.81327,0.01941
1301.88455,0.01941
1299.95583,0.01941
1298.02711,0.01949
1296.09839,0.01965
1294.16968,0.01977
1292.24096,0.01978
1290.31224,0.01986
1288.38352,0.02014
1286.45481,0.02028
1284.52609,0.02020
1282.59737,0.02022
1280.66865,0.02049
1278.73993,0.02085
1276.81122,0.02107
1274.88250,0.02112
1272.95378,0.02116
1271.02506,0.02123
1269.09635,0.02126
1267.16763,0.02123
1265.23891,0.02134
1263.31019,0.02167
1261.38147,0.02208
1259.45276,0.02238
1257.52404,0.02249
1255.59532,0.02236
1253.66660,0.02199
1251.73788,0.02169
1249.80917,0.02167
1247.88045,0.02175
1245.95173,0.02184
1244.02301,0.02185
1242.09430,0.02167
1240.16558,0.02150
1238.23686,0.02147
1236.30814,0.02135
1234.37942,0.02118
1232.45071,0.02112
1230.52199,0.02111
1228.59327,0.02119
1226.66455,0.02128
1224.73583,0.02119
1222.80712,0.02112
1220.87840,0.02127
1218.94968,0.02137
1217.02096,0.02110
1215.09225,0.02083
1213.16353,0.02081
1211.23481,0.02074
1209.30609,0.02061
1207.37737,0.02057
1205.44866,0.02053
1203.51994,0.02048
1201.59122,0.02052
1199.66250,0.02051
1197.73378,0.02027
1195.80507,0.02001
1193.87635,0.02008
1191.94763,0.02031
1190.01891,0.02036
1188.09020,0.02014
1186.16148,0.01973
1184.23276,0.01945
1182.30404,0.01940
1180.37532,0.01959
1178.44661,0.01995
1176.51789,0.02017
1174.58917,0.02003
1172.66045,0.01986
1170.73173,0.01971
1168.80302,0.01933
1166.87430,0.01900
1164.94558,0.01903
1163.01686,0.01910
1161.08815,0.01900
1159.15943,0.01896
1157.23071,0.01902
1155.30199,0.01914
1153.37327,0.01920
1151.44456,0.01915
1149.51584,0.01910
1147.58712,0.01917
1145.65840,0.01930
1143.72968,0.01936
1141.80097,0.01926
1139.87225,0.01909
1137.94353,0.01921
1136.01481,0.01969
1134.08610,0.02010
1132.15738,0.02024
1130.22866,0.02025
1128.29994,0.02027
1126.37122,0.02050
1124.44251,0.02083
1122.51379,0.02097
1120.58507,0.02104
1118.65635,0.02115
1116.72763,0.02123
1114.79892,0.02126
1112.87020,0.02126
1110.94148,0.02120
1109.01276,0.02105
1107.08405,0.02095
1105.15533,0.02098
1103.22661,0.02100
1101.29789,0.02091
1099.36917,0.02089
1097.44046,0.02109
1095.51174,0.02136
1093.58302,0.02134
1091.65430,0.02107
1089.72559,0.02106
1087.79687,0.02141
1085.86815,0.02152
1083.93943,0.02111
1082.01071,0.02092
1080.08200,0.02153
1078.15328,0.02234
1076.22456,0.02276
1074.29584,0.02287
1072.36712,0.02283
1070.43841,0.02282
1068.50969,0.02285
1066.58097,0.02276
1064.65225,0.02251
1062.72354,0.02230
1060.79482,0.02220
1058.86610,0.02223
1056.93738,0.02235
1055.00866,0.02249
1053.07995,0.02275
1051.15123,0.02301
1049.22251,0.02287
1047.29379,0.02237
1045.36507,0.02199
1043.43636,0.02210
1041.50764,0.02249
1039.57892,0.02275
1037.65020,0.02267
1035.72149,0.02226
1033.79277,0.02185
1031.86405,0.02191
1029.93533,0.02222
1028.00661,0.02226
1026.07790,0.02214
1024.14918,0.02221
1022.22046,0.02236
1020.29174,0.02244
1018.36302,0.02243
1016.43431,0.02249
1014.50559,0.02281
1012.57687,0.02302
1010.64815,0.02284
1008.71944,0.02270
1006.79072,0.02288
1004.86200,0.02306
1002.93328,0.02311
1001.00456,0.02322
999.07585,0.02334
997.14713,0.02326
995.21841,0.02299
993.28969,0.02266
991.36097,0.02246
989.43226,0.02259
987.50354,0.02299
985.57482,0.02343
983.64610,0.02355
981.71739,0.02343
979.78867,0.02335
977.85995,0.02318
975.93123,0.02307
974.00251,0.02317
972.07380,0.02305
970.14508,0.02276
968.21636,0.02283
966.28764,0.02311
964.35892,0.02305
962.43021,0.02275
960.50149,0.02270
958.57277,0.02282
956.64405,0.02289
954.71534,0.02303
952.78662,0.02308
950.85790,0.02277
948.92918,0.02245
947.00046,0.02236
945.07175,0.02226
943.14303,0.02222
941.21431,0.02234
939.28559,0.02227
937.35687,0.02195
935.42816,0.02173
933.49944,0.02179
931.57072,0.02197
929.64200,0.02196
927.71329,0.02177
925.78457,0.02179
923.85585,0.02194
921.92713,0.02179
919.99841,0.02134
918.06970,0.02093
916.14098,0.02091
914.21226,0.02126
912.28354,0.02169
910.35483,0.02174
908.42611,0.02134
906.49739,0.02104
904.56867,0.02105
902.63995,0.02114
900.71124,0.02111
898.78252,0.02109
896.85380,0.02155
894.92508,0.02210
892.99636,0.02212
891.06765,0.02173
889.13893,0.02128
887.21021,0.02119
885.28149,0.02157
883.35278,0.02175
881.42406,0.02137
879.49534,0.02110
877.56662,0.02117
875.63790,0.02111
873.70919,0.02082
871.78047,0.02073
869.85175,0.02103
867.92303,0.02146
865.99431,0.02159
864.06560,0.02122
862.13688,0.02068
860.20816,0.02065
858.27944,0.02093
856.35073,0.02103
854.42201,0.02109
852.49329,0.02127
850.56457,0.02142
848.63585,0.02146
846.70714,0.02145
844.77842,0.02143
842.84970,0.02145
840.92098,0.02134
838.99226,0.02099
837.06355,0.02065
835.13483,0.02043
833.20611,0.02043
831.27739,0.02081
829.34868,0.02106
827.41996,0.02060
825.49124,0.02018
823.56252,0.02066
821.63380,0.02132
819.70509,0.02123
817.77637,0.02082
815.84765,0.02079
813.91893,0.02096
811.99021,0.02086
810.06150,0.02057
808.13278,0.02048
806.20406,0.02047
804.27534,0.02029
802.34663,0.02017
800.41791,0.02023
798.48919,0.02024
796.56047,0.02020
794.63175,0.02034
792.70304,0.02049
790.77432,0.02037
788.84560,0.02037
786.91688,0.02065
784.98816,0.02044
783.05945,0.01974
781.13073,0.01931
779.20201,0.01917
777.27329,0.01906
775.34458,0.01928
773.41586,0.01997
771.48714,0.02045
769.55842,0.02021
767.62970,0.01973
765.70099,0.01959
763.77227,0.01980
761.84355,0.01982
759.91483,0.01928
757.98611,0.01871
756.05740,0.01884
754.12868,0.01926
752.19996,0.01917
750.27124,0.01897
748.34253,0.01937
746.41381,0.01979
744.48509,0.01955
742.55637,0.01923
740.62765,0.01924
738.69894,0.01902
736.77022,0.01871
734.84150,0.01882
732.91278,0.01901
730.98407,0.01910
729.05535,0.01939
727.12663,0.01962
725.19791,0.01933
723.26919,0.01896
721.34048,0.01923
719.41176,0.01977
717.48304,0.01968
715.55432,0.01912
713.62560,0.01899
711.69689,0.01924
709.76817,0.01904
707.83945,0.01838
705.91073,0.01811
703.98202,0.01814
702.05330,0.01790
700.12458,0.01805
698.19586,0.01884
696.26714,0.01924
694.33843,0.01893
692.40971,0.01831
690.48099,0.01790
688.55227,0.01808
686.62355,0.01858
684.69484,0.01871
682.76612,0.01835
680.83740,0.01814
678.90868,0.01826
676.97997,0.01811
675.05125,0.01744
673.12253,0.01683
671.19381,0.01679
669.26509,0.01696
667.33638,0.01688
665.40766,0.01688
663.47894,0.01714
661.55022,0.01745
659.62150,0.01767
657.69279,0.01776
655.76407,0.01772
653.83535,0.01743
651.90663,0.01732
649.97792,0.01769
648.04920,0.01795
646.12048,0.01772
644.19176,0.01780
642.26304,0.01826
640.33433,0.01801
638.40561,0.01720
636.47689,0.01673
634.54817,0.01648
632.61945,0.01638
630.69074,0.01670
628.76202,0.01750
626.83330,0.01811
624.90458,0.01796
622.97587,0.01746
621.04715,0.01750
619.11843,0.01834
617.18971,0.01927
615.26099,0.01948
613.33228,0.01916
611.40356,0.01883
609.47484,0.01837
607.54612,0.01726
605.61740,0.01641
603.68869,0.01686
601.75997,0.01775
599.83125,0.01798
