7496.90619,0.93639
7494.97747,0.93810
7493.04876,0.93689
7491.12005,0.93760
7489.19134,0.93986
7487.26262,0.93745
7485.33391,0.93262
7483.40520,0.93450
7481.47648,0.94024
7479.54777,0.94144
7477.61906,0.93790
7475.69035,0.93528
7473.76163,0.93785
7471.83292,0.94190
7469.90421,0.94068
7467.97550,0.93449
7466.04678,0.92992
7464.11807,0.92821
7462.18936,0.92619
7460.26065,0.92942
7458.33193,0.94142
7456.40322,0.95265
7454.47451,0.95585
7452.54579,0.95473
7450.61708,0.95253
7448.68837,0.94582
7446.75966,0.93530
7444.83094,0.93015
7442.90223,0.93286
7440.97352,0.93609
7439.04481,0.93899
7437.11609,0.94617
7435.18738,0.95285
7433.25867,0.95162
7431.32996,0.94632
7429.40124,0.94173
7427.47253,0.93664
7425.54382,0.93418
7423.61510,0.93372
7421.68639,0.92821
7419.75768,0.92273
7417.82897,0.92693
7415.90025,0.93610
7413.97154,0.94131
7412.04283,0.94512
7410.11412,0.95041
7408.18540,0.95263
7406.25669,0.95059
7404.32798,0.94712
7402.39927,0.94697
7400.47055,0.95109
7398.54184,0.95248
7396.61313,0.94763
7394.68441,0.94021
7392.75570,0.93613
7390.82699,0.93672
7388.89828,0.93609
7386.96956,0.93369
7385.04085,0.93500
7383.11214,0.93919
7381.18343,0.94083
7379.25471,0.93660
7377.32600,0.92604
7375.39729,0.92003
7373.46857,0.92588
7371.53986,0.92933
7369.61115,0.92740
7367.68244,0.93211
7365.75372,0.93981
7363.82501,0.94382
7361.89630,0.94727
7359.96759,0.94945
7358.03887,0.94424
7356.11016,0.93165
7354.18145,0.92366
7352.25274,0.92629
7350.32402,0.93295
7348.39531,0.93766
7346.46660,0.93335
7344.53788,0.92026
7342.60917,0.91088
7340.68046,0.91294
7338.75175,0.92251
7336.82303,0.92948
7334.89432,0.92945
7332.96561,0.92689
7331.03690,0.92228
7329.10818,0.91190
7327.17947,0.90376
7325.25076,0.90689
7323.32205,0.91509
7321.39333,0.92153
7319.46462,0.92390
7317.53591,0.92285
7315.60719,0.92294
7313.67848,0.92466
7311.74977,0.92645
7309.82106,0.92766
7307.89234,0.92676
7305.96363,0.92850
7304.03492,0.93261
7302.10621,0.92938
7300.17749,0.91916
7298.24878,0.91046
7296.32007,0.90437
7294.39136,0.90280
7292.46264,0.91123
7290.53393,0.91795
7288.60522,0.91172
7286.67650,0.90915
7284.74779,0.92246
7282.81908,0.93413
7280.89037,0.93508
7278.96165,0.93630
7277.03294,0.93557
7275.10423,0.92641
7273.17552,0.92038
7271.24680,0.92434
7269.31809,0.92708
7267.38938,0.92238
7265.46066,0.91810
7263.53195,0.91976
7261.60324,0.92711
7259.67453,0.93785
7257.74581,0.94082
7255.81710,0.92716
7253.88839,0.91192
7251.95968,0.91689
7250.03096,0.93283
7248.10225,0.93833
7246.17354,0.93252
7244.24483,0.92441
7242.31611,0.91885
7240.38740,0.91626
7238.45869,0.91589
7236.52997,0.91289
7234.60126,0.90090
7232.67255,0.89050
7230.74384,0.89709
7228.81512,0.90583
7226.88641,0.90439
7224.95770,0.90645
7223.02899,0.91791
7221.10027,0.92582
7219.17156,0.92658
7217.24285,0.92689
7215.31414,0.92669
7213.38542,0.92860
7211.45671,0.93472
7209.52800,0.93415
7207.59928,0.92168
7205.67057,0.90854
7203.74186,0.90764
7201.81315,0.91662
7199.88443,0.92359
7197.95572,0.92495
7196.02701,0.92138
7194.09830,0.91413
7192.16958,0.90693
7190.24087,0.90244
7188.31216,0.90284
7186.38344,0.90541
7184.45473,0.90264
7182.52602,0.89671
7180.59731,0.89980
7178.66859,0.91061
7176.73988,0.91786
7174.81117,0.92111
7172.88246,0.92220
7170.95374,0.91824
7169.02503,0.91139
7167.09632,0.90887
7165.16761,0.91267
7163.23889,0.91555
7161.31018,0.91241
7159.38147,0.90897
7157.45275,0.91088
7155.52404,0.91554
7153.59533,0.91994
7151.66662,0.92550
7149.73790,0.93151
7147.80919,0.93157
7145.88048,0.92474
7143.95177,0.91591
7142.02305,0.90539
7140.09434,0.89986
7138.16563,0.90911
7136.23692,0.92342
7134.30820,0.93154
7132.37949,0.93542
7130.45078,0.93550
7128.52206,0.93358
7126.59335,0.93386
7124.66464,0.93289
7122.73593,0.92695
7120.80721,0.91594
7118.87850,0.90377
7116.94979,0.90433
7115.02108,0.91846
7113.09236,0.92793
7111.16365,0.92690
7109.23494,0.92168
7107.30623,0.91693
7105.37751,0.91748
7103.44880,0.92503
7101.52009,0.93176
7099.59137,0.93065
7097.66266,0.92215
7095.73395,0.91154
7093.80524,0.90912
7091.87652,0.91730
7089.94781,0.92551
7088.01910,0.92688
7086.09039,0.92407
7084.16167,0.92334
7082.23296,0.92413
7080.30425,0.92211
7078.37553,0.92289
7076.44682,0.92600
7074.51811,0.91955
7072.58940,0.90766
7070.66068,0.90474
7068.73197,0.91041
7066.80326,0.91705
7064.87455,0.92339
7062.94583,0.92780
7061.01712,0.92652
7059.08841,0.92293
7057.15970,0.92254
7055.23098,0.92258
7053.30227,0.92051
7051.37356,0.91806
7049.44484,0.91367
7047.51613,0.91028
7045.58742,0.91367
7043.65871,0.91932
7041.72999,0.92459
7039.80128,0.93178
7037.87257,0.93585
7035.94386,0.93273
7034.01514,0.92846
7032.08643,0.92951
7030.15772,0.93102
7028.22901,0.92558
7026.30029,0.91578
7024.37158,0.90699
7022.44287,0.90368
7020.51415,0.90733
7018.58544,0.91304
7016.65673,0.91759
7014.72802,0.92156
7012.79930,0.92460
7010.87059,0.92613
7008.94188,0.92644
7007.01317,0.92533
7005.08445,0.92285
7003.15574,0.92125
7001.22703,0.92063
6999.29832,0.91947
6997.36960,0.92114
6995.44089,0.92687
6993.51218,0.93130
6991.58346,0.93153
6989.65475,0.92933
6987.72604,0.92732
6985.79733,0.92545
6983.86861,0.92289
6981.93990,0.92033
6980.01119,0.91654
6978.08248,0.91423
6976.15376,0.91712
6974.22505,0.91872
6972.29634,0.91644
6970.36762,0.91830
6968.43891,0.92369
6966.51020,0.92699
6964.58149,0.93072
6962.65277,0.93438
6960.72406,0.93390
6958.79535,0.93204
6956.86664,0.93037
6954.93792,0.92691
6953.00921,0.92398
6951.08050,0.92500
6949.15179,0.92670
6947.22307,0.92441
6945.29436,0.92196
6943.36565,0.92453
6941.43693,0.92980
6939.50822,0.93238
6937.57951,0.93174
6935.65080,0.93105
6933.72208,0.92748
6931.79337,0.92035
6929.86466,0.91904
6927.93595,0.92607
6926.00723,0.93298
6924.07852,0.93495
6922.14981,0.93367
6920.22110,0.93345
6918.29238,0.93589
6916.36367,0.93554
6914.43496,0.92856
6912.50624,0.92133
6910.57753,0.92156
6908.64882,0.92554
6906.72011,0.92556
6904.79139,0.92481
6902.86268,0.92707
6900.93397,0.92898
6899.00526,0.92878
6897.07654,0.92607
6895.14783,0.92234
6893.21912,0.92281
6891.29040,0.92906
6889.36169,0.93582
6887.43298,0.93769
6885.50427,0.93417
6883.57555,0.92920
6881.64684,0.92782
6879.71813,0.93164
6877.78942,0.93733
6875.86070,0.93799
6873.93199,0.93079
6872.00328,0.92413
6870.07457,0.92471
6868.14585,0.92653
6866.21714,0.92436
6864.28843,0.92184
6862.35971,0.92240
6860.43100,0.92586
6858.50229,0.93024
6856.57358,0.93322
6854.64486,0.93511
6852.71615,0.93503
6850.78744,0.93102
6848.85873,0.92643
6846.93001,0.92634
6845.00130,0.92960
6843.07259,0.92974
6841.14388,0.92551
6839.21516,0.92334
6837.28645,0.92623
6835.35774,0.93206
6833.42902,0.93794
6831.50031,0.94019
6829.57160,0.93884
6827.64289,0.93610
6825.71417,0.93128
6823.78546,0.92746
6821.85675,0.92976
6819.92804,0.93457
6817.99932,0.93585
6816.07061,0.93497
6814.14190,0.93498
6812.21319,0.93633
6810.28447,0.93883
6808.35576,0.94016
6806.42705,0.93824
6804.49833,0.93474
6802.56962,0.93197
6800.64091,0.92988
6798.71220,0.92861
6796.78348,0.92983
6794.85477,0.93250
6792.92606,0.93405
6790.99735,0.93390
6789.06863,0.93368
6787.13992,0.93452
6785.21121,0.93559
6783.28249,0.93743
6781.35378,0.93996
6779.42507,0.93989
6777.49636,0.93537
6775.56764,0.92990
6773.63893,0.92799
6771.71022,0.92754
6769.78151,0.92628
6767.85279,0.92674
6765.92408,0.92778
6763.99537,0.92646
6762.06666,0.92503
6760.13794,0.92760
6758.20923,0.93538
6756.28052,0.94362
6754.35180,0.94513
6752.42309,0.94162
6750.49438,0.93997
6748.56567,0.94170
6746.63695,0.94426
6744.70824,0.94438
6742.77953,0.94277
6740.85082,0.94113
6738.92210,0.93721
6736.99339,0.93130
6735.06468,0.92709
6733.13597,0.92725
6731.20725,0.93323
6729.27854,0.94225
6727.34983,0.94627
6725.42111,0.94322
6723.49240,0.94033
6721.56369,0.94005
6719.63498,0.93862
6717.70626,0.93663
6715.77755,0.93725
6713.84884,0.93796
6711.92013,0.93508
6709.99141,0.93054
6708.06270,0.92757
6706.13399,0.92756
6704.20528,0.92946
6702.27656,0.93050
6700.34785,0.93067
6698.41914,0.93215
6696.49042,0.93466
6694.56171,0.93551
6692.63300,0.93343
6690.70429,0.92913
6688.77557,0.92725
6686.84686,0.93208
6684.91815,0.93940
6682.98944,0.94293
6681.06072,0.94337
6679.13201,0.94358
6677.20330,0.94222
6675.27458,0.93897
6673.34587,0.93751
6671.41716,0.93813
6669.48845,0.93901
6667.55973,0.94111
6665.63102,0.94210
6663.70231,0.93898
6661.77360,0.93538
6659.84488,0.93404
6657.91617,0.93390
6655.98746,0.93326
6654.05875,0.93158
6652.13003,0.93272
6650.20132,0.93582
6648.27261,0.93534
6646.34389,0.93382
6644.41518,0.93473
6642.48647,0.93642
6640.55776,0.94010
6638.62904,0.94531
6636.70033,0.94496
6634.77162,0.93881
6632.84291,0.93464
6630.91419,0.93411
6628.98548,0.93498
6627.05677,0.93605
6625.12806,0.93548
6623.19934,0.93470
6621.27063,0.93756
6619.34192,0.94277
6617.41320,0.94539
6615.48449,0.94525
6613.55578,0.94472
6611.62707,0.94209
6609.69835,0.93816
6607.76964,0.93820
6605.84093,0.94165
6603.91222,0.94376
6601.98350,0.94373
6600.05479,0.94350
6598.12608,0.94338
6596.19736,0.94220
6594.26865,0.94107
6592.33994,0.94050
6590.41123,0.93998
6588.48251,0.94035
6586.55380,0.93880
6584.62509,0.93422
6582.69638,0.93206
6580.76766,0.93391
6578.83895,0.93608
6576.91024,0.93769
6574.98153,0.93892
6573.05281,0.93789
6571.12410,0.93575
6569.19539,0.93419
6567.26667,0.93323
6565.33796,0.93378
6563.40925,0.93363
6561.48054,0.93260
6559.55182,0.93456
6557.62311,0.93653
6555.69440,0.93399
6553.76569,0.93161
6551.83697,0.93348
6549.90826,0.93567
6547.97955,0.93738
6546.05084,0.94058
6544.12212,0.94213
6542.19341,0.94115
6540.26470,0.93929
6538.33598,0.93595
6536.40727,0.93413
6534.47856,0.93570
6532.54985,0.93621
6530.62113,0.93460
6528.69242,0.93277
6526.76371,0.93160
6524.83500,0.93253
6522.90628,0.93314
6520.97757,0.93169
6519.04886,0.93227
6517.12015,0.93634
6515.19143,0.94056
6513.26272,0.94215
6511.33401,0.94081
6509.40529,0.93884
6507.47658,0.93915
6505.54787,0.94163
6503.61916,0.94381
6501.69044,0.94383
6499.76173,0.94102
6497.83302,0.93603
6495.90431,0.93092
6493.97559,0.92845
6492.04688,0.92892
6490.11817,0.93098
6488.18945,0.93411
6486.26074,0.93560
6484.33203,0.93538
6482.40332,0.93684
6480.47460,0.93850
6478.54589,0.93822
6476.61718,0.93773
6474.68847,0.93776
6472.75975,0.93837
6470.83104,0.93944
6468.90233,0.93867
6466.97362,0.93646
6465.04490,0.93617
6463.11619,0.93666
6461.18748,0.93534
6459.25876,0.93351
6457.33005,0.93147
6455.40134,0.92852
6453.47263,0.92833
6451.54391,0.93313
6449.61520,0.93749
6447.68649,0.93669
6445.75778,0.93480
6443.82906,0.93734
6441.90035,0.94253
6439.97164,0.94553
6438.04293,0.94522
6436.11421,0.94334
6434.18550,0.94154
6432.25679,0.94103
6430.32807,0.94141
6428.39936,0.94028
6426.47065,0.93772
6424.54194,0.93574
6422.61322,0.93449
6420.68451,0.93540
6418.75580,0.94002
6416.82709,0.94417
6414.89837,0.94331
6412.96966,0.93950
6411.04095,0.93709
6409.11224,0.93844
6407.18352,0.94278
6405.25481,0.94460
6403.32610,0.94162
6401.39738,0.93854
6399.46867,0.93732
6397.53996,0.93711
6395.61125,0.93897
6393.68253,0.94129
6391.75382,0.94070
6389.82511,0.93829
6387.89640,0.93556
6385.96768,0.93299
6384.03897,0.93287
6382.11026,0.93571
6380.18154,0.93846
6378.25283,0.93785
6376.32412,0.93493
6374.39541,0.93429
6372.46669,0.93702
6370.53798,0.93993
6368.60927,0.94110
6366.68056,0.94080
6364.75184,0.94036
6362.82313,0.94132
6360.89442,0.94196
6358.96571,0.93969
6357.03699,0.93604
6355.10828,0.93398
6353.17957,0.93478
6351.25085,0.93654
6349.32214,0.93695
6347.39343,0.93744
6345.46472,0.93848
6343.53600,0.93862
6341.60729,0.93905
6339.67858,0.94058
6337.74987,0.94209
6335.82115,0.94307
6333.89244,0.94303
6331.96373,0.94319
6330.03502,0.94394
6328.10630,0.94184
6326.17759,0.93911
6324.24888,0.94086
6322.32016,0.94265
6320.39145,0.93882
6318.46274,0.93353
6316.53403,0.93265
6314.60531,0.93348
6312.67660,0.93183
6310.74789,0.93128
6308.81918,0.93490
6306.89046,0.93939
6304.96175,0.94259
6303.03304,0.94461
6301.10432,0.94480
6299.17561,0.94395
6297.24690,0.94214
6295.31819,0.93920
6293.38947,0.93836
6291.46076,0.94051
6289.53205,0.94156
6287.60334,0.93986
6285.67462,0.93771
6283.74591,0.93580
6281.81720,0.93419
6279.88849,0.93466
6277.95977,0.93711
6276.03106,0.93928
6274.10235,0.93930
6272.17363,0.93798
6270.24492,0.93884
6268.31621,0.94180
6266.38750,0.94251
6264.45878,0.94045
6262.53007,0.93903
6260.60136,0.93858
6258.67265,0.93771
6256.74393,0.93695
6254.81522,0.93627
6252.88651,0.93543
6250.95780,0.93527
6249.02908,0.93615
6247.10037,0.93658
6245.17166,0.93470
6243.24294,0.93213
6241.31423,0.93113
6239.38552,0.93087
6237.45681,0.93179
6235.52809,0.93546
6233.59938,0.94017
6231.67067,0.94294
6229.74196,0.94292
6227.81324,0.94174
6225.88453,0.94134
6223.95582,0.94148
6222.02711,0.94146
6220.09839,0.94161
6218.16968,0.94118
6216.24097,0.94004
6214.31225,0.93972
6212.38354,0.94037
6210.45483,0.94083
6208.52612,0.93941
6206.59740,0.93655
6204.66869,0.93531
6202.73998,0.93663
6200.81127,0.93833
6198.88255,0.93784
6196.95384,0.93618
6195.02513,0.93607
6193.09641,0.93696
6191.16770,0.93813
6189.23899,0.93945
6187.31028,0.93908
6185.38156,0.93594
6183.45285,0.93240
6181.52414,0.93160
6179.59543,0.93300
6177.66671,0.93461
6175.73800,0.93481
6173.80929,0.93359
6171.88058,0.93337
6169.95186,0.93429
6168.02315,0.93417
6166.09444,0.93358
6164.16572,0.93534
6162.23701,0.93793
6160.30830,0.93742
6158.37959,0.93636
6156.45087,0.93763
6154.52216,0.93855
6152.59345,0.93848
6150.66474,0.93777
6148.73602,0.93456
6146.80731,0.93115
6144.87860,0.93111
6142.94989,0.93252
6141.02117,0.93341
6139.09246,0.93438
6137.16375,0.93422
6135.23503,0.93172
6133.30632,0.92967
6131.37761,0.93184
6129.44890,0.93686
6127.52018,0.93944
6125.59147,0.93859
6123.66276,0.93729
6121.73405,0.93613
6119.80533,0.93542
6117.87662,0.93583
6115.94791,0.93554
6114.01919,0.93427
6112.09048,0.93313
6110.16177,0.93161
6108.23306,0.93042
6106.30434,0.93085
6104.37563,0.93177
6102.44692,0.93166
6100.51821,0.93156
6098.58949,0.93282
6096.66078,0.93412
6094.73207,0.93399
6092.80336,0.93355
6090.87464,0.93434
6088.94593,0.93561
6087.01722,0.93629
6085.08850,0.93627
6083.15979,0.93508
6081.23108,0.93317
6079.30237,0.93263
6077.37365,0.93374
6075.44494,0.93466
6073.51623,0.93436
6071.58752,0.93252
6069.65880,0.93098
6067.73009,0.93224
6065.80138,0.93369
6063.87267,0.93262
6061.94395,0.93159
6060.01524,0.93279
6058.08653,0.93476
6056.15781,0.93598
6054.22910,0.93674
6052.30039,0.93706
6050.37168,0.93647
6048.44296,0.93506
6046.51425,0.93465
6044.58554,0.93589
6042.65683,0.93492
6040.72811,0.93183
6038.79940,0.93082
6036.87069,0.93099
6034.94198,0.92975
6033.01326,0.92718
6031.08455,0.92536
6029.15584,0.92606
6027.22712,0.92794
6025.29841,0.92919
6023.36970,0.93018
6021.44099,0.93115
6019.51227,0.93095
6017.58356,0.93081
6015.65485,0.93195
6013.72614,0.93175
6011.79742,0.93097
6009.86871,0.93206
6007.94000,0.93202
6006.01128,0.93027
6004.08257,0.92981
6002.15386,0.92952
6000.22515,0.92841
5998.29643,0.92841
5996.36772,0.92905
5994.43901,0.92886
5992.51030,0.92819
5990.58158,0.92844
5988.65287,0.93014
5986.72416,0.93091
5984.79545,0.92973
5982.86673,0.92913
5980.93802,0.92937
5979.00931,0.92897
5977.08059,0.92757
5975.15188,0.92596
5973.22317,0.92578
5971.29446,0.92643
5969.36574,0.92593
5967.43703,0.92451
5965.50832,0.92411
5963.57961,0.92540
5961.65089,0.92589
5959.72218,0.92378
5957.79347,0.92132
5955.86476,0.92080
5953.93604,0.92182
5952.00733,0.92326
5950.07862,0.92441
5948.14990,0.92548
5946.22119,0.92670
5944.29248,0.92684
5942.36377,0.92584
5940.43505,0.92533
5938.50634,0.92546
5936.57763,0.92473
5934.64892,0.92189
5932.72020,0.91833
5930.79149,0.91590
5928.86278,0.91517
5926.93407,0.91707
5925.00535,0.92041
5923.07664,0.92190
5921.14793,0.92006
5919.21921,0.91708
5917.29050,0.91692
5915.36179,0.91882
5913.43308,0.91856
5911.50436,0.91708
5909.57565,0.91837
5907.64694,0.92073
5905.71823,0.92006
5903.78951,0.91764
5901.86080,0.91645
5899.93209,0.91640
5898.00337,0.91680
5896.07466,0.91693
5894.14595,0.91591
5892.21724,0.91398
5890.28852,0.91154
5888.35981,0.90920
5886.43110,0.90846
5884.50239,0.90890
5882.57367,0.90896
5880.64496,0.90946
5878.71625,0.91129
5876.78754,0.91284
5874.85882,0.91255
5872.93011,0.91019
5871.00140,0.90610
5869.07268,0.90231
5867.14397,0.90062
5865.21526,0.89986
5863.28655,0.89804
5861.35783,0.89489
5859.42912,0.89227
5857.50041,0.89106
5855.57170,0.88917
5853.64298,0.88641
5851.71427,0.88508
5849.78556,0.88532
5847.85685,0.88546
5845.92813,0.88358
5843.99942,0.87904
5842.07071,0.87460
5840.14199,0.87341
5838.21328,0.87428
5836.28457,0.87411
5834.35586,0.87271
5832.42714,0.87084
5830.49843,0.86862
5828.56972,0.86659
5826.64101,0.86425
5824.71229,0.86073
5822.78358,0.85699
5820.85487,0.85441
5818.92615,0.85290
5816.99744,0.85181
5815.06873,0.85043
5813.14002,0.84827
5811.21130,0.84609
5809.28259,0.84454
5807.35388,0.84293
5805.42517,0.84073
5803.49645,0.83855
5801.56774,0.83620
5799.63903,0.83289
5797.71032,0.82909
5795.78160,0.82456
5793.85289,0.81837
5791.92418,0.81208
5789.99546,0.80760
5788.06675,0.80388
5786.13804,0.79877
5784.20933,0.79171
5782.28061,0.78372
5780.35190,0.77688
5778.42319,0.77233
5776.49448,0.77004
5774.56576,0.77135
5772.63705,0.77661
5770.70834,0.78377
5768.77963,0.79171
5766.85091,0.80008
5764.92220,0.80870
5762.99349,0.81785
5761.06477,0.82620
5759.13606,0.83284
5757.20735,0.83906
5755.27864,0.84551
5753.34992,0.85183
5751.42121,0.85626
5749.49250,0.85746
5747.56379,0.85847
5745.63507,0.86156
5743.70636,0.86538
5741.77765,0.86946
5739.84894,0.87319
5737.92022,0.87572
5735.99151,0.87790
5734.06280,0.87941
5732.13408,0.87951
5730.20537,0.87972
5728.27666,0.88120
5726.34795,0.88307
5724.41923,0.88449
5722.49052,0.88528
5720.56181,0.88543
5718.63310,0.88573
5716.70438,0.88694
5714.77567,0.88821
5712.84696,0.88874
5710.91824,0.88835
5708.98953,0.88744
5707.06082,0.88691
5705.13211,0.88656
5703.20339,0.88595
5701.27468,0.88506
5699.34597,0.88405
5697.41726,0.88285
5695.48854,0.88040
5693.55983,0.87733
5691.63112,0.87474
5689.70241,0.87200
5687.77369,0.86994
5685.84498,0.86904
5683.91627,0.86804
5681.98755,0.86714
5680.05884,0.86644
5678.13013,0.86470
5676.20142,0.86188
5674.27270,0.85950
5672.34399,0.85780
5670.41528,0.85553
5668.48657,0.85306
5666.55785,0.85202
5664.62914,0.85278
5662.70043,0.85378
5660.77172,0.85356
5658.84300,0.85410
5656.91429,0.85787
5654.98558,0.86356
5653.05686,0.86875
5651.12815,0.87321
5649.19944,0.87662
5647.27073,0.87767
5645.34201,0.87761
5643.41330,0.87910
5641.48459,0.88203
5639.55588,0.88483
5637.62716,0.88707
5635.69845,0.88874
5633.76974,0.88958
5631.84103,0.88999
5629.91231,0.89042
5627.98360,0.89095
5626.05489,0.89163
5624.12617,0.89167
5622.19746,0.89128
5620.26875,0.89165
5618.34004,0.89216
5616.41132,0.89188
5614.48261,0.89145
5612.55390,0.89225
5610.62519,0.89451
5608.69647,0.89617
5606.76776,0.89566
5604.83905,0.89437
5602.91033,0.89433
5600.98162,0.89616
5599.05291,0.89922
5597.12420,0.90184
5595.19548,0.90306
5593.26677,0.90369
5591.33806,0.90396
5589.40935,0.90328
5587.48063,0.90239
5585.55192,0.90178
5583.62321,0.90037
5581.69450,0.89786
5579.76578,0.89606
5577.83707,0.89591
5575.90836,0.89671
5573.97964,0.89753
5572.05093,0.89705
5570.12222,0.89578
5568.19351,0.89549
5566.26479,0.89570
5564.33608,0.89622
5562.40737,0.89759
5560.47866,0.89765
5558.54994,0.89540
5556.62123,0.89352
5554.69252,0.89367
5552.76381,0.89501
5550.83509,0.89575
5548.90638,0.89416
5546.97767,0.89261
5545.04895,0.89442
5543.12024,0.89714
5541.19153,0.89696
5539.26282,0.89437
5537.33410,0.89210
5535.40539,0.89173
5533.47668,0.89305
5531.54797,0.89517
5529.61925,0.89667
5527.69054,0.89710
5525.76183,0.89655
5523.83311,0.89412
5521.90440,0.89173
5519.97569,0.89133
5518.04698,0.89085
5516.11826,0.89076
5514.18955,0.89281
5512.26084,0.89391
5510.33213,0.89101
5508.40341,0.88677
5506.47470,0.88626
5504.54599,0.88893
5502.61728,0.89068
5500.68856,0.89085
5498.75985,0.89129
5496.83114,0.89097
5494.90242,0.88609
5492.97371,0.87930
5491.04500,0.87750
5489.11629,0.88015
5487.18757,0.88519
5485.25886,0.89176
5483.33015,0.89678
5481.40144,0.89884
5479.47272,0.89652
5477.54401,0.88778
5475.61530,0.87999
5473.68659,0.88377
5471.75787,0.89071
5469.82916,0.89043
5467.90045,0.88724
5465.97173,0.88617
5464.04302,0.88447
5462.11431,0.88150
5460.18560,0.88238
5458.25688,0.88738
5456.32817,0.89181
5454.39946,0.89454
5452.47075,0.89385
5450.54203,0.88853
5448.61332,0.88199
5446.68461,0.87739
5444.75590,0.87573
5442.82718,0.87614
5440.89847,0.87985
5438.96976,0.88659
5437.04104,0.88793
5435.11233,0.88372
5433.18362,0.88253
5431.25491,0.88099
5429.32619,0.87759
5427.39748,0.88219
5425.46877,0.89224
5423.54006,0.89889
5421.61134,0.90184
5419.68263,0.90249
5417.75392,0.89945
5415.82520,0.89027
5413.89649,0.87748
5411.96778,0.87023
5410.03907,0.87409
5408.11035,0.88527
5406.18164,0.89453
5404.25293,0.89861
5402.32422,0.90152
5400.39550,0.90334
5398.46679,0.89991
5396.53808,0.89182
5394.60937,0.88736
5392.68065,0.89339
5390.75194,0.90279
5388.82323,0.90414
5386.89451,0.89775
5384.96580,0.89554
5383.03709,0.90172
5381.10838,0.90609
5379.17966,0.90144
5377.25095,0.89191
5375.32224,0.88955
5373.39353,0.89687
5371.46481,0.90469
5369.53610,0.90754
5367.60739,0.90589
5365.67868,0.90195
5363.74996,0.90012
5361.82125,0.90401
5359.89254,0.90912
5357.96382,0.90756
5356.03511,0.89641
5354.10640,0.88451
5352.17769,0.88560
5350.24897,0.89311
5348.32026,0.89304
5346.39155,0.88435
5344.46284,0.87874
5342.53412,0.88417
5340.60541,0.88658
5338.67670,0.88096
5336.74799,0.88309
5334.81927,0.89310
5332.89056,0.89892
5330.96185,0.89939
5329.03313,0.89653
5327.10442,0.89553
5325.17571,0.90196
5323.24700,0.90957
5321.31828,0.91236
5319.38957,0.91204
5317.46086,0.91041
5315.53215,0.90913
5313.60343,0.90985
5311.67472,0.91024
5309.74601,0.90655
5307.81729,0.90198
5305.88858,0.90334
5303.95987,0.90725
5302.03116,0.90777
5300.10244,0.90724
5298.17373,0.90891
5296.24502,0.91101
5294.31631,0.91052
5292.38759,0.90590
5290.45888,0.90167
5288.53017,0.90434
5286.60146,0.90848
5284.67274,0.90846
5282.74403,0.90756
5280.81532,0.90775
5278.88660,0.90907
5276.95789,0.91090
5275.02918,0.91156
5273.10047,0.91087
5271.17175,0.90816
5269.24304,0.90368
5267.31433,0.89853
5265.38562,0.89203
5263.45690,0.88852
5261.52819,0.89473
5259.59948,0.90478
5257.67077,0.90741
5255.74205,0.90276
5253.81334,0.90192
5251.88463,0.90449
5249.95591,0.89991
5248.02720,0.89153
5246.09849,0.88970
5244.16978,0.89550
5242.24106,0.90417
5240.31235,0.90953
5238.38364,0.91060
5236.45493,0.90996
5234.52621,0.90714
5232.59750,0.90297
5230.66879,0.90165
5228.74007,0.90140
5226.81136,0.89715
5224.88265,0.89483
5222.95394,0.90067
5221.02522,0.90629
5219.09651,0.90707
5217.16780,0.90893
5215.23909,0.91340
5213.31037,0.91479
5211.38166,0.90992
5209.45295,0.89923
5207.52424,0.88964
5205.59552,0.89300
5203.66681,0.90503
5201.73810,0.91160
5199.80938,0.90945
5197.88067,0.90479
5195.95196,0.90521
5194.02325,0.90940
5192.09453,0.91042
5190.16582,0.90785
5188.23711,0.90549
5186.30840,0.90451
5184.37968,0.90592
5182.45097,0.90957
5180.52226,0.91230
5178.59355,0.91344
5176.66483,0.91443
5174.73612,0.91512
5172.80741,0.91440
5170.87869,0.91325
5168.94998,0.91401
5167.02127,0.91487
5165.09256,0.91295
5163.16384,0.91041
5161.23513,0.90976
5159.30642,0.90962
5157.37771,0.90933
5155.44899,0.91021
5153.52028,0.91191
5151.59157,0.91365
5149.66286,0.91610
5147.73414,0.91831
5145.80543,0.91854
5143.87672,0.91721
5141.94800,0.91616
5140.01929,0.91663
5138.09058,0.91764
5136.16187,0.91772
5134.23315,0.91724
5132.30444,0.91717
5130.37573,0.91733
5128.44702,0.91684
5126.51830,0.91602
5124.58959,0.91563
5122.66088,0.91537
5120.73216,0.91538
5118.80345,0.91629
5116.87474,0.91747
5114.94603,0.91783
5113.01731,0.91805
5111.08860,0.91860
5109.15989,0.91829
5107.23118,0.91675
5105.30246,0.91518
5103.37375,0.91510
5101.44504,0.91648
5099.51633,0.91756
5097.58761,0.91737
5095.65890,0.91634
5093.73019,0.91521
5091.80147,0.91455
5089.87276,0.91458
5087.94405,0.91489
5086.01534,0.91515
5084.08662,0.91594
5082.15791,0.91758
5080.22920,0.91932
5078.30049,0.92029
5076.37177,0.92028
5074.44306,0.91946
5072.51435,0.91823
5070.58564,0.91723
5068.65692,0.91688
5066.72821,0.91721
5064.79950,0.91795
5062.87078,0.91853
5060.94207,0.91873
5059.01336,0.91889
5057.08465,0.91902
5055.15593,0.91860
5053.22722,0.91762
5051.29851,0.91718
5049.36980,0.91810
5047.44108,0.91960
5045.51237,0.92071
5043.58366,0.92130
5041.65495,0.92138
5039.72623,0.92131
5037.79752,0.92187
5035.86881,0.92301
5033.94009,0.92341
5032.01138,0.92252
5030.08267,0.92084
5028.15396,0.91875
5026.22524,0.91737
5024.29653,0.91753
5022.36782,0.91842
5020.43911,0.91871
5018.51039,0.91817
5016.58168,0.91795
5014.65297,0.91848
5012.72425,0.91912
5010.79554,0.91966
5008.86683,0.92022
5006.93812,0.92073
5005.00940,0.92080
5003.08069,0.92049
5001.15198,0.92022
4999.22327,0.91962
4997.29455,0.91828
4995.36584,0.91696
4993.43713,0.91615
4991.50842,0.91535
4989.57970,0.91468
4987.65099,0.91451
4985.72228,0.91422
4983.79356,0.91378
4981.86485,0.91398
4979.93614,0.91462
4978.00743,0.91507
4976.07871,0.91552
4974.15000,0.91633
4972.22129,0.91708
4970.29258,0.91709
4968.36386,0.91682
4966.43515,0.91729
4964.50644,0.91806
4962.57773,0.91769
4960.64901,0.91590
4958.72030,0.91416
4956.79159,0.91400
4954.86287,0.91546
4952.93416,0.91741
4951.00545,0.91888
4949.07674,0.91946
4947.14802,0.91933
4945.21931,0.91932
4943.29060,0.91976
4941.36189,0.92039
4939.43317,0.92140
4937.50446,0.92253
4935.57575,0.92274
4933.64703,0.92174
4931.71832,0.92094
4929.78961,0.92147
4927.86090,0.92236
4925.93218,0.92232
4924.00347,0.92141
4922.07476,0.92016
4920.14605,0.91941
4918.21733,0.91942
4916.28862,0.91934
4914.35991,0.91902
4912.43120,0.91866
4910.50248,0.91819
4908.57377,0.91795
4906.64506,0.91807
4904.71634,0.91839
4902.78763,0.91910
4900.85892,0.92005
4898.93021,0.92039
4897.00149,0.91975
4895.07278,0.91929
4893.14407,0.91979
4891.21536,0.92055
4889.28664,0.92089
4887.35793,0.92012
4885.42922,0.91813
4883.50051,0.91659
4881.57179,0.91644
4879.64308,0.91681
4877.71437,0.91744
4875.78565,0.91852
4873.85694,0.91930
4871.92823,0.91943
4869.99952,0.91965
4868.07080,0.92041
4866.14209,0.92088
4864.21338,0.92047
4862.28467,0.91996
4860.35595,0.91993
4858.42724,0.92012
4856.49853,0.92024
4854.56982,0.92011
4852.64110,0.91957
4850.71239,0.91924
4848.78368,0.91993
4846.85496,0.92090
4844.92625,0.92104
4842.99754,0.92076
4841.06883,0.92086
4839.14011,0.92142
4837.21140,0.92218
4835.28269,0.92279
4833.35398,0.92287
4831.42526,0.92272
4829.49655,0.92297
4827.56784,0.92333
4825.63912,0.92343
4823.71041,0.92346
4821.78170,0.92334
4819.85299,0.92275
4817.92427,0.92222
4815.99556,0.92230
4814.06685,0.92230
4812.13814,0.92218
4810.20942,0.92278
4808.28071,0.92359
4806.35200,0.92388
4804.42329,0.92421
4802.49457,0.92481
4800.56586,0.92534
4798.63715,0.92581
4796.70843,0.92599
4794.77972,0.92562
4792.85101,0.92522
4790.92230,0.92533
4788.99358,0.92557
4787.06487,0.92554
4785.13616,0.92553
4783.20745,0.92548
4781.27873,0.92507
4779.35002,0.92443
4777.42131,0.92405
4775.49260,0.92429
4773.56388,0.92490
4771.63517,0.92568
4769.70646,0.92651
4767.77774,0.92687
4765.84903,0.92682
4763.92032,0.92697
4761.99161,0.92718
4760.06289,0.92703
4758.13418,0.92672
4756.20547,0.92641
4754.27676,0.92608
4752.34804,0.92603
4750.41933,0.92629
4748.49062,0.92626
4746.56191,0.92535
4744.63319,0.92426
4742.70448,0.92395
4740.77577,0.92391
4738.84705,0.92359
4736.91834,0.92348
4734.98963,0.92385
4733.06092,0.92448
4731.13220,0.92525
4729.20349,0.92604
4727.27478,0.92676
4725.34607,0.92756
4723.41735,0.92815
4721.48864,0.92816
4719.55993,0.92772
4717.63121,0.92688
4715.70250,0.92571
4713.77379,0.92496
4711.84508,0.92483
4709.91636,0.92498
4707.98765,0.92527
4706.05894,0.92518
4704.13023,0.92470
4702.20151,0.92478
4700.27280,0.92551
4698.34409,0.92641
4696.41538,0.92733
4694.48666,0.92784
4692.55795,0.92797
4690.62924,0.92811
4688.70052,0.92793
4686.77181,0.92749
4684.84310,0.92726
4682.91439,0.92698
4680.98567,0.92647
4679.05696,0.92605
4677.12825,0.92549
4675.19954,0.92464
4673.27082,0.92429
4671.34211,0.92445
4669.41340,0.92428
4667.48469,0.92384
4665.55597,0.92372
4663.62726,0.92447
4661.69855,0.92612
4659.76983,0.92734
4657.84112,0.92727
4655.91241,0.92695
4653.98370,0.92733
4652.05498,0.92801
4650.12627,0.92820
4648.19756,0.92776
4646.26885,0.92733
4644.34013,0.92692
4642.41142,0.92602
4640.48271,0.92502
4638.55399,0.92487
4636.62528,0.92565
4634.69657,0.92612
4632.76786,0.92555
4630.83914,0.92501
4628.91043,0.92580
4626.98172,0.92780
4625.05301,0.92927
4623.12429,0.92904
4621.19558,0.92789
4619.26687,0.92696
4617.33816,0.92699
4615.40944,0.92764
4613.48073,0.92780
4611.55202,0.92742
4609.62330,0.92701
4607.69459,0.92682
4605.76588,0.92669
4603.83717,0.92633
4601.90845,0.92612
4599.97974,0.92611
4598.05103,0.92587
4596.12232,0.92574
4594.19360,0.92611
4592.26489,0.92645
4590.33618,0.92654
4588.40747,0.92697
4586.47875,0.92781
4584.55004,0.92797
4582.62133,0.92682
4580.69261,0.92555
4578.76390,0.92516
4576.83519,0.92512
4574.90648,0.92502
4572.97776,0.92483
4571.04905,0.92449
4569.12034,0.92376
4567.19163,0.92278
4565.26291,0.92261
4563.33420,0.92337
4561.40549,0.92387
4559.47678,0.92391
4557.54806,0.92404
4555.61935,0.92423
4553.69064,0.92424
4551.76192,0.92425
4549.83321,0.92424
4547.90450,0.92370
4545.97579,0.92292
4544.04707,0.92272
4542.11836,0.92288
4540.18965,0.92283
4538.26094,0.92256
4536.33222,0.92205
4534.40351,0.92117
4532.47480,0.92040
4530.54608,0.92038
4528.61737,0.92075
4526.68866,0.92070
4524.75995,0.92023
4522.83123,0.91976
4520.90252,0.91963
4518.97381,0.91992
4517.04510,0.92016
4515.11638,0.92003
4513.18767,0.91980
4511.25896,0.91947
4509.33025,0.91875
4507.40153,0.91776
4505.47282,0.91705
4503.54411,0.91681
4501.61539,0.91650
4499.68668,0.91587
4497.75797,0.91555
4495.82926,0.91539
4493.90054,0.91458
4491.97183,0.91378
4490.04312,0.91404
4488.11441,0.91489
4486.18569,0.91531
4484.25698,0.91489
4482.32827,0.91421
4480.39956,0.91404
4478.47084,0.91411
4476.54213,0.91380
4474.61342,0.91293
4472.68470,0.91168
4470.75599,0.91079
4468.82728,0.91045
4466.89857,0.90970
4464.96985,0.90819
4463.04114,0.90688
4461.11243,0.90629
4459.18372,0.90626
4457.25500,0.90650
4455.32629,0.90623
4453.39758,0.90530
4451.46886,0.90458
4449.54015,0.90415
4447.61144,0.90369
4445.68273,0.90321
4443.75401,0.90208
4441.82530,0.90024
4439.89659,0.89863
4437.96788,0.89724
4436.03916,0.89571
4434.11045,0.89429
4432.18174,0.89262
4430.25303,0.89052
4428.32431,0.88880
4426.39560,0.88765
4424.46689,0.88660
4422.53817,0.88538
4420.60946,0.88349
4418.68075,0.88075
4416.75204,0.87800
4414.82332,0.87557
4412.89461,0.87293
4410.96590,0.86965
4409.03719,0.86576
4407.10847,0.86182
4405.17976,0.85825
4403.25105,0.85486
4401.32234,0.85125
4399.39362,0.84714
4397.46491,0.84249
4395.53620,0.83772
4393.60748,0.83324
4391.67877,0.82903
4389.75006,0.82504
4387.82135,0.82120
4385.89263,0.81714
4383.96392,0.81262
4382.03521,0.80792
4380.10650,0.80347
4378.17778,0.79915
4376.24907,0.79429
4374.32036,0.78886
4372.39165,0.78368
4370.46293,0.77908
4368.53422,0.77426
4366.60551,0.76854
4364.67679,0.76197
4362.74808,0.75468
4360.81937,0.74681
4358.89066,0.73837
4356.96194,0.72895
4355.03323,0.71772
4353.10452,0.70409
4351.17581,0.68834
4349.24709,0.67079
4347.31838,0.65133
4345.38967,0.63037
4343.46095,0.60916
4341.53224,0.58899
4339.60353,0.57056
4337.67482,0.55374
4335.74610,0.53710
4333.81739,0.51857
4331.88868,0.49650
4329.95997,0.46966
4328.03125,0.43729
4326.10254,0.40134
4324.17383,0.37031
4322.24512,0.35922
4320.31640,0.38051
4318.38769,0.43193
4316.45898,0.49713
4314.53026,0.55899
4312.60155,0.60924
4310.67284,0.64737
4308.74413,0.67552
4306.81541,0.69603
4304.88670,0.71107
4302.95799,0.72186
4301.02928,0.72883
4299.10056,0.73307
4297.17185,0.73554
4295.24314,0.73609
4293.31443,0.73472
4291.38571,0.73211
4289.45700,0.72879
4287.52829,0.72486
4285.59957,0.72064
4283.67086,0.71680
4281.74215,0.71345
4279.81344,0.71015
4277.88472,0.70652
4275.95601,0.70206
4274.02730,0.69608
4272.09859,0.68818
4270.16987,0.67831
4268.24116,0.66598
4266.31245,0.65034
4264.38374,0.63135
4262.45502,0.60934
4260.52631,0.58443
4258.59760,0.55748
4256.66888,0.53009
4254.74017,0.50456
4252.81146,0.48646
4250.88275,0.48476
4248.95403,0.50484
4247.02532,0.54150
4245.09661,0.58213
4243.16790,0.61643
4241.23918,0.64103
4239.31047,0.65705
4237.38176,0.66671
4235.45304,0.67153
4233.52433,0.67207
4231.59562,0.66890
4229.66691,0.66311
4227.73819,0.65604
4225.80948,0.64872
4223.88077,0.64180
4221.95206,0.63632
4220.02334,0.63365
4218.09463,0.63409
4216.16592,0.63638
4214.23721,0.63897
4212.30849,0.64074
4210.37978,0.64096
4208.45107,0.63945
4206.52235,0.63596
4204.59364,0.63012
4202.66493,0.62219
4200.73622,0.61270
4198.80750,0.60247
4196.87879,0.59338
4194.95008,0.58733
4193.02137,0.58453
4191.09265,0.58382
4189.16394,0.58424
4187.23523,0.58529
4185.30652,0.58648
4183.37780,0.58743
4181.44909,0.58842
4179.52038,0.58965
4177.59166,0.59064
4175.66295,0.59126
4173.73424,0.59181
4171.80553,0.59230
4169.87681,0.59276
4167.94810,0.59357
4166.01939,0.59486
4164.09068,0.59612
4162.16196,0.59684
4160.23325,0.59712
4158.30454,0.59743
4156.37582,0.59796
4154.44711,0.59857
4152.51840,0.59902
4150.58969,0.59913
4148.66097,0.59942
4146.73226,0.60056
4144.80355,0.60205
4142.87484,0.60305
4140.94612,0.60396
4139.01741,0.60555
4137.08870,0.60757
4135.15999,0.60941
4133.23127,0.61094
4131.30256,0.61244
4129.37385,0.61400
4127.44513,0.61547
4125.51642,0.61647
4123.58771,0.61686
4121.65900,0.61717
4119.73028,0.61790
4117.80157,0.61868
4115.87286,0.61898
4113.94415,0.61880
4112.01543,0.61815
4110.08672,0.61699
4108.15801,0.61558
4106.22930,0.61457
4104.30058,0.61455
4102.37187,0.61509
4100.44316,0.61548
4098.51444,0.61599
4096.58573,0.61748
4094.65702,0.62090
4092.72831,0.62678
4090.79959,0.63451
4088.87088,0.64324
4086.94217,0.65244
4085.01346,0.66114
4083.08474,0.66851
4081.15603,0.67460
4079.22732,0.68010
4077.29861,0.68535
4075.36989,0.68992
4073.44118,0.69372
4071.51247,0.69716
4069.58375,0.70040
4067.65504,0.70323
4065.72633,0.70572
4063.79762,0.70840
4061.86890,0.71129
4059.94019,0.71426
4058.01148,0.71746
4056.08277,0.72040
4054.15405,0.72283
4052.22534,0.72519
4050.29663,0.72755
4048.36791,0.72931
4046.43920,0.73015
4044.51049,0.73155
4042.58178,0.73490
4040.65306,0.73873
4038.72435,0.74142
4036.79564,0.74314
4034.86693,0.74441
4032.93821,0.74516
4031.00950,0.74511
4029.08079,0.74400
4027.15208,0.74213
4025.22336,0.74075
4023.29465,0.74079
4021.36594,0.74200
4019.43722,0.74540
4017.50851,0.75228
4015.57980,0.76074
4013.65109,0.76813
4011.72237,0.77336
4009.79366,0.77647
4007.86495,0.77904
4005.93624,0.78209
4004.00752,0.78461
4002.07881,0.78619
4000.15010,0.78730
3998.22139,0.78730
3996.29267,0.78590
3994.36396,0.78428
3992.43525,0.78315
3990.50653,0.78292
3988.57782,0.78422
3986.64911,0.78551
3984.72040,0.78516
3982.79168,0.78413
3980.86297,0.78348
3978.93426,0.78278
3977.00555,0.78134
3975.07683,0.78036
3973.14812,0.78168
3971.21941,0.78447
3969.29070,0.78746
3967.36198,0.79033
3965.43327,0.79131
3963.50456,0.78951
3961.57584,0.78815
3959.64713,0.78916
3957.71842,0.79041
3955.78971,0.79080
3953.86099,0.78943
3951.93228,0.78459
3950.00357,0.77839
3948.07486,0.77689
3946.14614,0.77881
3944.21743,0.77774
3942.28872,0.77748
3940.36000,0.78236
3938.43129,0.78619
3936.50258,0.78412
3934.57387,0.77557
3932.64515,0.76436
3930.71644,0.76014
3928.78773,0.76356
3926.85902,0.76349
3924.93030,0.75833
3923.00159,0.75719
3921.07288,0.75852
3919.14417,0.75596
3917.21545,0.75518
3915.28674,0.76234
3913.35803,0.77101
3911.42931,0.77537
3909.50060,0.77413
3907.57189,0.76400
3905.64318,0.74452
3903.71446,0.72770
3901.78575,0.72590
3899.85704,0.73577
3897.92833,0.75108
3895.99961,0.76064
3894.07090,0.75698
3892.14219,0.74905
3890.21348,0.75245
3888.28476,0.75704
3886.35605,0.75147
3884.42734,0.74454
3882.49862,0.74252
3880.56991,0.74612
3878.64120,0.75741
3876.71249,0.76193
3874.78377,0.75288
3872.85506,0.73944
3870.92635,0.73193
3868.99764,0.73671
3867.06892,0.74367
3865.14021,0.74186
3863.21150,0.74492
3861.28278,0.75963
3859.35407,0.76747
3857.42536,0.75924
3855.49665,0.73733
3853.56793,0.71718
3851.63922,0.73289
3849.71051,0.76085
3847.78180,0.77648
3845.85308,0.77612
3843.92437,0.76328
3841.99566,0.74578
3840.06695,0.72954
3838.13823,0.72517
3836.20952,0.73786
3834.28081,0.75253
3832.35209,0.76314
3830.42338,0.77013
3828.49467,0.77062
3826.56596,0.76625
3824.63724,0.75930
3822.70853,0.74471
3820.77982,0.73098
3818.85111,0.73527
3816.92239,0.74652
3814.99368,0.76375
3813.06497,0.78188
3811.13626,0.78883
3809.20754,0.78237
3807.27883,0.77040
3805.35012,0.76411
3803.42140,0.75672
3801.49269,0.75010
3799.56398,0.75868
3797.63527,0.77272
3795.70655,0.78960
3793.77784,0.80739
3791.84913,0.81723
3789.92042,0.81844
3787.99170,0.81334
3786.06299,0.80532
3784.13428,0.80236
3782.20557,0.80286
3780.27685,0.80034
3778.34814,0.80353
3776.41943,0.81443
3774.49071,0.81947
3772.56200,0.81245
3770.63329,0.79943
3768.70458,0.79435
3766.77586,0.79818
3764.84715,0.80399
3762.91844,0.80654
3760.98973,0.79922
3759.06101,0.78813
3757.13230,0.78567
3755.20359,0.78211
3753.27487,0.76362
3751.34616,0.73642
3749.41745,0.73132
3747.48874,0.74083
3745.56002,0.74661
3743.63131,0.75452
3741.70260,0.76162
3739.77389,0.75888
3737.84517,0.74320
3735.91646,0.72176
3733.98775,0.72055
3732.05904,0.74147
3730.13032,0.75876
3728.20161,0.76212
3726.27290,0.75669
3724.34418,0.75455
3722.41547,0.76167
3720.48676,0.77545
3718.55805,0.79034
3716.62933,0.79822
3714.70062,0.79080
3712.77191,0.76556
3710.84320,0.74624
3708.91448,0.75813
3706.98577,0.77607
3705.05706,0.78215
3703.12835,0.77904
3701.19963,0.77900
3699.27092,0.78580
3697.34221,0.79024
3695.41349,0.78806
3693.48478,0.77712
3691.55607,0.75709
3689.62736,0.74549
3687.69864,0.76354
3685.76993,0.78734
3683.84122,0.79917
3681.91251,0.79759
3679.98379,0.78354
3678.05508,0.76138
3676.12637,0.74209
3674.19766,0.74485
3672.26894,0.75204
3670.34023,0.75335
3668.41152,0.77001
3666.48280,0.79344
3664.55409,0.80579
3662.62538,0.80771
3660.69667,0.80354
3658.76795,0.79403
3656.83924,0.78185
3654.91053,0.77414
3652.98182,0.76280
3651.05310,0.73300
3649.12439,0.70222
3647.19568,0.71780
3645.26696,0.74710
3643.33825,0.76273
3641.40954,0.76936
3639.48083,0.77369
3637.55211,0.77616
3635.62340,0.77447
3633.69469,0.76798
3631.76598,0.75600
3629.83726,0.73936
3627.90855,0.73861
3625.97984,0.75665
3624.05113,0.76719
3622.12241,0.76272
3620.19370,0.74795
3618.26499,0.73845
3616.33627,0.73716
3614.40756,0.73294
3612.47885,0.72702
3610.55014,0.71978
3608.62142,0.70964
3606.69271,0.70652
3604.76400,0.70999
3602.83529,0.71056
3600.90657,0.71274
3598.97786,0.72522
3597.04915,0.74285
3595.12044,0.76079
3593.19172,0.78098
3591.26301,0.79543
3589.33430,0.79539
3587.40558,0.79373
3585.47687,0.81022
3583.54816,0.83029
3581.61945,0.84123
3579.69073,0.84565
3577.76202,0.84808
3575.83331,0.85072
3573.90460,0.85380
3571.97588,0.85311
3570.04717,0.84151
3568.11846,0.82048
3566.18974,0.81402
3564.26103,0.83107
3562.33232,0.84907
3560.40361,0.86137
3558.47489,0.87078
3556.54618,0.87536
3554.61747,0.87267
3552.68876,0.86850
3550.76004,0.86924
3548.83133,0.86837
3546.90262,0.86152
3544.97391,0.85959
3543.04519,0.86900
3541.11648,0.87979
3539.18777,0.88280
3537.25905,0.87993
3535.33034,0.87943
3533.40163,0.88074
3531.47292,0.87704
3529.54420,0.86906
3527.61549,0.86413
3525.68678,0.86438
3523.75807,0.86790
3521.82935,0.87547
3519.90064,0.88393
3517.97193,0.88902
3516.04322,0.89109
3514.11450,0.89012
3512.18579,0.88535
3510.25708,0.88022
3508.32836,0.87931
3506.39965,0.87839
3504.47094,0.87259
3502.54223,0.86977
3500.61351,0.87528
3498.68480,0.88022
3496.75609,0.88088
3494.82738,0.88225
3492.89866,0.88500
3490.96995,0.88523
3489.04124,0.88300
3487.11253,0.88205
3485.18381,0.88203
3483.25510,0.87978
3481.32639,0.87841
3479.39767,0.88131
3477.46896,0.88372
3475.54025,0.88281
3473.61154,0.88173
3471.68282,0.88170
3469.75411,0.88062
3467.82540,0.87813
3465.89669,0.87570
3463.96797,0.87329
3462.03926,0.87146
3460.11055,0.87211
3458.18183,0.87420
3456.25312,0.87559
3454.32441,0.87632
3452.39570,0.87642
3450.46698,0.87385
3448.53827,0.86831
3446.60956,0.86513
3444.68085,0.86674
3442.75213,0.86893
3440.82342,0.87016
3438.89471,0.87088
3436.96600,0.87077
3435.03728,0.87008
3433.10857,0.86895
3431.17986,0.86825
3429.25114,0.86858
3427.32243,0.86908
3425.39372,0.86865
3423.46501,0.86640
3421.53629,0.86423
3419.60758,0.86613
3417.67887,0.87078
3415.75016,0.87368
3413.82144,0.87433
3411.89273,0.87435
3409.96402,0.87434
3408.03531,0.87414
3406.10659,0.87321
3404.17788,0.87136
3402.24917,0.86944
3400.32045,0.86804
3398.39174,0.86684
3396.46303,0.86594
3394.53432,0.86479
3392.60560,0.86353
3390.67689,0.86415
3388.74818,0.86572
3386.81947,0.86568
3384.89075,0.86484
3382.96204,0.86494
3381.03333,0.86549
3379.10462,0.86555
3377.17590,0.86496
3375.24719,0.86377
3373.31848,0.86252
3371.38976,0.86127
3369.46105,0.85938
3367.53234,0.85743
3365.60363,0.85689
3363.67491,0.85784
3361.74620,0.85932
3359.81749,0.86119
3357.88878,0.86336
3355.96006,0.86532
3354.03135,0.86697
3352.10264,0.86833
3350.17392,0.86958
3348.24521,0.87093
3346.31650,0.87221
3344.38779,0.87311
3342.45907,0.87363
3340.53036,0.87369
3338.60165,0.87286
3336.67294,0.87176
3334.74422,0.87151
3332.81551,0.87200
3330.88680,0.87234
3328.95809,0.87179
3327.02937,0.87072
3325.10066,0.87048
3323.17195,0.87150
3321.24323,0.87327
3319.31452,0.87518
3317.38581,0.87628
3315.45710,0.87606
3313.52838,0.87542
3311.59967,0.87520
3309.67096,0.87551
3307.74225,0.87659
3305.81353,0.87786
3303.88482,0.87832
3301.95611,0.87804
3300.02740,0.87716
3298.09868,0.87575
3296.16997,0.87445
3294.24126,0.87351
3292.31254,0.87336
3290.38383,0.87441
3288.45512,0.87576
3286.52641,0.87625
3284.59769,0.87608
3282.66898,0.87615
3280.74027,0.87627
3278.81156,0.87578
3276.88284,0.87485
3274.95413,0.87424
3273.02542,0.87454
3271.09670,0.87540
3269.16799,0.87585
3267.23928,0.87519
3265.31057,0.87400
3263.38185,0.87361
3261.45314,0.87377
3259.52443,0.87345
3257.59572,0.87254
3255.66700,0.87157
3253.73829,0.87157
3251.80958,0.87276
3249.88087,0.87363
3247.95215,0.87307
3246.02344,0.87201
3244.09473,0.87231
3242.16601,0.87345
3240.23730,0.87324
3238.30859,0.87195
3236.37988,0.87118
3234.45116,0.87041
3232.52245,0.86861
3230.59374,0.86673
3228.66503,0.86614
3226.73631,0.86652
3224.80760,0.86635
3222.87889,0.86475
3220.95018,0.86280
3219.02146,0.86216
3217.09275,0.86225
3215.16404,0.86176
3213.23532,0.86121
3211.30661,0.86081
3209.37790,0.86009
3207.44919,0.85939
3205.52047,0.85874
3203.59176,0.85772
3201.66305,0.85569
3199.73434,0.85233
3197.80562,0.84930
3195.87691,0.84834
3193.94820,0.84856
3192.01949,0.84820
3190.09077,0.84714
3188.16206,0.84608
3186.23335,0.84525
3184.30463,0.84500
3182.37592,0.84506
3180.44721,0.84408
3178.51850,0.84245
3176.58978,0.84191
3174.66107,0.84181
3172.73236,0.84086
3170.80365,0.83942
3168.87493,0.83775
3166.94622,0.83581
3165.01751,0.83419
3163.08879,0.83322
3161.16008,0.83230
3159.23137,0.83102
3157.30266,0.82982
3155.37394,0.82898
3153.44523,0.82816
3151.51652,0.82725
3149.58781,0.82621
3147.65909,0.82495
3145.73038,0.82365
3143.80167,0.82217
3141.87296,0.82031
3139.94424,0.81828
3138.01553,0.81605
3136.08682,0.81328
3134.15810,0.81004
3132.22939,0.80741
3130.30068,0.80563
3128.37197,0.80343
3126.44325,0.80039
3124.51454,0.79687
3122.58583,0.79310
3120.65712,0.78942
3118.72840,0.78561
3116.79969,0.78163
3114.87098,0.77818
3112.94227,0.77481
3111.01355,0.77006
3109.08484,0.76407
3107.15613,0.75791
3105.22741,0.75088
3103.29870,0.74168
3101.36999,0.73128
3099.44128,0.72109
3097.51256,0.71028
3095.58385,0.69818
3093.65514,0.68591
3091.72643,0.67437
3089.79771,0.66392
3087.86900,0.65481
3085.94029,0.64683
3084.01158,0.63943
3082.08286,0.63242
3080.15415,0.62641
3078.22544,0.62192
3076.29672,0.61816
3074.36801,0.61385
3072.43930,0.60860
3070.51059,0.60273
3068.58187,0.59642
3066.65316,0.59003
3064.72445,0.58431
3062.79574,0.57914
3060.86702,0.57330
3058.93831,0.56611
3057.00960,0.55830
3055.08088,0.55087
3053.15217,0.54336
3051.22346,0.53469
3049.29475,0.52524
3047.36603,0.51587
3045.43732,0.50642
3043.50861,0.49643
3041.57990,0.48581
3039.65118,0.47488
3037.72247,0.46386
3035.79376,0.45280
3033.86505,0.44203
3031.93633,0.43219
3030.00762,0.42364
3028.07891,0.41564
3026.15019,0.40735
3024.22148,0.39911
3022.29277,0.39130
3020.36406,0.38351
3018.43534,0.37532
3016.50663,0.36671
3014.57792,0.35788
3012.64921,0.34899
3010.72049,0.34008
3008.79178,0.33092
3006.86307,0.32116
3004.93436,0.31071
3003.00564,0.29966
3001.07693,0.28807
2999.14822,0.27580
2997.21950,0.26258
2995.29079,0.24838
2993.36208,0.23343
2991.43337,0.21774
2989.50465,0.20088
2987.57594,0.18256
2985.64723,0.16307
2983.71852,0.14280
2981.78980,0.12195
2979.86109,0.10084
2977.93238,0.08011
2976.00366,0.06065
2974.07495,0.04337
2972.14624,0.02920
2970.21753,0.01853
2968.28881,0.01098
2966.36010,0.00603
2964.43139,0.00323
2962.50268,0.00192
2960.57396,0.00150
2958.64525,0.00144
2956.71654,0.00143
2954.78783,0.00130
2952.85911,0.00091
2950.93040,0.00047
2949.00169,0.00042
2947.07297,0.00072
2945.14426,0.00088
2943.21555,0.00089
2941.28684,0.00086
2939.35812,0.00096
2937.42941,0.00103
2935.50070,0.00102
2933.57199,0.00083
2931.64327,0.00069
2929.71456,0.00082
2927.78585,0.00111
2925.85714,0.00119
2923.92842,0.00101
2921.99971,0.00067
2920.07100,0.00052
2918.14228,0.00066
2916.21357,0.00082
2914.28486,0.00086
2912.35615,0.00088
2910.42743,0.00084
2908.49872,0.00082
2906.57001,0.00086
2904.64130,0.00091
2902.71258,0.00101
2900.78387,0.00107
2898.85516,0.00092
2896.92645,0.00070
2894.99773,0.00048
2893.06902,0.00041
2891.14031,0.00049
2889.21159,0.00051
2887.28288,0.00047
2885.35417,0.00069
2883.42546,0.00101
2881.49674,0.00106
2879.56803,0.00082
2877.63932,0.00060
2875.71061,0.00066
2873.78189,0.00084
2871.85318,0.00086
2869.92447,0.00078
2867.99575,0.00080
2866.06704,0.00099
2864.13833,0.00105
2862.20962,0.00099
2860.28090,0.00105
2858.35219,0.00122
2856.42348,0.00125
2854.49477,0.00107
2852.56605,0.00090
2850.63734,0.00087
2848.70863,0.00099
2846.77992,0.00113
2844.85120,0.00102
2842.92249,0.00086
2840.99378,0.00085
2839.06506,0.00111
2837.13635,0.00166
2835.20764,0.00247
2833.27893,0.00404
2831.35021,0.00703
2829.42150,0.01159
2827.49279,0.01751
2825.56408,0.02444
2823.63536,0.03222
2821.70665,0.04082
2819.77794,0.05011
2817.84923,0.05989
2815.92051,0.07004
2813.99180,0.08055
2812.06309,0.09141
2810.13437,0.10256
2808.20566,0.11401
2806.27695,0.12576
2804.34824,0.13778
2802.41952,0.15013
2800.49081,0.16285
2798.56210,0.17618
2796.63339,0.19042
2794.70467,0.20532
2792.77596,0.22047
2790.84725,0.23590
2788.91854,0.25182
2786.98982,0.26811
2785.06111,0.28445
2783.13240,0.30039
2781.20368,0.31559
2779.27497,0.32988
2777.34626,0.34323
2775.41755,0.35560
2773.48883,0.36682
2771.56012,0.37684
2769.63141,0.38581
2767.70270,0.39382
2765.77398,0.40105
2763.84527,0.40778
2761.91656,0.41426
2759.98784,0.42065
2758.05913,0.42682
2756.13042,0.43242
2754.20171,0.43716
2752.27299,0.44068
2750.34428,0.44259
2748.41557,0.44300
2746.48686,0.44258
2744.55814,0.44184
2742.62943,0.44097
2740.70072,0.44031
2738.77201,0.44051
2736.84329,0.44184
2734.91458,0.44406
2732.98587,0.44677
2731.05715,0.44990
2729.12844,0.45371
2727.19973,0.45833
2725.27102,0.46345
2723.34230,0.46852
2721.41359,0.47324
2719.48488,0.47772
2717.55617,0.48201
2715.62745,0.48588
2713.69874,0.48931
2711.77003,0.49265
2709.84132,0.49628
2707.91260,0.50024
2705.98389,0.50423
2704.05518,0.50786
2702.12646,0.51073
2700.19775,0.51248
2698.26904,0.51293
2696.34033,0.51195
2694.41161,0.50949
2692.48290,0.50580
2690.55419,0.50139
2688.62548,0.49685
2686.69676,0.49276
2684.76805,0.48939
2682.83934,0.48654
2680.91062,0.48385
2678.98191,0.48103
2677.05320,0.47802
2675.12449,0.47481
2673.19577,0.47154
2671.26706,0.46848
2669.33835,0.46590
2667.40964,0.46400
2665.48092,0.46302
2663.55221,0.46293
2661.62350,0.46339
2659.69479,0.46438
2657.76607,0.46611
2655.83736,0.46853
2653.90865,0.47155
2651.97993,0.47490
2650.05122,0.47790
2648.12251,0.48001
2646.19380,0.48109
2644.26508,0.48108
2642.33637,0.48011
2640.40766,0.47868
2638.47895,0.47753
2636.55023,0.47743
2634.62152,0.47926
2632.69281,0.48371
2630.76410,0.49068
2628.83538,0.49916
2626.90667,0.50808
2624.97796,0.51691
2623.04924,0.52552
2621.12053,0.53398
2619.19182,0.54266
2617.26311,0.55151
2615.33439,0.56013
2613.40568,0.56852
2611.47697,0.57669
2609.54826,0.58433
2607.61954,0.59136
2605.69083,0.59793
2603.76212,0.60395
2601.83341,0.60921
2599.90469,0.61406
2597.97598,0.61897
2596.04727,0.62417
2594.11855,0.62979
2592.18984,0.63597
2590.26113,0.64273
2588.33242,0.64977
2586.40370,0.65684
2584.47499,0.66392
2582.54628,0.67094
2580.61757,0.67766
2578.68885,0.68409
2576.76014,0.69023
2574.83143,0.69597
2572.90271,0.70123
2570.97400,0.70603
2569.04529,0.71046
2567.11658,0.71452
2565.18786,0.71804
2563.25915,0.72114
2561.33044,0.72424
2559.40173,0.72718
2557.47301,0.72961
2555.54430,0.73159
2553.61559,0.73345
2551.68688,0.73544
2549.75816,0.73792
2547.82945,0.74165
2545.90074,0.74716
2543.97202,0.75397
2542.04331,0.76053
2540.11460,0.76498
2538.18589,0.76658
2536.25717,0.76589
2534.32846,0.76378
2532.39975,0.76118
2530.47104,0.75903
2528.54232,0.75813
2526.61361,0.75918
2524.68490,0.76257
2522.75619,0.76801
2520.82747,0.77464
2518.89876,0.78137
2516.97005,0.78748
2515.04133,0.79264
2513.11262,0.79689
2511.18391,0.80051
2509.25520,0.80374
2507.32648,0.80646
2505.39777,0.80852
2503.46906,0.81013
2501.54035,0.81144
2499.61163,0.81245
2497.68292,0.81336
2495.75421,0.81436
2493.82549,0.81544
2491.89678,0.81669
2489.96807,0.81816
2488.03936,0.81964
2486.11064,0.82112
2484.18193,0.82275
2482.25322,0.82424
2480.32451,0.82530
2478.39579,0.82581
2476.46708,0.82572
2474.53837,0.82586
2472.60966,0.82777
2470.68094,0.83187
2468.75223,0.83665
2466.82352,0.84040
2464.89480,0.84282
2462.96609,0.84443
2461.03738,0.84543
2459.10867,0.84594
2457.17995,0.84646
2455.25124,0.84725
2453.32253,0.84797
2451.39382,0.84858
2449.46510,0.84943
2447.53639,0.85046
2445.60768,0.85119
2443.67897,0.85128
2441.75025,0.85081
2439.82154,0.85007
2437.89283,0.84909
2435.96411,0.84767
2434.03540,0.84594
2432.10669,0.84426
2430.17798,0.84263
2428.24926,0.84063
2426.32055,0.83813
2424.39184,0.83524
2422.46313,0.83222
2420.53441,0.82956
2418.60570,0.82787
2416.67699,0.82760
2414.74828,0.82873
2412.81956,0.83070
2410.89085,0.83296
2408.96214,0.83513
2407.03342,0.83684
2405.10471,0.83805
2403.17600,0.83874
2401.24729,0.83873
2399.31857,0.83837
2397.38986,0.83825
2395.46115,0.83844
2393.53244,0.83852
2391.60372,0.83787
2389.67501,0.83541
2387.74630,0.82900
2385.81758,0.81530
2383.88887,0.79101
2381.96016,0.75545
2380.03145,0.71160
2378.10273,0.66425
2376.17402,0.61750
2374.24531,0.57333
2372.31660,0.53229
2370.38788,0.49499
2368.45917,0.46243
2366.53046,0.43544
2364.60175,0.41493
2362.67303,0.40107
2360.74432,0.39339
2358.81561,0.39293
2356.88689,0.40185
2354.95818,0.42134
2353.02947,0.45237
2351.10076,0.48911
2349.17204,0.50976
2347.24333,0.49729
2345.31462,0.46377
2343.38591,0.43898
2341.45719,0.43241
2339.52848,0.43504
2337.59977,0.44035
2335.67106,0.44563
2333.74234,0.44911
2331.81363,0.45139
2329.88492,0.45716
2327.95620,0.46803
2326.02749,0.48023
2324.09878,0.49203
2322.17007,0.50686
2320.24135,0.52815
2318.31264,0.55395
2316.38393,0.57802
2314.45522,0.59638
2312.52650,0.61174
2310.59779,0.62912
2308.66908,0.64983
2306.74037,0.67203
2304.81165,0.69276
2302.88294,0.70977
2300.95423,0.72360
2299.02551,0.73617
2297.09680,0.74797
2295.16809,0.75905
2293.23938,0.76975
2291.31066,0.78009
2289.38195,0.78998
2287.45324,0.79944
2285.52453,0.80782
2283.59581,0.81330
2281.66710,0.81485
2279.73839,0.81373
2277.80967,0.81221
2275.88096,0.81196
2273.95225,0.81343
2272.02354,0.81629
2270.09482,0.82002
2268.16611,0.82409
2266.23740,0.82793
2264.30869,0.83128
2262.37997,0.83421
2260.45126,0.83699
2258.52255,0.83965
2256.59384,0.84194
2254.66512,0.84378
2252.73641,0.84531
2250.80770,0.84667
2248.87898,0.84782
2246.95027,0.84852
2245.02156,0.84887
2243.09285,0.84970
2241.16413,0.85184
2239.23542,0.85531
2237.30671,0.85945
2235.37800,0.86332
2233.44928,0.86636
2231.52057,0.86850
2229.59186,0.86954
2227.66315,0.86944
2225.73443,0.86876
2223.80572,0.86823
2221.87701,0.86824
2219.94829,0.86890
2218.01958,0.87012
2216.09087,0.87142
2214.16216,0.87243
2212.23344,0.87316
2210.30473,0.87364
2208.37602,0.87389
2206.44731,0.87392
2204.51859,0.87361
2202.58988,0.87300
2200.66117,0.87227
2198.73245,0.87147
2196.80374,0.87073
2194.87503,0.87024
2192.94632,0.87003
2191.01760,0.87002
2189.08889,0.87008
2187.16018,0.87014
2185.23147,0.87031
2183.30275,0.87068
2181.37404,0.87120
2179.44533,0.87177
2177.51662,0.87209
2175.58790,0.87200
2173.65919,0.87167
2171.73048,0.87132
2169.80176,0.87070
2167.87305,0.86960
2165.94434,0.86819
2164.01563,0.86667
2162.08691,0.86498
2160.15820,0.86326
2158.22949,0.86180
2156.30078,0.86063
2154.37206,0.85979
2152.44335,0.85947
2150.51464,0.85971
2148.58593,0.86033
2146.65721,0.86148
2144.72850,0.86338
2142.79979,0.86583
2140.87107,0.86843
2138.94236,0.87082
2137.01365,0.87296
2135.08494,0.87506
2133.15622,0.87707
2131.22751,0.87878
2129.29880,0.88008
2127.37009,0.88102
2125.44137,0.88197
2123.51266,0.88323
2121.58395,0.88461
2119.65524,0.88579
2117.72652,0.88671
2115.79781,0.88760
2113.86910,0.88878
2111.94038,0.89005
2110.01167,0.89081
2108.08296,0.89101
2106.15425,0.89076
2104.22553,0.88997
2102.29682,0.88872
2100.36811,0.88727
2098.43940,0.88579
2096.51068,0.88446
2094.58197,0.88338
2092.65326,0.88213
2090.72454,0.88071
2088.79583,0.88020
2086.86712,0.88095
2084.93841,0.88205
2083.00969,0.88286
2081.08098,0.88320
2079.15227,0.88314
2077.22356,0.88297
2075.29484,0.88284
2073.36613,0.88246
2071.43742,0.88137
2069.50871,0.87923
2067.57999,0.87560
2065.65128,0.87138
2063.72257,0.86879
2061.79385,0.86757
2059.86514,0.86617
2057.93643,0.86470
2056.00772,0.86338
2054.07900,0.86211
2052.15029,0.86103
2050.22158,0.86005
2048.29287,0.85900
2046.36415,0.85756
2044.43544,0.85500
2042.50673,0.85162
2040.57802,0.84919
2038.64930,0.84775
2036.72059,0.84532
2034.79188,0.84139
2032.86316,0.83670
2030.93445,0.83142
2029.00574,0.82537
2027.07703,0.81870
2025.14831,0.81200
2023.21960,0.80593
2021.29089,0.80047
2019.36218,0.79597
2017.43346,0.79667
2015.50475,0.80692
2013.57604,0.82311
2011.64733,0.83888
2009.71861,0.85204
2007.78990,0.86283
2005.86119,0.87146
2003.93247,0.87766
2002.00376,0.88124
2000.07505,0.88294
1998.14634,0.88381
1996.21762,0.88268
1994.28891,0.87741
1992.36020,0.87179
1990.43149,0.87189
1988.50277,0.87580
1986.57406,0.87986
1984.64535,0.88328
1982.71663,0.88552
1980.78792,0.88726
1978.85921,0.88924
1976.93050,0.89138
1975.00178,0.89327
1973.07307,0.89447
1971.14436,0.89361
1969.21565,0.88873
1967.28693,0.88324
1965.35822,0.88306
1963.42951,0.88514
1961.50080,0.88452
1959.57208,0.88231
1957.64337,0.87974
1955.71466,0.87733
1953.78594,0.87675
1951.85723,0.87760
1949.92852,0.87768
1947.99981,0.87573
1946.07109,0.87189
1944.14238,0.86777
1942.21367,0.86912
1940.28496,0.87802
1938.35624,0.88622
1936.42753,0.88906
1934.49882,0.88869
1932.57011,0.88756
1930.64139,0.88619
1928.71268,0.88388
1926.78397,0.87864
1924.85525,0.86836
1922.92654,0.85820
1920.99783,0.85437
1919.06912,0.85268
1917.14040,0.85339
1915.21169,0.85845
1913.28298,0.86038
1911.35427,0.85588
1909.42555,0.85136
1907.49684,0.85287
1905.56813,0.85667
1903.63941,0.85737
1901.71070,0.85536
1899.78199,0.85199
1897.85328,0.84659
1895.92456,0.84151
1893.99585,0.84150
1892.06714,0.84349
1890.13843,0.84516
1888.20971,0.85236
1886.28100,0.86204
1884.35229,0.86831
1882.42358,0.87289
1880.49486,0.87678
1878.56615,0.88008
1876.63744,0.88379
1874.70872,0.88685
1872.78001,0.88441
1870.85130,0.87196
1868.92259,0.85921
1866.99387,0.86728
1865.06516,0.88689
1863.13645,0.89824
1861.20774,0.89974
1859.27902,0.89811
1857.35031,0.89729
1855.42160,0.89656
1853.49289,0.89440
1851.56417,0.88992
1849.63546,0.88144
1847.70675,0.86908
1845.77803,0.85681
1843.84932,0.85671
1841.92061,0.87240
1839.99190,0.88559
1838.06318,0.89001
1836.13447,0.89283
1834.20576,0.89460
1832.27705,0.88643
1830.34833,0.87117
1828.41962,0.86646
1826.49091,0.86967
1824.56220,0.87138
1822.63348,0.87487
1820.70477,0.87727
1818.77606,0.87513
1816.84734,0.87203
1814.91863,0.86853
1812.98992,0.86126
1811.06121,0.85519
1809.13249,0.85914
1807.20378,0.86849
1805.27507,0.87356
1803.34636,0.87045
1801.41764,0.86413
1799.48893,0.86438
1797.56022,0.86794
1795.63150,0.86496
1793.70279,0.85467
1791.77408,0.85191
1789.84537,0.86650
1787.91665,0.87837
1785.98794,0.87749
1784.05923,0.86972
1782.13052,0.86073
1780.20180,0.85479
1778.27309,0.85386
1776.34438,0.84856
1774.41567,0.83193
1772.48695,0.81572
1770.55824,0.82272
1768.62953,0.84365
1766.70081,0.86044
1764.77210,0.86469
1762.84339,0.85623
1760.91468,0.84698
1758.98596,0.84199
1757.05725,0.83451
1755.12854,0.82479
1753.19983,0.80746
1751.27111,0.77553
1749.34240,0.74538
1747.41369,0.73821
1745.48498,0.74186
1743.55626,0.74397
1741.62755,0.74460
1739.69884,0.74951
1737.77012,0.75831
1735.84141,0.76103
1733.91270,0.76273
1731.98399,0.78104
1730.05527,0.80467
1728.12656,0.82190
1726.19785,0.82563
1724.26914,0.81741
1722.34042,0.80631
1720.41171,0.79027
1718.48300,0.75852
1716.55429,0.73096
1714.62557,0.74219
1712.69686,0.76450
1710.76815,0.77799
1708.83943,0.77966
1706.91072,0.77291
1704.98201,0.76977
1703.05330,0.77218
1701.12458,0.76703
1699.19587,0.75658
1697.26716,0.76445
1695.33845,0.79827
1693.40973,0.83073
1691.48102,0.84067
1689.55231,0.83451
1687.62359,0.82214
1685.69488,0.80319
1683.76617,0.78850
1681.83746,0.80080
1679.90874,0.81683
1677.98003,0.82248
1676.05132,0.81634
1674.12261,0.80623
1672.19389,0.79695
1670.26518,0.79107
1668.33647,0.80687
1666.40776,0.82816
1664.47904,0.83285
1662.55033,0.83210
1660.62162,0.84221
1658.69290,0.84921
1656.76419,0.83913
1654.83548,0.81092
1652.90677,0.78598
1650.97805,0.79043
1649.04934,0.78501
1647.12063,0.77308
1645.19192,0.78667
1643.26320,0.80537
1641.33449,0.80815
1639.40578,0.79585
1637.47707,0.77373
1635.54835,0.76848
1633.61964,0.79488
1631.69093,0.81414
1629.76221,0.81739
1627.83350,0.81377
1625.90479,0.81027
1623.97608,0.80773
1622.04736,0.81328
1620.11865,0.81897
1618.18994,0.81143
1616.26123,0.80480
1614.33251,0.81525
1612.40380,0.82195
1610.47509,0.81642
1608.54637,0.80857
1606.61766,0.80680
1604.68895,0.80686
1602.76024,0.80659
1600.83152,0.80986
1598.90281,0.81421
1596.97410,0.81462
1595.04539,0.81451
1593.11667,0.81844
1591.18796,0.82391
1589.25925,0.82861
1587.33054,0.83238
1585.40182,0.83357
1583.47311,0.83148
1581.54440,0.82554
1579.61568,0.81142
1577.68697,0.78747
1575.75826,0.77342
1573.82955,0.78110
1571.90083,0.78169
1569.97212,0.77198
1568.04341,0.77220
1566.11470,0.77919
1564.18598,0.78068
1562.25727,0.77365
1560.32856,0.75053
1558.39985,0.72713
1556.47113,0.74409
1554.54242,0.76515
1552.61371,0.77751
1550.68499,0.78094
1548.75628,0.77950
1546.82757,0.76848
1544.89886,0.73863
1542.97014,0.69696
1541.04143,0.66991
1539.11272,0.68995
1537.18401,0.71642
1535.25529,0.72138
1533.32658,0.72154
1531.39787,0.73123
1529.46916,0.73480
1527.54044,0.72454
1525.61173,0.71031
1523.68302,0.69739
1521.75430,0.68792
1519.82559,0.69079
1517.89688,0.69441
1515.96817,0.69797
1514.03945,0.70224
1512.11074,0.69378
1510.18203,0.66796
1508.25332,0.63087
1506.32460,0.62080
1504.39589,0.64363
1502.46718,0.65216
1500.53846,0.64375
1498.60975,0.62483
1496.68104,0.61093
1494.75233,0.60797
1492.82361,0.59770
1490.89490,0.56663
1488.96619,0.52573
1487.03748,0.50017
1485.10876,0.47668
1483.18005,0.43539
1481.25134,0.36738
1479.32263,0.27945
1477.39391,0.18032
1475.46520,0.08357
1473.53649,0.02085
1471.60777,0.00232
1469.67906,0.00059
1467.75035,0.00049
1465.82164,0.00042
1463.89292,0.00046
1461.96421,0.00095
1460.03550,0.00238
1458.10679,0.00695
1456.17807,0.01953
1454.24936,0.03671
1452.32065,0.05687
1450.39194,0.07917
1448.46322,0.10116
1446.53451,0.12126
1444.60580,0.13802
1442.67708,0.15362
1440.74837,0.16948
1438.81966,0.18652
1436.89095,0.21524
1434.96223,0.25929
1433.03352,0.30580
1431.10481,0.36228
1429.17610,0.43396
1427.24738,0.49878
1425.31867,0.54615
1423.38996,0.58172
1421.46125,0.60370
1419.53253,0.61565
1417.60382,0.63457
1415.67511,0.65883
1413.74639,0.67655
1411.81768,0.68865
1409.88897,0.70042
1407.96026,0.70982
1406.03154,0.71469
1404.10283,0.72097
1402.17412,0.72590
1400.24541,0.72075
1398.31669,0.70891
1396.38798,0.70018
1394.45927,0.69876
1392.53055,0.70126
1390.60184,0.69565
1388.67313,0.67488
1386.74442,0.64272
1384.81570,0.59991
1382.88699,0.53183
1380.95828,0.44365
1379.02957,0.37842
1377.10085,0.36466
1375.17214,0.38184
1373.24343,0.39273
1371.31472,0.38457
1369.38600,0.37268
1367.45729,0.37325
1365.52858,0.38672
1363.59986,0.40666
1361.67115,0.43257
1359.74244,0.45574
1357.81373,0.46671
1355.88501,0.46657
1353.95630,0.46323
1352.02759,0.46529
1350.09888,0.47710
1348.17016,0.49847
1346.24145,0.52441
1344.31274,0.54811
1342.38403,0.56467
1340.45531,0.57835
1338.52660,0.60238
1336.59789,0.63600
1334.66917,0.66514
1332.74046,0.68318
1330.81175,0.69053
1328.88304,0.69002
1326.95432,0.68411
1325.02561,0.67385
1323.09690,0.65902
1321.16819,0.63939
1319.23947,0.61804
1317.31076,0.60013
1315.38205,0.58558
1313.45333,0.57225
1311.52462,0.56195
1309.59591,0.55531
1307.66720,0.55140
1305.73848,0.55059
1303.80977,0.55256
1301.88106,0.55660
1299.95235,0.56267
1298.02363,0.57092
1296.09492,0.58158
1294.16621,0.59394
1292.23750,0.60568
1290.30878,0.61484
1288.38007,0.62180
1286.45136,0.62813
1284.52264,0.63395
1282.59393,0.63847
1280.66522,0.64207
1278.73651,0.64584
1276.80779,0.64997
1274.87908,0.65388
1272.95037,0.65778
1271.02166,0.66346
1269.09294,0.67197
1267.16423,0.68216
1265.23552,0.69222
1263.30681,0.70050
1261.37809,0.70634
1259.44938,0.71070
1257.52067,0.71382
1255.59195,0.71485
1253.66324,0.71416
1251.73453,0.71277
1249.80582,0.71170
1247.87710,0.71205
1245.94839,0.71423
1244.01968,0.71825
1242.09097,0.72387
1240.16225,0.73034
1238.23354,0.73700
1236.30483,0.74354
1234.37612,0.74974
1232.44740,0.75528
1230.51869,0.75975
1228.58998,0.76272
1226.66126,0.76387
1224.73255,0.76352
1222.80384,0.76207
1220.87513,0.75938
1218.94641,0.75581
1217.01770,0.75233
1215.08899,0.74908
1213.16028,0.74600
1211.23156,0.74403
1209.30285,0.74433
1207.37414,0.74712
1205.44542,0.75180
1203.51671,0.75767
1201.58800,0.76379
1199.65929,0.76909
1197.73057,0.77289
1195.80186,0.77485
1193.87315,0.77500
1191.94444,0.77336
1190.01572,0.76996
1188.08701,0.76554
1186.15830,0.76114
1184.22959,0.75668
1182.30087,0.75135
1180.37216,0.74482
1178.44345,0.73882
1176.51473,0.73662
1174.58602,0.73850
1172.65731,0.74176
1170.72860,0.74498
1168.79988,0.74849
1166.87117,0.75269
1164.94246,0.75720
1163.01375,0.76111
1161.08503,0.76387
1159.15632,0.76523
1157.22761,0.76473
1155.29890,0.76218
1153.37018,0.75841
1151.44147,0.75449
1149.51276,0.75086
1147.58404,0.74791
1145.65533,0.74604
1143.72662,0.74551
1141.79791,0.74679
1139.86919,0.75012
1137.94048,0.75509
1136.01177,0.76115
1134.08306,0.76767
1132.15434,0.77401
1130.22563,0.77992
1128.29692,0.78507
1126.36821,0.78869
1124.43949,0.79010
1122.51078,0.78893
1120.58207,0.78563
1118.65335,0.78095
1116.72464,0.77540
1114.79593,0.76974
1112.86722,0.76476
1110.93850,0.76080
1109.00979,0.75794
1107.08108,0.75631
1105.15237,0.75598
1103.22365,0.75682
1101.29494,0.75854
1099.36623,0.76047
1097.43751,0.76157
1095.50880,0.76139
1093.58009,0.75995
1091.65138,0.75694
1089.72266,0.75214
1087.79395,0.74553
1085.86524,0.73735
1083.93653,0.72882
1082.00781,0.72196
1080.07910,0.71828
1078.15039,0.71820
1076.22168,0.72129
1074.29296,0.72653
1072.36425,0.73268
1070.43554,0.73864
1068.50682,0.74369
1066.57811,0.74798
1064.64940,0.75272
1062.72069,0.75899
1060.79197,0.76643
1058.86326,0.77372
1056.93455,0.77941
1055.00584,0.78168
1053.07712,0.77964
1051.14841,0.77589
1049.21970,0.77430
1047.29099,0.77448
1045.36227,0.77318
1043.43356,0.76986
1041.50485,0.76636
1039.57613,0.76357
1037.64742,0.76147
1035.71871,0.76016
1033.79000,0.75921
1031.86128,0.75796
1029.93257,0.75620
1028.00386,0.75372
1026.07515,0.74975
1024.14643,0.74357
1022.21772,0.73557
1020.28901,0.72808
1018.36029,0.72449
1016.43158,0.72713
1014.50287,0.73578
1012.57416,0.74759
1010.64544,0.75914
1008.71673,0.76865
1006.78802,0.77570
1004.85931,0.78094
1002.93059,0.78576
1001.00188,0.79102
999.07317,0.79698
997.14446,0.80389
995.21574,0.81154
993.28703,0.81940
991.35832,0.82717
989.42960,0.83435
987.50089,0.84009
985.57218,0.84356
983.64347,0.84414
981.71475,0.84161
979.78604,0.83611
977.85733,0.82836
975.92862,0.81947
973.99990,0.81043
972.07119,0.80241
970.14248,0.79660
968.21377,0.79353
966.28505,0.79315
964.35634,0.79539
962.42763,0.80012
960.49891,0.80705
958.57020,0.81578
956.64149,0.82539
954.71278,0.83459
952.78406,0.84235
950.85535,0.84778
948.92664,0.85023
946.99793,0.84964
945.06921,0.84644
943.14050,0.84138
941.21179,0.83516
939.28308,0.82876
937.35436,0.82352
935.42565,0.82020
933.49694,0.81891
931.56822,0.81974
929.63951,0.82296
927.71080,0.82827
925.78209,0.83478
923.85337,0.84201
921.92466,0.84953
919.99595,0.85606
918.06724,0.86040
916.13852,0.86181
914.20981,0.85931
912.28110,0.85288
910.35238,0.84460
908.42367,0.83734
906.49496,0.83262
904.56625,0.82957
902.63753,0.82672
900.70882,0.82375
898.78011,0.82083
896.85140,0.81864
894.92268,0.81866
892.99397,0.82147
891.06526,0.82601
889.13655,0.83194
887.20783,0.84000
885.27912,0.84929
883.35041,0.85755
881.42169,0.86329
879.49298,0.86575
877.56427,0.86463
875.63556,0.86035
873.70684,0.85384
871.77813,0.84646
869.84942,0.83951
867.92071,0.83382
865.99199,0.82988
864.06328,0.82781
862.13457,0.82767
860.20586,0.82987
858.27714,0.83441
856.34843,0.84074
854.41972,0.84835
852.49100,0.85611
850.56229,0.86256
848.63358,0.86716
846.70487,0.86941
844.77615,0.86849
842.84744,0.86447
840.91873,0.85787
838.99002,0.84942
837.06130,0.84047
835.13259,0.83235
833.20388,0.82589
831.27516,0.82146
829.34645,0.81939
827.41774,0.82007
825.48903,0.82340
823.56031,0.82855
821.63160,0.83489
819.70289,0.84188
817.77418,0.84822
815.84546,0.85248
813.91675,0.85419
811.98804,0.85316
810.05933,0.84882
808.13061,0.84137
806.20190,0.83178
804.27319,0.82055
802.34447,0.80845
800.41576,0.79701
798.48705,0.78743
796.55834,0.78029
794.62962,0.77604
792.70091,0.77438
790.77220,0.77434
788.84349,0.77534
786.91477,0.77665
784.98606,0.77704
783.05735,0.77557
781.12864,0.77157
779.19992,0.76450
777.27121,0.75487
775.34250,0.74405
773.41378,0.73317
771.48507,0.72375
769.55636,0.71704
767.62765,0.71279
765.69893,0.71041
763.77022,0.70950
761.84151,0.70946
759.91280,0.70981
757.98408,0.71053
756.05537,0.71147
754.12666,0.71187
752.19795,0.71019
750.26923,0.70440
748.34052,0.69299
746.41181,0.67516
744.48309,0.64987
742.55438,0.61544
740.62567,0.56974
738.69696,0.50841
736.76824,0.42198
734.83953,0.30210
732.91082,0.16704
730.98211,0.06804
729.05339,0.03694
727.12468,0.04791
725.19597,0.05521
723.26725,0.04155
721.33854,0.02160
719.40983,0.02036
717.48112,0.05695
715.55240,0.13323
713.62369,0.23180
711.69498,0.33105
709.76627,0.41989
707.83755,0.49720
705.90884,0.56525
703.98013,0.62536
702.05142,0.67570
700.12270,0.71465
698.19399,0.74270
696.26528,0.76025
694.33656,0.76763
692.40785,0.76582
690.47914,0.75751
688.55043,0.74753
686.62171,0.74015
684.69300,0.73623
682.76429,0.73513
680.83558,0.73756
678.90686,0.74535
676.97815,0.75887
675.04944,0.77479
673.12073,0.78025
671.19201,0.75130
669.26330,0.70598
667.33459,0.73489
665.40587,0.81740
663.47716,0.85408
661.54845,0.84831
659.61974,0.83217
657.69102,0.81731
655.76231,0.80575
653.83360,0.79777
651.90489,0.79271
649.97617,0.79200
648.04746,0.80035
646.11875,0.81774
644.19004,0.83826
642.26132,0.85863
640.33261,0.87882
638.40390,0.89803
636.47518,0.91423
634.54647,0.92679
632.61776,0.93522
630.68905,0.93826
628.76033,0.93445
626.83162,0.92432
624.90291,0.91165
622.97420,0.89907
621.04548,0.88486
619.11677,0.86859
617.18806,0.85892
615.25934,0.86233
613.33063,0.87189
611.40192,0.88171
609.47321,0.89241
607.54449,0.90392
605.61578,0.91583
603.68707,0.92734
601.75836,0.93618
599.82964,0.94193
