7497.33348,0.09519
7495.40466,0.09856
7493.47584,0.10513
7491.54702,0.10893
7489.61819,0.10993
7487.68937,0.11104
7485.76055,0.10854
7483.83173,0.10112
7481.90290,0.09431
7479.97408,0.09238
7478.04526,0.09341
7476.11644,0.09500
7474.18761,0.09608
7472.25879,0.09509
7470.32997,0.09292
7468.40115,0.09402
7466.47232,0.09789
7464.54350,0.09847
7462.61468,0.09239
7460.68585,0.08874
7458.75703,0.09263
7456.82821,0.09748
7454.89939,0.10082
7452.97056,0.10153
7451.04174,0.09688
7449.11292,0.08916
7447.18410,0.08534
7445.25527,0.09064
7443.32645,0.09877
7441.39763,0.10318
7439.46881,0.10416
7437.53998,0.10284
7435.61116,0.10041
7433.68234,0.09706
7431.75352,0.09713
7429.82469,0.10185
7427.89587,0.10230
7425.96705,0.09866
7424.03823,0.09813
7422.10940,0.09991
7420.18058,0.10152
7418.25176,0.10357
7416.32293,0.10594
7414.39411,0.10714
7412.46529,0.10488
7410.53647,0.10143
7408.60764,0.10097
7406.67882,0.10103
7404.75000,0.09642
7402.82118,0.09054
7400.89235,0.09201
7398.96353,0.09853
7397.03471,0.10117
7395.10589,0.10143
7393.17706,0.10157
7391.24824,0.09991
7389.31942,0.09687
7387.39060,0.09409
7385.46177,0.09501
7383.53295,0.09919
7381.60413,0.10341
7379.67531,0.10612
7377.74648,0.10370
7375.81766,0.09737
7373.88884,0.09569
7371.96001,0.10049
7370.03119,0.10445
7368.10237,0.10552
7366.17355,0.10717
7364.24472,0.10490
7362.31590,0.09617
7360.38708,0.08977
7358.45826,0.08868
7356.52943,0.08877
7354.60061,0.09061
7352.67179,0.09650
7350.74297,0.10453
7348.81414,0.10889
7346.88532,0.10538
7344.95650,0.09908
7343.02768,0.09321
7341.09885,0.08828
7339.17003,0.09034
7337.24121,0.09954
7335.31239,0.10854
7333.38356,0.11343
7331.45474,0.11208
7329.52592,0.10571
7327.59709,0.10117
7325.66827,0.10075
7323.73945,0.09883
7321.81063,0.09307
7319.88180,0.08609
7317.95298,0.08252
7316.02416,0.08615
7314.09534,0.09429
7312.16651,0.09873
7310.23769,0.09553
7308.30887,0.08924
7306.38005,0.08889
7304.45122,0.09427
7302.52240,0.09949
7300.59358,0.10240
7298.66476,0.10313
7296.73593,0.10319
7294.80711,0.10514
7292.87829,0.10878
7290.94947,0.10990
7289.02064,0.10886
7287.09182,0.11131
7285.16300,0.11363
7283.23417,0.11085
7281.30535,0.10701
7279.37653,0.10621
7277.44771,0.10776
7275.51888,0.10703
7273.59006,0.10350
7271.66124,0.10088
7269.73242,0.09734
7267.80359,0.09359
7265.87477,0.09371
7263.94595,0.09632
7262.01713,0.10012
7260.08830,0.10613
7258.15948,0.11136
7256.23066,0.11195
7254.30184,0.10738
7252.37301,0.10154
7250.44419,0.09915
7248.51537,0.10186
7246.58655,0.10563
7244.65772,0.10345
7242.72890,0.09665
7240.80008,0.09681
7238.87125,0.10346
7236.94243,0.10516
7235.01361,0.09837
7233.08479,0.09229
7231.15596,0.09142
7229.22714,0.09249
7227.29832,0.09502
7225.36950,0.09798
7223.44067,0.09954
7221.51185,0.09876
7219.58303,0.09749
7217.65421,0.09973
7215.72538,0.10211
7213.79656,0.10191
7211.86774,0.10291
7209.93892,0.10455
7208.01009,0.10350
7206.08127,0.10102
7204.15245,0.10184
7202.22363,0.10584
7200.29480,0.10544
7198.36598,0.09834
7196.43716,0.09111
7194.50833,0.09071
7192.57951,0.09596
7190.65069,0.10071
7188.72187,0.10299
7186.79304,0.10228
7184.86422,0.09787
7182.93540,0.09553
7181.00658,0.10082
7179.07775,0.10733
7177.14893,0.10845
7175.22011,0.10714
7173.29129,0.10534
7171.36246,0.10184
7169.43364,0.09979
7167.50482,0.10308
7165.57600,0.10898
7163.64717,0.11372
7161.71835,0.11597
7159.78953,0.11364
7157.86071,0.10800
7155.93188,0.10228
7154.00306,0.09751
7152.07424,0.09787
7150.14541,0.10610
7148.21659,0.11437
7146.28777,0.11376
7144.35895,0.10752
7142.43012,0.10431
7140.50130,0.10620
7138.57248,0.10794
7136.64366,0.10717
7134.71483,0.10771
7132.78601,0.10781
7130.85719,0.10246
7128.92837,0.09517
7126.99954,0.09149
7125.07072,0.09141
7123.14190,0.09253
7121.21308,0.09308
7119.28425,0.09321
7117.35543,0.09644
7115.42661,0.10336
7113.49779,0.10713
7111.56896,0.10411
7109.64014,0.09872
7107.71132,0.09521
7105.78249,0.09560
7103.85367,0.09845
7101.92485,0.10036
7099.99603,0.10221
7098.06720,0.10603
7096.13838,0.10870
7094.20956,0.10748
7092.28074,0.10641
7090.35191,0.10781
7088.42309,0.10683
7086.49427,0.10118
7084.56545,0.09517
7082.63662,0.09390
7080.70780,0.09833
7078.77898,0.10244
7076.85016,0.10087
7074.92133,0.09773
7072.99251,0.09740
7071.06369,0.09803
7069.13487,0.09987
7067.20604,0.10415
7065.27722,0.10748
7063.34840,0.10733
7061.41957,0.10468
7059.49075,0.10322
7057.56193,0.10505
7055.63311,0.10687
7053.70428,0.10505
7051.77546,0.10117
7049.84664,0.10002
7047.91782,0.10259
7045.98899,0.10395
7044.06017,0.10158
7042.13135,0.09943
7040.20253,0.09986
7038.27370,0.09940
7036.34488,0.09771
7034.41606,0.09795
7032.48724,0.09852
7030.55841,0.09776
7028.62959,0.09760
7026.70077,0.09884
7024.77195,0.10253
7022.84312,0.10693
7020.91430,0.10541
7018.98548,0.09746
7017.05665,0.09141
7015.12783,0.09269
7013.19901,0.09741
7011.27019,0.10026
7009.34136,0.10037
7007.41254,0.09732
7005.48372,0.09342
7003.55490,0.09219
7001.62607,0.09339
6999.69725,0.09595
6997.76843,0.09816
6995.83961,0.09665
6993.91078,0.09269
6991.98196,0.09128
6990.05314,0.09247
6988.12432,0.09398
6986.19549,0.09620
6984.26667,0.09755
6982.33785,0.09588
6980.40903,0.09357
6978.48020,0.09336
6976.55138,0.09358
6974.62256,0.09257
6972.69373,0.09092
6970.76491,0.08957
6968.83609,0.08981
6966.90727,0.09132
6964.97844,0.09394
6963.04962,0.09798
6961.12080,0.09943
6959.19198,0.09542
6957.26315,0.08916
6955.33433,0.08756
6953.40551,0.09361
6951.47669,0.10125
6949.54786,0.10339
6947.61904,0.10108
6945.69022,0.09970
6943.76140,0.10104
6941.83257,0.10230
6939.90375,0.10268
6937.97493,0.10511
6936.04611,0.10764
6934.11728,0.10507
6932.18846,0.10028
6930.25964,0.09959
6928.33081,0.10251
6926.40199,0.10455
6924.47317,0.10345
6922.54435,0.10018
6920.61552,0.09850
6918.68670,0.09996
6916.75788,0.10046
6914.82906,0.09856
6912.90023,0.09839
6910.97141,0.10025
6909.04259,0.10017
6907.11377,0.09858
6905.18494,0.09942
6903.25612,0.10173
6901.32730,0.10197
6899.39848,0.10044
6897.46965,0.09752
6895.54083,0.09292
6893.61201,0.09058
6891.68319,0.09423
6889.75436,0.10141
6887.82554,0.10594
6885.89672,0.10489
6883.96789,0.10074
6882.03907,0.09890
6880.11025,0.10089
6878.18143,0.10199
6876.25260,0.10072
6874.32378,0.09910
6872.39496,0.09774
6870.46614,0.09867
6868.53731,0.10045
6866.60849,0.09997
6864.67967,0.09982
6862.75085,0.10113
6860.82202,0.10105
6858.89320,0.10066
6856.96438,0.10284
6855.03556,0.10600
6853.10673,0.10771
6851.17791,0.10695
6849.24909,0.10352
6847.32027,0.10075
6845.39144,0.10038
6843.46262,0.09976
6841.53380,0.09922
6839.60497,0.10105
6837.67615,0.10190
6835.74733,0.09958
6833.81851,0.09776
6831.88968,0.09875
6829.96086,0.10114
6828.03204,0.10242
6826.10322,0.10194
6824.17439,0.10231
6822.24557,0.10149
6820.31675,0.09715
6818.38793,0.09417
6816.45910,0.09492
6814.53028,0.09624
6812.60146,0.09815
6810.67264,0.10131
6808.74381,0.10251
6806.81499,0.10032
6804.88617,0.09818
6802.95734,0.09814
6801.02852,0.09971
6799.09970,0.10212
6797.17088,0.10327
6795.24205,0.10170
6793.31323,0.09977
6791.38441,0.10035
6789.45559,0.10280
6787.52676,0.10381
6785.59794,0.10175
6783.66912,0.09869
6781.74030,0.09615
6779.81147,0.09413
6777.88265,0.09418
6775.95383,0.09652
6774.02501,0.10010
6772.09618,0.10368
6770.16736,0.10340
6768.23854,0.09884
6766.30972,0.09751
6764.38089,0.10129
6762.45207,0.10347
6760.52325,0.10229
6758.59442,0.10053
6756.66560,0.10011
6754.73678,0.10142
6752.80796,0.10167
6750.87913,0.10017
6748.95031,0.09957
6747.02149,0.10031
6745.09267,0.10095
6743.16384,0.10136
6741.23502,0.10342
6739.30620,0.10559
6737.37738,0.10274
6735.44855,0.09730
6733.51973,0.09661
6731.59091,0.09990
6729.66209,0.10097
6727.73326,0.09811
6725.80444,0.09447
6723.87562,0.09493
6721.94680,0.09953
6720.01797,0.10233
6718.08915,0.10223
6716.16033,0.10300
6714.23150,0.10373
6712.30268,0.10183
6710.37386,0.10013
6708.44504,0.10222
6706.51621,0.10498
6704.58739,0.10483
6702.65857,0.10446
6700.72975,0.10370
6698.80092,0.09974
6696.87210,0.09672
6694.94328,0.09759
6693.01446,0.10001
6691.08563,0.10169
6689.15681,0.10015
6687.22799,0.09602
6685.29917,0.09422
6683.37034,0.09570
6681.44152,0.09610
6679.51270,0.09520
6677.58388,0.09718
6675.65505,0.10021
6673.72623,0.09999
6671.79741,0.09873
6669.86858,0.10063
6667.93976,0.10395
6666.01094,0.10519
6664.08212,0.10426
6662.15329,0.10148
6660.22447,0.09791
6658.29565,0.09665
6656.36683,0.09879
6654.43800,0.10148
6652.50918,0.10202
6650.58036,0.10173
6648.65154,0.10207
6646.72271,0.10200
6644.79389,0.10145
6642.86507,0.10235
6640.93625,0.10401
6639.00742,0.10317
6637.07860,0.09988
6635.14978,0.09766
6633.22096,0.09818
6631.29213,0.09963
6629.36331,0.10101
6627.43449,0.10227
6625.50566,0.10204
6623.57684,0.10220
6621.64802,0.10404
6619.71920,0.10394
6617.79037,0.10254
6615.86155,0.10291
6613.93273,0.10325
6612.00391,0.10253
6610.07508,0.10238
6608.14626,0.10282
6606.21744,0.10244
6604.28862,0.10157
6602.35979,0.10103
6600.43097,0.09972
6598.50215,0.09802
6596.57333,0.09793
6594.64450,0.10000
6592.71568,0.10291
6590.78686,0.10343
6588.85804,0.10173
6586.92921,0.10137
6585.00039,0.10244
6583.07157,0.10224
6581.14274,0.09934
6579.21392,0.09667
6577.28510,0.09757
6575.35628,0.09963
6573.42745,0.10064
6571.49863,0.10223
6569.56981,0.10398
6567.64099,0.10286
6565.71216,0.09859
6563.78334,0.09571
6561.85452,0.09844
6559.92570,0.10342
6557.99687,0.10470
6556.06805,0.10242
6554.13923,0.10014
6552.21041,0.09945
6550.28158,0.09948
6548.35276,0.09890
6546.42394,0.09781
6544.49512,0.09755
6542.56629,0.09894
6540.63747,0.10032
6538.70865,0.10191
6536.77982,0.10495
6534.85100,0.10687
6532.92218,0.10557
6530.99336,0.10315
6529.06453,0.10126
6527.13571,0.09920
6525.20689,0.09659
6523.27807,0.09501
6521.34924,0.09583
6519.42042,0.09801
6517.49160,0.09948
6515.56278,0.10010
6513.63395,0.10009
6511.70513,0.09959
6509.77631,0.10007
6507.84749,0.10081
6505.91866,0.10057
6503.98984,0.10031
6502.06102,0.09952
6500.13220,0.09956
6498.20337,0.10316
6496.27455,0.10595
6494.34573,0.10287
6492.41690,0.09869
6490.48808,0.09970
6488.55926,0.10459
6486.63044,0.10780
6484.70161,0.10538
6482.77279,0.10046
6480.84397,0.09983
6478.91515,0.10233
6476.98632,0.10263
6475.05750,0.10181
6473.12868,0.10342
6471.19986,0.10584
6469.27103,0.10646
6467.34221,0.10626
6465.41339,0.10572
6463.48457,0.10374
6461.55574,0.10069
6459.62692,0.09846
6457.69810,0.09924
6455.76928,0.10225
6453.84045,0.10398
6451.91163,0.10320
6449.98281,0.10188
6448.05398,0.10008
6446.12516,0.09737
6444.19634,0.09618
6442.26752,0.09646
6440.33869,0.09623
6438.40987,0.09673
6436.48105,0.09920
6434.55223,0.10208
6432.62340,0.10265
6430.69458,0.10029
6428.76576,0.09742
6426.83694,0.09637
6424.90811,0.09707
6422.97929,0.09807
6421.05047,0.09947
6419.12165,0.10120
6417.19282,0.10069
6415.26400,0.09870
6413.33518,0.09945
6411.40636,0.10335
6409.47753,0.10664
6407.54871,0.10683
6405.61989,0.10419
6403.69106,0.09934
6401.76224,0.09444
6399.83342,0.09302
6397.90460,0.09556
6395.97577,0.09951
6394.04695,0.10190
6392.11813,0.10135
6390.18931,0.09946
6388.26048,0.09938
6386.33166,0.10129
6384.40284,0.10168
6382.47402,0.09961
6380.54519,0.09885
6378.61637,0.10099
6376.68755,0.10292
6374.75873,0.10252
6372.82990,0.10097
6370.90108,0.09987
6368.97226,0.10046
6367.04344,0.10230
6365.11461,0.10350
6363.18579,0.10432
6361.25697,0.10479
6359.32814,0.10269
6357.39932,0.09934
6355.47050,0.09817
6353.54168,0.09917
6351.61285,0.10018
6349.68403,0.09961
6347.75521,0.09820
6345.82639,0.09786
6343.89756,0.09826
6341.96874,0.09901
6340.03992,0.09956
6338.11110,0.09810
6336.18227,0.09654
6334.25345,0.09816
6332.32463,0.10068
6330.39581,0.10123
6328.46698,0.10141
6326.53816,0.10159
6324.60934,0.10066
6322.68052,0.10050
6320.75169,0.10156
6318.82287,0.10138
6316.89405,0.09963
6314.96522,0.09778
6313.03640,0.09746
6311.10758,0.09956
6309.17876,0.10158
6307.24993,0.10143
6305.32111,0.10051
6303.39229,0.09902
6301.46347,0.09658
6299.53464,0.09617
6297.60582,0.09824
6295.67700,0.09945
6293.74818,0.10024
6291.81935,0.10212
6289.89053,0.10320
6287.96171,0.10277
6286.03289,0.10212
6284.10406,0.10195
6282.17524,0.10261
6280.24642,0.10357
6278.31760,0.10293
6276.38877,0.10012
6274.45995,0.09717
6272.53113,0.09692
6270.60230,0.10084
6268.67348,0.10551
6266.74466,0.10579
6264.81584,0.10259
6262.88701,0.10019
6260.95819,0.09992
6259.02937,0.10055
6257.10055,0.10126
6255.17172,0.10213
6253.24290,0.10219
6251.31408,0.10062
6249.38526,0.09908
6247.45643,0.09877
6245.52761,0.09954
6243.59879,0.10165
6241.66997,0.10337
6239.74114,0.10281
6237.81232,0.10141
6235.88350,0.10086
6233.95468,0.10176
6232.02585,0.10321
6230.09703,0.10308
6228.16821,0.10156
6226.23938,0.10088
6224.31056,0.10073
6222.38174,0.10019
6220.45292,0.10034
6218.52409,0.10132
6216.59527,0.10273
6214.66645,0.10432
6212.73763,0.10436
6210.80880,0.10282
6208.87998,0.10178
6206.95116,0.10116
6205.02234,0.10003
6203.09351,0.09969
6201.16469,0.10203
6199.23587,0.10468
6197.30705,0.10277
6195.37822,0.09830
6193.44940,0.09730
6191.52058,0.09914
6189.59176,0.09962
6187.66293,0.09857
6185.73411,0.09788
6183.80529,0.09797
6181.87646,0.09921
6179.94764,0.10045
6178.01882,0.09959
6176.09000,0.09910
6174.16117,0.10112
6172.23235,0.10252
6170.30353,0.10122
6168.37471,0.10013
6166.44588,0.10133
6164.51706,0.10246
6162.58824,0.10260
6160.65942,0.10262
6158.73059,0.10167
6156.80177,0.10125
6154.87295,0.10277
6152.94413,0.10270
6151.01530,0.09963
6149.08648,0.09798
6147.15766,0.09984
6145.22884,0.10186
6143.30001,0.10167
6141.37119,0.10058
6139.44237,0.10005
6137.51354,0.10006
6135.58472,0.09980
6133.65590,0.09910
6131.72708,0.09924
6129.79825,0.10046
6127.86943,0.10136
6125.94061,0.10221
6124.01179,0.10311
6122.08296,0.10281
6120.15414,0.10189
6118.22532,0.10206
6116.29650,0.10305
6114.36767,0.10342
6112.43885,0.10261
6110.51003,0.10100
6108.58121,0.09898
6106.65238,0.09717
6104.72356,0.09724
6102.79474,0.09946
6100.86591,0.10094
6098.93709,0.10045
6097.00827,0.09930
6095.07945,0.09757
6093.15062,0.09678
6091.22180,0.09869
6089.29298,0.10082
6087.36416,0.10183
6085.43533,0.10379
6083.50651,0.10601
6081.57769,0.10550
6079.64887,0.10234
6077.72004,0.09900
6075.79122,0.09724
6073.86240,0.09721
6071.93358,0.09773
6070.00475,0.09802
6068.07593,0.09843
6066.14711,0.09852
6064.21829,0.09701
6062.28946,0.09475
6060.36064,0.09513
6058.43182,0.09799
6056.50299,0.09934
6054.57417,0.09867
6052.64535,0.09802
6050.71653,0.09753
6048.78770,0.09746
6046.85888,0.09906
6044.93006,0.10142
6043.00124,0.10179
6041.07241,0.10044
6039.14359,0.10004
6037.21477,0.10081
6035.28595,0.10185
6033.35712,0.10326
6031.42830,0.10376
6029.49948,0.10190
6027.57066,0.09868
6025.64183,0.09668
6023.71301,0.09700
6021.78419,0.09843
6019.85537,0.10018
6017.92654,0.10198
6015.99772,0.10292
6014.06890,0.10261
6012.14007,0.10153
6010.21125,0.10016
6008.28243,0.09800
6006.35361,0.09517
6004.42478,0.09347
6002.49596,0.09421
6000.56714,0.09591
5998.63832,0.09599
5996.70949,0.09512
5994.78067,0.09519
5992.85185,0.09603
5990.92303,0.09719
5988.99420,0.09844
5987.06538,0.09942
5985.13656,0.10013
5983.20774,0.10048
5981.27891,0.10011
5979.35009,0.09854
5977.42127,0.09673
5975.49245,0.09660
5973.56362,0.09691
5971.63480,0.09618
5969.70598,0.09615
5967.77715,0.09712
5965.84833,0.09790
5963.91951,0.09818
5961.99069,0.09816
5960.06186,0.09862
5958.13304,0.09833
5956.20422,0.09640
5954.27540,0.09548
5952.34657,0.09629
5950.41775,0.09657
5948.48893,0.09631
5946.56011,0.09697
5944.63128,0.09750
5942.70246,0.09694
5940.77364,0.09666
5938.84482,0.09671
5936.91599,0.09650
5934.98717,0.09710
5933.05835,0.09884
5931.12953,0.09978
5929.20070,0.09907
5927.27188,0.09897
5925.34306,0.09990
5923.41423,0.09977
5921.48541,0.09934
5919.55659,0.09960
5917.62777,0.09867
5915.69894,0.09695
5913.77012,0.09696
5911.84130,0.09827
5909.91248,0.09909
5907.98365,0.09834
5906.05483,0.09647
5904.12601,0.09561
5902.19719,0.09671
5900.26836,0.09828
5898.33954,0.09859
5896.41072,0.09793
5894.48190,0.09730
5892.55307,0.09677
5890.62425,0.09644
5888.69543,0.09605
5886.76661,0.09610
5884.83778,0.09719
5882.90896,0.09718
5880.98014,0.09528
5879.05131,0.09482
5877.12249,0.09758
5875.19367,0.10032
5873.26485,0.09946
5871.33602,0.09666
5869.40720,0.09543
5867.47838,0.09595
5865.54956,0.09665
5863.62073,0.09734
5861.69191,0.09738
5859.76309,0.09510
5857.83427,0.09227
5855.90544,0.09202
5853.97662,0.09260
5852.04780,0.09227
5850.11898,0.09236
5848.19015,0.09270
5846.26133,0.09274
5844.33251,0.09278
5842.40369,0.09207
5840.47486,0.09115
5838.54604,0.09145
5836.61722,0.09243
5834.68839,0.09276
5832.75957,0.09209
5830.83075,0.09119
5828.90193,0.09113
5826.97310,0.09175
5825.04428,0.09184
5823.11546,0.09103
5821.18664,0.08997
5819.25781,0.08903
5817.32899,0.08825
5815.40017,0.08807
5813.47135,0.08849
5811.54252,0.08843
5809.61370,0.08800
5807.68488,0.08823
5805.75606,0.08853
5803.82723,0.08802
5801.89841,0.08658
5799.96959,0.08457
5798.04077,0.08329
5796.11194,0.08307
5794.18312,0.08327
5792.25430,0.08370
5790.32547,0.08355
5788.39665,0.08281
5786.46783,0.08256
5784.53901,0.08259
5782.61018,0.08321
5780.68136,0.08507
5778.75254,0.08553
5776.82372,0.08313
5774.89489,0.08089
5772.96607,0.08008
5771.03725,0.08009
5769.10843,0.08111
5767.17960,0.08240
5765.25078,0.08373
5763.32196,0.08519
5761.39314,0.08623
5759.46431,0.08800
5757.53549,0.09013
5755.60667,0.09022
5753.67785,0.08923
5751.74902,0.08934
5749.82020,0.08990
5747.89138,0.08999
5745.96255,0.08974
5744.03373,0.09011
5742.10491,0.09189
5740.17609,0.09408
5738.24726,0.09507
5736.31844,0.09468
5734.38962,0.09402
5732.46080,0.09371
5730.53197,0.09352
5728.60315,0.09346
5726.67433,0.09362
5724.74551,0.09381
5722.81668,0.09382
5720.88786,0.09335
5718.95904,0.09212
5717.03022,0.09113
5715.10139,0.09160
5713.17257,0.09281
5711.24375,0.09386
5709.31493,0.09425
5707.38610,0.09319
5705.45728,0.09138
5703.52846,0.09056
5701.59963,0.09096
5699.67081,0.09109
5697.74199,0.09085
5695.81317,0.09167
5693.88434,0.09315
5691.95552,0.09343
5690.02670,0.09233
5688.09788,0.09106
5686.16905,0.09054
5684.24023,0.09102
5682.31141,0.09164
5680.38259,0.09159
5678.45376,0.09098
5676.52494,0.09024
5674.59612,0.08983
5672.66730,0.09016
5670.73847,0.09113
5668.80965,0.09161
5666.88083,0.09112
5664.95201,0.09060
5663.02318,0.09062
5661.09436,0.09102
5659.16554,0.09115
5657.23671,0.09090
5655.30789,0.09095
5653.37907,0.09095
5651.45025,0.09112
5649.52142,0.09250
5647.59260,0.09397
5645.66378,0.09366
5643.73496,0.09242
5641.80613,0.09229
5639.87731,0.09333
5637.94849,0.09427
5636.01967,0.09447
5634.09084,0.09438
5632.16202,0.09459
5630.23320,0.09499
5628.30438,0.09494
5626.37555,0.09414
5624.44673,0.09365
5622.51791,0.09412
5620.58909,0.09480
5618.66026,0.09575
5616.73144,0.09646
5614.80262,0.09606
5612.87379,0.09541
5610.94497,0.09507
5609.01615,0.09494
5607.08733,0.09475
5605.15850,0.09379
5603.22968,0.09297
5601.30086,0.09384
5599.37204,0.09576
5597.44321,0.09698
5595.51439,0.09667
5593.58557,0.09516
5591.65675,0.09402
5589.72792,0.09468
5587.79910,0.09578
5585.87028,0.09492
5583.94146,0.09318
5582.01263,0.09347
5580.08381,0.09569
5578.15499,0.09722
5576.22617,0.09707
5574.29734,0.09635
5572.36852,0.09522
5570.43970,0.09350
5568.51087,0.09258
5566.58205,0.09318
5564.65323,0.09398
5562.72441,0.09446
5560.79558,0.09488
5558.86676,0.09443
5556.93794,0.09337
5555.00912,0.09342
5553.08029,0.09455
5551.15147,0.09516
5549.22265,0.09472
5547.29383,0.09437
5545.36500,0.09500
5543.43618,0.09579
5541.50736,0.09529
5539.57854,0.09399
5537.64971,0.09355
5535.72089,0.09382
5533.79207,0.09395
5531.86325,0.09458
5529.93442,0.09576
5528.00560,0.09645
5526.07678,0.09644
5524.14795,0.09605
5522.21913,0.09554
5520.29031,0.09505
5518.36149,0.09433
5516.43266,0.09371
5514.50384,0.09434
5512.57502,0.09604
5510.64620,0.09675
5508.71737,0.09555
5506.78855,0.09472
5504.85973,0.09607
5502.93091,0.09792
5501.00208,0.09809
5499.07326,0.09747
5497.14444,0.09803
5495.21562,0.09873
5493.28679,0.09782
5491.35797,0.09590
5489.42915,0.09437
5487.50033,0.09400
5485.57150,0.09476
5483.64268,0.09539
5481.71386,0.09491
5479.78503,0.09431
5477.85621,0.09462
5475.92739,0.09469
5473.99857,0.09400
5472.06974,0.09421
5470.14092,0.09502
5468.21210,0.09517
5466.28328,0.09525
5464.35445,0.09577
5462.42563,0.09629
5460.49681,0.09718
5458.56799,0.09794
5456.63916,0.09740
5454.71034,0.09699
5452.78152,0.09765
5450.85270,0.09771
5448.92387,0.09719
5446.99505,0.09742
5445.06623,0.09800
5443.13741,0.09790
5441.20858,0.09702
5439.27976,0.09630
5437.35094,0.09632
5435.42211,0.09612
5433.49329,0.09515
5431.56447,0.09493
5429.63565,0.09626
5427.70682,0.09761
5425.77800,0.09794
5423.84918,0.09760
5421.92036,0.09683
5419.99153,0.09680
5418.06271,0.09811
5416.13389,0.09917
5414.20507,0.09912
5412.27624,0.09915
5410.34742,0.09943
5408.41860,0.09928
5406.48978,0.09880
5404.56095,0.09821
5402.63213,0.09764
5400.70331,0.09768
5398.77449,0.09833
5396.84566,0.09842
5394.91684,0.09792
5392.98802,0.09830
5391.05919,0.09956
5389.13037,0.10057
5387.20155,0.10058
5385.27273,0.09927
5383.34390,0.09769
5381.41508,0.09698
5379.48626,0.09680
5377.55744,0.09716
5375.62861,0.09851
5373.69979,0.09972
5371.77097,0.09991
5369.84215,0.09934
5367.91332,0.09860
5365.98450,0.09815
5364.05568,0.09831
5362.12686,0.09917
5360.19803,0.09937
5358.26921,0.09777
5356.34039,0.09565
5354.41156,0.09496
5352.48274,0.09618
5350.55392,0.09791
5348.62510,0.09899
5346.69627,0.09967
5344.76745,0.10035
5342.83863,0.10042
5340.90981,0.09964
5338.98098,0.09880
5337.05216,0.09834
5335.12334,0.09808
5333.19452,0.09804
5331.26569,0.09798
5329.33687,0.09745
5327.40805,0.09697
5325.47923,0.09724
5323.55040,0.09772
5321.62158,0.09774
5319.69276,0.09793
5317.76394,0.09871
5315.83511,0.09900
5313.90629,0.09877
5311.97747,0.09851
5310.04864,0.09731
5308.11982,0.09592
5306.19100,0.09647
5304.26218,0.09821
5302.33335,0.09901
5300.40453,0.09873
5298.47571,0.09859
5296.54689,0.09918
5294.61806,0.10020
5292.68924,0.10056
5290.76042,0.09966
5288.83160,0.09858
5286.90277,0.09820
5284.97395,0.09837
5283.04513,0.09852
5281.11631,0.09855
5279.18748,0.09942
5277.25866,0.10057
5275.32984,0.10028
5273.40102,0.09906
5271.47219,0.09859
5269.54337,0.09853
5267.61455,0.09773
5265.68572,0.09711
5263.75690,0.09788
5261.82808,0.09910
5259.89926,0.09924
5257.97043,0.09825
5256.04161,0.09730
5254.11279,0.09778
5252.18397,0.09900
5250.25514,0.09904
5248.32632,0.09828
5246.39750,0.09830
5244.46868,0.09889
5242.53985,0.09955
5240.61103,0.10017
5238.68221,0.10018
5236.75339,0.09931
5234.82456,0.09821
5232.89574,0.09801
5230.96692,0.09892
5229.03810,0.10002
5227.10927,0.10081
5225.18045,0.10092
5223.25163,0.09991
5221.32280,0.09852
5219.39398,0.09796
5217.46516,0.09866
5215.53634,0.10005
5213.60751,0.10134
5211.67869,0.10205
5209.74987,0.10172
5207.82105,0.10037
5205.89222,0.09921
5203.96340,0.09913
5202.03458,0.09951
5200.10576,0.09975
5198.17693,0.09981
5196.24811,0.09983
5194.31929,0.10011
5192.39047,0.10048
5190.46164,0.10040
5188.53282,0.10011
5186.60400,0.09984
5184.67518,0.09917
5182.74635,0.09866
5180.81753,0.09878
5178.88871,0.09894
5176.95988,0.09936
5175.03106,0.10042
5173.10224,0.10095
5171.17342,0.10047
5169.24459,0.10033
5167.31577,0.10085
5165.38695,0.10097
5163.45813,0.10051
5161.52930,0.09989
5159.60048,0.09937
5157.67166,0.09934
5155.74284,0.09991
5153.81401,0.10055
5151.88519,0.10062
5149.95637,0.10031
5148.02755,0.10029
5146.09872,0.10022
5144.16990,0.09935
5142.24108,0.09873
5140.31226,0.09924
5138.38343,0.09984
5136.45461,0.09995
5134.52579,0.09993
5132.59696,0.09979
5130.66814,0.09945
5128.73932,0.09892
5126.81050,0.09829
5124.88167,0.09797
5122.95285,0.09805
5121.02403,0.09798
5119.09521,0.09794
5117.16638,0.09871
5115.23756,0.09972
5113.30874,0.09967
5111.37992,0.09904
5109.45109,0.09898
5107.52227,0.09955
5105.59345,0.10022
5103.66463,0.10050
5101.73580,0.10023
5099.80698,0.09974
5097.87816,0.09934
5095.94934,0.09917
5094.02051,0.09954
5092.09169,0.10006
5090.16287,0.09982
5088.23404,0.09918
5086.30522,0.09915
5084.37640,0.09962
5082.44758,0.09990
5080.51875,0.09994
5078.58993,0.09974
5076.66111,0.09897
5074.73229,0.09806
5072.80346,0.09782
5070.87464,0.09831
5068.94582,0.09915
5067.01700,0.09987
5065.08817,0.10011
5063.15935,0.09980
5061.23053,0.09913
5059.30171,0.09874
5057.37288,0.09910
5055.44406,0.09986
5053.51524,0.10039
5051.58642,0.10027
5049.65759,0.09981
5047.72877,0.09965
5045.79995,0.09976
5043.87112,0.10007
5041.94230,0.10037
5040.01348,0.10029
5038.08466,0.09984
5036.15583,0.09932
5034.22701,0.09917
5032.29819,0.09964
5030.36937,0.10018
5028.44054,0.10027
5026.51172,0.09986
5024.58290,0.09894
5022.65408,0.09827
5020.72525,0.09872
5018.79643,0.09974
5016.86761,0.10041
5014.93879,0.10054
5013.00996,0.10027
5011.08114,0.09996
5009.15232,0.09976
5007.22350,0.09947
5005.29467,0.09929
5003.36585,0.09949
5001.43703,0.09932
4999.50820,0.09851
4997.57938,0.09826
4995.65056,0.09872
4993.72174,0.09893
4991.79291,0.09875
4989.86409,0.09870
4987.93527,0.09871
4986.00645,0.09865
4984.07762,0.09872
4982.14880,0.09877
4980.21998,0.09885
4978.29116,0.09908
4976.36233,0.09946
4974.43351,0.09986
4972.50469,0.09999
4970.57587,0.09999
4968.64704,0.10021
4966.71822,0.10037
4964.78940,0.09990
4962.86058,0.09908
4960.93175,0.09887
4959.00293,0.09946
4957.07411,0.09999
4955.14528,0.09998
4953.21646,0.09979
4951.28764,0.09953
4949.35882,0.09951
4947.42999,0.10003
4945.50117,0.10035
4943.57235,0.10025
4941.64353,0.10030
4939.71470,0.10045
4937.78588,0.10042
4935.85706,0.10039
4933.92824,0.10041
4931.99941,0.10064
4930.07059,0.10100
4928.14177,0.10082
4926.21295,0.10013
4924.28412,0.09952
4922.35530,0.09908
4920.42648,0.09862
4918.49766,0.09852
4916.56883,0.09897
4914.64001,0.09936
4912.71119,0.09943
4910.78236,0.09943
4908.85354,0.09935
4906.92472,0.09937
4904.99590,0.10008
4903.06707,0.10095
4901.13825,0.10082
4899.20943,0.10007
4897.28061,0.09951
4895.35178,0.09936
4893.42296,0.09964
4891.49414,0.09995
4889.56532,0.09988
4887.63649,0.09956
4885.70767,0.09948
4883.77885,0.09970
4881.85003,0.09990
4879.92120,0.09971
4877.99238,0.09922
4876.06356,0.09908
4874.13474,0.09944
4872.20591,0.09989
4870.27709,0.10026
4868.34827,0.10057
4866.41944,0.10059
4864.49062,0.10021
4862.56180,0.09995
4860.63298,0.10010
4858.70415,0.10037
4856.77533,0.10047
4854.84651,0.10029
4852.91769,0.10015
4850.98886,0.10012
4849.06004,0.09975
4847.13122,0.09908
4845.20240,0.09908
4843.27357,0.10016
4841.34475,0.10104
4839.41593,0.10097
4837.48711,0.10077
4835.55828,0.10075
4833.62946,0.10052
4831.70064,0.10020
4829.77182,0.10011
4827.84299,0.10037
4825.91417,0.10094
4823.98535,0.10144
4822.05652,0.10133
4820.12770,0.10089
4818.19888,0.10086
4816.27006,0.10088
4814.34123,0.10054
4812.41241,0.10051
4810.48359,0.10102
4808.55477,0.10126
4806.62594,0.10086
4804.69712,0.10029
4802.76830,0.09999
4800.83948,0.10001
4798.91065,0.10042
4796.98183,0.10097
4795.05301,0.10114
4793.12419,0.10099
4791.19536,0.10090
4789.26654,0.10068
4787.33772,0.10041
4785.40890,0.10051
4783.48007,0.10074
4781.55125,0.10085
4779.62243,0.10103
4777.69360,0.10136
4775.76478,0.10149
4773.83596,0.10124
4771.90714,0.10080
4769.97831,0.10036
4768.04949,0.10015
4766.12067,0.10019
4764.19185,0.10028
4762.26302,0.10052
4760.33420,0.10105
4758.40538,0.10161
4756.47656,0.10187
4754.54773,0.10165
4752.61891,0.10112
4750.69009,0.10070
4748.76127,0.10050
4746.83244,0.10051
4744.90362,0.10067
4742.97480,0.10086
4741.04598,0.10110
4739.11715,0.10117
4737.18833,0.10111
4735.25951,0.10120
4733.33068,0.10106
4731.40186,0.10065
4729.47304,0.10076
4727.54422,0.10141
4725.61539,0.10183
4723.68657,0.10187
4721.75775,0.10166
4719.82893,0.10132
4717.90010,0.10123
4715.97128,0.10111
4714.04246,0.10075
4712.11364,0.10047
4710.18481,0.10023
4708.25599,0.10010
4706.32717,0.10019
4704.39835,0.10020
4702.46952,0.10010
4700.54070,0.10004
4698.61188,0.09988
4696.68306,0.09971
4694.75423,0.09992
4692.82541,0.10046
4690.89659,0.10061
4688.96776,0.10015
4687.03894,0.09988
4685.11012,0.10035
4683.18130,0.10092
4681.25247,0.10063
4679.32365,0.09959
4677.39483,0.09858
4675.46601,0.09802
4673.53718,0.09810
4671.60836,0.09876
4669.67954,0.09942
4667.75072,0.09945
4665.82189,0.09904
4663.89307,0.09901
4661.96425,0.09939
4660.03543,0.09967
4658.10660,0.09970
4656.17778,0.09956
4654.24896,0.09963
4652.32013,0.10010
4650.39131,0.10054
4648.46249,0.10044
4646.53367,0.09978
4644.60484,0.09908
4642.67602,0.09879
4640.74720,0.09885
4638.81838,0.09924
4636.88955,0.09985
4634.96073,0.10018
4633.03191,0.10023
4631.10309,0.10022
4629.17426,0.10011
4627.24544,0.10008
4625.31662,0.10008
4623.38780,0.10003
4621.45897,0.10018
4619.53015,0.10050
4617.60133,0.10062
4615.67251,0.10029
4613.74368,0.09961
4611.81486,0.09917
4609.88604,0.09929
4607.95721,0.09961
4606.02839,0.10012
4604.09957,0.10068
4602.17075,0.10052
4600.24192,0.09987
4598.31310,0.09969
4596.38428,0.10009
4594.45546,0.10043
4592.52663,0.10056
4590.59781,0.10080
4588.66899,0.10107
4586.74017,0.10095
4584.81134,0.10037
4582.88252,0.09987
4580.95370,0.09985
4579.02488,0.10020
4577.09605,0.10054
4575.16723,0.10055
4573.23841,0.10042
4571.30959,0.10054
4569.38076,0.10083
4567.45194,0.10108
4565.52312,0.10108
4563.59429,0.10076
4561.66547,0.10040
4559.73665,0.10034
4557.80783,0.10050
4555.87900,0.10039
4553.95018,0.09994
4552.02136,0.09973
4550.09254,0.10007
4548.16371,0.10067
4546.23489,0.10110
4544.30607,0.10105
4542.37725,0.10093
4540.44842,0.10095
4538.51960,0.10075
4536.59078,0.10055
4534.66196,0.10059
4532.73313,0.10050
4530.80431,0.10019
4528.87549,0.10011
4526.94667,0.10028
4525.01784,0.10028
4523.08902,0.10023
4521.16020,0.10026
4519.23137,0.10033
4517.30255,0.10049
4515.37373,0.10049
4513.44491,0.10031
4511.51608,0.10026
4509.58726,0.10029
4507.65844,0.10013
4505.72962,0.09974
4503.80079,0.09952
4501.87197,0.09993
4499.94315,0.10060
4498.01433,0.10093
4496.08550,0.10085
4494.15668,0.10025
4492.22786,0.09939
4490.29904,0.09906
4488.37021,0.09909
4486.44139,0.09875
4484.51257,0.09813
4482.58375,0.09785
4480.65492,0.09814
4478.72610,0.09864
4476.79728,0.09883
4474.86845,0.09867
4472.93963,0.09854
4471.01081,0.09857
4469.08199,0.09853
4467.15316,0.09827
4465.22434,0.09793
4463.29552,0.09772
4461.36670,0.09766
4459.43787,0.09752
4457.50905,0.09711
4455.58023,0.09668
4453.65141,0.09636
4451.72258,0.09603
4449.79376,0.09571
4447.86494,0.09533
4445.93612,0.09475
4444.00729,0.09401
4442.07847,0.09332
4440.14965,0.09274
4438.22083,0.09229
4436.29200,0.09215
4434.36318,0.09211
4432.43436,0.09205
4430.50553,0.09217
4428.57671,0.09229
4426.64789,0.09220
4424.71907,0.09206
4422.79024,0.09201
4420.86142,0.09192
4418.93260,0.09173
4417.00378,0.09132
4415.07495,0.09059
4413.14613,0.09002
4411.21731,0.08973
4409.28849,0.08958
4407.35966,0.08984
4405.43084,0.08997
4403.50202,0.08928
4401.57320,0.08838
4399.64437,0.08787
4397.71555,0.08763
4395.78673,0.08755
4393.85791,0.08723
4391.92908,0.08642
4390.00026,0.08564
4388.07144,0.08511
4386.14261,0.08451
4384.21379,0.08389
4382.28497,0.08358
4380.35615,0.08346
4378.42732,0.08294
4376.49850,0.08194
4374.56968,0.08109
4372.64086,0.08070
4370.71203,0.08030
4368.78321,0.07964
4366.85439,0.07897
4364.92557,0.07824
4362.99674,0.07728
4361.06792,0.07633
4359.13910,0.07548
4357.21028,0.07457
4355.28145,0.07378
4353.35263,0.07337
4351.42381,0.07302
4349.49499,0.07227
4347.56616,0.07132
4345.63734,0.07053
4343.70852,0.06982
4341.77969,0.06892
4339.85087,0.06778
4337.92205,0.06679
4335.99323,0.06626
4334.06440,0.06584
4332.13558,0.06498
4330.20676,0.06399
4328.27794,0.06357
4326.34911,0.06346
4324.42029,0.06311
4322.49147,0.06305
4320.56265,0.06402
4318.63382,0.06563
4316.70500,0.06719
4314.77618,0.06877
4312.84736,0.07067
4310.91853,0.07266
4308.98971,0.07428
4307.06089,0.07542
4305.13207,0.07624
4303.20324,0.07701
4301.27442,0.07772
4299.34560,0.07806
4297.41677,0.07795
4295.48795,0.07766
4293.55913,0.07757
4291.63031,0.07774
4289.70148,0.07769
4287.77266,0.07735
4285.84384,0.07691
4283.91502,0.07639
4281.98619,0.07600
4280.05737,0.07588
4278.12855,0.07581
4276.19973,0.07537
4274.27090,0.07451
4272.34208,0.07364
4270.41326,0.07294
4268.48444,0.07252
4266.55561,0.07226
4264.62679,0.07146
4262.69797,0.07014
4260.76915,0.06891
4258.84032,0.06768
4256.91150,0.06638
4254.98268,0.06555
4253.05385,0.06537
4251.12503,0.06587
4249.19621,0.06709
4247.26739,0.06856
4245.33856,0.07010
4243.40974,0.07197
4241.48092,0.07332
4239.55210,0.07342
4237.62327,0.07337
4235.69445,0.07388
4233.76563,0.07410
4231.83681,0.07382
4229.90798,0.07352
4227.97916,0.07304
4226.05034,0.07243
4224.12152,0.07194
4222.19269,0.07153
4220.26387,0.07142
4218.33505,0.07176
4216.40623,0.07232
4214.47740,0.07273
4212.54858,0.07267
4210.61976,0.07227
4208.69093,0.07191
4206.76211,0.07182
4204.83329,0.07195
4202.90447,0.07184
4200.97564,0.07120
4199.04682,0.07032
4197.11800,0.06960
4195.18918,0.06932
4193.26035,0.06938
4191.33153,0.06956
4189.40271,0.06981
4187.47389,0.06992
4185.54506,0.06986
4183.61624,0.06993
4181.68742,0.07014
4179.75860,0.07014
4177.82977,0.06985
4175.90095,0.06965
4173.97213,0.06988
4172.04331,0.07035
4170.11448,0.07049
4168.18566,0.07031
4166.25684,0.07039
4164.32801,0.07064
4162.39919,0.07072
4160.47037,0.07084
4158.54155,0.07100
4156.61272,0.07081
4154.68390,0.07040
4152.75508,0.07026
4150.82626,0.07051
4148.89743,0.07099
4146.96861,0.07131
4145.03979,0.07130
4143.11097,0.07130
4141.18214,0.07154
4139.25332,0.07185
4137.32450,0.07192
4135.39568,0.07162
4133.46685,0.07131
4131.53803,0.07141
4129.60921,0.07171
4127.68039,0.07195
4125.75156,0.07219
4123.82274,0.07240
4121.89392,0.07259
4119.96509,0.07284
4118.03627,0.07307
4116.10745,0.07319
4114.17863,0.07300
4112.24980,0.07246
4110.32098,0.07219
4108.39216,0.07252
4106.46334,0.07296
4104.53451,0.07291
4102.60569,0.07257
4100.67687,0.07258
4098.74805,0.07284
4096.81922,0.07285
4094.89040,0.07275
4092.96158,0.07279
4091.03276,0.07312
4089.10393,0.07371
4087.17511,0.07429
4085.24629,0.07487
4083.31747,0.07556
4081.38864,0.07605
4079.45982,0.07622
4077.53100,0.07631
4075.60217,0.07637
4073.67335,0.07660
4071.74453,0.07687
4069.81571,0.07684
4067.88688,0.07662
4065.95806,0.07674
4064.02924,0.07729
4062.10042,0.07765
4060.17159,0.07762
4058.24277,0.07782
4056.31395,0.07837
4054.38513,0.07880
4052.45630,0.07897
4050.52748,0.07897
4048.59866,0.07883
4046.66984,0.07869
4044.74101,0.07876
4042.81219,0.07894
4040.88337,0.07909
4038.95455,0.07928
4037.02572,0.07951
4035.09690,0.07971
4033.16808,0.07973
4031.23925,0.07955
4029.31043,0.07941
4027.38161,0.07938
4025.45279,0.07936
4023.52396,0.07943
4021.59514,0.07966
4019.66632,0.08007
4017.73750,0.08071
4015.80867,0.08142
4013.87985,0.08195
4011.95103,0.08207
4010.02221,0.08175
4008.09338,0.08160
4006.16456,0.08217
4004.23574,0.08277
4002.30692,0.08261
4000.37809,0.08223
3998.44927,0.08226
3996.52045,0.08244
3994.59163,0.08263
3992.66280,0.08292
3990.73398,0.08309
3988.80516,0.08293
3986.87633,0.08253
3984.94751,0.08221
3983.01869,0.08203
3981.08987,0.08203
3979.16104,0.08220
3977.23222,0.08211
3975.30340,0.08166
3973.37458,0.08142
3971.44575,0.08154
3969.51693,0.08165
3967.58811,0.08180
3965.65929,0.08211
3963.73046,0.08232
3961.80164,0.08247
3959.87282,0.08275
3957.94400,0.08324
3956.01517,0.08369
3954.08635,0.08373
3952.15753,0.08330
3950.22870,0.08280
3948.29988,0.08267
3946.37106,0.08290
3944.44224,0.08322
3942.51341,0.08336
3940.58459,0.08328
3938.65577,0.08327
3936.72695,0.08364
3934.79812,0.08426
3932.86930,0.08444
3930.94048,0.08394
3929.01166,0.08361
3927.08283,0.08382
3925.15401,0.08410
3923.22519,0.08395
3921.29637,0.08355
3919.36754,0.08308
3917.43872,0.08265
3915.50990,0.08257
3913.58108,0.08286
3911.65225,0.08330
3909.72343,0.08371
3907.79461,0.08396
3905.86578,0.08407
3903.93696,0.08399
3902.00814,0.08370
3900.07932,0.08364
3898.15049,0.08404
3896.22167,0.08450
3894.29285,0.08469
3892.36403,0.08453
3890.43520,0.08451
3888.50638,0.08476
3886.57756,0.08453
3884.64874,0.08398
3882.71991,0.08412
3880.79109,0.08469
3878.86227,0.08505
3876.93345,0.08514
3875.00462,0.08512
3873.07580,0.08497
3871.14698,0.08464
3869.21816,0.08475
3867.28933,0.08560
3865.36051,0.08652
3863.43169,0.08703
3861.50286,0.08713
3859.57404,0.08699
3857.64522,0.08669
3855.71640,0.08639
3853.78757,0.08616
3851.85875,0.08599
3849.92993,0.08632
3848.00111,0.08708
3846.07228,0.08774
3844.14346,0.08789
3842.21464,0.08765
3840.28582,0.08723
3838.35699,0.08693
3836.42817,0.08713
3834.49935,0.08749
3832.57053,0.08763
3830.64170,0.08754
3828.71288,0.08741
3826.78406,0.08750
3824.85524,0.08784
3822.92641,0.08796
3820.99759,0.08757
3819.06877,0.08736
3817.13994,0.08749
3815.21112,0.08787
3813.28230,0.08827
3811.35348,0.08835
3809.42465,0.08819
3807.49583,0.08797
3805.56701,0.08799
3803.63819,0.08828
3801.70936,0.08861
3799.78054,0.08902
3797.85172,0.08943
3795.92290,0.08967
3793.99407,0.08974
3792.06525,0.08971
3790.13643,0.08966
3788.20761,0.08961
3786.27878,0.08958
3784.34996,0.08967
3782.42114,0.08977
3780.49232,0.08966
3778.56349,0.08946
3776.63467,0.08960
3774.70585,0.09012
3772.77702,0.09040
3770.84820,0.08987
3768.91938,0.08915
3766.99056,0.08892
3765.06173,0.08876
3763.13291,0.08868
3761.20409,0.08902
3759.27527,0.08979
3757.34644,0.09033
3755.41762,0.09032
3753.48880,0.08991
3751.55998,0.08885
3749.63115,0.08787
3747.70233,0.08779
3745.77351,0.08805
3743.84469,0.08892
3741.91586,0.08979
3739.98704,0.08980
3738.05822,0.08912
3736.12940,0.08834
3734.20057,0.08798
3732.27175,0.08788
3730.34293,0.08807
3728.41410,0.08847
3726.48528,0.08867
3724.55646,0.08851
3722.62764,0.08851
3720.69881,0.08881
3718.76999,0.08887
3716.84117,0.08869
3714.91235,0.08849
3712.98352,0.08788
3711.05470,0.08686
3709.12588,0.08664
3707.19706,0.08687
3705.26823,0.08694
3703.33941,0.08685
3701.41059,0.08682
3699.48177,0.08710
3697.55294,0.08739
3695.62412,0.08733
3693.69530,0.08693
3691.76648,0.08617
3689.83765,0.08530
3687.90883,0.08528
3685.98001,0.08592
3684.05118,0.08646
3682.12236,0.08671
3680.19354,0.08680
3678.26472,0.08681
3676.33589,0.08664
3674.40707,0.08660
3672.47825,0.08676
3670.54943,0.08634
3668.62060,0.08545
3666.69178,0.08497
3664.76296,0.08487
3662.83414,0.08492
3660.90531,0.08494
3658.97649,0.08472
3657.04767,0.08409
3655.11885,0.08352
3653.19002,0.08348
3651.26120,0.08330
3649.33238,0.08247
3647.40356,0.08223
3645.47473,0.08261
3643.54591,0.08272
3641.61709,0.08272
3639.68826,0.08304
3637.75944,0.08359
3635.83062,0.08401
3633.90180,0.08424
3631.97297,0.08433
3630.04415,0.08410
3628.11533,0.08382
3626.18651,0.08417
3624.25768,0.08464
3622.32886,0.08480
3620.40004,0.08461
3618.47122,0.08426
3616.54239,0.08397
3614.61357,0.08344
3612.68475,0.08234
3610.75593,0.08108
3608.82710,0.08037
3606.89828,0.08047
3604.96946,0.08075
3603.04064,0.08092
3601.11181,0.08148
3599.18299,0.08270
3597.25417,0.08404
3595.32534,0.08533
3593.39652,0.08673
3591.46770,0.08786
3589.53888,0.08834
3587.61005,0.08858
3585.68123,0.08930
3583.75241,0.08998
3581.82359,0.09011
3579.89476,0.09001
3577.96594,0.09011
3576.03712,0.09033
3574.10830,0.09053
3572.17947,0.09064
3570.25065,0.09047
3568.32183,0.08999
3566.39301,0.08990
3564.46418,0.09053
3562.53536,0.09126
3560.60654,0.09164
3558.67772,0.09159
3556.74889,0.09156
3554.82007,0.09187
3552.89125,0.09213
3550.96242,0.09182
3549.03360,0.09124
3547.10478,0.09116
3545.17596,0.09178
3543.24713,0.09240
3541.31831,0.09234
3539.38949,0.09182
3537.46067,0.09151
3535.53184,0.09149
3533.60302,0.09153
3531.67420,0.09159
3529.74538,0.09146
3527.81655,0.09137
3525.88773,0.09163
3523.95891,0.09179
3522.03009,0.09165
3520.10126,0.09150
3518.17244,0.09161
3516.24362,0.09210
3514.31480,0.09261
3512.38597,0.09255
3510.45715,0.09188
3508.52833,0.09119
3506.59950,0.09083
3504.67068,0.09055
3502.74186,0.09044
3500.81304,0.09080
3498.88421,0.09118
3496.95539,0.09101
3495.02657,0.09046
3493.09775,0.09008
3491.16892,0.09007
3489.24010,0.09009
3487.31128,0.08983
3485.38246,0.08943
3483.45363,0.08907
3481.52481,0.08885
3479.59599,0.08858
3477.66717,0.08775
3475.73834,0.08650
3473.80952,0.08530
3471.88070,0.08434
3469.95188,0.08346
3468.02305,0.08224
3466.09423,0.08077
3464.16541,0.07986
3462.23658,0.07963
3460.30776,0.07939
3458.37894,0.07894
3456.45012,0.07872
3454.52129,0.07883
3452.59247,0.07901
3450.66365,0.07951
3448.73483,0.08055
3446.80600,0.08151
3444.87718,0.08207
3442.94836,0.08270
3441.01954,0.08351
3439.09071,0.08422
3437.16189,0.08493
3435.23307,0.08593
3433.30425,0.08694
3431.37542,0.08735
3429.44660,0.08722
3427.51778,0.08714
3425.58896,0.08737
3423.66013,0.08771
3421.73131,0.08806
3419.80249,0.08842
3417.87366,0.08877
3415.94484,0.08907
3414.01602,0.08924
3412.08720,0.08915
3410.15837,0.08891
3408.22955,0.08892
3406.30073,0.08901
3404.37191,0.08879
3402.44308,0.08862
3400.51426,0.08871
3398.58544,0.08871
3396.65662,0.08848
3394.72779,0.08833
3392.79897,0.08849
3390.87015,0.08855
3388.94133,0.08814
3387.01250,0.08777
3385.08368,0.08781
3383.15486,0.08787
3381.22604,0.08788
3379.29721,0.08807
3377.36839,0.08824
3375.43957,0.08829
3373.51074,0.08819
3371.58192,0.08807
3369.65310,0.08806
3367.72428,0.08793
3365.79545,0.08762
3363.86663,0.08751
3361.93781,0.08785
3360.00899,0.08813
3358.08016,0.08778
3356.15134,0.08742
3354.22252,0.08769
3352.29370,0.08804
3350.36487,0.08798
3348.43605,0.08778
3346.50723,0.08787
3344.57841,0.08818
3342.64958,0.08840
3340.72076,0.08851
3338.79194,0.08871
3336.86312,0.08899
3334.93429,0.08906
3333.00547,0.08897
3331.07665,0.08900
3329.14782,0.08885
3327.21900,0.08864
3325.29018,0.08886
3323.36136,0.08913
3321.43253,0.08895
3319.50371,0.08867
3317.57489,0.08871
3315.64607,0.08892
3313.71724,0.08897
3311.78842,0.08898
3309.85960,0.08908
3307.93078,0.08912
3306.00195,0.08894
3304.07313,0.08857
3302.14431,0.08828
3300.21549,0.08824
3298.28666,0.08840
3296.35784,0.08877
3294.42902,0.08903
3292.50020,0.08890
3290.57137,0.08857
3288.64255,0.08828
3286.71373,0.08811
3284.78490,0.08813
3282.85608,0.08830
3280.92726,0.08840
3278.99844,0.08839
3277.06961,0.08845
3275.14079,0.08839
3273.21197,0.08811
3271.28315,0.08792
3269.35432,0.08786
3267.42550,0.08800
3265.49668,0.08844
3263.56786,0.08892
3261.63903,0.08903
3259.71021,0.08864
3257.78139,0.08826
3255.85257,0.08830
3253.92374,0.08834
3251.99492,0.08823
3250.06610,0.08847
3248.13728,0.08896
3246.20845,0.08905
3244.27963,0.08874
3242.35081,0.08857
3240.42198,0.08854
3238.49316,0.08840
3236.56434,0.08827
3234.63552,0.08818
3232.70669,0.08793
3230.77787,0.08782
3228.84905,0.08816
3226.92023,0.08835
3224.99140,0.08789
3223.06258,0.08740
3221.13376,0.08739
3219.20494,0.08764
3217.27611,0.08774
3215.34729,0.08755
3213.41847,0.08717
3211.48965,0.08676
3209.56082,0.08642
3207.63200,0.08625
3205.70318,0.08623
3203.77435,0.08632
3201.84553,0.08675
3199.91671,0.08719
3197.98789,0.08713
3196.05906,0.08679
3194.13024,0.08645
3192.20142,0.08621
3190.27260,0.08608
3188.34377,0.08595
3186.41495,0.08588
3184.48613,0.08586
3182.55731,0.08560
3180.62848,0.08521
3178.69966,0.08494
3176.77084,0.08491
3174.84202,0.08502
3172.91319,0.08509
3170.98437,0.08510
3169.05555,0.08505
3167.12673,0.08483
3165.19790,0.08462
3163.26908,0.08455
3161.34026,0.08438
3159.41143,0.08399
3157.48261,0.08362
3155.55379,0.08334
3153.62497,0.08303
3151.69614,0.08276
3149.76732,0.08260
3147.83850,0.08252
3145.90968,0.08249
3143.98085,0.08239
3142.05203,0.08212
3140.12321,0.08172
3138.19439,0.08130
3136.26556,0.08085
3134.33674,0.08030
3132.40792,0.07992
3130.47910,0.07978
3128.55027,0.07964
3126.62145,0.07945
3124.69263,0.07913
3122.76381,0.07846
3120.83498,0.07767
3118.90616,0.07715
3116.97734,0.07697
3115.04851,0.07697
3113.11969,0.07686
3111.19087,0.07636
3109.26205,0.07540
3107.33322,0.07426
3105.40440,0.07338
3103.47558,0.07280
3101.54676,0.07228
3099.61793,0.07169
3097.68911,0.07079
3095.76029,0.06967
3093.83147,0.06880
3091.90264,0.06825
3089.97382,0.06777
3088.04500,0.06737
3086.11618,0.06703
3084.18735,0.06652
3082.25853,0.06586
3080.32971,0.06515
3078.40089,0.06440
3076.47206,0.06372
3074.54324,0.06318
3072.61442,0.06278
3070.68559,0.06263
3068.75677,0.06263
3066.82795,0.06238
3064.89913,0.06163
3062.97030,0.06084
3061.04148,0.06051
3059.11266,0.06062
3057.18384,0.06064
3055.25501,0.06018
3053.32619,0.05954
3051.39737,0.05905
3049.46855,0.05860
3047.53972,0.05824
3045.61090,0.05810
3043.68208,0.05803
3041.75326,0.05799
3039.82443,0.05778
3037.89561,0.05725
3035.96679,0.05669
3034.03797,0.05617
3032.10914,0.05569
3030.18032,0.05554
3028.25150,0.05554
3026.32267,0.05539
3024.39385,0.05519
3022.46503,0.05509
3020.53621,0.05512
3018.60738,0.05520
3016.67856,0.05502
3014.74974,0.05452
3012.82092,0.05432
3010.89209,0.05456
3008.96327,0.05457
3007.03445,0.05418
3005.10563,0.05380
3003.17680,0.05365
3001.24798,0.05361
2999.31916,0.05342
2997.39034,0.05309
2995.46151,0.05278
2993.53269,0.05258
2991.60387,0.05251
2989.67505,0.05252
2987.74622,0.05249
2985.81740,0.05219
2983.88858,0.05171
2981.95975,0.05134
2980.03093,0.05099
2978.10211,0.05048
2976.17329,0.05001
2974.24446,0.04971
2972.31564,0.04951
2970.38682,0.04925
2968.45800,0.04879
2966.52917,0.04833
2964.60035,0.04809
2962.67153,0.04776
2960.74271,0.04713
2958.81388,0.04673
2956.88506,0.04672
2954.95624,0.04656
2953.02742,0.04604
2951.09859,0.04546
2949.16977,0.04493
2947.24095,0.04423
2945.31213,0.04318
2943.38330,0.04209
2941.45448,0.04120
2939.52566,0.04034
2937.59683,0.03960
2935.66801,0.03935
2933.73919,0.03948
2931.81037,0.03993
2929.88154,0.04132
2927.95272,0.04423
2926.02390,0.04874
2924.09508,0.05505
2922.16625,0.06333
2920.23743,0.07276
2918.30861,0.08128
2916.37979,0.08659
2914.45096,0.08768
2912.52214,0.08537
2910.59332,0.08160
2908.66450,0.07814
2906.73567,0.07564
2904.80685,0.07372
2902.87803,0.07208
2900.94921,0.07082
2899.02038,0.07013
2897.09156,0.06982
2895.16274,0.06941
2893.23391,0.06879
2891.30509,0.06820
2889.37627,0.06761
2887.44745,0.06678
2885.51862,0.06585
2883.58980,0.06517
2881.66098,0.06452
2879.73216,0.06372
2877.80333,0.06303
2875.87451,0.06236
2873.94569,0.06148
2872.01687,0.06058
2870.08804,0.05978
2868.15922,0.05896
2866.23040,0.05811
2864.30158,0.05707
2862.37275,0.05568
2860.44393,0.05436
2858.51511,0.05386
2856.58629,0.05460
2854.65746,0.05707
2852.72864,0.06224
2850.79982,0.07019
2848.87099,0.07835
2846.94217,0.08300
2845.01335,0.08325
2843.08453,0.08132
2841.15570,0.07892
2839.22688,0.07636
2837.29806,0.07396
2835.36924,0.07207
2833.44041,0.07059
2831.51159,0.06943
2829.58277,0.06862
2827.65395,0.06805
2825.72512,0.06755
2823.79630,0.06713
2821.86748,0.06673
2819.93866,0.06640
2818.00983,0.06629
2816.08101,0.06642
2814.15219,0.06662
2812.22337,0.06654
2810.29454,0.06620
2808.36572,0.06606
2806.43690,0.06605
2804.50807,0.06583
2802.57925,0.06559
2800.65043,0.06568
2798.72161,0.06595
2796.79278,0.06612
2794.86396,0.06621
2792.93514,0.06640
2791.00632,0.06664
2789.07749,0.06679
2787.14867,0.06696
2785.21985,0.06724
2783.29103,0.06751
2781.36220,0.06770
2779.43338,0.06792
2777.50456,0.06810
2775.57574,0.06825
2773.64691,0.06854
2771.71809,0.06883
2769.78927,0.06882
2767.86045,0.06851
2765.93162,0.06832
2764.00280,0.06851
2762.07398,0.06884
2760.14515,0.06897
2758.21633,0.06884
2756.28751,0.06871
2754.35869,0.06868
2752.42986,0.06875
2750.50104,0.06886
2748.57222,0.06887
2746.64340,0.06874
2744.71457,0.06850
2742.78575,0.06816
2740.85693,0.06795
2738.92811,0.06794
2736.99928,0.06779
2735.07046,0.06748
2733.14164,0.06741
2731.21282,0.06765
2729.28399,0.06788
2727.35517,0.06802
2725.42635,0.06809
2723.49753,0.06807
2721.56870,0.06805
2719.63988,0.06810
2717.71106,0.06822
2715.78223,0.06827
2713.85341,0.06813
2711.92459,0.06794
2709.99577,0.06788
2708.06694,0.06796
2706.13812,0.06814
2704.20930,0.06831
2702.28048,0.06841
2700.35165,0.06836
2698.42283,0.06810
2696.49401,0.06773
2694.56519,0.06737
2692.63636,0.06717
2690.70754,0.06723
2688.77872,0.06720
2686.84990,0.06680
2684.92107,0.06639
2682.99225,0.06624
2681.06343,0.06613
2679.13461,0.06594
2677.20578,0.06578
2675.27696,0.06575
2673.34814,0.06585
2671.41931,0.06582
2669.49049,0.06566
2667.56167,0.06564
2665.63285,0.06578
2663.70402,0.06588
2661.77520,0.06585
2659.84638,0.06577
2657.91756,0.06582
2655.98873,0.06596
2654.05991,0.06602
2652.13109,0.06595
2650.20227,0.06598
2648.27344,0.06625
2646.34462,0.06642
2644.41580,0.06627
2642.48698,0.06603
2640.55815,0.06593
2638.62933,0.06608
2636.70051,0.06631
2634.77169,0.06644
2632.84286,0.06653
2630.91404,0.06673
2628.98522,0.06709
2627.05639,0.06755
2625.12757,0.06797
2623.19875,0.06825
2621.26993,0.06854
2619.34110,0.06891
2617.41228,0.06916
2615.48346,0.06938
2613.55464,0.06981
2611.62581,0.07038
2609.69699,0.07085
2607.76817,0.07117
2605.83935,0.07145
2603.91052,0.07162
2601.98170,0.07176
2600.05288,0.07208
2598.12406,0.07247
2596.19523,0.07276
2594.26641,0.07311
2592.33759,0.07361
2590.40877,0.07414
2588.47994,0.07458
2586.55112,0.07502
2584.62230,0.07549
2582.69347,0.07598
2580.76465,0.07648
2578.83583,0.07697
2576.90701,0.07748
2574.97818,0.07799
2573.04936,0.07835
2571.12054,0.07859
2569.19172,0.07887
2567.26289,0.07917
2565.33407,0.07947
2563.40525,0.07986
2561.47643,0.08021
2559.54760,0.08027
2557.61878,0.08024
2555.68996,0.08053
2553.76114,0.08119
2551.83231,0.08166
2549.90349,0.08169
2547.97467,0.08181
2546.04585,0.08220
2544.11702,0.08248
2542.18820,0.08274
2540.25938,0.08315
2538.33055,0.08336
2536.40173,0.08325
2534.47291,0.08322
2532.54409,0.08332
2530.61526,0.08325
2528.68644,0.08312
2526.75762,0.08324
2524.82880,0.08363
2522.89997,0.08413
2520.97115,0.08464
2519.04233,0.08508
2517.11351,0.08544
2515.18468,0.08579
2513.25586,0.08614
2511.32704,0.08638
2509.39822,0.08657
2507.46939,0.08671
2505.54057,0.08664
2503.61175,0.08657
2501.68292,0.08672
2499.75410,0.08681
2497.82528,0.08675
2495.89646,0.08680
2493.96763,0.08707
2492.03881,0.08732
2490.10999,0.08724
2488.18117,0.08684
2486.25234,0.08662
2484.32352,0.08669
2482.39470,0.08669
2480.46588,0.08660
2478.53705,0.08665
2476.60823,0.08683
2474.67941,0.08716
2472.75059,0.08761
2470.82176,0.08795
2468.89294,0.08823
2466.96412,0.08867
2465.03530,0.08923
2463.10647,0.08963
2461.17765,0.08980
2459.24883,0.09000
2457.32000,0.09035
2455.39118,0.09076
2453.46236,0.09114
2451.53354,0.09146
2449.60471,0.09169
2447.67589,0.09179
2445.74707,0.09179
2443.81825,0.09177
2441.88942,0.09184
2439.96060,0.09200
2438.03178,0.09213
2436.10296,0.09222
2434.17413,0.09225
2432.24531,0.09214
2430.31649,0.09191
2428.38767,0.09163
2426.45884,0.09133
2424.53002,0.09104
2422.60120,0.09077
2420.67238,0.09058
2418.74355,0.09041
2416.81473,0.09018
2414.88591,0.09007
2412.95708,0.09026
2411.02826,0.09040
2409.09944,0.09028
2407.17062,0.09003
2405.24179,0.08981
2403.31297,0.08972
2401.38415,0.08973
2399.45533,0.08973
2397.52650,0.08971
2395.59768,0.08980
2393.66886,0.09001
2391.74004,0.09019
2389.81121,0.09022
2387.88239,0.09012
2385.95357,0.08980
2384.02475,0.08935
2382.09592,0.08903
2380.16710,0.08885
2378.23828,0.08883
2376.30946,0.08900
2374.38063,0.08906
2372.45181,0.08874
2370.52299,0.08831
2368.59416,0.08805
2366.66534,0.08783
2364.73652,0.08746
2362.80770,0.08691
2360.87887,0.08628
2358.95005,0.08582
2357.02123,0.08544
2355.09241,0.08490
2353.16358,0.08428
2351.23476,0.08371
2349.30594,0.08312
2347.37712,0.08254
2345.44829,0.08219
2343.51947,0.08201
2341.59065,0.08169
2339.66183,0.08123
2337.73300,0.08103
2335.80418,0.08099
2333.87536,0.08086
2331.94654,0.08078
2330.01771,0.08075
2328.08889,0.08067
2326.16007,0.08060
2324.23124,0.08067
2322.30242,0.08087
2320.37360,0.08102
2318.44478,0.08109
2316.51595,0.08118
2314.58713,0.08124
2312.65831,0.08126
2310.72949,0.08135
2308.80066,0.08149
2306.87184,0.08157
2304.94302,0.08168
2303.01420,0.08196
2301.08537,0.08229
2299.15655,0.08250
2297.22773,0.08274
2295.29891,0.08321
2293.37008,0.08364
2291.44126,0.08376
2289.51244,0.08383
2287.58362,0.08417
2285.65479,0.08451
2283.72597,0.08466
2281.79715,0.08476
2279.86832,0.08486
2277.93950,0.08502
2276.01068,0.08531
2274.08186,0.08564
2272.15303,0.08595
2270.22421,0.08619
2268.29539,0.08631
2266.36657,0.08653
2264.43774,0.08687
2262.50892,0.08708
2260.58010,0.08718
2258.65128,0.08741
2256.72245,0.08773
2254.79363,0.08795
2252.86481,0.08800
2250.93599,0.08811
2249.00716,0.08831
2247.07834,0.08848
2245.14952,0.08876
2243.22070,0.08913
2241.29187,0.08942
2239.36305,0.08990
2237.43423,0.09077
2235.50540,0.09166
2233.57658,0.09208
2231.64776,0.09217
2229.71894,0.09238
2227.79011,0.09278
2225.86129,0.09300
2223.93247,0.09291
2222.00365,0.09283
2220.07482,0.09300
2218.14600,0.09324
2216.21718,0.09346
2214.28836,0.09377
2212.35953,0.09409
2210.43071,0.09421
2208.50189,0.09412
2206.57307,0.09387
2204.64424,0.09358
2202.71542,0.09339
2200.78660,0.09335
2198.85778,0.09332
2196.92895,0.09319
2195.00013,0.09300
2193.07131,0.09279
2191.14248,0.09263
2189.21366,0.09251
2187.28484,0.09233
2185.35602,0.09200
2183.42719,0.09160
2181.49837,0.09128
2179.56955,0.09111
2177.64073,0.09119
2175.71190,0.09140
2173.78308,0.09155
2171.85426,0.09161
2169.92544,0.09163
2167.99661,0.09151
2166.06779,0.09122
2164.13897,0.09091
2162.21015,0.09060
2160.28132,0.09024
2158.35250,0.08996
2156.42368,0.08994
2154.49486,0.09019
2152.56603,0.09052
2150.63721,0.09075
2148.70839,0.09089
2146.77956,0.09105
2144.85074,0.09116
2142.92192,0.09120
2140.99310,0.09129
2139.06427,0.09157
2137.13545,0.09197
2135.20663,0.09227
2133.27781,0.09257
2131.34898,0.09296
2129.42016,0.09327
2127.49134,0.09340
2125.56252,0.09332
2123.63369,0.09307
2121.70487,0.09283
2119.77605,0.09275
2117.84723,0.09291
2115.91840,0.09310
2113.98958,0.09310
2112.06076,0.09290
2110.13194,0.09272
2108.20311,0.09274
2106.27429,0.09278
2104.34547,0.09253
2102.41664,0.09202
2100.48782,0.09157
2098.55900,0.09144
2096.63018,0.09147
2094.70135,0.09142
2092.77253,0.09139
2090.84371,0.09148
2088.91489,0.09149
2086.98606,0.09128
2085.05724,0.09082
2083.12842,0.09030
2081.19960,0.08997
2079.27077,0.08978
2077.34195,0.08959
2075.41313,0.08948
2073.48431,0.08957
2071.55548,0.08972
2069.62666,0.08978
2067.69784,0.08968
2065.76902,0.08941
2063.84019,0.08893
2061.91137,0.08829
2059.98255,0.08772
2058.05372,0.08750
2056.12490,0.08761
2054.19608,0.08775
2052.26726,0.08770
2050.33843,0.08740
2048.40961,0.08694
2046.48079,0.08645
2044.55197,0.08594
2042.62314,0.08541
2040.69432,0.08498
2038.76550,0.08471
2036.83668,0.08450
2034.90785,0.08429
2032.97903,0.08405
2031.05021,0.08384
2029.12139,0.08371
2027.19256,0.08342
2025.26374,0.08290
2023.33492,0.08233
2021.40610,0.08181
2019.47727,0.08144
2017.54845,0.08152
2015.61963,0.08223
2013.69080,0.08342
2011.76198,0.08479
2009.83316,0.08605
2007.90434,0.08702
2005.97551,0.08765
2004.04669,0.08794
2002.11787,0.08805
2000.18905,0.08828
1998.26022,0.08867
1996.33140,0.08910
1994.40258,0.08958
1992.47376,0.09010
1990.54493,0.09057
1988.61611,0.09093
1986.68729,0.09104
1984.75847,0.09088
1982.82964,0.09062
1980.90082,0.09054
1978.97200,0.09068
1977.04318,0.09087
1975.11435,0.09111
1973.18553,0.09137
1971.25671,0.09155
1969.32788,0.09157
1967.39906,0.09127
1965.47024,0.09078
1963.54142,0.09035
1961.61259,0.08999
1959.68377,0.08975
1957.75495,0.08975
1955.82613,0.09003
1953.89730,0.09049
1951.96848,0.09091
1950.03966,0.09114
1948.11084,0.09120
1946.18201,0.09107
1944.25319,0.09071
1942.32437,0.09010
1940.39555,0.08956
1938.46672,0.08951
1936.53790,0.08980
1934.60908,0.09004
1932.68026,0.09019
1930.75143,0.09037
1928.82261,0.09048
1926.89379,0.09032
1924.96496,0.08985
1923.03614,0.08927
1921.10732,0.08896
1919.17850,0.08883
1917.24967,0.08864
1915.32085,0.08856
1913.39203,0.08862
1911.46321,0.08863
1909.53438,0.08835
1907.60556,0.08776
1905.67674,0.08700
1903.74792,0.08614
1901.81909,0.08533
1899.89027,0.08481
1897.96145,0.08475
1896.03263,0.08496
1894.10380,0.08521
1892.17498,0.08546
1890.24616,0.08576
1888.31734,0.08606
1886.38851,0.08617
1884.45969,0.08592
1882.53087,0.08546
1880.60204,0.08514
1878.67322,0.08503
1876.74440,0.08501
1874.81558,0.08502
1872.88675,0.08509
1870.95793,0.08517
1869.02911,0.08494
1867.10029,0.08434
1865.17146,0.08386
1863.24264,0.08365
1861.31382,0.08359
1859.38500,0.08367
1857.45617,0.08396
1855.52735,0.08453
1853.59853,0.08512
1851.66971,0.08549
1849.74088,0.08556
1847.81206,0.08528
1845.88324,0.08466
1843.95442,0.08394
1842.02559,0.08351
1840.09677,0.08341
1838.16795,0.08351
1836.23912,0.08368
1834.31030,0.08379
1832.38148,0.08372
1830.45266,0.08323
1828.52383,0.08241
1826.59501,0.08161
1824.66619,0.08075
1822.73737,0.08003
1820.80854,0.07975
1818.87972,0.07987
1816.95090,0.08003
1815.02208,0.07991
1813.09325,0.07950
1811.16443,0.07877
1809.23561,0.07786
1807.30679,0.07700
1805.37796,0.07635
1803.44914,0.07594
1801.52032,0.07566
1799.59150,0.07548
1797.66267,0.07541
1795.73385,0.07521
1793.80503,0.07447
1791.87620,0.07306
1789.94738,0.07183
1788.01856,0.07110
1786.08974,0.07064
1784.16091,0.07046
1782.23209,0.07026
1780.30327,0.06967
1778.37445,0.06872
1776.44562,0.06753
1774.51680,0.06618
1772.58798,0.06483
1770.65916,0.06384
1768.73033,0.06319
1766.80151,0.06249
1764.87269,0.06175
1762.94387,0.06093
1761.01504,0.06015
1759.08622,0.05973
1757.15740,0.05948
1755.22857,0.05926
1753.29975,0.05897
1751.37093,0.05828
1749.44211,0.05683
1747.51328,0.05490
1745.58446,0.05262
1743.65564,0.04995
1741.72682,0.04761
1739.79799,0.04653
1737.86917,0.04690
1735.94035,0.04812
1734.01153,0.05034
1732.08270,0.05279
1730.15388,0.05438
1728.22506,0.05546
1726.29624,0.05628
1724.36741,0.05706
1722.43859,0.05777
1720.50977,0.05819
1718.58095,0.05825
1716.65212,0.05809
1714.72330,0.05809
1712.79448,0.05826
1710.86565,0.05850
1708.93683,0.05866
1707.00801,0.05862
1705.07919,0.05857
1703.15036,0.05875
1701.22154,0.05890
1699.29272,0.05855
1697.36390,0.05804
1695.43507,0.05807
1693.50625,0.05889
1691.57743,0.06003
1689.64861,0.06134
1687.71978,0.06260
1685.79096,0.06373
1683.86214,0.06501
1681.93332,0.06598
1680.00449,0.06651
1678.07567,0.06692
1676.14685,0.06745
1674.21803,0.06824
1672.28920,0.06918
1670.36038,0.07011
1668.43156,0.07045
1666.50273,0.07017
1664.57391,0.06974
1662.64509,0.06914
1660.71627,0.06867
1658.78744,0.06871
1656.85862,0.06917
1654.92980,0.06959
1653.00098,0.06909
1651.07215,0.06849
1649.14333,0.06820
1647.21451,0.06753
1645.28569,0.06750
1643.35686,0.06865
1641.42804,0.07002
1639.49922,0.07117
1637.57040,0.07249
1635.64157,0.07456
1633.71275,0.07598
1631.78393,0.07635
1629.85511,0.07647
1627.92628,0.07639
1625.99746,0.07600
1624.06864,0.07558
1622.13981,0.07558
1620.21099,0.07594
1618.28217,0.07652
1616.35335,0.07765
1614.42452,0.07868
1612.49570,0.07895
1610.56688,0.07861
1608.63806,0.07780
1606.70923,0.07687
1604.78041,0.07632
1602.85159,0.07634
1600.92277,0.07678
1598.99394,0.07748
1597.06512,0.07825
1595.13630,0.07859
1593.20748,0.07842
1591.27865,0.07802
1589.34983,0.07746
1587.42101,0.07682
1585.49219,0.07633
1583.56336,0.07625
1581.63454,0.07659
1579.70572,0.07698
1577.77689,0.07725
1575.84807,0.07754
1573.91925,0.07786
1571.99043,0.07777
1570.06160,0.07681
1568.13278,0.07536
1566.20396,0.07459
1564.27514,0.07451
1562.34631,0.07477
1560.41749,0.07508
1558.48867,0.07553
1556.55985,0.07615
1554.63102,0.07640
1552.70220,0.07606
1550.77338,0.07524
1548.84456,0.07451
1546.91573,0.07433
1544.98691,0.07453
1543.05809,0.07474
1541.12927,0.07487
1539.20044,0.07529
1537.27162,0.07586
1535.34280,0.07593
1533.41397,0.07507
1531.48515,0.07381
1529.55633,0.07300
1527.62751,0.07264
1525.69868,0.07277
1523.76986,0.07298
1521.84104,0.07286
1519.91222,0.07285
1517.98339,0.07286
1516.05457,0.07228
1514.12575,0.07140
1512.19693,0.07067
1510.26810,0.07025
1508.33928,0.07000
1506.41046,0.06944
1504.48164,0.06930
1502.55281,0.06942
1500.62399,0.06903
1498.69517,0.06770
1496.76635,0.06591
1494.83752,0.06467
1492.90870,0.06400
1490.97988,0.06346
1489.05105,0.06252
1487.12223,0.06112
1485.19341,0.05967
1483.26459,0.05815
1481.33576,0.05641
1479.40694,0.05479
1477.47812,0.05344
1475.54930,0.05250
1473.62047,0.05325
1471.69165,0.05561
1469.76283,0.05684
1467.83401,0.05706
1465.90518,0.05760
1463.97636,0.05942
1462.04754,0.06176
1460.11872,0.06334
1458.18989,0.06359
1456.26107,0.06293
1454.33225,0.06276
1452.40343,0.06268
1450.47460,0.06244
1448.54578,0.06211
1446.61696,0.06177
1444.68813,0.06159
1442.75931,0.06152
1440.83049,0.06141
1438.90167,0.06113
1436.97284,0.06073
1435.04402,0.06063
1433.11520,0.06065
1431.18638,0.06029
1429.25755,0.05980
1427.32873,0.05981
1425.39991,0.06023
1423.47109,0.06059
1421.54226,0.06080
1419.61344,0.06100
1417.68462,0.06097
1415.75580,0.06083
1413.82697,0.06087
1411.89815,0.06120
1409.96933,0.06180
1408.04051,0.06234
1406.11168,0.06247
1404.18286,0.06205
1402.25404,0.06136
1400.32521,0.06057
1398.39639,0.05981
1396.46757,0.05921
1394.53875,0.05849
1392.60992,0.05764
1390.68110,0.05685
1388.75228,0.05592
1386.82346,0.05488
1384.89463,0.05420
1382.96581,0.05387
1381.03699,0.05362
1379.10817,0.05333
1377.17934,0.05309
1375.25052,0.05295
1373.32170,0.05288
1371.39288,0.05307
1369.46405,0.05359
1367.53523,0.05412
1365.60641,0.05449
1363.67759,0.05480
1361.74876,0.05501
1359.81994,0.05524
1357.89112,0.05554
1355.96229,0.05567
1354.03347,0.05560
1352.10465,0.05569
1350.17583,0.05590
1348.24700,0.05597
1346.31818,0.05608
1344.38936,0.05656
1342.46054,0.05745
1340.53171,0.05854
1338.60289,0.05922
1336.67407,0.05926
1334.74525,0.05912
1332.81642,0.05908
1330.88760,0.05916
1328.95878,0.05939
1327.02996,0.05966
1325.10113,0.05958
1323.17231,0.05891
1321.24349,0.05788
1319.31467,0.05680
1317.38584,0.05597
1315.45702,0.05568
1313.52820,0.05577
1311.59937,0.05578
1309.67055,0.05552
1307.74173,0.05523
1305.81291,0.05505
1303.88408,0.05481
1301.95526,0.05453
1300.02644,0.05460
1298.09762,0.05499
1296.16879,0.05522
1294.23997,0.05513
1292.31115,0.05497
1290.38233,0.05480
1288.45350,0.05457
1286.52468,0.05435
1284.59586,0.05433
1282.66704,0.05447
1280.73821,0.05457
1278.80939,0.05458
1276.88057,0.05468
1274.95175,0.05494
1273.02292,0.05529
1271.09410,0.05568
1269.16528,0.05625
1267.23645,0.05704
1265.30763,0.05779
1263.37881,0.05839
1261.44999,0.05914
1259.52116,0.06029
1257.59234,0.06179
1255.66352,0.06361
1253.73470,0.06582
1251.80587,0.06823
1249.87705,0.07062
1247.94823,0.07290
1246.01941,0.07479
1244.09058,0.07592
1242.16176,0.07619
1240.23294,0.07556
1238.30412,0.07417
1236.37529,0.07235
1234.44647,0.07017
1232.51765,0.06766
1230.58883,0.06519
1228.66000,0.06304
1226.73118,0.06139
1224.80236,0.06031
1222.87353,0.05959
1220.94471,0.05895
1219.01589,0.05839
1217.08707,0.05810
1215.15824,0.05797
1213.22942,0.05778
1211.30060,0.05765
1209.37178,0.05770
1207.44295,0.05776
1205.51413,0.05772
1203.58531,0.05768
1201.65649,0.05771
1199.72766,0.05760
1197.79884,0.05744
1195.87002,0.05763
1193.94120,0.05821
1192.01237,0.05866
1190.08355,0.05867
1188.15473,0.05845
1186.22591,0.05836
1184.29708,0.05848
1182.36826,0.05876
1180.43944,0.05915
1178.51061,0.05951
1176.58179,0.05970
1174.65297,0.05967
1172.72415,0.05933
1170.79532,0.05887
1168.86650,0.05876
1166.93768,0.05903
1165.00886,0.05932
1163.08003,0.05970
1161.15121,0.06022
1159.22239,0.06047
1157.29357,0.06028
1155.36474,0.05989
1153.43592,0.05941
1151.50710,0.05894
1149.57828,0.05881
1147.64945,0.05908
1145.72063,0.05947
1143.79181,0.05944
1141.86299,0.05894
1139.93416,0.05847
1138.00534,0.05829
1136.07652,0.05837
1134.14769,0.05867
1132.21887,0.05871
1130.29005,0.05834
1128.36123,0.05816
1126.43240,0.05842
1124.50358,0.05877
1122.57476,0.05897
1120.64594,0.05899
1118.71711,0.05888
1116.78829,0.05866
1114.85947,0.05853
1112.93065,0.05881
1111.00182,0.05920
1109.07300,0.05920
1107.14418,0.05916
1105.21536,0.05941
1103.28653,0.05953
1101.35771,0.05940
1099.42889,0.05941
1097.50007,0.05955
1095.57124,0.05959
1093.64242,0.05954
1091.71360,0.05941
1089.78477,0.05914
1087.85595,0.05888
1085.92713,0.05880
1083.99831,0.05894
1082.06948,0.05922
1080.14066,0.05921
1078.21184,0.05859
1076.28302,0.05788
1074.35419,0.05761
1072.42537,0.05763
1070.49655,0.05771
1068.56773,0.05780
1066.63890,0.05789
1064.71008,0.05795
1062.78126,0.05798
1060.85244,0.05823
1058.92361,0.05862
1056.99479,0.05869
1055.06597,0.05834
1053.13714,0.05782
1051.20832,0.05754
1049.27950,0.05758
1047.35068,0.05737
1045.42185,0.05701
1043.49303,0.05724
1041.56421,0.05787
1039.63539,0.05813
1037.70656,0.05781
1035.77774,0.05739
1033.84892,0.05746
1031.92010,0.05777
1029.99127,0.05781
1028.06245,0.05763
1026.13363,0.05768
1024.20481,0.05812
1022.27598,0.05875
1020.34716,0.05956
1018.41834,0.06079
1016.48952,0.06205
1014.56069,0.06278
1012.63187,0.06300
1010.70305,0.06305
1008.77422,0.06303
1006.84540,0.06283
1004.91658,0.06255
1002.98776,0.06239
1001.05893,0.06225
999.13011,0.06208
997.20129,0.06218
995.27247,0.06244
993.34364,0.06253
991.41482,0.06261
989.48600,0.06286
987.55718,0.06312
985.62835,0.06320
983.69953,0.06295
981.77071,0.06246
979.84189,0.06194
977.91306,0.06149
975.98424,0.06115
974.05542,0.06092
972.12660,0.06083
970.19777,0.06079
968.26895,0.06063
966.34013,0.06044
964.41130,0.06037
962.48248,0.06030
960.55366,0.06015
958.62484,0.06008
956.69601,0.06020
954.76719,0.06042
952.83837,0.06048
950.90955,0.06040
948.98072,0.06049
947.05190,0.06084
945.12308,0.06109
943.19426,0.06095
941.26543,0.06077
939.33661,0.06080
937.40779,0.06084
935.47897,0.06086
933.55014,0.06103
931.62132,0.06148
929.69250,0.06230
927.76368,0.06344
925.83485,0.06471
923.90603,0.06608
921.97721,0.06736
920.04838,0.06809
918.11956,0.06807
916.19074,0.06767
914.26192,0.06757
912.33309,0.06791
910.40427,0.06832
908.47545,0.06877
906.54663,0.06962
904.61780,0.07066
902.68898,0.07134
900.76016,0.07137
898.83134,0.07069
896.90251,0.06967
894.97369,0.06891
893.04487,0.06858
891.11605,0.06868
889.18722,0.06923
887.25840,0.07019
885.32958,0.07129
883.40076,0.07198
881.47193,0.07206
879.54311,0.07174
877.61429,0.07123
875.68546,0.07052
873.75664,0.06979
871.82782,0.06938
869.89900,0.06940
867.97017,0.06995
866.04135,0.07106
864.11253,0.07228
862.18371,0.07324
860.25488,0.07363
858.32606,0.07305
856.39724,0.07182
854.46842,0.07078
852.53959,0.07042
850.61077,0.07090
848.68195,0.07199
846.75313,0.07340
844.82430,0.07512
842.89548,0.07670
840.96666,0.07733
839.03784,0.07701
837.10901,0.07621
835.18019,0.07513
833.25137,0.07399
831.32254,0.07332
829.39372,0.07368
827.46490,0.07522
825.53608,0.07743
823.60725,0.07935
821.67843,0.08029
819.74961,0.08009
817.82079,0.07890
815.89196,0.07705
813.96314,0.07490
812.03432,0.07306
810.10550,0.07220
808.17667,0.07244
806.24785,0.07376
804.31903,0.07581
802.39021,0.07752
800.46138,0.07806
798.53256,0.07722
796.60374,0.07538
794.67492,0.07331
792.74609,0.07180
790.81727,0.07145
788.88845,0.07250
786.95962,0.07476
785.03080,0.07762
783.10198,0.07990
781.17316,0.08053
779.24433,0.07927
777.31551,0.07670
775.38669,0.07360
773.45787,0.07091
771.52904,0.06944
769.60022,0.06942
767.67140,0.07088
765.74258,0.07325
763.81375,0.07531
761.88493,0.07609
759.95611,0.07510
758.02729,0.07233
756.09846,0.06857
754.16964,0.06535
752.24082,0.06371
750.31200,0.06363
748.38317,0.06482
746.45435,0.06649
744.52553,0.06710
742.59670,0.06582
740.66788,0.06278
738.73906,0.05855
736.81024,0.05465
734.88141,0.05259
732.95259,0.05271
731.02377,0.05448
729.09495,0.05624
727.16612,0.05636
725.23730,0.05553
723.30848,0.05546
721.37966,0.05702
719.45083,0.05961
717.52201,0.06143
715.59319,0.06162
713.66437,0.06159
711.73554,0.06320
709.80672,0.06660
707.87790,0.07018
705.94908,0.07183
704.02025,0.07072
702.09143,0.06846
700.16261,0.06819
698.23378,0.07184
696.30496,0.07854
694.37614,0.08557
692.44732,0.09022
690.51849,0.09089
688.58967,0.08751
686.66085,0.08188
684.73203,0.07702
682.80320,0.07525
680.87438,0.07735
678.94556,0.08276
677.01674,0.08945
675.08791,0.09463
673.15909,0.09665
671.23027,0.09515
669.30145,0.08959
667.37262,0.08114
665.44380,0.07480
663.51498,0.07231
661.58616,0.07342
659.65733,0.07796
657.72851,0.08378
655.79969,0.08827
653.87086,0.08937
651.94204,0.08601
650.01322,0.07932
648.08440,0.07160
646.15557,0.06506
644.22675,0.06160
642.29793,0.06227
640.36911,0.06677
638.44028,0.07297
636.51146,0.07766
634.58264,0.07866
632.65382,0.07619
630.72499,0.07254
628.79617,0.06960
626.86735,0.06659
624.93853,0.06272
623.00970,0.06084
621.08088,0.06370
619.15206,0.06933
617.22324,0.07371
615.29441,0.07434
613.36559,0.07112
611.43677,0.06659
609.50794,0.06386
607.57912,0.06375
605.65030,0.06402
603.72148,0.06222
601.79265,0.05942
599.86383,0.05886
