7497.33348,0.03710
7495.40466,0.03588
7493.47584,0.03394
7491.54702,0.03730
7489.61819,0.03554
7487.68937,0.02698
7485.76055,0.02527
7483.83173,0.02898
7481.90290,0.02723
7479.97408,0.02521
7478.04526,0.02915
7476.11644,0.03560
7474.18761,0.03626
7472.25879,0.03028
7470.32997,0.02510
7468.40115,0.02874
7466.47232,0.03892
7464.54350,0.04752
7462.61468,0.04901
7460.68585,0.04804
7458.75703,0.04869
7456.82821,0.04687
7454.89939,0.03901
7452.97056,0.03354
7451.04174,0.03656
7449.11292,0.04307
7447.18410,0.04365
7445.25527,0.03668
7443.32645,0.02925
7441.39763,0.02499
7439.46881,0.02055
7437.53998,0.01847
7435.61116,0.02188
7433.68234,0.02698
7431.75352,0.03299
7429.82469,0.04136
7427.89587,0.04676
7425.96705,0.04366
7424.03823,0.03562
7422.10940,0.02915
7420.18058,0.02392
7418.25176,0.02141
7416.32293,0.02530
7414.39411,0.03448
7412.46529,0.04229
7410.53647,0.04370
7408.60764,0.03938
7406.67882,0.03665
7404.75000,0.03847
7402.82118,0.03867
7400.89235,0.03263
7398.96353,0.02484
7397.03471,0.02296
7395.10589,0.02816
7393.17706,0.03319
7391.24824,0.03551
7389.31942,0.03792
7387.39060,0.03901
7385.46177,0.03508
7383.53295,0.02749
7381.60413,0.02085
7379.67531,0.02021
7377.74648,0.02540
7375.81766,0.02871
7373.88884,0.02622
7371.96001,0.02616
7370.03119,0.02923
7368.10237,0.02962
7366.17355,0.02687
7364.24472,0.02695
7362.31590,0.03143
7360.38708,0.03408
7358.45826,0.03348
7356.52943,0.03785
7354.60061,0.04544
7352.67179,0.04843
7350.74297,0.04827
7348.81414,0.04873
7346.88532,0.04618
7344.95650,0.03866
7343.02768,0.03355
7341.09885,0.03520
7339.17003,0.03699
7337.24121,0.03646
7335.31239,0.03397
7333.38356,0.03207
7331.45474,0.03301
7329.52592,0.03400
7327.59709,0.03238
7325.66827,0.03117
7323.73945,0.03428
7321.81063,0.03816
7319.88180,0.03225
7317.95298,0.02311
7316.02416,0.02631
7314.09534,0.03712
7312.16651,0.04188
7310.23769,0.03880
7308.30887,0.03389
7306.38005,0.03285
7304.45122,0.03359
7302.52240,0.03295
7300.59358,0.03105
7298.66476,0.02696
7296.73593,0.02123
7294.80711,0.02279
7292.87829,0.03106
7290.94947,0.03790
7289.02064,0.04118
7287.09182,0.04152
7285.16300,0.04158
7283.23417,0.04299
7281.30535,0.04284
7279.37653,0.03926
7277.44771,0.03177
7275.51888,0.02442
7273.59006,0.02441
7271.66124,0.03123
7269.73242,0.03616
7267.80359,0.03537
7265.87477,0.03261
7263.94595,0.03056
7262.01713,0.02680
7260.08830,0.02367
7258.15948,0.02704
7256.23066,0.03402
7254.30184,0.03573
7252.37301,0.03338
7250.44419,0.03281
7248.51537,0.03237
7246.58655,0.03062
7244.65772,0.03276
7242.72890,0.03702
7240.80008,0.03651
7238.87125,0.03277
7236.94243,0.03048
7235.01361,0.02892
7233.08479,0.02791
7231.15596,0.02980
7229.22714,0.03273
7227.29832,0.03182
7225.36950,0.02977
7223.44067,0.03198
7221.51185,0.03818
7219.58303,0.04237
7217.65421,0.04240
7215.72538,0.04024
7213.79656,0.03665
7211.86774,0.03540
7209.93892,0.03859
7208.01009,0.04119
7206.08127,0.03832
7204.15245,0.03227
7202.22363,0.03248
7200.29480,0.04049
7198.36598,0.04699
7196.43716,0.04272
7194.50833,0.03185
7192.57951,0.02803
7190.65069,0.03137
7188.72187,0.03347
7186.79304,0.03609
7184.86422,0.03808
7182.93540,0.03308
7181.00658,0.02835
7179.07775,0.03280
7177.14893,0.03595
7175.22011,0.03224
7173.29129,0.02892
7171.36246,0.03051
7169.43364,0.03375
7167.50482,0.03706
7165.57600,0.03741
7163.64717,0.03278
7161.71835,0.02811
7159.78953,0.02873
7157.86071,0.03079
7155.93188,0.02997
7154.00306,0.02977
7152.07424,0.03376
7150.14541,0.03541
7148.21659,0.03097
7146.28777,0.02717
7144.35895,0.02650
7142.43012,0.02421
7140.50130,0.02466
7138.57248,0.03150
7136.64366,0.03803
7134.71483,0.03817
7132.78601,0.03324
7130.85719,0.02936
7128.92837,0.02835
7126.99954,0.02463
7125.07072,0.01956
7123.14190,0.02134
7121.21308,0.03061
7119.28425,0.03859
7117.35543,0.03798
7115.42661,0.03344
7113.49779,0.03138
7111.56896,0.03025
7109.64014,0.02942
7107.71132,0.03075
7105.78249,0.03227
7103.85367,0.03286
7101.92485,0.03551
7099.99603,0.03765
7098.06720,0.03659
7096.13838,0.03482
7094.20956,0.03608
7092.28074,0.04064
7090.35191,0.04264
7088.42309,0.03934
7086.49427,0.03587
7084.56545,0.03422
7082.63662,0.03266
7080.70780,0.03119
7078.77898,0.03199
7076.85016,0.03439
7074.92133,0.03473
7072.99251,0.03370
7071.06369,0.03588
7069.13487,0.04038
7067.20604,0.04279
7065.27722,0.04266
7063.34840,0.04069
7061.41957,0.03710
7059.49075,0.03326
7057.56193,0.03046
7055.63311,0.03135
7053.70428,0.03381
7051.77546,0.03303
7049.84664,0.03021
7047.91782,0.02988
7045.98899,0.03343
7044.06017,0.03740
7042.13135,0.03796
7040.20253,0.03659
7038.27370,0.03638
7036.34488,0.03759
7034.41606,0.03772
7032.48724,0.03685
7030.55841,0.03691
7028.62959,0.03641
7026.70077,0.03400
7024.77195,0.03111
7022.84312,0.02832
7020.91430,0.02767
7018.98548,0.03010
7017.05665,0.03358
7015.12783,0.03581
7013.19901,0.03708
7011.27019,0.03606
7009.34136,0.03187
7007.41254,0.02850
7005.48372,0.02754
7003.55490,0.02568
7001.62607,0.02351
6999.69725,0.02391
6997.76843,0.02782
6995.83961,0.03244
6993.91078,0.03515
6991.98196,0.03626
6990.05314,0.03508
6988.12432,0.03195
6986.19549,0.02996
6984.26667,0.02988
6982.33785,0.03121
6980.40903,0.03130
6978.48020,0.03070
6976.55138,0.03206
6974.62256,0.03386
6972.69373,0.03468
6970.76491,0.03449
6968.83609,0.03349
6966.90727,0.03288
6964.97844,0.03319
6963.04962,0.03572
6961.12080,0.03958
6959.19198,0.03961
6957.26315,0.03599
6955.33433,0.03382
6953.40551,0.03257
6951.47669,0.03200
6949.54786,0.03344
6947.61904,0.03515
6945.69022,0.03647
6943.76140,0.03704
6941.83257,0.03537
6939.90375,0.03467
6937.97493,0.03762
6936.04611,0.03946
6934.11728,0.03531
6932.18846,0.03056
6930.25964,0.03173
6928.33081,0.03322
6926.40199,0.02978
6924.47317,0.02634
6922.54435,0.02812
6920.61552,0.03509
6918.68670,0.04181
6916.75788,0.04167
6914.82906,0.03507
6912.90023,0.03045
6910.97141,0.03185
6909.04259,0.03373
6907.11377,0.03164
6905.18494,0.02899
6903.25612,0.02984
6901.32730,0.03322
6899.39848,0.03479
6897.46965,0.03436
6895.54083,0.03524
6893.61201,0.03771
6891.68319,0.03924
6889.75436,0.03931
6887.82554,0.03801
6885.89672,0.03654
6883.96789,0.03652
6882.03907,0.03630
6880.11025,0.03477
6878.18143,0.03345
6876.25260,0.03238
6874.32378,0.03278
6872.39496,0.03558
6870.46614,0.03702
6868.53731,0.03401
6866.60849,0.03046
6864.67967,0.03087
6862.75085,0.03438
6860.82202,0.03766
6858.89320,0.03811
6856.96438,0.03554
6855.03556,0.03276
6853.10673,0.03054
6851.17791,0.02994
6849.24909,0.03230
6847.32027,0.03344
6845.39144,0.02946
6843.46262,0.02642
6841.53380,0.02806
6839.60497,0.02906
6837.67615,0.02670
6835.74733,0.02515
6833.81851,0.02772
6831.88968,0.03225
6829.96086,0.03461
6828.03204,0.03453
6826.10322,0.03407
6824.17439,0.03561
6822.24557,0.03763
6820.31675,0.03776
6818.38793,0.03749
6816.45910,0.03904
6814.53028,0.04167
6812.60146,0.04323
6810.67264,0.04180
6808.74381,0.03885
6806.81499,0.03739
6804.88617,0.03778
6802.95734,0.03791
6801.02852,0.03682
6799.09970,0.03539
6797.17088,0.03448
6795.24205,0.03352
6793.31323,0.03165
6791.38441,0.02812
6789.45559,0.02548
6787.52676,0.02582
6785.59794,0.02811
6783.66912,0.03071
6781.74030,0.03288
6779.81147,0.03356
6777.88265,0.03205
6775.95383,0.02745
6774.02501,0.02454
6772.09618,0.02769
6770.16736,0.03267
6768.23854,0.03545
6766.30972,0.03773
6764.38089,0.04001
6762.45207,0.03946
6760.52325,0.03531
6758.59442,0.03244
6756.66560,0.03228
6754.73678,0.03131
6752.80796,0.03190
6750.87913,0.03566
6748.95031,0.03697
6747.02149,0.03460
6745.09267,0.03290
6743.16384,0.03395
6741.23502,0.03518
6739.30620,0.03493
6737.37738,0.03376
6735.44855,0.03228
6733.51973,0.03289
6731.59091,0.03441
6729.66209,0.03228
6727.73326,0.02898
6725.80444,0.02876
6723.87562,0.03169
6721.94680,0.03555
6720.01797,0.03732
6718.08915,0.03504
6716.16033,0.03171
6714.23150,0.03077
6712.30268,0.03056
6710.37386,0.03026
6708.44504,0.03053
6706.51621,0.03028
6704.58739,0.03111
6702.65857,0.03330
6700.72975,0.03541
6698.80092,0.03637
6696.87210,0.03488
6694.94328,0.03271
6693.01446,0.03256
6691.08563,0.03215
6689.15681,0.02936
6687.22799,0.02584
6685.29917,0.02543
6683.37034,0.02885
6681.44152,0.03166
6679.51270,0.03171
6677.58388,0.03259
6675.65505,0.03558
6673.72623,0.03748
6671.79741,0.03647
6669.86858,0.03384
6667.93976,0.03163
6666.01094,0.03155
6664.08212,0.03258
6662.15329,0.03311
6660.22447,0.03327
6658.29565,0.03511
6656.36683,0.03713
6654.43800,0.03674
6652.50918,0.03509
6650.58036,0.03277
6648.65154,0.02873
6646.72271,0.02534
6644.79389,0.02449
6642.86507,0.02473
6640.93625,0.02508
6639.00742,0.02649
6637.07860,0.02827
6635.14978,0.02981
6633.22096,0.03187
6631.29213,0.03553
6629.36331,0.03955
6627.43449,0.03949
6625.50566,0.03487
6623.57684,0.03193
6621.64802,0.03293
6619.71920,0.03377
6617.79037,0.03299
6615.86155,0.03348
6613.93273,0.03480
6612.00391,0.03497
6610.07508,0.03365
6608.14626,0.03128
6606.21744,0.02915
6604.28862,0.02906
6602.35979,0.03115
6600.43097,0.03196
6598.50215,0.02970
6596.57333,0.02783
6594.64450,0.02861
6592.71568,0.03156
6590.78686,0.03392
6588.85804,0.03320
6586.92921,0.03124
6585.00039,0.03000
6583.07157,0.02915
6581.14274,0.02966
6579.21392,0.03133
6577.28510,0.03314
6575.35628,0.03453
6573.42745,0.03426
6571.49863,0.03061
6569.56981,0.02651
6567.64099,0.02699
6565.71216,0.03158
6563.78334,0.03468
6561.85452,0.03463
6559.92570,0.03328
6557.99687,0.03285
6556.06805,0.03407
6554.13923,0.03521
6552.21041,0.03369
6550.28158,0.03046
6548.35276,0.02883
6546.42394,0.02996
6544.49512,0.03145
6542.56629,0.03145
6540.63747,0.03049
6538.70865,0.02986
6536.77982,0.02967
6534.85100,0.02938
6532.92218,0.02919
6530.99336,0.02966
6529.06453,0.02953
6527.13571,0.02929
6525.20689,0.03061
6523.27807,0.03202
6521.34924,0.03245
6519.42042,0.03325
6517.49160,0.03454
6515.56278,0.03490
6513.63395,0.03295
6511.70513,0.03003
6509.77631,0.03010
6507.84749,0.03251
6505.91866,0.03132
6503.98984,0.02829
6502.06102,0.02930
6500.13220,0.03208
6498.20337,0.03189
6496.27455,0.02950
6494.34573,0.02854
6492.41690,0.03092
6490.48808,0.03339
6488.55926,0.03230
6486.63044,0.03050
6484.70161,0.03255
6482.77279,0.03615
6480.84397,0.03625
6478.91515,0.03318
6476.98632,0.03110
6475.05750,0.03104
6473.12868,0.03203
6471.19986,0.03270
6469.27103,0.03205
6467.34221,0.03062
6465.41339,0.03044
6463.48457,0.03212
6461.55574,0.03489
6459.62692,0.03736
6457.69810,0.03843
6455.76928,0.03743
6453.84045,0.03576
6451.91163,0.03495
6449.98281,0.03511
6448.05398,0.03507
6446.12516,0.03329
6444.19634,0.03061
6442.26752,0.02934
6440.33869,0.02980
6438.40987,0.03024
6436.48105,0.02891
6434.55223,0.02739
6432.62340,0.02675
6430.69458,0.02551
6428.76576,0.02497
6426.83694,0.02659
6424.90811,0.02942
6422.97929,0.03321
6421.05047,0.03553
6419.12165,0.03506
6417.19282,0.03487
6415.26400,0.03590
6413.33518,0.03646
6411.40636,0.03693
6409.47753,0.03656
6407.54871,0.03392
6405.61989,0.03010
6403.69106,0.02900
6401.76224,0.03179
6399.83342,0.03427
6397.90460,0.03340
6395.97577,0.03130
6394.04695,0.02971
6392.11813,0.02897
6390.18931,0.03017
6388.26048,0.03246
6386.33166,0.03350
6384.40284,0.03366
6382.47402,0.03237
6380.54519,0.02871
6378.61637,0.02620
6376.68755,0.02745
6374.75873,0.03000
6372.82990,0.03091
6370.90108,0.03046
6368.97226,0.03194
6367.04344,0.03491
6365.11461,0.03499
6363.18579,0.03231
6361.25697,0.03111
6359.32814,0.03116
6357.39932,0.03039
6355.47050,0.02995
6353.54168,0.02999
6351.61285,0.02898
6349.68403,0.02838
6347.75521,0.02883
6345.82639,0.02935
6343.89756,0.03083
6341.96874,0.03254
6340.03992,0.03272
6338.11110,0.03207
6336.18227,0.03111
6334.25345,0.03054
6332.32463,0.02952
6330.39581,0.02722
6328.46698,0.02651
6326.53816,0.02823
6324.60934,0.03013
6322.68052,0.03142
6320.75169,0.03150
6318.82287,0.03081
6316.89405,0.03069
6314.96522,0.03078
6313.03640,0.03002
6311.10758,0.02932
6309.17876,0.02908
6307.24993,0.02890
6305.32111,0.02929
6303.39229,0.03046
6301.46347,0.03254
6299.53464,0.03544
6297.60582,0.03680
6295.67700,0.03598
6293.74818,0.03482
6291.81935,0.03311
6289.89053,0.03089
6287.96171,0.03030
6286.03289,0.03088
6284.10406,0.03063
6282.17524,0.02934
6280.24642,0.02807
6278.31760,0.02799
6276.38877,0.02975
6274.45995,0.03069
6272.53113,0.02920
6270.60230,0.02838
6268.67348,0.03012
6266.74466,0.03216
6264.81584,0.03233
6262.88701,0.03089
6260.95819,0.02958
6259.02937,0.02948
6257.10055,0.02985
6255.17172,0.02954
6253.24290,0.02829
6251.31408,0.02695
6249.38526,0.02779
6247.45643,0.03072
6245.52761,0.03244
6243.59879,0.03183
6241.66997,0.03016
6239.74114,0.02820
6237.81232,0.02689
6235.88350,0.02799
6233.95468,0.03139
6232.02585,0.03433
6230.09703,0.03523
6228.16821,0.03440
6226.23938,0.03292
6224.31056,0.03142
6222.38174,0.03041
6220.45292,0.03038
6218.52409,0.03065
6216.59527,0.03133
6214.66645,0.03242
6212.73763,0.03248
6210.80880,0.03310
6208.87998,0.03477
6206.95116,0.03417
6205.02234,0.03198
6203.09351,0.03142
6201.16469,0.03213
6199.23587,0.03282
6197.30705,0.03281
6195.37822,0.03203
6193.44940,0.03112
6191.52058,0.03001
6189.59176,0.02874
6187.66293,0.02790
6185.73411,0.02856
6183.80529,0.03109
6181.87646,0.03339
6179.94764,0.03413
6178.01882,0.03309
6176.09000,0.03073
6174.16117,0.02925
6172.23235,0.02966
6170.30353,0.03111
6168.37471,0.03298
6166.44588,0.03423
6164.51706,0.03353
6162.58824,0.03095
6160.65942,0.02844
6158.73059,0.02754
6156.80177,0.02862
6154.87295,0.03066
6152.94413,0.03213
6151.01530,0.03239
6149.08648,0.03176
6147.15766,0.03114
6145.22884,0.03115
6143.30001,0.03131
6141.37119,0.03132
6139.44237,0.03210
6137.51354,0.03391
6135.58472,0.03401
6133.65590,0.03195
6131.72708,0.03117
6129.79825,0.03276
6127.86943,0.03418
6125.94061,0.03362
6124.01179,0.03137
6122.08296,0.02998
6120.15414,0.03087
6118.22532,0.03113
6116.29650,0.02867
6114.36767,0.02605
6112.43885,0.02549
6110.51003,0.02669
6108.58121,0.02878
6106.65238,0.03059
6104.72356,0.03131
6102.79474,0.03109
6100.86591,0.02989
6098.93709,0.02867
6097.00827,0.02911
6095.07945,0.03070
6093.15062,0.03177
6091.22180,0.03201
6089.29298,0.03124
6087.36416,0.03014
6085.43533,0.03008
6083.50651,0.03067
6081.57769,0.03140
6079.64887,0.03274
6077.72004,0.03290
6075.79122,0.03136
6073.86240,0.03041
6071.93358,0.03038
6070.00475,0.03042
6068.07593,0.03117
6066.14711,0.03250
6064.21829,0.03264
6062.28946,0.03084
6060.36064,0.02888
6058.43182,0.02808
6056.50299,0.02766
6054.57417,0.02809
6052.64535,0.03052
6050.71653,0.03250
6048.78770,0.03205
6046.85888,0.03134
6044.93006,0.03209
6043.00124,0.03304
6041.07241,0.03247
6039.14359,0.03096
6037.21477,0.03027
6035.28595,0.02953
6033.35712,0.02847
6031.42830,0.02845
6029.49948,0.02920
6027.57066,0.03062
6025.64183,0.03201
6023.71301,0.03141
6021.78419,0.02916
6019.85537,0.02718
6017.92654,0.02685
6015.99772,0.02795
6014.06890,0.02968
6012.14007,0.03166
6010.21125,0.03288
6008.28243,0.03286
6006.35361,0.03286
6004.42478,0.03289
6002.49596,0.03261
6000.56714,0.03212
5998.63832,0.03078
5996.70949,0.02949
5994.78067,0.03075
5992.85185,0.03361
5990.92303,0.03438
5988.99420,0.03252
5987.06538,0.03070
5985.13656,0.03066
5983.20774,0.03146
5981.27891,0.03159
5979.35009,0.03090
5977.42127,0.02923
5975.49245,0.02730
5973.56362,0.02700
5971.63480,0.02776
5969.70598,0.02794
5967.77715,0.02850
5965.84833,0.02948
5963.91951,0.02917
5961.99069,0.02745
5960.06186,0.02617
5958.13304,0.02693
5956.20422,0.02983
5954.27540,0.03242
5952.34657,0.03261
5950.41775,0.03167
5948.48893,0.03131
5946.56011,0.03090
5944.63128,0.02967
5942.70246,0.02900
5940.77364,0.03073
5938.84482,0.03279
5936.91599,0.03275
5934.98717,0.03231
5933.05835,0.03282
5931.12953,0.03251
5929.20070,0.03109
5927.27188,0.02981
5925.34306,0.02918
5923.41423,0.02952
5921.48541,0.03052
5919.55659,0.03104
5917.62777,0.03078
5915.69894,0.02967
5913.77012,0.02827
5911.84130,0.02803
5909.91248,0.02936
5907.98365,0.03130
5906.05483,0.03235
5904.12601,0.03142
5902.19719,0.03007
5900.26836,0.03035
5898.33954,0.03133
5896.41072,0.03196
5894.48190,0.03294
5892.55307,0.03328
5890.62425,0.03107
5888.69543,0.02763
5886.76661,0.02702
5884.83778,0.02932
5882.90896,0.03001
5880.98014,0.02792
5879.05131,0.02658
5877.12249,0.02778
5875.19367,0.03002
5873.26485,0.03171
5871.33602,0.03264
5869.40720,0.03259
5867.47838,0.03155
5865.54956,0.03079
5863.62073,0.03136
5861.69191,0.03190
5859.76309,0.03098
5857.83427,0.03043
5855.90544,0.03195
5853.97662,0.03357
5852.04780,0.03366
5850.11898,0.03321
5848.19015,0.03343
5846.26133,0.03358
5844.33251,0.03250
5842.40369,0.03146
5840.47486,0.03214
5838.54604,0.03296
5836.61722,0.03243
5834.68839,0.03054
5832.75957,0.02813
5830.83075,0.02776
5828.90193,0.03027
5826.97310,0.03237
5825.04428,0.03207
5823.11546,0.03059
5821.18664,0.02921
5819.25781,0.02832
5817.32899,0.02846
5815.40017,0.02952
5813.47135,0.03056
5811.54252,0.03086
5809.61370,0.03056
5807.68488,0.03006
5805.75606,0.02973
5803.82723,0.02946
5801.89841,0.02907
5799.96959,0.02916
5798.04077,0.03047
5796.11194,0.03244
5794.18312,0.03321
5792.25430,0.03223
5790.32547,0.03164
5788.39665,0.03263
5786.46783,0.03390
5784.53901,0.03429
5782.61018,0.03316
5780.68136,0.03109
5778.75254,0.02980
5776.82372,0.02926
5774.89489,0.02855
5772.96607,0.02800
5771.03725,0.02817
5769.10843,0.02875
5767.17960,0.02890
5765.25078,0.02835
5763.32196,0.02828
5761.39314,0.02973
5759.46431,0.03179
5757.53549,0.03263
5755.60667,0.03195
5753.67785,0.03085
5751.74902,0.02972
5749.82020,0.02843
5747.89138,0.02798
5745.96255,0.02844
5744.03373,0.02884
5742.10491,0.02907
5740.17609,0.02931
5738.24726,0.02962
5736.31844,0.03039
5734.38962,0.03100
5732.46080,0.03020
5730.53197,0.02880
5728.60315,0.02869
5726.67433,0.02939
5724.74551,0.02934
5722.81668,0.02868
5720.88786,0.02903
5718.95904,0.03017
5717.03022,0.03031
5715.10139,0.03023
5713.17257,0.03121
5711.24375,0.03165
5709.31493,0.03074
5707.38610,0.02979
5705.45728,0.02965
5703.52846,0.03065
5701.59963,0.03187
5699.67081,0.03116
5697.74199,0.02902
5695.81317,0.02818
5693.88434,0.02891
5691.95552,0.02895
5690.02670,0.02795
5688.09788,0.02745
5686.16905,0.02756
5684.24023,0.02805
5682.31141,0.02914
5680.38259,0.03030
5678.45376,0.03129
5676.52494,0.03184
5674.59612,0.03160
5672.66730,0.03075
5670.73847,0.03027
5668.80965,0.03083
5666.88083,0.03164
5664.95201,0.03177
5663.02318,0.03136
5661.09436,0.03081
5659.16554,0.03038
5657.23671,0.02976
5655.30789,0.02842
5653.37907,0.02707
5651.45025,0.02712
5649.52142,0.02881
5647.59260,0.03097
5645.66378,0.03175
5643.73496,0.03053
5641.80613,0.02883
5639.87731,0.02897
5637.94849,0.03069
5636.01967,0.03151
5634.09084,0.03104
5632.16202,0.03094
5630.23320,0.03148
5628.30438,0.03153
5626.37555,0.03080
5624.44673,0.03026
5622.51791,0.03009
5620.58909,0.02965
5618.66026,0.02872
5616.73144,0.02814
5614.80262,0.02874
5612.87379,0.02983
5610.94497,0.03074
5609.01615,0.03155
5607.08733,0.03142
5605.15850,0.03011
5603.22968,0.02904
5601.30086,0.02910
5599.37204,0.02985
5597.44321,0.03047
5595.51439,0.03029
5593.58557,0.02969
5591.65675,0.02951
5589.72792,0.02972
5587.79910,0.02977
5585.87028,0.02964
5583.94146,0.02977
5582.01263,0.03017
5580.08381,0.03091
5578.15499,0.03155
5576.22617,0.03119
5574.29734,0.03075
5572.36852,0.03093
5570.43970,0.03075
5568.51087,0.03062
5566.58205,0.03095
5564.65323,0.03056
5562.72441,0.02952
5560.79558,0.02867
5558.86676,0.02830
5556.93794,0.02900
5555.00912,0.03040
5553.08029,0.03073
5551.15147,0.03004
5549.22265,0.03008
5547.29383,0.03102
5545.36500,0.03160
5543.43618,0.03139
5541.50736,0.03130
5539.57854,0.03157
5537.64971,0.03089
5535.72089,0.02948
5533.79207,0.02914
5531.86325,0.03009
5529.93442,0.03099
5528.00560,0.03120
5526.07678,0.03107
5524.14795,0.03093
5522.21913,0.03054
5520.29031,0.02971
5518.36149,0.02909
5516.43266,0.02928
5514.50384,0.03009
5512.57502,0.03043
5510.64620,0.02933
5508.71737,0.02809
5506.78855,0.02838
5504.85973,0.02910
5502.93091,0.02910
5501.00208,0.02938
5499.07326,0.03047
5497.14444,0.03136
5495.21562,0.03138
5493.28679,0.03076
5491.35797,0.02998
5489.42915,0.02951
5487.50033,0.02950
5485.57150,0.02973
5483.64268,0.02961
5481.71386,0.02918
5479.78503,0.02871
5477.85621,0.02848
5475.92739,0.02912
5473.99857,0.02999
5472.06974,0.02997
5470.14092,0.02949
5468.21210,0.02899
5466.28328,0.02880
5464.35445,0.02962
5462.42563,0.03127
5460.49681,0.03225
5458.56799,0.03187
5456.63916,0.03101
5454.71034,0.03025
5452.78152,0.02946
5450.85270,0.02902
5448.92387,0.02948
5446.99505,0.03032
5445.06623,0.03070
5443.13741,0.03011
5441.20858,0.02880
5439.27976,0.02794
5437.35094,0.02774
5435.42211,0.02823
5433.49329,0.02936
5431.56447,0.03004
5429.63565,0.03002
5427.70682,0.02975
5425.77800,0.02992
5423.84918,0.03060
5421.92036,0.03067
5419.99153,0.03007
5418.06271,0.03000
5416.13389,0.03033
5414.20507,0.03033
5412.27624,0.03029
5410.34742,0.03023
5408.41860,0.03025
5406.48978,0.03092
5404.56095,0.03147
5402.63213,0.03118
5400.70331,0.03065
5398.77449,0.03018
5396.84566,0.02942
5394.91684,0.02869
5392.98802,0.02880
5391.05919,0.02914
5389.13037,0.02877
5387.20155,0.02841
5385.27273,0.02904
5383.34390,0.03007
5381.41508,0.03066
5379.48626,0.03082
5377.55744,0.03071
5375.62861,0.03061
5373.69979,0.03096
5371.77097,0.03182
5369.84215,0.03271
5367.91332,0.03315
5365.98450,0.03284
5364.05568,0.03162
5362.12686,0.03042
5360.19803,0.02986
5358.26921,0.02957
5356.34039,0.02979
5354.41156,0.03034
5352.48274,0.03029
5350.55392,0.02947
5348.62510,0.02875
5346.69627,0.02945
5344.76745,0.03094
5342.83863,0.03136
5340.90981,0.03121
5338.98098,0.03174
5337.05216,0.03245
5335.12334,0.03202
5333.19452,0.03075
5331.26569,0.03012
5329.33687,0.03086
5327.40805,0.03182
5325.47923,0.03171
5323.55040,0.03089
5321.62158,0.02971
5319.69276,0.02878
5317.76394,0.02905
5315.83511,0.03013
5313.90629,0.03092
5311.97747,0.03080
5310.04864,0.03024
5308.11982,0.03033
5306.19100,0.03088
5304.26218,0.03125
5302.33335,0.03164
5300.40453,0.03172
5298.47571,0.03124
5296.54689,0.03129
5294.61806,0.03205
5292.68924,0.03213
5290.76042,0.03109
5288.83160,0.03009
5286.90277,0.02984
5284.97395,0.03033
5283.04513,0.03112
5281.11631,0.03126
5279.18748,0.03045
5277.25866,0.02995
5275.32984,0.03031
5273.40102,0.03054
5271.47219,0.03029
5269.54337,0.03037
5267.61455,0.03033
5265.68572,0.02957
5263.75690,0.02914
5261.82808,0.02996
5259.89926,0.03109
5257.97043,0.03141
5256.04161,0.03096
5254.11279,0.03043
5252.18397,0.03048
5250.25514,0.03050
5248.32632,0.02959
5246.39750,0.02871
5244.46868,0.02851
5242.53985,0.02844
5240.61103,0.02853
5238.68221,0.02895
5236.75339,0.02976
5234.82456,0.03038
5232.89574,0.02991
5230.96692,0.02895
5229.03810,0.02910
5227.10927,0.03055
5225.18045,0.03130
5223.25163,0.03018
5221.32280,0.02907
5219.39398,0.02904
5217.46516,0.02910
5215.53634,0.02864
5213.60751,0.02785
5211.67869,0.02745
5209.74987,0.02816
5207.82105,0.02920
5205.89222,0.02980
5203.96340,0.03055
5202.03458,0.03110
5200.10576,0.03085
5198.17693,0.03014
5196.24811,0.02949
5194.31929,0.02947
5192.39047,0.03003
5190.46164,0.03058
5188.53282,0.03113
5186.60400,0.03129
5184.67518,0.03024
5182.74635,0.02915
5180.81753,0.02972
5178.88871,0.03084
5176.95988,0.03083
5175.03106,0.03050
5173.10224,0.03127
5171.17342,0.03211
5169.24459,0.03147
5167.31577,0.03051
5165.38695,0.03087
5163.45813,0.03159
5161.52930,0.03101
5159.60048,0.02975
5157.67166,0.02949
5155.74284,0.03019
5153.81401,0.03032
5151.88519,0.02967
5149.95637,0.02975
5148.02755,0.03053
5146.09872,0.03032
5144.16990,0.02943
5142.24108,0.02956
5140.31226,0.03044
5138.38343,0.03089
5136.45461,0.03091
5134.52579,0.03078
5132.59696,0.03058
5130.66814,0.03062
5128.73932,0.03057
5126.81050,0.03015
5124.88167,0.02968
5122.95285,0.02957
5121.02403,0.03013
5119.09521,0.03097
5117.16638,0.03094
5115.23756,0.03026
5113.30874,0.03024
5111.37992,0.03084
5109.45109,0.03137
5107.52227,0.03146
5105.59345,0.03077
5103.66463,0.03006
5101.73580,0.03043
5099.80698,0.03113
5097.87816,0.03113
5095.94934,0.03104
5094.02051,0.03127
5092.09169,0.03125
5090.16287,0.03086
5088.23404,0.03044
5086.30522,0.03043
5084.37640,0.03072
5082.44758,0.03055
5080.51875,0.02972
5078.58993,0.02919
5076.66111,0.02977
5074.73229,0.03067
5072.80346,0.03098
5070.87464,0.03084
5068.94582,0.03035
5067.01700,0.02969
5065.08817,0.02935
5063.15935,0.02965
5061.23053,0.03043
5059.30171,0.03062
5057.37288,0.02970
5055.44406,0.02891
5053.51524,0.02920
5051.58642,0.03017
5049.65759,0.03101
5047.72877,0.03122
5045.79995,0.03102
5043.87112,0.03067
5041.94230,0.03014
5040.01348,0.02983
5038.08466,0.02982
5036.15583,0.02968
5034.22701,0.02942
5032.29819,0.02937
5030.36937,0.02957
5028.44054,0.02973
5026.51172,0.02991
5024.58290,0.03069
5022.65408,0.03191
5020.72525,0.03194
5018.79643,0.03041
5016.86761,0.02922
5014.93879,0.02932
5013.00996,0.03010
5011.08114,0.03091
5009.15232,0.03103
5007.22350,0.03045
5005.29467,0.03026
5003.36585,0.03054
5001.43703,0.03054
4999.50820,0.03043
4997.57938,0.03043
4995.65056,0.03029
4993.72174,0.02999
4991.79291,0.02957
4989.86409,0.02921
4987.93527,0.02915
4986.00645,0.02937
4984.07762,0.02984
4982.14880,0.03030
4980.21998,0.03011
4978.29116,0.02952
4976.36233,0.02952
4974.43351,0.03007
4972.50469,0.03020
4970.57587,0.02967
4968.64704,0.02938
4966.71822,0.02989
4964.78940,0.03065
4962.86058,0.03087
4960.93175,0.03032
4959.00293,0.02963
4957.07411,0.02973
4955.14528,0.03056
4953.21646,0.03117
4951.28764,0.03100
4949.35882,0.03051
4947.42999,0.03042
4945.50117,0.03070
4943.57235,0.03066
4941.64353,0.03004
4939.71470,0.02953
4937.78588,0.02969
4935.85706,0.03017
4933.92824,0.03051
4931.99941,0.03055
4930.07059,0.03048
4928.14177,0.03040
4926.21295,0.03019
4924.28412,0.03004
4922.35530,0.03044
4920.42648,0.03079
4918.49766,0.03020
4916.56883,0.02923
4914.64001,0.02913
4912.71119,0.02990
4910.78236,0.03042
4908.85354,0.03004
4906.92472,0.02927
4904.99590,0.02879
4903.06707,0.02887
4901.13825,0.02917
4899.20943,0.02923
4897.28061,0.02913
4895.35178,0.02878
4893.42296,0.02825
4891.49414,0.02850
4889.56532,0.02958
4887.63649,0.03033
4885.70767,0.03042
4883.77885,0.03050
4881.85003,0.03034
4879.92120,0.02964
4877.99238,0.02939
4876.06356,0.02999
4874.13474,0.03064
4872.20591,0.03083
4870.27709,0.03056
4868.34827,0.02994
4866.41944,0.02937
4864.49062,0.02955
4862.56180,0.03035
4860.63298,0.03093
4858.70415,0.03096
4856.77533,0.03076
4854.84651,0.03040
4852.91769,0.02970
4850.98886,0.02897
4849.06004,0.02868
4847.13122,0.02868
4845.20240,0.02888
4843.27357,0.02937
4841.34475,0.02975
4839.41593,0.02999
4837.48711,0.03063
4835.55828,0.03104
4833.62946,0.03036
4831.70064,0.02965
4829.77182,0.02992
4827.84299,0.03028
4825.91417,0.03021
4823.98535,0.03023
4822.05652,0.03038
4820.12770,0.03044
4818.19888,0.03065
4816.27006,0.03095
4814.34123,0.03111
4812.41241,0.03128
4810.48359,0.03147
4808.55477,0.03149
4806.62594,0.03125
4804.69712,0.03047
4802.76830,0.02932
4800.83948,0.02875
4798.91065,0.02910
4796.98183,0.02960
4795.05301,0.02991
4793.12419,0.03040
4791.19536,0.03089
4789.26654,0.03079
4787.33772,0.03011
4785.40890,0.02957
4783.48007,0.02968
4781.55125,0.02999
4779.62243,0.03011
4777.69360,0.03028
4775.76478,0.03040
4773.83596,0.03008
4771.90714,0.02956
4769.97831,0.02930
4768.04949,0.02949
4766.12067,0.03018
4764.19185,0.03089
4762.26302,0.03102
4760.33420,0.03053
4758.40538,0.03008
4756.47656,0.03015
4754.54773,0.03018
4752.61891,0.02984
4750.69009,0.02962
4748.76127,0.02994
4746.83244,0.03050
4744.90362,0.03062
4742.97480,0.03037
4741.04598,0.03033
4739.11715,0.03055
4737.18833,0.03087
4735.25951,0.03098
4733.33068,0.03095
4731.40186,0.03114
4729.47304,0.03133
4727.54422,0.03109
4725.61539,0.03038
4723.68657,0.02926
4721.75775,0.02830
4719.82893,0.02832
4717.90010,0.02938
4715.97128,0.03072
4714.04246,0.03139
4712.11364,0.03107
4710.18481,0.03054
4708.25599,0.03029
4706.32717,0.03006
4704.39835,0.03001
4702.46952,0.03020
4700.54070,0.03025
4698.61188,0.02998
4696.68306,0.02960
4694.75423,0.02955
4692.82541,0.03004
4690.89659,0.03073
4688.96776,0.03089
4687.03894,0.03024
4685.11012,0.02938
4683.18130,0.02915
4681.25247,0.02958
4679.32365,0.03006
4677.39483,0.03028
4675.46601,0.03014
4673.53718,0.02982
4671.60836,0.02991
4669.67954,0.03055
4667.75072,0.03101
4665.82189,0.03067
4663.89307,0.03040
4661.96425,0.03098
4660.03543,0.03143
4658.10660,0.03097
4656.17778,0.03030
4654.24896,0.03029
4652.32013,0.03059
4650.39131,0.03045
4648.46249,0.03024
4646.53367,0.03039
4644.60484,0.03042
4642.67602,0.03024
4640.74720,0.03015
4638.81838,0.03008
4636.88955,0.02997
4634.96073,0.03000
4633.03191,0.03023
4631.10309,0.03045
4629.17426,0.03031
4627.24544,0.02999
4625.31662,0.03003
4623.38780,0.03031
4621.45897,0.03025
4619.53015,0.03005
4617.60133,0.03006
4615.67251,0.02965
4613.74368,0.02892
4611.81486,0.02916
4609.88604,0.03011
4607.95721,0.03022
4606.02839,0.02975
4604.09957,0.03002
4602.17075,0.03048
4600.24192,0.03029
4598.31310,0.02991
4596.38428,0.02980
4594.45546,0.02993
4592.52663,0.03019
4590.59781,0.03029
4588.66899,0.03005
4586.74017,0.02996
4584.81134,0.03026
4582.88252,0.03047
4580.95370,0.03055
4579.02488,0.03062
4577.09605,0.03050
4575.16723,0.03029
4573.23841,0.03019
4571.30959,0.02995
4569.38076,0.02950
4567.45194,0.02941
4565.52312,0.02986
4563.59429,0.03036
4561.66547,0.03053
4559.73665,0.03029
4557.80783,0.03006
4555.87900,0.03025
4553.95018,0.03067
4552.02136,0.03103
4550.09254,0.03126
4548.16371,0.03134
4546.23489,0.03100
4544.30607,0.03012
4542.37725,0.02921
4540.44842,0.02879
4538.51960,0.02891
4536.59078,0.02932
4534.66196,0.02976
4532.73313,0.03016
4530.80431,0.03025
4528.87549,0.02976
4526.94667,0.02920
4525.01784,0.02922
4523.08902,0.02962
4521.16020,0.02987
4519.23137,0.02981
4517.30255,0.02984
4515.37373,0.03033
4513.44491,0.03087
4511.51608,0.03080
4509.58726,0.03009
4507.65844,0.02913
4505.72962,0.02895
4503.80079,0.02992
4501.87197,0.03070
4499.94315,0.03038
4498.01433,0.02967
4496.08550,0.02933
4494.15668,0.02932
4492.22786,0.02927
4490.29904,0.02921
4488.37021,0.02944
4486.44139,0.03000
4484.51257,0.03061
4482.58375,0.03073
4480.65492,0.03027
4478.72610,0.02978
4476.79728,0.02955
4474.86845,0.02977
4472.93963,0.03033
4471.01081,0.03052
4469.08199,0.03019
4467.15316,0.02985
4465.22434,0.02959
4463.29552,0.02951
4461.36670,0.02972
4459.43787,0.02990
4457.50905,0.02975
4455.58023,0.02974
4453.65141,0.03032
4451.72258,0.03101
4449.79376,0.03114
4447.86494,0.03079
4445.93612,0.03035
4444.00729,0.03021
4442.07847,0.03064
4440.14965,0.03109
4438.22083,0.03104
4436.29200,0.03089
4434.36318,0.03087
4432.43436,0.03058
4430.50553,0.03016
4428.57671,0.03018
4426.64789,0.03036
4424.71907,0.03022
4422.79024,0.02995
4420.86142,0.03000
4418.93260,0.03040
4417.00378,0.03059
4415.07495,0.03023
4413.14613,0.02983
4411.21731,0.02978
4409.28849,0.02985
4407.35966,0.02984
4405.43084,0.02977
4403.50202,0.02964
4401.57320,0.02951
4399.64437,0.02970
4397.71555,0.03019
4395.78673,0.03041
4393.85791,0.03023
4391.92908,0.02993
4390.00026,0.02987
4388.07144,0.03016
4386.14261,0.03031
4384.21379,0.02996
4382.28497,0.02960
4380.35615,0.02988
4378.42732,0.03041
4376.49850,0.03032
4374.56968,0.02994
4372.64086,0.03002
4370.71203,0.03021
4368.78321,0.03005
4366.85439,0.02978
4364.92557,0.02961
4362.99674,0.02964
4361.06792,0.02986
4359.13910,0.02990
4357.21028,0.02955
4355.28145,0.02893
4353.35263,0.02843
4351.42381,0.02841
4349.49499,0.02891
4347.56616,0.02954
4345.63734,0.02978
4343.70852,0.02959
4341.77969,0.02932
4339.85087,0.02930
4337.92205,0.02962
4335.99323,0.03003
4334.06440,0.03015
4332.13558,0.02998
4330.20676,0.02978
4328.27794,0.02969
4326.34911,0.02964
4324.42029,0.02953
4322.49147,0.02914
4320.56265,0.02865
4318.63382,0.02889
4316.70500,0.02996
4314.77618,0.03067
4312.84736,0.03042
4310.91853,0.02970
4308.98971,0.02920
4307.06089,0.02932
4305.13207,0.02985
4303.20324,0.03009
4301.27442,0.02979
4299.34560,0.02953
4297.41677,0.02979
4295.48795,0.03016
4293.55913,0.03000
4291.63031,0.02951
4289.70148,0.02936
4287.77266,0.02950
4285.84384,0.02957
4283.91502,0.02948
4281.98619,0.02929
4280.05737,0.02933
4278.12855,0.02957
4276.19973,0.02951
4274.27090,0.02915
4272.34208,0.02897
4270.41326,0.02926
4268.48444,0.02975
4266.55561,0.03003
4264.62679,0.03006
4262.69797,0.02996
4260.76915,0.02963
4258.84032,0.02933
4256.91150,0.02943
4254.98268,0.02954
4253.05385,0.02955
4251.12503,0.02985
4249.19621,0.03021
4247.26739,0.03032
4245.33856,0.03019
4243.40974,0.02991
4241.48092,0.02967
4239.55210,0.02929
4237.62327,0.02894
4235.69445,0.02903
4233.76563,0.02922
4231.83681,0.02941
4229.90798,0.02998
4227.97916,0.03048
4226.05034,0.03035
4224.12152,0.03003
4222.19269,0.02986
4220.26387,0.02965
4218.33505,0.02959
4216.40623,0.02975
4214.47740,0.02983
4212.54858,0.02982
4210.61976,0.02987
4208.69093,0.03002
4206.76211,0.03023
4204.83329,0.03028
4202.90447,0.03006
4200.97564,0.02959
4199.04682,0.02934
4197.11800,0.02969
4195.18918,0.03013
4193.26035,0.03016
4191.33153,0.03011
4189.40271,0.03003
4187.47389,0.02977
4185.54506,0.02955
4183.61624,0.02935
4181.68742,0.02924
4179.75860,0.02937
4177.82977,0.02956
4175.90095,0.02990
4173.97213,0.03039
4172.04331,0.03049
4170.11448,0.03008
4168.18566,0.02973
4166.25684,0.02977
4164.32801,0.02998
4162.39919,0.03002
4160.47037,0.02982
4158.54155,0.02992
4156.61272,0.03019
4154.68390,0.02999
4152.75508,0.02984
4150.82626,0.03008
4148.89743,0.03017
4146.96861,0.03006
4145.03979,0.02995
4143.11097,0.02979
4141.18214,0.02967
4139.25332,0.02969
4137.32450,0.02982
4135.39568,0.02987
4133.46685,0.02974
4131.53803,0.02960
4129.60921,0.02976
4127.68039,0.03030
4125.75156,0.03059
4123.82274,0.03014
4121.89392,0.02956
4119.96509,0.02953
4118.03627,0.02976
4116.10745,0.02972
4114.17863,0.02953
4112.24980,0.02960
4110.32098,0.02986
4108.39216,0.02988
4106.46334,0.02978
4104.53451,0.02985
4102.60569,0.02982
4100.67687,0.02968
4098.74805,0.02979
4096.81922,0.02990
4094.89040,0.02985
4092.96158,0.03002
4091.03276,0.03032
4089.10393,0.03027
4087.17511,0.03011
4085.24629,0.03013
4083.31747,0.02977
4081.38864,0.02906
4079.45982,0.02893
4077.53100,0.02940
4075.60217,0.02975
4073.67335,0.02978
4071.74453,0.02966
4069.81571,0.02974
4067.88688,0.03001
4065.95806,0.02999
4064.02924,0.02963
4062.10042,0.02942
4060.17159,0.02969
4058.24277,0.03019
4056.31395,0.03032
4054.38513,0.03009
4052.45630,0.03012
4050.52748,0.03041
4048.59866,0.03048
4046.66984,0.03039
4044.74101,0.03041
4042.81219,0.03050
4040.88337,0.03055
4038.95455,0.03057
4037.02572,0.03049
4035.09690,0.03016
4033.16808,0.02980
4031.23925,0.02984
4029.31043,0.03015
4027.38161,0.03029
4025.45279,0.03021
4023.52396,0.03013
4021.59514,0.03017
4019.66632,0.03015
4017.73750,0.02978
4015.80867,0.02929
4013.87985,0.02912
4011.95103,0.02909
4010.02221,0.02913
4008.09338,0.02933
4006.16456,0.02929
4004.23574,0.02893
4002.30692,0.02867
4000.37809,0.02864
3998.44927,0.02884
3996.52045,0.02912
3994.59163,0.02931
3992.66280,0.02943
3990.73398,0.02933
3988.80516,0.02909
3986.87633,0.02915
3984.94751,0.02945
3983.01869,0.02967
3981.08987,0.02969
3979.16104,0.02956
3977.23222,0.02957
3975.30340,0.02973
3973.37458,0.02972
3971.44575,0.02968
3969.51693,0.02972
3967.58811,0.02963
3965.65929,0.02944
3963.73046,0.02949
3961.80164,0.02975
3959.87282,0.02985
3957.94400,0.02965
3956.01517,0.02953
3954.08635,0.02966
3952.15753,0.02979
3950.22870,0.02968
3948.29988,0.02952
3946.37106,0.02947
3944.44224,0.02946
3942.51341,0.02966
3940.58459,0.03012
3938.65577,0.03049
3936.72695,0.03069
3934.79812,0.03078
3932.86930,0.03059
3930.94048,0.03023
3929.01166,0.03016
3927.08283,0.03031
3925.15401,0.03005
3923.22519,0.02926
3921.29637,0.02881
3919.36754,0.02914
3917.43872,0.02974
3915.50990,0.02997
3913.58108,0.02978
3911.65225,0.02958
3909.72343,0.02981
3907.79461,0.03048
3905.86578,0.03089
3903.93696,0.03043
3902.00814,0.02975
3900.07932,0.02978
3898.15049,0.03031
3896.22167,0.03068
3894.29285,0.03064
3892.36403,0.03029
3890.43520,0.03024
3888.50638,0.03056
3886.57756,0.03052
3884.64874,0.02992
3882.71991,0.02932
3880.79109,0.02889
3878.86227,0.02912
3876.93345,0.02983
3875.00462,0.03037
3873.07580,0.03067
3871.14698,0.03067
3869.21816,0.03016
3867.28933,0.02966
3865.36051,0.02944
3863.43169,0.02943
3861.50286,0.02960
3859.57404,0.02977
3857.64522,0.03005
3855.71640,0.03078
3853.78757,0.03155
3851.85875,0.03104
3849.92993,0.03027
3848.00111,0.02972
3846.07228,0.02953
3844.14346,0.02991
3842.21464,0.03029
3840.28582,0.03016
3838.35699,0.02996
3836.42817,0.03020
3834.49935,0.03039
3832.57053,0.03021
3830.64170,0.03015
3828.71288,0.03045
3826.78406,0.03076
3824.85524,0.03085
3822.92641,0.03056
3820.99759,0.02995
3819.06877,0.02984
3817.13994,0.02988
3815.21112,0.02971
3813.28230,0.02971
3811.35348,0.02974
3809.42465,0.02964
3807.49583,0.02944
3805.56701,0.02962
3803.63819,0.03005
3801.70936,0.02990
3799.78054,0.02980
3797.85172,0.02992
3795.92290,0.02963
3793.99407,0.02945
3792.06525,0.02968
3790.13643,0.03002
3788.20761,0.03001
3786.27878,0.02955
3784.34996,0.02926
3782.42114,0.02941
3780.49232,0.02968
3778.56349,0.02974
3776.63467,0.02953
3774.70585,0.02946
3772.77702,0.02977
3770.84820,0.03025
3768.91938,0.03059
3766.99056,0.03041
3765.06173,0.02976
3763.13291,0.02952
3761.20409,0.02974
3759.27527,0.02960
3757.34644,0.02931
3755.41762,0.02971
3753.48880,0.03031
3751.55998,0.03021
3749.63115,0.03044
3747.70233,0.03132
3745.77351,0.03096
3743.84469,0.02927
3741.91586,0.02854
3739.98704,0.02869
3738.05822,0.02883
3736.12940,0.02891
3734.20057,0.02904
3732.27175,0.02895
3730.34293,0.02889
3728.41410,0.02904
3726.48528,0.02902
3724.55646,0.02871
3722.62764,0.02874
3720.69881,0.02926
3718.76999,0.02966
3716.84117,0.02978
3714.91235,0.02972
3712.98352,0.02927
3711.05470,0.02858
3709.12588,0.02851
3707.19706,0.02880
3705.26823,0.02904
3703.33941,0.02906
3701.41059,0.02893
3699.48177,0.02915
3697.55294,0.02949
3695.62412,0.02950
3693.69530,0.02928
3691.76648,0.02895
3689.83765,0.02842
3687.90883,0.02840
3685.98001,0.02896
3684.05118,0.02934
3682.12236,0.02956
3680.19354,0.02995
3678.26472,0.03025
3676.33589,0.02988
3674.40707,0.02965
3672.47825,0.03029
3670.54943,0.03045
3668.62060,0.02963
3666.69178,0.02902
3664.76296,0.02878
3662.83414,0.02867
3660.90531,0.02865
3658.97649,0.02867
3657.04767,0.02851
3655.11885,0.02826
3653.19002,0.02839
3651.26120,0.02862
3649.33238,0.02826
3647.40356,0.02775
3645.47473,0.02765
3643.54591,0.02781
3641.61709,0.02824
3639.68826,0.02853
3637.75944,0.02842
3635.83062,0.02807
3633.90180,0.02757
3631.97297,0.02700
3630.04415,0.02642
3628.11533,0.02645
3626.18651,0.02711
3624.25768,0.02756
3622.32886,0.02794
3620.40004,0.02815
3618.47122,0.02759
3616.54239,0.02689
3614.61357,0.02660
3612.68475,0.02658
3610.75593,0.02696
3608.82710,0.02752
3606.89828,0.02785
3604.96946,0.02803
3603.04064,0.02811
3601.11181,0.02789
3599.18299,0.02776
3597.25417,0.02824
3595.32534,0.02887
3593.39652,0.02889
3591.46770,0.02867
3589.53888,0.02838
3587.61005,0.02775
3585.68123,0.02730
3583.75241,0.02714
3581.82359,0.02707
3579.89476,0.02732
3577.96594,0.02774
3576.03712,0.02775
3574.10830,0.02750
3572.17947,0.02747
3570.25065,0.02764
3568.32183,0.02768
3566.39301,0.02736
3564.46418,0.02712
3562.53536,0.02727
3560.60654,0.02755
3558.67772,0.02774
3556.74889,0.02755
3554.82007,0.02694
3552.89125,0.02649
3550.96242,0.02672
3549.03360,0.02723
3547.10478,0.02748
3545.17596,0.02745
3543.24713,0.02735
3541.31831,0.02727
3539.38949,0.02708
3537.46067,0.02688
3535.53184,0.02707
3533.60302,0.02758
3531.67420,0.02777
3529.74538,0.02741
3527.81655,0.02689
3525.88773,0.02675
3523.95891,0.02699
3522.03009,0.02711
3520.10126,0.02682
3518.17244,0.02652
3516.24362,0.02659
3514.31480,0.02679
3512.38597,0.02668
3510.45715,0.02632
3508.52833,0.02621
3506.59950,0.02645
3504.67068,0.02656
3502.74186,0.02637
3500.81304,0.02628
3498.88421,0.02633
3496.95539,0.02641
3495.02657,0.02653
3493.09775,0.02672
3491.16892,0.02688
3489.24010,0.02686
3487.31128,0.02661
3485.38246,0.02651
3483.45363,0.02680
3481.52481,0.02701
3479.59599,0.02698
3477.66717,0.02685
3475.73834,0.02648
3473.80952,0.02596
3471.88070,0.02557
3469.95188,0.02561
3468.02305,0.02596
3466.09423,0.02603
3464.16541,0.02587
3462.23658,0.02595
3460.30776,0.02614
3458.37894,0.02603
3456.45012,0.02566
3454.52129,0.02549
3452.59247,0.02567
3450.66365,0.02586
3448.73483,0.02587
3446.80600,0.02570
3444.87718,0.02552
3442.94836,0.02547
3441.01954,0.02538
3439.09071,0.02524
3437.16189,0.02544
3435.23307,0.02593
3433.30425,0.02601
3431.37542,0.02567
3429.44660,0.02548
3427.51778,0.02541
3425.58896,0.02537
3423.66013,0.02553
3421.73131,0.02577
3419.80249,0.02583
3417.87366,0.02562
3415.94484,0.02551
3414.01602,0.02554
3412.08720,0.02525
3410.15837,0.02497
3408.22955,0.02514
3406.30073,0.02538
3404.37191,0.02546
3402.44308,0.02558
3400.51426,0.02581
3398.58544,0.02597
3396.65662,0.02600
3394.72779,0.02617
3392.79897,0.02636
3390.87015,0.02638
3388.94133,0.02651
3387.01250,0.02647
3385.08368,0.02593
3383.15486,0.02552
3381.22604,0.02562
3379.29721,0.02584
3377.36839,0.02591
3375.43957,0.02588
3373.51074,0.02592
3371.58192,0.02610
3369.65310,0.02617
3367.72428,0.02606
3365.79545,0.02605
3363.86663,0.02610
3361.93781,0.02602
3360.00899,0.02601
3358.08016,0.02600
3356.15134,0.02580
3354.22252,0.02566
3352.29370,0.02537
3350.36487,0.02486
3348.43605,0.02499
3346.50723,0.02587
3344.57841,0.02646
3342.64958,0.02645
3340.72076,0.02636
3338.79194,0.02625
3336.86312,0.02617
3334.93429,0.02619
3333.00547,0.02601
3331.07665,0.02559
3329.14782,0.02531
3327.21900,0.02541
3325.29018,0.02573
3323.36136,0.02591
3321.43253,0.02590
3319.50371,0.02599
3317.57489,0.02617
3315.64607,0.02628
3313.71724,0.02646
3311.78842,0.02646
3309.85960,0.02609
3307.93078,0.02585
3306.00195,0.02590
3304.07313,0.02584
3302.14431,0.02556
3300.21549,0.02532
3298.28666,0.02523
3296.35784,0.02531
3294.42902,0.02558
3292.50020,0.02586
3290.57137,0.02588
3288.64255,0.02587
3286.71373,0.02621
3284.78490,0.02666
3282.85608,0.02691
3280.92726,0.02683
3278.99844,0.02641
3277.06961,0.02617
3275.14079,0.02633
3273.21197,0.02649
3271.28315,0.02648
3269.35432,0.02662
3267.42550,0.02691
3265.49668,0.02684
3263.56786,0.02646
3261.63903,0.02651
3259.71021,0.02703
3257.78139,0.02738
3255.85257,0.02728
3253.92374,0.02683
3251.99492,0.02634
3250.06610,0.02611
3248.13728,0.02607
3246.20845,0.02622
3244.27963,0.02639
3242.35081,0.02624
3240.42198,0.02594
3238.49316,0.02583
3236.56434,0.02604
3234.63552,0.02657
3232.70669,0.02686
3230.77787,0.02646
3228.84905,0.02614
3226.92023,0.02638
3224.99140,0.02671
3223.06258,0.02689
3221.13376,0.02679
3219.20494,0.02672
3217.27611,0.02685
3215.34729,0.02658
3213.41847,0.02612
3211.48965,0.02605
3209.56082,0.02630
3207.63200,0.02678
3205.70318,0.02716
3203.77435,0.02698
3201.84553,0.02657
3199.91671,0.02643
3197.98789,0.02635
3196.05906,0.02623
3194.13024,0.02628
3192.20142,0.02624
3190.27260,0.02606
3188.34377,0.02614
3186.41495,0.02645
3184.48613,0.02671
3182.55731,0.02684
3180.62848,0.02673
3178.69966,0.02648
3176.77084,0.02642
3174.84202,0.02659
3172.91319,0.02665
3170.98437,0.02648
3169.05555,0.02636
3167.12673,0.02643
3165.19790,0.02649
3163.26908,0.02658
3161.34026,0.02689
3159.41143,0.02722
3157.48261,0.02721
3155.55379,0.02689
3153.62497,0.02655
3151.69614,0.02629
3149.76732,0.02608
3147.83850,0.02601
3145.90968,0.02619
3143.98085,0.02652
3142.05203,0.02672
3140.12321,0.02676
3138.19439,0.02676
3136.26556,0.02666
3134.33674,0.02645
3132.40792,0.02631
3130.47910,0.02649
3128.55027,0.02695
3126.62145,0.02714
3124.69263,0.02690
3122.76381,0.02653
3120.83498,0.02621
3118.90616,0.02618
3116.97734,0.02650
3115.04851,0.02677
3113.11969,0.02679
3111.19087,0.02675
3109.26205,0.02679
3107.33322,0.02694
3105.40440,0.02721
3103.47558,0.02730
3101.54676,0.02699
3099.61793,0.02656
3097.68911,0.02637
3095.76029,0.02635
3093.83147,0.02623
3091.90264,0.02611
3089.97382,0.02623
3088.04500,0.02646
3086.11618,0.02660
3084.18735,0.02660
3082.25853,0.02650
3080.32971,0.02638
3078.40089,0.02638
3076.47206,0.02655
3074.54324,0.02674
3072.61442,0.02685
3070.68559,0.02698
3068.75677,0.02703
3066.82795,0.02670
3064.89913,0.02627
3062.97030,0.02617
3061.04148,0.02621
3059.11266,0.02619
3057.18384,0.02632
3055.25501,0.02657
3053.32619,0.02672
3051.39737,0.02681
3049.46855,0.02703
3047.53972,0.02729
3045.61090,0.02710
3043.68208,0.02659
3041.75326,0.02656
3039.82443,0.02699
3037.89561,0.02714
3035.96679,0.02697
3034.03797,0.02681
3032.10914,0.02658
3030.18032,0.02635
3028.25150,0.02639
3026.32267,0.02655
3024.39385,0.02649
3022.46503,0.02634
3020.53621,0.02640
3018.60738,0.02648
3016.67856,0.02636
3014.74974,0.02634
3012.82092,0.02654
3010.89209,0.02660
3008.96327,0.02635
3007.03445,0.02615
3005.10563,0.02622
3003.17680,0.02635
3001.24798,0.02631
2999.31916,0.02613
2997.39034,0.02591
2995.46151,0.02573
2993.53269,0.02579
2991.60387,0.02615
2989.67505,0.02651
2987.74622,0.02657
2985.81740,0.02642
2983.88858,0.02619
2981.95975,0.02576
2980.03093,0.02533
2978.10211,0.02546
2976.17329,0.02601
2974.24446,0.02616
2972.31564,0.02585
2970.38682,0.02566
2968.45800,0.02570
2966.52917,0.02565
2964.60035,0.02544
2962.67153,0.02525
2960.74271,0.02510
2958.81388,0.02501
2956.88506,0.02515
2954.95624,0.02547
2953.02742,0.02570
2951.09859,0.02579
2949.16977,0.02579
2947.24095,0.02571
2945.31213,0.02557
2943.38330,0.02555
2941.45448,0.02569
2939.52566,0.02562
2937.59683,0.02533
2935.66801,0.02527
2933.73919,0.02538
2931.81037,0.02545
2929.88154,0.02560
2927.95272,0.02567
2926.02390,0.02558
2924.09508,0.02566
2922.16625,0.02597
2920.23743,0.02615
2918.30861,0.02604
2916.37979,0.02592
2914.45096,0.02596
2912.52214,0.02614
2910.59332,0.02635
2908.66450,0.02633
2906.73567,0.02626
2904.80685,0.02649
2902.87803,0.02681
2900.94921,0.02689
2899.02038,0.02661
2897.09156,0.02612
2895.16274,0.02581
2893.23391,0.02592
2891.30509,0.02618
2889.37627,0.02641
2887.44745,0.02657
2885.51862,0.02644
2883.58980,0.02606
2881.66098,0.02589
2879.73216,0.02603
2877.80333,0.02614
2875.87451,0.02604
2873.94569,0.02602
2872.01687,0.02624
2870.08804,0.02640
2868.15922,0.02631
2866.23040,0.02607
2864.30158,0.02591
2862.37275,0.02591
2860.44393,0.02593
2858.51511,0.02593
2856.58629,0.02609
2854.65746,0.02635
2852.72864,0.02645
2850.79982,0.02646
2848.87099,0.02664
2846.94217,0.02695
2845.01335,0.02718
2843.08453,0.02719
2841.15570,0.02706
2839.22688,0.02696
2837.29806,0.02697
2835.36924,0.02698
2833.44041,0.02691
2831.51159,0.02682
2829.58277,0.02673
2827.65395,0.02663
2825.72512,0.02669
2823.79630,0.02680
2821.86748,0.02681
2819.93866,0.02696
2818.00983,0.02715
2816.08101,0.02701
2814.15219,0.02666
2812.22337,0.02646
2810.29454,0.02657
2808.36572,0.02671
2806.43690,0.02658
2804.50807,0.02648
2802.57925,0.02679
2800.65043,0.02721
2798.72161,0.02735
2796.79278,0.02730
2794.86396,0.02721
2792.93514,0.02706
2791.00632,0.02696
2789.07749,0.02686
2787.14867,0.02682
2785.21985,0.02691
2783.29103,0.02695
2781.36220,0.02694
2779.43338,0.02698
2777.50456,0.02710
2775.57574,0.02726
2773.64691,0.02727
2771.71809,0.02708
2769.78927,0.02695
2767.86045,0.02706
2765.93162,0.02718
2764.00280,0.02710
2762.07398,0.02703
2760.14515,0.02707
2758.21633,0.02715
2756.28751,0.02713
2754.35869,0.02695
2752.42986,0.02681
2750.50104,0.02685
2748.57222,0.02694
2746.64340,0.02691
2744.71457,0.02682
2742.78575,0.02688
2740.85693,0.02703
2738.92811,0.02712
2736.99928,0.02719
2735.07046,0.02710
2733.14164,0.02680
2731.21282,0.02671
2729.28399,0.02688
2727.35517,0.02699
2725.42635,0.02690
2723.49753,0.02672
2721.56870,0.02667
2719.63988,0.02677
2717.71106,0.02699
2715.78223,0.02726
2713.85341,0.02736
2711.92459,0.02716
2709.99577,0.02698
2708.06694,0.02704
2706.13812,0.02715
2704.20930,0.02707
2702.28048,0.02687
2700.35165,0.02675
2698.42283,0.02682
2696.49401,0.02696
2694.56519,0.02709
2692.63636,0.02729
2690.70754,0.02743
2688.77872,0.02726
2686.84990,0.02700
2684.92107,0.02700
2682.99225,0.02709
2681.06343,0.02715
2679.13461,0.02717
2677.20578,0.02717
2675.27696,0.02705
2673.34814,0.02673
2671.41931,0.02652
2669.49049,0.02666
2667.56167,0.02698
2665.63285,0.02718
2663.70402,0.02704
2661.77520,0.02673
2659.84638,0.02650
2657.91756,0.02652
2655.98873,0.02677
2654.05991,0.02701
2652.13109,0.02708
2650.20227,0.02704
2648.27344,0.02693
2646.34462,0.02676
2644.41580,0.02664
2642.48698,0.02661
2640.55815,0.02669
2638.62933,0.02682
2636.70051,0.02684
2634.77169,0.02672
2632.84286,0.02682
2630.91404,0.02716
2628.98522,0.02724
2627.05639,0.02698
2625.12757,0.02682
2623.19875,0.02685
2621.26993,0.02691
2619.34110,0.02692
2617.41228,0.02682
2615.48346,0.02665
2613.55464,0.02657
2611.62581,0.02662
2609.69699,0.02667
2607.76817,0.02667
2605.83935,0.02673
2603.91052,0.02696
2601.98170,0.02719
2600.05288,0.02730
2598.12406,0.02739
2596.19523,0.02754
2594.26641,0.02756
2592.33759,0.02742
2590.40877,0.02735
2588.47994,0.02737
2586.55112,0.02725
2584.62230,0.02698
2582.69347,0.02680
2580.76465,0.02684
2578.83583,0.02692
2576.90701,0.02687
2574.97818,0.02677
2573.04936,0.02681
2571.12054,0.02695
2569.19172,0.02700
2567.26289,0.02686
2565.33407,0.02663
2563.40525,0.02659
2561.47643,0.02684
2559.54760,0.02707
2557.61878,0.02712
2555.68996,0.02709
2553.76114,0.02702
2551.83231,0.02688
2549.90349,0.02670
2547.97467,0.02657
2546.04585,0.02654
2544.11702,0.02657
2542.18820,0.02654
2540.25938,0.02645
2538.33055,0.02642
2536.40173,0.02649
2534.47291,0.02663
2532.54409,0.02670
2530.61526,0.02666
2528.68644,0.02669
2526.75762,0.02680
2524.82880,0.02675
2522.89997,0.02658
2520.97115,0.02649
2519.04233,0.02654
2517.11351,0.02661
2515.18468,0.02669
2513.25586,0.02681
2511.32704,0.02697
2509.39822,0.02700
2507.46939,0.02677
2505.54057,0.02651
2503.61175,0.02644
2501.68292,0.02643
2499.75410,0.02640
2497.82528,0.02652
2495.89646,0.02669
2493.96763,0.02657
2492.03881,0.02635
2490.10999,0.02640
2488.18117,0.02657
2486.25234,0.02668
2484.32352,0.02682
2482.39470,0.02698
2480.46588,0.02696
2478.53705,0.02684
2476.60823,0.02686
2474.67941,0.02696
2472.75059,0.02702
2470.82176,0.02701
2468.89294,0.02697
2466.96412,0.02686
2465.03530,0.02673
2463.10647,0.02661
2461.17765,0.02648
2459.24883,0.02641
2457.32000,0.02656
2455.39118,0.02676
2453.46236,0.02678
2451.53354,0.02670
2449.60471,0.02663
2447.67589,0.02654
2445.74707,0.02651
2443.81825,0.02655
2441.88942,0.02655
2439.96060,0.02667
2438.03178,0.02689
2436.10296,0.02696
2434.17413,0.02690
2432.24531,0.02684
2430.31649,0.02673
2428.38767,0.02669
2426.45884,0.02687
2424.53002,0.02703
2422.60120,0.02685
2420.67238,0.02643
2418.74355,0.02614
2416.81473,0.02607
2414.88591,0.02613
2412.95708,0.02630
2411.02826,0.02647
2409.09944,0.02646
2407.17062,0.02617
2405.24179,0.02586
2403.31297,0.02585
2401.38415,0.02611
2399.45533,0.02651
2397.52650,0.02682
2395.59768,0.02683
2393.66886,0.02668
2391.74004,0.02667
2389.81121,0.02672
2387.88239,0.02668
2385.95357,0.02663
2384.02475,0.02676
2382.09592,0.02698
2380.16710,0.02702
2378.23828,0.02695
2376.30946,0.02704
2374.38063,0.02713
2372.45181,0.02711
2370.52299,0.02713
2368.59416,0.02718
2366.66534,0.02717
2364.73652,0.02720
2362.80770,0.02727
2360.87887,0.02725
2358.95005,0.02721
2357.02123,0.02723
2355.09241,0.02709
2353.16358,0.02682
2351.23476,0.02670
2349.30594,0.02663
2347.37712,0.02656
2345.44829,0.02675
2343.51947,0.02717
2341.59065,0.02735
2339.66183,0.02715
2337.73300,0.02683
2335.80418,0.02673
2333.87536,0.02687
2331.94654,0.02693
2330.01771,0.02680
2328.08889,0.02669
2326.16007,0.02674
2324.23124,0.02698
2322.30242,0.02715
2320.37360,0.02705
2318.44478,0.02689
2316.51595,0.02683
2314.58713,0.02672
2312.65831,0.02650
2310.72949,0.02621
2308.80066,0.02611
2306.87184,0.02640
2304.94302,0.02672
2303.01420,0.02666
2301.08537,0.02639
2299.15655,0.02626
2297.22773,0.02624
2295.29891,0.02628
2293.37008,0.02636
2291.44126,0.02631
2289.51244,0.02616
2287.58362,0.02612
2285.65479,0.02615
2283.72597,0.02607
2281.79715,0.02595
2279.86832,0.02596
2277.93950,0.02613
2276.01068,0.02634
2274.08186,0.02646
2272.15303,0.02639
2270.22421,0.02626
2268.29539,0.02626
2266.36657,0.02621
2264.43774,0.02598
2262.50892,0.02579
2260.58010,0.02580
2258.65128,0.02595
2256.72245,0.02607
2254.79363,0.02610
2252.86481,0.02610
2250.93599,0.02604
2249.00716,0.02597
2247.07834,0.02597
2245.14952,0.02604
2243.22070,0.02615
2241.29187,0.02620
2239.36305,0.02608
2237.43423,0.02590
2235.50540,0.02583
2233.57658,0.02589
2231.64776,0.02599
2229.71894,0.02599
2227.79011,0.02601
2225.86129,0.02605
2223.93247,0.02602
2222.00365,0.02594
2220.07482,0.02584
2218.14600,0.02574
2216.21718,0.02575
2214.28836,0.02578
2212.35953,0.02570
2210.43071,0.02566
2208.50189,0.02588
2206.57307,0.02614
2204.64424,0.02618
2202.71542,0.02600
2200.78660,0.02574
2198.85778,0.02559
2196.92895,0.02558
2195.00013,0.02563
2193.07131,0.02574
2191.14248,0.02589
2189.21366,0.02601
2187.28484,0.02608
2185.35602,0.02596
2183.42719,0.02571
2181.49837,0.02561
2179.56955,0.02566
2177.64073,0.02570
2175.71190,0.02579
2173.78308,0.02582
2171.85426,0.02571
2169.92544,0.02567
2167.99661,0.02576
2166.06779,0.02580
2164.13897,0.02577
2162.21015,0.02571
2160.28132,0.02567
2158.35250,0.02568
2156.42368,0.02564
2154.49486,0.02547
2152.56603,0.02528
2150.63721,0.02531
2148.70839,0.02549
2146.77956,0.02559
2144.85074,0.02568
2142.92192,0.02582
2140.99310,0.02585
2139.06427,0.02585
2137.13545,0.02598
2135.20663,0.02605
2133.27781,0.02602
2131.34898,0.02595
2129.42016,0.02583
2127.49134,0.02581
2125.56252,0.02595
2123.63369,0.02606
2121.70487,0.02606
2119.77605,0.02600
2117.84723,0.02575
2115.91840,0.02543
2113.98958,0.02532
2112.06076,0.02541
2110.13194,0.02553
2108.20311,0.02560
2106.27429,0.02559
2104.34547,0.02554
2102.41664,0.02556
2100.48782,0.02565
2098.55900,0.02569
2096.63018,0.02564
2094.70135,0.02552
2092.77253,0.02537
2090.84371,0.02533
2088.91489,0.02547
2086.98606,0.02571
2085.05724,0.02571
2083.12842,0.02544
2081.19960,0.02524
2079.27077,0.02528
2077.34195,0.02535
2075.41313,0.02538
2073.48431,0.02534
2071.55548,0.02526
2069.62666,0.02535
2067.69784,0.02557
2065.76902,0.02568
2063.84019,0.02572
2061.91137,0.02568
2059.98255,0.02552
2058.05372,0.02532
2056.12490,0.02521
2054.19608,0.02535
2052.26726,0.02563
2050.33843,0.02571
2048.40961,0.02565
2046.48079,0.02556
2044.55197,0.02535
2042.62314,0.02519
2040.69432,0.02516
2038.76550,0.02517
2036.83668,0.02511
2034.90785,0.02509
2032.97903,0.02534
2031.05021,0.02560
2029.12139,0.02551
2027.19256,0.02528
2025.26374,0.02521
2023.33492,0.02525
2021.40610,0.02539
2019.47727,0.02555
2017.54845,0.02552
2015.61963,0.02544
2013.69080,0.02551
2011.76198,0.02560
2009.83316,0.02562
2007.90434,0.02562
2005.97551,0.02558
2004.04669,0.02544
2002.11787,0.02532
2000.18905,0.02534
1998.26022,0.02549
1996.33140,0.02563
1994.40258,0.02559
1992.47376,0.02541
1990.54493,0.02537
1988.61611,0.02553
1986.68729,0.02555
1984.75847,0.02542
1982.82964,0.02535
1980.90082,0.02534
1978.97200,0.02538
1977.04318,0.02540
1975.11435,0.02530
1973.18553,0.02524
1971.25671,0.02528
1969.32788,0.02526
1967.39906,0.02515
1965.47024,0.02513
1963.54142,0.02533
1961.61259,0.02552
1959.68377,0.02554
1957.75495,0.02549
1955.82613,0.02541
1953.89730,0.02538
1951.96848,0.02542
1950.03966,0.02542
1948.11084,0.02545
1946.18201,0.02560
1944.25319,0.02560
1942.32437,0.02523
1940.39555,0.02487
1938.46672,0.02486
1936.53790,0.02498
1934.60908,0.02501
1932.68026,0.02500
1930.75143,0.02493
1928.82261,0.02480
1926.89379,0.02474
1924.96496,0.02486
1923.03614,0.02507
1921.10732,0.02523
1919.17850,0.02532
1917.24967,0.02534
1915.32085,0.02529
1913.39203,0.02517
1911.46321,0.02508
1909.53438,0.02509
1907.60556,0.02518
1905.67674,0.02519
1903.74792,0.02508
1901.81909,0.02497
1899.89027,0.02502
1897.96145,0.02509
1896.03263,0.02506
1894.10380,0.02506
1892.17498,0.02511
1890.24616,0.02507
1888.31734,0.02495
1886.38851,0.02484
1884.45969,0.02471
1882.53087,0.02469
1880.60204,0.02483
1878.67322,0.02484
1876.74440,0.02464
1874.81558,0.02459
1872.88675,0.02475
1870.95793,0.02488
1869.02911,0.02480
1867.10029,0.02468
1865.17146,0.02466
1863.24264,0.02468
1861.31382,0.02480
1859.38500,0.02493
1857.45617,0.02486
1855.52735,0.02475
1853.59853,0.02480
1851.66971,0.02488
1849.74088,0.02483
1847.81206,0.02469
1845.88324,0.02459
1843.95442,0.02453
1842.02559,0.02448
1840.09677,0.02439
1838.16795,0.02431
1836.23912,0.02434
1834.31030,0.02446
1832.38148,0.02450
1830.45266,0.02433
1828.52383,0.02418
1826.59501,0.02422
1824.66619,0.02422
1822.73737,0.02412
1820.80854,0.02398
1818.87972,0.02395
1816.95090,0.02415
1815.02208,0.02438
1813.09325,0.02435
1811.16443,0.02412
1809.23561,0.02383
1807.30679,0.02362
1805.37796,0.02360
1803.44914,0.02372
1801.52032,0.02375
1799.59150,0.02365
1797.66267,0.02369
1795.73385,0.02382
1793.80503,0.02385
1791.87620,0.02371
1789.94738,0.02357
1788.01856,0.02358
1786.08974,0.02363
1784.16091,0.02351
1782.23209,0.02323
1780.30327,0.02302
1778.37445,0.02308
1776.44562,0.02326
1774.51680,0.02328
1772.58798,0.02287
1770.65916,0.02246
1768.73033,0.02243
1766.80151,0.02246
1764.87269,0.02256
1762.94387,0.02268
1761.01504,0.02243
1759.08622,0.02188
1757.15740,0.02138
1755.22857,0.02129
1753.29975,0.02158
1751.37093,0.02179
1749.44211,0.02162
1747.51328,0.02147
1745.58446,0.02163
1743.65564,0.02206
1741.72682,0.02251
1739.79799,0.02268
1737.86917,0.02274
1735.94035,0.02291
1734.01153,0.02312
1732.08270,0.02331
1730.15388,0.02365
1728.22506,0.02401
1726.29624,0.02409
1724.36741,0.02391
1722.43859,0.02380
1720.50977,0.02400
1718.58095,0.02426
1716.65212,0.02413
1714.72330,0.02396
1712.79448,0.02407
1710.86565,0.02413
1708.93683,0.02406
1707.00801,0.02403
1705.07919,0.02405
1703.15036,0.02378
1701.22154,0.02313
1699.29272,0.02250
1697.36390,0.02212
1695.43507,0.02176
1693.50625,0.02185
1691.57743,0.02233
1689.64861,0.02289
1687.71978,0.02334
1685.79096,0.02341
1683.86214,0.02271
1681.93332,0.02209
1680.00449,0.02202
1678.07567,0.02224
1676.14685,0.02247
1674.21803,0.02234
1672.28920,0.02209
1670.36038,0.02195
1668.43156,0.02175
1666.50273,0.02174
1664.57391,0.02190
1662.64509,0.02187
1660.71627,0.02157
1658.78744,0.02159
1656.85862,0.02209
1654.92980,0.02263
1653.00098,0.02245
1651.07215,0.02234
1649.14333,0.02257
1647.21451,0.02222
1645.28569,0.02152
1643.35686,0.02147
1641.42804,0.02163
1639.49922,0.02170
1637.57040,0.02176
1635.64157,0.02174
1633.71275,0.02175
1631.78393,0.02202
1629.85511,0.02244
1627.92628,0.02280
1625.99746,0.02290
1624.06864,0.02263
1622.13981,0.02222
1620.21099,0.02221
1618.28217,0.02237
1616.35335,0.02215
1614.42452,0.02193
1612.49570,0.02206
1610.56688,0.02223
1608.63806,0.02227
1606.70923,0.02219
1604.78041,0.02207
1602.85159,0.02197
1600.92277,0.02194
1598.99394,0.02201
1597.06512,0.02224
1595.13630,0.02242
1593.20748,0.02222
1591.27865,0.02182
1589.34983,0.02158
1587.42101,0.02158
1585.49219,0.02167
1583.56336,0.02160
1581.63454,0.02146
1579.70572,0.02158
1577.77689,0.02178
1575.84807,0.02159
1573.91925,0.02142
1571.99043,0.02166
1570.06160,0.02191
1568.13278,0.02173
1566.20396,0.02142
1564.27514,0.02141
1562.34631,0.02179
1560.41749,0.02205
1558.48867,0.02127
1556.55985,0.02111
1554.63102,0.02158
1552.70220,0.02165
1550.77338,0.02132
1548.84456,0.02119
1546.91573,0.02168
1544.98691,0.02240
1543.05809,0.02267
1541.12927,0.02232
1539.20044,0.02179
1537.27162,0.02161
1535.34280,0.02165
1533.41397,0.02175
1531.48515,0.02182
1529.55633,0.02184
1527.62751,0.02184
1525.69868,0.02197
1523.76986,0.02216
1521.84104,0.02200
1519.91222,0.02168
1517.98339,0.02183
1516.05457,0.02199
1514.12575,0.02180
1512.19693,0.02172
1510.26810,0.02205
1508.33928,0.02237
1506.41046,0.02182
1504.48164,0.02146
1502.55281,0.02165
1500.62399,0.02202
1498.69517,0.02233
1496.76635,0.02226
1494.83752,0.02215
1492.90870,0.02228
1490.97988,0.02228
1489.05105,0.02192
1487.12223,0.02162
1485.19341,0.02154
1483.26459,0.02157
1481.33576,0.02157
1479.40694,0.02145
1477.47812,0.02144
1475.54930,0.02178
1473.62047,0.02195
1471.69165,0.02149
1469.76283,0.02124
1467.83401,0.02137
1465.90518,0.02142
1463.97636,0.02128
1462.04754,0.02133
1460.11872,0.02155
1458.18989,0.02136
1456.26107,0.02071
1454.33225,0.02080
1452.40343,0.02121
1450.47460,0.02151
1448.54578,0.02162
1446.61696,0.02151
1444.68813,0.02138
1442.75931,0.02142
1440.83049,0.02153
1438.90167,0.02154
1436.97284,0.02146
1435.04402,0.02156
1433.11520,0.02177
1431.18638,0.02174
1429.25755,0.02141
1427.32873,0.02113
1425.39991,0.02107
1423.47109,0.02112
1421.54226,0.02128
1419.61344,0.02138
1417.68462,0.02123
1415.75580,0.02105
1413.82697,0.02108
1411.89815,0.02119
1409.96933,0.02115
1408.04051,0.02103
1406.11168,0.02103
1404.18286,0.02099
1402.25404,0.02084
1400.32521,0.02085
1398.39639,0.02102
1396.46757,0.02096
1394.53875,0.02066
1392.60992,0.02052
1390.68110,0.02051
1388.75228,0.02048
1386.82346,0.02055
1384.89463,0.02070
1382.96581,0.02069
1381.03699,0.02052
1379.10817,0.02035
1377.17934,0.02027
1375.25052,0.02024
1373.32170,0.02025
1371.39288,0.02035
1369.46405,0.02056
1367.53523,0.02081
1365.60641,0.02091
1363.67759,0.02075
1361.74876,0.02055
1359.81994,0.02059
1357.89112,0.02071
1355.96229,0.02066
1354.03347,0.02051
1352.10465,0.02042
1350.17583,0.02042
1348.24700,0.02044
1346.31818,0.02041
1344.38936,0.02038
1342.46054,0.02039
1340.53171,0.02030
1338.60289,0.02004
1336.67407,0.01992
1334.74525,0.02001
1332.81642,0.02001
1330.88760,0.01983
1328.95878,0.01965
1327.02996,0.01964
1325.10113,0.01971
1323.17231,0.01970
1321.24349,0.01963
1319.31467,0.01955
1317.38584,0.01949
1315.45702,0.01946
1313.52820,0.01945
1311.59937,0.01943
1309.67055,0.01941
1307.74173,0.01945
1305.81291,0.01955
1303.88408,0.01960
1301.95526,0.01969
1300.02644,0.01989
1298.09762,0.02008
1296.16879,0.02018
1294.23997,0.02023
1292.31115,0.02030
1290.38233,0.02046
1288.45350,0.02063
1286.52468,0.02072
1284.59586,0.02070
1282.66704,0.02080
1280.73821,0.02113
1278.80939,0.02141
1276.88057,0.02143
1274.95175,0.02133
1273.02292,0.02127
1271.09410,0.02133
1269.16528,0.02151
1267.23645,0.02169
1265.30763,0.02187
1263.37881,0.02206
1261.44999,0.02219
1259.52116,0.02224
1257.59234,0.02222
1255.66352,0.02214
1253.73470,0.02215
1251.80587,0.02226
1249.87705,0.02226
1247.94823,0.02225
1246.01941,0.02238
1244.09058,0.02251
1242.16176,0.02248
1240.23294,0.02233
1238.30412,0.02207
1236.37529,0.02171
1234.44647,0.02142
1232.51765,0.02137
1230.58883,0.02150
1228.66000,0.02159
1226.73118,0.02155
1224.80236,0.02167
1222.87353,0.02199
1220.94471,0.02205
1219.01589,0.02173
1217.08707,0.02145
1215.15824,0.02143
1213.22942,0.02147
1211.30060,0.02141
1209.37178,0.02144
1207.44295,0.02149
1205.51413,0.02128
1203.58531,0.02098
1201.65649,0.02095
1199.72766,0.02105
1197.79884,0.02095
1195.87002,0.02082
1193.94120,0.02083
1192.01237,0.02086
1190.08355,0.02076
1188.15473,0.02052
1186.22591,0.02032
1184.29708,0.02039
1182.36826,0.02058
1180.43944,0.02045
1178.51061,0.02012
1176.58179,0.02007
1174.65297,0.02038
1172.72415,0.02067
1170.79532,0.02050
1168.86650,0.01991
1166.93768,0.01943
1165.00886,0.01923
1163.08003,0.01911
1161.15121,0.01914
1159.22239,0.01949
1157.29357,0.01991
1155.36474,0.02003
1153.43592,0.01988
1151.50710,0.01984
1149.57828,0.01984
1147.64945,0.01962
1145.72063,0.01952
1143.79181,0.01976
1141.86299,0.02007
1139.93416,0.02030
1138.00534,0.02053
1136.07652,0.02070
1134.14769,0.02073
1132.21887,0.02077
1130.29005,0.02088
1128.36123,0.02092
1126.43240,0.02102
1124.50358,0.02129
1122.57476,0.02144
1120.64594,0.02133
1118.71711,0.02133
1116.78829,0.02156
1114.85947,0.02182
1112.93065,0.02196
1111.00182,0.02205
1109.07300,0.02210
1107.14418,0.02196
1105.21536,0.02190
1103.28653,0.02213
1101.35771,0.02210
1099.42889,0.02165
1097.50007,0.02149
1095.57124,0.02177
1093.64242,0.02192
1091.71360,0.02184
1089.78477,0.02173
1087.85595,0.02169
1085.92713,0.02181
1083.99831,0.02206
1082.06948,0.02230
1080.14066,0.02252
1078.21184,0.02274
1076.28302,0.02288
1074.35419,0.02301
1072.42537,0.02333
1070.49655,0.02371
1068.56773,0.02390
1066.63890,0.02395
1064.71008,0.02384
1062.78126,0.02357
1060.85244,0.02345
1058.92361,0.02348
1056.99479,0.02343
1055.06597,0.02346
1053.13714,0.02366
1051.20832,0.02373
1049.27950,0.02360
1047.35068,0.02340
1045.42185,0.02308
1043.49303,0.02276
1041.56421,0.02272
1039.63539,0.02291
1037.70656,0.02309
1035.77774,0.02309
1033.84892,0.02287
1031.92010,0.02279
1029.99127,0.02292
1028.06245,0.02277
1026.13363,0.02233
1024.20481,0.02191
1022.27598,0.02167
1020.34716,0.02184
1018.41834,0.02237
1016.48952,0.02287
1014.56069,0.02317
1012.63187,0.02328
1010.70305,0.02335
1008.77422,0.02351
1006.84540,0.02358
1004.91658,0.02363
1002.98776,0.02390
1001.05893,0.02411
999.13011,0.02385
997.20129,0.02335
995.27247,0.02323
993.34364,0.02345
991.41482,0.02367
989.48600,0.02374
987.55718,0.02356
985.62835,0.02327
983.69953,0.02319
981.77071,0.02333
979.84189,0.02360
977.91306,0.02392
975.98424,0.02401
974.05542,0.02382
972.12660,0.02364
970.19777,0.02356
968.26895,0.02348
966.34013,0.02339
964.41130,0.02348
962.48248,0.02379
960.55366,0.02391
958.62484,0.02361
956.69601,0.02326
954.76719,0.02315
952.83837,0.02303
950.90955,0.02276
948.98072,0.02256
947.05190,0.02258
945.12308,0.02258
943.19426,0.02245
941.26543,0.02243
939.33661,0.02244
937.40779,0.02235
935.47897,0.02233
933.55014,0.02246
931.62132,0.02268
929.69250,0.02289
927.76368,0.02303
925.83485,0.02291
923.90603,0.02254
921.97721,0.02246
920.04838,0.02267
918.11956,0.02284
916.19074,0.02296
914.26192,0.02292
912.33309,0.02263
910.40427,0.02234
908.47545,0.02205
906.54663,0.02175
904.61780,0.02162
902.68898,0.02182
900.76016,0.02222
898.83134,0.02249
896.90251,0.02251
894.97369,0.02234
893.04487,0.02213
891.11605,0.02207
889.18722,0.02206
887.25840,0.02200
885.32958,0.02200
883.40076,0.02191
881.47193,0.02160
879.54311,0.02142
877.61429,0.02150
875.68546,0.02154
873.75664,0.02146
871.82782,0.02137
869.89900,0.02131
867.97017,0.02130
866.04135,0.02141
864.11253,0.02165
862.18371,0.02180
860.25488,0.02173
858.32606,0.02155
856.39724,0.02138
854.46842,0.02119
852.53959,0.02114
850.61077,0.02140
848.68195,0.02182
846.75313,0.02207
844.82430,0.02217
842.89548,0.02214
840.96666,0.02189
839.03784,0.02166
837.10901,0.02174
835.18019,0.02197
833.25137,0.02212
831.32254,0.02164
829.39372,0.02064
827.46490,0.02028
825.53608,0.02090
823.60725,0.02150
821.67843,0.02159
819.74961,0.02137
817.82079,0.02103
815.89196,0.02091
813.96314,0.02111
812.03432,0.02119
810.10550,0.02092
808.17667,0.02067
806.24785,0.02066
804.31903,0.02088
802.39021,0.02119
800.46138,0.02107
798.53256,0.02068
796.60374,0.02057
794.67492,0.02072
792.74609,0.02098
790.81727,0.02108
788.88845,0.02081
786.95962,0.02049
785.03080,0.02031
783.10198,0.02041
781.17316,0.02062
779.24433,0.02046
777.31551,0.02018
775.38669,0.02030
773.45787,0.02046
771.52904,0.02027
769.60022,0.02008
767.67140,0.02023
765.74258,0.02041
763.81375,0.02035
761.88493,0.02008
759.95611,0.01954
758.02729,0.01900
756.09846,0.01899
754.16964,0.01946
752.24082,0.01989
750.31200,0.02004
748.38317,0.02026
746.45435,0.02063
744.52553,0.02071
742.59670,0.02051
740.66788,0.02050
738.73906,0.02085
736.81024,0.02120
734.88141,0.02110
732.95259,0.02069
731.02377,0.02034
729.09495,0.02006
727.16612,0.01972
725.23730,0.01945
723.30848,0.01924
721.37966,0.01897
719.45083,0.01882
717.52201,0.01916
715.59319,0.01968
713.66437,0.01974
711.73554,0.01956
709.80672,0.01973
707.87790,0.02007
705.94908,0.02004
704.02025,0.01946
702.09143,0.01863
700.16261,0.01787
698.23378,0.01762
696.30496,0.01817
694.37614,0.01929
692.44732,0.02017
690.51849,0.02029
688.58967,0.01988
686.66085,0.01920
684.73203,0.01867
682.80320,0.01876
680.87438,0.01910
678.94556,0.01918
677.01674,0.01915
675.08791,0.01908
673.15909,0.01869
671.23027,0.01828
669.30145,0.01823
667.37262,0.01856
665.44380,0.01900
663.51498,0.01937
661.58616,0.01972
659.65733,0.01992
657.72851,0.01951
655.79969,0.01840
653.87086,0.01733
651.94204,0.01723
650.01322,0.01801
648.08440,0.01848
646.15557,0.01820
644.22675,0.01821
642.29793,0.01864
640.36911,0.01869
638.44028,0.01866
636.51146,0.01898
634.58264,0.01890
632.65382,0.01783
630.72499,0.01659
628.79617,0.01620
626.86735,0.01688
624.93853,0.01795
623.00970,0.01845
621.08088,0.01844
619.15206,0.01832
617.22324,0.01841
615.29441,0.01895
613.36559,0.01947
611.43677,0.01964
609.50794,0.01967
607.57912,0.01927
605.65030,0.01870
603.72148,0.01918
601.79265,0.02062
599.86383,0.02151
