7496.92628,0.08333
7494.99756,0.07673
7493.06885,0.07764
7491.14013,0.08386
7489.21141,0.09009
7487.28269,0.09600
7485.35397,0.09992
7483.42526,0.10065
7481.49654,0.10043
7479.56782,0.09931
7477.63910,0.09575
7475.71039,0.09569
7473.78167,0.10455
7471.85295,0.11286
7469.92423,0.11062
7467.99551,0.10233
7466.06680,0.09512
7464.13808,0.09208
7462.20936,0.09585
7460.28064,0.10396
7458.35192,0.10821
7456.42321,0.10432
7454.49449,0.09670
7452.56577,0.09238
7450.63705,0.09116
7448.70834,0.09259
7446.77962,0.09648
7444.85090,0.09913
7442.92218,0.09771
7440.99346,0.09259
7439.06475,0.09227
7437.13603,0.10171
7435.20731,0.10621
7433.27859,0.09815
7431.34987,0.09093
7429.42116,0.09164
7427.49244,0.09401
7425.56372,0.09401
7423.63500,0.09497
7421.70629,0.09968
7419.77757,0.10040
7417.84885,0.09190
7415.92013,0.08380
7413.99141,0.08406
7412.06270,0.08669
7410.13398,0.08804
7408.20526,0.09008
7406.27654,0.09337
7404.34782,0.09676
7402.41911,0.09697
7400.49039,0.09140
7398.56167,0.08488
7396.63295,0.08335
7394.70424,0.08736
7392.77552,0.09221
7390.84680,0.09368
7388.91808,0.09326
7386.98936,0.09362
7385.06065,0.09225
7383.13193,0.08514
7381.20321,0.07858
7379.27449,0.08091
7377.34577,0.08710
7375.41706,0.09366
7373.48834,0.09869
7371.55962,0.09542
7369.63090,0.08567
7367.70219,0.08088
7365.77347,0.08619
7363.84475,0.09348
7361.91603,0.09532
7359.98731,0.09441
7358.05860,0.09449
7356.12988,0.09538
7354.20116,0.09514
7352.27244,0.09270
7350.34372,0.08880
7348.41501,0.08640
7346.48629,0.08759
7344.55757,0.09206
7342.62885,0.09774
7340.70014,0.10071
7338.77142,0.09890
7336.84270,0.09599
7334.91398,0.09370
7332.98526,0.09152
7331.05655,0.08945
7329.12783,0.08944
7327.19911,0.09425
7325.27039,0.10065
7323.34167,0.10243
7321.41296,0.09844
7319.48424,0.09353
7317.55552,0.09052
7315.62680,0.08744
7313.69809,0.09007
7311.76937,0.10156
7309.84065,0.10794
7307.91193,0.10229
7305.98321,0.09513
7304.05450,0.09181
7302.12578,0.08890
7300.19706,0.08954
7298.26834,0.09804
7296.33963,0.10757
7294.41091,0.10965
7292.48219,0.10298
7290.55347,0.09617
7288.62475,0.09624
7286.69604,0.10257
7284.76732,0.10998
7282.83860,0.11225
7280.90988,0.10776
7278.98116,0.10062
7277.05245,0.09515
7275.12373,0.09421
7273.19501,0.09863
7271.26629,0.10472
7269.33758,0.10684
7267.40886,0.10513
7265.48014,0.10195
7263.55142,0.09832
7261.62270,0.09642
7259.69399,0.09583
7257.76527,0.09425
7255.83655,0.09264
7253.90783,0.09264
7251.97911,0.09650
7250.05040,0.10183
7248.12168,0.09963
7246.19296,0.09216
7244.26424,0.09374
7242.33553,0.10473
7240.40681,0.10911
7238.47809,0.10457
7236.54937,0.09980
7234.62065,0.09688
7232.69194,0.09593
7230.76322,0.10028
7228.83450,0.10309
7226.90578,0.09611
7224.97706,0.08777
7223.04835,0.08924
7221.11963,0.09565
7219.19091,0.09737
7217.26219,0.09537
7215.33348,0.09462
7213.40476,0.09694
7211.47604,0.10002
7209.54732,0.10049
7207.61860,0.09935
7205.68989,0.09916
7203.76117,0.09952
7201.83245,0.09979
7199.90373,0.09918
7197.97501,0.09717
7196.04630,0.09441
7194.11758,0.09317
7192.18886,0.09215
7190.26014,0.08932
7188.33143,0.08774
7186.40271,0.09010
7184.47399,0.09381
7182.54527,0.09527
7180.61655,0.09264
7178.68784,0.08879
7176.75912,0.08825
7174.83040,0.09215
7172.90168,0.09769
7170.97296,0.10128
7169.04425,0.09994
7167.11553,0.09361
7165.18681,0.08839
7163.25809,0.08727
7161.32938,0.08695
7159.40066,0.08891
7157.47194,0.09332
7155.54322,0.09534
7153.61450,0.09684
7151.68579,0.10247
7149.75707,0.10825
7147.82835,0.10742
7145.89963,0.10255
7143.97091,0.10182
7142.04220,0.10309
7140.11348,0.10073
7138.18476,0.09788
7136.25604,0.10036
7134.32733,0.10458
7132.39861,0.10510
7130.46989,0.10185
7128.54117,0.09648
7126.61245,0.09302
7124.68374,0.09564
7122.75502,0.10231
7120.82630,0.10802
7118.89758,0.10772
7116.96887,0.10265
7115.04015,0.09936
7113.11143,0.09678
7111.18271,0.09349
7109.25399,0.09562
7107.32528,0.10216
7105.39656,0.10167
7103.46784,0.09163
7101.53912,0.08307
7099.61040,0.08323
7097.68169,0.08812
7095.75297,0.09146
7093.82425,0.09404
7091.89553,0.09706
7089.96682,0.10078
7088.03810,0.10535
7086.10938,0.10587
7084.18066,0.10064
7082.25194,0.09634
7080.32323,0.09681
7078.39451,0.10154
7076.46579,0.10814
7074.53707,0.11061
7072.60835,0.10466
7070.67964,0.09608
7068.75092,0.09595
7066.82220,0.10031
7064.89348,0.09817
7062.96477,0.09486
7061.03605,0.09623
7059.10733,0.09847
7057.17861,0.09856
7055.24989,0.09498
7053.32118,0.09197
7051.39246,0.09393
7049.46374,0.09520
7047.53502,0.09321
7045.60630,0.09498
7043.67759,0.10015
7041.74887,0.09983
7039.82015,0.09616
7037.89143,0.09512
7035.96272,0.09305
7034.03400,0.08995
7032.10528,0.09189
7030.17656,0.09636
7028.24784,0.09859
7026.31913,0.10018
7024.39041,0.10043
7022.46169,0.09625
7020.53297,0.09179
7018.60425,0.09198
7016.67554,0.09398
7014.74682,0.09512
7012.81810,0.09809
7010.88938,0.10375
7008.96067,0.11029
7007.03195,0.11294
7005.10323,0.10942
7003.17451,0.10560
7001.24579,0.10315
6999.31708,0.09831
6997.38836,0.09307
6995.45964,0.09265
6993.53092,0.09758
6991.60220,0.10177
6989.67349,0.10193
6987.74477,0.10201
6985.81605,0.10232
6983.88733,0.09959
6981.95862,0.09929
6980.02990,0.10509
6978.10118,0.10716
6976.17246,0.10115
6974.24374,0.09531
6972.31503,0.09413
6970.38631,0.09480
6968.45759,0.09484
6966.52887,0.09369
6964.60015,0.09257
6962.67144,0.09289
6960.74272,0.09188
6958.81400,0.08740
6956.88528,0.08308
6954.95657,0.08349
6953.02785,0.08861
6951.09913,0.09376
6949.17041,0.09402
6947.24169,0.09134
6945.31298,0.09112
6943.38426,0.09235
6941.45554,0.09190
6939.52682,0.09176
6937.59811,0.09222
6935.66939,0.09342
6933.74067,0.09739
6931.81195,0.10172
6929.88323,0.10094
6927.95452,0.09491
6926.02580,0.09050
6924.09708,0.09135
6922.16836,0.09393
6920.23964,0.09450
6918.31093,0.09224
6916.38221,0.09026
6914.45349,0.09129
6912.52477,0.09372
6910.59606,0.09536
6908.66734,0.09572
6906.73862,0.09461
6904.80990,0.09273
6902.88118,0.09141
6900.95247,0.09101
6899.02375,0.09121
6897.09503,0.09209
6895.16631,0.09307
6893.23759,0.09396
6891.30888,0.09564
6889.38016,0.09708
6887.45144,0.09560
6885.52272,0.09343
6883.59401,0.09529
6881.66529,0.09918
6879.73657,0.09854
6877.80785,0.09288
6875.87913,0.08849
6873.95042,0.08854
6872.02170,0.08999
6870.09298,0.08886
6868.16426,0.08649
6866.23554,0.08766
6864.30683,0.09069
6862.37811,0.09095
6860.44939,0.08865
6858.52067,0.08699
6856.59196,0.08855
6854.66324,0.09058
6852.73452,0.08988
6850.80580,0.08958
6848.87708,0.09365
6846.94837,0.09993
6845.01965,0.10224
6843.09093,0.09906
6841.16221,0.09426
6839.23349,0.09166
6837.30478,0.09128
6835.37606,0.09151
6833.44734,0.09230
6831.51862,0.09372
6829.58991,0.09580
6827.66119,0.09707
6825.73247,0.09494
6823.80375,0.09048
6821.87503,0.08835
6819.94632,0.09230
6818.01760,0.09962
6816.08888,0.10463
6814.16016,0.10574
6812.23144,0.10303
6810.30273,0.09903
6808.37401,0.09639
6806.44529,0.09230
6804.51657,0.08923
6802.58786,0.09228
6800.65914,0.09585
6798.73042,0.09479
6796.80170,0.09293
6794.87298,0.09504
6792.94427,0.10076
6791.01555,0.10358
6789.08683,0.10164
6787.15811,0.09915
6785.22939,0.09729
6783.30068,0.09783
6781.37196,0.10070
6779.44324,0.10121
6777.51452,0.09954
6775.58581,0.09854
6773.65709,0.09946
6771.72837,0.10186
6769.79965,0.10111
6767.87093,0.09609
6765.94222,0.09213
6764.01350,0.09128
6762.08478,0.09144
6760.15606,0.09240
6758.22735,0.09557
6756.29863,0.09840
6754.36991,0.09740
6752.44119,0.09568
6750.51247,0.09620
6748.58376,0.09633
6746.65504,0.09657
6744.72632,0.09877
6742.79760,0.10037
6740.86888,0.10070
6738.94017,0.10039
6737.01145,0.09875
6735.08273,0.09673
6733.15401,0.09484
6731.22530,0.09448
6729.29658,0.09650
6727.36786,0.09776
6725.43914,0.09759
6723.51042,0.09860
6721.58171,0.09963
6719.65299,0.09978
6717.72427,0.09963
6715.79555,0.09737
6713.86683,0.09451
6711.93812,0.09447
6710.00940,0.09610
6708.08068,0.09769
6706.15196,0.09707
6704.22325,0.09449
6702.29453,0.09475
6700.36581,0.09947
6698.43709,0.10399
6696.50837,0.10451
6694.57966,0.10211
6692.65094,0.09877
6690.72222,0.09547
6688.79350,0.09410
6686.86478,0.09473
6684.93607,0.09522
6683.00735,0.09441
6681.07863,0.09230
6679.14991,0.09028
6677.22120,0.09086
6675.29248,0.09262
6673.36376,0.09250
6671.43504,0.09298
6669.50632,0.09589
6667.57761,0.09724
6665.64889,0.09665
6663.72017,0.09795
6661.79145,0.09933
6659.86273,0.09821
6657.93402,0.09680
6656.00530,0.09592
6654.07658,0.09765
6652.14786,0.10268
6650.21915,0.10519
6648.29043,0.10271
6646.36171,0.09927
6644.43299,0.09757
6642.50427,0.09715
6640.57556,0.09809
6638.64684,0.10004
6636.71812,0.09995
6634.78940,0.09806
6632.86068,0.09694
6630.93197,0.09630
6629.00325,0.09616
6627.07453,0.09694
6625.14581,0.09740
6623.21710,0.09711
6621.28838,0.09728
6619.35966,0.09772
6617.43094,0.09645
6615.50222,0.09441
6613.57351,0.09381
6611.64479,0.09427
6609.71607,0.09549
6607.78735,0.09826
6605.85863,0.10222
6603.92992,0.10446
6602.00120,0.10166
6600.07248,0.09664
6598.14376,0.09597
6596.21505,0.09964
6594.28633,0.10213
6592.35761,0.10162
6590.42889,0.09959
6588.50017,0.09706
6586.57146,0.09506
6584.64274,0.09444
6582.71402,0.09527
6580.78530,0.09674
6578.85659,0.09791
6576.92787,0.09819
6574.99915,0.09724
6573.07043,0.09587
6571.14171,0.09452
6569.21300,0.09339
6567.28428,0.09482
6565.35556,0.09816
6563.42684,0.09958
6561.49812,0.09994
6559.56941,0.10005
6557.64069,0.09689
6555.71197,0.09196
6553.78325,0.09016
6551.85454,0.09254
6549.92582,0.09673
6547.99710,0.09879
6546.06838,0.09641
6544.13966,0.09292
6542.21095,0.09294
6540.28223,0.09475
6538.35351,0.09477
6536.42479,0.09476
6534.49607,0.09656
6532.56736,0.09744
6530.63864,0.09692
6528.70992,0.09795
6526.78120,0.10027
6524.85249,0.10236
6522.92377,0.10287
6520.99505,0.10040
6519.06633,0.09639
6517.13761,0.09237
6515.20890,0.08962
6513.28018,0.09028
6511.35146,0.09368
6509.42274,0.09768
6507.49402,0.10072
6505.56531,0.10075
6503.63659,0.10012
6501.70787,0.10220
6499.77915,0.10231
6497.85044,0.09776
6495.92172,0.09454
6493.99300,0.09453
6492.06428,0.09418
6490.13556,0.09290
6488.20685,0.09272
6486.27813,0.09419
6484.34941,0.09617
6482.42069,0.09800
6480.49197,0.10042
6478.56326,0.10245
6476.63454,0.10124
6474.70582,0.09812
6472.77710,0.09620
6470.84839,0.09461
6468.91967,0.09336
6466.99095,0.09481
6465.06223,0.09748
6463.13351,0.09790
6461.20480,0.09667
6459.27608,0.09528
6457.34736,0.09481
6455.41864,0.09727
6453.48992,0.09989
6451.56121,0.09879
6449.63249,0.09657
6447.70377,0.09504
6445.77505,0.09251
6443.84634,0.09045
6441.91762,0.09208
6439.98890,0.09504
6438.06018,0.09560
6436.13146,0.09563
6434.20275,0.09714
6432.27403,0.09817
6430.34531,0.09850
6428.41659,0.09974
6426.48787,0.10013
6424.55916,0.09802
6422.63044,0.09636
6420.70172,0.09580
6418.77300,0.09489
6416.84429,0.09560
6414.91557,0.09756
6412.98685,0.09748
6411.05813,0.09605
6409.12941,0.09686
6407.20070,0.10025
6405.27198,0.10190
6403.34326,0.10013
6401.41454,0.09914
6399.48583,0.10001
6397.55711,0.09974
6395.62839,0.09943
6393.69967,0.10120
6391.77095,0.10258
6389.84224,0.10170
6387.91352,0.10175
6385.98480,0.10328
6384.05608,0.10321
6382.12736,0.10204
6380.19865,0.10083
6378.26993,0.09887
6376.34121,0.09767
6374.41249,0.09767
6372.48378,0.09631
6370.55506,0.09402
6368.62634,0.09410
6366.69762,0.09525
6364.76890,0.09495
6362.84019,0.09458
6360.91147,0.09421
6358.98275,0.09238
6357.05403,0.08982
6355.12531,0.08804
6353.19660,0.08815
6351.26788,0.09088
6349.33916,0.09578
6347.41044,0.09918
6345.48173,0.09895
6343.55301,0.09911
6341.62429,0.10177
6339.69557,0.10265
6337.76685,0.10017
6335.83814,0.09778
6333.90942,0.09675
6331.98070,0.09535
6330.05198,0.09388
6328.12326,0.09440
6326.19455,0.09586
6324.26583,0.09659
6322.33711,0.09840
6320.40839,0.10148
6318.47968,0.10346
6316.55096,0.10424
6314.62224,0.10447
6312.69352,0.10333
6310.76480,0.10222
6308.83609,0.10336
6306.90737,0.10425
6304.97865,0.10253
6303.04993,0.10106
6301.12121,0.10108
6299.19250,0.10008
6297.26378,0.09822
6295.33506,0.09820
6293.40634,0.09856
6291.47763,0.09638
6289.54891,0.09472
6287.62019,0.09649
6285.69147,0.09825
6283.76275,0.09827
6281.83404,0.09833
6279.90532,0.09789
6277.97660,0.09554
6276.04788,0.09375
6274.11916,0.09473
6272.19045,0.09536
6270.26173,0.09483
6268.33301,0.09698
6266.40429,0.10082
6264.47558,0.10214
6262.54686,0.10082
6260.61814,0.10038
6258.68942,0.10123
6256.76070,0.10003
6254.83199,0.09636
6252.90327,0.09317
6250.97455,0.09296
6249.04583,0.09496
6247.11711,0.09594
6245.18840,0.09551
6243.25968,0.09601
6241.33096,0.09845
6239.40224,0.10136
6237.47353,0.10202
6235.54481,0.09957
6233.61609,0.09676
6231.68737,0.09543
6229.75865,0.09445
6227.82994,0.09371
6225.90122,0.09348
6223.97250,0.09329
6222.04378,0.09377
6220.11506,0.09478
6218.18635,0.09569
6216.25763,0.09694
6214.32891,0.09764
6212.40019,0.09758
6210.47148,0.09963
6208.54276,0.10331
6206.61404,0.10401
6204.68532,0.10199
6202.75660,0.10077
6200.82789,0.10006
6198.89917,0.09839
6196.97045,0.09574
6195.04173,0.09364
6193.11302,0.09449
6191.18430,0.09672
6189.25558,0.09659
6187.32686,0.09550
6185.39814,0.09613
6183.46943,0.09656
6181.54071,0.09546
6179.61199,0.09466
6177.68327,0.09470
6175.75455,0.09547
6173.82584,0.09741
6171.89712,0.09912
6169.96840,0.09921
6168.03968,0.09863
6166.11097,0.09848
6164.18225,0.09932
6162.25353,0.10019
6160.32481,0.09968
6158.39609,0.09872
6156.46738,0.09837
6154.53866,0.09744
6152.60994,0.09521
6150.68122,0.09393
6148.75250,0.09511
6146.82379,0.09690
6144.89507,0.09841
6142.96635,0.09977
6141.03763,0.10020
6139.10892,0.09920
6137.18020,0.09740
6135.25148,0.09616
6133.32276,0.09594
6131.39404,0.09603
6129.46533,0.09596
6127.53661,0.09634
6125.60789,0.09740
6123.67917,0.09806
6121.75045,0.09752
6119.82174,0.09585
6117.89302,0.09450
6115.96430,0.09492
6114.03558,0.09563
6112.10687,0.09529
6110.17815,0.09538
6108.24943,0.09662
6106.32071,0.09755
6104.39199,0.09818
6102.46328,0.09913
6100.53456,0.09965
6098.60584,0.10040
6096.67712,0.10105
6094.74840,0.10000
6092.81969,0.09865
6090.89097,0.09882
6088.96225,0.10017
6087.03353,0.10119
6085.10482,0.10054
6083.17610,0.09928
6081.24738,0.09845
6079.31866,0.09734
6077.38994,0.09659
6075.46123,0.09681
6073.53251,0.09609
6071.60379,0.09466
6069.67507,0.09489
6067.74635,0.09660
6065.81764,0.09842
6063.88892,0.10029
6061.96020,0.10191
6060.03148,0.10204
6058.10277,0.10038
6056.17405,0.09835
6054.24533,0.09698
6052.31661,0.09606
6050.38789,0.09552
6048.45918,0.09548
6046.53046,0.09549
6044.60174,0.09533
6042.67302,0.09511
6040.74430,0.09523
6038.81559,0.09648
6036.88687,0.09780
6034.95815,0.09682
6033.02943,0.09485
6031.10072,0.09540
6029.17200,0.09803
6027.24328,0.09962
6025.31456,0.09977
6023.38584,0.09937
6021.45713,0.09742
6019.52841,0.09496
6017.59969,0.09460
6015.67097,0.09522
6013.74226,0.09558
6011.81354,0.09637
6009.88482,0.09703
6007.95610,0.09799
6006.02738,0.10025
6004.09867,0.10216
6002.16995,0.10201
6000.24123,0.10060
5998.31251,0.09924
5996.38379,0.09751
5994.45508,0.09588
5992.52636,0.09572
5990.59764,0.09615
5988.66892,0.09649
5986.74021,0.09651
5984.81149,0.09535
5982.88277,0.09378
5980.95405,0.09285
5979.02533,0.09325
5977.09662,0.09548
5975.16790,0.09756
5973.23918,0.09765
5971.31046,0.09749
5969.38174,0.09881
5967.45303,0.10005
5965.52431,0.10005
5963.59559,0.10049
5961.66687,0.10177
5959.73816,0.10118
5957.80944,0.09839
5955.88072,0.09667
5953.95200,0.09669
5952.02328,0.09678
5950.09457,0.09701
5948.16585,0.09777
5946.23713,0.09827
5944.30841,0.09750
5942.37969,0.09613
5940.45098,0.09579
5938.52226,0.09591
5936.59354,0.09562
5934.66482,0.09570
5932.73611,0.09653
5930.80739,0.09662
5928.87867,0.09549
5926.94995,0.09568
5925.02123,0.09764
5923.09252,0.09830
5921.16380,0.09746
5919.23508,0.09793
5917.30636,0.09947
5915.37764,0.09956
5913.44893,0.09835
5911.52021,0.09722
5909.59149,0.09653
5907.66277,0.09672
5905.73406,0.09739
5903.80534,0.09805
5901.87662,0.09900
5899.94790,0.09952
5898.01918,0.09832
5896.09047,0.09589
5894.16175,0.09405
5892.23303,0.09331
5890.30431,0.09260
5888.37559,0.09152
5886.44688,0.09177
5884.51816,0.09418
5882.58944,0.09654
5880.66072,0.09686
5878.73201,0.09545
5876.80329,0.09423
5874.87457,0.09482
5872.94585,0.09666
5871.01713,0.09725
5869.08842,0.09496
5867.15970,0.09229
5865.23098,0.09206
5863.30226,0.09313
5861.37354,0.09420
5859.44483,0.09504
5857.51611,0.09453
5855.58739,0.09301
5853.65867,0.09310
5851.72996,0.09514
5849.80124,0.09623
5847.87252,0.09506
5845.94380,0.09328
5844.01508,0.09224
5842.08637,0.09190
5840.15765,0.09215
5838.22893,0.09255
5836.30021,0.09262
5834.37150,0.09207
5832.44278,0.09095
5830.51406,0.09053
5828.58534,0.09121
5826.65662,0.09193
5824.72791,0.09256
5822.79919,0.09305
5820.87047,0.09242
5818.94175,0.09078
5817.01303,0.08982
5815.08432,0.09058
5813.15560,0.09209
5811.22688,0.09289
5809.29816,0.09308
5807.36945,0.09342
5805.44073,0.09375
5803.51201,0.09325
5801.58329,0.09175
5799.65457,0.09035
5797.72586,0.08939
5795.79714,0.08842
5793.86842,0.08824
5791.93970,0.08893
5790.01098,0.08918
5788.08227,0.08872
5786.15355,0.08805
5784.22483,0.08702
5782.29611,0.08589
5780.36740,0.08545
5778.43868,0.08515
5776.50996,0.08424
5774.58124,0.08353
5772.65252,0.08367
5770.72381,0.08464
5768.79509,0.08639
5766.86637,0.08768
5764.93765,0.08756
5763.00893,0.08745
5761.08022,0.08829
5759.15150,0.08952
5757.22278,0.09102
5755.29406,0.09262
5753.36535,0.09337
5751.43663,0.09299
5749.50791,0.09228
5747.57919,0.09172
5745.65047,0.09161
5743.72176,0.09268
5741.79304,0.09423
5739.86432,0.09476
5737.93560,0.09375
5736.00688,0.09199
5734.07817,0.09151
5732.14945,0.09268
5730.22073,0.09352
5728.29201,0.09390
5726.36330,0.09437
5724.43458,0.09411
5722.50586,0.09389
5720.57714,0.09488
5718.64842,0.09564
5716.71971,0.09461
5714.79099,0.09314
5712.86227,0.09327
5710.93355,0.09472
5709.00483,0.09592
5707.07612,0.09538
5705.14740,0.09328
5703.21868,0.09165
5701.28996,0.09126
5699.36125,0.09160
5697.43253,0.09224
5695.50381,0.09266
5693.57509,0.09261
5691.64637,0.09238
5689.71766,0.09280
5687.78894,0.09366
5685.86022,0.09417
5683.93150,0.09489
5682.00278,0.09541
5680.07407,0.09367
5678.14535,0.09045
5676.21663,0.08878
5674.28791,0.08953
5672.35920,0.09125
5670.43048,0.09201
5668.50176,0.09141
5666.57304,0.09132
5664.64432,0.09237
5662.71561,0.09263
5660.78689,0.09210
5658.85817,0.09247
5656.92945,0.09310
5655.00074,0.09333
5653.07202,0.09404
5651.14330,0.09501
5649.21458,0.09503
5647.28586,0.09370
5645.35715,0.09252
5643.42843,0.09321
5641.49971,0.09469
5639.57099,0.09494
5637.64227,0.09429
5635.71356,0.09369
5633.78484,0.09290
5631.85612,0.09203
5629.92740,0.09234
5627.99869,0.09450
5626.06997,0.09649
5624.14125,0.09668
5622.21253,0.09588
5620.28381,0.09508
5618.35510,0.09552
5616.42638,0.09704
5614.49766,0.09767
5612.56894,0.09728
5610.64022,0.09703
5608.71151,0.09716
5606.78279,0.09686
5604.85407,0.09577
5602.92535,0.09496
5600.99664,0.09542
5599.06792,0.09641
5597.13920,0.09660
5595.21048,0.09583
5593.28176,0.09480
5591.35305,0.09426
5589.42433,0.09408
5587.49561,0.09409
5585.56689,0.09485
5583.63817,0.09535
5581.70946,0.09478
5579.78074,0.09489
5577.85202,0.09649
5575.92330,0.09733
5573.99459,0.09609
5572.06587,0.09434
5570.13715,0.09297
5568.20843,0.09190
5566.27971,0.09235
5564.35100,0.09439
5562.42228,0.09573
5560.49356,0.09549
5558.56484,0.09539
5556.63612,0.09605
5554.70741,0.09596
5552.77869,0.09507
5550.84997,0.09508
5548.92125,0.09638
5546.99254,0.09771
5545.06382,0.09824
5543.13510,0.09796
5541.20638,0.09689
5539.27766,0.09565
5537.34895,0.09519
5535.42023,0.09562
5533.49151,0.09625
5531.56279,0.09650
5529.63407,0.09687
5527.70536,0.09774
5525.77664,0.09831
5523.84792,0.09807
5521.91920,0.09731
5519.99049,0.09665
5518.06177,0.09638
5516.13305,0.09588
5514.20433,0.09480
5512.27561,0.09417
5510.34690,0.09493
5508.41818,0.09615
5506.48946,0.09624
5504.56074,0.09591
5502.63202,0.09659
5500.70331,0.09738
5498.77459,0.09639
5496.84587,0.09417
5494.91715,0.09277
5492.98844,0.09303
5491.05972,0.09459
5489.13100,0.09607
5487.20228,0.09608
5485.27356,0.09532
5483.34485,0.09522
5481.41613,0.09565
5479.48741,0.09566
5477.55869,0.09513
5475.62998,0.09526
5473.70126,0.09656
5471.77254,0.09742
5469.84382,0.09774
5467.91510,0.09859
5465.98639,0.09916
5464.05767,0.09827
5462.12895,0.09691
5460.20023,0.09676
5458.27151,0.09689
5456.34280,0.09633
5454.41408,0.09620
5452.48536,0.09650
5450.55664,0.09644
5448.62793,0.09635
5446.69921,0.09658
5444.77049,0.09661
5442.84177,0.09611
5440.91305,0.09598
5438.98434,0.09640
5437.05562,0.09595
5435.12690,0.09458
5433.19818,0.09422
5431.26946,0.09540
5429.34075,0.09657
5427.41203,0.09688
5425.48331,0.09681
5423.55459,0.09677
5421.62588,0.09664
5419.69716,0.09678
5417.76844,0.09740
5415.83972,0.09741
5413.91100,0.09606
5411.98229,0.09485
5410.05357,0.09510
5408.12485,0.09608
5406.19613,0.09686
5404.26741,0.09777
5402.33870,0.09889
5400.40998,0.09897
5398.48126,0.09790
5396.55254,0.09749
5394.62383,0.09811
5392.69511,0.09800
5390.76639,0.09717
5388.83767,0.09729
5386.90895,0.09807
5384.98024,0.09831
5383.05152,0.09800
5381.12280,0.09724
5379.19408,0.09620
5377.26536,0.09566
5375.33665,0.09586
5373.40793,0.09659
5371.47921,0.09754
5369.55049,0.09812
5367.62178,0.09825
5365.69306,0.09839
5363.76434,0.09898
5361.83562,0.09942
5359.90690,0.09877
5357.97819,0.09803
5356.04947,0.09809
5354.12075,0.09782
5352.19203,0.09726
5350.26331,0.09762
5348.33460,0.09833
5346.40588,0.09867
5344.47716,0.09856
5342.54844,0.09772
5340.61973,0.09669
5338.69101,0.09687
5336.76229,0.09791
5334.83357,0.09794
5332.90485,0.09737
5330.97614,0.09747
5329.04742,0.09834
5327.11870,0.09921
5325.18998,0.09929
5323.26126,0.09848
5321.33255,0.09734
5319.40383,0.09656
5317.47511,0.09653
5315.54639,0.09722
5313.61768,0.09830
5311.68896,0.09907
5309.76024,0.09911
5307.83152,0.09865
5305.90280,0.09821
5303.97409,0.09784
5302.04537,0.09752
5300.11665,0.09780
5298.18793,0.09870
5296.25922,0.09961
5294.33050,0.10042
5292.40178,0.10081
5290.47306,0.10015
5288.54434,0.09910
5286.61563,0.09865
5284.68691,0.09871
5282.75819,0.09870
5280.82947,0.09831
5278.90075,0.09799
5276.97204,0.09825
5275.04332,0.09878
5273.11460,0.09885
5271.18588,0.09808
5269.25717,0.09725
5267.32845,0.09711
5265.39973,0.09699
5263.47101,0.09638
5261.54229,0.09628
5259.61358,0.09716
5257.68486,0.09791
5255.75614,0.09813
5253.82742,0.09858
5251.89870,0.09896
5249.96999,0.09865
5248.04127,0.09832
5246.11255,0.09828
5244.18383,0.09782
5242.25512,0.09718
5240.32640,0.09721
5238.39768,0.09768
5236.46896,0.09820
5234.54024,0.09883
5232.61153,0.09929
5230.68281,0.09913
5228.75409,0.09797
5226.82537,0.09654
5224.89665,0.09625
5222.96794,0.09705
5221.03922,0.09811
5219.11050,0.09870
5217.18178,0.09819
5215.25307,0.09703
5213.32435,0.09641
5211.39563,0.09678
5209.46691,0.09762
5207.53819,0.09834
5205.60948,0.09846
5203.68076,0.09822
5201.75204,0.09841
5199.82332,0.09870
5197.89460,0.09848
5195.96589,0.09823
5194.03717,0.09836
5192.10845,0.09874
5190.17973,0.09921
5188.25102,0.09955
5186.32230,0.09990
5184.39358,0.10037
5182.46486,0.10042
5180.53614,0.10004
5178.60743,0.09957
5176.67871,0.09870
5174.74999,0.09770
5172.82127,0.09751
5170.89255,0.09792
5168.96384,0.09789
5167.03512,0.09743
5165.10640,0.09740
5163.17768,0.09827
5161.24897,0.09935
5159.32025,0.09950
5157.39153,0.09886
5155.46281,0.09839
5153.53409,0.09803
5151.60538,0.09740
5149.67666,0.09695
5147.74794,0.09711
5145.81922,0.09781
5143.89050,0.09841
5141.96179,0.09841
5140.03307,0.09828
5138.10435,0.09838
5136.17563,0.09840
5134.24692,0.09837
5132.31820,0.09880
5130.38948,0.09953
5128.46076,0.09949
5126.53204,0.09871
5124.60333,0.09842
5122.67461,0.09887
5120.74589,0.09957
5118.81717,0.10031
5116.88846,0.10063
5114.95974,0.10029
5113.03102,0.09946
5111.10230,0.09858
5109.17358,0.09824
5107.24487,0.09860
5105.31615,0.09895
5103.38743,0.09862
5101.45871,0.09829
5099.52999,0.09874
5097.60128,0.09905
5095.67256,0.09858
5093.74384,0.09846
5091.81512,0.09922
5089.88641,0.09989
5087.95769,0.10008
5086.02897,0.10023
5084.10025,0.10019
5082.17153,0.09965
5080.24282,0.09900
5078.31410,0.09871
5076.38538,0.09880
5074.45666,0.09917
5072.52794,0.09939
5070.59923,0.09923
5068.67051,0.09916
5066.74179,0.09929
5064.81307,0.09906
5062.88436,0.09860
5060.95564,0.09849
5059.02692,0.09844
5057.09820,0.09805
5055.16948,0.09793
5053.24077,0.09860
5051.31205,0.09931
5049.38333,0.09923
5047.45461,0.09897
5045.52589,0.09958
5043.59718,0.10031
5041.66846,0.10002
5039.73974,0.09939
5037.81102,0.09908
5035.88231,0.09888
5033.95359,0.09909
5032.02487,0.09965
5030.09615,0.10003
5028.16743,0.10019
5026.23872,0.09985
5024.31000,0.09911
5022.38128,0.09865
5020.45256,0.09839
5018.52384,0.09849
5016.59513,0.09954
5014.66641,0.10050
5012.73769,0.10013
5010.80897,0.09940
5008.88026,0.09959
5006.95154,0.10005
5005.02282,0.09987
5003.09410,0.09955
5001.16538,0.09925
4999.23667,0.09823
4997.30795,0.09691
4995.37923,0.09659
4993.45051,0.09729
4991.52179,0.09833
4989.59308,0.09943
4987.66436,0.09988
4985.73564,0.09916
4983.80692,0.09857
4981.87821,0.09913
4979.94949,0.09987
4978.02077,0.09986
4976.09205,0.09927
4974.16333,0.09872
4972.23462,0.09874
4970.30590,0.09920
4968.37718,0.09948
4966.44846,0.09944
4964.51974,0.09937
4962.59103,0.09922
4960.66231,0.09890
4958.73359,0.09858
4956.80487,0.09844
4954.87616,0.09879
4952.94744,0.09945
4951.01872,0.09968
4949.09000,0.09950
4947.16128,0.09956
4945.23257,0.09993
4943.30385,0.10014
4941.37513,0.09999
4939.44641,0.09992
4937.51769,0.10023
4935.58898,0.10040
4933.66026,0.10019
4931.73154,0.09973
4929.80282,0.09934
4927.87411,0.09948
4925.94539,0.09949
4924.01667,0.09911
4922.08795,0.09936
4920.15923,0.09997
4918.23052,0.09991
4916.30180,0.09946
4914.37308,0.09956
4912.44436,0.10030
4910.51565,0.10091
4908.58693,0.10113
4906.65821,0.10131
4904.72949,0.10132
4902.80077,0.10098
4900.87206,0.10055
4898.94334,0.10025
4897.01462,0.10013
4895.08590,0.10011
4893.15718,0.10023
4891.22847,0.10044
4889.29975,0.10021
4887.37103,0.09964
4885.44231,0.09909
4883.51360,0.09837
4881.58488,0.09801
4879.65616,0.09902
4877.72744,0.10065
4875.79872,0.10136
4873.87001,0.10121
4871.94129,0.10090
4870.01257,0.10054
4868.08385,0.10028
4866.15513,0.10020
4864.22642,0.10007
4862.29770,0.10018
4860.36898,0.10054
4858.44026,0.10018
4856.51155,0.09932
4854.58283,0.09920
4852.65411,0.09986
4850.72539,0.10086
4848.79667,0.10189
4846.86796,0.10236
4844.93924,0.10200
4843.01052,0.10141
4841.08180,0.10124
4839.15308,0.10122
4837.22437,0.10096
4835.29565,0.10085
4833.36693,0.10079
4831.43821,0.10021
4829.50950,0.09957
4827.58078,0.09959
4825.65206,0.10015
4823.72334,0.10064
4821.79462,0.10060
4819.86591,0.10050
4817.93719,0.10070
4816.00847,0.10076
4814.07975,0.10074
4812.15103,0.10099
4810.22232,0.10108
4808.29360,0.10065
4806.36488,0.10040
4804.43616,0.10077
4802.50745,0.10102
4800.57873,0.10070
4798.65001,0.10043
4796.72129,0.10056
4794.79257,0.10083
4792.86386,0.10108
4790.93514,0.10128
4789.00642,0.10150
4787.07770,0.10151
4785.14898,0.10113
4783.22027,0.10057
4781.29155,0.10021
4779.36283,0.10048
4777.43411,0.10117
4775.50540,0.10173
4773.57668,0.10150
4771.64796,0.10062
4769.71924,0.10050
4767.79052,0.10154
4765.86181,0.10259
4763.93309,0.10272
4762.00437,0.10195
4760.07565,0.10122
4758.14693,0.10085
4756.21822,0.10041
4754.28950,0.10014
4752.36078,0.10031
4750.43206,0.10045
4748.50335,0.10062
4746.57463,0.10109
4744.64591,0.10123
4742.71719,0.10080
4740.78847,0.10057
4738.85976,0.10090
4736.93104,0.10141
4735.00232,0.10173
4733.07360,0.10165
4731.14489,0.10137
4729.21617,0.10145
4727.28745,0.10177
4725.35873,0.10174
4723.43001,0.10120
4721.50130,0.10058
4719.57258,0.10058
4717.64386,0.10094
4715.71514,0.10073
4713.78642,0.10004
4711.85771,0.09972
4709.92899,0.10010
4708.00027,0.10089
4706.07155,0.10169
4704.14284,0.10218
4702.21412,0.10213
4700.28540,0.10171
4698.35668,0.10142
4696.42796,0.10171
4694.49925,0.10213
4692.57053,0.10186
4690.64181,0.10139
4688.71309,0.10145
4686.78437,0.10149
4684.85566,0.10128
4682.92694,0.10126
4680.99822,0.10133
4679.06950,0.10133
4677.14079,0.10134
4675.21207,0.10142
4673.28335,0.10143
4671.35463,0.10147
4669.42591,0.10200
4667.49720,0.10261
4665.56848,0.10226
4663.63976,0.10132
4661.71104,0.10088
4659.78232,0.10086
4657.85361,0.10104
4655.92489,0.10161
4653.99617,0.10210
4652.06745,0.10200
4650.13874,0.10159
4648.21002,0.10118
4646.28130,0.10073
4644.35258,0.10059
4642.42386,0.10105
4640.49515,0.10139
4638.56643,0.10110
4636.63771,0.10081
4634.70899,0.10086
4632.78027,0.10070
4630.85156,0.10037
4628.92284,0.10048
4626.99412,0.10104
4625.06540,0.10164
4623.13669,0.10199
4621.20797,0.10200
4619.27925,0.10174
4617.35053,0.10143
4615.42181,0.10125
4613.49310,0.10116
4611.56438,0.10099
4609.63566,0.10075
4607.70694,0.10097
4605.77822,0.10163
4603.84951,0.10188
4601.92079,0.10143
4599.99207,0.10093
4598.06335,0.10093
4596.13464,0.10122
4594.20592,0.10141
4592.27720,0.10165
4590.34848,0.10194
4588.41976,0.10196
4586.49105,0.10160
4584.56233,0.10109
4582.63361,0.10064
4580.70489,0.10026
4578.77617,0.10012
4576.84746,0.10066
4574.91874,0.10140
4572.99002,0.10153
4571.06130,0.10134
4569.13259,0.10125
4567.20387,0.10129
4565.27515,0.10157
4563.34643,0.10194
4561.41771,0.10218
4559.48900,0.10231
4557.56028,0.10239
4555.63156,0.10231
4553.70284,0.10208
4551.77413,0.10186
4549.84541,0.10159
4547.91669,0.10121
4545.98797,0.10088
4544.05925,0.10090
4542.13054,0.10116
4540.20182,0.10100
4538.27310,0.10035
4536.34438,0.10021
4534.41566,0.10088
4532.48695,0.10126
4530.55823,0.10105
4528.62951,0.10098
4526.70079,0.10091
4524.77208,0.10069
4522.84336,0.10066
4520.91464,0.10078
4518.98592,0.10092
4517.05720,0.10101
4515.12849,0.10090
4513.19977,0.10086
4511.27105,0.10088
4509.34233,0.10059
4507.41361,0.10021
4505.48490,0.10009
4503.55618,0.10024
4501.62746,0.10039
4499.69874,0.10013
4497.77003,0.09988
4495.84131,0.10002
4493.91259,0.10021
4491.98387,0.10032
4490.05515,0.10043
4488.12644,0.10061
4486.19772,0.10078
4484.26900,0.10081
4482.34028,0.10082
4480.41156,0.10088
4478.48285,0.10084
4476.55413,0.10074
4474.62541,0.10074
4472.69669,0.10070
4470.76798,0.10055
4468.83926,0.10031
4466.91054,0.09994
4464.98182,0.09987
4463.05310,0.10020
4461.12439,0.10023
4459.19567,0.09968
4457.26695,0.09926
4455.33823,0.09940
4453.40951,0.09969
4451.48080,0.09988
4449.55208,0.10004
4447.62336,0.09998
4445.69464,0.09950
4443.76593,0.09890
4441.83721,0.09859
4439.90849,0.09851
4437.97977,0.09845
4436.05105,0.09834
4434.12234,0.09810
4432.19362,0.09799
4430.26490,0.09813
4428.33618,0.09811
4426.40746,0.09781
4424.47875,0.09748
4422.55003,0.09730
4420.62131,0.09731
4418.69259,0.09731
4416.76388,0.09721
4414.83516,0.09710
4412.90644,0.09687
4410.97772,0.09646
4409.04900,0.09625
4407.12029,0.09632
4405.19157,0.09615
4403.26285,0.09561
4401.33413,0.09494
4399.40541,0.09420
4397.47670,0.09358
4395.54798,0.09326
4393.61926,0.09302
4391.69054,0.09277
4389.76183,0.09254
4387.83311,0.09237
4385.90439,0.09232
4383.97567,0.09211
4382.04695,0.09162
4380.11824,0.09115
4378.18952,0.09077
4376.26080,0.09044
4374.33208,0.09013
4372.40337,0.08973
4370.47465,0.08935
4368.54593,0.08891
4366.61721,0.08833
4364.68849,0.08790
4362.75978,0.08761
4360.83106,0.08706
4358.90234,0.08639
4356.97362,0.08581
4355.04490,0.08495
4353.11619,0.08389
4351.18747,0.08300
4349.25875,0.08185
4347.33003,0.08029
4345.40132,0.07880
4343.47260,0.07765
4341.54388,0.07695
4339.61516,0.07609
4337.68644,0.07442
4335.75773,0.07266
4333.82901,0.07181
4331.90029,0.07139
4329.97157,0.07017
4328.04285,0.06821
4326.11414,0.06665
4324.18542,0.06604
4322.25670,0.06633
4320.32798,0.06741
4318.39927,0.06915
4316.47055,0.07152
4314.54183,0.07446
4312.61311,0.07771
4310.68439,0.08056
4308.75568,0.08228
4306.82696,0.08314
4304.89824,0.08393
4302.96952,0.08479
4301.04080,0.08548
4299.11209,0.08590
4297.18337,0.08607
4295.25465,0.08611
4293.32593,0.08604
4291.39722,0.08586
4289.46850,0.08559
4287.53978,0.08509
4285.61106,0.08456
4283.68234,0.08442
4281.75363,0.08462
4279.82491,0.08463
4277.89619,0.08420
4275.96747,0.08362
4274.03875,0.08306
4272.11004,0.08238
4270.18132,0.08144
4268.25260,0.08065
4266.32388,0.08015
4264.39517,0.07954
4262.46645,0.07869
4260.53773,0.07735
4258.60901,0.07523
4256.68029,0.07289
4254.75158,0.07123
4252.82286,0.07050
4250.89414,0.07071
4248.96542,0.07207
4247.03670,0.07418
4245.10799,0.07614
4243.17927,0.07796
4241.25055,0.07984
4239.32183,0.08103
4237.39312,0.08129
4235.46440,0.08128
4233.53568,0.08113
4231.60696,0.08082
4229.67824,0.08069
4227.74953,0.08061
4225.82081,0.08021
4223.89209,0.07949
4221.96337,0.07879
4220.03465,0.07848
4218.10594,0.07862
4216.17722,0.07897
4214.24850,0.07922
4212.31978,0.07920
4210.39107,0.07913
4208.46235,0.07942
4206.53363,0.07966
4204.60491,0.07944
4202.67619,0.07907
4200.74748,0.07879
4198.81876,0.07843
4196.89004,0.07781
4194.96132,0.07691
4193.03261,0.07613
4191.10389,0.07598
4189.17517,0.07637
4187.24645,0.07659
4185.31773,0.07643
4183.38902,0.07630
4181.46030,0.07648
4179.53158,0.07692
4177.60286,0.07734
4175.67414,0.07747
4173.74543,0.07740
4171.81671,0.07743
4169.88799,0.07748
4167.95927,0.07738
4166.03056,0.07728
4164.10184,0.07724
4162.17312,0.07717
4160.24440,0.07721
4158.31568,0.07733
4156.38697,0.07728
4154.45825,0.07712
4152.52953,0.07701
4150.60081,0.07678
4148.67209,0.07656
4146.74338,0.07673
4144.81466,0.07719
4142.88594,0.07751
4140.95722,0.07755
4139.02851,0.07756
4137.09979,0.07776
4135.17107,0.07811
4133.24235,0.07843
4131.31363,0.07858
4129.38492,0.07860
4127.45620,0.07869
4125.52748,0.07878
4123.59876,0.07866
4121.67004,0.07846
4119.74133,0.07836
4117.81261,0.07830
4115.88389,0.07810
4113.95517,0.07786
4112.02646,0.07790
4110.09774,0.07814
4108.16902,0.07812
4106.24030,0.07790
4104.31158,0.07792
4102.38287,0.07828
4100.45415,0.07890
4098.52543,0.07939
4096.59671,0.07933
4094.66799,0.07908
4092.73928,0.07915
4090.81056,0.07943
4088.88184,0.07996
4086.95312,0.08083
4085.02441,0.08177
4083.09569,0.08250
4081.16697,0.08264
4079.23825,0.08231
4077.30953,0.08224
4075.38082,0.08270
4073.45210,0.08331
4071.52338,0.08385
4069.59466,0.08435
4067.66594,0.08469
4065.73723,0.08481
4063.80851,0.08487
4061.87979,0.08504
4059.95107,0.08524
4058.02236,0.08538
4056.09364,0.08548
4054.16492,0.08544
4052.23620,0.08540
4050.30748,0.08566
4048.37877,0.08605
4046.45005,0.08639
4044.52133,0.08666
4042.59261,0.08674
4040.66389,0.08674
4038.73518,0.08683
4036.80646,0.08699
4034.87774,0.08714
4032.94902,0.08727
4031.02031,0.08728
4029.09159,0.08703
4027.16287,0.08675
4025.23415,0.08678
4023.30543,0.08703
4021.37672,0.08721
4019.44800,0.08749
4017.51928,0.08788
4015.59056,0.08803
4013.66185,0.08821
4011.73313,0.08896
4009.80441,0.08983
4007.87569,0.09010
4005.94697,0.09003
4004.01826,0.09006
4002.08954,0.09023
4000.16082,0.09047
3998.23210,0.09063
3996.30338,0.09068
3994.37467,0.09085
3992.44595,0.09106
3990.51723,0.09112
3988.58851,0.09116
3986.65980,0.09119
3984.73108,0.09107
3982.80236,0.09089
3980.87364,0.09063
3978.94492,0.09028
3977.01621,0.09006
3975.08749,0.09020
3973.15877,0.09061
3971.23005,0.09078
3969.30133,0.09057
3967.37262,0.09053
3965.44390,0.09079
3963.51518,0.09095
3961.58646,0.09081
3959.65775,0.09062
3957.72903,0.09075
3955.80031,0.09121
3953.87159,0.09141
3951.94287,0.09095
3950.01416,0.09043
3948.08544,0.09044
3946.15672,0.09061
3944.22800,0.09066
3942.29928,0.09081
3940.37057,0.09114
3938.44185,0.09141
3936.51313,0.09158
3934.58441,0.09154
3932.65570,0.09111
3930.72698,0.09056
3928.79826,0.09043
3926.86954,0.09048
3924.94082,0.09039
3923.01211,0.09036
3921.08339,0.09034
3919.15467,0.08996
3917.22595,0.08946
3915.29723,0.08952
3913.36852,0.09004
3911.43980,0.09030
3909.51108,0.09026
3907.58236,0.09028
3905.65365,0.09005
3903.72493,0.08955
3901.79621,0.08941
3899.86749,0.08955
3897.93877,0.08981
3896.01006,0.09029
3894.08134,0.09071
3892.15262,0.09078
3890.22390,0.09066
3888.29518,0.09063
3886.36647,0.09051
3884.43775,0.09046
3882.50903,0.09051
3880.58031,0.09020
3878.65160,0.09000
3876.72288,0.09034
3874.79416,0.09073
3872.86544,0.09065
3870.93672,0.09007
3869.00801,0.08975
3867.07929,0.09000
3865.15057,0.09030
3863.22185,0.09064
3861.29313,0.09103
3859.36442,0.09135
3857.43570,0.09163
3855.50698,0.09153
3853.57826,0.09083
3851.64955,0.09092
3849.72083,0.09156
3847.79211,0.09193
3845.86339,0.09203
3843.93467,0.09198
3842.00596,0.09211
3840.07724,0.09237
3838.14852,0.09226
3836.21980,0.09199
3834.29109,0.09186
3832.36237,0.09179
3830.43365,0.09201
3828.50493,0.09253
3826.57621,0.09271
3824.64750,0.09214
3822.71878,0.09125
3820.79006,0.09101
3818.86134,0.09179
3816.93262,0.09258
3815.00391,0.09294
3813.07519,0.09291
3811.14647,0.09267
3809.21775,0.09235
3807.28904,0.09220
3805.36032,0.09250
3803.43160,0.09271
3801.50288,0.09270
3799.57416,0.09310
3797.64545,0.09342
3795.71673,0.09347
3793.78801,0.09364
3791.85929,0.09387
3789.93057,0.09398
3788.00186,0.09395
3786.07314,0.09388
3784.14442,0.09393
3782.21570,0.09401
3780.28699,0.09399
3778.35827,0.09397
3776.42955,0.09397
3774.50083,0.09389
3772.57211,0.09374
3770.64340,0.09357
3768.71468,0.09373
3766.78596,0.09412
3764.85724,0.09442
3762.92852,0.09471
3760.99981,0.09483
3759.07109,0.09464
3757.14237,0.09447
3755.21365,0.09451
3753.28494,0.09437
3751.35622,0.09371
3749.42750,0.09343
3747.49878,0.09372
3745.57006,0.09394
3743.64135,0.09431
3741.71263,0.09470
3739.78391,0.09477
3737.85519,0.09442
3735.92647,0.09380
3733.99776,0.09358
3732.06904,0.09394
3730.14032,0.09427
3728.21160,0.09437
3726.28289,0.09451
3724.35417,0.09468
3722.42545,0.09449
3720.49673,0.09418
3718.56801,0.09419
3716.63930,0.09439
3714.71058,0.09444
3712.78186,0.09417
3710.85314,0.09387
3708.92442,0.09380
3706.99571,0.09376
3705.06699,0.09379
3703.13827,0.09391
3701.20955,0.09395
3699.28084,0.09385
3697.35212,0.09373
3695.42340,0.09377
3693.49468,0.09394
3691.56596,0.09391
3689.63725,0.09348
3687.70853,0.09324
3685.77981,0.09343
3683.85109,0.09363
3681.92237,0.09357
3679.99366,0.09329
3678.06494,0.09315
3676.13622,0.09298
3674.20750,0.09238
3672.27879,0.09190
3670.35007,0.09164
3668.42135,0.09179
3666.49263,0.09217
3664.56391,0.09241
3662.63520,0.09257
3660.70648,0.09272
3658.77776,0.09235
3656.84904,0.09144
3654.92033,0.09119
3652.99161,0.09156
3651.06289,0.09133
3649.13417,0.09063
3647.20545,0.09052
3645.27674,0.09046
3643.34802,0.09035
3641.41930,0.09053
3639.49058,0.09089
3637.56186,0.09107
3635.63315,0.09105
3633.70443,0.09094
3631.77571,0.09074
3629.84699,0.09062
3627.91828,0.09104
3625.98956,0.09158
3624.06084,0.09147
3622.13212,0.09093
3620.20340,0.09054
3618.27469,0.09033
3616.34597,0.08983
3614.41725,0.08900
3612.48853,0.08800
3610.55981,0.08703
3608.63110,0.08619
3606.70238,0.08567
3604.77366,0.08551
3602.84494,0.08561
3600.91623,0.08644
3598.98751,0.08824
3597.05879,0.09015
3595.13007,0.09164
3593.20135,0.09292
3591.27264,0.09403
3589.34392,0.09474
3587.41520,0.09512
3585.48648,0.09536
3583.55776,0.09537
3581.62905,0.09517
3579.70033,0.09517
3577.77161,0.09541
3575.84289,0.09550
3573.91418,0.09529
3571.98546,0.09501
3570.05674,0.09496
3568.12802,0.09515
3566.19930,0.09552
3564.27059,0.09579
3562.34187,0.09587
3560.41315,0.09618
3558.48443,0.09684
3556.55571,0.09742
3554.62700,0.09761
3552.69828,0.09750
3550.76956,0.09753
3548.84084,0.09773
3546.91213,0.09764
3544.98341,0.09738
3543.05469,0.09712
3541.12597,0.09669
3539.19725,0.09639
3537.26854,0.09630
3535.33982,0.09635
3533.41110,0.09670
3531.48238,0.09713
3529.55366,0.09720
3527.62495,0.09718
3525.69623,0.09758
3523.76751,0.09791
3521.83879,0.09764
3519.91008,0.09735
3517.98136,0.09753
3516.05264,0.09770
3514.12392,0.09742
3512.19520,0.09706
3510.26649,0.09711
3508.33777,0.09718
3506.40905,0.09678
3504.48033,0.09625
3502.55161,0.09622
3500.62290,0.09664
3498.69418,0.09698
3496.76546,0.09719
3494.83674,0.09743
3492.90803,0.09744
3490.97931,0.09727
3489.05059,0.09712
3487.12187,0.09683
3485.19315,0.09669
3483.26444,0.09695
3481.33572,0.09709
3479.40700,0.09673
3477.47828,0.09611
3475.54956,0.09569
3473.62085,0.09583
3471.69213,0.09627
3469.76341,0.09650
3467.83469,0.09644
3465.90598,0.09616
3463.97726,0.09577
3462.04854,0.09556
3460.11982,0.09573
3458.19110,0.09603
3456.26239,0.09607
3454.33367,0.09578
3452.40495,0.09564
3450.47623,0.09615
3448.54752,0.09665
3446.61880,0.09619
3444.69008,0.09529
3442.76136,0.09489
3440.83264,0.09487
3438.90393,0.09474
3436.97521,0.09455
3435.04649,0.09458
3433.11777,0.09485
3431.18905,0.09521
3429.26034,0.09525
3427.33162,0.09472
3425.40290,0.09422
3423.47418,0.09435
3421.54547,0.09480
3419.61675,0.09514
3417.68803,0.09546
3415.75931,0.09570
3413.83059,0.09569
3411.90188,0.09556
3409.97316,0.09549
3408.04444,0.09547
3406.11572,0.09512
3404.18700,0.09444
3402.25829,0.09404
3400.32957,0.09402
3398.40085,0.09399
3396.47213,0.09403
3394.54342,0.09425
3392.61470,0.09446
3390.68598,0.09451
3388.75726,0.09435
3386.82854,0.09417
3384.89983,0.09413
3382.97111,0.09433
3381.04239,0.09465
3379.11367,0.09463
3377.18495,0.09433
3375.25624,0.09424
3373.32752,0.09441
3371.39880,0.09428
3369.47008,0.09361
3367.54137,0.09305
3365.61265,0.09310
3363.68393,0.09338
3361.75521,0.09360
3359.82649,0.09373
3357.89778,0.09361
3355.96906,0.09338
3354.04034,0.09362
3352.11162,0.09440
3350.18290,0.09524
3348.25419,0.09570
3346.32547,0.09559
3344.39675,0.09517
3342.46803,0.09481
3340.53932,0.09451
3338.61060,0.09422
3336.68188,0.09412
3334.75316,0.09428
3332.82444,0.09435
3330.89573,0.09409
3328.96701,0.09379
3327.03829,0.09377
3325.10957,0.09390
3323.18085,0.09398
3321.25214,0.09393
3319.32342,0.09382
3317.39470,0.09389
3315.46598,0.09430
3313.53727,0.09486
3311.60855,0.09520
3309.67983,0.09525
3307.75111,0.09525
3305.82239,0.09515
3303.89368,0.09482
3301.96496,0.09447
3300.03624,0.09417
3298.10752,0.09380
3296.17880,0.09368
3294.25009,0.09387
3292.32137,0.09388
3290.39265,0.09382
3288.46393,0.09401
3286.53522,0.09432
3284.60650,0.09469
3282.67778,0.09509
3280.74906,0.09540
3278.82034,0.09566
3276.89163,0.09567
3274.96291,0.09533
3273.03419,0.09505
3271.10547,0.09496
3269.17676,0.09468
3267.24804,0.09412
3265.31932,0.09379
3263.39060,0.09401
3261.46188,0.09441
3259.53317,0.09457
3257.60445,0.09447
3255.67573,0.09433
3253.74701,0.09439
3251.81829,0.09471
3249.88958,0.09530
3247.96086,0.09579
3246.03214,0.09557
3244.10342,0.09500
3242.17471,0.09488
3240.24599,0.09489
3238.31727,0.09450
3236.38855,0.09396
3234.45983,0.09350
3232.53112,0.09322
3230.60240,0.09338
3228.67368,0.09358
3226.74496,0.09332
3224.81624,0.09309
3222.88753,0.09333
3220.95881,0.09356
3219.03009,0.09363
3217.10137,0.09374
3215.17266,0.09382
3213.24394,0.09393
3211.31522,0.09411
3209.38650,0.09405
3207.45778,0.09360
3205.52907,0.09304
3203.60035,0.09270
3201.67163,0.09249
3199.74291,0.09213
3197.81419,0.09178
3195.88548,0.09158
3193.95676,0.09135
3192.02804,0.09128
3190.09932,0.09150
3188.17061,0.09163
3186.24189,0.09166
3184.31317,0.09213
3182.38445,0.09279
3180.45573,0.09289
3178.52702,0.09262
3176.59830,0.09251
3174.66958,0.09239
3172.74086,0.09186
3170.81214,0.09106
3168.88343,0.09039
3166.95471,0.09020
3165.02599,0.09031
3163.09727,0.09021
3161.16856,0.08983
3159.23984,0.08971
3157.31112,0.08998
3155.38240,0.09026
3153.45368,0.09036
3151.52497,0.09007
3149.59625,0.08942
3147.66753,0.08920
3145.73881,0.08953
3143.81009,0.08973
3141.88138,0.08961
3139.95266,0.08932
3138.02394,0.08887
3136.09522,0.08829
3134.16651,0.08768
3132.23779,0.08720
3130.30907,0.08710
3128.38035,0.08723
3126.45163,0.08722
3124.52292,0.08718
3122.59420,0.08716
3120.66548,0.08702
3118.73676,0.08682
3116.80804,0.08653
3114.87933,0.08592
3112.95061,0.08508
3111.02189,0.08440
3109.09317,0.08391
3107.16446,0.08346
3105.23574,0.08285
3103.30702,0.08202
3101.37830,0.08141
3099.44958,0.08099
3097.52087,0.08033
3095.59215,0.07939
3093.66343,0.07831
3091.73471,0.07728
3089.80600,0.07657
3087.87728,0.07606
3085.94856,0.07557
3084.01984,0.07515
3082.09112,0.07461
3080.16241,0.07394
3078.23369,0.07335
3076.30497,0.07277
3074.37625,0.07217
3072.44753,0.07187
3070.51882,0.07197
3068.59010,0.07206
3066.66138,0.07195
3064.73266,0.07188
3062.80395,0.07161
3060.87523,0.07077
3058.94651,0.06987
3057.01779,0.06936
3055.08907,0.06886
3053.16036,0.06817
3051.23164,0.06757
3049.30292,0.06712
3047.37420,0.06672
3045.44548,0.06640
3043.51677,0.06622
3041.58805,0.06600
3039.65933,0.06563
3037.73061,0.06524
3035.80190,0.06469
3033.87318,0.06382
3031.94446,0.06296
3030.01574,0.06242
3028.08702,0.06212
3026.15831,0.06191
3024.22959,0.06163
3022.30087,0.06117
3020.37215,0.06066
3018.44343,0.06043
3016.51472,0.06047
3014.58600,0.06028
3012.65728,0.05961
3010.72856,0.05884
3008.79985,0.05829
3006.87113,0.05786
3004.94241,0.05749
3003.01369,0.05723
3001.08497,0.05682
2999.15626,0.05616
2997.22754,0.05563
2995.29882,0.05529
2993.37010,0.05476
2991.44138,0.05394
2989.51267,0.05318
2987.58395,0.05267
2985.65523,0.05243
2983.72651,0.05228
2981.79780,0.05189
2979.86908,0.05123
2977.94036,0.05073
2976.01164,0.05042
2974.08292,0.04996
2972.15421,0.04926
2970.22549,0.04866
2968.29677,0.04833
2966.36805,0.04805
2964.43933,0.04784
2962.51062,0.04788
2960.58190,0.04797
2958.65318,0.04789
2956.72446,0.04759
2954.79575,0.04698
2952.86703,0.04614
2950.93831,0.04524
2949.00959,0.04440
2947.08087,0.04365
2945.15216,0.04292
2943.22344,0.04204
2941.29472,0.04089
2939.36600,0.03980
2937.43728,0.03911
2935.50857,0.03881
2933.57985,0.03889
2931.65113,0.03962
2929.72241,0.04151
2927.79370,0.04470
2925.86498,0.04919
2923.93626,0.05548
2922.00754,0.06392
2920.07882,0.07374
2918.15011,0.08290
2916.22139,0.08882
2914.29267,0.09012
2912.36395,0.08756
2910.43524,0.08334
2908.50652,0.07949
2906.57780,0.07681
2904.64908,0.07512
2902.72036,0.07397
2900.79165,0.07305
2898.86293,0.07230
2896.93421,0.07160
2895.00549,0.07078
2893.07677,0.06997
2891.14806,0.06940
2889.21934,0.06885
2887.29062,0.06819
2885.36190,0.06762
2883.43319,0.06706
2881.50447,0.06622
2879.57575,0.06532
2877.64703,0.06461
2875.71831,0.06376
2873.78960,0.06263
2871.86088,0.06156
2869.93216,0.06063
2868.00344,0.05958
2866.07472,0.05837
2864.14601,0.05714
2862.21729,0.05602
2860.28857,0.05488
2858.35985,0.05389
2856.43114,0.05392
2854.50242,0.05626
2852.57370,0.06230
2850.64498,0.07201
2848.71626,0.08175
2846.78755,0.08672
2844.85883,0.08628
2842.93011,0.08352
2841.00139,0.08075
2839.07267,0.07842
2837.14396,0.07641
2835.21524,0.07476
2833.28652,0.07362
2831.35780,0.07290
2829.42909,0.07232
2827.50037,0.07161
2825.57165,0.07071
2823.64293,0.07001
2821.71421,0.06967
2819.78550,0.06924
2817.85678,0.06866
2815.92806,0.06830
2813.99934,0.06827
2812.07062,0.06836
2810.14191,0.06827
2808.21319,0.06794
2806.28447,0.06757
2804.35575,0.06738
2802.42704,0.06744
2800.49832,0.06764
2798.56960,0.06785
2796.64088,0.06804
2794.71216,0.06825
2792.78345,0.06853
2790.85473,0.06899
2788.92601,0.06942
2786.99729,0.06963
2785.06857,0.06978
2783.13986,0.07010
2781.21114,0.07068
2779.28242,0.07128
2777.35370,0.07162
2775.42499,0.07181
2773.49627,0.07204
2771.56755,0.07221
2769.63883,0.07232
2767.71011,0.07265
2765.78140,0.07312
2763.85268,0.07345
2761.92396,0.07369
2759.99524,0.07383
2758.06652,0.07393
2756.13781,0.07418
2754.20909,0.07436
2752.28037,0.07414
2750.35165,0.07387
2748.42294,0.07383
2746.49422,0.07390
2744.56550,0.07394
2742.63678,0.07406
2740.70806,0.07434
2738.77935,0.07464
2736.85063,0.07478
2734.92191,0.07485
2732.99319,0.07496
2731.06448,0.07496
2729.13576,0.07477
2727.20704,0.07461
2725.27832,0.07469
2723.34960,0.07500
2721.42089,0.07527
2719.49217,0.07523
2717.56345,0.07506
2715.63473,0.07515
2713.70601,0.07554
2711.77730,0.07601
2709.84858,0.07637
2707.91986,0.07660
2705.99114,0.07679
2704.06243,0.07709
2702.13371,0.07733
2700.20499,0.07718
2698.27627,0.07664
2696.34755,0.07609
2694.41884,0.07568
2692.49012,0.07537
2690.56140,0.07510
2688.63268,0.07494
2686.70396,0.07500
2684.77525,0.07520
2682.84653,0.07543
2680.91781,0.07556
2678.98909,0.07535
2677.06038,0.07486
2675.13166,0.07439
2673.20294,0.07410
2671.27422,0.07385
2669.34550,0.07357
2667.41679,0.07341
2665.48807,0.07330
2663.55935,0.07315
2661.63063,0.07308
2659.70191,0.07331
2657.77320,0.07383
2655.84448,0.07427
2653.91576,0.07445
2651.98704,0.07449
2650.05833,0.07464
2648.12961,0.07487
2646.20089,0.07491
2644.27217,0.07473
2642.34345,0.07441
2640.41474,0.07404
2638.48602,0.07391
2636.55730,0.07397
2634.62858,0.07388
2632.69986,0.07385
2630.77115,0.07417
2628.84243,0.07463
2626.91371,0.07519
2624.98499,0.07591
2623.05628,0.07666
2621.12756,0.07737
2619.19884,0.07804
2617.27012,0.07860
2615.34140,0.07904
2613.41269,0.07953
2611.48397,0.08014
2609.55525,0.08062
2607.62653,0.08070
2605.69781,0.08055
2603.76910,0.08063
2601.84038,0.08093
2599.91166,0.08113
2597.98294,0.08123
2596.05423,0.08148
2594.12551,0.08198
2592.19679,0.08260
2590.26807,0.08327
2588.33935,0.08410
2586.41064,0.08500
2584.48192,0.08584
2582.55320,0.08662
2580.62448,0.08714
2578.69576,0.08737
2576.76705,0.08748
2574.83833,0.08746
2572.90961,0.08735
2570.98089,0.08735
2569.05218,0.08755
2567.12346,0.08775
2565.19474,0.08791
2563.26602,0.08819
2561.33730,0.08869
2559.40859,0.08930
2557.47987,0.08988
2555.55115,0.09035
2553.62243,0.09070
2551.69372,0.09108
2549.76500,0.09145
2547.83628,0.09179
2545.90756,0.09212
2543.97884,0.09231
2542.05013,0.09232
2540.12141,0.09224
2538.19269,0.09209
2536.26397,0.09188
2534.33525,0.09163
2532.40654,0.09130
2530.47782,0.09111
2528.54910,0.09121
2526.62038,0.09153
2524.69167,0.09204
2522.76295,0.09269
2520.83423,0.09341
2518.90551,0.09414
2516.97679,0.09486
2515.04808,0.09541
2513.11936,0.09563
2511.19064,0.09558
2509.26192,0.09553
2507.33320,0.09559
2505.40449,0.09560
2503.47577,0.09541
2501.54705,0.09504
2499.61833,0.09477
2497.68962,0.09482
2495.76090,0.09516
2493.83218,0.09559
2491.90346,0.09604
2489.97474,0.09658
2488.04603,0.09711
2486.11731,0.09762
2484.18859,0.09813
2482.25987,0.09840
2480.33115,0.09825
2478.40244,0.09787
2476.47372,0.09753
2474.54500,0.09720
2472.61628,0.09689
2470.68757,0.09678
2468.75885,0.09678
2466.83013,0.09674
2464.90141,0.09681
2462.97269,0.09712
2461.04398,0.09751
2459.11526,0.09786
2457.18654,0.09827
2455.25782,0.09891
2453.32910,0.09977
2451.40039,0.10054
2449.47167,0.10081
2447.54295,0.10061
2445.61423,0.10022
2443.68552,0.09972
2441.75680,0.09903
2439.82808,0.09825
2437.89936,0.09767
2435.97064,0.09734
2434.04193,0.09700
2432.11321,0.09668
2430.18449,0.09666
2428.25577,0.09681
2426.32705,0.09693
2424.39834,0.09710
2422.46962,0.09728
2420.54090,0.09748
2418.61218,0.09784
2416.68347,0.09819
2414.75475,0.09824
2412.82603,0.09812
2410.89731,0.09807
2408.96859,0.09810
2407.03988,0.09800
2405.11116,0.09763
2403.18244,0.09710
2401.25372,0.09662
2399.32500,0.09633
2397.39629,0.09628
2395.46757,0.09628
2393.53885,0.09630
2391.61013,0.09659
2389.68142,0.09715
2387.75270,0.09771
2385.82398,0.09814
2383.89526,0.09856
2381.96654,0.09890
2380.03783,0.09895
2378.10911,0.09881
2376.18039,0.09852
2374.25167,0.09797
2372.32296,0.09734
2370.39424,0.09674
2368.46552,0.09597
2366.53680,0.09498
2364.60808,0.09404
2362.67937,0.09350
2360.75065,0.09340
2358.82193,0.09347
2356.89321,0.09355
2354.96449,0.09368
2353.03578,0.09378
2351.10706,0.09373
2349.17834,0.09357
2347.24962,0.09328
2345.32091,0.09289
2343.39219,0.09251
2341.46347,0.09207
2339.53475,0.09141
2337.60603,0.09080
2335.67732,0.09041
2333.74860,0.09002
2331.81988,0.08954
2329.89116,0.08915
2327.96244,0.08936
2326.03373,0.09009
2324.10501,0.09063
2322.17629,0.09102
2320.24757,0.09169
2318.31886,0.09244
2316.39014,0.09329
2314.46142,0.09440
2312.53270,0.09545
2310.60398,0.09594
2308.67527,0.09584
2306.74655,0.09564
2304.81783,0.09555
2302.88911,0.09532
2300.96039,0.09496
2299.03168,0.09456
2297.10296,0.09404
2295.17424,0.09354
2293.24552,0.09337
2291.31681,0.09370
2289.38809,0.09439
2287.45937,0.09517
2285.53065,0.09591
2283.60193,0.09671
2281.67322,0.09753
2279.74450,0.09816
2277.81578,0.09858
2275.88706,0.09879
2273.95834,0.09881
2272.02963,0.09873
2270.10091,0.09851
2268.17219,0.09814
2266.24347,0.09776
2264.31476,0.09735
2262.38604,0.09683
2260.45732,0.09639
2258.52860,0.09616
2256.59988,0.09618
2254.67117,0.09645
2252.74245,0.09701
2250.81373,0.09770
2248.88501,0.09838
2246.95629,0.09913
2245.02758,0.09994
2243.09886,0.10056
2241.17014,0.10079
2239.24142,0.10082
2237.31271,0.10083
2235.38399,0.10070
2233.45527,0.10028
2231.52655,0.09966
2229.59783,0.09894
2227.66912,0.09815
2225.74040,0.09756
2223.81168,0.09746
2221.88296,0.09767
2219.95424,0.09798
2218.02553,0.09859
2216.09681,0.09944
2214.16809,0.10017
2212.23937,0.10077
2210.31066,0.10133
2208.38194,0.10175
2206.45322,0.10205
2204.52450,0.10222
2202.59578,0.10200
2200.66707,0.10122
2198.73835,0.10018
2196.80963,0.09934
2194.88091,0.09870
2192.95220,0.09803
2191.02348,0.09747
2189.09476,0.09728
2187.16604,0.09740
2185.23732,0.09771
2183.30861,0.09825
2181.37989,0.09900
2179.45117,0.09985
2177.52245,0.10073
2175.59373,0.10143
2173.66502,0.10176
2171.73630,0.10178
2169.80758,0.10169
2167.87886,0.10150
2165.95015,0.10103
2164.02143,0.10016
2162.09271,0.09914
2160.16399,0.09829
2158.23527,0.09758
2156.30656,0.09680
2154.37784,0.09614
2152.44912,0.09597
2150.52040,0.09628
2148.59168,0.09688
2146.66297,0.09766
2144.73425,0.09858
2142.80553,0.09960
2140.87681,0.10058
2138.94810,0.10136
2137.01938,0.10187
2135.09066,0.10222
2133.16194,0.10232
2131.23322,0.10192
2129.30451,0.10124
2127.37579,0.10059
2125.44707,0.09996
2123.51835,0.09938
2121.58963,0.09900
2119.66092,0.09880
2117.73220,0.09867
2115.80348,0.09876
2113.87476,0.09926
2111.94605,0.10000
2110.01733,0.10085
2108.08861,0.10175
2106.15989,0.10251
2104.23117,0.10306
2102.30246,0.10349
2100.37374,0.10372
2098.44502,0.10355
2096.51630,0.10287
2094.58758,0.10190
2092.65887,0.10087
2090.73015,0.09983
2088.80143,0.09900
2086.87271,0.09849
2084.94400,0.09821
2083.01528,0.09814
2081.08656,0.09831
2079.15784,0.09871
2077.22912,0.09937
2075.30041,0.10022
2073.37169,0.10106
2071.44297,0.10180
2069.51425,0.10228
2067.58553,0.10232
2065.65682,0.10195
2063.72810,0.10140
2061.79938,0.10083
2059.87066,0.10023
2057.94195,0.09942
2056.01323,0.09834
2054.08451,0.09727
2052.15579,0.09644
2050.22707,0.09583
2048.29836,0.09554
2046.36964,0.09569
2044.44092,0.09604
2042.51220,0.09635
2040.58348,0.09693
2038.65477,0.09777
2036.72605,0.09839
2034.79733,0.09861
2032.86861,0.09866
2030.93990,0.09853
2029.01118,0.09795
2027.08246,0.09691
2025.15374,0.09560
2023.22502,0.09427
2021.29631,0.09313
2019.36759,0.09227
2017.43887,0.09177
2015.51015,0.09185
2013.58143,0.09260
2011.65272,0.09379
2009.72400,0.09520
2007.79528,0.09681
2005.86656,0.09843
2003.93785,0.09983
2002.00913,0.10101
2000.08041,0.10201
1998.15169,0.10275
1996.22297,0.10317
1994.29426,0.10325
1992.36554,0.10285
1990.43682,0.10199
1988.50810,0.10096
1986.57939,0.10004
1984.65067,0.09936
1982.72195,0.09886
1980.79323,0.09852
1978.86451,0.09845
1976.93580,0.09870
1975.00708,0.09931
1973.07836,0.10004
1971.14964,0.10070
1969.22092,0.10134
1967.29221,0.10213
1965.36349,0.10292
1963.43477,0.10330
1961.50605,0.10321
1959.57734,0.10286
1957.64862,0.10234
1955.71990,0.10168
1953.79118,0.10090
1951.86246,0.09992
1949.93375,0.09895
1948.00503,0.09824
1946.07631,0.09769
1944.14759,0.09734
1942.21887,0.09749
1940.29016,0.09815
1938.36144,0.09901
1936.43272,0.09994
1934.50400,0.10080
1932.57529,0.10149
1930.64657,0.10214
1928.71785,0.10266
1926.78913,0.10283
1924.86041,0.10247
1922.93170,0.10173
1921.00298,0.10084
1919.07426,0.09975
1917.14554,0.09853
1915.21682,0.09754
1913.28811,0.09673
1911.35939,0.09596
1909.43067,0.09542
1907.50195,0.09536
1905.57324,0.09570
1903.64452,0.09616
1901.71580,0.09661
1899.78708,0.09709
1897.85836,0.09773
1895.92965,0.09852
1894.00093,0.09925
1892.07221,0.09984
1890.14349,0.10040
1888.21477,0.10081
1886.28606,0.10074
1884.35734,0.10019
1882.42862,0.09930
1880.49990,0.09849
1878.57119,0.09811
1876.64247,0.09794
1874.71375,0.09784
1872.78503,0.09795
1870.85631,0.09841
1868.92760,0.09934
1866.99888,0.10062
1865.07016,0.10179
1863.14144,0.10266
1861.21272,0.10324
1859.28401,0.10362
1857.35529,0.10385
1855.42657,0.10378
1853.49785,0.10332
1851.56914,0.10265
1849.64042,0.10188
1847.71170,0.10097
1845.78298,0.09987
1843.85426,0.09872
1841.92555,0.09810
1839.99683,0.09818
1838.06811,0.09861
1836.13939,0.09917
1834.21067,0.09977
1832.28196,0.10048
1830.35324,0.10134
1828.42452,0.10204
1826.49580,0.10234
1824.56709,0.10238
1822.63837,0.10225
1820.70965,0.10191
1818.78093,0.10130
1816.85221,0.10059
1814.92350,0.09983
1812.99478,0.09892
1811.06606,0.09792
1809.13734,0.09721
1807.20863,0.09693
1805.27991,0.09690
1803.35119,0.09698
1801.42247,0.09741
1799.49375,0.09846
1797.56504,0.09976
1795.63632,0.10075
1793.70760,0.10145
1791.77888,0.10209
1789.85016,0.10250
1787.92145,0.10250
1785.99273,0.10206
1784.06401,0.10123
1782.13529,0.10018
1780.20658,0.09898
1778.27786,0.09788
1776.34914,0.09706
1774.42042,0.09628
1772.49170,0.09536
1770.56299,0.09487
1768.63427,0.09518
1766.70555,0.09594
1764.77683,0.09682
1762.84811,0.09769
1760.91940,0.09846
1758.99068,0.09903
1757.06196,0.09929
1755.13324,0.09908
1753.20453,0.09835
1751.27581,0.09687
1749.34709,0.09482
1747.41837,0.09316
1745.48965,0.09203
1743.56094,0.09113
1741.63222,0.09037
1739.70350,0.08998
1737.77478,0.09025
1735.84606,0.09084
1733.91735,0.09176
1731.98863,0.09334
1730.05991,0.09495
1728.13119,0.09608
1726.20248,0.09670
1724.27376,0.09713
1722.34504,0.09765
1720.41632,0.09809
1718.48760,0.09784
1716.55889,0.09656
1714.63017,0.09533
1712.70145,0.09471
1710.77273,0.09439
1708.84401,0.09399
1706.91530,0.09319
1704.98658,0.09228
1703.05786,0.09185
1701.12914,0.09197
1699.20043,0.09274
1697.27171,0.09401
1695.34299,0.09566
1693.41427,0.09729
1691.48555,0.09863
1689.55684,0.09980
1687.62812,0.10062
1685.69940,0.10087
1683.77068,0.10036
1681.84196,0.09944
1679.91325,0.09854
1677.98453,0.09750
1676.05581,0.09603
1674.12709,0.09432
1672.19838,0.09304
1670.26966,0.09209
1668.34094,0.09179
1666.41222,0.09237
1664.48350,0.09318
1662.55479,0.09420
1660.62607,0.09562
1658.69735,0.09712
1656.76863,0.09835
1654.83991,0.09908
1652.91120,0.09931
1650.98248,0.09958
1649.05376,0.09950
1647.12504,0.09823
1645.19633,0.09617
1643.26761,0.09476
1641.33889,0.09359
1639.41017,0.09234
1637.48145,0.09108
1635.55274,0.08983
1633.62402,0.08952
1631.69530,0.09014
1629.76658,0.09121
1627.83787,0.09259
1625.90915,0.09410
1623.98043,0.09571
1622.05171,0.09723
1620.12299,0.09818
1618.19428,0.09869
1616.26556,0.09886
1614.33684,0.09845
1612.40812,0.09752
1610.47940,0.09615
1608.55069,0.09438
1606.62197,0.09248
1604.69325,0.09089
1602.76453,0.08968
1600.83582,0.08883
1598.90710,0.08854
1596.97838,0.08894
1595.04966,0.09002
1593.12094,0.09157
1591.19223,0.09326
1589.26351,0.09482
1587.33479,0.09617
1585.40607,0.09725
1583.47735,0.09795
1581.54864,0.09818
1579.61992,0.09787
1577.69120,0.09677
1575.76248,0.09450
1573.83377,0.09217
1571.90505,0.09038
1569.97633,0.08843
1568.04761,0.08687
1566.11889,0.08641
1564.19018,0.08662
1562.26146,0.08717
1560.33274,0.08806
1558.40402,0.09012
1556.47530,0.09233
1554.54659,0.09389
1552.61787,0.09519
1550.68915,0.09613
1548.76043,0.09643
1546.83172,0.09595
1544.90300,0.09483
1542.97428,0.09324
1541.04556,0.09060
1539.11684,0.08700
1537.18813,0.08513
1535.25941,0.08404
1533.33069,0.08292
1531.40197,0.08264
1529.47325,0.08338
1527.54454,0.08477
1525.61582,0.08667
1523.68710,0.08860
1521.75838,0.09027
1519.82967,0.09139
1517.90095,0.09164
1515.97223,0.09106
1514.04351,0.08996
1512.11479,0.08850
1510.18608,0.08668
1508.25736,0.08366
1506.32864,0.07847
1504.39992,0.07575
1502.47120,0.07524
1500.54249,0.07510
1498.61377,0.07526
1496.68505,0.07614
1494.75633,0.07747
1492.82762,0.07839
1490.89890,0.07816
1488.97018,0.07565
1487.04146,0.07145
1485.11274,0.06723
1483.18403,0.06341
1481.25531,0.06028
1479.32659,0.05805
1477.39787,0.05596
1475.46915,0.05389
1473.54044,0.05382
1471.61172,0.05567
1469.68300,0.05666
1467.75428,0.05705
1465.82557,0.05800
1463.89685,0.06017
1461.96813,0.06245
1460.03941,0.06341
1458.11069,0.06263
1456.18198,0.06168
1454.25326,0.06204
1452.32454,0.06245
1450.39582,0.06250
1448.46711,0.06212
1446.53839,0.06150
1444.60967,0.06101
1442.68095,0.06067
1440.75223,0.06053
1438.82352,0.06080
1436.89480,0.06156
1434.96608,0.06302
1433.03736,0.06553
1431.10864,0.06952
1429.17993,0.07474
1427.25121,0.07947
1425.32249,0.08278
1423.39377,0.08450
1421.46506,0.08453
1419.53634,0.08279
1417.60762,0.08002
1415.67890,0.07808
1413.75018,0.07720
1411.82147,0.07740
1409.89275,0.07888
1407.96403,0.08139
1406.03531,0.08460
1404.10659,0.08814
1402.17788,0.09122
1400.24916,0.09350
1398.32044,0.09486
1396.39172,0.09481
1394.46301,0.09291
1392.53429,0.08977
1390.60557,0.08622
1388.67685,0.08175
1386.74813,0.07632
1384.81942,0.07141
1382.89070,0.06736
1380.96198,0.06393
1379.03326,0.06209
1377.10454,0.06244
1375.17583,0.06416
1373.24711,0.06590
1371.31839,0.06691
1369.38967,0.06775
1367.46096,0.06911
1365.53224,0.07102
1363.60352,0.07320
1361.67480,0.07494
1359.74608,0.07543
1357.81737,0.07473
1355.88865,0.07307
1353.95993,0.07084
1352.03121,0.06883
1350.10249,0.06757
1348.17378,0.06699
1346.24506,0.06690
1344.31634,0.06738
1342.38762,0.06861
1340.45891,0.07097
1338.53019,0.07476
1336.60147,0.07929
1334.67275,0.08347
1332.74403,0.08701
1330.81532,0.08990
1328.88660,0.09166
1326.95788,0.09167
1325.02916,0.08996
1323.10044,0.08700
1321.17173,0.08317
1319.24301,0.07875
1317.31429,0.07452
1315.38557,0.07113
1313.45686,0.06863
1311.52814,0.06718
1309.59942,0.06689
1307.67070,0.06755
1305.74198,0.06902
1303.81327,0.07111
1301.88455,0.07357
1299.95583,0.07638
1298.02711,0.07950
1296.09839,0.08253
1294.16968,0.08503
1292.24096,0.08665
1290.31224,0.08710
1288.38352,0.08647
1286.45481,0.08493
1284.52609,0.08246
1282.59737,0.07926
1280.66865,0.07615
1278.73993,0.07389
1276.81122,0.07260
1274.88250,0.07219
1272.95378,0.07287
1271.02506,0.07473
1269.09635,0.07760
1267.16763,0.08135
1265.23891,0.08565
1263.31019,0.08990
1261.38147,0.09350
1259.45276,0.09589
1257.52404,0.09686
1255.59532,0.09653
1253.66660,0.09501
1251.73788,0.09246
1249.80917,0.08920
1247.88045,0.08563
1245.95173,0.08218
1244.02301,0.07929
1242.09430,0.07741
1240.16558,0.07697
1238.23686,0.07794
1236.30814,0.08005
1234.37942,0.08313
1232.45071,0.08703
1230.52199,0.09124
1228.59327,0.09516
1226.66455,0.09842
1224.73583,0.10069
1222.80712,0.10157
1220.87840,0.10090
1218.94968,0.09886
1217.02096,0.09584
1215.09225,0.09215
1213.16353,0.08801
1211.23481,0.08395
1209.30609,0.08061
1207.37737,0.07829
1205.44866,0.07721
1203.51994,0.07764
1201.59122,0.07973
1199.66250,0.08312
1197.73378,0.08712
1195.80507,0.09132
1193.87635,0.09555
1191.94763,0.09930
1190.01891,0.10172
1188.09020,0.10232
1186.16148,0.10144
1184.23276,0.09950
1182.30404,0.09644
1180.37532,0.09234
1178.44661,0.08795
1176.51789,0.08391
1174.58917,0.08033
1172.66045,0.07751
1170.73173,0.07595
1168.80302,0.07600
1166.87430,0.07783
1164.94558,0.08110
1163.01686,0.08522
1161.08815,0.08981
1159.15943,0.09430
1157.23071,0.09803
1155.30199,0.10070
1153.37327,0.10218
1151.44456,0.10221
1149.51584,0.10062
1147.58712,0.09751
1145.65840,0.09339
1143.72968,0.08896
1141.80097,0.08497
1139.87225,0.08172
1137.94353,0.07907
1136.01481,0.07729
1134.08610,0.07695
1132.15738,0.07830
1130.22866,0.08141
1128.29994,0.08593
1126.37122,0.09107
1124.44251,0.09613
1122.51379,0.10063
1120.58507,0.10405
1118.65635,0.10597
1116.72763,0.10617
1114.79892,0.10473
1112.87020,0.10185
1110.94148,0.09784
1109.01276,0.09313
1107.08405,0.08818
1105.15533,0.08364
1103.22661,0.08011
1101.29789,0.07784
1099.36917,0.07713
1097.44046,0.07832
1095.51174,0.08125
1093.58302,0.08502
1091.65430,0.08904
1089.72559,0.09332
1087.79687,0.09740
1085.86815,0.10054
1083.93943,0.10240
1082.01071,0.10274
1080.08200,0.10171
1078.15328,0.09996
1076.22456,0.09765
1074.29584,0.09442
1072.36712,0.09034
1070.43841,0.08599
1068.50969,0.08200
1066.58097,0.07903
1064.65225,0.07777
1062.72354,0.07827
1060.79482,0.08044
1058.86610,0.08446
1056.93738,0.08977
1055.00866,0.09522
1053.07995,0.10009
1051.15123,0.10422
1049.22251,0.10742
1047.29379,0.10926
1045.36507,0.10953
1043.43636,0.10818
1041.50764,0.10492
1039.57892,0.09982
1037.65020,0.09399
1035.72149,0.08866
1033.79277,0.08433
1031.86405,0.08101
1029.93533,0.07913
1028.00661,0.07945
1026.07790,0.08186
1024.14918,0.08549
1022.22046,0.08986
1020.29174,0.09471
1018.36302,0.09961
1016.43431,0.10435
1014.50559,0.10860
1012.57687,0.11163
1010.64815,0.11299
1008.71944,0.11258
1006.79072,0.11015
1004.86200,0.10580
1002.93328,0.10038
1001.00456,0.09478
999.07585,0.08960
997.14713,0.08527
995.21841,0.08221
993.28969,0.08109
991.36097,0.08238
989.43226,0.08584
987.50354,0.09088
985.57482,0.09684
983.64610,0.10294
981.71739,0.10820
979.78867,0.11195
977.85995,0.11405
975.93123,0.11432
974.00251,0.11246
972.07380,0.10871
970.14508,0.10351
968.21636,0.09742
966.28764,0.09120
964.35892,0.08549
962.43021,0.08094
960.50149,0.07811
958.57277,0.07713
956.64405,0.07822
954.71534,0.08162
952.78662,0.08691
950.85790,0.09320
948.92918,0.09958
947.00046,0.10555
945.07175,0.11080
943.14303,0.11439
941.21431,0.11552
939.28559,0.11428
937.35687,0.11092
935.42816,0.10577
933.49944,0.09940
931.57072,0.09258
929.64200,0.08620
927.71329,0.08100
925.78457,0.07746
923.85585,0.07612
921.92713,0.07731
919.99841,0.08075
918.06970,0.08567
916.14098,0.09164
914.21226,0.09834
912.28354,0.10490
910.35483,0.11020
908.42611,0.11374
906.49739,0.11550
904.56867,0.11493
902.63995,0.11174
900.71124,0.10668
898.78252,0.10048
896.85380,0.09350
894.92508,0.08653
892.99636,0.08071
891.06765,0.07675
889.13893,0.07487
887.21021,0.07517
885.28149,0.07788
883.35278,0.08309
881.42406,0.09018
879.49534,0.09798
877.56662,0.10549
875.63790,0.11191
873.70919,0.11627
871.78047,0.11802
869.85175,0.11709
867.92303,0.11365
865.99431,0.10818
864.06560,0.10125
862.13688,0.09362
860.20816,0.08643
858.27944,0.08048
856.35073,0.07603
854.42201,0.07367
852.49329,0.07426
850.56457,0.07760
848.63585,0.08291
846.70714,0.08982
844.77842,0.09788
842.84970,0.10559
840.92098,0.11153
838.99226,0.11556
837.06355,0.11765
835.13483,0.11722
833.20611,0.11391
831.27739,0.10812
829.34868,0.10086
827.41996,0.09316
825.49124,0.08569
823.56252,0.07909
821.63380,0.07400
819.70509,0.07132
817.77637,0.07176
815.84765,0.07511
813.91893,0.08083
811.99021,0.08827
810.06150,0.09623
808.13278,0.10367
806.20406,0.10992
804.27534,0.11412
802.34663,0.11538
800.41791,0.11370
798.48919,0.10967
796.56047,0.10354
794.63175,0.09568
792.70304,0.08701
790.77432,0.07862
788.84560,0.07159
786.91688,0.06687
784.98816,0.06515
783.05945,0.06639
781.13073,0.06999
779.20201,0.07535
777.27329,0.08184
775.34458,0.08892
773.41586,0.09571
771.48714,0.10121
769.55842,0.10497
767.62970,0.10631
765.70099,0.10454
763.77227,0.09992
761.84355,0.09304
759.91483,0.08464
757.98611,0.07590
756.05740,0.06812
754.12868,0.06244
752.19996,0.05984
750.27124,0.06097
748.34253,0.06543
746.41381,0.07196
744.48509,0.07912
742.55637,0.08470
740.62765,0.08608
738.69894,0.08169
736.77022,0.07197
734.84150,0.06069
732.91278,0.05366
730.98407,0.05327
729.05535,0.05613
727.12663,0.05769
725.19791,0.05690
723.26919,0.05597
721.34048,0.05714
719.41176,0.06028
717.48304,0.06412
715.55432,0.06881
713.62560,0.07413
711.69689,0.07726
709.76817,0.07564
707.83945,0.06980
705.91073,0.06333
703.98202,0.06007
702.05330,0.06125
700.12458,0.06691
698.19586,0.07722
696.26714,0.09066
694.33843,0.10437
692.40971,0.11617
690.48099,0.12445
688.55227,0.12783
686.62355,0.12588
684.69484,0.11936
682.76612,0.10953
680.83740,0.09795
678.90868,0.08629
676.97997,0.07608
675.05125,0.06867
673.12253,0.06483
671.19381,0.06477
669.26509,0.06923
667.33638,0.07944
665.40766,0.09248
663.47894,0.10514
661.55022,0.11695
659.62150,0.12669
657.69279,0.13311
655.76407,0.13592
653.83535,0.13456
651.90663,0.12837
649.97792,0.11829
648.04920,0.10646
646.12048,0.09453
644.19176,0.08290
642.26304,0.07237
640.33433,0.06481
638.40561,0.06184
636.47689,0.06437
634.54817,0.07218
632.61945,0.08337
630.69074,0.09573
628.76202,0.10811
626.83330,0.11996
624.90458,0.13066
622.97587,0.13850
621.04715,0.14124
619.11843,0.13800
617.18971,0.12974
615.26099,0.11897
613.33228,0.10736
611.40356,0.09465
609.47484,0.08155
607.54612,0.07023
605.61740,0.06339
603.68869,0.06249
601.75997,0.06560
599.83125,0.07099
