7497.19974,0.10646
7495.27095,0.10598
7493.34216,0.10098
7491.41337,0.09844
7489.48459,0.09658
7487.55580,0.09228
7485.62701,0.08892
7483.69822,0.09054
7481.76943,0.09592
7479.84065,0.09669
7477.91186,0.09153
7475.98307,0.09238
7474.05428,0.10085
7472.12549,0.10803
7470.19670,0.10948
7468.26792,0.10498
7466.33913,0.10096
7464.41034,0.10492
7462.48155,0.11013
7460.55276,0.10700
7458.62398,0.09982
7456.69519,0.09878
7454.76640,0.10398
7452.83761,0.10674
7450.90882,0.10467
7448.98003,0.10513
7447.05125,0.10935
7445.12246,0.11271
7443.19367,0.11375
7441.26488,0.11232
7439.33609,0.10999
7437.40731,0.10762
7435.47852,0.10410
7433.54973,0.10282
7431.62094,0.10492
7429.69215,0.10614
7427.76336,0.10668
7425.83458,0.10792
7423.90579,0.10539
7421.97700,0.10113
7420.04821,0.09961
7418.11942,0.09461
7416.19063,0.08687
7414.26185,0.08704
7412.33306,0.09255
7410.40427,0.09582
7408.47548,0.09744
7406.54669,0.09829
7404.61791,0.09591
7402.68912,0.09180
7400.76033,0.09212
7398.83154,0.09850
7396.90275,0.10153
7394.97396,0.09724
7393.04518,0.09207
7391.11639,0.09210
7389.18760,0.09644
7387.25881,0.09907
7385.33002,0.09737
7383.40124,0.09708
7381.47245,0.10098
7379.54366,0.10447
7377.61487,0.10589
7375.68608,0.10620
7373.75729,0.10342
7371.82851,0.09905
7369.89972,0.09926
7367.97093,0.10517
7366.04214,0.10925
7364.11335,0.11108
7362.18457,0.11417
7360.25578,0.11181
7358.32699,0.10237
7356.39820,0.09777
7354.46941,0.10183
7352.54062,0.10634
7350.61184,0.10567
7348.68305,0.10022
7346.75426,0.09410
7344.82547,0.09254
7342.89668,0.09704
7340.96790,0.10153
7339.03911,0.10149
7337.11032,0.10031
7335.18153,0.09828
7333.25274,0.09504
7331.32395,0.09454
7329.39517,0.10047
7327.46638,0.10602
7325.53759,0.10086
7323.60880,0.09378
7321.68001,0.09475
7319.75122,0.09459
7317.82244,0.08909
7315.89365,0.08705
7313.96486,0.09289
7312.03607,0.10331
7310.10728,0.11293
7308.17850,0.11644
7306.24971,0.11576
7304.32092,0.11431
7302.39213,0.10958
7300.46334,0.10269
7298.53455,0.09932
7296.60577,0.09977
7294.67698,0.10080
7292.74819,0.09867
7290.81940,0.09642
7288.89061,0.10087
7286.96183,0.10615
7285.03304,0.10231
7283.10425,0.09454
7281.17546,0.09266
7279.24667,0.09719
7277.31788,0.10169
7275.38910,0.10212
7273.46031,0.10113
7271.53152,0.10072
7269.60273,0.09803
7267.67394,0.09412
7265.74516,0.09403
7263.81637,0.09820
7261.88758,0.10252
7259.95879,0.10383
7258.03000,0.10142
7256.10121,0.09858
7254.17243,0.09790
7252.24364,0.09752
7250.31485,0.09760
7248.38606,0.09893
7246.45727,0.09996
7244.52848,0.10071
7242.59970,0.10205
7240.67091,0.10388
7238.74212,0.10405
7236.81333,0.10158
7234.88454,0.09937
7232.95576,0.09967
7231.02697,0.10154
7229.09818,0.10238
7227.16939,0.10085
7225.24060,0.10091
7223.31181,0.10408
7221.38303,0.10754
7219.45424,0.10842
7217.52545,0.10431
7215.59666,0.09865
7213.66787,0.09804
7211.73909,0.10109
7209.81030,0.10315
7207.88151,0.10219
7205.95272,0.10051
7204.02393,0.10122
7202.09514,0.10340
7200.16636,0.10428
7198.23757,0.10312
7196.30878,0.10124
7194.37999,0.10085
7192.45120,0.10261
7190.52242,0.10488
7188.59363,0.10444
7186.66484,0.09943
7184.73605,0.09400
7182.80726,0.09371
7180.87847,0.09629
7178.94969,0.09830
7177.02090,0.10160
7175.09211,0.10258
7173.16332,0.09651
7171.23453,0.09133
7169.30575,0.09462
7167.37696,0.10009
7165.44817,0.10039
7163.51938,0.09689
7161.59059,0.09442
7159.66180,0.09665
7157.73302,0.10141
7155.80423,0.10204
7153.87544,0.09642
7151.94665,0.09234
7150.01786,0.09302
7148.08907,0.09290
7146.16029,0.09215
7144.23150,0.09382
7142.30271,0.09520
7140.37392,0.09452
7138.44513,0.09331
7136.51635,0.09348
7134.58756,0.09450
7132.65877,0.09704
7130.72998,0.10167
7128.80119,0.10460
7126.87240,0.10383
7124.94362,0.10122
7123.01483,0.09829
7121.08604,0.09673
7119.15725,0.09642
7117.22846,0.09546
7115.29968,0.09507
7113.37089,0.09678
7111.44210,0.09810
7109.51331,0.09775
7107.58452,0.09751
7105.65573,0.09938
7103.72695,0.10295
7101.79816,0.10523
7099.86937,0.10445
7097.94058,0.10321
7096.01179,0.10495
7094.08301,0.10883
7092.15422,0.11157
7090.22543,0.10965
7088.29664,0.10245
7086.36785,0.09790
7084.43906,0.09983
7082.51028,0.10256
7080.58149,0.10339
7078.65270,0.10184
7076.72391,0.09768
7074.79512,0.09543
7072.86634,0.09884
7070.93755,0.10365
7069.00876,0.10389
7067.07997,0.10167
7065.15118,0.10171
7063.22239,0.10312
7061.29361,0.10241
7059.36482,0.10049
7057.43603,0.09915
7055.50724,0.09697
7053.57845,0.09412
7051.64966,0.09355
7049.72088,0.09560
7047.79209,0.09974
7045.86330,0.10642
7043.93451,0.11105
7042.00572,0.10777
7040.07694,0.10007
7038.14815,0.09521
7036.21936,0.09519
7034.29057,0.09610
7032.36178,0.09437
7030.43299,0.09280
7028.50421,0.09569
7026.57542,0.10040
7024.64663,0.10280
7022.71784,0.10176
7020.78905,0.09939
7018.86027,0.10074
7016.93148,0.10559
7015.00269,0.10688
7013.07390,0.10233
7011.14511,0.09675
7009.21632,0.09509
7007.28754,0.09731
7005.35875,0.09880
7003.42996,0.09907
7001.50117,0.10102
6999.57238,0.10267
6997.64360,0.10067
6995.71481,0.09587
6993.78602,0.09171
6991.85723,0.09196
6989.92844,0.09650
6987.99965,0.09831
6986.07087,0.09516
6984.14208,0.09511
6982.21329,0.10067
6980.28450,0.10537
6978.35571,0.10618
6976.42692,0.10428
6974.49814,0.10089
6972.56935,0.09826
6970.64056,0.09919
6968.71177,0.10344
6966.78298,0.10764
6964.85420,0.10786
6962.92541,0.10341
6960.99662,0.09857
6959.06783,0.09671
6957.13904,0.09579
6955.21025,0.09638
6953.28147,0.10098
6951.35268,0.10468
6949.42389,0.10365
6947.49510,0.10289
6945.56631,0.10439
6943.63753,0.10535
6941.70874,0.10513
6939.77995,0.10409
6937.85116,0.10223
6935.92237,0.10018
6933.99358,0.09899
6932.06480,0.09873
6930.13601,0.09809
6928.20722,0.09716
6926.27843,0.09609
6924.34964,0.09525
6922.42086,0.09590
6920.49207,0.09747
6918.56328,0.09953
6916.63449,0.10287
6914.70570,0.10428
6912.77691,0.10185
6910.84813,0.10060
6908.91934,0.10377
6906.99055,0.10729
6905.06176,0.10653
6903.13297,0.10335
6901.20419,0.10246
6899.27540,0.10291
6897.34661,0.10214
6895.41782,0.10206
6893.48903,0.10326
6891.56024,0.10287
6889.63146,0.10044
6887.70267,0.09967
6885.77388,0.10351
6883.84509,0.10719
6881.91630,0.10506
6879.98751,0.10103
6878.05873,0.10051
6876.12994,0.10250
6874.20115,0.10571
6872.27236,0.10928
6870.34357,0.11079
6868.41479,0.10919
6866.48600,0.10491
6864.55721,0.09889
6862.62842,0.09513
6860.69963,0.09625
6858.77084,0.09760
6856.84206,0.09730
6854.91327,0.10031
6852.98448,0.10728
6851.05569,0.11313
6849.12690,0.11218
6847.19812,0.10520
6845.26933,0.09964
6843.34054,0.09896
6841.41175,0.10166
6839.48296,0.10516
6837.55417,0.10632
6835.62539,0.10473
6833.69660,0.10208
6831.76781,0.09938
6829.83902,0.09802
6827.91023,0.09870
6825.98145,0.10023
6824.05266,0.10122
6822.12387,0.10219
6820.19508,0.10336
6818.26629,0.10217
6816.33750,0.09937
6814.40872,0.10007
6812.47993,0.10455
6810.55114,0.10627
6808.62235,0.10389
6806.69356,0.10379
6804.76478,0.10660
6802.83599,0.10658
6800.90720,0.10357
6798.97841,0.10231
6797.04962,0.10362
6795.12083,0.10395
6793.19205,0.10318
6791.26326,0.10441
6789.33447,0.10699
6787.40568,0.10764
6785.47689,0.10587
6783.54810,0.10462
6781.61932,0.10540
6779.69053,0.10614
6777.76174,0.10593
6775.83295,0.10585
6773.90416,0.10478
6771.97538,0.10391
6770.04659,0.10552
6768.11780,0.10517
6766.18901,0.10253
6764.26022,0.10227
6762.33143,0.10226
6760.40265,0.10059
6758.47386,0.09970
6756.54507,0.09939
6754.61628,0.09974
6752.68749,0.10137
6750.75871,0.10192
6748.82992,0.10178
6746.90113,0.10365
6744.97234,0.10561
6743.04355,0.10557
6741.11476,0.10442
6739.18598,0.10416
6737.25719,0.10572
6735.32840,0.10621
6733.39961,0.10331
6731.47082,0.10008
6729.54204,0.09899
6727.61325,0.09908
6725.68446,0.10063
6723.75567,0.10291
6721.82688,0.10278
6719.89809,0.10084
6717.96931,0.09957
6716.04052,0.09991
6714.11173,0.10182
6712.18294,0.10358
6710.25415,0.10431
6708.32536,0.10505
6706.39658,0.10431
6704.46779,0.10135
6702.53900,0.09915
6700.61021,0.09915
6698.68142,0.10108
6696.75264,0.10354
6694.82385,0.10369
6692.89506,0.10161
6690.96627,0.10067
6689.03748,0.10200
6687.10869,0.10224
6685.17991,0.09981
6683.25112,0.09732
6681.32233,0.09662
6679.39354,0.09721
6677.46475,0.09811
6675.53597,0.09968
6673.60718,0.10182
6671.67839,0.10319
6669.74960,0.10305
6667.82081,0.10140
6665.89202,0.10104
6663.96324,0.10251
6662.03445,0.10218
6660.10566,0.10036
6658.17687,0.09947
6656.24808,0.09936
6654.31930,0.10025
6652.39051,0.10137
6650.46172,0.10185
6648.53293,0.10327
6646.60414,0.10443
6644.67535,0.10280
6642.74657,0.10011
6640.81778,0.09967
6638.88899,0.10271
6636.96020,0.10693
6635.03141,0.10917
6633.10263,0.10866
6631.17384,0.10601
6629.24505,0.10210
6627.31626,0.09867
6625.38747,0.09798
6623.45868,0.09922
6621.52990,0.09917
6619.60111,0.09954
6617.67232,0.10177
6615.74353,0.10173
6613.81474,0.09917
6611.88595,0.09887
6609.95717,0.10084
6608.02838,0.10223
6606.09959,0.10264
6604.17080,0.10110
6602.24201,0.09795
6600.31323,0.09697
6598.38444,0.09873
6596.45565,0.10016
6594.52686,0.10056
6592.59807,0.10073
6590.66928,0.10125
6588.74050,0.10381
6586.81171,0.10714
6584.88292,0.10724
6582.95413,0.10377
6581.02534,0.09924
6579.09656,0.09658
6577.16777,0.09760
6575.23898,0.09923
6573.31019,0.09861
6571.38140,0.09839
6569.45261,0.10051
6567.52383,0.10266
6565.59504,0.10243
6563.66625,0.09988
6561.73746,0.09639
6559.80867,0.09407
6557.87989,0.09553
6555.95110,0.10000
6554.02231,0.10285
6552.09352,0.10189
6550.16473,0.09964
6548.23594,0.09941
6546.30716,0.10183
6544.37837,0.10468
6542.44958,0.10557
6540.52079,0.10374
6538.59200,0.10075
6536.66322,0.09927
6534.73443,0.09985
6532.80564,0.10055
6530.87685,0.10033
6528.94806,0.10096
6527.01927,0.10333
6525.09049,0.10448
6523.16170,0.10368
6521.23291,0.10307
6519.30412,0.10283
6517.37533,0.10355
6515.44654,0.10489
6513.51776,0.10373
6511.58897,0.10034
6509.66018,0.09791
6507.73139,0.09858
6505.80260,0.10228
6503.87382,0.10674
6501.94503,0.11001
6500.01624,0.11056
6498.08745,0.10774
6496.15866,0.10436
6494.22987,0.10362
6492.30109,0.10460
6490.37230,0.10435
6488.44351,0.10330
6486.51472,0.10291
6484.58593,0.10153
6482.65715,0.09911
6480.72836,0.09905
6478.79957,0.10220
6476.87078,0.10528
6474.94199,0.10578
6473.01320,0.10484
6471.08442,0.10378
6469.15563,0.10219
6467.22684,0.10082
6465.29805,0.10162
6463.36926,0.10417
6461.44048,0.10511
6459.51169,0.10388
6457.58290,0.10375
6455.65411,0.10468
6453.72532,0.10337
6451.79653,0.10054
6449.86775,0.09966
6447.93896,0.10038
6446.01017,0.10115
6444.08138,0.10207
6442.15259,0.10251
6440.22380,0.10256
6438.29502,0.10316
6436.36623,0.10300
6434.43744,0.10077
6432.50865,0.09769
6430.57986,0.09612
6428.65108,0.09728
6426.72229,0.09965
6424.79350,0.09996
6422.86471,0.09806
6420.93592,0.09707
6419.00713,0.09756
6417.07835,0.09791
6415.14956,0.09798
6413.22077,0.09843
6411.29198,0.09880
6409.36319,0.09850
6407.43441,0.09917
6405.50562,0.10197
6403.57683,0.10490
6401.64804,0.10584
6399.71925,0.10520
6397.79046,0.10362
6395.86168,0.10125
6393.93289,0.09996
6392.00410,0.10151
6390.07531,0.10395
6388.14652,0.10467
6386.21774,0.10423
6384.28895,0.10398
6382.36016,0.10294
6380.43137,0.10134
6378.50258,0.10058
6376.57379,0.09989
6374.64501,0.09910
6372.71622,0.09920
6370.78743,0.09986
6368.85864,0.10114
6366.92985,0.10352
6365.00107,0.10591
6363.07228,0.10652
6361.14349,0.10485
6359.21470,0.10203
6357.28591,0.09997
6355.35712,0.09904
6353.42834,0.09873
6351.49955,0.09926
6349.57076,0.10046
6347.64197,0.10178
6345.71318,0.10219
6343.78439,0.10106
6341.85561,0.10018
6339.92682,0.10130
6337.99803,0.10376
6336.06924,0.10498
6334.14045,0.10350
6332.21167,0.10182
6330.28288,0.10181
6328.35409,0.10166
6326.42530,0.10134
6324.49651,0.10199
6322.56772,0.10278
6320.63894,0.10411
6318.71015,0.10537
6316.78136,0.10396
6314.85257,0.10134
6312.92378,0.10054
6310.99500,0.10156
6309.06621,0.10390
6307.13742,0.10690
6305.20863,0.10842
6303.27984,0.10757
6301.35105,0.10565
6299.42227,0.10367
6297.49348,0.10218
6295.56469,0.10120
6293.63590,0.10122
6291.70711,0.10265
6289.77833,0.10306
6287.84954,0.10185
6285.92075,0.10169
6283.99196,0.10239
6282.06317,0.10251
6280.13438,0.10362
6278.20560,0.10593
6276.27681,0.10585
6274.34802,0.10324
6272.41923,0.10096
6270.49044,0.09991
6268.56165,0.10047
6266.63287,0.10154
6264.70408,0.10207
6262.77529,0.10282
6260.84650,0.10365
6258.91771,0.10393
6256.98893,0.10398
6255.06014,0.10503
6253.13135,0.10639
6251.20256,0.10664
6249.27377,0.10658
6247.34498,0.10503
6245.41620,0.09983
6243.48741,0.09476
6241.55862,0.09556
6239.62983,0.09944
6237.70104,0.10052
6235.77226,0.09988
6233.84347,0.10025
6231.91468,0.10148
6229.98589,0.10256
6228.05710,0.10195
6226.12831,0.10024
6224.19953,0.09970
6222.27074,0.10020
6220.34195,0.10074
6218.41316,0.10179
6216.48437,0.10358
6214.55559,0.10532
6212.62680,0.10545
6210.69801,0.10364
6208.76922,0.10153
6206.84043,0.10067
6204.91164,0.10155
6202.98286,0.10328
6201.05407,0.10476
6199.12528,0.10521
6197.19649,0.10433
6195.26770,0.10399
6193.33892,0.10500
6191.41013,0.10516
6189.48134,0.10345
6187.55255,0.10168
6185.62376,0.10078
6183.69497,0.10039
6181.76619,0.10187
6179.83740,0.10436
6177.90861,0.10354
6175.97982,0.10119
6174.05103,0.10227
6172.12224,0.10414
6170.19346,0.10283
6168.26467,0.10092
6166.33588,0.10099
6164.40709,0.10114
6162.47830,0.10003
6160.54952,0.10025
6158.62073,0.10349
6156.69194,0.10635
6154.76315,0.10485
6152.83436,0.10098
6150.90557,0.09964
6148.97679,0.10049
6147.04800,0.10059
6145.11921,0.10048
6143.19042,0.10127
6141.26163,0.10226
6139.33285,0.10256
6137.40406,0.10252
6135.47527,0.10248
6133.54648,0.10232
6131.61769,0.10230
6129.68890,0.10174
6127.76012,0.10006
6125.83133,0.09866
6123.90254,0.09879
6121.97375,0.10036
6120.04496,0.10264
6118.11618,0.10375
6116.18739,0.10214
6114.25860,0.10032
6112.32981,0.10091
6110.40102,0.10207
6108.47223,0.10215
6106.54345,0.10193
6104.61466,0.10151
6102.68587,0.10111
6100.75708,0.10184
6098.82829,0.10338
6096.89951,0.10434
6094.97072,0.10432
6093.04193,0.10304
6091.11314,0.10103
6089.18435,0.10045
6087.25556,0.10148
6085.32678,0.10227
6083.39799,0.10204
6081.46920,0.10123
6079.54041,0.10120
6077.61162,0.10102
6075.68283,0.09852
6073.75405,0.09613
6071.82526,0.09675
6069.89647,0.09877
6067.96768,0.09989
6066.03889,0.09950
6064.11011,0.09867
6062.18132,0.09900
6060.25253,0.10011
6058.32374,0.10018
6056.39495,0.09921
6054.46616,0.09887
6052.53738,0.09950
6050.60859,0.09953
6048.67980,0.09789
6046.75101,0.09611
6044.82222,0.09623
6042.89344,0.09770
6040.96465,0.09860
6039.03586,0.09841
6037.10707,0.09833
6035.17828,0.09948
6033.24949,0.10131
6031.32071,0.10179
6029.39192,0.10064
6027.46313,0.09954
6025.53434,0.09836
6023.60555,0.09736
6021.67677,0.09764
6019.74798,0.09799
6017.81919,0.09739
6015.89040,0.09723
6013.96161,0.09878
6012.03282,0.10067
6010.10404,0.10116
6008.17525,0.10004
6006.24646,0.09783
6004.31767,0.09625
6002.38888,0.09674
6000.46009,0.09778
5998.53131,0.09770
5996.60252,0.09761
5994.67373,0.09825
5992.74494,0.09829
5990.81615,0.09806
5988.88737,0.09785
5986.95858,0.09675
5985.02979,0.09599
5983.10100,0.09680
5981.17221,0.09821
5979.24342,0.09970
5977.31464,0.10058
5975.38585,0.09963
5973.45706,0.09755
5971.52827,0.09624
5969.59948,0.09665
5967.67070,0.09839
5965.74191,0.10058
5963.81312,0.10171
5961.88433,0.10048
5959.95554,0.09916
5958.02675,0.09988
5956.09797,0.10078
5954.16918,0.10050
5952.24039,0.10011
5950.31160,0.10039
5948.38281,0.10062
5946.45403,0.10036
5944.52524,0.10075
5942.59645,0.10120
5940.66766,0.09977
5938.73887,0.09783
5936.81008,0.09752
5934.88130,0.09742
5932.95251,0.09673
5931.02372,0.09709
5929.09493,0.09813
5927.16614,0.09790
5925.23736,0.09650
5923.30857,0.09557
5921.37978,0.09568
5919.45099,0.09597
5917.52220,0.09567
5915.59341,0.09460
5913.66463,0.09387
5911.73584,0.09431
5909.80705,0.09496
5907.87826,0.09510
5905.94947,0.09437
5904.02068,0.09302
5902.09190,0.09268
5900.16311,0.09404
5898.23432,0.09565
5896.30553,0.09599
5894.37674,0.09542
5892.44796,0.09508
5890.51917,0.09484
5888.59038,0.09396
5886.66159,0.09277
5884.73280,0.09244
5882.80401,0.09268
5880.87523,0.09189
5878.94644,0.09035
5877.01765,0.08969
5875.08886,0.09068
5873.16007,0.09287
5871.23129,0.09383
5869.30250,0.09240
5867.37371,0.09097
5865.44492,0.09057
5863.51613,0.08989
5861.58734,0.08889
5859.65856,0.08816
5857.72977,0.08736
5855.80098,0.08668
5853.87219,0.08680
5851.94340,0.08766
5850.01462,0.08865
5848.08583,0.08851
5846.15704,0.08692
5844.22825,0.08584
5842.29946,0.08592
5840.37067,0.08618
5838.44189,0.08621
5836.51310,0.08612
5834.58431,0.08613
5832.65552,0.08568
5830.72673,0.08434
5828.79795,0.08322
5826.86916,0.08365
5824.94037,0.08535
5823.01158,0.08656
5821.08279,0.08630
5819.15400,0.08524
5817.22522,0.08469
5815.29643,0.08540
5813.36764,0.08647
5811.43885,0.08661
5809.51006,0.08656
5807.58127,0.08731
5805.65249,0.08829
5803.72370,0.08945
5801.79491,0.09037
5799.86612,0.09000
5797.93733,0.08900
5796.00855,0.08878
5794.07976,0.08999
5792.15097,0.09156
5790.22218,0.09230
5788.29339,0.09269
5786.36460,0.09275
5784.43582,0.09219
5782.50703,0.09184
5780.57824,0.09206
5778.64945,0.09223
5776.72066,0.09211
5774.79188,0.09200
5772.86309,0.09207
5770.93430,0.09223
5769.00551,0.09225
5767.07672,0.09227
5765.14793,0.09229
5763.21915,0.09235
5761.29036,0.09274
5759.36157,0.09362
5757.43278,0.09480
5755.50399,0.09513
5753.57521,0.09439
5751.64642,0.09386
5749.71763,0.09355
5747.78884,0.09283
5745.86005,0.09190
5743.93126,0.09152
5742.00248,0.09233
5740.07369,0.09392
5738.14490,0.09534
5736.21611,0.09588
5734.28732,0.09504
5732.35853,0.09443
5730.42975,0.09563
5728.50096,0.09600
5726.57217,0.09395
5724.64338,0.09190
5722.71459,0.09094
5720.78581,0.09072
5718.85702,0.09116
5716.92823,0.09174
5714.99944,0.09224
5713.07065,0.09284
5711.14186,0.09311
5709.21308,0.09291
5707.28429,0.09283
5705.35550,0.09278
5703.42671,0.09235
5701.49792,0.09191
5699.56914,0.09202
5697.64035,0.09298
5695.71156,0.09426
5693.78277,0.09490
5691.85398,0.09473
5689.92519,0.09442
5687.99641,0.09412
5686.06762,0.09314
5684.13883,0.09184
5682.21004,0.09201
5680.28125,0.09379
5678.35247,0.09549
5676.42368,0.09640
5674.49489,0.09658
5672.56610,0.09626
5670.63731,0.09599
5668.70852,0.09525
5666.77974,0.09407
5664.85095,0.09398
5662.92216,0.09497
5660.99337,0.09510
5659.06458,0.09420
5657.13580,0.09386
5655.20701,0.09452
5653.27822,0.09606
5651.34943,0.09778
5649.42064,0.09801
5647.49185,0.09717
5645.56307,0.09685
5643.63428,0.09693
5641.70549,0.09708
5639.77670,0.09726
5637.84791,0.09689
5635.91912,0.09603
5633.99034,0.09517
5632.06155,0.09454
5630.13276,0.09414
5628.20397,0.09395
5626.27518,0.09414
5624.34640,0.09490
5622.41761,0.09618
5620.48882,0.09781
5618.56003,0.09928
5616.63124,0.09980
5614.70245,0.09924
5612.77367,0.09814
5610.84488,0.09690
5608.91609,0.09651
5606.98730,0.09783
5605.05851,0.09973
5603.12973,0.10035
5601.20094,0.10004
5599.27215,0.09987
5597.34336,0.09919
5595.41457,0.09813
5593.48578,0.09798
5591.55700,0.09846
5589.62821,0.09876
5587.69942,0.09906
5585.77063,0.09988
5583.84184,0.10096
5581.91306,0.10136
5579.98427,0.10065
5578.05548,0.09966
5576.12669,0.09919
5574.19790,0.09927
5572.26911,0.09930
5570.34033,0.09848
5568.41154,0.09778
5566.48275,0.09870
5564.55396,0.10070
5562.62517,0.10217
5560.69639,0.10152
5558.76760,0.09930
5556.83881,0.09795
5554.91002,0.09783
5552.98123,0.09806
5551.05244,0.09870
5549.12366,0.09942
5547.19487,0.09926
5545.26608,0.09820
5543.33729,0.09743
5541.40850,0.09756
5539.47971,0.09819
5537.55093,0.09915
5535.62214,0.09974
5533.69335,0.09903
5531.76456,0.09769
5529.83577,0.09639
5527.90699,0.09620
5525.97820,0.09812
5524.04941,0.09994
5522.12062,0.10003
5520.19183,0.09975
5518.26304,0.09951
5516.33426,0.09917
5514.40547,0.09908
5512.47668,0.09890
5510.54789,0.09844
5508.61910,0.09833
5506.69032,0.09880
5504.76153,0.09927
5502.83274,0.09926
5500.90395,0.09877
5498.97516,0.09818
5497.04637,0.09771
5495.11759,0.09732
5493.18880,0.09744
5491.26001,0.09804
5489.33122,0.09835
5487.40243,0.09855
5485.47365,0.09897
5483.54486,0.09904
5481.61607,0.09906
5479.68728,0.09977
5477.75849,0.10036
5475.82970,0.10007
5473.90092,0.09958
5471.97213,0.09926
5470.04334,0.09886
5468.11455,0.09834
5466.18576,0.09783
5464.25697,0.09809
5462.32819,0.09913
5460.39940,0.09971
5458.47061,0.09989
5456.54182,0.09991
5454.61303,0.09918
5452.68425,0.09857
5450.75546,0.09908
5448.82667,0.10000
5446.89788,0.10044
5444.96909,0.10022
5443.04030,0.09990
5441.11152,0.09980
5439.18273,0.09981
5437.25394,0.09971
5435.32515,0.09954
5433.39636,0.09960
5431.46758,0.09916
5429.53879,0.09811
5427.61000,0.09813
5425.68121,0.09888
5423.75242,0.09870
5421.82363,0.09793
5419.89485,0.09763
5417.96606,0.09821
5416.03727,0.09939
5414.10848,0.10010
5412.17969,0.09954
5410.25091,0.09888
5408.32212,0.09949
5406.39333,0.10061
5404.46454,0.10090
5402.53575,0.10085
5400.60696,0.10155
5398.67818,0.10229
5396.74939,0.10114
5394.82060,0.09832
5392.89181,0.09724
5390.96302,0.09868
5389.03424,0.09977
5387.10545,0.09955
5385.17666,0.09958
5383.24787,0.10059
5381.31908,0.10159
5379.39029,0.10197
5377.46151,0.10147
5375.53272,0.09982
5373.60393,0.09852
5371.67514,0.09851
5369.74635,0.09889
5367.81756,0.09965
5365.88878,0.10066
5363.95999,0.10115
5362.03120,0.10128
5360.10241,0.10103
5358.17362,0.10072
5356.24484,0.10132
5354.31605,0.10210
5352.38726,0.10187
5350.45847,0.10113
5348.52968,0.10053
5346.60089,0.09982
5344.67211,0.09910
5342.74332,0.09906
5340.81453,0.09902
5338.88574,0.09865
5336.95695,0.09935
5335.02817,0.10108
5333.09938,0.10197
5331.17059,0.10115
5329.24180,0.09955
5327.31301,0.09890
5325.38422,0.09995
5323.45544,0.10155
5321.52665,0.10208
5319.59786,0.10157
5317.66907,0.10131
5315.74028,0.10163
5313.81150,0.10183
5311.88271,0.10163
5309.95392,0.10098
5308.02513,0.10009
5306.09634,0.09987
5304.16755,0.10082
5302.23877,0.10184
5300.30998,0.10207
5298.38119,0.10210
5296.45240,0.10221
5294.52361,0.10213
5292.59483,0.10180
5290.66604,0.10075
5288.73725,0.09979
5286.80846,0.10051
5284.87967,0.10187
5282.95088,0.10185
5281.02210,0.10090
5279.09331,0.10062
5277.16452,0.10116
5275.23573,0.10179
5273.30694,0.10210
5271.37815,0.10182
5269.44937,0.10074
5267.52058,0.09969
5265.59179,0.09968
5263.66300,0.10045
5261.73421,0.10142
5259.80543,0.10205
5257.87664,0.10215
5255.94785,0.10228
5254.01906,0.10239
5252.09027,0.10209
5250.16148,0.10160
5248.23270,0.10108
5246.30391,0.10057
5244.37512,0.10017
5242.44633,0.10015
5240.51754,0.10054
5238.58876,0.10099
5236.65997,0.10095
5234.73118,0.10023
5232.80239,0.09976
5230.87360,0.10035
5228.94481,0.10123
5227.01603,0.10131
5225.08724,0.10051
5223.15845,0.09984
5221.22966,0.10023
5219.30087,0.10095
5217.37209,0.10081
5215.44330,0.10049
5213.51451,0.10087
5211.58572,0.10144
5209.65693,0.10184
5207.72814,0.10224
5205.79936,0.10241
5203.87057,0.10212
5201.94178,0.10181
5200.01299,0.10175
5198.08420,0.10168
5196.15541,0.10162
5194.22663,0.10194
5192.29784,0.10239
5190.36905,0.10223
5188.44026,0.10142
5186.51147,0.10110
5184.58269,0.10144
5182.65390,0.10120
5180.72511,0.10061
5178.79632,0.10068
5176.86753,0.10103
5174.93874,0.10150
5173.00996,0.10229
5171.08117,0.10223
5169.15238,0.10090
5167.22359,0.09999
5165.29480,0.10021
5163.36602,0.10052
5161.43723,0.10042
5159.50844,0.10048
5157.57965,0.10111
5155.65086,0.10178
5153.72207,0.10232
5151.79329,0.10304
5149.86450,0.10292
5147.93571,0.10177
5146.00692,0.10115
5144.07813,0.10124
5142.14935,0.10140
5140.22056,0.10200
5138.29177,0.10311
5136.36298,0.10368
5134.43419,0.10305
5132.50540,0.10191
5130.57662,0.10128
5128.64783,0.10098
5126.71904,0.10032
5124.79025,0.09984
5122.86146,0.10032
5120.93268,0.10139
5119.00389,0.10219
5117.07510,0.10236
5115.14631,0.10242
5113.21752,0.10248
5111.28873,0.10195
5109.35995,0.10115
5107.43116,0.10073
5105.50237,0.10094
5103.57358,0.10137
5101.64479,0.10125
5099.71600,0.10097
5097.78722,0.10095
5095.85843,0.10089
5093.92964,0.10113
5092.00085,0.10137
5090.07206,0.10118
5088.14328,0.10148
5086.21449,0.10223
5084.28570,0.10238
5082.35691,0.10224
5080.42812,0.10254
5078.49933,0.10267
5076.57055,0.10219
5074.64176,0.10147
5072.71297,0.10064
5070.78418,0.09999
5068.85539,0.09988
5066.92661,0.10044
5064.99782,0.10146
5063.06903,0.10251
5061.14024,0.10347
5059.21145,0.10387
5057.28266,0.10321
5055.35388,0.10186
5053.42509,0.10062
5051.49630,0.10068
5049.56751,0.10228
5047.63872,0.10371
5045.70994,0.10374
5043.78115,0.10297
5041.85236,0.10235
5039.92357,0.10219
5037.99478,0.10245
5036.06599,0.10271
5034.13721,0.10265
5032.20842,0.10260
5030.27963,0.10292
5028.35084,0.10304
5026.42205,0.10238
5024.49327,0.10147
5022.56448,0.10099
5020.63569,0.10090
5018.70690,0.10111
5016.77811,0.10166
5014.84932,0.10224
5012.92054,0.10283
5010.99175,0.10302
5009.06296,0.10244
5007.13417,0.10202
5005.20538,0.10218
5003.27659,0.10214
5001.34781,0.10171
4999.41902,0.10155
4997.49023,0.10205
4995.56144,0.10254
4993.63265,0.10230
4991.70387,0.10160
4989.77508,0.10143
4987.84629,0.10219
4985.91750,0.10301
4983.98871,0.10305
4982.05992,0.10299
4980.13114,0.10365
4978.20235,0.10422
4976.27356,0.10364
4974.34477,0.10233
4972.41598,0.10152
4970.48720,0.10187
4968.55841,0.10252
4966.62962,0.10276
4964.70083,0.10295
4962.77204,0.10300
4960.84325,0.10276
4958.91447,0.10287
4956.98568,0.10308
4955.05689,0.10251
4953.12810,0.10187
4951.19931,0.10201
4949.27053,0.10228
4947.34174,0.10237
4945.41295,0.10264
4943.48416,0.10304
4941.55537,0.10338
4939.62658,0.10330
4937.69780,0.10264
4935.76901,0.10217
4933.84022,0.10210
4931.91143,0.10197
4929.98264,0.10190
4928.05385,0.10191
4926.12507,0.10171
4924.19628,0.10150
4922.26749,0.10143
4920.33870,0.10131
4918.40991,0.10135
4916.48113,0.10167
4914.55234,0.10204
4912.62355,0.10222
4910.69476,0.10215
4908.76597,0.10224
4906.83718,0.10299
4904.90840,0.10384
4902.97961,0.10390
4901.05082,0.10331
4899.12203,0.10296
4897.19324,0.10318
4895.26446,0.10332
4893.33567,0.10329
4891.40688,0.10353
4889.47809,0.10345
4887.54930,0.10277
4885.62051,0.10231
4883.69173,0.10241
4881.76294,0.10303
4879.83415,0.10397
4877.90536,0.10457
4875.97657,0.10435
4874.04779,0.10340
4872.11900,0.10213
4870.19021,0.10127
4868.26142,0.10166
4866.33263,0.10278
4864.40384,0.10319
4862.47506,0.10271
4860.54627,0.10243
4858.61748,0.10296
4856.68869,0.10342
4854.75990,0.10311
4852.83112,0.10260
4850.90233,0.10241
4848.97354,0.10279
4847.04475,0.10348
4845.11596,0.10369
4843.18717,0.10321
4841.25839,0.10263
4839.32960,0.10237
4837.40081,0.10203
4835.47202,0.10149
4833.54323,0.10108
4831.61444,0.10131
4829.68566,0.10239
4827.75687,0.10327
4825.82808,0.10327
4823.89929,0.10305
4821.97050,0.10300
4820.04172,0.10268
4818.11293,0.10223
4816.18414,0.10235
4814.25535,0.10276
4812.32656,0.10292
4810.39777,0.10300
4808.46899,0.10291
4806.54020,0.10249
4804.61141,0.10197
4802.68262,0.10189
4800.75383,0.10229
4798.82505,0.10267
4796.89626,0.10281
4794.96747,0.10270
4793.03868,0.10237
4791.10989,0.10212
4789.18110,0.10203
4787.25232,0.10224
4785.32353,0.10292
4783.39474,0.10361
4781.46595,0.10368
4779.53716,0.10313
4777.60838,0.10248
4775.67959,0.10196
4773.75080,0.10157
4771.82201,0.10170
4769.89322,0.10254
4767.96443,0.10359
4766.03565,0.10420
4764.10686,0.10420
4762.17807,0.10397
4760.24928,0.10363
4758.32049,0.10304
4756.39170,0.10298
4754.46292,0.10363
4752.53413,0.10390
4750.60534,0.10345
4748.67655,0.10278
4746.74776,0.10208
4744.81898,0.10179
4742.89019,0.10224
4740.96140,0.10260
4739.03261,0.10229
4737.10382,0.10182
4735.17503,0.10150
4733.24625,0.10152
4731.31746,0.10182
4729.38867,0.10188
4727.45988,0.10166
4725.53109,0.10158
4723.60231,0.10179
4721.67352,0.10205
4719.74473,0.10214
4717.81594,0.10225
4715.88715,0.10236
4713.95836,0.10230
4712.02958,0.10207
4710.10079,0.10148
4708.17200,0.10054
4706.24321,0.09995
4704.31442,0.10028
4702.38564,0.10084
4700.45685,0.10068
4698.52806,0.10027
4696.59927,0.10017
4694.67048,0.10014
4692.74169,0.10022
4690.81291,0.10028
4688.88412,0.10002
4686.95533,0.09956
4685.02654,0.09922
4683.09775,0.09926
4681.16897,0.09950
4679.24018,0.09972
4677.31139,0.10002
4675.38260,0.10031
4673.45381,0.10051
4671.52502,0.10056
4669.59624,0.10063
4667.66745,0.10073
4665.73866,0.10071
4663.80987,0.10069
4661.88108,0.10069
4659.95229,0.10089
4658.02351,0.10154
4656.09472,0.10193
4654.16593,0.10139
4652.23714,0.10043
4650.30835,0.09998
4648.37957,0.10004
4646.45078,0.09997
4644.52199,0.09973
4642.59320,0.09946
4640.66441,0.09914
4638.73562,0.09905
4636.80684,0.09929
4634.87805,0.09967
4632.94926,0.10001
4631.02047,0.10005
4629.09168,0.09999
4627.16290,0.10018
4625.23411,0.10057
4623.30532,0.10103
4621.37653,0.10132
4619.44774,0.10118
4617.51895,0.10081
4615.59017,0.10055
4613.66138,0.10042
4611.73259,0.10052
4609.80380,0.10095
4607.87501,0.10144
4605.94623,0.10162
4604.01744,0.10150
4602.08865,0.10137
4600.15986,0.10140
4598.23107,0.10149
4596.30228,0.10154
4594.37350,0.10158
4592.44471,0.10157
4590.51592,0.10140
4588.58713,0.10105
4586.65834,0.10073
4584.72956,0.10081
4582.80077,0.10136
4580.87198,0.10182
4578.94319,0.10162
4577.01440,0.10111
4575.08561,0.10102
4573.15683,0.10122
4571.22804,0.10128
4569.29925,0.10144
4567.37046,0.10195
4565.44167,0.10228
4563.51288,0.10225
4561.58410,0.10229
4559.65531,0.10242
4557.72652,0.10250
4555.79773,0.10240
4553.86894,0.10199
4551.94016,0.10167
4550.01137,0.10179
4548.08258,0.10225
4546.15379,0.10290
4544.22500,0.10333
4542.29621,0.10287
4540.36743,0.10178
4538.43864,0.10106
4536.50985,0.10097
4534.58106,0.10106
4532.65227,0.10143
4530.72349,0.10201
4528.79470,0.10205
4526.86591,0.10140
4524.93712,0.10057
4523.00833,0.10031
4521.07954,0.10094
4519.15076,0.10179
4517.22197,0.10228
4515.29318,0.10238
4513.36439,0.10195
4511.43560,0.10125
4509.50682,0.10086
4507.57803,0.10058
4505.64924,0.10013
4503.72045,0.09993
4501.79166,0.10016
4499.86287,0.10037
4497.93409,0.10017
4496.00530,0.09946
4494.07651,0.09869
4492.14772,0.09843
4490.21893,0.09856
4488.29014,0.09855
4486.36136,0.09841
4484.43257,0.09847
4482.50378,0.09869
4480.57499,0.09896
4478.64620,0.09918
4476.71742,0.09909
4474.78863,0.09854
4472.85984,0.09800
4470.93105,0.09791
4469.00226,0.09790
4467.07347,0.09773
4465.14469,0.09762
4463.21590,0.09764
4461.28711,0.09768
4459.35832,0.09757
4457.42953,0.09722
4455.50075,0.09686
4453.57196,0.09653
4451.64317,0.09588
4449.71438,0.09519
4447.78559,0.09495
4445.85680,0.09471
4443.92802,0.09410
4441.99923,0.09357
4440.07044,0.09332
4438.14165,0.09296
4436.21286,0.09219
4434.28408,0.09129
4432.35529,0.09069
4430.42650,0.09033
4428.49771,0.09018
4426.56892,0.09006
4424.64013,0.08929
4422.71135,0.08779
4420.78256,0.08643
4418.85377,0.08545
4416.92498,0.08473
4414.99619,0.08451
4413.06741,0.08455
4411.13862,0.08418
4409.20983,0.08329
4407.28104,0.08245
4405.35225,0.08208
4403.42346,0.08188
4401.49468,0.08160
4399.56589,0.08132
4397.63710,0.08091
4395.70831,0.08026
4393.77952,0.07953
4391.85073,0.07918
4389.92195,0.07956
4387.99316,0.08005
4386.06437,0.07980
4384.13558,0.07909
4382.20679,0.07862
4380.27801,0.07839
4378.34922,0.07803
4376.42043,0.07752
4374.49164,0.07705
4372.56285,0.07651
4370.63406,0.07586
4368.70528,0.07547
4366.77649,0.07536
4364.84770,0.07505
4362.91891,0.07421
4360.99012,0.07317
4359.06134,0.07242
4357.13255,0.07201
4355.20376,0.07166
4353.27497,0.07123
4351.34618,0.07085
4349.41739,0.07049
4347.48861,0.07007
4345.55982,0.06977
4343.63103,0.06965
4341.70224,0.06936
4339.77345,0.06863
4337.84467,0.06790
4335.91588,0.06774
4333.98709,0.06790
4332.05830,0.06792
4330.12951,0.06793
4328.20072,0.06814
4326.27194,0.06866
4324.34315,0.06972
4322.41436,0.07083
4320.48557,0.07111
4318.55678,0.07092
4316.62800,0.07114
4314.69921,0.07174
4312.77042,0.07226
4310.84163,0.07270
4308.91284,0.07293
4306.98405,0.07280
4305.05527,0.07267
4303.12648,0.07293
4301.19769,0.07327
4299.26890,0.07318
4297.34011,0.07288
4295.41132,0.07315
4293.48254,0.07402
4291.55375,0.07476
4289.62496,0.07497
4287.69617,0.07466
4285.76738,0.07410
4283.83860,0.07370
4281.90981,0.07361
4279.98102,0.07367
4278.05223,0.07350
4276.12344,0.07306
4274.19465,0.07304
4272.26587,0.07347
4270.33708,0.07349
4268.40829,0.07315
4266.47950,0.07315
4264.55071,0.07347
4262.62193,0.07385
4260.69314,0.07424
4258.76435,0.07448
4256.83556,0.07438
4254.90677,0.07410
4252.97798,0.07392
4251.04920,0.07377
4249.12041,0.07351
4247.19162,0.07321
4245.26283,0.07312
4243.33404,0.07327
4241.40526,0.07345
4239.47647,0.07352
4237.54768,0.07333
4235.61889,0.07312
4233.69010,0.07323
4231.76131,0.07346
4229.83253,0.07366
4227.90374,0.07375
4225.97495,0.07354
4224.04616,0.07303
4222.11737,0.07247
4220.18858,0.07231
4218.25980,0.07286
4216.33101,0.07371
4214.40222,0.07416
4212.47343,0.07394
4210.54464,0.07349
4208.61586,0.07336
4206.68707,0.07350
4204.75828,0.07356
4202.82949,0.07344
4200.90070,0.07322
4198.97191,0.07300
4197.04313,0.07312
4195.11434,0.07370
4193.18555,0.07439
4191.25676,0.07474
4189.32797,0.07480
4187.39919,0.07469
4185.47040,0.07457
4183.54161,0.07472
4181.61282,0.07510
4179.68403,0.07526
4177.75524,0.07504
4175.82646,0.07473
4173.89767,0.07453
4171.96888,0.07443
4170.04009,0.07428
4168.11130,0.07419
4166.18252,0.07447
4164.25373,0.07490
4162.32494,0.07523
4160.39615,0.07565
4158.46736,0.07619
4156.53857,0.07643
4154.60979,0.07628
4152.68100,0.07619
4150.75221,0.07641
4148.82342,0.07681
4146.89463,0.07710
4144.96585,0.07733
4143.03706,0.07787
4141.10827,0.07859
4139.17948,0.07902
4137.25069,0.07906
4135.32190,0.07893
4133.39312,0.07879
4131.46433,0.07892
4129.53554,0.07946
4127.60675,0.07988
4125.67796,0.07991
4123.74917,0.07992
4121.82039,0.08003
4119.89160,0.07997
4117.96281,0.07971
4116.03402,0.07961
4114.10523,0.07987
4112.17645,0.08025
4110.24766,0.08051
4108.31887,0.08040
4106.39008,0.07971
4104.46129,0.07878
4102.53250,0.07814
4100.60372,0.07786
4098.67493,0.07767
4096.74614,0.07735
4094.81735,0.07689
4092.88856,0.07638
4090.95978,0.07583
4089.03099,0.07529
4087.10220,0.07491
4085.17341,0.07465
4083.24462,0.07450
4081.31583,0.07460
4079.38705,0.07490
4077.45826,0.07532
4075.52947,0.07598
4073.60068,0.07668
4071.67189,0.07713
4069.74311,0.07742
4067.81432,0.07774
4065.88553,0.07826
4063.95674,0.07895
4062.02795,0.07952
4060.09916,0.08000
4058.17038,0.08040
4056.24159,0.08051
4054.31280,0.08058
4052.38401,0.08110
4050.45522,0.08177
4048.52644,0.08206
4046.59765,0.08193
4044.66886,0.08150
4042.74007,0.08119
4040.81128,0.08142
4038.88249,0.08183
4036.95371,0.08196
4035.02492,0.08201
4033.09613,0.08224
4031.16734,0.08244
4029.23855,0.08241
4027.30976,0.08230
4025.38098,0.08236
4023.45219,0.08249
4021.52340,0.08233
4019.59461,0.08208
4017.66582,0.08220
4015.73704,0.08268
4013.80825,0.08309
4011.87946,0.08318
4009.95067,0.08326
4008.02188,0.08372
4006.09309,0.08434
4004.16431,0.08477
4002.23552,0.08478
4000.30673,0.08440
3998.37794,0.08408
3996.44915,0.08408
3994.52037,0.08422
3992.59158,0.08434
3990.66279,0.08458
3988.73400,0.08500
3986.80521,0.08543
3984.87642,0.08586
3982.94764,0.08625
3981.01885,0.08634
3979.09006,0.08634
3977.16127,0.08655
3975.23248,0.08662
3973.30370,0.08653
3971.37491,0.08667
3969.44612,0.08695
3967.51733,0.08702
3965.58854,0.08689
3963.65975,0.08681
3961.73097,0.08699
3959.80218,0.08724
3957.87339,0.08733
3955.94460,0.08743
3954.01581,0.08768
3952.08702,0.08795
3950.15824,0.08801
3948.22945,0.08761
3946.30066,0.08713
3944.37187,0.08710
3942.44308,0.08759
3940.51430,0.08816
3938.58551,0.08836
3936.65672,0.08814
3934.72793,0.08786
3932.79914,0.08770
3930.87035,0.08762
3928.94157,0.08758
3927.01278,0.08744
3925.08399,0.08741
3923.15520,0.08782
3921.22641,0.08807
3919.29763,0.08772
3917.36884,0.08719
3915.44005,0.08686
3913.51126,0.08687
3911.58247,0.08724
3909.65368,0.08756
3907.72490,0.08767
3905.79611,0.08775
3903.86732,0.08788
3901.93853,0.08786
3900.00974,0.08761
3898.08096,0.08766
3896.15217,0.08810
3894.22338,0.08826
3892.29459,0.08780
3890.36580,0.08743
3888.43701,0.08772
3886.50823,0.08820
3884.57944,0.08836
3882.65065,0.08839
3880.72186,0.08867
3878.79307,0.08908
3876.86429,0.08915
3874.93550,0.08872
3873.00671,0.08815
3871.07792,0.08780
3869.14913,0.08778
3867.22034,0.08794
3865.29156,0.08811
3863.36277,0.08868
3861.43398,0.08946
3859.50519,0.08979
3857.57640,0.08951
3855.64761,0.08873
3853.71883,0.08816
3851.79004,0.08853
3849.86125,0.08881
3847.93246,0.08883
3846.00367,0.08886
3844.07489,0.08903
3842.14610,0.08918
3840.21731,0.08889
3838.28852,0.08827
3836.35973,0.08803
3834.43094,0.08840
3832.50216,0.08901
3830.57337,0.08968
3828.64458,0.09025
3826.71579,0.09027
3824.78700,0.08994
3822.85822,0.08982
3820.92943,0.08989
3819.00064,0.08982
3817.07185,0.08974
3815.14306,0.09011
3813.21427,0.09052
3811.28549,0.09046
3809.35670,0.09030
3807.42791,0.09047
3805.49912,0.09089
3803.57033,0.09087
3801.64155,0.09024
3799.71276,0.09007
3797.78397,0.09057
3795.85518,0.09107
3793.92639,0.09134
3791.99760,0.09140
3790.06882,0.09134
3788.14003,0.09149
3786.21124,0.09191
3784.28245,0.09228
3782.35366,0.09248
3780.42488,0.09239
3778.49609,0.09195
3776.56730,0.09183
3774.63851,0.09211
3772.70972,0.09215
3770.78093,0.09176
3768.85215,0.09154
3766.92336,0.09176
3764.99457,0.09182
3763.06578,0.09151
3761.13699,0.09111
3759.20820,0.09100
3757.27942,0.09134
3755.35063,0.09170
3753.42184,0.09176
3751.49305,0.09165
3749.56426,0.09186
3747.63548,0.09243
3745.70669,0.09266
3743.77790,0.09230
3741.84911,0.09212
3739.92032,0.09239
3737.99153,0.09287
3736.06275,0.09289
3734.13396,0.09216
3732.20517,0.09214
3730.27638,0.09286
3728.34759,0.09330
3726.41881,0.09340
3724.49002,0.09347
3722.56123,0.09346
3720.63244,0.09344
3718.70365,0.09343
3716.77486,0.09332
3714.84608,0.09331
3712.91729,0.09349
3710.98850,0.09328
3709.05971,0.09289
3707.13092,0.09298
3705.20214,0.09301
3703.27335,0.09258
3701.34456,0.09186
3699.41577,0.09107
3697.48698,0.09014
3695.55819,0.08914
3693.62941,0.08820
3691.70062,0.08729
3689.77183,0.08637
3687.84304,0.08543
3685.91425,0.08475
3683.98546,0.08444
3682.05668,0.08426
3680.12789,0.08414
3678.19910,0.08415
3676.27031,0.08419
3674.34152,0.08453
3672.41274,0.08495
3670.48395,0.08470
3668.55516,0.08424
3666.62637,0.08454
3664.69758,0.08521
3662.76879,0.08557
3660.84001,0.08545
3658.91122,0.08534
3656.98243,0.08553
3655.05364,0.08574
3653.12485,0.08585
3651.19607,0.08595
3649.26728,0.08577
3647.33849,0.08548
3645.40970,0.08570
3643.48091,0.08604
3641.55212,0.08619
3639.62334,0.08630
3637.69455,0.08629
3635.76576,0.08586
3633.83697,0.08543
3631.90818,0.08558
3629.97940,0.08573
3628.05061,0.08507
3626.12182,0.08458
3624.19303,0.08454
3622.26424,0.08430
3620.33545,0.08377
3618.40667,0.08393
3616.47788,0.08477
3614.54909,0.08492
3612.62030,0.08406
3610.69151,0.08326
3608.76273,0.08298
3606.83394,0.08262
3604.90515,0.08222
3602.97636,0.08208
3601.04757,0.08181
3599.11878,0.08136
3597.19000,0.08104
3595.26121,0.08078
3593.33242,0.08096
3591.40363,0.08168
3589.47484,0.08214
3587.54605,0.08210
3585.61727,0.08186
3583.68848,0.08119
3581.75969,0.08024
3579.83090,0.07950
3577.90211,0.07918
3575.97333,0.07912
3574.04454,0.07913
3572.11575,0.07927
3570.18696,0.07939
3568.25817,0.07899
3566.32938,0.07786
3564.40060,0.07697
3562.47181,0.07693
3560.54302,0.07711
3558.61423,0.07684
3556.68544,0.07646
3554.75666,0.07666
3552.82787,0.07732
3550.89908,0.07737
3548.97029,0.07665
3547.04150,0.07592
3545.11271,0.07553
3543.18393,0.07527
3541.25514,0.07527
3539.32635,0.07563
3537.39756,0.07613
3535.46877,0.07635
3533.53999,0.07596
3531.61120,0.07537
3529.68241,0.07525
3527.75362,0.07558
3525.82483,0.07577
3523.89604,0.07550
3521.96726,0.07505
3520.03847,0.07475
3518.10968,0.07456
3516.18089,0.07440
3514.25210,0.07431
3512.32332,0.07427
3510.39453,0.07427
3508.46574,0.07444
3506.53695,0.07462
3504.60816,0.07440
3502.67937,0.07385
3500.75059,0.07336
3498.82180,0.07308
3496.89301,0.07288
3494.96422,0.07253
3493.03543,0.07202
3491.10664,0.07161
3489.17786,0.07162
3487.24907,0.07177
3485.32028,0.07164
3483.39149,0.07144
3481.46270,0.07128
3479.53392,0.07084
3477.60513,0.07036
3475.67634,0.07020
3473.74755,0.07022
3471.81876,0.07009
3469.88997,0.06972
3467.96119,0.06934
3466.03240,0.06900
3464.10361,0.06872
3462.17482,0.06865
3460.24603,0.06874
3458.31725,0.06871
3456.38846,0.06851
3454.45967,0.06835
3452.53088,0.06821
3450.60209,0.06793
3448.67330,0.06757
3446.74452,0.06706
3444.81573,0.06645
3442.88694,0.06612
3440.95815,0.06601
3439.02936,0.06561
3437.10058,0.06501
3435.17179,0.06455
3433.24300,0.06425
3431.31421,0.06416
3429.38542,0.06446
3427.45663,0.06479
3425.52785,0.06462
3423.59906,0.06414
3421.67027,0.06385
3419.74148,0.06385
3417.81269,0.06413
3415.88390,0.06485
3413.95512,0.06579
3412.02633,0.06639
3410.09754,0.06650
3408.16875,0.06652
3406.23996,0.06660
3404.31118,0.06658
3402.38239,0.06658
3400.45360,0.06711
3398.52481,0.06831
3396.59602,0.06935
3394.66723,0.06956
3392.73845,0.06941
3390.80966,0.06936
3388.88087,0.06946
3386.95208,0.06948
3385.02329,0.06937
3383.09451,0.06939
3381.16572,0.06968
3379.23693,0.07016
3377.30814,0.07071
3375.37935,0.07109
3373.45056,0.07121
3371.52178,0.07129
3369.59299,0.07148
3367.66420,0.07160
3365.73541,0.07171
3363.80662,0.07201
3361.87784,0.07236
3359.94905,0.07254
3358.02026,0.07263
3356.09147,0.07282
3354.16268,0.07295
3352.23389,0.07294
3350.30511,0.07303
3348.37632,0.07311
3346.44753,0.07295
3344.51874,0.07264
3342.58995,0.07245
3340.66117,0.07244
3338.73238,0.07231
3336.80359,0.07193
3334.87480,0.07167
3332.94601,0.07165
3331.01722,0.07137
3329.08844,0.07097
3327.15965,0.07119
3325.23086,0.07171
3323.30207,0.07172
3321.37328,0.07117
3319.44449,0.07032
3317.51571,0.06967
3315.58692,0.06943
3313.65813,0.06896
3311.72934,0.06799
3309.80055,0.06687
3307.87177,0.06575
3305.94298,0.06490
3304.01419,0.06441
3302.08540,0.06405
3300.15661,0.06399
3298.22782,0.06443
3296.29904,0.06505
3294.37025,0.06572
3292.44146,0.06657
3290.51267,0.06764
3288.58388,0.06881
3286.65510,0.06975
3284.72631,0.07021
3282.79752,0.07069
3280.86873,0.07175
3278.93994,0.07278
3277.01115,0.07304
3275.08237,0.07288
3273.15358,0.07284
3271.22479,0.07308
3269.29600,0.07368
3267.36721,0.07434
3265.43843,0.07470
3263.50964,0.07481
3261.58085,0.07491
3259.65206,0.07511
3257.72327,0.07552
3255.79448,0.07587
3253.86570,0.07573
3251.93691,0.07541
3250.00812,0.07545
3248.07933,0.07573
3246.15054,0.07593
3244.22175,0.07594
3242.29297,0.07577
3240.36418,0.07563
3238.43539,0.07567
3236.50660,0.07552
3234.57781,0.07525
3232.64903,0.07531
3230.72024,0.07550
3228.79145,0.07545
3226.86266,0.07532
3224.93387,0.07536
3223.00508,0.07543
3221.07630,0.07512
3219.14751,0.07466
3217.21872,0.07460
3215.28993,0.07492
3213.36114,0.07527
3211.43236,0.07538
3209.50357,0.07524
3207.57478,0.07513
3205.64599,0.07512
3203.71720,0.07500
3201.78841,0.07468
3199.85963,0.07426
3197.93084,0.07401
3196.00205,0.07416
3194.07326,0.07461
3192.14447,0.07500
3190.21569,0.07489
3188.28690,0.07432
3186.35811,0.07393
3184.42932,0.07413
3182.50053,0.07443
3180.57174,0.07431
3178.64296,0.07404
3176.71417,0.07406
3174.78538,0.07423
3172.85659,0.07435
3170.92780,0.07456
3168.99902,0.07474
3167.07023,0.07478
3165.14144,0.07488
3163.21265,0.07489
3161.28386,0.07462
3159.35507,0.07423
3157.42629,0.07393
3155.49750,0.07393
3153.56871,0.07415
3151.63992,0.07431
3149.71113,0.07429
3147.78234,0.07405
3145.85356,0.07358
3143.92477,0.07325
3141.99598,0.07331
3140.06719,0.07340
3138.13840,0.07331
3136.20962,0.07304
3134.28083,0.07256
3132.35204,0.07223
3130.42325,0.07232
3128.49446,0.07254
3126.56567,0.07241
3124.63689,0.07208
3122.70810,0.07190
3120.77931,0.07175
3118.85052,0.07145
3116.92173,0.07129
3114.99295,0.07145
3113.06416,0.07164
3111.13537,0.07141
3109.20658,0.07075
3107.27779,0.07001
3105.34900,0.06942
3103.42022,0.06904
3101.49143,0.06872
3099.56264,0.06829
3097.63385,0.06790
3095.70506,0.06756
3093.77628,0.06710
3091.84749,0.06670
3089.91870,0.06649
3087.98991,0.06613
3086.06112,0.06537
3084.13233,0.06465
3082.20355,0.06442
3080.27476,0.06458
3078.34597,0.06485
3076.41718,0.06492
3074.48839,0.06468
3072.55961,0.06443
3070.63082,0.06418
3068.70203,0.06369
3066.77324,0.06316
3064.84445,0.06285
3062.91566,0.06273
3060.98688,0.06278
3059.05809,0.06279
3057.12930,0.06275
3055.20051,0.06286
3053.27172,0.06308
3051.34293,0.06322
3049.41415,0.06322
3047.48536,0.06315
3045.55657,0.06305
3043.62778,0.06292
3041.69899,0.06286
3039.77021,0.06292
3037.84142,0.06286
3035.91263,0.06237
3033.98384,0.06173
3032.05505,0.06138
3030.12626,0.06123
3028.19748,0.06113
3026.26869,0.06096
3024.33990,0.06055
3022.41111,0.05998
3020.48232,0.05954
3018.55354,0.05935
3016.62475,0.05928
3014.69596,0.05920
3012.76717,0.05918
3010.83838,0.05918
3008.90959,0.05901
3006.98081,0.05864
3005.05202,0.05832
3003.12323,0.05820
3001.19444,0.05817
2999.26565,0.05802
2997.33687,0.05767
2995.40808,0.05727
2993.47929,0.05704
2991.55050,0.05697
2989.62171,0.05690
2987.69292,0.05673
2985.76414,0.05661
2983.83535,0.05665
2981.90656,0.05659
2979.97777,0.05640
2978.04898,0.05638
2976.12019,0.05657
2974.19141,0.05669
2972.26262,0.05659
2970.33383,0.05648
2968.40504,0.05654
2966.47625,0.05677
2964.54747,0.05720
2962.61868,0.05789
2960.68989,0.05881
2958.76110,0.05965
2956.83231,0.06012
2954.90352,0.06020
2952.97474,0.06007
2951.04595,0.05985
2949.11716,0.05950
2947.18837,0.05913
2945.25958,0.05899
2943.33080,0.05896
2941.40201,0.05881
2939.47322,0.05884
2937.54443,0.05922
2935.61564,0.05971
2933.68685,0.06018
2931.75807,0.06053
2929.82928,0.06084
2927.90049,0.06128
2925.97170,0.06154
2924.04291,0.06149
2922.11413,0.06151
2920.18534,0.06175
2918.25655,0.06199
2916.32776,0.06223
2914.39897,0.06241
2912.47018,0.06236
2910.54140,0.06228
2908.61261,0.06240
2906.68382,0.06253
2904.75503,0.06257
2902.82624,0.06266
2900.89746,0.06268
2898.96867,0.06257
2897.03988,0.06243
2895.11109,0.06223
2893.18230,0.06204
2891.25351,0.06203
2889.32473,0.06214
2887.39594,0.06216
2885.46715,0.06190
2883.53836,0.06142
2881.60957,0.06113
2879.68078,0.06123
2877.75200,0.06158
2875.82321,0.06193
2873.89442,0.06208
2871.96563,0.06206
2870.03684,0.06201
2868.10806,0.06197
2866.17927,0.06199
2864.25048,0.06221
2862.32169,0.06257
2860.39290,0.06288
2858.46411,0.06296
2856.53533,0.06293
2854.60654,0.06305
2852.67775,0.06328
2850.74896,0.06333
2848.82017,0.06323
2846.89139,0.06321
2844.96260,0.06328
2843.03381,0.06333
2841.10502,0.06323
2839.17623,0.06312
2837.24744,0.06315
2835.31866,0.06308
2833.38987,0.06283
2831.46108,0.06279
2829.53229,0.06298
2827.60350,0.06302
2825.67472,0.06296
2823.74593,0.06290
2821.81714,0.06271
2819.88835,0.06239
2817.95956,0.06208
2816.03077,0.06188
2814.10199,0.06184
2812.17320,0.06199
2810.24441,0.06236
2808.31562,0.06277
2806.38683,0.06307
2804.45805,0.06340
2802.52926,0.06384
2800.60047,0.06407
2798.67168,0.06413
2796.74289,0.06445
2794.81410,0.06514
2792.88532,0.06575
2790.95653,0.06599
2789.02774,0.06608
2787.09895,0.06619
2785.17016,0.06629
2783.24137,0.06645
2781.31259,0.06692
2779.38380,0.06761
2777.45501,0.06802
2775.52622,0.06811
2773.59743,0.06827
2771.66865,0.06848
2769.73986,0.06853
2767.81107,0.06855
2765.88228,0.06868
2763.95349,0.06878
2762.02470,0.06877
2760.09592,0.06864
2758.16713,0.06837
2756.23834,0.06819
2754.30955,0.06828
2752.38076,0.06827
2750.45198,0.06792
2748.52319,0.06762
2746.59440,0.06759
2744.66561,0.06750
2742.73682,0.06719
2740.80803,0.06699
2738.87925,0.06703
2736.95046,0.06705
2735.02167,0.06688
2733.09288,0.06676
2731.16409,0.06688
2729.23531,0.06723
2727.30652,0.06774
2725.37773,0.06832
2723.44894,0.06883
2721.52015,0.06928
2719.59136,0.06972
2717.66258,0.07005
2715.73379,0.07023
2713.80500,0.07045
2711.87621,0.07087
2709.94742,0.07122
2708.01863,0.07125
2706.08985,0.07135
2704.16106,0.07162
2702.23227,0.07171
2700.30348,0.07178
2698.37469,0.07209
2696.44591,0.07244
2694.51712,0.07264
2692.58833,0.07269
2690.65954,0.07261
2688.73075,0.07243
2686.80196,0.07228
2684.87318,0.07227
2682.94439,0.07235
2681.01560,0.07236
2679.08681,0.07228
2677.15802,0.07213
2675.22924,0.07184
2673.30045,0.07146
2671.37166,0.07138
2669.44287,0.07172
2667.51408,0.07221
2665.58529,0.07251
2663.65651,0.07256
2661.72772,0.07269
2659.79893,0.07304
2657.87014,0.07350
2655.94135,0.07403
2654.01257,0.07441
2652.08378,0.07441
2650.15499,0.07423
2648.22620,0.07413
2646.29741,0.07417
2644.36862,0.07419
2642.43984,0.07414
2640.51105,0.07408
2638.58226,0.07404
2636.65347,0.07401
2634.72468,0.07393
2632.79590,0.07386
2630.86711,0.07387
2628.93832,0.07383
2627.00953,0.07367
2625.08074,0.07353
2623.15195,0.07360
2621.22317,0.07369
2619.29438,0.07357
2617.36559,0.07337
2615.43680,0.07326
2613.50801,0.07321
2611.57922,0.07318
2609.65044,0.07322
2607.72165,0.07333
2605.79286,0.07338
2603.86407,0.07326
2601.93528,0.07311
2600.00650,0.07313
2598.07771,0.07322
2596.14892,0.07335
2594.22013,0.07356
2592.29134,0.07355
2590.36255,0.07320
2588.43377,0.07290
2586.50498,0.07292
2584.57619,0.07295
2582.64740,0.07278
2580.71861,0.07265
2578.78983,0.07268
2576.86104,0.07271
2574.93225,0.07276
2573.00346,0.07288
2571.07467,0.07311
2569.14588,0.07337
2567.21710,0.07358
2565.28831,0.07361
2563.35952,0.07347
2561.43073,0.07344
2559.50194,0.07358
2557.57316,0.07375
2555.64437,0.07394
2553.71558,0.07411
2551.78679,0.07428
2549.85800,0.07447
2547.92921,0.07461
2546.00043,0.07469
2544.07164,0.07476
2542.14285,0.07474
2540.21406,0.07468
2538.28527,0.07473
2536.35649,0.07482
2534.42770,0.07480
2532.49891,0.07482
2530.57012,0.07510
2528.64133,0.07548
2526.71254,0.07562
2524.78376,0.07562
2522.85497,0.07580
2520.92618,0.07615
2518.99739,0.07644
2517.06860,0.07655
2515.13981,0.07667
2513.21103,0.07690
2511.28224,0.07708
2509.35345,0.07722
2507.42466,0.07747
2505.49587,0.07782
2503.56709,0.07805
2501.63830,0.07817
2499.70951,0.07831
2497.78072,0.07841
2495.85193,0.07847
2493.92314,0.07865
2491.99436,0.07904
2490.06557,0.07958
2488.13678,0.07997
2486.20799,0.07992
2484.27920,0.07957
2482.35042,0.07935
2480.42163,0.07947
2478.49284,0.07975
2476.56405,0.07985
2474.63526,0.07977
2472.70647,0.07982
2470.77769,0.08021
2468.84890,0.08061
2466.92011,0.08059
2464.99132,0.08032
2463.06253,0.08031
2461.13375,0.08046
2459.20496,0.08052
2457.27617,0.08052
2455.34738,0.08039
2453.41859,0.08016
2451.48980,0.08013
2449.56102,0.08022
2447.63223,0.08004
2445.70344,0.07972
2443.77465,0.07968
2441.84586,0.07982
2439.91707,0.07979
2437.98829,0.07960
2436.05950,0.07938
2434.13071,0.07915
2432.20192,0.07891
2430.27313,0.07870
2428.34435,0.07842
2426.41556,0.07802
2424.48677,0.07756
2422.55798,0.07727
2420.62919,0.07722
2418.70040,0.07721
2416.77162,0.07713
2414.84283,0.07705
2412.91404,0.07694
2410.98525,0.07666
2409.05646,0.07631
2407.12768,0.07606
2405.19889,0.07588
2403.27010,0.07571
2401.34131,0.07551
2399.41252,0.07528
2397.48373,0.07504
2395.55495,0.07484
2393.62616,0.07482
2391.69737,0.07487
2389.76858,0.07482
2387.83979,0.07465
2385.91101,0.07439
2383.98222,0.07405
2382.05343,0.07385
2380.12464,0.07392
2378.19585,0.07416
2376.26706,0.07450
2374.33828,0.07473
2372.40949,0.07470
2370.48070,0.07476
2368.55191,0.07516
2366.62312,0.07538
2364.69434,0.07515
2362.76555,0.07503
2360.83676,0.07531
2358.90797,0.07583
2356.97918,0.07641
2355.05039,0.07689
2353.12161,0.07724
2351.19282,0.07760
2349.26403,0.07812
2347.33524,0.07861
2345.40645,0.07877
2343.47766,0.07891
2341.54888,0.07946
2339.62009,0.08009
2337.69130,0.08035
2335.76251,0.08042
2333.83372,0.08058
2331.90494,0.08072
2329.97615,0.08081
2328.04736,0.08098
2326.11857,0.08118
2324.18978,0.08125
2322.26099,0.08122
2320.33221,0.08131
2318.40342,0.08160
2316.47463,0.08193
2314.54584,0.08209
2312.61705,0.08220
2310.68827,0.08245
2308.75948,0.08252
2306.83069,0.08224
2304.90190,0.08201
2302.97311,0.08203
2301.04432,0.08198
2299.11554,0.08162
2297.18675,0.08115
2295.25796,0.08092
2293.32917,0.08097
2291.40038,0.08100
2289.47160,0.08075
2287.54281,0.08030
2285.61402,0.07985
2283.68523,0.07939
2281.75644,0.07893
2279.82765,0.07853
2277.89887,0.07826
2275.97008,0.07831
2274.04129,0.07861
2272.11250,0.07894
2270.18371,0.07928
2268.25493,0.07972
2266.32614,0.08017
2264.39735,0.08049
2262.46856,0.08067
2260.53977,0.08065
2258.61098,0.08057
2256.68220,0.08060
2254.75341,0.08059
2252.82462,0.08045
2250.89583,0.08038
2248.96704,0.08048
2247.03825,0.08050
2245.10947,0.08036
2243.18068,0.08019
2241.25189,0.08008
2239.32310,0.08000
2237.39431,0.07983
2235.46553,0.07965
2233.53674,0.07972
2231.60795,0.07998
2229.67916,0.08024
2227.75037,0.08059
2225.82158,0.08096
2223.89280,0.08102
2221.96401,0.08087
2220.03522,0.08087
2218.10643,0.08095
2216.17764,0.08085
2214.24886,0.08070
2212.32007,0.08073
2210.39128,0.08101
2208.46249,0.08134
2206.53370,0.08162
2204.60491,0.08203
2202.67613,0.08252
2200.74734,0.08272
2198.81855,0.08272
2196.88976,0.08286
2194.96097,0.08311
2193.03219,0.08336
2191.10340,0.08366
2189.17461,0.08396
2187.24582,0.08418
2185.31703,0.08431
2183.38824,0.08433
2181.45946,0.08424
2179.53067,0.08428
2177.60188,0.08456
2175.67309,0.08493
2173.74430,0.08514
2171.81551,0.08514
2169.88673,0.08501
2167.95794,0.08476
2166.02915,0.08442
2164.10036,0.08418
2162.17157,0.08417
2160.24279,0.08425
2158.31400,0.08427
2156.38521,0.08424
2154.45642,0.08421
2152.52763,0.08410
2150.59884,0.08391
2148.67006,0.08385
2146.74127,0.08392
2144.81248,0.08387
2142.88369,0.08374
2140.95490,0.08367
2139.02612,0.08364
2137.09733,0.08365
2135.16854,0.08364
2133.23975,0.08348
2131.31096,0.08332
2129.38217,0.08340
2127.45339,0.08365
2125.52460,0.08379
2123.59581,0.08363
2121.66702,0.08330
2119.73823,0.08300
2117.80945,0.08292
2115.88066,0.08304
2113.95187,0.08319
2112.02308,0.08324
2110.09429,0.08320
2108.16550,0.08312
2106.23672,0.08295
2104.30793,0.08262
2102.37914,0.08230
2100.45035,0.08232
2098.52156,0.08253
2096.59278,0.08250
2094.66399,0.08231
2092.73520,0.08227
2090.80641,0.08225
2088.87762,0.08217
2086.94883,0.08216
2085.02005,0.08218
2083.09126,0.08204
2081.16247,0.08169
2079.23368,0.08135
2077.30489,0.08129
2075.37610,0.08148
2073.44732,0.08164
2071.51853,0.08160
2069.58974,0.08150
2067.66095,0.08144
2065.73216,0.08140
2063.80338,0.08146
2061.87459,0.08164
2059.94580,0.08192
2058.01701,0.08216
2056.08822,0.08216
2054.15943,0.08201
2052.23065,0.08199
2050.30186,0.08218
2048.37307,0.08246
2046.44428,0.08270
2044.51549,0.08293
2042.58671,0.08307
2040.65792,0.08312
2038.72913,0.08326
2036.80034,0.08339
2034.87155,0.08334
2032.94276,0.08321
2031.01398,0.08311
2029.08519,0.08301
2027.15640,0.08302
2025.22761,0.08318
2023.29882,0.08331
2021.37004,0.08340
2019.44125,0.08349
2017.51246,0.08354
2015.58367,0.08364
2013.65488,0.08391
2011.72609,0.08417
2009.79731,0.08414
2007.86852,0.08393
2005.93973,0.08386
2004.01094,0.08391
2002.08215,0.08389
2000.15336,0.08377
1998.22458,0.08374
1996.29579,0.08360
1994.36700,0.08306
1992.43821,0.08234
1990.50942,0.08182
1988.58064,0.08156
1986.65185,0.08149
1984.72306,0.08154
1982.79427,0.08163
1980.86548,0.08153
1978.93669,0.08102
1977.00791,0.08040
1975.07912,0.08011
1973.15033,0.08016
1971.22154,0.08016
1969.29275,0.07978
1967.36397,0.07901
1965.43518,0.07824
1963.50639,0.07754
1961.57760,0.07663
1959.64881,0.07563
1957.72002,0.07467
1955.79124,0.07359
1953.86245,0.07241
1951.93366,0.07150
1950.00487,0.07109
1948.07608,0.07124
1946.14730,0.07172
1944.21851,0.07225
1942.28972,0.07280
1940.36093,0.07340
1938.43214,0.07417
1936.50335,0.07518
1934.57457,0.07623
1932.64578,0.07702
1930.71699,0.07751
1928.78820,0.07774
1926.85941,0.07794
1924.93063,0.07828
1923.00184,0.07867
1921.07305,0.07899
1919.14426,0.07919
1917.21547,0.07927
1915.28668,0.07928
1913.35790,0.07931
1911.42911,0.07956
1909.50032,0.07996
1907.57153,0.08010
1905.64274,0.07991
1903.71395,0.07972
1901.78517,0.07977
1899.85638,0.08002
1897.92759,0.08017
1895.99880,0.08008
1894.07001,0.07985
1892.14123,0.07961
1890.21244,0.07954
1888.28365,0.07977
1886.35486,0.08011
1884.42607,0.08037
1882.49728,0.08045
1880.56850,0.08026
1878.63971,0.08000
1876.71092,0.08004
1874.78213,0.08029
1872.85334,0.08038
1870.92456,0.08016
1868.99577,0.07970
1867.06698,0.07929
1865.13819,0.07917
1863.20940,0.07915
1861.28061,0.07891
1859.35183,0.07848
1857.42304,0.07804
1855.49425,0.07758
1853.56546,0.07706
1851.63667,0.07655
1849.70789,0.07599
1847.77910,0.07531
1845.85031,0.07449
1843.92152,0.07353
1841.99273,0.07279
1840.06394,0.07230
1838.13516,0.07179
1836.20637,0.07118
1834.27758,0.07042
1832.34879,0.06946
1830.42000,0.06819
1828.49122,0.06700
1826.56243,0.06635
1824.63364,0.06596
1822.70485,0.06564
1820.77606,0.06552
1818.84727,0.06567
1816.91849,0.06603
1814.98970,0.06646
1813.06091,0.06665
1811.13212,0.06646
1809.20333,0.06621
1807.27454,0.06613
1805.34576,0.06613
1803.41697,0.06618
1801.48818,0.06604
1799.55939,0.06562
1797.63060,0.06513
1795.70182,0.06472
1793.77303,0.06420
1791.84424,0.06348
1789.91545,0.06293
1787.98666,0.06260
1786.05787,0.06232
1784.12909,0.06203
1782.20030,0.06160
1780.27151,0.06097
1778.34272,0.06024
1776.41393,0.05961
1774.48515,0.05910
1772.55636,0.05854
1770.62757,0.05792
1768.69878,0.05748
1766.76999,0.05719
1764.84120,0.05693
1762.91242,0.05653
1760.98363,0.05599
1759.05484,0.05546
1757.12605,0.05499
1755.19726,0.05468
1753.26848,0.05445
1751.33969,0.05405
1749.41090,0.05346
1747.48211,0.05286
1745.55332,0.05234
1743.62453,0.05196
1741.69575,0.05153
1739.76696,0.05086
1737.83817,0.05026
1735.90938,0.04997
1733.98059,0.04978
1732.05180,0.04987
1730.12302,0.05046
1728.19423,0.05156
1726.26544,0.05315
1724.33665,0.05522
1722.40786,0.05760
1720.47908,0.06003
1718.55029,0.06275
1716.62150,0.06588
1714.69271,0.06811
1712.76392,0.06915
1710.83513,0.06949
1708.90635,0.06932
1706.97756,0.06850
1705.04877,0.06712
1703.11998,0.06590
1701.19119,0.06459
1699.26241,0.06308
1697.33362,0.06233
1695.40483,0.06199
1693.47604,0.06183
1691.54725,0.06175
1689.61846,0.06149
1687.68968,0.06122
1685.76089,0.06109
1683.83210,0.06081
1681.90331,0.06038
1679.97452,0.05995
1678.04574,0.05945
1676.11695,0.05899
1674.18816,0.05886
1672.25937,0.05918
1670.33058,0.05972
1668.40179,0.06021
1666.47301,0.06057
1664.54422,0.06079
1662.61543,0.06108
1660.68664,0.06171
1658.75785,0.06243
1656.82907,0.06298
1654.90028,0.06322
1652.97149,0.06286
1651.04270,0.06261
1649.11391,0.06267
1647.18512,0.06218
1645.25634,0.06125
1643.32755,0.06066
1641.39876,0.06018
1639.46997,0.05979
1637.54118,0.05962
1635.61239,0.05982
1633.68361,0.06054
1631.75482,0.06146
1629.82603,0.06231
1627.89724,0.06289
1625.96845,0.06323
1624.03967,0.06339
1622.11088,0.06330
1620.18209,0.06296
1618.25330,0.06226
1616.32451,0.06137
1614.39572,0.06117
1612.46694,0.06143
1610.53815,0.06166
1608.60936,0.06186
1606.68057,0.06221
1604.75178,0.06269
1602.82300,0.06311
1600.89421,0.06343
1598.96542,0.06375
1597.03663,0.06399
1595.10784,0.06395
1593.17905,0.06361
1591.25027,0.06310
1589.32148,0.06260
1587.39269,0.06207
1585.46390,0.06130
1583.53511,0.06014
1581.60633,0.05879
1579.67754,0.05778
1577.74875,0.05740
1575.81996,0.05752
1573.89117,0.05788
1571.96238,0.05833
1570.03360,0.05875
1568.10481,0.05903
1566.17602,0.05914
1564.24723,0.05925
1562.31844,0.05962
1560.38966,0.06017
1558.46087,0.06025
1556.53208,0.05992
1554.60329,0.05973
1552.67450,0.05969
1550.74571,0.05981
1548.81693,0.05997
1546.88814,0.06012
1544.95935,0.06008
1543.03056,0.05949
1541.10177,0.05813
1539.17298,0.05746
1537.24420,0.05805
1535.31541,0.05863
1533.38662,0.05889
1531.45783,0.05892
1529.52904,0.05895
1527.60026,0.05900
1525.67147,0.05910
1523.74268,0.05933
1521.81389,0.05957
1519.88510,0.05962
1517.95631,0.05945
1516.02753,0.05914
1514.09874,0.05870
1512.16995,0.05814
1510.24116,0.05766
1508.31237,0.05706
1506.38359,0.05592
1504.45480,0.05571
1502.52601,0.05638
1500.59722,0.05721
1498.66843,0.05778
1496.73964,0.05778
1494.81086,0.05759
1492.88207,0.05765
1490.95328,0.05771
1489.02449,0.05717
1487.09570,0.05624
1485.16692,0.05562
1483.23813,0.05518
1481.30934,0.05482
1479.38055,0.05470
1477.45176,0.05457
1475.52297,0.05417
1473.59419,0.05360
1471.66540,0.05325
1469.73661,0.05340
1467.80782,0.05383
1465.87903,0.05434
1463.95024,0.05499
1462.02146,0.05572
1460.09267,0.05629
1458.16388,0.05655
1456.23509,0.05650
1454.30630,0.05646
1452.37752,0.05641
1450.44873,0.05634
1448.51994,0.05621
1446.59115,0.05587
1444.66236,0.05541
1442.73357,0.05501
1440.80479,0.05478
1438.87600,0.05471
1436.94721,0.05475
1435.01842,0.05508
1433.08963,0.05553
1431.16085,0.05576
1429.23206,0.05578
1427.30327,0.05600
1425.37448,0.05648
1423.44569,0.05685
1421.51690,0.05682
1419.58812,0.05643
1417.65933,0.05595
1415.73054,0.05571
1413.80175,0.05558
1411.87296,0.05560
1409.94418,0.05594
1408.01539,0.05647
1406.08660,0.05685
1404.15781,0.05689
1402.22902,0.05662
1400.30023,0.05611
1398.37145,0.05553
1396.44266,0.05512
1394.51387,0.05484
1392.58508,0.05471
1390.65629,0.05474
1388.72751,0.05467
1386.79872,0.05448
1384.86993,0.05447
1382.94114,0.05475
1381.01235,0.05514
1379.08356,0.05564
1377.15478,0.05611
1375.22599,0.05618
1373.29720,0.05583
1371.36841,0.05552
1369.43962,0.05536
1367.51083,0.05519
1365.58205,0.05494
1363.65326,0.05467
1361.72447,0.05447
1359.79568,0.05432
1357.86689,0.05420
1355.93811,0.05417
1354.00932,0.05420
1352.08053,0.05412
1350.15174,0.05388
1348.22295,0.05355
1346.29416,0.05319
1344.36538,0.05284
1342.43659,0.05253
1340.50780,0.05228
1338.57901,0.05226
1336.65022,0.05261
1334.72144,0.05288
1332.79265,0.05277
1330.86386,0.05252
1328.93507,0.05246
1327.00628,0.05257
1325.07749,0.05266
1323.14871,0.05270
1321.21992,0.05274
1319.29113,0.05255
1317.36234,0.05222
1315.43355,0.05207
1313.50477,0.05203
1311.57598,0.05179
1309.64719,0.05134
1307.71840,0.05084
1305.78961,0.05045
1303.86082,0.05022
1301.93204,0.05001
1300.00325,0.04961
1298.07446,0.04898
1296.14567,0.04822
1294.21688,0.04753
1292.28810,0.04700
1290.35931,0.04667
1288.43052,0.04645
1286.50173,0.04635
1284.57294,0.04655
1282.64415,0.04738
1280.71537,0.04885
1278.78658,0.05081
1276.85779,0.05339
1274.92900,0.05669
1273.00021,0.06065
1271.07142,0.06493
1269.14264,0.06880
1267.21385,0.07146
1265.28506,0.07254
1263.35627,0.07222
1261.42748,0.07105
1259.49870,0.06974
1257.56991,0.06899
1255.64112,0.06900
1253.71233,0.06939
1251.78354,0.06991
1249.85475,0.07068
1247.92597,0.07166
1245.99718,0.07255
1244.06839,0.07306
1242.13960,0.07308
1240.21081,0.07266
1238.28203,0.07201
1236.35324,0.07117
1234.42445,0.07027
1232.49566,0.06972
1230.56687,0.06951
1228.63808,0.06919
1226.70930,0.06863
1224.78051,0.06794
1222.85172,0.06728
1220.92293,0.06672
1218.99414,0.06623
1217.06536,0.06567
1215.13657,0.06501
1213.20778,0.06439
1211.27899,0.06398
1209.35020,0.06376
1207.42141,0.06349
1205.49263,0.06310
1203.56384,0.06279
1201.63505,0.06260
1199.70626,0.06249
1197.77747,0.06244
1195.84868,0.06242
1193.91990,0.06246
1191.99111,0.06241
1190.06232,0.06220
1188.13353,0.06197
1186.20474,0.06179
1184.27596,0.06156
1182.34717,0.06131
1180.41838,0.06101
1178.48959,0.06054
1176.56080,0.05998
1174.63201,0.05966
1172.70323,0.05965
1170.77444,0.05963
1168.84565,0.05959
1166.91686,0.05967
1164.98807,0.05962
1163.05929,0.05923
1161.13050,0.05884
1159.20171,0.05870
1157.27292,0.05857
1155.34413,0.05825
1153.41534,0.05785
1151.48656,0.05768
1149.55777,0.05778
1147.62898,0.05786
1145.70019,0.05773
1143.77140,0.05734
1141.84262,0.05674
1139.91383,0.05606
1137.98504,0.05543
1136.05625,0.05489
1134.12746,0.05431
1132.19867,0.05374
1130.26989,0.05345
1128.34110,0.05338
1126.41231,0.05358
1124.48352,0.05450
1122.55473,0.05632
1120.62595,0.05861
1118.69716,0.06093
1116.76837,0.06295
1114.83958,0.06428
1112.91079,0.06476
1110.98200,0.06467
1109.05322,0.06431
1107.12443,0.06415
1105.19564,0.06505
1103.26685,0.06733
1101.33806,0.06966
1099.40927,0.07060
1097.48049,0.07034
1095.55170,0.06978
1093.62291,0.06902
1091.69412,0.06780
1089.76533,0.06662
1087.83655,0.06628
1085.90776,0.06669
1083.97897,0.06700
1082.05018,0.06675
1080.12139,0.06625
1078.19260,0.06588
1076.26382,0.06570
1074.33503,0.06554
1072.40624,0.06517
1070.47745,0.06483
1068.54866,0.06485
1066.61988,0.06484
1064.69109,0.06443
1062.76230,0.06391
1060.83351,0.06372
1058.90472,0.06388
1056.97593,0.06407
1055.04715,0.06380
1053.11836,0.06298
1051.18957,0.06211
1049.26078,0.06188
1047.33199,0.06212
1045.40321,0.06209
1043.47442,0.06183
1041.54563,0.06180
1039.61684,0.06176
1037.68805,0.06144
1035.75926,0.06119
1033.83048,0.06117
1031.90169,0.06113
1029.97290,0.06091
1028.04411,0.06054
1026.11532,0.06009
1024.18654,0.05966
1022.25775,0.05982
1020.32896,0.06136
1018.40017,0.06371
1016.47138,0.06511
1014.54259,0.06504
1012.61381,0.06423
1010.68502,0.06330
1008.75623,0.06267
1006.82744,0.06235
1004.89865,0.06204
1002.96986,0.06169
1001.04108,0.06151
999.11229,0.06145
997.18350,0.06129
995.25471,0.06101
993.32592,0.06084
991.39714,0.06095
989.46835,0.06100
987.53956,0.06081
985.61077,0.06065
983.68198,0.06050
981.75319,0.06028
979.82441,0.06033
977.89562,0.06075
975.96683,0.06107
974.03804,0.06114
972.10925,0.06113
970.18047,0.06116
968.25168,0.06129
966.32289,0.06134
964.39410,0.06124
962.46531,0.06132
960.53652,0.06184
958.60774,0.06263
956.67895,0.06312
954.75016,0.06328
952.82137,0.06353
950.89258,0.06376
948.96380,0.06378
947.03501,0.06381
945.10622,0.06401
943.17743,0.06416
941.24864,0.06423
939.31985,0.06442
937.39107,0.06444
935.46228,0.06410
933.53349,0.06377
931.60470,0.06346
929.67591,0.06311
927.74712,0.06291
925.81834,0.06277
923.88955,0.06259
921.96076,0.06245
920.03197,0.06227
918.10318,0.06210
916.17440,0.06210
914.24561,0.06235
912.31682,0.06279
910.38803,0.06305
908.45924,0.06289
906.53045,0.06261
904.60167,0.06238
902.67288,0.06208
900.74409,0.06173
898.81530,0.06148
896.88651,0.06138
894.95773,0.06156
893.02894,0.06176
891.10015,0.06176
889.17136,0.06184
887.24257,0.06205
885.31378,0.06201
883.38500,0.06159
881.45621,0.06109
879.52742,0.06095
877.59863,0.06124
875.66984,0.06173
873.74106,0.06207
871.81227,0.06218
869.88348,0.06227
867.95469,0.06241
866.02590,0.06257
864.09711,0.06266
862.16833,0.06261
860.23954,0.06243
858.31075,0.06217
856.38196,0.06182
854.45317,0.06133
852.52439,0.06107
850.59560,0.06148
848.66681,0.06212
846.73802,0.06215
844.80923,0.06151
842.88044,0.06087
840.95166,0.06061
839.02287,0.06062
837.09408,0.06086
835.16529,0.06137
833.23650,0.06184
831.30771,0.06193
829.37893,0.06186
827.45014,0.06183
825.52135,0.06169
823.59256,0.06156
821.66377,0.06174
819.73499,0.06199
817.80620,0.06171
815.87741,0.06108
813.94862,0.06093
812.01983,0.06165
810.09104,0.06264
808.16226,0.06291
806.23347,0.06221
804.30468,0.06146
802.37589,0.06165
800.44710,0.06238
798.51832,0.06232
796.58953,0.06135
794.66074,0.06033
792.73195,0.05988
790.80316,0.06016
788.87437,0.06071
786.94559,0.06076
785.01680,0.06009
783.08801,0.05931
781.15922,0.05907
779.23043,0.05935
777.30165,0.05970
775.37286,0.05969
773.44407,0.05924
771.51528,0.05858
769.58649,0.05806
767.65770,0.05803
765.72892,0.05873
763.80013,0.05983
761.87134,0.06020
759.94255,0.05950
758.01376,0.05900
756.08498,0.05937
754.15619,0.05941
752.22740,0.05843
750.29861,0.05731
748.36982,0.05652
746.44103,0.05563
744.51225,0.05461
742.58346,0.05348
740.65467,0.05198
738.72588,0.05060
736.79709,0.05075
734.86830,0.05364
732.93952,0.05884
731.01073,0.06434
729.08194,0.06808
727.15315,0.06915
725.22436,0.06791
723.29558,0.06588
721.36679,0.06415
719.43800,0.06255
717.50921,0.06108
715.58042,0.06033
713.65163,0.06005
711.72285,0.05935
709.79406,0.05858
707.86527,0.05857
705.93648,0.05887
704.00769,0.05871
702.07891,0.05825
700.15012,0.05803
698.22133,0.05821
696.29254,0.05855
694.36375,0.05855
692.43496,0.05795
690.50618,0.05765
688.57739,0.05838
686.64860,0.05908
684.71981,0.05906
682.79102,0.05933
680.86224,0.06013
678.93345,0.06033
677.00466,0.05978
675.07587,0.05934
673.14708,0.05925
671.21829,0.05922
669.28951,0.05854
667.36072,0.05721
665.43193,0.05665
663.50314,0.05678
661.57435,0.05682
659.64556,0.05685
657.71678,0.05675
655.78799,0.05635
653.85920,0.05574
651.93041,0.05484
650.00162,0.05426
648.07284,0.05460
646.14405,0.05520
644.21526,0.05548
642.28647,0.05582
640.35768,0.05646
638.42889,0.05716
636.50011,0.05803
634.57132,0.05924
632.64253,0.05998
630.71374,0.05964
628.78495,0.05934
626.85617,0.05995
624.92738,0.06063
622.99859,0.06069
621.06980,0.06078
619.14101,0.06107
617.21222,0.06092
615.28344,0.06094
613.35465,0.06206
611.42586,0.06364
609.49707,0.06516
607.56828,0.06678
605.63950,0.06816
603.71071,0.06837
601.78192,0.06704
599.85313,0.06509
