7497.19974,0.10565
7495.27095,0.10494
7493.34216,0.10091
7491.41337,0.10159
7489.48459,0.10573
7487.55580,0.10642
7485.62701,0.10526
7483.69822,0.10479
7481.76943,0.10386
7479.84065,0.10118
7477.91186,0.09775
7475.98307,0.09977
7474.05428,0.10509
7472.12549,0.10638
7470.19670,0.10888
7468.26792,0.11530
7466.33913,0.11724
7464.41034,0.11478
7462.48155,0.11494
7460.55276,0.11583
7458.62398,0.11032
7456.69519,0.10187
7454.76640,0.09971
7452.83761,0.10254
7450.90882,0.10125
7448.98003,0.09626
7447.05125,0.09679
7445.12246,0.10538
7443.19367,0.11426
7441.26488,0.11742
7439.33609,0.11405
7437.40731,0.10578
7435.47852,0.09978
7433.54973,0.09971
7431.62094,0.10231
7429.69215,0.10506
7427.76336,0.10363
7425.83458,0.10087
7423.90579,0.10310
7421.97700,0.10658
7420.04821,0.10552
7418.11942,0.10132
7416.19063,0.10040
7414.26185,0.10394
7412.33306,0.10404
7410.40427,0.09919
7408.47548,0.09594
7406.54669,0.09621
7404.61791,0.09574
7402.68912,0.09547
7400.76033,0.09899
7398.83154,0.10381
7396.90275,0.10518
7394.97396,0.10181
7393.04518,0.09589
7391.11639,0.09317
7389.18760,0.09463
7387.25881,0.09687
7385.33002,0.09979
7383.40124,0.10406
7381.47245,0.10765
7379.54366,0.11058
7377.61487,0.11412
7375.68608,0.11606
7373.75729,0.11256
7371.82851,0.10785
7369.89972,0.10695
7367.97093,0.10653
7366.04214,0.10416
7364.11335,0.10347
7362.18457,0.10444
7360.25578,0.10415
7358.32699,0.10222
7356.39820,0.10109
7354.46941,0.10223
7352.54062,0.10657
7350.61184,0.11360
7348.68305,0.11812
7346.75426,0.11445
7344.82547,0.10901
7342.89668,0.10800
7340.96790,0.10582
7339.03911,0.10262
7337.11032,0.10544
7335.18153,0.10924
7333.25274,0.10685
7331.32395,0.10416
7329.39517,0.10728
7327.46638,0.10733
7325.53759,0.10124
7323.60880,0.09922
7321.68001,0.10041
7319.75122,0.09688
7317.82244,0.09229
7315.89365,0.09343
7313.96486,0.09815
7312.03607,0.10066
7310.10728,0.09900
7308.17850,0.09395
7306.24971,0.09016
7304.32092,0.09275
7302.39213,0.10020
7300.46334,0.10711
7298.53455,0.10960
7296.60577,0.10672
7294.67698,0.10050
7292.74819,0.09595
7290.81940,0.09717
7288.89061,0.10005
7286.96183,0.10030
7285.03304,0.10050
7283.10425,0.10110
7281.17546,0.10024
7279.24667,0.10045
7277.31788,0.10295
7275.38910,0.10443
7273.46031,0.10430
7271.53152,0.10609
7269.60273,0.10696
7267.67394,0.10274
7265.74516,0.09649
7263.81637,0.09269
7261.88758,0.09369
7259.95879,0.09754
7258.03000,0.09982
7256.10121,0.10104
7254.17243,0.10074
7252.24364,0.09870
7250.31485,0.10038
7248.38606,0.10453
7246.45727,0.10521
7244.52848,0.10412
7242.59970,0.10177
7240.67091,0.09680
7238.74212,0.09348
7236.81333,0.09602
7234.88454,0.10489
7232.95576,0.11312
7231.02697,0.11265
7229.09818,0.10910
7227.16939,0.10882
7225.24060,0.10900
7223.31181,0.10567
7221.38303,0.10078
7219.45424,0.09846
7217.52545,0.09942
7215.59666,0.10260
7213.66787,0.10515
7211.73909,0.10439
7209.81030,0.10279
7207.88151,0.10304
7205.95272,0.10448
7204.02393,0.10479
7202.09514,0.10345
7200.16636,0.10259
7198.23757,0.10247
7196.30878,0.10039
7194.37999,0.09716
7192.45120,0.09810
7190.52242,0.10283
7188.59363,0.10479
7186.66484,0.10409
7184.73605,0.10356
7182.80726,0.10054
7180.87847,0.09451
7178.94969,0.09118
7177.02090,0.09450
7175.09211,0.09967
7173.16332,0.09927
7171.23453,0.09743
7169.30575,0.10044
7167.37696,0.10423
7165.44817,0.10353
7163.51938,0.10215
7161.59059,0.10393
7159.66180,0.10610
7157.73302,0.10472
7155.80423,0.09972
7153.87544,0.09466
7151.94665,0.09414
7150.01786,0.09851
7148.08907,0.10297
7146.16029,0.10251
7144.23150,0.09816
7142.30271,0.09471
7140.37392,0.09390
7138.44513,0.09504
7136.51635,0.09803
7134.58756,0.10250
7132.65877,0.10502
7130.72998,0.10237
7128.80119,0.09836
7126.87240,0.09824
7124.94362,0.10151
7123.01483,0.10656
7121.08604,0.10980
7119.15725,0.10612
7117.22846,0.09909
7115.29968,0.09601
7113.37089,0.09766
7111.44210,0.09979
7109.51331,0.09909
7107.58452,0.09816
7105.65573,0.10041
7103.72695,0.10470
7101.79816,0.10677
7099.86937,0.10439
7097.94058,0.10039
7096.01179,0.09858
7094.08301,0.10008
7092.15422,0.10036
7090.22543,0.09884
7088.29664,0.10088
7086.36785,0.10429
7084.43906,0.10384
7082.51028,0.10117
7080.58149,0.09951
7078.65270,0.09850
7076.72391,0.09548
7074.79512,0.09308
7072.86634,0.09654
7070.93755,0.10404
7069.00876,0.10767
7067.07997,0.10485
7065.15118,0.10126
7063.22239,0.09873
7061.29361,0.09599
7059.36482,0.09618
7057.43603,0.09897
7055.50724,0.09974
7053.57845,0.09874
7051.64966,0.09896
7049.72088,0.09835
7047.79209,0.09666
7045.86330,0.09807
7043.93451,0.10084
7042.00572,0.10087
7040.07694,0.09792
7038.14815,0.09315
7036.21936,0.09038
7034.29057,0.09121
7032.36178,0.09462
7030.43299,0.10053
7028.50421,0.10527
7026.57542,0.10512
7024.64663,0.10161
7022.71784,0.09918
7020.78905,0.10037
7018.86027,0.10226
7016.93148,0.10337
7015.00269,0.10585
7013.07390,0.10674
7011.14511,0.10333
7009.21632,0.10028
7007.28754,0.09969
7005.35875,0.09940
7003.42996,0.10024
7001.50117,0.10334
6999.57238,0.10648
6997.64360,0.10737
6995.71481,0.10589
6993.78602,0.10311
6991.85723,0.10094
6989.92844,0.10202
6987.99965,0.10403
6986.07087,0.10326
6984.14208,0.10126
6982.21329,0.10234
6980.28450,0.10721
6978.35571,0.11168
6976.42692,0.11223
6974.49814,0.11075
6972.56935,0.11019
6970.64056,0.10836
6968.71177,0.10274
6966.78298,0.09826
6964.85420,0.09832
6962.92541,0.10029
6960.99662,0.10092
6959.06783,0.10080
6957.13904,0.10274
6955.21025,0.10477
6953.28147,0.10527
6951.35268,0.10632
6949.42389,0.10682
6947.49510,0.10524
6945.56631,0.10166
6943.63753,0.09832
6941.70874,0.09929
6939.77995,0.10360
6937.85116,0.10550
6935.92237,0.10420
6933.99358,0.10420
6932.06480,0.10519
6930.13601,0.10367
6928.20722,0.09982
6926.27843,0.09634
6924.34964,0.09624
6922.42086,0.09942
6920.49207,0.10410
6918.56328,0.10742
6916.63449,0.10650
6914.70570,0.10571
6912.77691,0.10804
6910.84813,0.10726
6908.91934,0.10301
6906.99055,0.10190
6905.06176,0.10296
6903.13297,0.10286
6901.20419,0.10277
6899.27540,0.10194
6897.34661,0.09924
6895.41782,0.09719
6893.48903,0.09890
6891.56024,0.10208
6889.63146,0.10172
6887.70267,0.09950
6885.77388,0.09894
6883.84509,0.09906
6881.91630,0.09917
6879.98751,0.09876
6878.05873,0.09870
6876.12994,0.10142
6874.20115,0.10597
6872.27236,0.10817
6870.34357,0.10494
6868.41479,0.09947
6866.48600,0.09769
6864.55721,0.10007
6862.62842,0.10426
6860.69963,0.10707
6858.77084,0.10659
6856.84206,0.10508
6854.91327,0.10318
6852.98448,0.10016
6851.05569,0.09816
6849.12690,0.09833
6847.19812,0.09983
6845.26933,0.10111
6843.34054,0.10135
6841.41175,0.10153
6839.48296,0.10184
6837.55417,0.10142
6835.62539,0.10120
6833.69660,0.10217
6831.76781,0.10226
6829.83902,0.10007
6827.91023,0.09704
6825.98145,0.09461
6824.05266,0.09525
6822.12387,0.09912
6820.19508,0.10205
6818.26629,0.10233
6816.33750,0.10172
6814.40872,0.10088
6812.47993,0.09894
6810.55114,0.09785
6808.62235,0.10135
6806.69356,0.10645
6804.76478,0.10738
6802.83599,0.10480
6800.90720,0.10238
6798.97841,0.10161
6797.04962,0.10241
6795.12083,0.10314
6793.19205,0.10254
6791.26326,0.10221
6789.33447,0.10352
6787.40568,0.10417
6785.47689,0.10239
6783.54810,0.09988
6781.61932,0.09970
6779.69053,0.10246
6777.76174,0.10516
6775.83295,0.10605
6773.90416,0.10524
6771.97538,0.10260
6770.04659,0.10004
6768.11780,0.09972
6766.18901,0.10200
6764.26022,0.10397
6762.33143,0.10140
6760.40265,0.09680
6758.47386,0.09617
6756.54507,0.09988
6754.61628,0.10430
6752.68749,0.10560
6750.75871,0.10334
6748.82992,0.10147
6746.90113,0.10267
6744.97234,0.10441
6743.04355,0.10391
6741.11476,0.10232
6739.18598,0.10111
6737.25719,0.09995
6735.32840,0.09967
6733.39961,0.10113
6731.47082,0.10337
6729.54204,0.10452
6727.61325,0.10428
6725.68446,0.10437
6723.75567,0.10558
6721.82688,0.10688
6719.89809,0.10696
6717.96931,0.10493
6716.04052,0.10242
6714.11173,0.10198
6712.18294,0.10350
6710.25415,0.10512
6708.32536,0.10526
6706.39658,0.10396
6704.46779,0.10337
6702.53900,0.10437
6700.61021,0.10562
6698.68142,0.10587
6696.75264,0.10421
6694.82385,0.10177
6692.89506,0.10156
6690.96627,0.10325
6689.03748,0.10414
6687.10869,0.10373
6685.17991,0.10322
6683.25112,0.10299
6681.32233,0.10298
6679.39354,0.10362
6677.46475,0.10362
6675.53597,0.10103
6673.60718,0.09745
6671.67839,0.09587
6669.74960,0.09630
6667.82081,0.09762
6665.89202,0.09948
6663.96324,0.09993
6662.03445,0.09880
6660.10566,0.09937
6658.17687,0.10131
6656.24808,0.10280
6654.31930,0.10482
6652.39051,0.10578
6650.46172,0.10403
6648.53293,0.10262
6646.60414,0.10331
6644.67535,0.10401
6642.74657,0.10438
6640.81778,0.10584
6638.88899,0.10727
6636.96020,0.10770
6635.03141,0.10869
6633.10263,0.10939
6631.17384,0.10803
6629.24505,0.10419
6627.31626,0.09888
6625.38747,0.09573
6623.45868,0.09644
6621.52990,0.09897
6619.60111,0.10164
6617.67232,0.10313
6615.74353,0.10413
6613.81474,0.10562
6611.88595,0.10441
6609.95717,0.10107
6608.02838,0.10148
6606.09959,0.10519
6604.17080,0.10654
6602.24201,0.10402
6600.31323,0.10126
6598.38444,0.10105
6596.45565,0.10199
6594.52686,0.10269
6592.59807,0.10351
6590.66928,0.10389
6588.74050,0.10382
6586.81171,0.10460
6584.88292,0.10536
6582.95413,0.10409
6581.02534,0.10341
6579.09656,0.10630
6577.16777,0.11002
6575.23898,0.10978
6573.31019,0.10514
6571.38140,0.10137
6569.45261,0.10165
6567.52383,0.10420
6565.59504,0.10701
6563.66625,0.10625
6561.73746,0.10130
6559.80867,0.09857
6557.87989,0.09982
6555.95110,0.10098
6554.02231,0.10163
6552.09352,0.10171
6550.16473,0.10056
6548.23594,0.10037
6546.30716,0.10242
6544.37837,0.10478
6542.44958,0.10492
6540.52079,0.10272
6538.59200,0.09988
6536.66322,0.09774
6534.73443,0.09817
6532.80564,0.10064
6530.87685,0.10303
6528.94806,0.10435
6527.01927,0.10368
6525.09049,0.10261
6523.16170,0.10383
6521.23291,0.10640
6519.30412,0.10828
6517.37533,0.10795
6515.44654,0.10542
6513.51776,0.10234
6511.58897,0.09975
6509.66018,0.09884
6507.73139,0.10138
6505.80260,0.10550
6503.87382,0.10601
6501.94503,0.10283
6500.01624,0.10076
6498.08745,0.10027
6496.15866,0.09878
6494.22987,0.09738
6492.30109,0.09869
6490.37230,0.10218
6488.44351,0.10539
6486.51472,0.10680
6484.58593,0.10651
6482.65715,0.10540
6480.72836,0.10379
6478.79957,0.10147
6476.87078,0.09947
6474.94199,0.09978
6473.01320,0.10208
6471.08442,0.10303
6469.15563,0.10204
6467.22684,0.10191
6465.29805,0.10326
6463.36926,0.10548
6461.44048,0.10743
6459.51169,0.10670
6457.58290,0.10398
6455.65411,0.10291
6453.72532,0.10437
6451.79653,0.10524
6449.86775,0.10270
6447.93896,0.09929
6446.01017,0.10127
6444.08138,0.10738
6442.15259,0.10942
6440.22380,0.10639
6438.29502,0.10397
6436.36623,0.10337
6434.43744,0.10222
6432.50865,0.10051
6430.57986,0.09909
6428.65108,0.09811
6426.72229,0.09977
6424.79350,0.10445
6422.86471,0.10642
6420.93592,0.10234
6419.00713,0.09848
6417.07835,0.09965
6415.14956,0.10227
6413.22077,0.10247
6411.29198,0.10048
6409.36319,0.09975
6407.43441,0.10153
6405.50562,0.10250
6403.57683,0.10191
6401.64804,0.10163
6399.71925,0.10190
6397.79046,0.10216
6395.86168,0.10321
6393.93289,0.10531
6392.00410,0.10604
6390.07531,0.10477
6388.14652,0.10300
6386.21774,0.10181
6384.28895,0.10230
6382.36016,0.10320
6380.43137,0.10242
6378.50258,0.10105
6376.57379,0.10115
6374.64501,0.10221
6372.71622,0.10297
6370.78743,0.10278
6368.85864,0.10225
6366.92985,0.10323
6365.00107,0.10499
6363.07228,0.10471
6361.14349,0.10241
6359.21470,0.10116
6357.28591,0.10229
6355.35712,0.10368
6353.42834,0.10397
6351.49955,0.10381
6349.57076,0.10287
6347.64197,0.10096
6345.71318,0.10052
6343.78439,0.10279
6341.85561,0.10573
6339.92682,0.10768
6337.99803,0.10750
6336.06924,0.10502
6334.14045,0.10252
6332.21167,0.10110
6330.28288,0.10100
6328.35409,0.10259
6326.42530,0.10374
6324.49651,0.10359
6322.56772,0.10363
6320.63894,0.10265
6318.71015,0.10075
6316.78136,0.10192
6314.85257,0.10547
6312.92378,0.10675
6310.99500,0.10621
6309.06621,0.10635
6307.13742,0.10594
6305.20863,0.10447
6303.27984,0.10389
6301.35105,0.10442
6299.42227,0.10403
6297.49348,0.10250
6295.56469,0.10192
6293.63590,0.10271
6291.70711,0.10409
6289.77833,0.10509
6287.84954,0.10514
6285.92075,0.10548
6283.99196,0.10589
6282.06317,0.10429
6280.13438,0.10111
6278.20560,0.09994
6276.27681,0.10142
6274.34802,0.10146
6272.41923,0.09950
6270.49044,0.09883
6268.56165,0.09982
6266.63287,0.10020
6264.70408,0.09982
6262.77529,0.10039
6260.84650,0.10158
6258.91771,0.10173
6256.98893,0.10110
6255.06014,0.10117
6253.13135,0.10247
6251.20256,0.10451
6249.27377,0.10623
6247.34498,0.10581
6245.41620,0.10367
6243.48741,0.10289
6241.55862,0.10390
6239.62983,0.10377
6237.70104,0.10178
6235.77226,0.10035
6233.84347,0.10121
6231.91468,0.10359
6229.98589,0.10543
6228.05710,0.10568
6226.12831,0.10479
6224.19953,0.10296
6222.27074,0.10104
6220.34195,0.10165
6218.41316,0.10544
6216.48437,0.10800
6214.55559,0.10646
6212.62680,0.10366
6210.69801,0.10193
6208.76922,0.10053
6206.84043,0.09923
6204.91164,0.09833
6202.98286,0.09794
6201.05407,0.09814
6199.12528,0.09911
6197.19649,0.10118
6195.26770,0.10301
6193.33892,0.10279
6191.41013,0.10114
6189.48134,0.10001
6187.55255,0.10007
6185.62376,0.09988
6183.69497,0.09915
6181.76619,0.09968
6179.83740,0.10202
6177.90861,0.10365
6175.97982,0.10226
6174.05103,0.10068
6172.12224,0.10193
6170.19346,0.10350
6168.26467,0.10329
6166.33588,0.10293
6164.40709,0.10335
6162.47830,0.10337
6160.54952,0.10238
6158.62073,0.10041
6156.69194,0.09807
6154.76315,0.09748
6152.83436,0.09895
6150.90557,0.10031
6148.97679,0.10082
6147.04800,0.10046
6145.11921,0.09955
6143.19042,0.09964
6141.26163,0.10154
6139.33285,0.10434
6137.40406,0.10593
6135.47527,0.10522
6133.54648,0.10478
6131.61769,0.10568
6129.68890,0.10482
6127.76012,0.10289
6125.83133,0.10397
6123.90254,0.10664
6121.97375,0.10643
6120.04496,0.10400
6118.11618,0.10272
6116.18739,0.10220
6114.25860,0.10121
6112.32981,0.09998
6110.40102,0.09871
6108.47223,0.09902
6106.54345,0.10151
6104.61466,0.10433
6102.68587,0.10570
6100.75708,0.10480
6098.82829,0.10277
6096.89951,0.10131
6094.97072,0.10048
6093.04193,0.09992
6091.11314,0.10034
6089.18435,0.10162
6087.25556,0.10279
6085.32678,0.10379
6083.39799,0.10394
6081.46920,0.10269
6079.54041,0.10197
6077.61162,0.10215
6075.68283,0.10132
6073.75405,0.09956
6071.82526,0.09909
6069.89647,0.10011
6067.96768,0.10026
6066.03889,0.09936
6064.11011,0.09971
6062.18132,0.10110
6060.25253,0.10178
6058.32374,0.10215
6056.39495,0.10287
6054.46616,0.10321
6052.53738,0.10312
6050.60859,0.10277
6048.67980,0.10164
6046.75101,0.09948
6044.82222,0.09667
6042.89344,0.09513
6040.96465,0.09646
6039.03586,0.09851
6037.10707,0.09891
6035.17828,0.09889
6033.24949,0.09962
6031.32071,0.09997
6029.39192,0.09966
6027.46313,0.09987
6025.53434,0.10061
6023.60555,0.10089
6021.67677,0.09964
6019.74798,0.09648
6017.81919,0.09372
6015.89040,0.09459
6013.96161,0.09752
6012.03282,0.09821
6010.10404,0.09771
6008.17525,0.09863
6006.24646,0.09942
6004.31767,0.09919
6002.38888,0.09869
6000.46009,0.09826
5998.53131,0.09878
5996.60252,0.10003
5994.67373,0.10059
5992.74494,0.09992
5990.81615,0.09901
5988.88737,0.09890
5986.95858,0.09872
5985.02979,0.09781
5983.10100,0.09800
5981.17221,0.09954
5979.24342,0.10079
5977.31464,0.10204
5975.38585,0.10298
5973.45706,0.10234
5971.52827,0.10090
5969.59948,0.09939
5967.67070,0.09854
5965.74191,0.09928
5963.81312,0.10059
5961.88433,0.10056
5959.95554,0.09929
5958.02675,0.09875
5956.09797,0.09988
5954.16918,0.10088
5952.24039,0.10017
5950.31160,0.09908
5948.38281,0.09910
5946.45403,0.09900
5944.52524,0.09771
5942.59645,0.09669
5940.66766,0.09700
5938.73887,0.09771
5936.81008,0.09838
5934.88130,0.09903
5932.95251,0.09937
5931.02372,0.09881
5929.09493,0.09722
5927.16614,0.09667
5925.23736,0.09853
5923.30857,0.10012
5921.37978,0.09968
5919.45099,0.09874
5917.52220,0.09793
5915.59341,0.09719
5913.66463,0.09667
5911.73584,0.09572
5909.80705,0.09479
5907.87826,0.09405
5905.94947,0.09321
5904.02068,0.09403
5902.09190,0.09633
5900.16311,0.09709
5898.23432,0.09606
5896.30553,0.09528
5894.37674,0.09530
5892.44796,0.09553
5890.51917,0.09507
5888.59038,0.09351
5886.66159,0.09242
5884.73280,0.09275
5882.80401,0.09360
5880.87523,0.09443
5878.94644,0.09491
5877.01765,0.09512
5875.08886,0.09573
5873.16007,0.09637
5871.23129,0.09571
5869.30250,0.09358
5867.37371,0.09107
5865.44492,0.08946
5863.51613,0.09003
5861.58734,0.09210
5859.65856,0.09311
5857.72977,0.09177
5855.80098,0.08920
5853.87219,0.08746
5851.94340,0.08749
5850.01462,0.08847
5848.08583,0.08897
5846.15704,0.08824
5844.22825,0.08733
5842.29946,0.08778
5840.37067,0.08863
5838.44189,0.08780
5836.51310,0.08613
5834.58431,0.08571
5832.65552,0.08616
5830.72673,0.08568
5828.79795,0.08447
5826.86916,0.08431
5824.94037,0.08533
5823.01158,0.08621
5821.08279,0.08661
5819.15400,0.08701
5817.22522,0.08764
5815.29643,0.08836
5813.36764,0.08882
5811.43885,0.08883
5809.51006,0.08842
5807.58127,0.08810
5805.65249,0.08868
5803.72370,0.08990
5801.79491,0.09075
5799.86612,0.09087
5797.93733,0.09031
5796.00855,0.08917
5794.07976,0.08850
5792.15097,0.08961
5790.22218,0.09209
5788.29339,0.09457
5786.36460,0.09576
5784.43582,0.09500
5782.50703,0.09363
5780.57824,0.09311
5778.64945,0.09371
5776.72066,0.09460
5774.79188,0.09411
5772.86309,0.09266
5770.93430,0.09251
5769.00551,0.09371
5767.07672,0.09443
5765.14793,0.09411
5763.21915,0.09399
5761.29036,0.09484
5759.36157,0.09543
5757.43278,0.09445
5755.50399,0.09295
5753.57521,0.09246
5751.64642,0.09334
5749.71763,0.09484
5747.78884,0.09499
5745.86005,0.09321
5743.93126,0.09170
5742.00248,0.09239
5740.07369,0.09431
5738.14490,0.09510
5736.21611,0.09438
5734.28732,0.09363
5732.35853,0.09351
5730.42975,0.09301
5728.50096,0.09167
5726.57217,0.09035
5724.64338,0.08965
5722.71459,0.09017
5720.78581,0.09193
5718.85702,0.09352
5716.92823,0.09418
5714.99944,0.09384
5713.07065,0.09236
5711.14186,0.09097
5709.21308,0.09091
5707.28429,0.09151
5705.35550,0.09231
5703.42671,0.09326
5701.49792,0.09368
5699.56914,0.09357
5697.64035,0.09361
5695.71156,0.09425
5693.78277,0.09507
5691.85398,0.09539
5689.92519,0.09508
5687.99641,0.09411
5686.06762,0.09289
5684.13883,0.09174
5682.21004,0.09096
5680.28125,0.09144
5678.35247,0.09321
5676.42368,0.09501
5674.49489,0.09595
5672.56610,0.09594
5670.63731,0.09520
5668.70852,0.09500
5666.77974,0.09598
5664.85095,0.09683
5662.92216,0.09692
5660.99337,0.09665
5659.06458,0.09627
5657.13580,0.09600
5655.20701,0.09629
5653.27822,0.09703
5651.34943,0.09722
5649.42064,0.09718
5647.49185,0.09794
5645.56307,0.09841
5643.63428,0.09779
5641.70549,0.09724
5639.77670,0.09712
5637.84791,0.09649
5635.91912,0.09593
5633.99034,0.09667
5632.06155,0.09765
5630.13276,0.09745
5628.20397,0.09678
5626.27518,0.09650
5624.34640,0.09619
5622.41761,0.09575
5620.48882,0.09562
5618.56003,0.09592
5616.63124,0.09642
5614.70245,0.09673
5612.77367,0.09673
5610.84488,0.09685
5608.91609,0.09721
5606.98730,0.09740
5605.05851,0.09764
5603.12973,0.09799
5601.20094,0.09833
5599.27215,0.09897
5597.34336,0.09924
5595.41457,0.09860
5593.48578,0.09779
5591.55700,0.09779
5589.62821,0.09867
5587.69942,0.09866
5585.77063,0.09751
5583.84184,0.09758
5581.91306,0.09882
5579.98427,0.09866
5578.05548,0.09713
5576.12669,0.09685
5574.19790,0.09809
5572.26911,0.09907
5570.34033,0.09974
5568.41154,0.10056
5566.48275,0.10075
5564.55396,0.09990
5562.62517,0.09884
5560.69639,0.09803
5558.76760,0.09730
5556.83881,0.09737
5554.91002,0.09853
5552.98123,0.09947
5551.05244,0.09943
5549.12366,0.09890
5547.19487,0.09810
5545.26608,0.09732
5543.33729,0.09741
5541.40850,0.09832
5539.47971,0.09906
5537.55093,0.09935
5535.62214,0.09948
5533.69335,0.09925
5531.76456,0.09865
5529.83577,0.09803
5527.90699,0.09797
5525.97820,0.09876
5524.04941,0.09972
5522.12062,0.10018
5520.19183,0.10031
5518.26304,0.10030
5516.33426,0.09958
5514.40547,0.09814
5512.47668,0.09762
5510.54789,0.09835
5508.61910,0.09886
5506.69032,0.09919
5504.76153,0.09999
5502.83274,0.10046
5500.90395,0.10024
5498.97516,0.10048
5497.04637,0.10094
5495.11759,0.10018
5493.18880,0.09892
5491.26001,0.09891
5489.33122,0.09976
5487.40243,0.09980
5485.47365,0.09877
5483.54486,0.09815
5481.61607,0.09886
5479.68728,0.09981
5477.75849,0.09992
5475.82970,0.09982
5473.90092,0.09991
5471.97213,0.09981
5470.04334,0.10000
5468.11455,0.10044
5466.18576,0.10013
5464.25697,0.09889
5462.32819,0.09786
5460.39940,0.09830
5458.47061,0.09959
5456.54182,0.10001
5454.61303,0.09958
5452.68425,0.09935
5450.75546,0.09912
5448.82667,0.09844
5446.89788,0.09771
5444.96909,0.09772
5443.04030,0.09856
5441.11152,0.09946
5439.18273,0.10023
5437.25394,0.10084
5435.32515,0.10056
5433.39636,0.09915
5431.46758,0.09740
5429.53879,0.09647
5427.61000,0.09731
5425.68121,0.09908
5423.75242,0.10033
5421.82363,0.10099
5419.89485,0.10130
5417.96606,0.10077
5416.03727,0.09975
5414.10848,0.09963
5412.17969,0.10038
5410.25091,0.10057
5408.32212,0.10030
5406.39333,0.10072
5404.46454,0.10139
5402.53575,0.10071
5400.60696,0.09931
5398.67818,0.09908
5396.74939,0.09947
5394.82060,0.09908
5392.89181,0.09874
5390.96302,0.09887
5389.03424,0.09887
5387.10545,0.09893
5385.17666,0.09909
5383.24787,0.09921
5381.31908,0.09946
5379.39029,0.10015
5377.46151,0.10112
5375.53272,0.10110
5373.60393,0.10037
5371.67514,0.10034
5369.74635,0.10056
5367.81756,0.10060
5365.88878,0.10077
5363.95999,0.10093
5362.03120,0.10088
5360.10241,0.10074
5358.17362,0.10082
5356.24484,0.10149
5354.31605,0.10242
5352.38726,0.10231
5350.45847,0.10122
5348.52968,0.10013
5346.60089,0.09936
5344.67211,0.09935
5342.74332,0.10006
5340.81453,0.10066
5338.88574,0.10093
5336.95695,0.10123
5335.02817,0.10160
5333.09938,0.10170
5331.17059,0.10132
5329.24180,0.10037
5327.31301,0.09977
5325.38422,0.10050
5323.45544,0.10158
5321.52665,0.10187
5319.59786,0.10146
5317.66907,0.10095
5315.74028,0.10091
5313.81150,0.10116
5311.88271,0.10115
5309.95392,0.10099
5308.02513,0.10079
5306.09634,0.10056
5304.16755,0.10105
5302.23877,0.10206
5300.30998,0.10238
5298.38119,0.10175
5296.45240,0.10097
5294.52361,0.10071
5292.59483,0.10104
5290.66604,0.10151
5288.73725,0.10185
5286.80846,0.10173
5284.87967,0.10111
5282.95088,0.10053
5281.02210,0.10026
5279.09331,0.10062
5277.16452,0.10174
5275.23573,0.10252
5273.30694,0.10216
5271.37815,0.10139
5269.44937,0.10128
5267.52058,0.10158
5265.59179,0.10141
5263.66300,0.10107
5261.73421,0.10111
5259.80543,0.10106
5257.87664,0.10061
5255.94785,0.10022
5254.01906,0.10030
5252.09027,0.10072
5250.16148,0.10121
5248.23270,0.10173
5246.30391,0.10224
5244.37512,0.10235
5242.44633,0.10178
5240.51754,0.10082
5238.58876,0.10010
5236.65997,0.10017
5234.73118,0.10069
5232.80239,0.10120
5230.87360,0.10175
5228.94481,0.10230
5227.01603,0.10252
5225.08724,0.10245
5223.15845,0.10233
5221.22966,0.10204
5219.30087,0.10172
5217.37209,0.10151
5215.44330,0.10118
5213.51451,0.10108
5211.58572,0.10163
5209.65693,0.10238
5207.72814,0.10250
5205.79936,0.10191
5203.87057,0.10147
5201.94178,0.10109
5200.01299,0.10050
5198.08420,0.10039
5196.15541,0.10050
5194.22663,0.10008
5192.29784,0.09984
5190.36905,0.10058
5188.44026,0.10185
5186.51147,0.10259
5184.58269,0.10251
5182.65390,0.10227
5180.72511,0.10220
5178.79632,0.10181
5176.86753,0.10103
5174.93874,0.10057
5173.00996,0.10065
5171.08117,0.10088
5169.15238,0.10116
5167.22359,0.10154
5165.29480,0.10167
5163.36602,0.10134
5161.43723,0.10106
5159.50844,0.10141
5157.57965,0.10195
5155.65086,0.10190
5153.72207,0.10175
5151.79329,0.10219
5149.86450,0.10261
5147.93571,0.10236
5146.00692,0.10145
5144.07813,0.10022
5142.14935,0.09958
5140.22056,0.10002
5138.29177,0.10091
5136.36298,0.10151
5134.43419,0.10145
5132.50540,0.10095
5130.57662,0.10067
5128.64783,0.10063
5126.71904,0.10060
5124.79025,0.10064
5122.86146,0.10100
5120.93268,0.10162
5119.00389,0.10213
5117.07510,0.10215
5115.14631,0.10163
5113.21752,0.10120
5111.28873,0.10123
5109.35995,0.10138
5107.43116,0.10178
5105.50237,0.10252
5103.57358,0.10292
5101.64479,0.10285
5099.71600,0.10271
5097.78722,0.10217
5095.85843,0.10131
5093.92964,0.10087
5092.00085,0.10082
5090.07206,0.10108
5088.14328,0.10173
5086.21449,0.10219
5084.28570,0.10235
5082.35691,0.10272
5080.42812,0.10279
5078.49933,0.10190
5076.57055,0.10082
5074.64176,0.10054
5072.71297,0.10106
5070.78418,0.10182
5068.85539,0.10253
5066.92661,0.10304
5064.99782,0.10265
5063.06903,0.10150
5061.14024,0.10100
5059.21145,0.10148
5057.28266,0.10220
5055.35388,0.10304
5053.42509,0.10381
5051.49630,0.10377
5049.56751,0.10298
5047.63872,0.10269
5045.70994,0.10325
5043.78115,0.10335
5041.85236,0.10251
5039.92357,0.10176
5037.99478,0.10185
5036.06599,0.10253
5034.13721,0.10308
5032.20842,0.10329
5030.27963,0.10339
5028.35084,0.10322
5026.42205,0.10281
5024.49327,0.10253
5022.56448,0.10258
5020.63569,0.10288
5018.70690,0.10294
5016.77811,0.10258
5014.84932,0.10232
5012.92054,0.10240
5010.99175,0.10254
5009.06296,0.10242
5007.13417,0.10202
5005.20538,0.10160
5003.27659,0.10129
5001.34781,0.10121
4999.41902,0.10146
4997.49023,0.10184
4995.56144,0.10231
4993.63265,0.10304
4991.70387,0.10385
4989.77508,0.10444
4987.84629,0.10433
4985.91750,0.10312
4983.98871,0.10191
4982.05992,0.10195
4980.13114,0.10254
4978.20235,0.10251
4976.27356,0.10219
4974.34477,0.10239
4972.41598,0.10292
4970.48720,0.10312
4968.55841,0.10265
4966.62962,0.10191
4964.70083,0.10158
4962.77204,0.10177
4960.84325,0.10247
4958.91447,0.10339
4956.98568,0.10352
4955.05689,0.10242
4953.12810,0.10140
4951.19931,0.10166
4949.27053,0.10272
4947.34174,0.10369
4945.41295,0.10382
4943.48416,0.10309
4941.55537,0.10268
4939.62658,0.10306
4937.69780,0.10331
4935.76901,0.10310
4933.84022,0.10291
4931.91143,0.10264
4929.98264,0.10234
4928.05385,0.10232
4926.12507,0.10213
4924.19628,0.10195
4922.26749,0.10272
4920.33870,0.10380
4918.40991,0.10406
4916.48113,0.10359
4914.55234,0.10289
4912.62355,0.10245
4910.69476,0.10265
4908.76597,0.10320
4906.83718,0.10342
4904.90840,0.10317
4902.97961,0.10305
4901.05082,0.10324
4899.12203,0.10324
4897.19324,0.10333
4895.26446,0.10375
4893.33567,0.10370
4891.40688,0.10303
4889.47809,0.10247
4887.54930,0.10257
4885.62051,0.10313
4883.69173,0.10333
4881.76294,0.10296
4879.83415,0.10252
4877.90536,0.10254
4875.97657,0.10296
4874.04779,0.10314
4872.11900,0.10293
4870.19021,0.10288
4868.26142,0.10330
4866.33263,0.10387
4864.40384,0.10411
4862.47506,0.10411
4860.54627,0.10396
4858.61748,0.10329
4856.68869,0.10263
4854.75990,0.10279
4852.83112,0.10332
4850.90233,0.10372
4848.97354,0.10408
4847.04475,0.10413
4845.11596,0.10371
4843.18717,0.10340
4841.25839,0.10346
4839.32960,0.10363
4837.40081,0.10378
4835.47202,0.10346
4833.54323,0.10263
4831.61444,0.10246
4829.68566,0.10300
4827.75687,0.10319
4825.82808,0.10319
4823.89929,0.10336
4821.97050,0.10317
4820.04172,0.10244
4818.11293,0.10200
4816.18414,0.10236
4814.25535,0.10316
4812.32656,0.10376
4810.39777,0.10375
4808.46899,0.10340
4806.54020,0.10325
4804.61141,0.10330
4802.68262,0.10318
4800.75383,0.10276
4798.82505,0.10230
4796.89626,0.10219
4794.96747,0.10258
4793.03868,0.10314
4791.10989,0.10333
4789.18110,0.10316
4787.25232,0.10338
4785.32353,0.10395
4783.39474,0.10393
4781.46595,0.10318
4779.53716,0.10229
4777.60838,0.10165
4775.67959,0.10156
4773.75080,0.10186
4771.82201,0.10218
4769.89322,0.10245
4767.96443,0.10270
4766.03565,0.10254
4764.10686,0.10185
4762.17807,0.10174
4760.24928,0.10267
4758.32049,0.10345
4756.39170,0.10377
4754.46292,0.10403
4752.53413,0.10392
4750.60534,0.10340
4748.67655,0.10305
4746.74776,0.10318
4744.81898,0.10346
4742.89019,0.10332
4740.96140,0.10287
4739.03261,0.10249
4737.10382,0.10246
4735.17503,0.10280
4733.24625,0.10301
4731.31746,0.10299
4729.38867,0.10314
4727.45988,0.10327
4725.53109,0.10317
4723.60231,0.10318
4721.67352,0.10315
4719.74473,0.10260
4717.81594,0.10173
4715.88715,0.10119
4713.95836,0.10119
4712.02958,0.10145
4710.10079,0.10155
4708.17200,0.10130
4706.24321,0.10126
4704.31442,0.10176
4702.38564,0.10191
4700.45685,0.10114
4698.52806,0.10028
4696.59927,0.10027
4694.67048,0.10082
4692.74169,0.10104
4690.81291,0.10059
4688.88412,0.09994
4686.95533,0.10005
4685.02654,0.10065
4683.09775,0.10070
4681.16897,0.10046
4679.24018,0.10046
4677.31139,0.10038
4675.38260,0.10035
4673.45381,0.10085
4671.52502,0.10136
4669.59624,0.10103
4667.66745,0.10063
4665.73866,0.10092
4663.80987,0.10096
4661.88108,0.10048
4659.95229,0.10055
4658.02351,0.10117
4656.09472,0.10140
4654.16593,0.10146
4652.23714,0.10173
4650.30835,0.10175
4648.37957,0.10146
4646.45078,0.10138
4644.52199,0.10153
4642.59320,0.10169
4640.66441,0.10192
4638.73562,0.10195
4636.80684,0.10142
4634.87805,0.10065
4632.94926,0.10008
4631.02047,0.09984
4629.09168,0.09986
4627.16290,0.09991
4625.23411,0.09981
4623.30532,0.09981
4621.37653,0.10020
4619.44774,0.10062
4617.51895,0.10098
4615.59017,0.10139
4613.66138,0.10154
4611.73259,0.10149
4609.80380,0.10143
4607.87501,0.10142
4605.94623,0.10156
4604.01744,0.10151
4602.08865,0.10111
4600.15986,0.10108
4598.23107,0.10146
4596.30228,0.10139
4594.37350,0.10108
4592.44471,0.10122
4590.51592,0.10154
4588.58713,0.10159
4586.65834,0.10149
4584.72956,0.10151
4582.80077,0.10160
4580.87198,0.10164
4578.94319,0.10172
4577.01440,0.10180
4575.08561,0.10165
4573.15683,0.10133
4571.22804,0.10130
4569.29925,0.10164
4567.37046,0.10202
4565.44167,0.10256
4563.51288,0.10344
4561.58410,0.10396
4559.65531,0.10362
4557.72652,0.10297
4555.79773,0.10261
4553.86894,0.10264
4551.94016,0.10288
4550.01137,0.10301
4548.08258,0.10286
4546.15379,0.10248
4544.22500,0.10221
4542.29621,0.10220
4540.36743,0.10216
4538.43864,0.10201
4536.50985,0.10182
4534.58106,0.10147
4532.65227,0.10131
4530.72349,0.10172
4528.79470,0.10199
4526.86591,0.10168
4524.93712,0.10147
4523.00833,0.10168
4521.07954,0.10211
4519.15076,0.10259
4517.22197,0.10254
4515.29318,0.10187
4513.36439,0.10131
4511.43560,0.10085
4509.50682,0.10023
4507.57803,0.10002
4505.64924,0.10042
4503.72045,0.10064
4501.79166,0.10035
4499.86287,0.10029
4497.93409,0.10062
4496.00530,0.10071
4494.07651,0.10031
4492.14772,0.09959
4490.21893,0.09918
4488.29014,0.09940
4486.36136,0.09968
4484.43257,0.09957
4482.50378,0.09920
4480.57499,0.09882
4478.64620,0.09854
4476.71742,0.09839
4474.78863,0.09857
4472.85984,0.09905
4470.93105,0.09922
4469.00226,0.09883
4467.07347,0.09834
4465.14469,0.09819
4463.21590,0.09833
4461.28711,0.09838
4459.35832,0.09810
4457.42953,0.09759
4455.50075,0.09692
4453.57196,0.09641
4451.64317,0.09640
4449.71438,0.09632
4447.78559,0.09577
4445.85680,0.09516
4443.92802,0.09469
4441.99923,0.09439
4440.07044,0.09424
4438.14165,0.09382
4436.21286,0.09288
4434.28408,0.09185
4432.35529,0.09115
4430.42650,0.09064
4428.49771,0.09002
4426.56892,0.08927
4424.64013,0.08876
4422.71135,0.08863
4420.78256,0.08840
4418.85377,0.08758
4416.92498,0.08627
4414.99619,0.08526
4413.06741,0.08499
4411.13862,0.08484
4409.20983,0.08411
4407.28104,0.08301
4405.35225,0.08202
4403.42346,0.08141
4401.49468,0.08136
4399.56589,0.08155
4397.63710,0.08143
4395.70831,0.08119
4393.77952,0.08109
4391.85073,0.08093
4389.92195,0.08080
4387.99316,0.08090
4386.06437,0.08095
4384.13558,0.08064
4382.20679,0.08017
4380.27801,0.07965
4378.34922,0.07895
4376.42043,0.07824
4374.49164,0.07762
4372.56285,0.07683
4370.63406,0.07605
4368.70528,0.07546
4366.77649,0.07466
4364.84770,0.07372
4362.91891,0.07304
4360.99012,0.07233
4359.06134,0.07153
4357.13255,0.07107
4355.20376,0.07104
4353.27497,0.07116
4351.34618,0.07111
4349.41739,0.07078
4347.48861,0.07035
4345.55982,0.06977
4343.63103,0.06913
4341.70224,0.06876
4339.77345,0.06863
4337.84467,0.06832
4335.91588,0.06772
4333.98709,0.06750
4332.05830,0.06805
4330.12951,0.06866
4328.20072,0.06883
4326.27194,0.06897
4324.34315,0.06929
4322.41436,0.06966
4320.48557,0.07020
4318.55678,0.07088
4316.62800,0.07130
4314.69921,0.07159
4312.77042,0.07208
4310.84163,0.07254
4308.91284,0.07289
4306.98405,0.07318
4305.05527,0.07327
4303.12648,0.07314
4301.19769,0.07306
4299.26890,0.07324
4297.34011,0.07357
4295.41132,0.07395
4293.48254,0.07444
4291.55375,0.07478
4289.62496,0.07464
4287.69617,0.07415
4285.76738,0.07368
4283.83860,0.07338
4281.90981,0.07317
4279.98102,0.07308
4278.05223,0.07347
4276.12344,0.07401
4274.19465,0.07399
4272.26587,0.07365
4270.33708,0.07349
4268.40829,0.07341
4266.47950,0.07331
4264.55071,0.07336
4262.62193,0.07376
4260.69314,0.07444
4258.76435,0.07479
4256.83556,0.07439
4254.90677,0.07375
4252.97798,0.07366
4251.04920,0.07405
4249.12041,0.07423
4247.19162,0.07412
4245.26283,0.07419
4243.33404,0.07435
4241.40526,0.07434
4239.47647,0.07429
4237.54768,0.07418
4235.61889,0.07398
4233.69010,0.07397
4231.76131,0.07409
4229.83253,0.07376
4227.90374,0.07295
4225.97495,0.07254
4224.04616,0.07295
4222.11737,0.07361
4220.18858,0.07376
4218.25980,0.07349
4216.33101,0.07335
4214.40222,0.07343
4212.47343,0.07359
4210.54464,0.07375
4208.61586,0.07370
4206.68707,0.07345
4204.75828,0.07347
4202.82949,0.07401
4200.90070,0.07442
4198.97191,0.07414
4197.04313,0.07375
4195.11434,0.07390
4193.18555,0.07446
4191.25676,0.07506
4189.32797,0.07554
4187.39919,0.07559
4185.47040,0.07524
4183.54161,0.07488
4181.61282,0.07472
4179.68403,0.07477
4177.75524,0.07472
4175.82646,0.07446
4173.89767,0.07443
4171.96888,0.07469
4170.04009,0.07493
4168.11130,0.07515
4166.18252,0.07514
4164.25373,0.07474
4162.32494,0.07473
4160.39615,0.07568
4158.46736,0.07667
4156.53857,0.07668
4154.60979,0.07627
4152.68100,0.07638
4150.75221,0.07686
4148.82342,0.07726
4146.89463,0.07750
4144.96585,0.07766
4143.03706,0.07786
4141.10827,0.07799
4139.17948,0.07781
4137.25069,0.07764
4135.32190,0.07804
4133.39312,0.07879
4131.46433,0.07939
4129.53554,0.07997
4127.60675,0.08046
4125.67796,0.08054
4123.74917,0.08048
4121.82039,0.08060
4119.89160,0.08066
4117.96281,0.08045
4116.03402,0.08016
4114.10523,0.07983
4112.17645,0.07955
4110.24766,0.07944
4108.31887,0.07941
4106.39008,0.07930
4104.46129,0.07917
4102.53250,0.07906
4100.60372,0.07893
4098.67493,0.07880
4096.74614,0.07861
4094.81735,0.07814
4092.88856,0.07743
4090.95978,0.07688
4089.03099,0.07642
4087.10220,0.07561
4085.17341,0.07462
4083.24462,0.07408
4081.31583,0.07427
4079.38705,0.07499
4077.45826,0.07565
4075.52947,0.07594
4073.60068,0.07632
4071.67189,0.07699
4069.74311,0.07744
4067.81432,0.07771
4065.88553,0.07835
4063.95674,0.07920
4062.02795,0.07976
4060.09916,0.08002
4058.17038,0.08034
4056.24159,0.08081
4054.31280,0.08112
4052.38401,0.08126
4050.45522,0.08159
4048.52644,0.08231
4046.59765,0.08297
4044.66886,0.08325
4042.74007,0.08322
4040.81128,0.08288
4038.88249,0.08243
4036.95371,0.08227
4035.02492,0.08242
4033.09613,0.08261
4031.16734,0.08267
4029.23855,0.08251
4027.30976,0.08231
4025.38098,0.08221
4023.45219,0.08211
4021.52340,0.08213
4019.59461,0.08246
4017.66582,0.08282
4015.73704,0.08294
4013.80825,0.08292
4011.87946,0.08285
4009.95067,0.08281
4008.02188,0.08296
4006.09309,0.08336
4004.16431,0.08386
4002.23552,0.08428
4000.30673,0.08457
3998.37794,0.08477
3996.44915,0.08496
3994.52037,0.08521
3992.59158,0.08541
3990.66279,0.08555
3988.73400,0.08573
3986.80521,0.08581
3984.87642,0.08582
3982.94764,0.08604
3981.01885,0.08634
3979.09006,0.08648
3977.16127,0.08669
3975.23248,0.08704
3973.30370,0.08732
3971.37491,0.08750
3969.44612,0.08775
3967.51733,0.08804
3965.58854,0.08795
3963.65975,0.08754
3961.73097,0.08744
3959.80218,0.08776
3957.87339,0.08826
3955.94460,0.08870
3954.01581,0.08876
3952.08702,0.08832
3950.15824,0.08777
3948.22945,0.08755
3946.30066,0.08771
3944.37187,0.08797
3942.44308,0.08795
3940.51430,0.08771
3938.58551,0.08756
3936.65672,0.08758
3934.72793,0.08770
3932.79914,0.08786
3930.87035,0.08801
3928.94157,0.08789
3927.01278,0.08760
3925.08399,0.08735
3923.15520,0.08725
3921.22641,0.08748
3919.29763,0.08772
3917.36884,0.08766
3915.44005,0.08768
3913.51126,0.08798
3911.58247,0.08854
3909.65368,0.08910
3907.72490,0.08916
3905.79611,0.08854
3903.86732,0.08778
3901.93853,0.08786
3900.00974,0.08847
3898.08096,0.08864
3896.15217,0.08869
3894.22338,0.08895
3892.29459,0.08919
3890.36580,0.08938
3888.43701,0.08957
3886.50823,0.08957
3884.57944,0.08916
3882.65065,0.08858
3880.72186,0.08829
3878.79307,0.08851
3876.86429,0.08899
3874.93550,0.08936
3873.00671,0.08940
3871.07792,0.08921
3869.14913,0.08908
3867.22034,0.08915
3865.29156,0.08911
3863.36277,0.08896
3861.43398,0.08908
3859.50519,0.08940
3857.57640,0.08973
3855.64761,0.09011
3853.71883,0.09038
3851.79004,0.09003
3849.86125,0.08972
3847.93246,0.08988
3846.00367,0.09028
3844.07489,0.09046
3842.14610,0.09031
3840.21731,0.08991
3838.28852,0.08951
3836.35973,0.08966
3834.43094,0.09012
3832.50216,0.09029
3830.57337,0.09025
3828.64458,0.09038
3826.71579,0.09069
3824.78700,0.09095
3822.85822,0.09093
3820.92943,0.09062
3819.00064,0.09070
3817.07185,0.09114
3815.14306,0.09140
3813.21427,0.09148
3811.28549,0.09157
3809.35670,0.09176
3807.42791,0.09172
3805.49912,0.09121
3803.57033,0.09093
3801.64155,0.09135
3799.71276,0.09212
3797.78397,0.09255
3795.85518,0.09244
3793.92639,0.09217
3791.99760,0.09209
3790.06882,0.09206
3788.14003,0.09221
3786.21124,0.09266
3784.28245,0.09305
3782.35366,0.09316
3780.42488,0.09308
3778.49609,0.09278
3776.56730,0.09246
3774.63851,0.09243
3772.70972,0.09256
3770.78093,0.09233
3768.85215,0.09185
3766.92336,0.09174
3764.99457,0.09195
3763.06578,0.09204
3761.13699,0.09190
3759.20820,0.09179
3757.27942,0.09214
3755.35063,0.09279
3753.42184,0.09317
3751.49305,0.09298
3749.56426,0.09293
3747.63548,0.09311
3745.70669,0.09303
3743.77790,0.09298
3741.84911,0.09317
3739.92032,0.09335
3737.99153,0.09351
3736.06275,0.09345
3734.13396,0.09308
3732.20517,0.09323
3730.27638,0.09397
3728.34759,0.09451
3726.41881,0.09439
3724.49002,0.09403
3722.56123,0.09392
3720.63244,0.09379
3718.70365,0.09356
3716.77486,0.09346
3714.84608,0.09329
3712.91729,0.09273
3710.98850,0.09219
3709.05971,0.09231
3707.13092,0.09256
3705.20214,0.09260
3703.27335,0.09239
3701.34456,0.09187
3699.41577,0.09135
3697.48698,0.09098
3695.55819,0.09059
3693.62941,0.09026
3691.70062,0.08980
3689.77183,0.08842
3687.84304,0.08692
3685.91425,0.08653
3683.98546,0.08649
3682.05668,0.08631
3680.12789,0.08615
3678.19910,0.08600
3676.27031,0.08550
3674.34152,0.08528
3672.41274,0.08573
3670.48395,0.08595
3668.55516,0.08577
3666.62637,0.08571
3664.69758,0.08569
3662.76879,0.08568
3660.84001,0.08594
3658.91122,0.08629
3656.98243,0.08623
3655.05364,0.08621
3653.12485,0.08681
3651.19607,0.08742
3649.26728,0.08717
3647.33849,0.08680
3645.40970,0.08718
3643.48091,0.08751
3641.55212,0.08731
3639.62334,0.08708
3637.69455,0.08731
3635.76576,0.08756
3633.83697,0.08741
3631.90818,0.08692
3629.97940,0.08586
3628.05061,0.08471
3626.12182,0.08479
3624.19303,0.08513
3622.26424,0.08484
3620.33545,0.08420
3618.40667,0.08415
3616.47788,0.08452
3614.54909,0.08444
3612.62030,0.08418
3610.69151,0.08423
3608.76273,0.08426
3606.83394,0.08401
3604.90515,0.08384
3602.97636,0.08375
3601.04757,0.08350
3599.11878,0.08310
3597.19000,0.08240
3595.26121,0.08163
3593.33242,0.08157
3591.40363,0.08208
3589.47484,0.08221
3587.54605,0.08177
3585.61727,0.08156
3583.68848,0.08158
3581.75969,0.08129
3579.83090,0.08083
3577.90211,0.08064
3575.97333,0.08051
3574.04454,0.08010
3572.11575,0.07986
3570.18696,0.07982
3568.25817,0.07916
3566.32938,0.07820
3564.40060,0.07810
3562.47181,0.07843
3560.54302,0.07860
3558.61423,0.07848
3556.68544,0.07822
3554.75666,0.07785
3552.82787,0.07735
3550.89908,0.07714
3548.97029,0.07723
3547.04150,0.07698
3545.11271,0.07645
3543.18393,0.07643
3541.25514,0.07685
3539.32635,0.07701
3537.39756,0.07676
3535.46877,0.07659
3533.53999,0.07662
3531.61120,0.07660
3529.68241,0.07644
3527.75362,0.07617
3525.82483,0.07585
3523.89604,0.07567
3521.96726,0.07577
3520.03847,0.07590
3518.10968,0.07576
3516.18089,0.07545
3514.25210,0.07518
3512.32332,0.07500
3510.39453,0.07476
3508.46574,0.07423
3506.53695,0.07371
3504.60816,0.07365
3502.67937,0.07381
3500.75059,0.07371
3498.82180,0.07350
3496.89301,0.07331
3494.96422,0.07294
3493.03543,0.07252
3491.10664,0.07248
3489.17786,0.07266
3487.24907,0.07252
3485.32028,0.07225
3483.39149,0.07214
3481.46270,0.07194
3479.53392,0.07139
3477.60513,0.07062
3475.67634,0.07007
3473.74755,0.06995
3471.81876,0.06988
3469.88997,0.06969
3467.96119,0.06956
3466.03240,0.06953
3464.10361,0.06947
3462.17482,0.06937
3460.24603,0.06932
3458.31725,0.06898
3456.38846,0.06825
3454.45967,0.06763
3452.53088,0.06748
3450.60209,0.06775
3448.67330,0.06796
3446.74452,0.06766
3444.81573,0.06717
3442.88694,0.06675
3440.95815,0.06651
3439.02936,0.06663
3437.10058,0.06670
3435.17179,0.06620
3433.24300,0.06560
3431.31421,0.06535
3429.38542,0.06505
3427.45663,0.06469
3425.52785,0.06468
3423.59906,0.06478
3421.67027,0.06481
3419.74148,0.06509
3417.81269,0.06557
3415.88390,0.06577
3413.95512,0.06550
3412.02633,0.06524
3410.09754,0.06547
3408.16875,0.06619
3406.23996,0.06715
3404.31118,0.06786
3402.38239,0.06810
3400.45360,0.06818
3398.52481,0.06822
3396.59602,0.06808
3394.66723,0.06811
3392.73845,0.06866
3390.80966,0.06944
3388.88087,0.06999
3386.95208,0.07033
3385.02329,0.07067
3383.09451,0.07115
3381.16572,0.07151
3379.23693,0.07151
3377.30814,0.07144
3375.37935,0.07153
3373.45056,0.07160
3371.52178,0.07153
3369.59299,0.07156
3367.66420,0.07159
3365.73541,0.07144
3363.80662,0.07167
3361.87784,0.07237
3359.94905,0.07285
3358.02026,0.07300
3356.09147,0.07297
3354.16268,0.07270
3352.23389,0.07235
3350.30511,0.07229
3348.37632,0.07256
3346.44753,0.07278
3344.51874,0.07289
3342.58995,0.07291
3340.66117,0.07261
3338.73238,0.07218
3336.80359,0.07186
3334.87480,0.07157
3332.94601,0.07144
3331.01722,0.07144
3329.08844,0.07127
3327.15965,0.07109
3325.23086,0.07109
3323.30207,0.07108
3321.37328,0.07112
3319.44449,0.07124
3317.51571,0.07089
3315.58692,0.06985
3313.65813,0.06871
3311.72934,0.06804
3309.80055,0.06751
3307.87177,0.06648
3305.94298,0.06513
3304.01419,0.06395
3302.08540,0.06336
3300.15661,0.06343
3298.22782,0.06368
3296.29904,0.06404
3294.37025,0.06500
3292.44146,0.06631
3290.51267,0.06744
3288.58388,0.06847
3286.65510,0.06952
3284.72631,0.07044
3282.79752,0.07112
3280.86873,0.07147
3278.93994,0.07192
3277.01115,0.07294
3275.08237,0.07398
3273.15358,0.07442
3271.22479,0.07450
3269.29600,0.07462
3267.36721,0.07477
3265.43843,0.07481
3263.50964,0.07475
3261.58085,0.07484
3259.65206,0.07536
3257.72327,0.07628
3255.79448,0.07694
3253.86570,0.07682
3251.93691,0.07627
3250.00812,0.07579
3248.07933,0.07537
3246.15054,0.07501
3244.22175,0.07518
3242.29297,0.07596
3240.36418,0.07644
3238.43539,0.07633
3236.50660,0.07616
3234.57781,0.07597
3232.64903,0.07583
3230.72024,0.07612
3228.79145,0.07655
3226.86266,0.07658
3224.93387,0.07639
3223.00508,0.07630
3221.07630,0.07632
3219.14751,0.07633
3217.21872,0.07602
3215.28993,0.07546
3213.36114,0.07516
3211.43236,0.07523
3209.50357,0.07534
3207.57478,0.07516
3205.64599,0.07475
3203.71720,0.07463
3201.78841,0.07501
3199.85963,0.07527
3197.93084,0.07499
3196.00205,0.07456
3194.07326,0.07440
3192.14447,0.07451
3190.21569,0.07465
3188.28690,0.07478
3186.35811,0.07498
3184.42932,0.07514
3182.50053,0.07518
3180.57174,0.07520
3178.64296,0.07508
3176.71417,0.07475
3174.78538,0.07449
3172.85659,0.07455
3170.92780,0.07478
3168.99902,0.07482
3167.07023,0.07469
3165.14144,0.07467
3163.21265,0.07472
3161.28386,0.07475
3159.35507,0.07467
3157.42629,0.07439
3155.49750,0.07432
3153.56871,0.07459
3151.63992,0.07459
3149.71113,0.07424
3147.78234,0.07407
3145.85356,0.07410
3143.92477,0.07403
3141.99598,0.07385
3140.06719,0.07356
3138.13840,0.07327
3136.20962,0.07329
3134.28083,0.07349
3132.35204,0.07352
3130.42325,0.07325
3128.49446,0.07282
3126.56567,0.07252
3124.63689,0.07221
3122.70810,0.07175
3120.77931,0.07154
3118.85052,0.07171
3116.92173,0.07198
3114.99295,0.07216
3113.06416,0.07197
3111.13537,0.07146
3109.20658,0.07090
3107.27779,0.07032
3105.34900,0.06979
3103.42022,0.06936
3101.49143,0.06884
3099.56264,0.06824
3097.63385,0.06785
3095.70506,0.06754
3093.77628,0.06712
3091.84749,0.06689
3089.91870,0.06678
3087.98991,0.06659
3086.06112,0.06644
3084.13233,0.06615
3082.20355,0.06584
3080.27476,0.06562
3078.34597,0.06525
3076.41718,0.06492
3074.48839,0.06484
3072.55961,0.06480
3070.63082,0.06466
3068.70203,0.06448
3066.77324,0.06419
3064.84445,0.06370
3062.91566,0.06315
3060.98688,0.06273
3059.05809,0.06256
3057.12930,0.06257
3055.20051,0.06262
3053.27172,0.06282
3051.34293,0.06308
3049.41415,0.06309
3047.48536,0.06291
3045.55657,0.06291
3043.62778,0.06307
3041.69899,0.06305
3039.77021,0.06279
3037.84142,0.06258
3035.91263,0.06255
3033.98384,0.06239
3032.05505,0.06194
3030.12626,0.06152
3028.19748,0.06128
3026.26869,0.06100
3024.33990,0.06070
3022.41111,0.06053
3020.48232,0.06025
3018.55354,0.05979
3016.62475,0.05947
3014.69596,0.05925
3012.76717,0.05900
3010.83838,0.05887
3008.90959,0.05891
3006.98081,0.05881
3005.05202,0.05823
3003.12323,0.05763
3001.19444,0.05760
2999.26565,0.05783
2997.33687,0.05778
2995.40808,0.05746
2993.47929,0.05709
2991.55050,0.05694
2989.62171,0.05695
2987.69292,0.05690
2985.76414,0.05673
2983.83535,0.05643
2981.90656,0.05618
2979.97777,0.05613
2978.04898,0.05595
2976.12019,0.05564
2974.19141,0.05556
2972.26262,0.05587
2970.33383,0.05634
2968.40504,0.05677
2966.47625,0.05718
2964.54747,0.05767
2962.61868,0.05821
2960.68989,0.05864
2958.76110,0.05891
2956.83231,0.05924
2954.90352,0.05975
2952.97474,0.06012
2951.04595,0.06013
2949.11716,0.05986
2947.18837,0.05934
2945.25958,0.05877
2943.33080,0.05854
2941.40201,0.05863
2939.47322,0.05887
2937.54443,0.05924
2935.61564,0.05963
2933.68685,0.06014
2931.75807,0.06081
2929.82928,0.06129
2927.90049,0.06160
2925.97170,0.06191
2924.04291,0.06210
2922.11413,0.06229
2920.18534,0.06265
2918.25655,0.06280
2916.32776,0.06252
2914.39897,0.06231
2912.47018,0.06252
2910.54140,0.06278
2908.61261,0.06288
2906.68382,0.06278
2904.75503,0.06257
2902.82624,0.06244
2900.89746,0.06248
2898.96867,0.06270
2897.03988,0.06290
2895.11109,0.06279
2893.18230,0.06249
2891.25351,0.06226
2889.32473,0.06213
2887.39594,0.06202
2885.46715,0.06185
2883.53836,0.06166
2881.60957,0.06171
2879.68078,0.06202
2877.75200,0.06219
2875.82321,0.06209
2873.89442,0.06191
2871.96563,0.06177
2870.03684,0.06167
2868.10806,0.06153
2866.17927,0.06151
2864.25048,0.06193
2862.32169,0.06259
2860.39290,0.06303
2858.46411,0.06325
2856.53533,0.06339
2854.60654,0.06347
2852.67775,0.06364
2850.74896,0.06369
2848.82017,0.06345
2846.89139,0.06321
2844.96260,0.06317
2843.03381,0.06332
2841.10502,0.06352
2839.17623,0.06362
2837.24744,0.06349
2835.31866,0.06321
2833.38987,0.06308
2831.46108,0.06310
2829.53229,0.06299
2827.60350,0.06272
2825.67472,0.06243
2823.74593,0.06216
2821.81714,0.06210
2819.88835,0.06218
2817.95956,0.06215
2816.03077,0.06226
2814.10199,0.06263
2812.17320,0.06294
2810.24441,0.06309
2808.31562,0.06323
2806.38683,0.06332
2804.45805,0.06344
2802.52926,0.06372
2800.60047,0.06401
2798.67168,0.06426
2796.74289,0.06456
2794.81410,0.06489
2792.88532,0.06539
2790.95653,0.06602
2789.02774,0.06639
2787.09895,0.06653
2785.17016,0.06680
2783.24137,0.06726
2781.31259,0.06770
2779.38380,0.06790
2777.45501,0.06788
2775.52622,0.06791
2773.59743,0.06802
2771.66865,0.06814
2769.73986,0.06829
2767.81107,0.06845
2765.88228,0.06861
2763.95349,0.06882
2762.02470,0.06903
2760.09592,0.06908
2758.16713,0.06897
2756.23834,0.06893
2754.30955,0.06891
2752.38076,0.06869
2750.45198,0.06848
2748.52319,0.06840
2746.59440,0.06817
2744.66561,0.06771
2742.73682,0.06738
2740.80803,0.06731
2738.87925,0.06724
2736.95046,0.06714
2735.02167,0.06714
2733.09288,0.06715
2731.16409,0.06717
2729.23531,0.06753
2727.30652,0.06824
2725.37773,0.06876
2723.44894,0.06896
2721.52015,0.06911
2719.59136,0.06945
2717.66258,0.06991
2715.73379,0.07033
2713.80500,0.07064
2711.87621,0.07080
2709.94742,0.07096
2708.01863,0.07136
2706.08985,0.07178
2704.16106,0.07198
2702.23227,0.07210
2700.30348,0.07224
2698.37469,0.07234
2696.44591,0.07246
2694.51712,0.07251
2692.58833,0.07239
2690.65954,0.07232
2688.73075,0.07243
2686.80196,0.07250
2684.87318,0.07235
2682.94439,0.07212
2681.01560,0.07203
2679.08681,0.07208
2677.15802,0.07217
2675.22924,0.07223
2673.30045,0.07223
2671.37166,0.07223
2669.44287,0.07223
2667.51408,0.07224
2665.58529,0.07238
2663.65651,0.07272
2661.72772,0.07319
2659.79893,0.07365
2657.87014,0.07407
2655.94135,0.07441
2654.01257,0.07453
2652.08378,0.07459
2650.15499,0.07470
2648.22620,0.07477
2646.29741,0.07492
2644.36862,0.07506
2642.43984,0.07484
2640.51105,0.07445
2638.58226,0.07424
2636.65347,0.07419
2634.72468,0.07419
2632.79590,0.07402
2630.86711,0.07361
2628.93832,0.07338
2627.00953,0.07351
2625.08074,0.07372
2623.15195,0.07376
2621.22317,0.07363
2619.29438,0.07344
2617.36559,0.07317
2615.43680,0.07294
2613.50801,0.07300
2611.57922,0.07322
2609.65044,0.07329
2607.72165,0.07330
2605.79286,0.07333
2603.86407,0.07332
2601.93528,0.07335
2600.00650,0.07344
2598.07771,0.07351
2596.14892,0.07355
2594.22013,0.07358
2592.29134,0.07356
2590.36255,0.07352
2588.43377,0.07343
2586.50498,0.07327
2584.57619,0.07318
2582.64740,0.07320
2580.71861,0.07322
2578.78983,0.07315
2576.86104,0.07307
2574.93225,0.07318
2573.00346,0.07350
2571.07467,0.07384
2569.14588,0.07396
2567.21710,0.07393
2565.28831,0.07398
2563.35952,0.07407
2561.43073,0.07413
2559.50194,0.07412
2557.57316,0.07406
2555.64437,0.07403
2553.71558,0.07408
2551.78679,0.07414
2549.85800,0.07417
2547.92921,0.07430
2546.00043,0.07458
2544.07164,0.07483
2542.14285,0.07493
2540.21406,0.07504
2538.28527,0.07523
2536.35649,0.07531
2534.42770,0.07525
2532.49891,0.07525
2530.57012,0.07533
2528.64133,0.07550
2526.71254,0.07579
2524.78376,0.07604
2522.85497,0.07615
2520.92618,0.07626
2518.99739,0.07648
2517.06860,0.07681
2515.13981,0.07719
2513.21103,0.07758
2511.28224,0.07793
2509.35345,0.07828
2507.42466,0.07869
2505.49587,0.07895
2503.56709,0.07889
2501.63830,0.07877
2499.70951,0.07884
2497.78072,0.07901
2495.85193,0.07916
2493.92314,0.07933
2491.99436,0.07956
2490.06557,0.07970
2488.13678,0.07975
2486.20799,0.07986
2484.27920,0.07995
2482.35042,0.07991
2480.42163,0.07985
2478.49284,0.07980
2476.56405,0.07980
2474.63526,0.07993
2472.70647,0.08020
2470.77769,0.08050
2468.84890,0.08067
2466.92011,0.08067
2464.99132,0.08050
2463.06253,0.08032
2461.13375,0.08039
2459.20496,0.08072
2457.27617,0.08092
2455.34738,0.08083
2453.41859,0.08063
2451.48980,0.08046
2449.56102,0.08035
2447.63223,0.08046
2445.70344,0.08062
2443.77465,0.08046
2441.84586,0.08013
2439.91707,0.07983
2437.98829,0.07961
2436.05950,0.07951
2434.13071,0.07949
2432.20192,0.07937
2430.27313,0.07907
2428.34435,0.07864
2426.41556,0.07819
2424.48677,0.07792
2422.55798,0.07787
2420.62919,0.07785
2418.70040,0.07772
2416.77162,0.07747
2414.84283,0.07718
2412.91404,0.07697
2410.98525,0.07676
2409.05646,0.07649
2407.12768,0.07622
2405.19889,0.07597
2403.27010,0.07574
2401.34131,0.07554
2399.41252,0.07536
2397.48373,0.07534
2395.55495,0.07551
2393.62616,0.07553
2391.69737,0.07528
2389.76858,0.07499
2387.83979,0.07482
2385.91101,0.07475
2383.98222,0.07461
2382.05343,0.07437
2380.12464,0.07427
2378.19585,0.07429
2376.26706,0.07439
2374.33828,0.07473
2372.40949,0.07532
2370.48070,0.07587
2368.55191,0.07597
2366.62312,0.07559
2364.69434,0.07543
2362.76555,0.07604
2360.83676,0.07694
2358.90797,0.07751
2356.97918,0.07782
2355.05039,0.07804
2353.12161,0.07824
2351.19282,0.07857
2349.26403,0.07903
2347.33524,0.07945
2345.40645,0.07975
2343.47766,0.07996
2341.54888,0.08022
2339.62009,0.08066
2337.69130,0.08112
2335.76251,0.08134
2333.83372,0.08140
2331.90494,0.08161
2329.97615,0.08200
2328.04736,0.08222
2326.11857,0.08207
2324.18978,0.08179
2322.26099,0.08173
2320.33221,0.08209
2318.40342,0.08266
2316.47463,0.08307
2314.54584,0.08308
2312.61705,0.08280
2310.68827,0.08259
2308.75948,0.08257
2306.83069,0.08258
2304.90190,0.08257
2302.97311,0.08255
2301.04432,0.08237
2299.11554,0.08199
2297.18675,0.08175
2295.25796,0.08177
2293.32917,0.08168
2291.40038,0.08131
2289.47160,0.08088
2287.54281,0.08047
2285.61402,0.07997
2283.68523,0.07944
2281.75644,0.07908
2279.82765,0.07897
2277.89887,0.07896
2275.97008,0.07895
2274.04129,0.07909
2272.11250,0.07938
2270.18371,0.07981
2268.25493,0.08037
2266.32614,0.08080
2264.39735,0.08087
2262.46856,0.08076
2260.53977,0.08073
2258.61098,0.08072
2256.68220,0.08072
2254.75341,0.08071
2252.82462,0.08058
2250.89583,0.08040
2248.96704,0.08032
2247.03825,0.08040
2245.10947,0.08061
2243.18068,0.08072
2241.25189,0.08073
2239.32310,0.08078
2237.39431,0.08071
2235.46553,0.08044
2233.53674,0.08034
2231.60795,0.08046
2229.67916,0.08052
2227.75037,0.08057
2225.82158,0.08074
2223.89280,0.08092
2221.96401,0.08101
2220.03522,0.08103
2218.10643,0.08105
2216.17764,0.08104
2214.24886,0.08105
2212.32007,0.08111
2210.39128,0.08130
2208.46249,0.08160
2206.53370,0.08192
2204.60491,0.08238
2202.67613,0.08297
2200.74734,0.08336
2198.81855,0.08345
2196.88976,0.08347
2194.96097,0.08350
2193.03219,0.08353
2191.10340,0.08375
2189.17461,0.08418
2187.24582,0.08446
2185.31703,0.08445
2183.38824,0.08445
2181.45946,0.08466
2179.53067,0.08504
2177.60188,0.08544
2175.67309,0.08566
2173.74430,0.08563
2171.81551,0.08539
2169.88673,0.08516
2167.95794,0.08506
2166.02915,0.08500
2164.10036,0.08495
2162.17157,0.08493
2160.24279,0.08475
2158.31400,0.08445
2156.38521,0.08428
2154.45642,0.08437
2152.52763,0.08463
2150.59884,0.08484
2148.67006,0.08485
2146.74127,0.08464
2144.81248,0.08437
2142.88369,0.08417
2140.95490,0.08407
2139.02612,0.08410
2137.09733,0.08416
2135.16854,0.08418
2133.23975,0.08415
2131.31096,0.08399
2129.38217,0.08372
2127.45339,0.08363
2125.52460,0.08381
2123.59581,0.08388
2121.66702,0.08364
2119.73823,0.08332
2117.80945,0.08318
2115.88066,0.08325
2113.95187,0.08339
2112.02308,0.08343
2110.09429,0.08332
2108.16550,0.08313
2106.23672,0.08291
2104.30793,0.08282
2102.37914,0.08298
2100.45035,0.08319
2098.52156,0.08317
2096.59278,0.08295
2094.66399,0.08268
2092.73520,0.08252
2090.80641,0.08256
2088.87762,0.08272
2086.94883,0.08271
2085.02005,0.08246
2083.09126,0.08212
2081.16247,0.08185
2079.23368,0.08180
2077.30489,0.08197
2075.37610,0.08215
2073.44732,0.08209
2071.51853,0.08185
2069.58974,0.08172
2067.66095,0.08189
2065.73216,0.08227
2063.80338,0.08252
2061.87459,0.08249
2059.94580,0.08239
2058.01701,0.08232
2056.08822,0.08235
2054.15943,0.08245
2052.23065,0.08263
2050.30186,0.08294
2048.37307,0.08322
2046.44428,0.08324
2044.51549,0.08307
2042.58671,0.08296
2040.65792,0.08313
2038.72913,0.08346
2036.80034,0.08370
2034.87155,0.08375
2032.94276,0.08363
2031.01398,0.08341
2029.08519,0.08325
2027.15640,0.08330
2025.22761,0.08364
2023.29882,0.08407
2021.37004,0.08432
2019.44125,0.08435
2017.51246,0.08437
2015.58367,0.08450
2013.65488,0.08475
2011.72609,0.08503
2009.79731,0.08512
2007.86852,0.08497
2005.93973,0.08477
2004.01094,0.08460
2002.08215,0.08451
2000.15336,0.08447
1998.22458,0.08434
1996.29579,0.08387
1994.36700,0.08308
1992.43821,0.08238
1990.50942,0.08214
1988.58064,0.08224
1986.65185,0.08232
1984.72306,0.08216
1982.79427,0.08178
1980.86548,0.08146
1978.93669,0.08127
1977.00791,0.08115
1975.07912,0.08112
1973.15033,0.08103
1971.22154,0.08067
1969.29275,0.07996
1967.36397,0.07895
1965.43518,0.07802
1963.50639,0.07739
1961.57760,0.07679
1959.64881,0.07601
1957.72002,0.07496
1955.79124,0.07369
1953.86245,0.07249
1951.93366,0.07169
1950.00487,0.07145
1948.07608,0.07169
1946.14730,0.07211
1944.21851,0.07248
1942.28972,0.07296
1940.36093,0.07376
1938.43214,0.07472
1936.50335,0.07567
1934.57457,0.07654
1932.64578,0.07727
1930.71699,0.07773
1928.78820,0.07801
1926.85941,0.07834
1924.93063,0.07881
1923.00184,0.07925
1921.07305,0.07951
1919.14426,0.07961
1917.21547,0.07963
1915.28668,0.07968
1913.35790,0.07984
1911.42911,0.08007
1909.50032,0.08029
1907.57153,0.08038
1905.64274,0.08024
1903.71395,0.08014
1901.78517,0.08027
1899.85638,0.08057
1897.92759,0.08078
1895.99880,0.08077
1894.07001,0.08065
1892.14123,0.08047
1890.21244,0.08019
1888.28365,0.08018
1886.35486,0.08060
1884.42607,0.08086
1882.49728,0.08061
1880.56850,0.08023
1878.63971,0.08012
1876.71092,0.08028
1874.78213,0.08057
1872.85334,0.08089
1870.92456,0.08095
1868.99577,0.08057
1867.06698,0.07998
1865.13819,0.07962
1863.20940,0.07955
1861.28061,0.07949
1859.35183,0.07913
1857.42304,0.07857
1855.49425,0.07806
1853.56546,0.07761
1851.63667,0.07714
1849.70789,0.07663
1847.77910,0.07599
1845.85031,0.07506
1843.92152,0.07398
1841.99273,0.07336
1840.06394,0.07314
1838.13516,0.07270
1836.20637,0.07181
1834.27758,0.07071
1832.34879,0.06966
1830.42000,0.06854
1828.49122,0.06750
1826.56243,0.06684
1824.63364,0.06636
1822.70485,0.06602
1820.77606,0.06593
1818.84727,0.06603
1816.91849,0.06627
1814.98970,0.06670
1813.06091,0.06711
1811.13212,0.06717
1809.20333,0.06701
1807.27454,0.06698
1805.34576,0.06702
1803.41697,0.06691
1801.48818,0.06651
1799.55939,0.06585
1797.63060,0.06529
1795.70182,0.06501
1793.77303,0.06482
1791.84424,0.06441
1789.91545,0.06379
1787.98666,0.06318
1786.05787,0.06258
1784.12909,0.06207
1782.20030,0.06163
1780.27151,0.06108
1778.34272,0.06055
1776.41393,0.06024
1774.48515,0.05996
1772.55636,0.05934
1770.62757,0.05852
1768.69878,0.05784
1766.76999,0.05736
1764.84120,0.05711
1762.91242,0.05677
1760.98363,0.05610
1759.05484,0.05550
1757.12605,0.05496
1755.19726,0.05442
1753.26848,0.05411
1751.33969,0.05400
1749.41090,0.05381
1747.48211,0.05349
1745.55332,0.05308
1743.62453,0.05268
1741.69575,0.05232
1739.76696,0.05169
1737.83817,0.05090
1735.90938,0.05033
1733.98059,0.04992
1732.05180,0.04990
1730.12302,0.05046
1728.19423,0.05155
1726.26544,0.05312
1724.33665,0.05522
1722.40786,0.05777
1720.47908,0.06037
1718.55029,0.06313
1716.62150,0.06611
1714.69271,0.06815
1712.76392,0.06918
1710.83513,0.06960
1708.90635,0.06941
1706.97756,0.06858
1705.04877,0.06749
1703.11998,0.06676
1701.19119,0.06618
1699.26241,0.06545
1697.33362,0.06475
1695.40483,0.06385
1693.47604,0.06302
1691.54725,0.06237
1689.61846,0.06181
1687.68968,0.06164
1685.76089,0.06155
1683.83210,0.06102
1681.90331,0.06064
1679.97452,0.06045
1678.04574,0.06011
1676.11695,0.05977
1674.18816,0.05980
1672.25937,0.06013
1670.33058,0.06036
1668.40179,0.06044
1666.47301,0.06067
1664.54422,0.06118
1662.61543,0.06190
1660.68664,0.06244
1658.75785,0.06273
1656.82907,0.06293
1654.90028,0.06305
1652.97149,0.06318
1651.04270,0.06347
1649.11391,0.06359
1647.18512,0.06302
1645.25634,0.06205
1643.32755,0.06154
1641.39876,0.06115
1639.46997,0.06075
1637.54118,0.06050
1635.61239,0.06051
1633.68361,0.06087
1631.75482,0.06142
1629.82603,0.06213
1627.89724,0.06294
1625.96845,0.06351
1624.03967,0.06363
1622.11088,0.06357
1620.18209,0.06363
1618.25330,0.06344
1616.32451,0.06265
1614.39572,0.06207
1612.46694,0.06212
1610.53815,0.06228
1608.60936,0.06234
1606.68057,0.06256
1604.75178,0.06308
1602.82300,0.06381
1600.89421,0.06442
1598.96542,0.06462
1597.03663,0.06444
1595.10784,0.06417
1593.17905,0.06393
1591.25027,0.06363
1589.32148,0.06324
1587.39269,0.06264
1585.46390,0.06168
1583.53511,0.06045
1581.60633,0.05924
1579.67754,0.05838
1577.74875,0.05799
1575.81996,0.05816
1573.89117,0.05883
1571.96238,0.05951
1570.03360,0.05987
1568.10481,0.05971
1566.17602,0.05935
1564.24723,0.05935
1562.31844,0.05988
1560.38966,0.06061
1558.46087,0.06091
1556.53208,0.06070
1554.60329,0.06055
1552.67450,0.06049
1550.74571,0.06046
1548.81693,0.06042
1546.88814,0.06043
1544.95935,0.06039
1543.03056,0.06004
1541.10177,0.05930
1539.17298,0.05876
1537.24420,0.05908
1535.31541,0.05954
1533.38662,0.05959
1531.45783,0.05940
1529.52904,0.05941
1527.60026,0.05959
1525.67147,0.05991
1523.74268,0.06025
1521.81389,0.06029
1519.88510,0.05997
1517.95631,0.05967
1516.02753,0.05943
1514.09874,0.05911
1512.16995,0.05864
1510.24116,0.05811
1508.31237,0.05755
1506.38359,0.05662
1504.45480,0.05612
1502.52601,0.05640
1500.59722,0.05704
1498.66843,0.05758
1496.73964,0.05775
1494.81086,0.05781
1492.88207,0.05783
1490.95328,0.05763
1489.02449,0.05715
1487.09570,0.05654
1485.16692,0.05602
1483.23813,0.05556
1481.30934,0.05507
1479.38055,0.05465
1477.45176,0.05437
1475.52297,0.05421
1473.59419,0.05405
1471.66540,0.05382
1469.73661,0.05383
1467.80782,0.05415
1465.87903,0.05474
1463.95024,0.05547
1462.02146,0.05616
1460.09267,0.05686
1458.16388,0.05743
1456.23509,0.05732
1454.30630,0.05688
1452.37752,0.05654
1450.44873,0.05627
1448.51994,0.05602
1446.59115,0.05582
1444.66236,0.05564
1442.73357,0.05532
1440.80479,0.05489
1438.87600,0.05464
1436.94721,0.05492
1435.01842,0.05555
1433.08963,0.05593
1431.16085,0.05593
1429.23206,0.05587
1427.30327,0.05628
1425.37448,0.05703
1423.44569,0.05748
1421.51690,0.05735
1419.58812,0.05687
1417.65933,0.05637
1415.73054,0.05605
1413.80175,0.05583
1411.87296,0.05577
1409.94418,0.05607
1408.01539,0.05659
1406.08660,0.05696
1404.15781,0.05701
1402.22902,0.05697
1400.30023,0.05678
1398.37145,0.05628
1396.44266,0.05568
1394.51387,0.05520
1392.58508,0.05494
1390.65629,0.05474
1388.72751,0.05442
1386.79872,0.05421
1384.86993,0.05452
1382.94114,0.05514
1381.01235,0.05569
1379.08356,0.05604
1377.15478,0.05621
1375.22599,0.05612
1373.29720,0.05579
1371.36841,0.05545
1369.43962,0.05517
1367.51083,0.05501
1365.58205,0.05498
1363.65326,0.05481
1361.72447,0.05441
1359.79568,0.05420
1357.86689,0.05425
1355.93811,0.05431
1354.00932,0.05428
1352.08053,0.05422
1350.15174,0.05404
1348.22295,0.05366
1346.29416,0.05322
1344.36538,0.05286
1342.43659,0.05260
1340.50780,0.05239
1338.57901,0.05237
1336.65022,0.05251
1334.72144,0.05263
1332.79265,0.05268
1330.86386,0.05266
1328.93507,0.05271
1327.00628,0.05289
1325.07749,0.05300
1323.14871,0.05289
1321.21992,0.05273
1319.29113,0.05267
1317.36234,0.05257
1315.43355,0.05225
1313.50477,0.05187
1311.57598,0.05160
1309.64719,0.05139
1307.71840,0.05120
1305.78961,0.05101
1303.86082,0.05068
1301.93204,0.05021
1300.00325,0.04975
1298.07446,0.04932
1296.14567,0.04876
1294.21688,0.04804
1292.28810,0.04734
1290.35931,0.04687
1288.43052,0.04650
1286.50173,0.04627
1284.57294,0.04650
1282.64415,0.04738
1280.71537,0.04892
1278.78658,0.05114
1276.85779,0.05390
1274.92900,0.05707
1273.00021,0.06082
1271.07142,0.06517
1269.14264,0.06925
1267.21385,0.07197
1265.28506,0.07299
1263.35627,0.07262
1261.42748,0.07151
1259.49870,0.07027
1257.56991,0.06932
1255.64112,0.06895
1253.71233,0.06937
1251.78354,0.07029
1249.85475,0.07133
1247.92597,0.07246
1245.99718,0.07347
1244.06839,0.07387
1242.13960,0.07359
1240.21081,0.07300
1238.28203,0.07247
1236.35324,0.07190
1234.42445,0.07110
1232.49566,0.07033
1230.56687,0.06985
1228.63808,0.06954
1226.70930,0.06909
1224.78051,0.06836
1222.85172,0.06756
1220.92293,0.06688
1218.99414,0.06624
1217.06536,0.06561
1215.13657,0.06513
1213.20778,0.06469
1211.27899,0.06435
1209.35020,0.06418
1207.42141,0.06386
1205.49263,0.06338
1203.56384,0.06318
1201.63505,0.06319
1199.70626,0.06306
1197.77747,0.06283
1195.84868,0.06259
1193.91990,0.06229
1191.99111,0.06206
1190.06232,0.06198
1188.13353,0.06182
1186.20474,0.06154
1184.27596,0.06129
1182.34717,0.06105
1180.41838,0.06073
1178.48959,0.06043
1176.56080,0.06032
1174.63201,0.06028
1172.70323,0.06003
1170.77444,0.05971
1168.84565,0.05966
1166.91686,0.05982
1164.98807,0.05985
1163.05929,0.05956
1161.13050,0.05916
1159.20171,0.05899
1157.27292,0.05905
1155.34413,0.05902
1153.41534,0.05884
1151.48656,0.05859
1149.55777,0.05821
1147.62898,0.05779
1145.70019,0.05756
1143.77140,0.05746
1141.84262,0.05712
1139.91383,0.05651
1137.98504,0.05594
1136.05625,0.05535
1134.12746,0.05454
1132.19867,0.05374
1130.26989,0.05332
1128.34110,0.05321
1126.41231,0.05344
1124.48352,0.05437
1122.55473,0.05614
1120.62595,0.05850
1118.69716,0.06114
1116.76837,0.06351
1114.83958,0.06494
1112.91079,0.06526
1110.98200,0.06487
1109.05322,0.06425
1107.12443,0.06426
1105.19564,0.06562
1103.26685,0.06793
1101.33806,0.06988
1099.40927,0.07069
1097.48049,0.07081
1095.55170,0.07070
1093.62291,0.07016
1091.69412,0.06921
1089.76533,0.06813
1087.83655,0.06733
1085.90776,0.06711
1083.97897,0.06689
1082.05018,0.06630
1080.12139,0.06598
1078.19260,0.06604
1076.26382,0.06587
1074.33503,0.06552
1072.40624,0.06524
1070.47745,0.06492
1068.54866,0.06453
1066.61988,0.06432
1064.69109,0.06441
1062.76230,0.06452
1060.83351,0.06429
1058.90472,0.06392
1056.97593,0.06388
1055.04715,0.06403
1053.11836,0.06384
1051.18957,0.06346
1049.26078,0.06324
1047.33199,0.06296
1045.40321,0.06263
1043.47442,0.06239
1041.54563,0.06207
1039.61684,0.06180
1037.68805,0.06170
1035.75926,0.06169
1033.83048,0.06175
1031.90169,0.06173
1029.97290,0.06151
1028.04411,0.06125
1026.11532,0.06075
1024.18654,0.05995
1022.25775,0.05984
1020.32896,0.06141
1018.40017,0.06377
1016.47138,0.06504
1014.54259,0.06492
1012.61381,0.06441
1010.68502,0.06407
1008.75623,0.06384
1006.82744,0.06346
1004.89865,0.06294
1002.96986,0.06253
1001.04108,0.06212
999.11229,0.06160
997.18350,0.06126
995.25471,0.06122
993.32592,0.06117
991.39714,0.06101
989.46835,0.06092
987.53956,0.06105
985.61077,0.06114
983.68198,0.06107
981.75319,0.06112
979.82441,0.06132
977.89562,0.06143
975.96683,0.06149
974.03804,0.06165
972.10925,0.06192
970.18047,0.06206
968.25168,0.06195
966.32289,0.06172
964.39410,0.06165
962.46531,0.06202
960.53652,0.06277
958.60774,0.06339
956.67895,0.06357
954.75016,0.06347
952.82137,0.06346
950.89258,0.06379
948.96380,0.06424
947.03501,0.06440
945.10622,0.06436
943.17743,0.06439
941.24864,0.06456
939.31985,0.06454
937.39107,0.06418
935.46228,0.06365
933.53349,0.06321
931.60470,0.06303
929.67591,0.06304
927.74712,0.06301
925.81834,0.06289
923.88955,0.06295
921.96076,0.06321
920.03197,0.06341
918.10318,0.06349
916.17440,0.06335
914.24561,0.06287
912.31682,0.06252
910.38803,0.06274
908.45924,0.06320
906.53045,0.06344
904.60167,0.06341
902.67288,0.06316
900.74409,0.06281
898.81530,0.06262
896.88651,0.06255
894.95773,0.06251
893.02894,0.06266
891.10015,0.06295
889.17136,0.06295
887.24257,0.06230
885.31378,0.06133
883.38500,0.06090
881.45621,0.06108
879.52742,0.06129
877.59863,0.06158
875.66984,0.06227
873.74106,0.06306
871.81227,0.06358
869.88348,0.06354
867.95469,0.06294
866.02590,0.06249
864.09711,0.06260
862.16833,0.06284
860.23954,0.06279
858.31075,0.06245
856.38196,0.06225
854.45317,0.06235
852.52439,0.06238
850.59560,0.06232
848.66681,0.06217
846.73802,0.06185
844.80923,0.06165
842.88044,0.06178
840.95166,0.06192
839.02287,0.06175
837.09408,0.06157
835.16529,0.06162
833.23650,0.06160
831.30771,0.06136
829.37893,0.06126
827.45014,0.06140
825.52135,0.06159
823.59256,0.06203
821.66377,0.06278
819.73499,0.06317
817.80620,0.06289
815.87741,0.06245
813.94862,0.06246
812.01983,0.06300
810.09104,0.06344
808.16226,0.06308
806.23347,0.06225
804.30468,0.06175
802.37589,0.06173
800.44710,0.06200
798.51832,0.06211
796.58953,0.06161
794.66074,0.06057
792.73195,0.05971
790.80316,0.05994
788.87437,0.06095
786.94559,0.06145
785.01680,0.06095
783.08801,0.06002
781.15922,0.05943
779.23043,0.05942
777.30165,0.05961
775.37286,0.05950
773.44407,0.05903
771.51528,0.05880
769.58649,0.05917
767.65770,0.05970
765.72892,0.05987
763.80013,0.05952
761.87134,0.05912
759.94255,0.05913
758.01376,0.05938
756.08498,0.05949
754.15619,0.05907
752.22740,0.05817
750.29861,0.05754
748.36982,0.05722
746.44103,0.05654
744.51225,0.05541
742.58346,0.05412
740.65467,0.05281
738.72588,0.05159
736.79709,0.05144
734.86830,0.05387
732.93952,0.05907
731.01073,0.06512
729.08194,0.06889
727.15315,0.06883
725.22436,0.06656
723.29558,0.06432
721.36679,0.06309
719.43800,0.06273
717.50921,0.06246
715.58042,0.06187
713.65163,0.06097
711.72285,0.05999
709.79406,0.05945
707.86527,0.05954
705.93648,0.05978
704.00769,0.05979
702.07891,0.05970
700.15012,0.05939
698.22133,0.05886
696.29254,0.05866
694.36375,0.05886
692.43496,0.05935
690.50618,0.05990
688.57739,0.06017
686.64860,0.06035
684.71981,0.06049
682.79102,0.06049
680.86224,0.06067
678.93345,0.06094
677.00466,0.06092
675.07587,0.06085
673.14708,0.06093
671.21829,0.06091
669.28951,0.06056
667.36072,0.05996
665.43193,0.05970
663.50314,0.05983
661.57435,0.05981
659.64556,0.05928
657.71678,0.05817
655.78799,0.05696
653.85920,0.05633
651.93041,0.05616
650.00162,0.05607
648.07284,0.05632
646.14405,0.05680
644.21526,0.05689
642.28647,0.05694
640.35768,0.05741
638.42889,0.05807
636.50011,0.05887
634.57132,0.06043
632.64253,0.06236
630.71374,0.06314
628.78495,0.06253
626.85617,0.06145
624.92738,0.06080
622.99859,0.06084
621.06980,0.06089
619.14101,0.06045
617.21222,0.06034
615.28344,0.06147
613.35465,0.06285
611.42586,0.06321
609.49707,0.06333
607.56828,0.06424
605.63950,0.06521
603.71071,0.06568
601.78192,0.06657
599.85313,0.06776
