7496.90619,0.93075
7494.97747,0.93545
7493.04876,0.94184
7491.12005,0.95158
7489.19134,0.95299
7487.26262,0.94342
7485.33391,0.93826
7483.40520,0.93774
7481.47648,0.93465
7479.54777,0.93351
7477.61906,0.93745
7475.69035,0.94004
7473.76163,0.93630
7471.83292,0.93149
7469.90421,0.93056
7467.97550,0.92958
7466.04678,0.92718
7464.11807,0.92858
7462.18936,0.93450
7460.26065,0.93841
7458.33193,0.93390
7456.40322,0.92816
7454.47451,0.93390
7452.54579,0.94367
7450.61708,0.94542
7448.68837,0.94536
7446.75966,0.94740
7444.83094,0.94358
7442.90223,0.93789
7440.97352,0.94061
7439.04481,0.94216
7437.11609,0.93412
7435.18738,0.92632
7433.25867,0.92399
7431.32996,0.92686
7429.40124,0.93422
7427.47253,0.93945
7425.54382,0.93813
7423.61510,0.93341
7421.68639,0.92819
7419.75768,0.92276
7417.82897,0.91924
7415.90025,0.91806
7413.97154,0.91701
7412.04283,0.91828
7410.11412,0.92199
7408.18540,0.92408
7406.25669,0.92496
7404.32798,0.92158
7402.39927,0.91482
7400.47055,0.91719
7398.54184,0.92799
7396.61313,0.93418
7394.68441,0.93492
7392.75570,0.93408
7390.82699,0.92932
7388.89828,0.92577
7386.96956,0.92754
7385.04085,0.92486
7383.11214,0.91598
7381.18343,0.91064
7379.25471,0.91258
7377.32600,0.91743
7375.39729,0.92134
7373.46857,0.92414
7371.53986,0.92180
7369.61115,0.91441
7367.68244,0.91136
7365.75372,0.91602
7363.82501,0.92359
7361.89630,0.92847
7359.96759,0.92997
7358.03887,0.93147
7356.11016,0.93058
7354.18145,0.92613
7352.25274,0.92747
7350.32402,0.93589
7348.39531,0.94151
7346.46660,0.94051
7344.53788,0.93197
7342.60917,0.91614
7340.68046,0.90287
7338.75175,0.90336
7336.82303,0.91352
7334.89432,0.91819
7332.96561,0.91366
7331.03690,0.91070
7329.10818,0.91489
7327.17947,0.92025
7325.25076,0.92194
7323.32205,0.92257
7321.39333,0.92290
7319.46462,0.92369
7317.53591,0.92493
7315.60719,0.92084
7313.67848,0.91185
7311.74977,0.90817
7309.82106,0.90984
7307.89234,0.90740
7305.96363,0.90702
7304.03492,0.91773
7302.10621,0.93039
7300.17749,0.93362
7298.24878,0.92957
7296.32007,0.92454
7294.39136,0.91551
7292.46264,0.90608
7290.53393,0.90474
7288.60522,0.90959
7286.67650,0.91835
7284.74779,0.92567
7282.81908,0.92746
7280.89037,0.92983
7278.96165,0.93316
7277.03294,0.93075
7275.10423,0.92379
7273.17552,0.92026
7271.24680,0.92230
7269.31809,0.92258
7267.38938,0.91726
7265.46066,0.91320
7263.53195,0.91424
7261.60324,0.91723
7259.67453,0.92100
7257.74581,0.92220
7255.81710,0.91769
7253.88839,0.91321
7251.95968,0.91482
7250.03096,0.91952
7248.10225,0.92168
7246.17354,0.91956
7244.24483,0.91076
7242.31611,0.89732
7240.38740,0.89255
7238.45869,0.89665
7236.52997,0.89939
7234.60126,0.89920
7232.67255,0.89724
7230.74384,0.89737
7228.81512,0.90473
7226.88641,0.91293
7224.95770,0.91531
7223.02899,0.91526
7221.10027,0.91564
7219.17156,0.91469
7217.24285,0.91125
7215.31414,0.90893
7213.38542,0.91214
7211.45671,0.91590
7209.52800,0.91515
7207.59928,0.91504
7205.67057,0.91617
7203.74186,0.91185
7201.81315,0.90550
7199.88443,0.90630
7197.95572,0.91358
7196.02701,0.91937
7194.09830,0.92012
7192.16958,0.91753
7190.24087,0.91250
7188.31216,0.90817
7186.38344,0.90635
7184.45473,0.90391
7182.52602,0.89954
7180.59731,0.89656
7178.66859,0.89949
7176.73988,0.90805
7174.81117,0.91895
7172.88246,0.92643
7170.95374,0.92314
7169.02503,0.91064
7167.09632,0.90119
7165.16761,0.90112
7163.23889,0.90347
7161.31018,0.90359
7159.38147,0.90567
7157.45275,0.90942
7155.52404,0.91209
7153.59533,0.91414
7151.66662,0.91402
7149.73790,0.91170
7147.80919,0.90904
7145.88048,0.90583
7143.95177,0.90158
7142.02305,0.89621
7140.09434,0.89567
7138.16563,0.90478
7136.23692,0.91393
7134.30820,0.91691
7132.37949,0.91656
7130.45078,0.91239
7128.52206,0.90660
7126.59335,0.90660
7124.66464,0.91338
7122.73593,0.91878
7120.80721,0.91722
7118.87850,0.91053
7116.94979,0.90500
7115.02108,0.90747
7113.09236,0.91543
7111.16365,0.91916
7109.23494,0.91395
7107.30623,0.90573
7105.37751,0.90128
7103.44880,0.90135
7101.52009,0.90555
7099.59137,0.90942
7097.66266,0.90705
7095.73395,0.90141
7093.80524,0.89958
7091.87652,0.90295
7089.94781,0.90696
7088.01910,0.90774
7086.09039,0.90717
7084.16167,0.90805
7082.23296,0.90709
7080.30425,0.90193
7078.37553,0.89915
7076.44682,0.90222
7074.51811,0.90493
7072.58940,0.90233
7070.66068,0.89615
7068.73197,0.89174
7066.80326,0.89313
7064.87455,0.90001
7062.94583,0.91044
7061.01712,0.92006
7059.08841,0.92209
7057.15970,0.91774
7055.23098,0.91438
7053.30227,0.91295
7051.37356,0.91083
7049.44484,0.90987
7047.51613,0.91285
7045.58742,0.91735
7043.65871,0.91764
7041.72999,0.91336
7039.80128,0.90963
7037.87257,0.90781
7035.94386,0.90768
7034.01514,0.90970
7032.08643,0.91097
7030.15772,0.91116
7028.22901,0.91168
7026.30029,0.91091
7024.37158,0.91198
7022.44287,0.91925
7020.51415,0.92538
7018.58544,0.92119
7016.65673,0.91196
7014.72802,0.90878
7012.79930,0.91263
7010.87059,0.91498
7008.94188,0.91290
7007.01317,0.91166
7005.08445,0.91306
7003.15574,0.91523
7001.22703,0.91396
6999.29832,0.90717
6997.36960,0.90219
6995.44089,0.90307
6993.51218,0.90425
6991.58346,0.90321
6989.65475,0.90589
6987.72604,0.91444
6985.79733,0.91985
6983.86861,0.91649
6981.93990,0.91055
6980.01119,0.90959
6978.08248,0.91288
6976.15376,0.91253
6974.22505,0.90658
6972.29634,0.90484
6970.36762,0.91218
6968.43891,0.92040
6966.51020,0.92341
6964.58149,0.92312
6962.65277,0.92358
6960.72406,0.92433
6958.79535,0.92143
6956.86664,0.91741
6954.93792,0.91723
6953.00921,0.91917
6951.08050,0.91969
6949.15179,0.92043
6947.22307,0.92315
6945.29436,0.92539
6943.36565,0.92655
6941.43693,0.92584
6939.50822,0.92026
6937.57951,0.91292
6935.65080,0.91126
6933.72208,0.91532
6931.79337,0.91768
6929.86466,0.91572
6927.93595,0.91478
6926.00723,0.91789
6924.07852,0.92099
6922.14981,0.92134
6920.22110,0.92077
6918.29238,0.91922
6916.36367,0.91799
6914.43496,0.92028
6912.50624,0.92401
6910.57753,0.92582
6908.64882,0.92513
6906.72011,0.92088
6904.79139,0.91358
6902.86268,0.90881
6900.93397,0.91005
6899.00526,0.91340
6897.07654,0.91658
6895.14783,0.92103
6893.21912,0.92288
6891.29040,0.91752
6889.36169,0.91115
6887.43298,0.91256
6885.50427,0.91996
6883.57555,0.92598
6881.64684,0.92747
6879.71813,0.92390
6877.78942,0.91689
6875.86070,0.91285
6873.93199,0.91587
6872.00328,0.92309
6870.07457,0.93097
6868.14585,0.93617
6866.21714,0.93391
6864.28843,0.92606
6862.35971,0.91994
6860.43100,0.91735
6858.50229,0.91669
6856.57358,0.91799
6854.64486,0.91880
6852.71615,0.91665
6850.78744,0.91367
6848.85873,0.91267
6846.93001,0.91366
6845.00130,0.91423
6843.07259,0.91334
6841.14388,0.91274
6839.21516,0.91321
6837.28645,0.91370
6835.35774,0.91330
6833.42902,0.91328
6831.50031,0.91604
6829.57160,0.92032
6827.64289,0.92318
6825.71417,0.92478
6823.78546,0.92694
6821.85675,0.93006
6819.92804,0.93150
6817.99932,0.92917
6816.07061,0.92668
6814.14190,0.92737
6812.21319,0.92930
6810.28447,0.93053
6808.35576,0.92931
6806.42705,0.92423
6804.49833,0.91927
6802.56962,0.91732
6800.64091,0.91536
6798.71220,0.91329
6796.78348,0.91320
6794.85477,0.91292
6792.92606,0.91222
6790.99735,0.91557
6789.06863,0.92290
6787.13992,0.92706
6785.21121,0.92461
6783.28249,0.92091
6781.35378,0.92041
6779.42507,0.92137
6777.49636,0.92320
6775.56764,0.92737
6773.63893,0.93020
6771.71022,0.92722
6769.78151,0.92094
6767.85279,0.91653
6765.92408,0.91669
6763.99537,0.91931
6762.06666,0.92142
6760.13794,0.92385
6758.20923,0.92545
6756.28052,0.92439
6754.35180,0.92338
6752.42309,0.92379
6750.49438,0.92461
6748.56567,0.92607
6746.63695,0.92843
6744.70824,0.93129
6742.77953,0.93363
6740.85082,0.93380
6738.92210,0.93099
6736.99339,0.92810
6735.06468,0.92897
6733.13597,0.93001
6731.20725,0.92701
6729.27854,0.92453
6727.34983,0.92565
6725.42111,0.92810
6723.49240,0.92957
6721.56369,0.92730
6719.63498,0.92233
6717.70626,0.92037
6715.77755,0.92261
6713.84884,0.92475
6711.92013,0.92580
6709.99141,0.92813
6708.06270,0.93174
6706.13399,0.93413
6704.20528,0.93272
6702.27656,0.92828
6700.34785,0.92511
6698.41914,0.92679
6696.49042,0.93100
6694.56171,0.93050
6692.63300,0.92402
6690.70429,0.91832
6688.77557,0.91822
6686.84686,0.92250
6684.91815,0.92851
6682.98944,0.93395
6681.06072,0.93591
6679.13201,0.93392
6677.20330,0.93020
6675.27458,0.92745
6673.34587,0.92698
6671.41716,0.92662
6669.48845,0.92486
6667.55973,0.92268
6665.63102,0.92136
6663.70231,0.92270
6661.77360,0.92703
6659.84488,0.93120
6657.91617,0.93131
6655.98746,0.92887
6654.05875,0.92861
6652.13003,0.92888
6650.20132,0.92605
6648.27261,0.92351
6646.34389,0.92427
6644.41518,0.92614
6642.48647,0.92813
6640.55776,0.92988
6638.62904,0.93058
6636.70033,0.93197
6634.77162,0.93454
6632.84291,0.93681
6630.91419,0.93810
6628.98548,0.93707
6627.05677,0.93408
6625.12806,0.93079
6623.19934,0.92638
6621.27063,0.92234
6619.34192,0.92198
6617.41320,0.92387
6615.48449,0.92427
6613.55578,0.92293
6611.62707,0.92162
6609.69835,0.91990
6607.76964,0.91827
6605.84093,0.91919
6603.91222,0.92193
6601.98350,0.92397
6600.05479,0.92592
6598.12608,0.92922
6596.19736,0.93160
6594.26865,0.93151
6592.33994,0.93017
6590.41123,0.92705
6588.48251,0.92446
6586.55380,0.92599
6584.62509,0.92809
6582.69638,0.92877
6580.76766,0.93145
6578.83895,0.93260
6576.91024,0.92857
6574.98153,0.92623
6573.05281,0.92821
6571.12410,0.92894
6569.19539,0.92747
6567.26667,0.92676
6565.33796,0.92796
6563.40925,0.92946
6561.48054,0.92868
6559.55182,0.92609
6557.62311,0.92467
6555.69440,0.92470
6553.76569,0.92429
6551.83697,0.92441
6549.90826,0.92541
6547.97955,0.92523
6546.05084,0.92441
6544.12212,0.92440
6542.19341,0.92520
6540.26470,0.92672
6538.33598,0.92823
6536.40727,0.92814
6534.47856,0.92793
6532.54985,0.93099
6530.62113,0.93483
6528.69242,0.93457
6526.76371,0.93141
6524.83500,0.92990
6522.90628,0.93138
6520.97757,0.93300
6519.04886,0.93359
6517.12015,0.93493
6515.19143,0.93557
6513.26272,0.93360
6511.33401,0.93199
6509.40529,0.93208
6507.47658,0.93068
6505.54787,0.92776
6503.61916,0.92805
6501.69044,0.93230
6499.76173,0.93457
6497.83302,0.93228
6495.90431,0.92980
6493.97559,0.93015
6492.04688,0.93209
6490.11817,0.93312
6488.18945,0.93253
6486.26074,0.93153
6484.33203,0.93084
6482.40332,0.93015
6480.47460,0.93038
6478.54589,0.93159
6476.61718,0.93130
6474.68847,0.93051
6472.75975,0.93187
6470.83104,0.93330
6468.90233,0.93248
6466.97362,0.93010
6465.04490,0.92755
6463.11619,0.92672
6461.18748,0.92866
6459.25876,0.93134
6457.33005,0.93275
6455.40134,0.93300
6453.47263,0.93211
6451.54391,0.93064
6449.61520,0.92973
6447.68649,0.93030
6445.75778,0.93142
6443.82906,0.93055
6441.90035,0.92873
6439.97164,0.92954
6438.04293,0.93322
6436.11421,0.93549
6434.18550,0.93327
6432.25679,0.92983
6430.32807,0.92959
6428.39936,0.93114
6426.47065,0.92989
6424.54194,0.92731
6422.61322,0.92826
6420.68451,0.93169
6418.75580,0.93335
6416.82709,0.93280
6414.89837,0.93169
6412.96966,0.92818
6411.04095,0.92353
6409.11224,0.92319
6407.18352,0.92554
6405.25481,0.92705
6403.32610,0.92845
6401.39738,0.92928
6399.46867,0.93007
6397.53996,0.93270
6395.61125,0.93486
6393.68253,0.93370
6391.75382,0.93087
6389.82511,0.92905
6387.89640,0.92970
6385.96768,0.93296
6384.03897,0.93628
6382.11026,0.93696
6380.18154,0.93571
6378.25283,0.93520
6376.32412,0.93583
6374.39541,0.93500
6372.46669,0.93220
6370.53798,0.92979
6368.60927,0.92769
6366.68056,0.92503
6364.75184,0.92477
6362.82313,0.92809
6360.89442,0.93094
6358.96571,0.93117
6357.03699,0.93052
6355.10828,0.92967
6353.17957,0.92793
6351.25085,0.92632
6349.32214,0.92738
6347.39343,0.93096
6345.46472,0.93399
6343.53600,0.93483
6341.60729,0.93389
6339.67858,0.93190
6337.74987,0.93030
6335.82115,0.92951
6333.89244,0.92811
6331.96373,0.92676
6330.03502,0.92740
6328.10630,0.92879
6326.17759,0.92957
6324.24888,0.93085
6322.32016,0.93270
6320.39145,0.93314
6318.46274,0.93160
6316.53403,0.92987
6314.60531,0.92954
6312.67660,0.93209
6310.74789,0.93570
6308.81918,0.93486
6306.89046,0.93077
6304.96175,0.92917
6303.03304,0.92980
6301.10432,0.93058
6299.17561,0.93179
6297.24690,0.93348
6295.31819,0.93543
6293.38947,0.93656
6291.46076,0.93668
6289.53205,0.93744
6287.60334,0.93779
6285.67462,0.93619
6283.74591,0.93466
6281.81720,0.93446
6279.88849,0.93403
6277.95977,0.93296
6276.03106,0.93231
6274.10235,0.93231
6272.17363,0.93339
6270.24492,0.93415
6268.31621,0.93154
6266.38750,0.92813
6264.45878,0.92878
6262.53007,0.93240
6260.60136,0.93573
6258.67265,0.93670
6256.74393,0.93330
6254.81522,0.92809
6252.88651,0.92743
6250.95780,0.93108
6249.02908,0.93314
6247.10037,0.93196
6245.17166,0.93038
6243.24294,0.93018
6241.31423,0.92982
6239.38552,0.92813
6237.45681,0.92729
6235.52809,0.92783
6233.59938,0.92756
6231.67067,0.92725
6229.74196,0.92834
6227.81324,0.92957
6225.88453,0.92988
6223.95582,0.92914
6222.02711,0.92810
6220.09839,0.92732
6218.16968,0.92613
6216.24097,0.92543
6214.31225,0.92628
6212.38354,0.92831
6210.45483,0.93081
6208.52612,0.93267
6206.59740,0.93338
6204.66869,0.93219
6202.73998,0.92929
6200.81127,0.92683
6198.88255,0.92549
6196.95384,0.92582
6195.02513,0.92827
6193.09641,0.92929
6191.16770,0.92697
6189.23899,0.92537
6187.31028,0.92689
6185.38156,0.92940
6183.45285,0.93131
6181.52414,0.93167
6179.59543,0.92944
6177.66671,0.92626
6175.73800,0.92561
6173.80929,0.92715
6171.88058,0.92727
6169.95186,0.92607
6168.02315,0.92598
6166.09444,0.92645
6164.16572,0.92633
6162.23701,0.92617
6160.30830,0.92655
6158.37959,0.92673
6156.45087,0.92616
6154.52216,0.92606
6152.59345,0.92715
6150.66474,0.92802
6148.73602,0.92775
6146.80731,0.92746
6144.87860,0.92729
6142.94989,0.92603
6141.02117,0.92412
6139.09246,0.92280
6137.16375,0.92193
6135.23503,0.92159
6133.30632,0.92308
6131.37761,0.92604
6129.44890,0.92768
6127.52018,0.92673
6125.59147,0.92506
6123.66276,0.92468
6121.73405,0.92431
6119.80533,0.92247
6117.87662,0.92132
6115.94791,0.92292
6114.01919,0.92609
6112.09048,0.92762
6110.16177,0.92512
6108.23306,0.91971
6106.30434,0.91600
6104.37563,0.91753
6102.44692,0.92232
6100.51821,0.92595
6098.58949,0.92549
6096.66078,0.92162
6094.73207,0.91855
6092.80336,0.91797
6090.87464,0.91735
6088.94593,0.91515
6087.01722,0.91323
6085.08850,0.91295
6083.15979,0.91243
6081.23108,0.91001
6079.30237,0.90709
6077.37365,0.90615
6075.44494,0.90729
6073.51623,0.90837
6071.58752,0.90790
6069.65880,0.90629
6067.73009,0.90599
6065.80138,0.90766
6063.87267,0.90812
6061.94395,0.90533
6060.01524,0.90099
6058.08653,0.89770
6056.15781,0.89614
6054.22910,0.89636
6052.30039,0.89801
6050.37168,0.89796
6048.44296,0.89530
6046.51425,0.89369
6044.58554,0.89377
6042.65683,0.89277
6040.72811,0.89005
6038.79940,0.88745
6036.87069,0.88666
6034.94198,0.88718
6033.01326,0.88728
6031.08455,0.88655
6029.15584,0.88593
6027.22712,0.88532
6025.29841,0.88394
6023.36970,0.88244
6021.44099,0.88165
6019.51227,0.88170
6017.58356,0.88216
6015.65485,0.88266
6013.72614,0.88247
6011.79742,0.88138
6009.86871,0.88144
6007.94000,0.88255
6006.01128,0.88229
6004.08257,0.88188
6002.15386,0.88372
6000.22515,0.88659
5998.29643,0.88840
5996.36772,0.88984
5994.43901,0.89178
5992.51030,0.89290
5990.58158,0.89306
5988.65287,0.89372
5986.72416,0.89519
5984.79545,0.89794
5982.86673,0.90162
5980.93802,0.90291
5979.00931,0.90127
5977.08059,0.90065
5975.15188,0.90191
5973.22317,0.90241
5971.29446,0.90061
5969.36574,0.89790
5967.43703,0.89691
5965.50832,0.89783
5963.57961,0.89876
5961.65089,0.89903
5959.72218,0.89939
5957.79347,0.89883
5955.86476,0.89608
5953.93604,0.89384
5952.00733,0.89430
5950.07862,0.89543
5948.14990,0.89536
5946.22119,0.89393
5944.29248,0.89147
5942.36377,0.88897
5940.43505,0.88693
5938.50634,0.88463
5936.57763,0.88200
5934.64892,0.87981
5932.72020,0.87846
5930.79149,0.87796
5928.86278,0.87753
5926.93407,0.87543
5925.00535,0.87207
5923.07664,0.87011
5921.14793,0.86954
5919.21921,0.86839
5917.29050,0.86565
5915.36179,0.86142
5913.43308,0.85732
5911.50436,0.85512
5909.57565,0.85492
5907.64694,0.85477
5905.71823,0.85280
5903.78951,0.84992
5901.86080,0.84689
5899.93209,0.84382
5898.00337,0.84127
5896.07466,0.83878
5894.14595,0.83690
5892.21724,0.83579
5890.28852,0.83391
5888.35981,0.83092
5886.43110,0.82664
5884.50239,0.82171
5882.57367,0.81833
5880.64496,0.81616
5878.71625,0.81321
5876.78754,0.80958
5874.85882,0.80649
5872.93011,0.80383
5871.00140,0.80034
5869.07268,0.79604
5867.14397,0.79332
5865.21526,0.79302
5863.28655,0.79214
5861.35783,0.78875
5859.42912,0.78456
5857.50041,0.78151
5855.57170,0.77879
5853.64298,0.77418
5851.71427,0.76829
5849.78556,0.76321
5847.85685,0.75907
5845.92813,0.75546
5843.99942,0.75146
5842.07071,0.74676
5840.14199,0.74177
5838.21328,0.73645
5836.28457,0.73198
5834.35586,0.72873
5832.42714,0.72517
5830.49843,0.72204
5828.56972,0.72157
5826.64101,0.72410
5824.71229,0.72719
5822.78358,0.72870
5820.85487,0.73033
5818.92615,0.73416
5816.99744,0.73907
5815.06873,0.74299
5813.14002,0.74578
5811.21130,0.74811
5809.28259,0.75011
5807.35388,0.75238
5805.42517,0.75613
5803.49645,0.76233
5801.56774,0.77016
5799.63903,0.77736
5797.71032,0.78312
5795.78160,0.78699
5793.85289,0.78868
5791.92418,0.78993
5789.99546,0.79261
5788.06675,0.79706
5786.13804,0.80196
5784.20933,0.80565
5782.28061,0.80845
5780.35190,0.81102
5778.42319,0.81303
5776.49448,0.81490
5774.56576,0.81675
5772.63705,0.81779
5770.70834,0.81822
5768.77963,0.81837
5766.85091,0.81812
5764.92220,0.81797
5762.99349,0.81753
5761.06477,0.81698
5759.13606,0.81803
5757.20735,0.81932
5755.27864,0.81845
5753.34992,0.81670
5751.42121,0.81621
5749.49250,0.81661
5747.56379,0.81655
5745.63507,0.81664
5743.70636,0.81718
5741.77765,0.81657
5739.84894,0.81530
5737.92022,0.81454
5735.99151,0.81343
5734.06280,0.81221
5732.13408,0.81207
5730.20537,0.81264
5728.27666,0.81331
5726.34795,0.81403
5724.41923,0.81461
5722.49052,0.81518
5720.56181,0.81542
5718.63310,0.81506
5716.70438,0.81597
5714.77567,0.81844
5712.84696,0.81964
5710.91824,0.81828
5708.98953,0.81575
5707.06082,0.81459
5705.13211,0.81550
5703.20339,0.81614
5701.27468,0.81616
5699.34597,0.81668
5697.41726,0.81735
5695.48854,0.81917
5693.55983,0.82218
5691.63112,0.82388
5689.70241,0.82395
5687.77369,0.82351
5685.84498,0.82329
5683.91627,0.82413
5681.98755,0.82578
5680.05884,0.82777
5678.13013,0.82924
5676.20142,0.82970
5674.27270,0.83071
5672.34399,0.83287
5670.41528,0.83526
5668.48657,0.83702
5666.55785,0.83777
5664.62914,0.83854
5662.70043,0.83986
5660.77172,0.84084
5658.84300,0.84081
5656.91429,0.83973
5654.98558,0.83856
5653.05686,0.83851
5651.12815,0.83981
5649.19944,0.84184
5647.27073,0.84426
5645.34201,0.84676
5643.41330,0.84826
5641.48459,0.84855
5639.55588,0.84897
5637.62716,0.85004
5635.69845,0.85083
5633.76974,0.85086
5631.84103,0.85066
5629.91231,0.85111
5627.98360,0.85252
5626.05489,0.85367
5624.12617,0.85411
5622.19746,0.85567
5620.26875,0.85811
5618.34004,0.85862
5616.41132,0.85785
5614.48261,0.85856
5612.55390,0.86017
5610.62519,0.86098
5608.69647,0.86066
5606.76776,0.85963
5604.83905,0.85891
5602.91033,0.85906
5600.98162,0.86059
5599.05291,0.86312
5597.12420,0.86449
5595.19548,0.86418
5593.26677,0.86378
5591.33806,0.86444
5589.40935,0.86588
5587.48063,0.86690
5585.55192,0.86702
5583.62321,0.86749
5581.69450,0.86935
5579.76578,0.87115
5577.83707,0.87146
5575.90836,0.87106
5573.97964,0.87090
5572.05093,0.87130
5570.12222,0.87192
5568.19351,0.87172
5566.26479,0.87104
5564.33608,0.87135
5562.40737,0.87336
5560.47866,0.87612
5558.54994,0.87720
5556.62123,0.87623
5554.69252,0.87515
5552.76381,0.87409
5550.83509,0.87306
5548.90638,0.87377
5546.97767,0.87594
5545.04895,0.87723
5543.12024,0.87719
5541.19153,0.87707
5539.26282,0.87707
5537.33410,0.87641
5535.40539,0.87546
5533.47668,0.87545
5531.54797,0.87555
5529.61925,0.87444
5527.69054,0.87391
5525.76183,0.87515
5523.83311,0.87610
5521.90440,0.87588
5519.97569,0.87528
5518.04698,0.87413
5516.11826,0.87378
5514.18955,0.87571
5512.26084,0.87739
5510.33213,0.87632
5508.40341,0.87448
5506.47470,0.87530
5504.54599,0.87764
5502.61728,0.87836
5500.68856,0.87726
5498.75985,0.87574
5496.83114,0.87435
5494.90242,0.87140
5492.97371,0.86783
5491.04500,0.86785
5489.11629,0.86972
5487.18757,0.87119
5485.25886,0.87364
5483.33015,0.87557
5481.40144,0.87605
5479.47272,0.87618
5477.54401,0.87392
5475.61530,0.86945
5473.68659,0.86936
5471.75787,0.87328
5469.82916,0.87499
5467.90045,0.87394
5465.97173,0.87249
5464.04302,0.87120
5462.11431,0.87083
5460.18560,0.87189
5458.25688,0.87264
5456.32817,0.87292
5454.39946,0.87488
5452.47075,0.87679
5450.54203,0.87564
5448.61332,0.87240
5446.68461,0.86929
5444.75590,0.86775
5442.82718,0.86778
5440.89847,0.86956
5438.96976,0.87402
5437.04104,0.87734
5435.11233,0.87680
5433.18362,0.87609
5431.25491,0.87552
5429.32619,0.87320
5427.39748,0.87411
5425.46877,0.87987
5423.54006,0.88508
5421.61134,0.88790
5419.68263,0.88895
5417.75392,0.88706
5415.82520,0.88168
5413.89649,0.87521
5411.96778,0.87245
5410.03907,0.87561
5408.11035,0.88152
5406.18164,0.88544
5404.25293,0.88616
5402.32422,0.88664
5400.39550,0.88796
5398.46679,0.88727
5396.53808,0.88363
5394.60937,0.88018
5392.68065,0.88122
5390.75194,0.88565
5388.82323,0.88748
5386.89451,0.88397
5384.96580,0.88002
5383.03709,0.88174
5381.10838,0.88616
5379.17966,0.88685
5377.25095,0.88285
5375.32224,0.88031
5373.39353,0.88358
5371.46481,0.88914
5369.53610,0.89280
5367.60739,0.89357
5365.67868,0.89207
5363.74996,0.89032
5361.82125,0.89116
5359.89254,0.89376
5357.96382,0.89394
5356.03511,0.88904
5354.10640,0.88199
5352.17769,0.88044
5350.24897,0.88374
5348.32026,0.88525
5346.39155,0.88293
5344.46284,0.88028
5342.53412,0.88285
5340.60541,0.88582
5338.67670,0.88300
5336.74799,0.88191
5334.81927,0.88664
5332.89056,0.88968
5330.96185,0.88980
5329.03313,0.88972
5327.10442,0.89033
5325.17571,0.89320
5323.24700,0.89691
5321.31828,0.89861
5319.38957,0.89827
5317.46086,0.89710
5315.53215,0.89701
5313.60343,0.89865
5311.67472,0.89928
5309.74601,0.89650
5307.81729,0.89259
5305.88858,0.89247
5303.95987,0.89564
5302.03116,0.89747
5300.10244,0.89737
5298.17373,0.89856
5296.24502,0.90137
5294.31631,0.90238
5292.38759,0.89985
5290.45888,0.89653
5288.53017,0.89593
5286.60146,0.89593
5284.67274,0.89432
5282.74403,0.89319
5280.81532,0.89361
5278.88660,0.89523
5276.95789,0.89723
5275.02918,0.89799
5273.10047,0.89768
5271.17175,0.89654
5269.24304,0.89403
5267.31433,0.89075
5265.38562,0.88727
5263.45690,0.88524
5261.52819,0.88727
5259.59948,0.89131
5257.67077,0.89274
5255.74205,0.89117
5253.81334,0.89143
5251.88463,0.89427
5249.95591,0.89367
5248.02720,0.88859
5246.09849,0.88520
5244.16978,0.88671
5242.24106,0.89107
5240.31235,0.89494
5238.38364,0.89694
5236.45493,0.89715
5234.52621,0.89543
5232.59750,0.89342
5230.66879,0.89372
5228.74007,0.89477
5226.81136,0.89320
5224.88265,0.89152
5222.95394,0.89368
5221.02522,0.89635
5219.09651,0.89673
5217.16780,0.89711
5215.23909,0.89899
5213.31037,0.90026
5211.38166,0.89842
5209.45295,0.89362
5207.52424,0.88904
5205.59552,0.88957
5203.66681,0.89521
5201.73810,0.89991
5199.80938,0.89961
5197.88067,0.89636
5195.95196,0.89556
5194.02325,0.89809
5192.09453,0.89979
5190.16582,0.89931
5188.23711,0.89865
5186.30840,0.89780
5184.37968,0.89687
5182.45097,0.89739
5180.52226,0.89820
5178.59355,0.89813
5176.66483,0.89847
5174.73612,0.89949
5172.80741,0.89981
5170.87869,0.89948
5168.94998,0.90027
5167.02127,0.90140
5165.09256,0.90058
5163.16384,0.89892
5161.23513,0.89834
5159.30642,0.89829
5157.37771,0.89817
5155.44899,0.89842
5153.52028,0.89923
5151.59157,0.90026
5149.66286,0.90126
5147.73414,0.90155
5145.80543,0.90041
5143.87672,0.89860
5141.94800,0.89763
5140.01929,0.89784
5138.09058,0.89847
5136.16187,0.89866
5134.23315,0.89858
5132.30444,0.89950
5130.37573,0.90092
5128.44702,0.90116
5126.51830,0.90053
5124.58959,0.89992
5122.66088,0.89953
5120.73216,0.89966
5118.80345,0.89997
5116.87474,0.90004
5114.94603,0.90020
5113.01731,0.90046
5111.08860,0.90048
5109.15989,0.90053
5107.23118,0.90103
5105.30246,0.90210
5103.37375,0.90320
5101.44504,0.90345
5099.51633,0.90263
5097.58761,0.90157
5095.65890,0.90099
5093.73019,0.90050
5091.80147,0.89999
5089.87276,0.90009
5087.94405,0.90067
5086.01534,0.90127
5084.08662,0.90210
5082.15791,0.90298
5080.22920,0.90298
5078.30049,0.90244
5076.37177,0.90240
5074.44306,0.90292
5072.51435,0.90393
5070.58564,0.90557
5068.65692,0.90726
5066.72821,0.90741
5064.79950,0.90591
5062.87078,0.90521
5060.94207,0.90600
5059.01336,0.90656
5057.08465,0.90665
5055.15593,0.90691
5053.22722,0.90702
5051.29851,0.90667
5049.36980,0.90603
5047.44108,0.90540
5045.51237,0.90531
5043.58366,0.90586
5041.65495,0.90627
5039.72623,0.90610
5037.79752,0.90604
5035.86881,0.90688
5033.94009,0.90803
5032.01138,0.90832
5030.08267,0.90778
5028.15396,0.90747
5026.22524,0.90781
5024.29653,0.90849
5022.36782,0.90898
5020.43911,0.90897
5018.51039,0.90876
5016.58168,0.90860
5014.65297,0.90852
5012.72425,0.90824
5010.79554,0.90757
5008.86683,0.90687
5006.93812,0.90640
5005.00940,0.90646
5003.08069,0.90735
5001.15198,0.90826
4999.22327,0.90820
4997.29455,0.90768
4995.36584,0.90769
4993.43713,0.90806
4991.50842,0.90853
4989.57970,0.90898
4987.65099,0.90894
4985.72228,0.90843
4983.79356,0.90782
4981.86485,0.90742
4979.93614,0.90739
4978.00743,0.90743
4976.07871,0.90733
4974.15000,0.90711
4972.22129,0.90683
4970.29258,0.90702
4968.36386,0.90793
4966.43515,0.90862
4964.50644,0.90866
4962.57773,0.90871
4960.64901,0.90884
4958.72030,0.90868
4956.79159,0.90838
4954.86287,0.90837
4952.93416,0.90889
4951.00545,0.90970
4949.07674,0.91009
4947.14802,0.90957
4945.21931,0.90863
4943.29060,0.90827
4941.36189,0.90880
4939.43317,0.90936
4937.50446,0.90927
4935.57575,0.90883
4933.64703,0.90840
4931.71832,0.90833
4929.78961,0.90867
4927.86090,0.90866
4925.93218,0.90817
4924.00347,0.90794
4922.07476,0.90820
4920.14605,0.90841
4918.21733,0.90822
4916.28862,0.90809
4914.35991,0.90869
4912.43120,0.90975
4910.50248,0.91033
4908.57377,0.90999
4906.64506,0.90912
4904.71634,0.90863
4902.78763,0.90913
4900.85892,0.90989
4898.93021,0.90989
4897.00149,0.90918
4895.07278,0.90853
4893.14407,0.90866
4891.21536,0.90955
4889.28664,0.91023
4887.35793,0.91012
4885.42922,0.90989
4883.50051,0.90975
4881.57179,0.90907
4879.64308,0.90814
4877.71437,0.90771
4875.78565,0.90739
4873.85694,0.90680
4871.92823,0.90674
4869.99952,0.90737
4868.07080,0.90780
4866.14209,0.90792
4864.21338,0.90823
4862.28467,0.90864
4860.35595,0.90897
4858.42724,0.90934
4856.49853,0.90930
4854.56982,0.90847
4852.64110,0.90765
4850.71239,0.90748
4848.78368,0.90753
4846.85496,0.90713
4844.92625,0.90630
4842.99754,0.90608
4841.06883,0.90699
4839.14011,0.90810
4837.21140,0.90859
4835.28269,0.90853
4833.35398,0.90829
4831.42526,0.90813
4829.49655,0.90773
4827.56784,0.90715
4825.63912,0.90748
4823.71041,0.90814
4821.78170,0.90764
4819.85299,0.90670
4817.92427,0.90620
4815.99556,0.90595
4814.06685,0.90631
4812.13814,0.90697
4810.20942,0.90705
4808.28071,0.90676
4806.35200,0.90636
4804.42329,0.90614
4802.49457,0.90649
4800.56586,0.90675
4798.63715,0.90642
4796.70843,0.90598
4794.77972,0.90558
4792.85101,0.90474
4790.92230,0.90375
4788.99358,0.90385
4787.06487,0.90501
4785.13616,0.90569
4783.20745,0.90560
4781.27873,0.90560
4779.35002,0.90565
4777.42131,0.90529
4775.49260,0.90498
4773.56388,0.90522
4771.63517,0.90577
4769.70646,0.90626
4767.77774,0.90651
4765.84903,0.90653
4763.92032,0.90678
4761.99161,0.90708
4760.06289,0.90686
4758.13418,0.90667
4756.20547,0.90678
4754.27676,0.90674
4752.34804,0.90638
4750.41933,0.90580
4748.49062,0.90557
4746.56191,0.90578
4744.63319,0.90584
4742.70448,0.90534
4740.77577,0.90425
4738.84705,0.90330
4736.91834,0.90326
4734.98963,0.90348
4733.06092,0.90271
4731.13220,0.90093
4729.20349,0.89957
4727.27478,0.89897
4725.34607,0.89785
4723.41735,0.89603
4721.48864,0.89429
4719.55993,0.89258
4717.63121,0.89112
4715.70250,0.89061
4713.77379,0.89068
4711.84508,0.89063
4709.91636,0.89020
4707.98765,0.88908
4706.05894,0.88762
4704.13023,0.88648
4702.20151,0.88521
4700.27280,0.88342
4698.34409,0.88140
4696.41538,0.87891
4694.48666,0.87564
4692.55795,0.87241
4690.62924,0.86984
4688.70052,0.86736
4686.77181,0.86562
4684.84310,0.86606
4682.91439,0.86775
4680.98567,0.86907
4679.05696,0.87016
4677.12825,0.87170
4675.19954,0.87385
4673.27082,0.87626
4671.34211,0.87842
4669.41340,0.88002
4667.48469,0.88072
4665.55597,0.88068
4663.62726,0.88089
4661.69855,0.88158
4659.76983,0.88243
4657.84112,0.88318
4655.91241,0.88306
4653.98370,0.88216
4652.05498,0.88160
4650.12627,0.88141
4648.19756,0.88094
4646.26885,0.88049
4644.34013,0.88002
4642.41142,0.87884
4640.48271,0.87706
4638.55399,0.87489
4636.62528,0.87222
4634.69657,0.86960
4632.76786,0.86807
4630.83914,0.86801
4628.91043,0.86900
4626.98172,0.87082
4625.05301,0.87333
4623.12429,0.87619
4621.19558,0.87927
4619.26687,0.88239
4617.33816,0.88485
4615.40944,0.88622
4613.48073,0.88685
4611.55202,0.88727
4609.62330,0.88800
4607.69459,0.88925
4605.76588,0.89017
4603.83717,0.89058
4601.90845,0.89119
4599.97974,0.89168
4598.05103,0.89145
4596.12232,0.89045
4594.19360,0.88921
4592.26489,0.88859
4590.33618,0.88832
4588.40747,0.88768
4586.47875,0.88704
4584.55004,0.88671
4582.62133,0.88660
4580.69261,0.88652
4578.76390,0.88602
4576.83519,0.88497
4574.90648,0.88406
4572.97776,0.88406
4571.04905,0.88507
4569.12034,0.88688
4567.19163,0.88917
4565.26291,0.89097
4563.33420,0.89185
4561.40549,0.89218
4559.47678,0.89214
4557.54806,0.89214
4555.61935,0.89287
4553.69064,0.89402
4551.76192,0.89457
4549.83321,0.89418
4547.90450,0.89336
4545.97579,0.89267
4544.04707,0.89234
4542.11836,0.89209
4540.18965,0.89185
4538.26094,0.89165
4536.33222,0.89113
4534.40351,0.89072
4532.47480,0.89101
4530.54608,0.89135
4528.61737,0.89109
4526.68866,0.89036
4524.75995,0.88946
4522.83123,0.88873
4520.90252,0.88825
4518.97381,0.88776
4517.04510,0.88712
4515.11638,0.88622
4513.18767,0.88513
4511.25896,0.88431
4509.33025,0.88355
4507.40153,0.88208
4505.47282,0.88031
4503.54411,0.87904
4501.61539,0.87809
4499.68668,0.87677
4497.75797,0.87467
4495.82926,0.87214
4493.90054,0.86998
4491.97183,0.86808
4490.04312,0.86584
4488.11441,0.86363
4486.18569,0.86200
4484.25698,0.86065
4482.32827,0.85937
4480.39956,0.85854
4478.47084,0.85791
4476.54213,0.85685
4474.61342,0.85557
4472.68470,0.85409
4470.75599,0.85199
4468.82728,0.84991
4466.89857,0.84849
4464.96985,0.84724
4463.04114,0.84570
4461.11243,0.84366
4459.18372,0.84091
4457.25500,0.83762
4455.32629,0.83380
4453.39758,0.82951
4451.46886,0.82525
4449.54015,0.82093
4447.61144,0.81602
4445.68273,0.81031
4443.75401,0.80404
4441.82530,0.79760
4439.89659,0.79120
4437.96788,0.78487
4436.03916,0.77823
4434.11045,0.77069
4432.18174,0.76233
4430.25303,0.75365
4428.32431,0.74502
4426.39560,0.73669
4424.46689,0.72826
4422.53817,0.71899
4420.60946,0.70913
4418.68075,0.69952
4416.75204,0.69047
4414.82332,0.68166
4412.89461,0.67263
4410.96590,0.66365
4409.03719,0.65537
4407.10847,0.64786
4405.17976,0.64081
4403.25105,0.63446
4401.32234,0.62934
4399.39362,0.62546
4397.46491,0.62251
4395.53620,0.62031
4393.60748,0.61867
4391.67877,0.61733
4389.75006,0.61553
4387.82135,0.61186
4385.89263,0.60598
4383.96392,0.59906
4382.03521,0.59162
4380.10650,0.58309
4378.17778,0.57342
4376.24907,0.56316
4374.32036,0.55282
4372.39165,0.54248
4370.46293,0.53172
4368.53422,0.52035
4366.60551,0.50873
4364.67679,0.49696
4362.74808,0.48487
4360.81937,0.47293
4358.89066,0.46183
4356.96194,0.45152
4355.03323,0.44165
4353.10452,0.43226
4351.17581,0.42335
4349.24709,0.41430
4347.31838,0.40458
4345.38967,0.39453
4343.46095,0.38483
4341.53224,0.37576
4339.60353,0.36743
4337.67482,0.36017
4335.74610,0.35477
4333.81739,0.35223
4331.88868,0.35324
4329.95997,0.35788
4328.03125,0.36576
4326.10254,0.37608
4324.17383,0.38789
4322.24512,0.40029
4320.31640,0.41279
4318.38769,0.42518
4316.45898,0.43708
4314.53026,0.44792
4312.60155,0.45700
4310.67284,0.46420
4308.74413,0.47005
4306.81541,0.47444
4304.88670,0.47723
4302.95799,0.47945
4301.02928,0.48158
4299.10056,0.48327
4297.17185,0.48458
4295.24314,0.48546
4293.31443,0.48516
4291.38571,0.48358
4289.45700,0.48178
4287.52829,0.48045
4285.59957,0.47906
4283.67086,0.47715
4281.74215,0.47513
4279.81344,0.47376
4277.88472,0.47345
4275.95601,0.47395
4274.02730,0.47487
4272.09859,0.47617
4270.16987,0.47777
4268.24116,0.47949
4266.31245,0.48158
4264.38374,0.48410
4262.45502,0.48635
4260.52631,0.48788
4258.59760,0.48918
4256.66888,0.49046
4254.74017,0.49114
4252.81146,0.49116
4250.88275,0.49112
4248.95403,0.49130
4247.02532,0.49139
4245.09661,0.49104
4243.16790,0.49026
4241.23918,0.48924
4239.31047,0.48818
4237.38176,0.48692
4235.45304,0.48509
4233.52433,0.48288
4231.59562,0.48081
4229.66691,0.47886
4227.73819,0.47673
4225.80948,0.47450
4223.88077,0.47239
4221.95206,0.47030
4220.02334,0.46854
4218.09463,0.46768
4216.16592,0.46746
4214.23721,0.46730
4212.30849,0.46746
4210.37978,0.46856
4208.45107,0.47084
4206.52235,0.47406
4204.59364,0.47777
4202.66493,0.48179
4200.73622,0.48613
4198.80750,0.49070
4196.87879,0.49506
4194.95008,0.49895
4193.02137,0.50239
4191.09265,0.50531
4189.16394,0.50751
4187.23523,0.50850
4185.30652,0.50802
4183.37780,0.50653
4181.44909,0.50443
4179.52038,0.50167
4177.59166,0.49857
4175.66295,0.49570
4173.73424,0.49332
4171.80553,0.49190
4169.87681,0.49185
4167.94810,0.49317
4166.01939,0.49618
4164.09068,0.50127
4162.16196,0.50780
4160.23325,0.51460
4158.30454,0.52103
4156.37582,0.52724
4154.44711,0.53315
4152.51840,0.53816
4150.58969,0.54231
4148.66097,0.54639
4146.73226,0.55075
4144.80355,0.55504
4142.87484,0.55915
4140.94612,0.56343
4139.01741,0.56821
4137.08870,0.57319
4135.15999,0.57780
4133.23127,0.58174
4131.30256,0.58495
4129.37385,0.58759
4127.44513,0.58969
4125.51642,0.59089
4123.58771,0.59095
4121.65900,0.59028
4119.73028,0.58935
4117.80157,0.58802
4115.87286,0.58606
4113.94415,0.58380
4112.01543,0.58174
4110.08672,0.57989
4108.15801,0.57796
4106.22930,0.57564
4104.30058,0.57320
4102.37187,0.57065
4100.44316,0.56711
4098.51444,0.56219
4096.58573,0.55617
4094.65702,0.54908
4092.72831,0.54052
4090.79959,0.53029
4088.87088,0.51922
4086.94217,0.50924
4085.01346,0.50206
4083.08474,0.49847
4081.15603,0.49928
4079.22732,0.50494
4077.29861,0.51414
4075.36989,0.52453
4073.44118,0.53429
4071.51247,0.54290
4069.58375,0.55081
4067.65504,0.55872
4065.72633,0.56703
4063.79762,0.57542
4061.86890,0.58347
4059.94019,0.59123
4058.01148,0.59849
4056.08277,0.60492
4054.15405,0.61060
4052.22534,0.61538
4050.29663,0.61874
4048.36791,0.62067
4046.43920,0.62184
4044.51049,0.62345
4042.58178,0.62600
4040.65306,0.62848
4038.72435,0.63019
4036.79564,0.63141
4034.86693,0.63223
4032.93821,0.63258
4031.00950,0.63298
4029.08079,0.63357
4027.15208,0.63380
4025.22336,0.63352
4023.29465,0.63320
4021.36594,0.63301
4019.43722,0.63331
4017.50851,0.63461
4015.57980,0.63671
4013.65109,0.63903
4011.72237,0.64119
4009.79366,0.64309
4007.86495,0.64554
4005.93624,0.64920
4004.00752,0.65320
4002.07881,0.65677
4000.15010,0.66026
3998.22139,0.66341
3996.29267,0.66587
3994.36396,0.66861
3992.43525,0.67202
3990.50653,0.67559
3988.57782,0.67939
3986.64911,0.68312
3984.72040,0.68587
3982.79168,0.68761
3980.86297,0.68917
3978.93426,0.69097
3977.00555,0.69254
3975.07683,0.69375
3973.14812,0.69548
3971.21941,0.69806
3969.29070,0.70084
3967.36198,0.70329
3965.43327,0.70465
3963.50456,0.70444
3961.57584,0.70404
3959.64713,0.70466
3957.71842,0.70539
3955.78971,0.70560
3953.86099,0.70515
3951.93228,0.70361
3950.00357,0.70161
3948.07486,0.70116
3946.14614,0.70204
3944.21743,0.70172
3942.28872,0.70163
3940.36000,0.70451
3938.43129,0.70814
3936.50258,0.70938
3934.57387,0.70677
3932.64515,0.70145
3930.71644,0.69887
3928.78773,0.70095
3926.85902,0.70181
3924.93030,0.69926
3923.00159,0.69848
3921.07288,0.69983
3919.14417,0.69920
3917.21545,0.69869
3915.28674,0.70239
3913.35803,0.70766
3911.42931,0.71051
3909.50060,0.71006
3907.57189,0.70572
3905.64318,0.69666
3903.71446,0.68751
3901.78575,0.68602
3899.85704,0.69156
3897.92833,0.70032
3895.99961,0.70713
3894.07090,0.70770
3892.14219,0.70458
3890.21348,0.70643
3888.28476,0.71075
3886.35605,0.70970
3884.42734,0.70575
3882.49862,0.70472
3880.56991,0.70660
3878.64120,0.71196
3876.71249,0.71512
3874.78377,0.71108
3872.85506,0.70384
3870.92635,0.69906
3868.99764,0.69944
3867.06892,0.70236
3865.14021,0.70186
3863.21150,0.70250
3861.28278,0.70922
3859.35407,0.71395
3857.42536,0.71149
3855.49665,0.70150
3853.56793,0.68719
3851.63922,0.68987
3849.71051,0.70495
3847.78180,0.71615
3845.85308,0.71893
3843.92437,0.71423
3841.99566,0.70649
3840.06695,0.69925
3838.13823,0.69643
3836.20952,0.70144
3834.28081,0.70920
3832.35209,0.71563
3830.42338,0.71990
3828.49467,0.72118
3826.56596,0.72042
3824.63724,0.71916
3822.70853,0.71406
3820.77982,0.70674
3818.85111,0.70853
3816.92239,0.71515
3814.99368,0.72382
3813.06497,0.73419
3811.13626,0.74045
3809.20754,0.73886
3807.27883,0.73130
3805.35012,0.72593
3803.42140,0.72209
3801.49269,0.71768
3799.56398,0.72113
3797.63527,0.72974
3795.70655,0.73985
3793.77784,0.75049
3791.84913,0.75763
3789.92042,0.76016
3787.99170,0.75925
3786.06299,0.75639
3784.13428,0.75544
3782.20557,0.75643
3780.27685,0.75528
3778.34814,0.75558
3776.41943,0.76074
3774.49071,0.76453
3772.56200,0.76226
3770.63329,0.75526
3768.70458,0.75057
3766.77586,0.75067
3764.84715,0.75218
3762.91844,0.75296
3760.98973,0.74943
3759.06101,0.74250
3757.13230,0.73986
3755.20359,0.73939
3753.27487,0.73309
3751.34616,0.72081
3749.41745,0.71802
3747.48874,0.72529
3745.56002,0.73123
3743.63131,0.73554
3741.70260,0.74052
3739.77389,0.74297
3737.84517,0.73824
3735.91646,0.72758
3733.98775,0.72587
3732.05904,0.73772
3730.13032,0.75003
3728.20161,0.75549
3726.27290,0.75484
3724.34418,0.75430
3722.41547,0.75832
3720.48676,0.76533
3718.55805,0.77239
3716.62933,0.77610
3714.70062,0.77223
3712.77191,0.75817
3710.84320,0.74490
3708.91448,0.74836
3706.98577,0.75652
3705.05706,0.75827
3703.12835,0.75269
3701.19963,0.74530
3699.27092,0.74183
3697.34221,0.73820
3695.41349,0.73069
3693.48478,0.71837
3691.55607,0.69910
3689.62736,0.67778
3687.69864,0.67110
3685.76993,0.67519
3683.84122,0.67806
3681.91251,0.67641
3679.98379,0.67023
3678.05508,0.66083
3676.12637,0.65112
3674.19766,0.65087
3672.26894,0.65537
3670.34023,0.65747
3668.41152,0.66631
3666.48280,0.67997
3664.55409,0.68907
3662.62538,0.69281
3660.69667,0.69375
3658.76795,0.69262
3656.83924,0.68970
3654.91053,0.68819
3652.98182,0.68584
3651.05310,0.67445
3649.12439,0.65914
3647.19568,0.66627
3645.26696,0.68342
3643.33825,0.69407
3641.40954,0.69811
3639.48083,0.69876
3637.55211,0.69745
3635.62340,0.69376
3633.69469,0.68794
3631.76598,0.68041
3629.83726,0.66865
3627.90855,0.66056
3625.97984,0.66522
3624.05113,0.66957
3622.12241,0.66643
3620.19370,0.65659
3618.26499,0.64850
3616.33627,0.64725
3614.40756,0.64682
3612.47885,0.64604
3610.55014,0.64543
3608.62142,0.64360
3606.69271,0.64422
3604.76400,0.64707
3602.83529,0.64605
3600.90657,0.64053
3598.97786,0.63562
3597.04915,0.63271
3595.12044,0.63049
3593.19172,0.63068
3591.26301,0.63136
3589.33430,0.62646
3587.40558,0.61804
3585.47687,0.61770
3583.54816,0.62180
3581.61945,0.62267
3579.69073,0.62035
3577.76202,0.61679
3575.83331,0.61306
3573.90460,0.60974
3571.97588,0.60574
3570.04717,0.59783
3568.11846,0.58415
3566.18974,0.57336
3564.26103,0.57381
3562.33232,0.57672
3560.40361,0.57660
3558.47489,0.57489
3556.54618,0.57258
3554.61747,0.56841
3552.68876,0.56313
3550.76004,0.55987
3548.83133,0.55736
3546.90262,0.55286
3544.97391,0.54970
3543.04519,0.55130
3541.11648,0.55429
3539.18777,0.55470
3537.25905,0.55262
3535.33034,0.55102
3533.40163,0.55060
3531.47292,0.54895
3529.54420,0.54530
3527.61549,0.54186
3525.68678,0.53972
3523.75807,0.53840
3521.82935,0.53855
3519.90064,0.53943
3517.97193,0.53932
3516.04322,0.53826
3514.11450,0.53604
3512.18579,0.53174
3510.25708,0.52656
3508.32836,0.52278
3506.39965,0.51958
3504.47094,0.51479
3502.54223,0.51011
3500.61351,0.50785
3498.68480,0.50566
3496.75609,0.50151
3494.82738,0.49658
3492.89866,0.49190
3490.96995,0.48659
3489.04124,0.48019
3487.11253,0.47391
3485.18381,0.46811
3483.25510,0.46189
3481.32639,0.45607
3479.39767,0.45205
3477.46896,0.44843
3475.54025,0.44376
3473.61154,0.43886
3471.68282,0.43443
3469.75411,0.42990
3467.82540,0.42486
3465.89669,0.41995
3463.96797,0.41558
3462.03926,0.41157
3460.11055,0.40771
3458.18183,0.40371
3456.25312,0.39953
3454.32441,0.39523
3452.39570,0.39029
3450.46698,0.38404
3448.53827,0.37637
3446.60956,0.36830
3444.68085,0.36082
3442.75213,0.35301
3440.82342,0.34441
3438.89471,0.33580
3436.96600,0.32709
3435.03728,0.31830
3433.10857,0.31013
3431.17986,0.30330
3429.25114,0.29800
3427.32243,0.29419
3425.39372,0.29203
3423.46501,0.29151
3421.53629,0.29286
3419.60758,0.29636
3417.67887,0.30144
3415.75016,0.30750
3413.82144,0.31472
3411.89273,0.32346
3409.96402,0.33327
3408.03531,0.34336
3406.10659,0.35357
3404.17788,0.36428
3402.24917,0.37536
3400.32045,0.38573
3398.39174,0.39498
3396.46303,0.40385
3394.53432,0.41238
3392.60560,0.42044
3390.67689,0.42832
3388.74818,0.43535
3386.81947,0.44123
3384.89075,0.44698
3382.96204,0.45315
3381.03333,0.45903
3379.10462,0.46400
3377.17590,0.46857
3375.24719,0.47323
3373.31848,0.47776
3371.38976,0.48173
3369.46105,0.48459
3367.53234,0.48674
3365.60363,0.48928
3363.67491,0.49227
3361.74620,0.49497
3359.81749,0.49704
3357.88878,0.49858
3355.96006,0.49996
3354.03135,0.50148
3352.10264,0.50295
3350.17392,0.50398
3348.24521,0.50427
3346.31650,0.50379
3344.38779,0.50267
3342.45907,0.50100
3340.53036,0.49892
3338.60165,0.49650
3336.67294,0.49387
3334.74422,0.49149
3332.81551,0.48953
3330.88680,0.48766
3328.95809,0.48563
3327.02937,0.48377
3325.10066,0.48217
3323.17195,0.47973
3321.24323,0.47486
3319.31452,0.46695
3317.38581,0.45652
3315.45710,0.44336
3313.52838,0.42605
3311.59967,0.40369
3309.67096,0.37691
3307.74225,0.34815
3305.81353,0.32149
3303.88482,0.30131
3301.95611,0.29139
3300.02740,0.29335
3298.09868,0.30557
3296.16997,0.32458
3294.24126,0.34693
3292.31254,0.37042
3290.38383,0.39362
3288.45512,0.41524
3286.52641,0.43465
3284.59769,0.45203
3282.66898,0.46750
3280.74027,0.48067
3278.81156,0.49150
3276.88284,0.50088
3274.95413,0.50988
3273.02542,0.51906
3271.09670,0.52805
3269.16799,0.53575
3267.23928,0.54167
3265.31057,0.54645
3263.38185,0.55064
3261.45314,0.55430
3259.52443,0.55753
3257.59572,0.56025
3255.66700,0.56211
3253.73829,0.56337
3251.80958,0.56485
3249.88087,0.56645
3247.95215,0.56719
3246.02344,0.56708
3244.09473,0.56736
3242.16601,0.56800
3240.23730,0.56767
3238.30859,0.56631
3236.37988,0.56504
3234.45116,0.56412
3232.52245,0.56289
3230.59374,0.56122
3228.66503,0.55942
3226.73631,0.55772
3224.80760,0.55647
3222.87889,0.55560
3220.95018,0.55462
3219.02146,0.55344
3217.09275,0.55214
3215.16404,0.55100
3213.23532,0.55031
3211.30661,0.54966
3209.37790,0.54863
3207.44919,0.54751
3205.52047,0.54645
3203.59176,0.54483
3201.66305,0.54260
3199.73434,0.54075
3197.80562,0.53981
3195.87691,0.53946
3193.94820,0.53931
3192.01949,0.53911
3190.09077,0.53893
3188.16206,0.53891
3186.23335,0.53926
3184.30463,0.54013
3182.37592,0.54102
3180.44721,0.54105
3178.51850,0.54061
3176.58978,0.54109
3174.66107,0.54254
3172.73236,0.54375
3170.80365,0.54424
3168.87493,0.54423
3166.94622,0.54367
3165.01751,0.54284
3163.08879,0.54244
3161.16008,0.54242
3159.23137,0.54220
3157.30266,0.54162
3155.37394,0.54076
3153.44523,0.53963
3151.51652,0.53831
3149.58781,0.53686
3147.65909,0.53510
3145.73038,0.53300
3143.80167,0.53067
3141.87296,0.52804
3139.94424,0.52510
3138.01553,0.52179
3136.08682,0.51785
3134.15810,0.51316
3132.22939,0.50822
3130.30068,0.50332
3128.37197,0.49822
3126.44325,0.49364
3124.51454,0.49114
3122.58583,0.49088
3120.65712,0.49093
3118.72840,0.48947
3116.79969,0.48652
3114.87098,0.48277
3112.94227,0.47824
3111.01355,0.47272
3109.08484,0.46599
3107.15613,0.45773
3105.22741,0.44804
3103.29870,0.43741
3101.36999,0.42654
3099.44128,0.41655
3097.51256,0.40864
3095.58385,0.40301
3093.65514,0.39810
3091.72643,0.39170
3089.79771,0.38294
3087.86900,0.37230
3085.94029,0.36091
3084.01158,0.35015
3082.08286,0.34156
3080.15415,0.33639
3078.22544,0.33466
3076.29672,0.33439
3074.36801,0.33258
3072.43930,0.32734
3070.51059,0.31876
3068.58187,0.30827
3066.65316,0.29834
3064.72445,0.29167
3062.79574,0.28888
3060.86702,0.28769
3058.93831,0.28500
3057.00960,0.27973
3055.08088,0.27396
3053.15217,0.27100
3051.22346,0.27237
3049.29475,0.27737
3047.36603,0.28361
3045.43732,0.28831
3043.50861,0.28989
3041.57990,0.28815
3039.65118,0.28361
3037.72247,0.27691
3035.79376,0.26860
3033.86505,0.25935
3031.93633,0.24975
3030.00762,0.24028
3028.07891,0.23090
3026.15019,0.22085
3024.22148,0.20971
3022.29277,0.19759
3020.36406,0.18473
3018.43534,0.17144
3016.50663,0.15772
3014.57792,0.14337
3012.64921,0.12839
3010.72049,0.11308
3008.79178,0.09797
3006.86307,0.08339
3004.93436,0.06932
3003.00564,0.05592
3001.07693,0.04364
2999.14822,0.03266
2997.21950,0.02315
2995.29079,0.01550
2993.36208,0.00989
2991.43337,0.00603
2989.50465,0.00343
2987.57594,0.00185
2985.64723,0.00109
2983.71852,0.00075
2981.78980,0.00054
2979.86109,0.00040
2977.93238,0.00037
2976.00366,0.00040
2974.07495,0.00044
2972.14624,0.00047
2970.21753,0.00069
2968.28881,0.00091
2966.36010,0.00108
2964.43139,0.00113
2962.50268,0.00102
2960.57396,0.00067
2958.64525,0.00036
2956.71654,0.00033
2954.78783,0.00037
2952.85911,0.00032
2950.93040,0.00040
2949.00169,0.00069
2947.07297,0.00090
2945.14426,0.00082
2943.21555,0.00066
2941.28684,0.00057
2939.35812,0.00045
2937.42941,0.00024
2935.50070,0.00019
2933.57199,0.00045
2931.64327,0.00067
2929.71456,0.00065
2927.78585,0.00057
2925.85714,0.00043
2923.92842,0.00038
2921.99971,0.00044
2920.07100,0.00066
2918.14228,0.00090
2916.21357,0.00085
2914.28486,0.00062
2912.35615,0.00066
2910.42743,0.00082
2908.49872,0.00083
2906.57001,0.00082
2904.64130,0.00066
2902.71258,0.00036
2900.78387,0.00020
2898.85516,0.00017
2896.92645,0.00026
2894.99773,0.00036
2893.06902,0.00042
2891.14031,0.00058
2889.21159,0.00084
2887.28288,0.00086
2885.35417,0.00071
2883.42546,0.00052
2881.49674,0.00036
2879.56803,0.00029
2877.63932,0.00022
2875.71061,0.00015
2873.78189,0.00036
2871.85318,0.00054
2869.92447,0.00044
2867.99575,0.00025
2866.06704,0.00031
2864.13833,0.00041
2862.20962,0.00032
2860.28090,0.00010
2858.35219,-0.00003
2856.42348,-0.00001
2854.49477,0.00011
2852.56605,0.00042
2850.63734,0.00080
2848.70863,0.00082
2846.77992,0.00075
2844.85120,0.00116
2842.92249,0.00239
2840.99378,0.00489
2839.06506,0.00881
2837.13635,0.01405
2835.20764,0.02037
2833.27893,0.02759
2831.35021,0.03525
2829.42150,0.04270
2827.49279,0.04933
2825.56408,0.05471
2823.63536,0.05866
2821.70665,0.06114
2819.77794,0.06271
2817.84923,0.06512
2815.92051,0.07070
2813.99180,0.08109
2812.06309,0.09626
2810.13437,0.11466
2808.20566,0.13419
2806.27695,0.15310
2804.34824,0.17067
2802.41952,0.18690
2800.49081,0.20199
2798.56210,0.21636
2796.63339,0.23053
2794.70467,0.24438
2792.77596,0.25737
2790.84725,0.26932
2788.91854,0.28058
2786.98982,0.29156
2785.06111,0.30222
2783.13240,0.31231
2781.20368,0.32173
2779.27497,0.33046
2777.34626,0.33848
2775.41755,0.34565
2773.48883,0.35176
2771.56012,0.35676
2769.63141,0.36078
2767.70270,0.36416
2765.77398,0.36707
2763.84527,0.36936
2761.91656,0.37084
2759.98784,0.37135
2758.05913,0.37076
2756.13042,0.36915
2754.20171,0.36673
2752.27299,0.36371
2750.34428,0.36023
2748.41557,0.35630
2746.48686,0.35188
2744.55814,0.34694
2742.62943,0.34169
2740.70072,0.33649
2738.77201,0.33168
2736.84329,0.32783
2734.91458,0.32593
2732.98587,0.32685
2731.05715,0.33124
2729.12844,0.33951
2727.19973,0.35106
2725.27102,0.36431
2723.34230,0.37747
2721.41359,0.38924
2719.48488,0.39931
2717.55617,0.40804
2715.62745,0.41565
2713.69874,0.42236
2711.77003,0.42844
2709.84132,0.43389
2707.91260,0.43893
2705.98389,0.44387
2704.05518,0.44867
2702.12646,0.45306
2700.19775,0.45685
2698.26904,0.45989
2696.34033,0.46223
2694.41161,0.46412
2692.48290,0.46572
2690.55419,0.46691
2688.62548,0.46732
2686.69676,0.46656
2684.76805,0.46464
2682.83934,0.46202
2680.91062,0.45923
2678.98191,0.45672
2677.05320,0.45473
2675.12449,0.45332
2673.19577,0.45272
2671.26706,0.45331
2669.33835,0.45553
2667.40964,0.45957
2665.48092,0.46497
2663.55221,0.47107
2661.62350,0.47743
2659.69479,0.48377
2657.76607,0.48987
2655.83736,0.49563
2653.90865,0.50092
2651.97993,0.50539
2650.05122,0.50861
2648.12251,0.51051
2646.19380,0.51124
2644.26508,0.51110
2642.33637,0.51037
2640.40766,0.50891
2638.47895,0.50635
2636.55023,0.50259
2634.62152,0.49811
2632.69281,0.49394
2630.76410,0.49118
2628.83538,0.49013
2626.90667,0.48992
2624.97796,0.48962
2623.04924,0.48909
2621.12053,0.48858
2619.19182,0.48823
2617.26311,0.48810
2615.33439,0.48812
2613.40568,0.48795
2611.47697,0.48739
2609.54826,0.48668
2607.61954,0.48631
2605.69083,0.48649
2603.76212,0.48711
2601.83341,0.48805
2599.90469,0.48887
2597.97598,0.48914
2596.04727,0.48909
2594.11855,0.48902
2592.18984,0.48894
2590.26113,0.48863
2588.33242,0.48775
2586.40370,0.48619
2584.47499,0.48427
2582.54628,0.48262
2580.61757,0.48182
2578.68885,0.48210
2576.76014,0.48343
2574.83143,0.48554
2572.90271,0.48803
2570.97400,0.49083
2569.04529,0.49401
2567.11658,0.49724
2565.18786,0.49990
2563.25915,0.50167
2561.33044,0.50261
2559.40173,0.50301
2557.47301,0.50330
2555.54430,0.50402
2553.61559,0.50542
2551.68688,0.50750
2549.75816,0.51004
2547.82945,0.51271
2545.90074,0.51531
2543.97202,0.51790
2542.04331,0.52070
2540.11460,0.52362
2538.18589,0.52607
2536.25717,0.52756
2534.32846,0.52833
2532.39975,0.52904
2530.47104,0.53031
2528.54232,0.53241
2526.61361,0.53525
2524.68490,0.53840
2522.75619,0.54172
2520.82747,0.54543
2518.89876,0.54953
2516.97005,0.55396
2515.04133,0.55889
2513.11262,0.56405
2511.18391,0.56875
2509.25520,0.57296
2507.32648,0.57718
2505.39777,0.58138
2503.46906,0.58525
2501.54035,0.58871
2499.61163,0.59155
2497.68292,0.59347
2495.75421,0.59480
2493.82549,0.59612
2491.89678,0.59772
2489.96807,0.59952
2488.03936,0.60123
2486.11064,0.60269
2484.18193,0.60400
2482.25322,0.60534
2480.32451,0.60705
2478.39579,0.60916
2476.46708,0.61126
2474.53837,0.61315
2472.60966,0.61486
2470.68094,0.61647
2468.75223,0.61800
2466.82352,0.61953
2464.89480,0.62101
2462.96609,0.62208
2461.03738,0.62245
2459.10867,0.62215
2457.17995,0.62146
2455.25124,0.62075
2453.32253,0.62031
2451.39382,0.62003
2449.46510,0.61942
2447.53639,0.61790
2445.60768,0.61554
2443.67897,0.61301
2441.75025,0.61079
2439.82154,0.60892
2437.89283,0.60698
2435.96411,0.60451
2434.03540,0.60134
2432.10669,0.59766
2430.17798,0.59385
2428.24926,0.58994
2426.32055,0.58572
2424.39184,0.58106
2422.46313,0.57625
2420.53441,0.57174
2418.60570,0.56787
2416.67699,0.56479
2414.74828,0.56215
2412.81956,0.55956
2410.89085,0.55687
2408.96214,0.55393
2407.03342,0.55078
2405.10471,0.54775
2403.17600,0.54492
2401.24729,0.54214
2399.31857,0.53918
2397.38986,0.53583
2395.46115,0.53216
2393.53244,0.52858
2391.60372,0.52546
2389.67501,0.52267
2387.74630,0.51968
2385.81758,0.51592
2383.88887,0.51071
2381.96016,0.50380
2380.03145,0.49578
2378.10273,0.48758
2376.17402,0.47989
2374.24531,0.47294
2372.31660,0.46667
2370.38788,0.46098
2368.45917,0.45603
2366.53046,0.45216
2364.60175,0.44999
2362.67303,0.45017
2360.74432,0.45294
2358.81561,0.45838
2356.88689,0.46686
2354.95818,0.47920
2353.02947,0.49591
2351.10076,0.51421
2349.17204,0.52680
2347.24333,0.52882
2345.31462,0.52394
2343.38591,0.52161
2341.45719,0.52519
2339.52848,0.53145
2337.59977,0.53802
2335.67106,0.54409
2333.74234,0.54915
2331.81363,0.55307
2329.88492,0.55694
2327.95620,0.56112
2326.02749,0.56430
2324.09878,0.56675
2322.17007,0.57136
2320.24135,0.57987
2318.31264,0.59076
2316.38393,0.60080
2314.45522,0.60824
2312.52650,0.61401
2310.59779,0.61935
2308.66908,0.62413
2306.74037,0.62791
2304.81165,0.63064
2302.88294,0.63244
2300.95423,0.63342
2299.02551,0.63360
2297.09680,0.63271
2295.16809,0.63065
2293.23938,0.62776
2291.31066,0.62444
2289.38195,0.62090
2287.45324,0.61713
2285.52453,0.61306
2283.59581,0.60842
2281.66710,0.60319
2279.73839,0.59843
2277.80967,0.59597
2275.88096,0.59671
2273.95225,0.60016
2272.02354,0.60517
2270.09482,0.61038
2268.16611,0.61494
2266.23740,0.61891
2264.30869,0.62251
2262.37997,0.62557
2260.45126,0.62781
2258.52255,0.62901
2256.59384,0.62920
2254.66512,0.62892
2252.73641,0.62889
2250.80770,0.62933
2248.87898,0.62979
2246.95027,0.62970
2245.02156,0.62880
2243.09285,0.62728
2241.16413,0.62578
2239.23542,0.62491
2237.30671,0.62491
2235.37800,0.62538
2233.44928,0.62574
2231.52057,0.62598
2229.59186,0.62639
2227.66315,0.62738
2225.73443,0.62933
2223.80572,0.63203
2221.87701,0.63470
2219.94829,0.63672
2218.01958,0.63801
2216.09087,0.63873
2214.16216,0.63920
2212.23344,0.63987
2210.30473,0.64120
2208.37602,0.64360
2206.44731,0.64732
2204.51859,0.65235
2202.58988,0.65819
2200.66117,0.66408
2198.73245,0.66951
2196.80374,0.67401
2194.87503,0.67705
2192.94632,0.67873
2191.01760,0.68000
2189.08889,0.68197
2187.16018,0.68509
2185.23147,0.68881
2183.30275,0.69217
2181.37404,0.69447
2179.44533,0.69585
2177.51662,0.69698
2175.58790,0.69821
2173.65919,0.69946
2171.73048,0.70043
2169.80176,0.70068
2167.87305,0.69984
2165.94434,0.69814
2164.01563,0.69642
2162.08691,0.69531
2160.15820,0.69485
2158.22949,0.69455
2156.30078,0.69383
2154.37206,0.69267
2152.44335,0.69150
2150.51464,0.69073
2148.58593,0.69053
2146.65721,0.69058
2144.72850,0.69015
2142.79979,0.68885
2140.87107,0.68715
2138.94236,0.68576
2137.01365,0.68515
2135.08494,0.68530
2133.15622,0.68570
2131.22751,0.68566
2129.29880,0.68500
2127.37009,0.68403
2125.44137,0.68320
2123.51266,0.68279
2121.58395,0.68274
2119.65524,0.68249
2117.72652,0.68138
2115.79781,0.67948
2113.86910,0.67782
2111.94038,0.67725
2110.01167,0.67760
2108.08296,0.67814
2106.15425,0.67818
2104.22553,0.67744
2102.29682,0.67625
2100.36811,0.67522
2098.43940,0.67451
2096.51068,0.67405
2094.58197,0.67356
2092.65326,0.67233
2090.72454,0.67019
2088.79583,0.66802
2086.86712,0.66663
2084.93841,0.66583
2083.00969,0.66506
2081.08098,0.66380
2079.15227,0.66205
2077.22356,0.66036
2075.29484,0.65934
2073.36613,0.65916
2071.43742,0.65949
2069.50871,0.65973
2067.57999,0.65924
2065.65128,0.65839
2063.72257,0.65861
2061.79385,0.66039
2059.86514,0.66299
2057.93643,0.66577
2056.00772,0.66831
2054.07900,0.67025
2052.15029,0.67179
2050.22158,0.67348
2048.29287,0.67567
2046.36415,0.67804
2044.43544,0.67981
2042.50673,0.68058
2040.57802,0.68103
2038.64930,0.68180
2036.72059,0.68277
2034.79188,0.68384
2032.86316,0.68508
2030.93445,0.68619
2029.00574,0.68691
2027.07703,0.68748
2025.14831,0.68853
2023.21960,0.69039
2021.29089,0.69259
2019.36218,0.69422
2017.43346,0.69569
2015.50475,0.69810
2013.57604,0.70055
2011.64733,0.70186
2009.71861,0.70258
2007.78990,0.70342
2005.86119,0.70399
2003.93247,0.70329
2002.00376,0.70105
2000.07505,0.69792
1998.14634,0.69456
1996.21762,0.69031
1994.28891,0.68360
1992.36020,0.67556
1990.43149,0.66989
1988.50277,0.66747
1986.57406,0.66670
1984.64535,0.66657
1982.71663,0.66619
1980.78792,0.66495
1978.85921,0.66249
1976.93050,0.65876
1975.00178,0.65419
1973.07307,0.64894
1971.14436,0.64253
1969.21565,0.63385
1967.28693,0.62319
1965.35822,0.61276
1963.42951,0.60194
1961.50080,0.58838
1959.57208,0.57194
1957.64337,0.55318
1955.71466,0.53255
1953.78594,0.51259
1951.85723,0.49695
1949.92852,0.48816
1947.99981,0.48715
1946.07109,0.49317
1944.14238,0.50471
1942.21367,0.52097
1940.28496,0.53896
1938.35624,0.55486
1936.42753,0.56858
1934.49882,0.58163
1932.57011,0.59455
1930.64139,0.60645
1928.71268,0.61618
1926.78397,0.62269
1924.85525,0.62548
1922.92654,0.62718
1920.99783,0.63055
1919.06912,0.63384
1917.14040,0.63699
1915.21169,0.64083
1913.28298,0.64281
1911.35427,0.64221
1909.42555,0.64207
1907.49684,0.64494
1905.56813,0.64886
1903.63941,0.65136
1901.71070,0.65258
1899.78199,0.65316
1897.85328,0.65281
1895.92456,0.65203
1893.99585,0.65252
1892.06714,0.65291
1890.13843,0.65193
1888.20971,0.65280
1886.28100,0.65582
1884.35229,0.65858
1882.42358,0.66092
1880.49486,0.66256
1878.56615,0.66285
1876.63744,0.66249
1874.70872,0.66172
1872.78001,0.65899
1870.85130,0.65221
1868.92259,0.64375
1866.99387,0.64258
1865.06516,0.64673
1863.13645,0.64797
1861.20774,0.64489
1859.27902,0.64012
1857.35031,0.63518
1855.42160,0.62919
1853.49289,0.62127
1851.56417,0.61126
1849.63546,0.59904
1847.70675,0.58511
1845.77803,0.57023
1843.84932,0.55712
1841.92061,0.54992
1839.99190,0.54353
1838.06318,0.53212
1836.13447,0.51692
1834.20576,0.50040
1832.27705,0.48040
1830.34833,0.45466
1828.41962,0.43153
1826.49091,0.41723
1824.56220,0.40795
1822.63348,0.40498
1820.70477,0.40760
1818.77606,0.41267
1816.84734,0.41918
1814.91863,0.42529
1812.98992,0.42905
1811.06121,0.43108
1809.13249,0.43334
1807.20378,0.43499
1805.27507,0.43385
1803.34636,0.42906
1801.41764,0.42141
1799.48893,0.41382
1797.56022,0.40668
1795.63150,0.39758
1793.70279,0.38464
1791.77408,0.36996
1789.84537,0.36055
1787.91665,0.35339
1785.98794,0.34253
1784.05923,0.32860
1782.13052,0.31451
1780.20180,0.30067
1778.27309,0.28822
1776.34438,0.27662
1774.41567,0.26246
1772.48695,0.24393
1770.55824,0.22681
1768.62953,0.21334
1766.70081,0.19872
1764.77210,0.18241
1762.84339,0.16125
1760.91468,0.13480
1758.98596,0.11048
1757.05725,0.08634
1755.12854,0.06367
1753.19983,0.04647
1751.27111,0.03133
1749.34240,0.01781
1747.41369,0.00959
1745.48498,0.00535
1743.55626,0.00284
1741.62755,0.00150
1739.69884,0.00068
1737.77012,0.00033
1735.84141,0.00018
1733.91270,0.00043
1731.98399,0.00053
1730.05527,0.00040
1728.12656,0.00017
1726.19785,0.00027
1724.26914,0.00055
1722.34042,0.00076
1720.41171,0.00079
1718.48300,0.00075
1716.55429,0.00061
1714.62557,0.00036
1712.69686,0.00038
1710.76815,0.00044
1708.83943,0.00057
1706.91072,0.00044
1704.98201,0.00035
1703.05330,0.00043
1701.12458,0.00098
1699.19587,0.00275
1697.26716,0.00755
1695.33845,0.01622
1693.40973,0.02518
1691.48102,0.03306
1689.55231,0.04149
1687.62359,0.04877
1685.69488,0.05391
1683.76617,0.05934
1681.83746,0.06402
1679.90874,0.06759
1677.98003,0.07082
1676.05132,0.07456
1674.12261,0.08001
1672.19389,0.08747
1670.26518,0.10314
1668.33647,0.13144
1666.40776,0.15868
1664.47904,0.18359
1662.55033,0.21325
1660.62162,0.24128
1658.69290,0.25973
1656.76419,0.27019
1654.83548,0.27449
1652.90677,0.27710
1650.97805,0.28051
1649.04934,0.27784
1647.12063,0.26438
1645.19192,0.24442
1643.26320,0.22382
1641.33449,0.19762
1639.40578,0.17001
1637.47707,0.15403
1635.54835,0.17243
1633.61964,0.21512
1631.69093,0.24875
1629.76221,0.27502
1627.83350,0.29594
1625.90479,0.30894
1623.97608,0.31533
1622.04736,0.31823
1620.11865,0.31575
1618.18994,0.30097
1616.26123,0.27421
1614.33251,0.25996
1612.40380,0.26111
1610.47509,0.26727
1608.54637,0.27716
1606.61766,0.29120
1604.68895,0.30728
1602.76024,0.32409
1600.83152,0.34029
1598.90281,0.35193
1596.97410,0.35526
1595.04539,0.35098
1593.11667,0.34469
1591.18796,0.34067
1589.25925,0.33559
1587.33054,0.31978
1585.40182,0.28415
1583.47311,0.22859
1581.54440,0.16728
1579.61568,0.12043
1577.68697,0.09883
1575.75826,0.11097
1573.82955,0.14012
1571.90083,0.16451
1569.97212,0.18733
1568.04341,0.20509
1566.11470,0.21437
1564.18598,0.22168
1562.25727,0.22873
1560.32856,0.23508
1558.39985,0.24595
1556.47113,0.25534
1554.54242,0.25957
1552.61371,0.26244
1550.68499,0.26487
1548.75628,0.26627
1546.82757,0.26295
1544.89886,0.25065
1542.97014,0.23008
1541.04143,0.20968
1539.11272,0.20736
1537.18401,0.21836
1535.25529,0.22887
1533.32658,0.23815
1531.39787,0.24334
1529.46916,0.24400
1527.54044,0.24421
1525.61173,0.24800
1523.68302,0.25397
1521.75430,0.26047
1519.82559,0.26573
1517.89688,0.26347
1515.96817,0.25295
1514.03945,0.23734
1512.11074,0.21433
1510.18203,0.18151
1508.25332,0.12987
1506.32460,0.06153
1504.39589,0.04965
1502.46718,0.07694
1500.53846,0.11777
1498.60975,0.16044
1496.68104,0.19268
1494.75233,0.20665
1492.82361,0.20534
1490.89490,0.19089
1488.96619,0.16435
1487.03748,0.13695
1485.10876,0.11205
1483.18005,0.08661
1481.25134,0.06052
1479.32263,0.03858
1477.39391,0.02289
1475.46520,0.01166
1473.53649,0.00463
1471.60777,0.00136
1469.67906,0.00038
1467.75035,0.00025
1465.82164,0.00039
1463.89292,0.00042
1461.96421,0.00046
1460.03550,0.00051
1458.10679,0.00062
1456.17807,0.00072
1454.24936,0.00064
1452.32065,0.00040
1450.39194,0.00026
1448.46322,0.00037
1446.53451,0.00048
1444.60580,0.00026
1442.67708,0.00009
1440.74837,0.00012
1438.81966,0.00028
1436.89095,0.00043
1434.96223,0.00039
1433.03352,0.00023
1431.10481,0.00004
1429.17610,-0.00001
1427.24738,0.00010
1425.31867,0.00023
1423.38996,0.00031
1421.46125,0.00042
1419.53253,0.00061
1417.60382,0.00059
1415.67511,0.00039
1413.74639,0.00014
1411.81768,0.00013
1409.88897,0.00006
1407.96026,0.00000
1406.03154,0.00033
1404.10283,0.00127
1402.17412,0.00279
1400.24541,0.00445
1398.31669,0.00533
1396.38798,0.00453
1394.45927,0.00267
1392.53055,0.00133
1390.60184,0.00081
1388.67313,0.00042
1386.74442,0.00015
1384.81570,0.00042
1382.88699,0.00047
1380.95828,0.00040
1379.02957,0.00027
1377.10085,0.00017
1375.17214,0.00009
1373.24343,0.00035
1371.31472,0.00083
1369.38600,0.00136
1367.45729,0.00179
1365.52858,0.00191
1363.59986,0.00166
1361.67115,0.00121
1359.74244,0.00084
1357.81373,0.00057
1355.88501,0.00033
1353.95630,0.00025
1352.02759,0.00041
1350.09888,0.00065
1348.17016,0.00079
1346.24145,0.00070
1344.31274,0.00039
1342.38403,0.00021
1340.45531,0.00032
1338.52660,0.00050
1336.59789,0.00041
1334.66917,0.00029
1332.74046,0.00016
1330.81175,0.00005
1328.88304,0.00016
1326.95432,0.00051
1325.02561,0.00060
1323.09690,0.00042
1321.16819,0.00026
1319.23947,0.00035
1317.31076,0.00038
1315.38205,0.00040
1313.45333,0.00039
1311.52462,0.00034
1309.59591,0.00036
1307.66720,0.00039
1305.73848,0.00037
1303.80977,0.00029
1301.88106,0.00019
1299.95235,0.00016
1298.02363,0.00016
1296.09492,0.00013
1294.16621,0.00018
1292.23750,0.00026
1290.30878,0.00023
1288.38007,0.00012
1286.45136,0.00015
1284.52264,0.00040
1282.59393,0.00041
1280.66522,0.00021
1278.73651,0.00009
1276.80779,0.00021
1274.87908,0.00040
1272.95037,0.00037
1271.02166,0.00016
1269.09294,0.00021
1267.16423,0.00035
1265.23552,0.00038
1263.30681,0.00027
1261.37809,0.00020
1259.44938,0.00013
1257.52067,0.00022
1255.59195,0.00033
1253.66324,0.00018
1251.73453,0.00009
1249.80582,0.00029
1247.87710,0.00036
1245.94839,0.00020
1244.01968,0.00012
1242.09097,0.00027
1240.16225,0.00032
1238.23354,0.00021
1236.30483,0.00018
1234.37612,0.00026
1232.44740,0.00029
1230.51869,0.00028
1228.58998,0.00026
1226.66126,0.00024
1224.73255,0.00041
1222.80384,0.00081
1220.87513,0.00157
1218.94641,0.00240
1217.01770,0.00284
1215.08899,0.00285
1213.16028,0.00258
1211.23156,0.00228
1209.30285,0.00215
1207.37414,0.00210
1205.44542,0.00195
1203.51671,0.00169
1201.58800,0.00139
1199.65929,0.00130
1197.73057,0.00156
1195.80186,0.00205
1193.87315,0.00273
1191.94444,0.00373
1190.01572,0.00515
1188.08701,0.00712
1186.15830,0.00966
1184.22959,0.01229
1182.30087,0.01403
1180.37216,0.01409
1178.44345,0.01232
1176.51473,0.00936
1174.58602,0.00650
1172.65731,0.00493
1170.72860,0.00496
1168.79988,0.00598
1166.87117,0.00703
1164.94246,0.00751
1163.01375,0.00750
1161.08503,0.00738
1159.15632,0.00720
1157.22761,0.00676
1155.29890,0.00618
1153.37018,0.00568
1151.44147,0.00516
1149.51276,0.00472
1147.58404,0.00456
1145.65533,0.00455
1143.72662,0.00439
1141.79791,0.00387
1139.86919,0.00299
1137.94048,0.00203
1136.01177,0.00119
1134.08306,0.00050
1132.15434,0.00012
1130.22563,0.00003
1128.29692,0.00025
1126.36821,0.00023
1124.43949,0.00021
1122.51078,0.00036
1120.58207,0.00038
1118.65335,0.00047
1116.72464,0.00039
1114.79593,0.00025
1112.86722,0.00038
1110.93850,0.00059
1109.00979,0.00053
1107.08108,0.00060
1105.15237,0.00067
1103.22365,0.00051
1101.29494,0.00028
1099.36623,0.00033
1097.43751,0.00062
1095.50880,0.00076
1093.58009,0.00051
1091.65138,0.00012
1089.72266,-0.00017
1087.79395,0.00047
1085.86524,0.00056
1083.93653,0.00047
1082.00781,0.00043
1080.07910,0.00089
1078.15039,0.00161
1076.22168,0.00246
1074.29296,0.00365
1072.36425,0.00534
1070.43554,0.00743
1068.50682,0.00949
1066.57811,0.01104
1064.64940,0.01234
1062.72069,0.01385
1060.79197,0.01552
1058.86326,0.01740
1056.93455,0.01958
1055.00584,0.02178
1053.07712,0.02363
1051.14841,0.02495
1049.21970,0.02581
1047.29099,0.02619
1045.36227,0.02591
1043.43356,0.02502
1041.50485,0.02380
1039.57613,0.02255
1037.64742,0.02121
1035.71871,0.01949
1033.79000,0.01723
1031.86128,0.01445
1029.93257,0.01135
1028.00386,0.00815
1026.07515,0.00509
1024.14643,0.00247
1022.21772,0.00070
1020.28901,0.00004
1018.36029,0.00025
1016.43158,0.00113
1014.50287,0.00270
1012.57416,0.00461
1010.64544,0.00648
1008.71673,0.00791
1006.78802,0.00846
1004.85931,0.00800
1002.93059,0.00681
1001.00188,0.00537
999.07317,0.00401
997.14446,0.00290
995.21574,0.00220
993.28703,0.00200
991.35832,0.00198
989.42960,0.00170
987.50089,0.00127
985.57218,0.00097
983.64347,0.00083
981.71475,0.00064
979.78604,0.00039
977.85733,0.00026
975.92862,0.00039
973.99990,0.00052
972.07119,0.00043
970.14248,0.00020
968.21377,0.00021
966.28505,0.00031
964.35634,0.00031
962.42763,0.00039
960.49891,0.00062
958.57020,0.00060
956.64149,0.00036
954.71278,0.00028
952.78406,0.00032
950.85535,0.00029
948.92664,0.00016
946.99793,0.00010
945.06921,0.00032
943.14050,0.00057
941.21179,0.00092
939.28308,0.00120
937.35436,0.00138
935.42565,0.00157
933.49694,0.00198
931.56822,0.00260
929.63951,0.00320
927.71080,0.00351
925.78209,0.00356
923.85337,0.00368
921.92466,0.00427
919.99595,0.00564
918.06724,0.00768
916.13852,0.00990
914.20981,0.01180
912.28110,0.01305
910.35238,0.01379
908.42367,0.01477
906.49496,0.01662
904.56625,0.01942
902.63753,0.02298
900.70882,0.02661
898.78011,0.02954
896.85140,0.03200
894.92268,0.03492
892.99397,0.03887
891.06526,0.04339
889.13655,0.04685
887.20783,0.04719
885.27912,0.04286
883.35041,0.03376
881.42169,0.02200
879.49298,0.01126
877.56427,0.00437
875.63556,0.00163
873.70684,0.00194
871.77813,0.00499
869.84942,0.01103
867.92071,0.01890
865.99199,0.02633
864.06328,0.03203
862.13457,0.03603
860.20586,0.03870
858.27714,0.04032
856.34843,0.04086
854.41972,0.04048
852.49100,0.03978
850.56229,0.03931
848.63358,0.03927
846.70487,0.03940
844.77615,0.03909
842.84744,0.03796
840.91873,0.03589
838.99002,0.03312
837.06130,0.03021
835.13259,0.02786
833.20388,0.02707
831.27516,0.02951
829.34645,0.03723
827.41774,0.05126
825.48903,0.07081
823.56031,0.09346
821.63160,0.11567
819.70289,0.13416
817.77418,0.14759
815.84546,0.15634
813.91675,0.16115
811.98804,0.16288
810.05933,0.16293
808.13061,0.16303
806.20190,0.16456
804.27319,0.16813
802.34447,0.17187
800.41576,0.16784
798.48705,0.14791
796.55834,0.12179
794.62962,0.11199
792.70091,0.12180
790.77220,0.13207
788.84349,0.12948
786.91477,0.11705
784.98606,0.10341
783.05735,0.09406
781.12864,0.08983
779.19992,0.08816
777.27121,0.08475
775.34250,0.07710
773.41378,0.06737
771.48507,0.05976
769.55636,0.05667
767.62765,0.05859
765.69893,0.06624
763.77022,0.08126
761.84151,0.10345
759.91280,0.12834
757.98408,0.14961
756.05537,0.16285
754.12666,0.16670
752.19795,0.16127
750.26923,0.14687
748.34052,0.12462
746.41181,0.09654
744.48309,0.06571
742.55438,0.03709
740.62567,0.01589
738.69696,0.00428
736.76824,0.00000
734.83953,-0.00057
732.91082,0.00023
730.98211,0.00038
729.05339,0.00067
727.12468,0.00070
725.19597,0.00189
723.26725,0.00545
721.33854,0.01201
719.40983,0.01958
717.48112,0.02389
715.55240,0.02301
713.62369,0.01884
711.69498,0.01374
709.76627,0.00915
707.83755,0.00604
705.90884,0.00437
703.98013,0.00342
702.05142,0.00262
700.12270,0.00168
698.19399,0.00102
696.26528,0.00098
694.33656,0.00094
692.40785,0.00110
690.47914,0.00143
688.55043,0.00142
686.62171,0.00123
684.69300,0.00128
682.76429,0.00176
680.83558,0.00238
678.90686,0.00291
676.97815,0.00382
675.04944,0.00556
673.12073,0.00784
671.19201,0.01041
669.26330,0.01407
667.33459,0.01924
665.40587,0.02299
663.47716,0.02403
661.54845,0.02221
659.61974,0.01777
657.69102,0.01244
655.76231,0.00754
653.83360,0.00357
651.90489,0.00104
649.97617,0.00041
648.04746,0.00092
646.11875,0.00091
644.19004,0.00101
642.26132,0.00154
640.33261,0.00181
638.40390,0.00154
636.47518,0.00121
634.54647,0.00116
632.61776,0.00158
630.68905,0.00203
628.76033,0.00157
626.83162,0.00075
624.90291,0.00092
622.97420,0.00169
621.04548,0.00180
619.11677,0.00113
617.18806,0.00057
615.25934,0.00088
613.33063,0.00186
611.40192,0.00234
609.47321,0.00249
607.54449,0.00111
605.61578,-0.00012
603.68707,0.00015
601.75836,0.00209
599.82964,0.00649
