7496.90619,0.92674
7494.97747,0.93165
7493.04876,0.92519
7491.12005,0.91535
7489.19134,0.91598
7487.26262,0.92447
7485.33391,0.93694
7483.40520,0.94568
7481.47648,0.94016
7479.54777,0.93016
7477.61906,0.93016
7475.69035,0.94028
7473.76163,0.95141
7471.83292,0.95471
7469.90421,0.94988
7467.97550,0.93818
7466.04678,0.92441
7464.11807,0.91782
7462.18936,0.91871
7460.26065,0.92123
7458.33193,0.92101
7456.40322,0.91653
7454.47451,0.91146
7452.54579,0.91109
7450.61708,0.91740
7448.68837,0.92624
7446.75966,0.93055
7444.83094,0.92926
7442.90223,0.92580
7440.97352,0.92099
7439.04481,0.91417
7437.11609,0.90930
7435.18738,0.91240
7433.25867,0.92049
7431.32996,0.92398
7429.40124,0.92078
7427.47253,0.91895
7425.54382,0.92592
7423.61510,0.93769
7421.68639,0.94147
7419.75768,0.93240
7417.82897,0.92012
7415.90025,0.91331
7413.97154,0.91242
7412.04283,0.91725
7410.11412,0.92463
7408.18540,0.92639
7406.25669,0.91893
7404.32798,0.91204
7402.39927,0.91528
7400.47055,0.92278
7398.54184,0.92457
7396.61313,0.91653
7394.68441,0.90761
7392.75570,0.91053
7390.82699,0.91902
7388.89828,0.92251
7386.96956,0.92291
7385.04085,0.92060
7383.11214,0.91365
7381.18343,0.90643
7379.25471,0.90459
7377.32600,0.90797
7375.39729,0.91412
7373.46857,0.92035
7371.53986,0.92339
7369.61115,0.92219
7367.68244,0.91916
7365.75372,0.91811
7363.82501,0.91974
7361.89630,0.92081
7359.96759,0.91878
7358.03887,0.91460
7356.11016,0.91043
7354.18145,0.90842
7352.25274,0.90795
7350.32402,0.90368
7348.39531,0.89417
7346.46660,0.88698
7344.53788,0.88440
7342.60917,0.88277
7340.68046,0.88806
7338.75175,0.90102
7336.82303,0.90616
7334.89432,0.90154
7332.96561,0.89899
7331.03690,0.90071
7329.10818,0.90001
7327.17947,0.89874
7325.25076,0.90456
7323.32205,0.91375
7321.39333,0.91575
7319.46462,0.91084
7317.53591,0.90688
7315.60719,0.90640
7313.67848,0.90742
7311.74977,0.90586
7309.82106,0.90053
7307.89234,0.89609
7305.96363,0.89532
7304.03492,0.89716
7302.10621,0.90068
7300.17749,0.90606
7298.24878,0.91134
7296.32007,0.91272
7294.39136,0.91104
7292.46264,0.90988
7290.53393,0.90826
7288.60522,0.90540
7286.67650,0.90635
7284.74779,0.91056
7282.81908,0.90844
7280.89037,0.90110
7278.96165,0.90058
7277.03294,0.90568
7275.10423,0.90648
7273.17552,0.90696
7271.24680,0.91340
7269.31809,0.91838
7267.38938,0.91581
7265.46066,0.90839
7263.53195,0.90192
7261.60324,0.90343
7259.67453,0.90934
7257.74581,0.90804
7255.81710,0.90141
7253.88839,0.89913
7251.95968,0.90096
7250.03096,0.90002
7248.10225,0.89752
7246.17354,0.89671
7244.24483,0.89417
7242.31611,0.89474
7240.38740,0.90187
7238.45869,0.90277
7236.52997,0.89368
7234.60126,0.87982
7232.67255,0.87295
7230.74384,0.88348
7228.81512,0.89454
7226.88641,0.89445
7224.95770,0.89235
7223.02899,0.89178
7221.10027,0.89120
7219.17156,0.89533
7217.24285,0.90167
7215.31414,0.90157
7213.38542,0.89789
7211.45671,0.89669
7209.52800,0.89653
7207.59928,0.89336
7205.67057,0.88644
7203.74186,0.88413
7201.81315,0.89108
7199.88443,0.89684
7197.95572,0.89744
7196.02701,0.89952
7194.09830,0.90208
7192.16958,0.90307
7190.24087,0.90706
7188.31216,0.91111
7186.38344,0.90814
7184.45473,0.89644
7182.52602,0.88459
7180.59731,0.88967
7178.66859,0.90571
7176.73988,0.91362
7174.81117,0.91507
7172.88246,0.91505
7170.95374,0.91095
7169.02503,0.90703
7167.09632,0.90716
7165.16761,0.90489
7163.23889,0.89711
7161.31018,0.88894
7159.38147,0.88998
7157.45275,0.90116
7155.52404,0.90900
7153.59533,0.90825
7151.66662,0.90590
7149.73790,0.90259
7147.80919,0.89777
7145.88048,0.89699
7143.95177,0.90082
7142.02305,0.90483
7140.09434,0.90810
7138.16563,0.90745
7136.23692,0.90211
7134.30820,0.89938
7132.37949,0.90038
7130.45078,0.89955
7128.52206,0.89757
7126.59335,0.89847
7124.66464,0.89879
7122.73593,0.89536
7120.80721,0.89290
7118.87850,0.89331
7116.94979,0.89493
7115.02108,0.89779
7113.09236,0.90184
7111.16365,0.90486
7109.23494,0.90354
7107.30623,0.89810
7105.37751,0.89384
7103.44880,0.89646
7101.52009,0.90262
7099.59137,0.90577
7097.66266,0.90606
7095.73395,0.90464
7093.80524,0.90283
7091.87652,0.90315
7089.94781,0.90507
7088.01910,0.90669
7086.09039,0.90797
7084.16167,0.91117
7082.23296,0.91488
7080.30425,0.91557
7078.37553,0.91411
7076.44682,0.91035
7074.51811,0.90262
7072.58940,0.89589
7070.66068,0.89623
7068.73197,0.89973
7066.80326,0.90056
7064.87455,0.89989
7062.94583,0.89975
7061.01712,0.90135
7059.08841,0.90549
7057.15970,0.90777
7055.23098,0.90515
7053.30227,0.90288
7051.37356,0.90454
7049.44484,0.90601
7047.51613,0.90405
7045.58742,0.90255
7043.65871,0.90420
7041.72999,0.90731
7039.80128,0.91170
7037.87257,0.91414
7035.94386,0.91055
7034.01514,0.90320
7032.08643,0.89783
7030.15772,0.89731
7028.22901,0.89822
7026.30029,0.89834
7024.37158,0.89936
7022.44287,0.90215
7020.51415,0.90581
7018.58544,0.90702
7016.65673,0.90560
7014.72802,0.90626
7012.79930,0.91056
7010.87059,0.91468
7008.94188,0.91414
7007.01317,0.90956
7005.08445,0.90527
7003.15574,0.90337
7001.22703,0.90270
6999.29832,0.90173
6997.36960,0.90101
6995.44089,0.90257
6993.51218,0.90657
6991.58346,0.91037
6989.65475,0.91091
6987.72604,0.90801
6985.79733,0.90492
6983.86861,0.90306
6981.93990,0.90236
6980.01119,0.90486
6978.08248,0.91090
6976.15376,0.91763
6974.22505,0.91962
6972.29634,0.91569
6970.36762,0.91326
6968.43891,0.91431
6966.51020,0.91288
6964.58149,0.90722
6962.65277,0.90159
6960.72406,0.90154
6958.79535,0.90715
6956.86664,0.91209
6954.93792,0.91304
6953.00921,0.91369
6951.08050,0.91535
6949.15179,0.91424
6947.22307,0.91084
6945.29436,0.90840
6943.36565,0.90725
6941.43693,0.90883
6939.50822,0.91322
6937.57951,0.91495
6935.65080,0.91143
6933.72208,0.90956
6931.79337,0.91550
6929.86466,0.92229
6927.93595,0.92094
6926.00723,0.91587
6924.07852,0.91254
6922.14981,0.90950
6920.22110,0.90550
6918.29238,0.90209
6916.36367,0.90171
6914.43496,0.90295
6912.50624,0.90353
6910.57753,0.90508
6908.64882,0.90848
6906.72011,0.91100
6904.79139,0.90865
6902.86268,0.90364
6900.93397,0.90244
6899.00526,0.90530
6897.07654,0.90760
6895.14783,0.90803
6893.21912,0.90822
6891.29040,0.90933
6889.36169,0.91371
6887.43298,0.91992
6885.50427,0.92098
6883.57555,0.91758
6881.64684,0.91527
6879.71813,0.91221
6877.78942,0.90650
6875.86070,0.90185
6873.93199,0.89996
6872.00328,0.90051
6870.07457,0.90402
6868.14585,0.90961
6866.21714,0.91470
6864.28843,0.91694
6862.35971,0.91728
6860.43100,0.91784
6858.50229,0.91766
6856.57358,0.91456
6854.64486,0.91008
6852.71615,0.90852
6850.78744,0.91018
6848.85873,0.91275
6846.93001,0.91427
6845.00130,0.91305
6843.07259,0.91059
6841.14388,0.91018
6839.21516,0.91348
6837.28645,0.91769
6835.35774,0.91746
6833.42902,0.91324
6831.50031,0.91063
6829.57160,0.91122
6827.64289,0.91330
6825.71417,0.91701
6823.78546,0.92065
6821.85675,0.92201
6819.92804,0.92036
6817.99932,0.91647
6816.07061,0.91666
6814.14190,0.92151
6812.21319,0.92144
6810.28447,0.91607
6808.35576,0.91479
6806.42705,0.91704
6804.49833,0.91656
6802.56962,0.91526
6800.64091,0.91392
6798.71220,0.91033
6796.78348,0.90854
6794.85477,0.91300
6792.92606,0.92056
6790.99735,0.92294
6789.06863,0.91879
6787.13992,0.91434
6785.21121,0.91228
6783.28249,0.91251
6781.35378,0.91512
6779.42507,0.91909
6777.49636,0.92285
6775.56764,0.92422
6773.63893,0.92308
6771.71022,0.92199
6769.78151,0.92067
6767.85279,0.91913
6765.92408,0.92157
6763.99537,0.92803
6762.06666,0.93230
6760.13794,0.93078
6758.20923,0.92652
6756.28052,0.92433
6754.35180,0.92435
6752.42309,0.92162
6750.49438,0.91547
6748.56567,0.91325
6746.63695,0.91665
6744.70824,0.91855
6742.77953,0.91560
6740.85082,0.91106
6738.92210,0.90933
6736.99339,0.91145
6735.06468,0.91519
6733.13597,0.91931
6731.20725,0.92345
6729.27854,0.92407
6727.34983,0.92065
6725.42111,0.92020
6723.49240,0.92427
6721.56369,0.92752
6719.63498,0.92729
6717.70626,0.92390
6715.77755,0.92091
6713.84884,0.92036
6711.92013,0.91827
6709.99141,0.91448
6708.06270,0.91459
6706.13399,0.91747
6704.20528,0.91786
6702.27656,0.91594
6700.34785,0.91496
6698.41914,0.91714
6696.49042,0.92161
6694.56171,0.92617
6692.63300,0.92798
6690.70429,0.92586
6688.77557,0.92377
6686.84686,0.92364
6684.91815,0.92393
6682.98944,0.92222
6681.06072,0.91887
6679.13201,0.91976
6677.20330,0.92339
6675.27458,0.92213
6673.34587,0.91692
6671.41716,0.91337
6669.48845,0.91293
6667.55973,0.91392
6665.63102,0.91578
6663.70231,0.91714
6661.77360,0.91708
6659.84488,0.91807
6657.91617,0.91932
6655.98746,0.91818
6654.05875,0.91796
6652.13003,0.92165
6650.20132,0.92531
6648.27261,0.92535
6646.34389,0.92441
6644.41518,0.92653
6642.48647,0.93003
6640.55776,0.92897
6638.62904,0.92360
6636.70033,0.92153
6634.77162,0.92519
6632.84291,0.92638
6630.91419,0.91982
6628.98548,0.91242
6627.05677,0.91192
6625.12806,0.91712
6623.19934,0.92080
6621.27063,0.92035
6619.34192,0.91955
6617.41320,0.91922
6615.48449,0.91797
6613.55578,0.91801
6611.62707,0.92211
6609.69835,0.92634
6607.76964,0.92495
6605.84093,0.92092
6603.91222,0.91835
6601.98350,0.91642
6600.05479,0.91530
6598.12608,0.91596
6596.19736,0.91843
6594.26865,0.92168
6592.33994,0.92382
6590.41123,0.92384
6588.48251,0.92202
6586.55380,0.92125
6584.62509,0.92347
6582.69638,0.92403
6580.76766,0.91925
6578.83895,0.91463
6576.91024,0.91535
6574.98153,0.91731
6573.05281,0.91733
6571.12410,0.91999
6569.19539,0.92636
6567.26667,0.92920
6565.33796,0.92534
6563.40925,0.92211
6561.48054,0.92335
6559.55182,0.92298
6557.62311,0.91965
6555.69440,0.91867
6553.76569,0.91924
6551.83697,0.91761
6549.90826,0.91667
6547.97955,0.92051
6546.05084,0.92618
6544.12212,0.92890
6542.19341,0.92801
6540.26470,0.92554
6538.33598,0.92391
6536.40727,0.92232
6534.47856,0.92040
6532.54985,0.92189
6530.62113,0.92614
6528.69242,0.92849
6526.76371,0.92766
6524.83500,0.92539
6522.90628,0.92476
6520.97757,0.92711
6519.04886,0.93070
6517.12015,0.93213
6515.19143,0.92927
6513.26272,0.92581
6511.33401,0.92467
6509.40529,0.92244
6507.47658,0.91970
6505.54787,0.92096
6503.61916,0.92490
6501.69044,0.92805
6499.76173,0.92978
6497.83302,0.93027
6495.90431,0.92972
6493.97559,0.92837
6492.04688,0.92647
6490.11817,0.92374
6488.18945,0.92119
6486.26074,0.92205
6484.33203,0.92496
6482.40332,0.92466
6480.47460,0.92105
6478.54589,0.91649
6476.61718,0.91193
6474.68847,0.91152
6472.75975,0.91753
6470.83104,0.92365
6468.90233,0.92446
6466.97362,0.92241
6465.04490,0.92092
6463.11619,0.91970
6461.18748,0.91905
6459.25876,0.91990
6457.33005,0.92057
6455.40134,0.92140
6453.47263,0.92310
6451.54391,0.92178
6449.61520,0.91859
6447.68649,0.91863
6445.75778,0.91929
6443.82906,0.91857
6441.90035,0.92010
6439.97164,0.92272
6438.04293,0.92322
6436.11421,0.92302
6434.18550,0.92355
6432.25679,0.92418
6430.32807,0.92500
6428.39936,0.92600
6426.47065,0.92653
6424.54194,0.92634
6422.61322,0.92415
6420.68451,0.91997
6418.75580,0.91846
6416.82709,0.92272
6414.89837,0.92754
6412.96966,0.92740
6411.04095,0.92601
6409.11224,0.92723
6407.18352,0.92777
6405.25481,0.92518
6403.32610,0.92199
6401.39738,0.92139
6399.46867,0.92345
6397.53996,0.92624
6395.61125,0.92814
6393.68253,0.92822
6391.75382,0.92629
6389.82511,0.92373
6387.89640,0.92349
6385.96768,0.92609
6384.03897,0.92841
6382.11026,0.92840
6380.18154,0.92701
6378.25283,0.92716
6376.32412,0.93117
6374.39541,0.93566
6372.46669,0.93498
6370.53798,0.93040
6368.60927,0.92733
6366.68056,0.92701
6364.75184,0.92641
6362.82313,0.92475
6360.89442,0.92497
6358.96571,0.92732
6357.03699,0.92900
6355.10828,0.92834
6353.17957,0.92661
6351.25085,0.92613
6349.32214,0.92620
6347.39343,0.92638
6345.46472,0.92766
6343.53600,0.92926
6341.60729,0.93006
6339.67858,0.92877
6337.74987,0.92422
6335.82115,0.91921
6333.89244,0.91868
6331.96373,0.92105
6330.03502,0.92194
6328.10630,0.92300
6326.17759,0.92459
6324.24888,0.92430
6322.32016,0.92276
6320.39145,0.92080
6318.46274,0.91997
6316.53403,0.92161
6314.60531,0.92415
6312.67660,0.92619
6310.74789,0.92672
6308.81918,0.92567
6306.89046,0.92510
6304.96175,0.92573
6303.03304,0.92618
6301.10432,0.92622
6299.17561,0.92664
6297.24690,0.92676
6295.31819,0.92554
6293.38947,0.92408
6291.46076,0.92374
6289.53205,0.92467
6287.60334,0.92575
6285.67462,0.92545
6283.74591,0.92501
6281.81720,0.92581
6279.88849,0.92675
6277.95977,0.92748
6276.03106,0.92749
6274.10235,0.92633
6272.17363,0.92409
6270.24492,0.92004
6268.31621,0.91631
6266.38750,0.91592
6264.45878,0.91846
6262.53007,0.92235
6260.60136,0.92490
6258.67265,0.92385
6256.74393,0.92215
6254.81522,0.92255
6252.88651,0.92297
6250.95780,0.92240
6249.02908,0.92246
6247.10037,0.92376
6245.17166,0.92393
6243.24294,0.92131
6241.31423,0.91929
6239.38552,0.91966
6237.45681,0.92062
6235.52809,0.92320
6233.59938,0.92607
6231.67067,0.92439
6229.74196,0.92002
6227.81324,0.91815
6225.88453,0.91912
6223.95582,0.92134
6222.02711,0.92305
6220.09839,0.92342
6218.16968,0.92396
6216.24097,0.92451
6214.31225,0.92436
6212.38354,0.92434
6210.45483,0.92388
6208.52612,0.92312
6206.59740,0.92318
6204.66869,0.92230
6202.73998,0.91920
6200.81127,0.91701
6198.88255,0.91776
6196.95384,0.91978
6195.02513,0.92193
6193.09641,0.92366
6191.16770,0.92422
6189.23899,0.92397
6187.31028,0.92367
6185.38156,0.92345
6183.45285,0.92170
6181.52414,0.91875
6179.59543,0.91807
6177.66671,0.91859
6175.73800,0.91806
6173.80929,0.91891
6171.88058,0.91998
6169.95186,0.91818
6168.02315,0.91697
6166.09444,0.91938
6164.16572,0.92216
6162.23701,0.92201
6160.30830,0.91960
6158.37959,0.91816
6156.45087,0.91962
6154.52216,0.92149
6152.59345,0.92158
6150.66474,0.92135
6148.73602,0.92119
6146.80731,0.91997
6144.87860,0.91823
6142.94989,0.91749
6141.02117,0.91844
6139.09246,0.91989
6137.16375,0.91977
6135.23503,0.91871
6133.30632,0.91922
6131.37761,0.92140
6129.44890,0.92278
6127.52018,0.92176
6125.59147,0.92004
6123.66276,0.91951
6121.73405,0.91980
6119.80533,0.91984
6117.87662,0.91986
6115.94791,0.92156
6114.01919,0.92299
6112.09048,0.92040
6110.16177,0.91581
6108.23306,0.91354
6106.30434,0.91405
6104.37563,0.91428
6102.44692,0.91278
6100.51821,0.91205
6098.58949,0.91338
6096.66078,0.91530
6094.73207,0.91582
6092.80336,0.91354
6090.87464,0.91010
6088.94593,0.90869
6087.01722,0.90899
6085.08850,0.90915
6083.15979,0.90966
6081.23108,0.91018
6079.30237,0.90900
6077.37365,0.90702
6075.44494,0.90558
6073.51623,0.90412
6071.58752,0.90365
6069.65880,0.90490
6067.73009,0.90431
6065.80138,0.90026
6063.87267,0.89737
6061.94395,0.89752
6060.01524,0.89631
6058.08653,0.89314
6056.15781,0.89154
6054.22910,0.89053
6052.30039,0.88894
6050.37168,0.88925
6048.44296,0.89105
6046.51425,0.89082
6044.58554,0.88785
6042.65683,0.88518
6040.72811,0.88422
6038.79940,0.88340
6036.87069,0.88222
6034.94198,0.88103
6033.01326,0.87983
6031.08455,0.87957
6029.15584,0.88018
6027.22712,0.88025
6025.29841,0.87934
6023.36970,0.87761
6021.44099,0.87575
6019.51227,0.87412
6017.58356,0.87249
6015.65485,0.87125
6013.72614,0.87151
6011.79742,0.87398
6009.86871,0.87732
6007.94000,0.87889
6006.01128,0.87783
6004.08257,0.87543
6002.15386,0.87392
6000.22515,0.87545
5998.29643,0.87950
5996.36772,0.88358
5994.43901,0.88716
5992.51030,0.88970
5990.58158,0.88972
5988.65287,0.88824
5986.72416,0.88701
5984.79545,0.88709
5982.86673,0.88964
5980.93802,0.89388
5979.00931,0.89621
5977.08059,0.89516
5975.15188,0.89393
5973.22317,0.89486
5971.29446,0.89606
5969.36574,0.89599
5967.43703,0.89617
5965.50832,0.89571
5963.57961,0.89210
5961.65089,0.88888
5959.72218,0.88985
5957.79347,0.89207
5955.86476,0.89217
5953.93604,0.89113
5952.00733,0.89028
5950.07862,0.88941
5948.14990,0.88878
5946.22119,0.88808
5944.29248,0.88681
5942.36377,0.88533
5940.43505,0.88282
5938.50634,0.87939
5936.57763,0.87747
5934.64892,0.87697
5932.72020,0.87568
5930.79149,0.87363
5928.86278,0.87080
5926.93407,0.86664
5925.00535,0.86380
5923.07664,0.86363
5921.14793,0.86241
5919.21921,0.85877
5917.29050,0.85616
5915.36179,0.85532
5913.43308,0.85434
5911.50436,0.85355
5909.57565,0.85311
5907.64694,0.85157
5905.71823,0.84851
5903.78951,0.84490
5901.86080,0.84206
5899.93209,0.84013
5898.00337,0.83756
5896.07466,0.83383
5894.14595,0.83052
5892.21724,0.82793
5890.28852,0.82540
5888.35981,0.82325
5886.43110,0.82081
5884.50239,0.81720
5882.57367,0.81296
5880.64496,0.80911
5878.71625,0.80680
5876.78754,0.80593
5874.85882,0.80472
5872.93011,0.80203
5871.00140,0.79802
5869.07268,0.79337
5867.14397,0.78901
5865.21526,0.78573
5863.28655,0.78397
5861.35783,0.78282
5859.42912,0.78039
5857.50041,0.77611
5855.57170,0.77095
5853.64298,0.76605
5851.71427,0.76203
5849.78556,0.75851
5847.85685,0.75431
5845.92813,0.75005
5843.99942,0.74702
5842.07071,0.74344
5840.14199,0.73817
5838.21328,0.73356
5836.28457,0.73065
5834.35586,0.72770
5832.42714,0.72380
5830.49843,0.72025
5828.56972,0.71906
5826.64101,0.71980
5824.71229,0.71975
5822.78358,0.71889
5820.85487,0.71971
5818.92615,0.72293
5816.99744,0.72752
5815.06873,0.73203
5813.14002,0.73572
5811.21130,0.73924
5809.28259,0.74368
5807.35388,0.74933
5805.42517,0.75436
5803.49645,0.75756
5801.56774,0.76089
5799.63903,0.76537
5797.71032,0.76976
5795.78160,0.77382
5793.85289,0.77771
5791.92418,0.78125
5789.99546,0.78538
5788.06675,0.79021
5786.13804,0.79435
5784.20933,0.79761
5782.28061,0.80065
5780.35190,0.80361
5778.42319,0.80620
5776.49448,0.80748
5774.56576,0.80765
5772.63705,0.80932
5770.70834,0.81302
5768.77963,0.81552
5766.85091,0.81458
5764.92220,0.81207
5762.99349,0.81171
5761.06477,0.81380
5759.13606,0.81588
5757.20735,0.81651
5755.27864,0.81544
5753.34992,0.81345
5751.42121,0.81156
5749.49250,0.81040
5747.56379,0.81010
5745.63507,0.81024
5743.70636,0.81078
5741.77765,0.81108
5739.84894,0.81016
5737.92022,0.80879
5735.99151,0.80789
5734.06280,0.80759
5732.13408,0.80793
5730.20537,0.80842
5728.27666,0.80905
5726.34795,0.80951
5724.41923,0.80915
5722.49052,0.80934
5720.56181,0.81057
5718.63310,0.81086
5716.70438,0.80980
5714.77567,0.80931
5712.84696,0.81037
5710.91824,0.81183
5708.98953,0.81234
5707.06082,0.81159
5705.13211,0.81021
5703.20339,0.80918
5701.27468,0.80931
5699.34597,0.81020
5697.41726,0.81072
5695.48854,0.81154
5693.55983,0.81323
5691.63112,0.81435
5689.70241,0.81498
5687.77369,0.81636
5685.84498,0.81815
5683.91627,0.81997
5681.98755,0.82218
5680.05884,0.82401
5678.13013,0.82454
5676.20142,0.82450
5674.27270,0.82549
5672.34399,0.82835
5670.41528,0.83160
5668.48657,0.83341
5666.55785,0.83386
5664.62914,0.83379
5662.70043,0.83404
5660.77172,0.83464
5658.84300,0.83514
5656.91429,0.83586
5654.98558,0.83692
5653.05686,0.83732
5651.12815,0.83711
5649.19944,0.83795
5647.27073,0.83944
5645.34201,0.84010
5643.41330,0.84115
5641.48459,0.84354
5639.55588,0.84561
5637.62716,0.84617
5635.69845,0.84567
5633.76974,0.84521
5631.84103,0.84586
5629.91231,0.84792
5627.98360,0.85025
5626.05489,0.85127
5624.12617,0.85114
5622.19746,0.85150
5620.26875,0.85253
5618.34004,0.85294
5616.41132,0.85249
5614.48261,0.85229
5612.55390,0.85308
5610.62519,0.85419
5608.69647,0.85493
5606.76776,0.85545
5604.83905,0.85582
5602.91033,0.85619
5600.98162,0.85655
5599.05291,0.85657
5597.12420,0.85669
5595.19548,0.85751
5593.26677,0.85830
5591.33806,0.85801
5589.40935,0.85797
5587.48063,0.86000
5585.55192,0.86293
5583.62321,0.86445
5581.69450,0.86432
5579.76578,0.86452
5577.83707,0.86551
5575.90836,0.86538
5573.97964,0.86426
5572.05093,0.86321
5570.12222,0.86230
5568.19351,0.86281
5566.26479,0.86512
5564.33608,0.86751
5562.40737,0.86911
5560.47866,0.86956
5558.54994,0.86859
5556.62123,0.86706
5554.69252,0.86616
5552.76381,0.86655
5550.83509,0.86726
5548.90638,0.86674
5546.97767,0.86639
5545.04895,0.86764
5543.12024,0.86938
5541.19153,0.87057
5539.26282,0.87016
5537.33410,0.86789
5535.40539,0.86609
5533.47668,0.86623
5531.54797,0.86737
5529.61925,0.86868
5527.69054,0.87014
5525.76183,0.87089
5523.83311,0.86927
5521.90440,0.86693
5519.97569,0.86695
5518.04698,0.86758
5516.11826,0.86716
5514.18955,0.86804
5512.26084,0.86998
5510.33213,0.86942
5508.40341,0.86691
5506.47470,0.86657
5504.54599,0.86802
5502.61728,0.86820
5500.68856,0.86726
5498.75985,0.86705
5496.83114,0.86605
5494.90242,0.86076
5492.97371,0.85532
5491.04500,0.85657
5489.11629,0.86117
5487.18757,0.86510
5485.25886,0.86901
5483.33015,0.87139
5481.40144,0.87065
5479.47272,0.86754
5477.54401,0.86206
5475.61530,0.85815
5473.68659,0.86184
5471.75787,0.86666
5469.82916,0.86541
5467.90045,0.86154
5465.97173,0.86011
5464.04302,0.85991
5462.11431,0.85818
5460.18560,0.85780
5458.25688,0.86068
5456.32817,0.86404
5454.39946,0.86670
5452.47075,0.86669
5450.54203,0.86294
5448.61332,0.85847
5446.68461,0.85567
5444.75590,0.85461
5442.82718,0.85453
5440.89847,0.85732
5438.96976,0.86265
5437.04104,0.86387
5435.11233,0.86222
5433.18362,0.86337
5431.25491,0.86234
5429.32619,0.85900
5427.39748,0.86315
5425.46877,0.87223
5423.54006,0.87804
5421.61134,0.88050
5419.68263,0.88095
5417.75392,0.87704
5415.82520,0.86734
5413.89649,0.85627
5411.96778,0.85079
5410.03907,0.85462
5408.11035,0.86493
5406.18164,0.87255
5404.25293,0.87498
5402.32422,0.87753
5400.39550,0.87974
5398.46679,0.87736
5396.53808,0.87123
5394.60937,0.86624
5392.68065,0.86734
5390.75194,0.87265
5388.82323,0.87407
5386.89451,0.86985
5384.96580,0.86903
5383.03709,0.87519
5381.10838,0.87926
5379.17966,0.87530
5377.25095,0.86748
5375.32224,0.86645
5373.39353,0.87479
5371.46481,0.88321
5369.53610,0.88546
5367.60739,0.88323
5365.67868,0.87966
5363.74996,0.87757
5361.82125,0.87981
5359.89254,0.88408
5357.96382,0.88399
5356.03511,0.87548
5354.10640,0.86482
5352.17769,0.86418
5350.24897,0.86947
5348.32026,0.86978
5346.39155,0.86433
5344.46284,0.86161
5342.53412,0.86671
5340.60541,0.86798
5338.67670,0.86175
5336.74799,0.86262
5334.81927,0.87132
5332.89056,0.87679
5330.96185,0.87821
5329.03313,0.87676
5327.10442,0.87597
5325.17571,0.88155
5323.24700,0.88880
5321.31828,0.89141
5319.38957,0.89028
5317.46086,0.88825
5315.53215,0.88741
5313.60343,0.88837
5311.67472,0.88857
5309.74601,0.88514
5307.81729,0.88133
5305.88858,0.88353
5303.95987,0.88861
5302.03116,0.88976
5300.10244,0.88853
5298.17373,0.88928
5296.24502,0.89093
5294.31631,0.89042
5292.38759,0.88678
5290.45888,0.88354
5288.53017,0.88461
5286.60146,0.88639
5284.67274,0.88667
5282.74403,0.88702
5280.81532,0.88728
5278.88660,0.88863
5276.95789,0.89097
5275.02918,0.89198
5273.10047,0.89090
5271.17175,0.88779
5269.24304,0.88416
5267.31433,0.88075
5265.38562,0.87558
5263.45690,0.87143
5261.52819,0.87460
5259.59948,0.88151
5257.67077,0.88305
5255.74205,0.87921
5253.81334,0.87870
5251.88463,0.88056
5249.95591,0.87628
5248.02720,0.86910
5246.09849,0.86752
5244.16978,0.87275
5242.24106,0.88162
5240.31235,0.88814
5238.38364,0.89018
5236.45493,0.88984
5234.52621,0.88673
5232.59750,0.88223
5230.66879,0.88138
5228.74007,0.88181
5226.81136,0.87808
5224.88265,0.87652
5222.95394,0.88217
5221.02522,0.88634
5219.09651,0.88585
5217.16780,0.88680
5215.23909,0.89096
5213.31037,0.89367
5211.38166,0.89071
5209.45295,0.88174
5207.52424,0.87312
5205.59552,0.87501
5203.66681,0.88560
5201.73810,0.89321
5199.80938,0.89233
5197.88067,0.88780
5195.95196,0.88762
5194.02325,0.89091
5192.09453,0.89193
5190.16582,0.89042
5188.23711,0.88894
5186.30840,0.88792
5184.37968,0.88795
5182.45097,0.88903
5180.52226,0.88960
5178.59355,0.88982
5176.66483,0.89066
5174.73612,0.89118
5172.80741,0.88973
5170.87869,0.88807
5168.94998,0.88942
5167.02127,0.89147
5165.09256,0.89094
5163.16384,0.89007
5161.23513,0.89060
5159.30642,0.89021
5157.37771,0.88855
5155.44899,0.88825
5153.52028,0.88925
5151.59157,0.89000
5149.66286,0.89130
5147.73414,0.89328
5145.80543,0.89436
5143.87672,0.89386
5141.94800,0.89252
5140.01929,0.89178
5138.09058,0.89203
5136.16187,0.89237
5134.23315,0.89234
5132.30444,0.89237
5130.37573,0.89314
5128.44702,0.89452
5126.51830,0.89549
5124.58959,0.89540
5122.66088,0.89459
5120.73216,0.89396
5118.80345,0.89376
5116.87474,0.89383
5114.94603,0.89399
5113.01731,0.89370
5111.08860,0.89307
5109.15989,0.89283
5107.23118,0.89320
5105.30246,0.89404
5103.37375,0.89488
5101.44504,0.89503
5099.51633,0.89437
5097.58761,0.89356
5095.65890,0.89318
5093.73019,0.89327
5091.80147,0.89364
5089.87276,0.89406
5087.94405,0.89439
5086.01534,0.89485
5084.08662,0.89572
5082.15791,0.89633
5080.22920,0.89637
5078.30049,0.89644
5076.37177,0.89616
5074.44306,0.89523
5072.51435,0.89478
5070.58564,0.89539
5068.65692,0.89653
5066.72821,0.89721
5064.79950,0.89709
5062.87078,0.89712
5060.94207,0.89722
5059.01336,0.89696
5057.08465,0.89721
5055.15593,0.89778
5053.22722,0.89754
5051.29851,0.89681
5049.36980,0.89669
5047.44108,0.89694
5045.51237,0.89697
5043.58366,0.89746
5041.65495,0.89860
5039.72623,0.89956
5037.79752,0.90011
5035.86881,0.90002
5033.94009,0.89921
5032.01138,0.89881
5030.08267,0.89924
5028.15396,0.89961
5026.22524,0.89965
5024.29653,0.89966
5022.36782,0.89990
5020.43911,0.90032
5018.51039,0.90034
5016.58168,0.89958
5014.65297,0.89858
5012.72425,0.89833
5010.79554,0.89894
5008.86683,0.89962
5006.93812,0.89992
5005.00940,0.89959
5003.08069,0.89876
5001.15198,0.89846
4999.22327,0.89895
4997.29455,0.89929
4995.36584,0.89945
4993.43713,0.89996
4991.50842,0.90033
4989.57970,0.90002
4987.65099,0.89957
4985.72228,0.89948
4983.79356,0.89948
4981.86485,0.89943
4979.93614,0.89960
4978.00743,0.90004
4976.07871,0.90071
4974.15000,0.90137
4972.22129,0.90161
4970.29258,0.90140
4968.36386,0.90110
4966.43515,0.90098
4964.50644,0.90092
4962.57773,0.90110
4960.64901,0.90168
4958.72030,0.90197
4956.79159,0.90176
4954.86287,0.90146
4952.93416,0.90130
4951.00545,0.90146
4949.07674,0.90159
4947.14802,0.90105
4945.21931,0.90008
4943.29060,0.89961
4941.36189,0.89987
4939.43317,0.90047
4937.50446,0.90127
4935.57575,0.90207
4933.64703,0.90256
4931.71832,0.90277
4929.78961,0.90265
4927.86090,0.90190
4925.93218,0.90079
4924.00347,0.90002
4922.07476,0.89992
4920.14605,0.90008
4918.21733,0.89983
4916.28862,0.89971
4914.35991,0.90052
4912.43120,0.90113
4910.50248,0.90075
4908.57377,0.90026
4906.64506,0.90047
4904.71634,0.90146
4902.78763,0.90241
4900.85892,0.90264
4898.93021,0.90242
4897.00149,0.90186
4895.07278,0.90075
4893.14407,0.89980
4891.21536,0.89967
4889.28664,0.89972
4887.35793,0.89952
4885.42922,0.89948
4883.50051,0.89958
4881.57179,0.89977
4879.64308,0.90013
4877.71437,0.90073
4875.78565,0.90115
4873.85694,0.90123
4871.92823,0.90149
4869.99952,0.90146
4868.07080,0.90062
4866.14209,0.89976
4864.21338,0.89941
4862.28467,0.89953
4860.35595,0.89993
4858.42724,0.90020
4856.49853,0.90017
4854.56982,0.90000
4852.64110,0.90003
4850.71239,0.90027
4848.78368,0.90031
4846.85496,0.90014
4844.92625,0.89996
4842.99754,0.89991
4841.06883,0.90022
4839.14011,0.90065
4837.21140,0.90067
4835.28269,0.90037
4833.35398,0.90018
4831.42526,0.90020
4829.49655,0.90037
4827.56784,0.90059
4825.63912,0.90058
4823.71041,0.90041
4821.78170,0.90042
4819.85299,0.90060
4817.92427,0.90061
4815.99556,0.90019
4814.06685,0.89964
4812.13814,0.89972
4810.20942,0.90044
4808.28071,0.90077
4806.35200,0.90028
4804.42329,0.89970
4802.49457,0.89945
4800.56586,0.89892
4798.63715,0.89804
4796.70843,0.89741
4794.77972,0.89728
4792.85101,0.89732
4790.92230,0.89727
4788.99358,0.89732
4787.06487,0.89723
4785.13616,0.89688
4783.20745,0.89675
4781.27873,0.89666
4779.35002,0.89615
4777.42131,0.89578
4775.49260,0.89604
4773.56388,0.89646
4771.63517,0.89698
4769.70646,0.89790
4767.77774,0.89859
4765.84903,0.89900
4763.92032,0.89968
4761.99161,0.90001
4760.06289,0.89957
4758.13418,0.89915
4756.20547,0.89917
4754.27676,0.89932
4752.34804,0.89920
4750.41933,0.89878
4748.49062,0.89840
4746.56191,0.89815
4744.63319,0.89825
4742.70448,0.89870
4740.77577,0.89818
4738.84705,0.89680
4736.91834,0.89609
4734.98963,0.89554
4733.06092,0.89443
4731.13220,0.89355
4729.20349,0.89286
4727.27478,0.89146
4725.34607,0.88922
4723.41735,0.88707
4721.48864,0.88563
4719.55993,0.88446
4717.63121,0.88337
4715.70250,0.88249
4713.77379,0.88131
4711.84508,0.88004
4709.91636,0.87967
4707.98765,0.88004
4706.05894,0.87994
4704.13023,0.87868
4702.20151,0.87664
4700.27280,0.87433
4698.34409,0.87172
4696.41538,0.86895
4694.48666,0.86665
4692.55795,0.86486
4690.62924,0.86304
4688.70052,0.86109
4686.77181,0.85960
4684.84310,0.85894
4682.91439,0.85897
4680.98567,0.85964
4679.05696,0.86123
4677.12825,0.86352
4675.19954,0.86588
4673.27082,0.86815
4671.34211,0.87009
4669.41340,0.87126
4667.48469,0.87216
4665.55597,0.87320
4663.62726,0.87384
4661.69855,0.87399
4659.76983,0.87408
4657.84112,0.87409
4655.91241,0.87389
4653.98370,0.87400
4652.05498,0.87472
4650.12627,0.87517
4648.19756,0.87467
4646.26885,0.87355
4644.34013,0.87227
4642.41142,0.87065
4640.48271,0.86829
4638.55399,0.86534
4636.62528,0.86253
4634.69657,0.86073
4632.76786,0.86020
4630.83914,0.86043
4628.91043,0.86119
4626.98172,0.86288
4625.05301,0.86529
4623.12429,0.86784
4621.19558,0.87044
4619.26687,0.87305
4617.33816,0.87530
4615.40944,0.87711
4613.48073,0.87880
4611.55202,0.88041
4609.62330,0.88145
4607.69459,0.88176
4605.76588,0.88191
4603.83717,0.88240
4601.90845,0.88274
4599.97974,0.88231
4598.05103,0.88171
4596.12232,0.88167
4594.19360,0.88155
4592.26489,0.88074
4590.33618,0.87964
4588.40747,0.87879
4586.47875,0.87850
4584.55004,0.87878
4582.62133,0.87904
4580.69261,0.87872
4578.76390,0.87777
4576.83519,0.87669
4574.90648,0.87637
4572.97776,0.87704
4571.04905,0.87815
4569.12034,0.87938
4567.19163,0.88056
4565.26291,0.88171
4563.33420,0.88274
4561.40549,0.88340
4559.47678,0.88412
4557.54806,0.88499
4555.61935,0.88555
4553.69064,0.88580
4551.76192,0.88573
4549.83321,0.88522
4547.90450,0.88466
4545.97579,0.88456
4544.04707,0.88467
4542.11836,0.88451
4540.18965,0.88423
4538.26094,0.88409
4536.33222,0.88392
4534.40351,0.88356
4532.47480,0.88318
4530.54608,0.88247
4528.61737,0.88144
4526.68866,0.88086
4524.75995,0.88075
4522.83123,0.88048
4520.90252,0.87999
4518.97381,0.87933
4517.04510,0.87832
4515.11638,0.87714
4513.18767,0.87600
4511.25896,0.87500
4509.33025,0.87432
4507.40153,0.87391
4505.47282,0.87345
4503.54411,0.87247
4501.61539,0.87072
4499.68668,0.86837
4497.75797,0.86582
4495.82926,0.86352
4493.90054,0.86147
4491.97183,0.85940
4490.04312,0.85749
4488.11441,0.85583
4486.18569,0.85409
4484.25698,0.85222
4482.32827,0.85062
4480.39956,0.84935
4478.47084,0.84838
4476.54213,0.84750
4474.61342,0.84636
4472.68470,0.84491
4470.75599,0.84345
4468.82728,0.84247
4466.89857,0.84172
4464.96985,0.83997
4463.04114,0.83707
4461.11243,0.83393
4459.18372,0.83109
4457.25500,0.82847
4455.32629,0.82544
4453.39758,0.82153
4451.46886,0.81696
4449.54015,0.81206
4447.61144,0.80701
4445.68273,0.80197
4443.75401,0.79671
4441.82530,0.79096
4439.89659,0.78463
4437.96788,0.77773
4436.03916,0.77036
4434.11045,0.76265
4432.18174,0.75454
4430.25303,0.74613
4428.32431,0.73784
4426.39560,0.72951
4424.46689,0.72061
4422.53817,0.71132
4420.60946,0.70225
4418.68075,0.69354
4416.75204,0.68459
4414.82332,0.67536
4412.89461,0.66655
4410.96590,0.65799
4409.03719,0.64933
4407.10847,0.64134
4405.17976,0.63459
4403.25105,0.62873
4401.32234,0.62367
4399.39362,0.61970
4397.46491,0.61672
4395.53620,0.61461
4393.60748,0.61329
4391.67877,0.61184
4389.75006,0.60940
4387.82135,0.60604
4385.89263,0.60134
4383.96392,0.59442
4382.03521,0.58572
4380.10650,0.57659
4378.17778,0.56756
4376.24907,0.55834
4374.32036,0.54859
4372.39165,0.53797
4370.46293,0.52654
4368.53422,0.51505
4366.60551,0.50390
4364.67679,0.49265
4362.74808,0.48091
4360.81937,0.46909
4358.89066,0.45784
4356.96194,0.44724
4355.03323,0.43716
4353.10452,0.42764
4351.17581,0.41860
4349.24709,0.40966
4347.31838,0.40042
4345.38967,0.39085
4343.46095,0.38139
4341.53224,0.37239
4339.60353,0.36398
4337.67482,0.35653
4335.74610,0.35080
4333.81739,0.34796
4331.88868,0.34903
4329.95997,0.35401
4328.03125,0.36229
4326.10254,0.37289
4324.17383,0.38439
4322.24512,0.39621
4320.31640,0.40887
4318.38769,0.42215
4316.45898,0.43431
4314.53026,0.44417
4312.60155,0.45230
4310.67284,0.45926
4308.74413,0.46479
4306.81541,0.46899
4304.88670,0.47238
4302.95799,0.47510
4301.02928,0.47720
4299.10056,0.47886
4297.17185,0.47988
4295.24314,0.48011
4293.31443,0.47964
4291.38571,0.47843
4289.45700,0.47686
4287.52829,0.47529
4285.59957,0.47353
4283.67086,0.47168
4281.74215,0.47031
4279.81344,0.46950
4277.88472,0.46906
4275.95601,0.46921
4274.02730,0.47004
4272.09859,0.47116
4270.16987,0.47239
4268.24116,0.47415
4266.31245,0.47664
4264.38374,0.47947
4262.45502,0.48216
4260.52631,0.48416
4258.59760,0.48532
4256.66888,0.48588
4254.74017,0.48613
4252.81146,0.48645
4250.88275,0.48677
4248.95403,0.48672
4247.02532,0.48630
4245.09661,0.48563
4243.16790,0.48478
4241.23918,0.48386
4239.31047,0.48294
4237.38176,0.48198
4235.45304,0.48092
4233.52433,0.47942
4231.59562,0.47727
4229.66691,0.47488
4227.73819,0.47253
4225.80948,0.47007
4223.88077,0.46757
4221.95206,0.46543
4220.02334,0.46404
4218.09463,0.46319
4216.16592,0.46236
4214.23721,0.46184
4212.30849,0.46236
4210.37978,0.46402
4208.45107,0.46633
4206.52235,0.46890
4204.59364,0.47204
4202.66493,0.47616
4200.73622,0.48081
4198.80750,0.48527
4196.87879,0.48952
4194.95008,0.49382
4193.02137,0.49792
4191.09265,0.50111
4189.16394,0.50299
4187.23523,0.50359
4185.30652,0.50306
4183.37780,0.50143
4181.44909,0.49899
4179.52038,0.49626
4177.59166,0.49336
4175.66295,0.49044
4173.73424,0.48803
4171.80553,0.48676
4169.87681,0.48704
4167.94810,0.48886
4166.01939,0.49213
4164.09068,0.49675
4162.16196,0.50253
4160.23325,0.50909
4158.30454,0.51595
4156.37582,0.52230
4154.44711,0.52770
4152.51840,0.53251
4150.58969,0.53687
4148.66097,0.54074
4146.73226,0.54465
4144.80355,0.54888
4142.87484,0.55328
4140.94612,0.55786
4139.01741,0.56262
4137.08870,0.56737
4135.15999,0.57171
4133.23127,0.57557
4131.30256,0.57924
4129.37385,0.58246
4127.44513,0.58443
4125.51642,0.58498
4123.58771,0.58479
4121.65900,0.58453
4119.73028,0.58399
4117.80157,0.58241
4115.87286,0.57986
4113.94415,0.57731
4112.01543,0.57523
4110.08672,0.57339
4108.15801,0.57152
4106.22930,0.56949
4104.30058,0.56746
4102.37187,0.56518
4100.44316,0.56185
4098.51444,0.55715
4096.58573,0.55130
4094.65702,0.54433
4092.72831,0.53576
4090.79959,0.52515
4088.87088,0.51346
4086.94217,0.50299
4085.01346,0.49584
4083.08474,0.49291
4081.15603,0.49443
4079.22732,0.50034
4077.29861,0.50932
4075.36989,0.51906
4073.44118,0.52842
4071.51247,0.53742
4069.58375,0.54610
4067.65504,0.55448
4065.72633,0.56219
4063.79762,0.56931
4061.86890,0.57650
4059.94019,0.58382
4058.01148,0.59105
4056.08277,0.59800
4054.15405,0.60410
4052.22534,0.60868
4050.29663,0.61189
4048.36791,0.61408
4046.43920,0.61512
4044.51049,0.61622
4042.58178,0.61887
4040.65306,0.62189
4038.72435,0.62362
4036.79564,0.62438
4034.86693,0.62505
4032.93821,0.62583
4031.00950,0.62652
4029.08079,0.62681
4027.15208,0.62654
4025.22336,0.62604
4023.29465,0.62568
4021.36594,0.62526
4019.43722,0.62542
4017.50851,0.62731
4015.57980,0.62996
4013.65109,0.63202
4011.72237,0.63366
4009.79366,0.63534
4007.86495,0.63777
4005.93624,0.64135
4004.00752,0.64552
4002.07881,0.64978
4000.15010,0.65344
3998.22139,0.65571
3996.29267,0.65732
3994.36396,0.65964
3992.43525,0.66280
3990.50653,0.66654
3988.57782,0.67083
3986.64911,0.67468
3984.72040,0.67718
3982.79168,0.67903
3980.86297,0.68136
3978.93426,0.68374
3977.00555,0.68473
3975.07683,0.68483
3973.14812,0.68601
3971.21941,0.68844
3969.29070,0.69132
3967.36198,0.69446
3965.43327,0.69641
3963.50456,0.69573
3961.57584,0.69450
3959.64713,0.69471
3957.71842,0.69520
3955.78971,0.69549
3953.86099,0.69518
3951.93228,0.69259
3950.00357,0.68878
3948.07486,0.68822
3946.14614,0.68983
3944.21743,0.68892
3942.28872,0.68915
3940.36000,0.69407
3938.43129,0.69855
3936.50258,0.69867
3934.57387,0.69362
3932.64515,0.68614
3930.71644,0.68378
3928.78773,0.68720
3926.85902,0.68799
3924.93030,0.68490
3923.00159,0.68453
3921.07288,0.68557
3919.14417,0.68357
3917.21545,0.68373
3915.28674,0.69111
3913.35803,0.69963
3911.42931,0.70355
3909.50060,0.70177
3907.57189,0.69234
3905.64318,0.67553
3903.71446,0.66190
3901.78575,0.66174
3899.85704,0.67128
3897.92833,0.68488
3895.99961,0.69342
3894.07090,0.69078
3892.14219,0.68475
3890.21348,0.68892
3888.28476,0.69449
3886.35605,0.69091
3884.42734,0.68500
3882.49862,0.68331
3880.56991,0.68688
3878.64120,0.69617
3876.71249,0.69953
3874.78377,0.69219
3872.85506,0.68124
3870.92635,0.67436
3868.99764,0.67641
3867.06892,0.67988
3865.14021,0.67674
3863.21150,0.67830
3861.28278,0.68963
3859.35407,0.69538
3857.42536,0.68855
3855.49665,0.67134
3853.56793,0.65510
3851.63922,0.66655
3849.71051,0.68867
3847.78180,0.70204
3845.85308,0.70315
3843.92437,0.69368
3841.99566,0.67894
3840.06695,0.66473
3838.13823,0.66123
3836.20952,0.67272
3834.28081,0.68605
3832.35209,0.69581
3830.42338,0.70219
3828.49467,0.70309
3826.56596,0.70015
3824.63724,0.69548
3822.70853,0.68518
3820.77982,0.67601
3818.85111,0.68062
3816.92239,0.69015
3814.99368,0.70494
3813.06497,0.72079
3811.13626,0.72712
3809.20754,0.72140
3807.27883,0.70960
3805.35012,0.70190
3803.42140,0.69397
3801.49269,0.68742
3799.56398,0.69465
3797.63527,0.70755
3795.70655,0.72303
3793.77784,0.73848
3791.84913,0.74707
3789.92042,0.74905
3787.99170,0.74609
3786.06299,0.74080
3784.13428,0.73956
3782.20557,0.74033
3780.27685,0.73781
3778.34814,0.73991
3776.41943,0.74860
3774.49071,0.75245
3772.56200,0.74624
3770.63329,0.73465
3768.70458,0.72880
3766.77586,0.73008
3764.84715,0.73331
3762.91844,0.73443
3760.98973,0.72799
3759.06101,0.71853
3757.13230,0.71605
3755.20359,0.71296
3753.27487,0.69830
3751.34616,0.67788
3749.41745,0.67706
3747.48874,0.68764
3745.56002,0.69470
3743.63131,0.70369
3741.70260,0.71120
3739.77389,0.70998
3737.84517,0.69793
3735.91646,0.68127
3733.98775,0.68216
3732.05904,0.70215
3730.13032,0.71884
3728.20161,0.72316
3726.27290,0.71980
3724.34418,0.71940
3722.41547,0.72665
3720.48676,0.73825
3718.55805,0.74943
3716.62933,0.75450
3714.70062,0.74702
3712.77191,0.72533
3710.84320,0.70938
3708.91448,0.71896
3706.98577,0.73224
3705.05706,0.73439
3703.12835,0.72741
3701.19963,0.72120
3699.27092,0.72044
3697.34221,0.71762
3695.41349,0.70848
3693.48478,0.69189
3691.55607,0.66690
3689.62736,0.64476
3687.69864,0.64575
3685.76993,0.65674
3683.84122,0.66189
3681.91251,0.65870
3679.98379,0.64805
3678.05508,0.63238
3676.12637,0.61861
3674.19766,0.62116
3672.26894,0.62721
3670.34023,0.62983
3668.41152,0.64517
3666.48280,0.66503
3664.55409,0.67617
3662.62538,0.67984
3660.69667,0.67936
3658.76795,0.67520
3656.83924,0.66993
3654.91053,0.66856
3652.98182,0.66338
3651.05310,0.64381
3649.12439,0.62467
3647.19568,0.64073
3645.26696,0.66537
3643.33825,0.67789
3641.40954,0.68160
3639.48083,0.68179
3637.55211,0.67974
3635.62340,0.67440
3633.69469,0.66535
3631.76598,0.65227
3629.83726,0.63554
3627.90855,0.63108
3625.97984,0.64226
3624.05113,0.64802
3622.12241,0.64221
3620.19370,0.62918
3618.26499,0.62208
3616.33627,0.62279
3614.40756,0.62226
3612.47885,0.62238
3610.55014,0.62313
3608.62142,0.62223
3606.69271,0.62524
3604.76400,0.62970
3602.83529,0.62727
3600.90657,0.61958
3598.97786,0.61429
3597.04915,0.61180
3595.12044,0.61017
3593.19172,0.61174
3591.26301,0.61235
3589.33430,0.60479
3587.40558,0.59584
3585.47687,0.59963
3583.54816,0.60756
3581.61945,0.61033
3579.69073,0.60858
3577.76202,0.60523
3575.83331,0.60193
3573.90460,0.59875
3571.97588,0.59357
3570.04717,0.58197
3568.11846,0.56365
3566.18974,0.55326
3564.26103,0.55839
3562.33232,0.56462
3560.40361,0.56643
3558.47489,0.56595
3556.54618,0.56344
3554.61747,0.55794
3552.68876,0.55189
3550.76004,0.54878
3548.83133,0.54544
3546.90262,0.53946
3544.97391,0.53689
3543.04519,0.54096
3541.11648,0.54582
3539.18777,0.54647
3537.25905,0.54414
3535.33034,0.54308
3533.40163,0.54272
3531.47292,0.53933
3529.54420,0.53360
3527.61549,0.52966
3525.68678,0.52818
3523.75807,0.52804
3521.82935,0.52990
3519.90064,0.53224
3517.97193,0.53288
3516.04322,0.53195
3514.11450,0.52914
3512.18579,0.52374
3510.25708,0.51808
3508.32836,0.51495
3506.39965,0.51194
3504.47094,0.50643
3502.54223,0.50215
3500.61351,0.50154
3498.68480,0.50011
3496.75609,0.49592
3494.82738,0.49155
3492.89866,0.48777
3490.96995,0.48260
3489.04124,0.47586
3487.11253,0.46956
3485.18381,0.46380
3483.25510,0.45717
3481.32639,0.45098
3479.39767,0.44712
3477.46896,0.44377
3475.54025,0.43915
3473.61154,0.43414
3471.68282,0.42984
3469.75411,0.42609
3467.82540,0.42203
3465.89669,0.41745
3463.96797,0.41274
3462.03926,0.40857
3460.11055,0.40525
3458.18183,0.40199
3456.25312,0.39804
3454.32441,0.39330
3452.39570,0.38800
3450.46698,0.38183
3448.53827,0.37383
3446.60956,0.36490
3444.68085,0.35672
3442.75213,0.34873
3440.82342,0.34048
3438.89471,0.33217
3436.96600,0.32351
3435.03728,0.31504
3433.10857,0.30737
3431.17986,0.30074
3429.25114,0.29563
3427.32243,0.29212
3425.39372,0.28975
3423.46501,0.28820
3421.53629,0.28851
3419.60758,0.29209
3417.67887,0.29818
3415.75016,0.30524
3413.82144,0.31284
3411.89273,0.32113
3409.96402,0.33036
3408.03531,0.34031
3406.10659,0.35051
3404.17788,0.36107
3402.24917,0.37184
3400.32045,0.38192
3398.39174,0.39102
3396.46303,0.39970
3394.53432,0.40792
3392.60560,0.41569
3390.67689,0.42356
3388.74818,0.43103
3386.81947,0.43716
3384.89075,0.44252
3382.96204,0.44832
3381.03333,0.45443
3379.10462,0.46012
3377.17590,0.46509
3375.24719,0.46912
3373.31848,0.47271
3371.38976,0.47670
3369.46105,0.48051
3367.53234,0.48312
3365.60363,0.48526
3363.67491,0.48808
3361.74620,0.49134
3359.81749,0.49409
3357.88878,0.49579
3355.96006,0.49693
3354.03135,0.49846
3352.10264,0.50019
3350.17392,0.50123
3348.24521,0.50135
3346.31650,0.50091
3344.38779,0.49979
3342.45907,0.49774
3340.53036,0.49516
3338.60165,0.49212
3336.67294,0.48900
3334.74422,0.48701
3332.81551,0.48604
3330.88680,0.48490
3328.95809,0.48332
3327.02937,0.48138
3325.10066,0.47886
3323.17195,0.47576
3321.24323,0.47177
3319.31452,0.46553
3317.38581,0.45572
3315.45710,0.44175
3313.52838,0.42343
3311.59967,0.40066
3309.67096,0.37380
3307.74225,0.34527
3305.81353,0.31920
3303.88482,0.29942
3301.95611,0.28929
3300.02740,0.29066
3298.09868,0.30267
3296.16997,0.32218
3294.24126,0.34503
3292.31254,0.36853
3290.38383,0.39151
3288.45512,0.41310
3286.52641,0.43247
3284.59769,0.44934
3282.66898,0.46409
3280.74027,0.47713
3278.81156,0.48838
3276.88284,0.49802
3274.95413,0.50689
3273.02542,0.51571
3271.09670,0.52420
3269.16799,0.53150
3267.23928,0.53743
3265.31057,0.54261
3263.38185,0.54711
3261.45314,0.55061
3259.52443,0.55360
3257.59572,0.55620
3255.66700,0.55806
3253.73829,0.55985
3251.80958,0.56180
3249.88087,0.56302
3247.95215,0.56321
3246.02344,0.56282
3244.09473,0.56274
3242.16601,0.56302
3240.23730,0.56258
3238.30859,0.56133
3236.37988,0.56021
3234.45116,0.55941
3232.52245,0.55815
3230.59374,0.55630
3228.66503,0.55468
3226.73631,0.55358
3224.80760,0.55276
3222.87889,0.55172
3220.95018,0.55011
3219.02146,0.54858
3217.09275,0.54754
3215.16404,0.54673
3213.23532,0.54623
3211.30661,0.54555
3209.37790,0.54426
3207.44919,0.54317
3205.52047,0.54217
3203.59176,0.54055
3201.66305,0.53860
3199.73434,0.53683
3197.80562,0.53556
3195.87691,0.53513
3193.94820,0.53530
3192.01949,0.53561
3190.09077,0.53589
3188.16206,0.53574
3186.23335,0.53539
3184.30463,0.53585
3182.37592,0.53677
3180.44721,0.53689
3178.51850,0.53667
3176.58978,0.53699
3174.66107,0.53760
3172.73236,0.53836
3170.80365,0.53897
3168.87493,0.53901
3166.94622,0.53885
3165.01751,0.53878
3163.08879,0.53858
3161.16008,0.53818
3159.23137,0.53755
3157.30266,0.53676
3155.37394,0.53615
3153.44523,0.53545
3151.51652,0.53403
3149.58781,0.53206
3147.65909,0.52999
3145.73038,0.52787
3143.80167,0.52552
3141.87296,0.52281
3139.94424,0.51991
3138.01553,0.51665
3136.08682,0.51258
3134.15810,0.50790
3132.22939,0.50339
3130.30068,0.49892
3128.37197,0.49389
3126.44325,0.48947
3124.51454,0.48700
3122.58583,0.48616
3120.65712,0.48586
3118.72840,0.48469
3116.79969,0.48186
3114.87098,0.47798
3112.94227,0.47363
3111.01355,0.46833
3109.08484,0.46162
3107.15613,0.45350
3105.22741,0.44398
3103.29870,0.43327
3101.36999,0.42242
3099.44128,0.41271
3097.51256,0.40461
3095.58385,0.39841
3093.65514,0.39351
3091.72643,0.38778
3089.79771,0.37947
3087.86900,0.36886
3085.94029,0.35739
3084.01158,0.34654
3082.08286,0.33782
3080.15415,0.33269
3078.22544,0.33123
3076.29672,0.33118
3074.36801,0.32935
3072.43930,0.32405
3070.51059,0.31549
3068.58187,0.30498
3066.65316,0.29507
3064.72445,0.28853
3062.79574,0.28592
3060.86702,0.28491
3058.93831,0.28238
3057.00960,0.27720
3055.08088,0.27136
3053.15217,0.26821
3051.22346,0.26959
3049.29475,0.27479
3047.36603,0.28128
3045.43732,0.28611
3043.50861,0.28761
3041.57990,0.28577
3039.65118,0.28131
3037.72247,0.27468
3035.79376,0.26618
3033.86505,0.25663
3031.93633,0.24712
3030.00762,0.23804
3028.07891,0.22887
3026.15019,0.21889
3024.22148,0.20803
3022.29277,0.19636
3020.36406,0.18384
3018.43534,0.17060
3016.50663,0.15667
3014.57792,0.14209
3012.64921,0.12712
3010.72049,0.11213
3008.79178,0.09733
3006.86307,0.08271
3004.93436,0.06842
3003.00564,0.05499
3001.07693,0.04295
2999.14822,0.03253
2997.21950,0.02376
2995.29079,0.01646
2993.36208,0.01056
2991.43337,0.00633
2989.50465,0.00363
2987.57594,0.00184
2985.64723,0.00067
2983.71852,0.00041
2981.78980,0.00065
2979.86109,0.00080
2977.93238,0.00095
2976.00366,0.00097
2974.07495,0.00082
2972.14624,0.00048
2970.21753,0.00036
2968.28881,0.00037
2966.36010,0.00050
2964.43139,0.00066
2962.50268,0.00070
2960.57396,0.00065
2958.64525,0.00064
2956.71654,0.00054
2954.78783,0.00033
2952.85911,0.00017
2950.93040,0.00029
2949.00169,0.00057
2947.07297,0.00071
2945.14426,0.00064
2943.21555,0.00049
2941.28684,0.00039
2939.35812,0.00046
2937.42941,0.00049
2935.50070,0.00043
2933.57199,0.00038
2931.64327,0.00040
2929.71456,0.00056
2927.78585,0.00085
2925.85714,0.00097
2923.92842,0.00092
2921.99971,0.00070
2920.07100,0.00062
2918.14228,0.00076
2916.21357,0.00078
2914.28486,0.00055
2912.35615,0.00035
2910.42743,0.00031
2908.49872,0.00056
2906.57001,0.00073
2904.64130,0.00084
2902.71258,0.00089
2900.78387,0.00094
2898.85516,0.00089
2896.92645,0.00069
2894.99773,0.00060
2893.06902,0.00068
2891.14031,0.00074
2889.21159,0.00084
2887.28288,0.00094
2885.35417,0.00094
2883.42546,0.00083
2881.49674,0.00064
2879.56803,0.00047
2877.63932,0.00040
2875.71061,0.00043
2873.78189,0.00048
2871.85318,0.00044
2869.92447,0.00039
2867.99575,0.00020
2866.06704,0.00017
2864.13833,0.00049
2862.20962,0.00079
2860.28090,0.00087
2858.35219,0.00068
2856.42348,0.00036
2854.49477,0.00028
2852.56605,0.00032
2850.63734,0.00026
2848.70863,0.00008
2846.77992,0.00019
2844.85120,0.00075
2842.92249,0.00199
2840.99378,0.00435
2839.06506,0.00796
2837.13635,0.01307
2835.20764,0.01967
2833.27893,0.02711
2831.35021,0.03461
2829.42150,0.04185
2827.49279,0.04857
2825.56408,0.05423
2823.63536,0.05835
2821.70665,0.06095
2819.77794,0.06263
2817.84923,0.06493
2815.92051,0.07020
2813.99180,0.08035
2812.06309,0.09552
2810.13437,0.11404
2808.20566,0.13342
2806.27695,0.15182
2804.34824,0.16879
2802.41952,0.18468
2800.49081,0.19985
2798.56210,0.21442
2796.63339,0.22842
2794.70467,0.24177
2792.77596,0.25436
2790.84725,0.26616
2788.91854,0.27744
2786.98982,0.28834
2785.06111,0.29878
2783.13240,0.30882
2781.20368,0.31836
2779.27497,0.32724
2777.34626,0.33535
2775.41755,0.34237
2773.48883,0.34819
2771.56012,0.35300
2769.63141,0.35681
2767.70270,0.35988
2765.77398,0.36268
2763.84527,0.36506
2761.91656,0.36659
2759.98784,0.36715
2758.05913,0.36675
2756.13042,0.36538
2754.20171,0.36312
2752.27299,0.36004
2750.34428,0.35621
2748.41557,0.35196
2746.48686,0.34749
2744.55814,0.34277
2742.62943,0.33787
2740.70072,0.33285
2738.77201,0.32809
2736.84329,0.32443
2734.91458,0.32262
2732.98587,0.32345
2731.05715,0.32781
2729.12844,0.33599
2727.19973,0.34727
2725.27102,0.36028
2723.34230,0.37346
2721.41359,0.38542
2719.48488,0.39550
2717.55617,0.40394
2715.62745,0.41118
2713.69874,0.41763
2711.77003,0.42360
2709.84132,0.42919
2707.91260,0.43443
2705.98389,0.43949
2704.05518,0.44416
2702.12646,0.44806
2700.19775,0.45124
2698.26904,0.45417
2696.34033,0.45694
2694.41161,0.45927
2692.48290,0.46091
2690.55419,0.46173
2688.62548,0.46166
2686.69676,0.46072
2684.76805,0.45916
2682.83934,0.45708
2680.91062,0.45453
2678.98191,0.45185
2677.05320,0.44950
2675.12449,0.44795
2673.19577,0.44758
2671.26706,0.44842
2669.33835,0.45052
2667.40964,0.45418
2665.48092,0.45940
2663.55221,0.46559
2661.62350,0.47213
2659.69479,0.47868
2657.76607,0.48500
2655.83736,0.49070
2653.90865,0.49551
2651.97993,0.49946
2650.05122,0.50256
2648.12251,0.50470
2646.19380,0.50573
2644.26508,0.50586
2642.33637,0.50522
2640.40766,0.50347
2638.47895,0.50048
2636.55023,0.49662
2634.62152,0.49252
2632.69281,0.48877
2630.76410,0.48590
2628.83538,0.48427
2626.90667,0.48360
2624.97796,0.48333
2623.04924,0.48317
2621.12053,0.48310
2619.19182,0.48297
2617.26311,0.48264
2615.33439,0.48224
2613.40568,0.48195
2611.47697,0.48174
2609.54826,0.48155
2607.61954,0.48137
2605.69083,0.48118
2603.76212,0.48123
2601.83341,0.48183
2599.90469,0.48273
2597.97598,0.48340
2596.04727,0.48361
2594.11855,0.48340
2592.18984,0.48283
2590.26113,0.48198
2588.33242,0.48099
2586.40370,0.47993
2584.47499,0.47877
2582.54628,0.47755
2580.61757,0.47663
2578.68885,0.47660
2576.76014,0.47765
2574.83143,0.47948
2572.90271,0.48200
2570.97400,0.48512
2569.04529,0.48836
2567.11658,0.49123
2565.18786,0.49347
2563.25915,0.49495
2561.33044,0.49576
2559.40173,0.49627
2557.47301,0.49692
2555.54430,0.49795
2553.61559,0.49948
2551.68688,0.50144
2549.75816,0.50360
2547.82945,0.50604
2545.90074,0.50892
2543.97202,0.51205
2542.04331,0.51500
2540.11460,0.51750
2538.18589,0.51945
2536.25717,0.52089
2534.32846,0.52197
2532.39975,0.52307
2530.47104,0.52448
2528.54232,0.52630
2526.61361,0.52859
2524.68490,0.53138
2522.75619,0.53471
2520.82747,0.53870
2518.89876,0.54322
2516.97005,0.54786
2515.04133,0.55238
2513.11262,0.55690
2511.18391,0.56148
2509.25520,0.56600
2507.32648,0.57045
2505.39777,0.57460
2503.46906,0.57807
2501.54035,0.58087
2499.61163,0.58329
2497.68292,0.58538
2495.75421,0.58713
2493.82549,0.58872
2491.89678,0.59032
2489.96807,0.59192
2488.03936,0.59337
2486.11064,0.59458
2484.18193,0.59584
2482.25322,0.59739
2480.32451,0.59906
2478.39579,0.60085
2476.46708,0.60289
2474.53837,0.60494
2472.60966,0.60688
2470.68094,0.60882
2468.75223,0.61070
2466.82352,0.61224
2464.89480,0.61318
2462.96609,0.61358
2461.03738,0.61370
2459.10867,0.61363
2457.17995,0.61347
2455.25124,0.61335
2453.32253,0.61318
2451.39382,0.61257
2449.46510,0.61120
2447.53639,0.60918
2445.60768,0.60701
2443.67897,0.60504
2441.75025,0.60322
2439.82154,0.60124
2437.89283,0.59891
2435.96411,0.59626
2434.03540,0.59326
2432.10669,0.58995
2430.17798,0.58651
2428.24926,0.58271
2426.32055,0.57832
2424.39184,0.57354
2422.46313,0.56869
2420.53441,0.56411
2418.60570,0.56035
2416.67699,0.55753
2414.74828,0.55513
2412.81956,0.55264
2410.89085,0.54978
2408.96214,0.54654
2407.03342,0.54322
2405.10471,0.54007
2403.17600,0.53718
2401.24729,0.53448
2399.31857,0.53161
2397.38986,0.52834
2395.46115,0.52484
2393.53244,0.52141
2391.60372,0.51822
2389.67501,0.51501
2387.74630,0.51070
2385.81758,0.50381
2383.88887,0.49337
2381.96016,0.47940
2380.03145,0.46288
2378.10273,0.44542
2376.17402,0.42831
2374.24531,0.41209
2372.31660,0.39689
2370.38788,0.38290
2368.45917,0.37063
2366.53046,0.36065
2364.60175,0.35377
2362.67303,0.35071
2360.74432,0.35156
2358.81561,0.35681
2356.88689,0.36766
2354.95818,0.38471
2353.02947,0.40848
2351.10076,0.43533
2349.17204,0.45262
2347.24333,0.45104
2345.31462,0.43742
2343.38591,0.42848
2341.45719,0.42968
2339.52848,0.43589
2337.59977,0.44339
2335.67106,0.45037
2333.74234,0.45547
2331.81363,0.45912
2329.88492,0.46430
2327.95620,0.47167
2326.02749,0.47846
2324.09878,0.48391
2322.17007,0.49152
2320.24135,0.50452
2318.31264,0.52125
2316.38393,0.53666
2314.45522,0.54783
2312.52650,0.55639
2310.59779,0.56507
2308.66908,0.57441
2306.74037,0.58356
2304.81165,0.59146
2302.88294,0.59740
2300.95423,0.60155
2299.02551,0.60438
2297.09680,0.60592
2295.16809,0.60625
2293.23938,0.60576
2291.31066,0.60491
2289.38195,0.60383
2287.45324,0.60234
2285.52453,0.60008
2283.59581,0.59639
2281.66710,0.59128
2279.73839,0.58625
2277.80967,0.58343
2275.88096,0.58379
2273.95225,0.58679
2272.02354,0.59142
2270.09482,0.59672
2268.16611,0.60182
2266.23740,0.60622
2264.30869,0.60998
2262.37997,0.61313
2260.45126,0.61541
2258.52255,0.61670
2256.59384,0.61727
2254.66512,0.61760
2252.73641,0.61807
2250.80770,0.61870
2248.87898,0.61923
2246.95027,0.61917
2245.02156,0.61832
2243.09285,0.61711
2241.16413,0.61613
2239.23542,0.61560
2237.30671,0.61555
2235.37800,0.61587
2233.44928,0.61621
2231.52057,0.61641
2229.59186,0.61675
2227.66315,0.61783
2225.73443,0.61985
2223.80572,0.62236
2221.87701,0.62482
2219.94829,0.62686
2218.01958,0.62832
2216.09087,0.62936
2214.16216,0.63014
2212.23344,0.63068
2210.30473,0.63139
2208.37602,0.63327
2206.44731,0.63702
2204.51859,0.64231
2202.58988,0.64825
2200.66117,0.65406
2198.73245,0.65917
2196.80374,0.66322
2194.87503,0.66612
2192.94632,0.66814
2191.01760,0.66988
2189.08889,0.67199
2187.16018,0.67496
2185.23147,0.67844
2183.30275,0.68142
2181.37404,0.68351
2179.44533,0.68504
2177.51662,0.68624
2175.58790,0.68740
2173.65919,0.68860
2171.73048,0.68938
2169.80176,0.68945
2167.87305,0.68889
2165.94434,0.68780
2164.01563,0.68639
2162.08691,0.68513
2160.15820,0.68441
2158.22949,0.68402
2156.30078,0.68353
2154.37206,0.68270
2152.44335,0.68160
2150.51464,0.68061
2148.58593,0.67994
2146.65721,0.67945
2144.72850,0.67883
2142.79979,0.67779
2140.87107,0.67639
2138.94236,0.67510
2137.01365,0.67451
2135.08494,0.67468
2133.15622,0.67509
2131.22751,0.67513
2129.29880,0.67468
2127.37009,0.67396
2125.44137,0.67321
2123.51266,0.67266
2121.58395,0.67222
2119.65524,0.67147
2117.72652,0.67014
2115.79781,0.66851
2113.86910,0.66736
2111.94038,0.66703
2110.01167,0.66707
2108.08296,0.66711
2106.15425,0.66713
2104.22553,0.66683
2102.29682,0.66600
2100.36811,0.66505
2098.43940,0.66438
2096.51068,0.66385
2094.58197,0.66308
2092.65326,0.66163
2090.72454,0.65952
2088.79583,0.65759
2086.86712,0.65630
2084.93841,0.65529
2083.00969,0.65424
2081.08098,0.65297
2079.15227,0.65149
2077.22356,0.65015
2075.29484,0.64919
2073.36613,0.64875
2071.43742,0.64884
2069.50871,0.64898
2067.57999,0.64833
2065.65128,0.64750
2063.72257,0.64824
2061.79385,0.65031
2059.86514,0.65257
2057.93643,0.65499
2056.00772,0.65739
2054.07900,0.65941
2052.15029,0.66118
2050.22158,0.66293
2048.29287,0.66485
2046.36415,0.66683
2044.43544,0.66815
2042.50673,0.66859
2040.57802,0.66929
2038.64930,0.67072
2036.72059,0.67199
2034.79188,0.67285
2032.86316,0.67368
2030.93445,0.67458
2029.00574,0.67550
2027.07703,0.67649
2025.14831,0.67774
2023.21960,0.67932
2021.29089,0.68073
2019.36218,0.68131
2017.43346,0.68237
2015.50475,0.68550
2013.57604,0.68875
2011.64733,0.69006
2009.71861,0.69027
2007.78990,0.69066
2005.86119,0.69133
2003.93247,0.69124
2002.00376,0.68959
2000.07505,0.68666
1998.14634,0.68313
1996.21762,0.67811
1994.28891,0.66987
1992.36020,0.66084
1990.43149,0.65606
1988.50277,0.65531
1986.57406,0.65570
1984.64535,0.65591
1982.71663,0.65514
1980.78792,0.65346
1978.85921,0.65111
1976.93050,0.64790
1975.00178,0.64364
1973.07307,0.63829
1971.14436,0.63135
1969.21565,0.62158
1967.28693,0.61038
1965.35822,0.60102
1963.42951,0.59156
1961.50080,0.57840
1959.57208,0.56193
1957.64337,0.54323
1955.71466,0.52301
1953.78594,0.50387
1951.85723,0.48888
1949.92852,0.48011
1947.99981,0.47850
1946.07109,0.48313
1944.14238,0.49283
1942.21367,0.50872
1940.28496,0.52827
1938.35624,0.54543
1936.42753,0.55930
1934.49882,0.57191
1932.57011,0.58427
1930.64139,0.59601
1928.71268,0.60586
1926.78397,0.61185
1924.85525,0.61274
1922.92654,0.61262
1920.99783,0.61557
1919.06912,0.61886
1917.14040,0.62286
1915.21169,0.62852
1913.28298,0.63123
1911.35427,0.62957
1909.42555,0.62818
1907.49684,0.63134
1905.56813,0.63650
1903.63941,0.64001
1901.71070,0.64186
1899.78199,0.64245
1897.85328,0.64101
1895.92456,0.63881
1893.99585,0.63891
1892.06714,0.63908
1890.13843,0.63768
1888.20971,0.63931
1886.28100,0.64339
1884.35229,0.64641
1882.42358,0.64886
1880.49486,0.65082
1878.56615,0.65175
1876.63744,0.65198
1874.70872,0.65075
1872.78001,0.64546
1870.85130,0.63381
1868.92259,0.62184
1866.99387,0.62330
1865.06516,0.63225
1863.13645,0.63580
1861.20774,0.63297
1859.27902,0.62808
1857.35031,0.62346
1855.42160,0.61808
1853.49289,0.61066
1851.56417,0.60043
1849.63546,0.58658
1847.70675,0.56968
1845.77803,0.55208
1843.84932,0.53976
1841.92061,0.53647
1839.99190,0.53231
1838.06318,0.52089
1836.13447,0.50564
1834.20576,0.48914
1832.27705,0.46769
1830.34833,0.44032
1828.41962,0.41802
1826.49091,0.40548
1824.56220,0.39759
1822.63348,0.39613
1820.70477,0.39971
1818.77606,0.40487
1816.84734,0.41121
1814.91863,0.41674
1812.98992,0.41897
1811.06121,0.41982
1809.13249,0.42253
1807.20378,0.42512
1805.27507,0.42413
1803.34636,0.41834
1801.41764,0.40939
1799.48893,0.40174
1797.56022,0.39503
1795.63150,0.38539
1793.70279,0.37129
1791.77408,0.35706
1789.84537,0.35010
1787.91665,0.34467
1785.98794,0.33437
1784.05923,0.32061
1782.13052,0.30650
1780.20180,0.29280
1778.27309,0.28073
1776.34438,0.26877
1774.41567,0.25325
1772.48695,0.23396
1770.55824,0.21829
1768.62953,0.20708
1766.70081,0.19417
1764.77210,0.17853
1762.84339,0.15739
1760.91468,0.13128
1758.98596,0.10757
1757.05725,0.08399
1755.12854,0.06195
1753.19983,0.04524
1751.27111,0.03042
1749.34240,0.01742
1747.41369,0.00985
1745.48498,0.00586
1743.55626,0.00308
1741.62755,0.00123
1739.69884,0.00011
1737.77012,0.00010
1735.84141,0.00039
1733.91270,0.00025
1731.98399,0.00023
1730.05527,0.00050
1728.12656,0.00063
1726.19785,0.00046
1724.26914,0.00039
1722.34042,0.00054
1720.41171,0.00060
1718.48300,0.00052
1716.55429,0.00062
1714.62557,0.00065
1712.69686,0.00063
1710.76815,0.00045
1708.83943,0.00032
1706.91072,0.00026
1704.98201,0.00022
1703.05330,0.00007
1701.12458,0.00032
1699.19587,0.00193
1697.26716,0.00647
1695.33845,0.01506
1693.40973,0.02419
1691.48102,0.03221
1689.55231,0.04056
1687.62359,0.04727
1685.69488,0.05128
1683.76617,0.05599
1681.83746,0.06112
1679.90874,0.06510
1677.98003,0.06850
1676.05132,0.07198
1674.12261,0.07671
1672.19389,0.08335
1670.26518,0.09840
1668.33647,0.12695
1666.40776,0.15445
1664.47904,0.17855
1662.55033,0.20744
1660.62162,0.23590
1658.69290,0.25411
1656.76419,0.26240
1654.83548,0.26320
1652.90677,0.26445
1650.97805,0.26891
1649.04934,0.26519
1647.12063,0.25140
1645.19192,0.23501
1643.26320,0.21760
1641.33449,0.19271
1639.40578,0.16517
1637.47707,0.14826
1635.54835,0.16580
1633.61964,0.20918
1631.69093,0.24307
1629.76221,0.26833
1627.83350,0.28756
1625.90479,0.29893
1623.97608,0.30428
1622.04736,0.30759
1620.11865,0.30557
1618.18994,0.29042
1616.26123,0.26466
1614.33251,0.25274
1612.40380,0.25481
1610.47509,0.26048
1608.54637,0.26983
1606.61766,0.28405
1604.68895,0.30025
1602.76024,0.31684
1600.83152,0.33321
1598.90281,0.34513
1596.97410,0.34796
1595.04539,0.34298
1593.11667,0.33685
1591.18796,0.33343
1589.25925,0.32886
1587.33054,0.31372
1585.40182,0.27897
1583.47311,0.22445
1581.54440,0.16425
1579.61568,0.11802
1577.68697,0.09613
1575.75826,0.10742
1573.82955,0.13588
1571.90083,0.15925
1569.97212,0.18112
1568.04341,0.19885
1566.11470,0.20799
1564.18598,0.21457
1562.25727,0.22009
1560.32856,0.22296
1558.39985,0.23080
1556.47113,0.24262
1554.54242,0.24933
1552.61371,0.25346
1550.68499,0.25623
1548.75628,0.25756
1546.82757,0.25322
1544.89886,0.23846
1542.97014,0.21501
1541.04143,0.19404
1539.11272,0.19564
1537.18401,0.20908
1535.25529,0.21920
1533.32658,0.22809
1531.39787,0.23416
1529.46916,0.23475
1527.54044,0.23339
1525.61173,0.23533
1523.68302,0.23966
1521.75430,0.24510
1519.82559,0.25069
1517.89688,0.24935
1515.96817,0.24120
1514.03945,0.22843
1512.11074,0.20662
1510.18203,0.17365
1508.25332,0.12256
1506.32460,0.05752
1504.39589,0.04745
1502.46718,0.07426
1500.53846,0.11342
1498.60975,0.15375
1496.68104,0.18479
1494.75233,0.19946
1492.82361,0.19831
1490.89490,0.18301
1488.96619,0.15681
1487.03748,0.13162
1485.10876,0.10868
1483.18005,0.08449
1481.25134,0.05932
1479.32263,0.03799
1477.39391,0.02261
1475.46520,0.01133
1473.53649,0.00389
1471.60777,0.00051
1469.67906,-0.00015
1467.75035,0.00015
1465.82164,0.00046
1463.89292,0.00042
1461.96421,0.00040
1460.03550,0.00041
1458.10679,0.00062
1456.17807,0.00050
1454.24936,0.00008
1452.32065,0.00004
1450.39194,0.00029
1448.46322,0.00039
1446.53451,0.00038
1444.60580,0.00022
1442.67708,0.00010
1440.74837,0.00008
1438.81966,0.00017
1436.89095,0.00028
1434.96223,0.00033
1433.03352,0.00026
1431.10481,0.00013
1429.17610,0.00017
1427.24738,0.00050
1425.31867,0.00060
1423.38996,0.00039
1421.46125,0.00044
1419.53253,0.00067
1417.60382,0.00072
1415.67511,0.00052
1413.74639,0.00037
1411.81768,0.00029
1409.88897,0.00006
1407.96026,-0.00004
1406.03154,0.00037
1404.10283,0.00144
1402.17412,0.00306
1400.24541,0.00449
1398.31669,0.00507
1396.38798,0.00436
1394.45927,0.00280
1392.53055,0.00142
1390.60184,0.00072
1388.67313,0.00048
1386.74442,0.00036
1384.81570,0.00023
1382.88699,0.00013
1380.95828,0.00020
1379.02957,0.00024
1377.10085,0.00025
1375.17214,0.00023
1373.24343,0.00014
1371.31472,0.00034
1369.38600,0.00083
1367.45729,0.00118
1365.52858,0.00131
1363.59986,0.00117
1361.67115,0.00079
1359.74244,0.00052
1357.81373,0.00044
1355.88501,0.00032
1353.95630,0.00019
1352.02759,0.00023
1350.09888,0.00036
1348.17016,0.00046
1346.24145,0.00047
1344.31274,0.00046
1342.38403,0.00039
1340.45531,0.00033
1338.52660,0.00045
1336.59789,0.00049
1334.66917,0.00037
1332.74046,0.00032
1330.81175,0.00027
1328.88304,0.00021
1326.95432,0.00023
1325.02561,0.00019
1323.09690,0.00028
1321.16819,0.00040
1319.23947,0.00049
1317.31076,0.00050
1315.38205,0.00040
1313.45333,0.00030
1311.52462,0.00027
1309.59591,0.00016
1307.66720,0.00025
1305.73848,0.00022
1303.80977,0.00022
1301.88106,0.00030
1299.95235,0.00041
1298.02363,0.00044
1296.09492,0.00045
1294.16621,0.00046
1292.23750,0.00051
1290.30878,0.00056
1288.38007,0.00051
1286.45136,0.00038
1284.52264,0.00021
1282.59393,0.00020
1280.66522,0.00026
1278.73651,0.00025
1276.80779,0.00035
1274.87908,0.00046
1272.95037,0.00044
1271.02166,0.00021
1269.09294,0.00012
1267.16423,0.00030
1265.23552,0.00043
1263.30681,0.00025
1261.37809,0.00007
1259.44938,0.00009
1257.52067,0.00011
1255.59195,0.00015
1253.66324,0.00030
1251.73453,0.00048
1249.80582,0.00054
1247.87710,0.00037
1245.94839,0.00026
1244.01968,0.00036
1242.09097,0.00052
1240.16225,0.00052
1238.23354,0.00042
1236.30483,0.00045
1234.37612,0.00053
1232.44740,0.00038
1230.51869,0.00020
1228.58998,0.00024
1226.66126,0.00036
1224.73255,0.00014
1222.80384,0.00079
1220.87513,0.00147
1218.94641,0.00205
1217.01770,0.00242
1215.08899,0.00266
1213.16028,0.00275
1211.23156,0.00249
1209.30285,0.00209
1207.37414,0.00191
1205.44542,0.00178
1203.51671,0.00153
1201.58800,0.00143
1199.65929,0.00161
1197.73057,0.00182
1195.80186,0.00207
1193.87315,0.00258
1191.94444,0.00351
1190.01572,0.00490
1188.08701,0.00686
1186.15830,0.00931
1184.22959,0.01178
1182.30087,0.01349
1180.37216,0.01362
1178.44345,0.01190
1176.51473,0.00895
1174.58602,0.00603
1172.65731,0.00442
1170.72860,0.00459
1168.79988,0.00577
1166.87117,0.00686
1164.94246,0.00738
1163.01375,0.00740
1161.08503,0.00704
1159.15632,0.00646
1157.22761,0.00587
1155.29890,0.00547
1153.37018,0.00521
1151.44147,0.00483
1149.51276,0.00438
1147.58404,0.00409
1145.65533,0.00393
1143.72662,0.00371
1141.79791,0.00322
1139.86919,0.00233
1137.94048,0.00131
1136.01177,0.00053
1134.08306,0.00013
1132.15434,0.00019
1130.22563,0.00036
1128.29692,0.00049
1126.36821,0.00064
1124.43949,0.00071
1122.51078,0.00071
1120.58207,0.00072
1118.65335,0.00073
1116.72464,0.00059
1114.79593,0.00042
1112.86722,0.00034
1110.93850,0.00034
1109.00979,0.00028
1107.08108,0.00031
1105.15237,0.00020
1103.22365,0.00033
1101.29494,0.00058
1099.36623,0.00070
1097.43751,0.00051
1095.50880,0.00025
1093.58009,0.00005
1091.65138,0.00006
1089.72266,0.00020
1087.79395,0.00068
1085.86524,0.00044
1083.93653,0.00010
1082.00781,0.00023
1080.07910,0.00076
1078.15039,0.00166
1076.22168,0.00272
1074.29296,0.00373
1072.36425,0.00506
1070.43554,0.00686
1068.50682,0.00865
1066.57811,0.01017
1064.64940,0.01179
1062.72069,0.01372
1060.79197,0.01575
1058.86326,0.01760
1056.93455,0.01916
1055.00584,0.02061
1053.07712,0.02228
1051.14841,0.02397
1049.21970,0.02512
1047.29099,0.02572
1045.36227,0.02585
1043.43356,0.02518
1041.50485,0.02392
1039.57613,0.02248
1037.64742,0.02078
1035.71871,0.01876
1033.79000,0.01660
1031.86128,0.01414
1029.93257,0.01133
1028.00386,0.00849
1026.07515,0.00576
1024.14643,0.00328
1022.21772,0.00144
1020.28901,0.00027
1018.36029,-0.00024
1016.43158,0.00029
1014.50287,0.00203
1012.57416,0.00442
1010.64544,0.00659
1008.71673,0.00799
1006.78802,0.00838
1004.85931,0.00778
1002.93059,0.00662
1001.00188,0.00530
999.07317,0.00399
997.14446,0.00286
995.21574,0.00204
993.28703,0.00158
991.35832,0.00136
989.42960,0.00111
987.50089,0.00091
985.57218,0.00075
983.64347,0.00054
981.71475,0.00043
979.78604,0.00053
977.85733,0.00060
975.92862,0.00053
973.99990,0.00046
972.07119,0.00050
970.14248,0.00056
968.21377,0.00070
966.28505,0.00077
964.35634,0.00062
962.42763,0.00037
960.49891,0.00015
958.57020,0.00028
956.64149,0.00066
954.71278,0.00069
952.78406,0.00046
950.85535,0.00035
948.92664,0.00071
946.99793,0.00069
945.06921,0.00049
943.14050,0.00046
941.21179,0.00057
939.28308,0.00085
937.35436,0.00121
935.42565,0.00150
933.49694,0.00192
931.56822,0.00236
929.63951,0.00260
927.71080,0.00273
925.78209,0.00303
923.85337,0.00356
921.92466,0.00436
919.99595,0.00554
918.06724,0.00715
916.13852,0.00893
914.20981,0.01050
912.28110,0.01175
910.35238,0.01288
908.42367,0.01424
906.49496,0.01609
904.56625,0.01871
902.63753,0.02217
900.70882,0.02582
898.78011,0.02895
896.85140,0.03149
894.92268,0.03408
892.99397,0.03765
891.06526,0.04197
889.13655,0.04517
887.20783,0.04520
885.27912,0.04083
883.35041,0.03207
881.42169,0.02087
879.49298,0.01059
877.56427,0.00387
875.63556,0.00124
873.70684,0.00175
871.77813,0.00494
869.84942,0.01099
867.92071,0.01887
865.99199,0.02652
864.06328,0.03225
862.13457,0.03571
860.20586,0.03764
858.27714,0.03875
856.34843,0.03915
854.41972,0.03875
852.49100,0.03798
850.56229,0.03765
848.63358,0.03787
846.70487,0.03813
844.77615,0.03799
842.84744,0.03698
840.91873,0.03491
838.99002,0.03210
837.06130,0.02914
835.13259,0.02692
833.20388,0.02664
831.27516,0.02944
829.34645,0.03677
827.41774,0.05022
825.48903,0.06961
823.56031,0.09219
821.63160,0.11412
819.70289,0.13232
817.77418,0.14539
815.84546,0.15361
813.91675,0.15817
811.98804,0.16023
810.05933,0.16075
808.13061,0.16086
806.20190,0.16201
804.27319,0.16540
802.34447,0.16926
800.41576,0.16520
798.48705,0.14526
796.55834,0.11953
794.62962,0.11006
792.70091,0.11977
790.77220,0.12977
788.84349,0.12713
786.91477,0.11510
784.98606,0.10191
783.05735,0.09258
781.12864,0.08812
779.19992,0.08615
777.27121,0.08276
775.34250,0.07565
773.41378,0.06626
771.48507,0.05850
769.55636,0.05537
767.62765,0.05760
765.69893,0.06537
763.77022,0.07989
761.84151,0.10127
759.91280,0.12537
757.98408,0.14608
756.05537,0.15950
754.12666,0.16393
752.19795,0.15882
750.26923,0.14457
748.34052,0.12217
746.41181,0.09377
744.48309,0.06348
742.55438,0.03608
740.62567,0.01561
738.69696,0.00414
736.76824,0.00011
734.83953,-0.00001
732.91082,0.00030
730.98211,0.00035
729.05339,0.00084
727.12468,0.00124
725.19597,0.00224
723.26725,0.00552
721.33854,0.01152
719.40983,0.01848
717.48112,0.02272
715.55240,0.02227
713.62369,0.01841
711.69498,0.01331
709.76627,0.00850
707.83755,0.00486
705.90884,0.00259
703.98013,0.00158
702.05142,0.00134
700.12270,0.00125
698.19399,0.00104
696.26528,0.00069
694.33656,0.00076
692.40785,0.00107
690.47914,0.00137
688.55043,0.00158
686.62171,0.00145
684.69300,0.00096
682.76429,0.00090
680.83558,0.00135
678.90686,0.00188
676.97815,0.00258
675.04944,0.00375
673.12073,0.00542
671.19201,0.00746
669.26330,0.01089
667.33459,0.01674
665.40587,0.02132
663.47716,0.02256
661.54845,0.02079
659.61974,0.01649
657.69102,0.01130
655.76231,0.00687
653.83360,0.00367
651.90489,0.00142
649.97617,0.00070
648.04746,0.00075
646.11875,0.00087
644.19004,0.00168
642.26132,0.00285
640.33261,0.00352
638.40390,0.00371
636.47518,0.00321
634.54647,0.00205
632.61776,0.00139
630.68905,0.00136
628.76033,0.00120
626.83162,0.00124
624.90291,0.00154
622.97420,0.00137
621.04548,0.00117
619.11677,0.00152
617.18806,0.00208
615.25934,0.00204
613.33063,0.00149
611.40192,0.00092
609.47321,0.00176
607.54449,0.00321
605.61578,0.00397
603.68707,0.00258
601.75836,0.00112
599.82964,0.00332
