7496.90619,0.93866
7494.97747,0.92932
7493.04876,0.93229
7491.12005,0.94452
7489.19134,0.95577
7487.26262,0.95271
7485.33391,0.93631
7483.40520,0.92327
7481.47648,0.92086
7479.54777,0.92555
7477.61906,0.93013
7475.69035,0.92787
7473.76163,0.92663
7471.83292,0.93194
7469.90421,0.93299
7467.97550,0.93124
7466.04678,0.93437
7464.11807,0.93732
7462.18936,0.93775
7460.26065,0.93519
7458.33193,0.92807
7456.40322,0.92316
7454.47451,0.92847
7452.54579,0.93803
7450.61708,0.94174
7448.68837,0.94389
7446.75966,0.94732
7444.83094,0.94559
7442.90223,0.93812
7440.97352,0.92823
7439.04481,0.92186
7437.11609,0.92459
7435.18738,0.92901
7433.25867,0.92548
7431.32996,0.91837
7429.40124,0.91608
7427.47253,0.92012
7425.54382,0.92595
7423.61510,0.92535
7421.68639,0.91825
7419.75768,0.91482
7417.82897,0.91748
7415.90025,0.92128
7413.97154,0.92665
7412.04283,0.93194
7410.11412,0.93540
7408.18540,0.94034
7406.25669,0.94360
7404.32798,0.94099
7402.39927,0.93641
7400.47055,0.93486
7398.54184,0.93808
7396.61313,0.94013
7394.68441,0.93511
7392.75570,0.92957
7390.82699,0.92927
7388.89828,0.93121
7386.96956,0.93270
7385.04085,0.92970
7383.11214,0.92140
7381.18343,0.91891
7379.25471,0.92474
7377.32600,0.92385
7375.39729,0.91642
7373.46857,0.91959
7371.53986,0.92854
7369.61115,0.92755
7367.68244,0.92236
7365.75372,0.92532
7363.82501,0.93183
7361.89630,0.93352
7359.96759,0.93200
7358.03887,0.93166
7356.11016,0.92895
7354.18145,0.92263
7352.25274,0.91915
7350.32402,0.91874
7348.39531,0.91608
7346.46660,0.91131
7344.53788,0.90696
7342.60917,0.90110
7340.68046,0.89635
7338.75175,0.90263
7336.82303,0.91990
7334.89432,0.93689
7332.96561,0.94385
7331.03690,0.93525
7329.10818,0.91446
7327.17947,0.90127
7325.25076,0.90839
7323.32205,0.92404
7321.39333,0.93642
7319.46462,0.93991
7317.53591,0.93362
7315.60719,0.92613
7313.67848,0.92116
7311.74977,0.91318
7309.82106,0.90556
7307.89234,0.90559
7305.96363,0.91289
7304.03492,0.92161
7302.10621,0.92480
7300.17749,0.92340
7298.24878,0.92056
7296.32007,0.91529
7294.39136,0.91421
7292.46264,0.92053
7290.53393,0.92599
7288.60522,0.93009
7286.67650,0.93407
7284.74779,0.93217
7282.81908,0.92514
7280.89037,0.92113
7278.96165,0.92229
7277.03294,0.92569
7275.10423,0.92782
7273.17552,0.92368
7271.24680,0.91746
7269.31809,0.91781
7267.38938,0.92173
7265.46066,0.92109
7263.53195,0.91605
7261.60324,0.91418
7259.67453,0.91826
7257.74581,0.92201
7255.81710,0.91926
7253.88839,0.91414
7251.95968,0.91629
7250.03096,0.92098
7248.10225,0.91805
7246.17354,0.90878
7244.24483,0.89863
7242.31611,0.89574
7240.38740,0.90463
7238.45869,0.91506
7236.52997,0.91490
7234.60126,0.90275
7232.67255,0.89437
7230.74384,0.90306
7228.81512,0.91141
7226.88641,0.90782
7224.95770,0.90740
7223.02899,0.91684
7221.10027,0.92336
7219.17156,0.92182
7217.24285,0.92005
7215.31414,0.92235
7213.38542,0.92588
7211.45671,0.92798
7209.52800,0.92831
7207.59928,0.92493
7205.67057,0.91521
7203.74186,0.90294
7201.81315,0.89985
7199.88443,0.90954
7197.95572,0.91945
7196.02701,0.92000
7194.09830,0.91879
7192.16958,0.91975
7190.24087,0.91614
7188.31216,0.91214
7186.38344,0.91154
7184.45473,0.90481
7182.52602,0.89457
7180.59731,0.89482
7178.66859,0.90059
7176.73988,0.90025
7174.81117,0.89718
7172.88246,0.89778
7170.95374,0.90080
7169.02503,0.90277
7167.09632,0.90378
7165.16761,0.90531
7163.23889,0.90616
7161.31018,0.90645
7159.38147,0.90921
7157.45275,0.91356
7155.52404,0.91782
7153.59533,0.92242
7151.66662,0.92433
7149.73790,0.92280
7147.80919,0.92231
7145.88048,0.92191
7143.95177,0.91856
7142.02305,0.91465
7140.09434,0.91150
7138.16563,0.90773
7136.23692,0.90524
7134.30820,0.91024
7132.37949,0.92249
7130.45078,0.93063
7128.52206,0.92865
7126.59335,0.92369
7124.66464,0.92328
7122.73593,0.92636
7120.80721,0.92606
7118.87850,0.91948
7116.94979,0.91441
7115.02108,0.91705
7113.09236,0.92188
7111.16365,0.92184
7109.23494,0.91484
7107.30623,0.90555
7105.37751,0.90419
7103.44880,0.91442
7101.52009,0.92509
7099.59137,0.92513
7097.66266,0.91770
7095.73395,0.91242
7093.80524,0.91435
7091.87652,0.91972
7089.94781,0.92277
7088.01910,0.92420
7086.09039,0.92523
7084.16167,0.92324
7082.23296,0.91894
7080.30425,0.91834
7078.37553,0.92371
7076.44682,0.92954
7074.51811,0.92871
7072.58940,0.92046
7070.66068,0.91472
7068.73197,0.91751
7066.80326,0.92093
7064.87455,0.91798
7062.94583,0.91186
7061.01712,0.91046
7059.08841,0.91373
7057.15970,0.91587
7055.23098,0.91695
7053.30227,0.91727
7051.37356,0.91431
7049.44484,0.90911
7047.51613,0.90725
7045.58742,0.91254
7043.65871,0.91982
7041.72999,0.92431
7039.80128,0.92759
7037.87257,0.92808
7035.94386,0.92475
7034.01514,0.92119
7032.08643,0.91720
7030.15772,0.91322
7028.22901,0.91377
7026.30029,0.91758
7024.37158,0.91965
7022.44287,0.91985
7020.51415,0.91999
7018.58544,0.92025
7016.65673,0.92192
7014.72802,0.92433
7012.79930,0.92336
7010.87059,0.92000
7008.94188,0.91955
7007.01317,0.92258
7005.08445,0.92454
7003.15574,0.92256
7001.22703,0.91893
6999.29832,0.91864
6997.36960,0.92302
6995.44089,0.92697
6993.51218,0.92673
6991.58346,0.92201
6989.65475,0.91503
6987.72604,0.91254
6985.79733,0.91783
6983.86861,0.92663
6981.93990,0.93216
6980.01119,0.92946
6978.08248,0.92206
6976.15376,0.91766
6974.22505,0.91772
6972.29634,0.92100
6970.36762,0.92598
6968.43891,0.92757
6966.51020,0.92382
6964.58149,0.91945
6962.65277,0.91731
6960.72406,0.91626
6958.79535,0.91613
6956.86664,0.91763
6954.93792,0.92051
6953.00921,0.92350
6951.08050,0.92345
6949.15179,0.92073
6947.22307,0.92025
6945.29436,0.92163
6943.36565,0.92169
6941.43693,0.92087
6939.50822,0.91965
6937.57951,0.91778
6935.65080,0.91731
6933.72208,0.92135
6931.79337,0.92773
6929.86466,0.93008
6927.93595,0.92848
6926.00723,0.92898
6924.07852,0.93078
6922.14981,0.92810
6920.22110,0.92218
6918.29238,0.91716
6916.36367,0.91627
6914.43496,0.92221
6912.50624,0.92894
6910.57753,0.92847
6908.64882,0.92421
6906.72011,0.92147
6904.79139,0.91941
6902.86268,0.91861
6900.93397,0.91837
6899.00526,0.91583
6897.07654,0.91502
6895.14783,0.92007
6893.21912,0.92560
6891.29040,0.92664
6889.36169,0.92544
6887.43298,0.92583
6885.50427,0.93038
6883.57555,0.93446
6881.64684,0.93168
6879.71813,0.92720
6877.78942,0.92588
6875.86070,0.92567
6873.93199,0.92654
6872.00328,0.92685
6870.07457,0.92444
6868.14585,0.92340
6866.21714,0.92579
6864.28843,0.92796
6862.35971,0.92974
6860.43100,0.93054
6858.50229,0.92696
6856.57358,0.92242
6854.64486,0.92146
6852.71615,0.92286
6850.78744,0.92405
6848.85873,0.92378
6846.93001,0.92322
6845.00130,0.92539
6843.07259,0.93057
6841.14388,0.93486
6839.21516,0.93656
6837.28645,0.93702
6835.35774,0.93554
6833.42902,0.93116
6831.50031,0.92797
6829.57160,0.93080
6827.64289,0.93463
6825.71417,0.93329
6823.78546,0.93176
6821.85675,0.93356
6819.92804,0.93553
6817.99932,0.93598
6816.07061,0.93372
6814.14190,0.92995
6812.21319,0.92953
6810.28447,0.93211
6808.35576,0.93290
6806.42705,0.93144
6804.49833,0.93025
6802.56962,0.93139
6800.64091,0.93543
6798.71220,0.93800
6796.78348,0.93503
6794.85477,0.92979
6792.92606,0.92734
6790.99735,0.92938
6789.06863,0.93380
6787.13992,0.93739
6785.21121,0.93895
6783.28249,0.93846
6781.35378,0.93806
6779.42507,0.93991
6777.49636,0.94073
6775.56764,0.93646
6773.63893,0.93036
6771.71022,0.92849
6769.78151,0.93136
6767.85279,0.93497
6765.92408,0.93686
6763.99537,0.93848
6762.06666,0.94064
6760.13794,0.94107
6758.20923,0.93814
6756.28052,0.93236
6754.35180,0.92717
6752.42309,0.92667
6750.49438,0.92866
6748.56567,0.92741
6746.63695,0.92329
6744.70824,0.92192
6742.77953,0.92581
6740.85082,0.93186
6738.92210,0.93524
6736.99339,0.93540
6735.06468,0.93629
6733.13597,0.93800
6731.20725,0.93647
6729.27854,0.93152
6727.34983,0.92755
6725.42111,0.92828
6723.49240,0.93175
6721.56369,0.93193
6719.63498,0.92825
6717.70626,0.92757
6715.77755,0.93265
6713.84884,0.93683
6711.92013,0.93598
6709.99141,0.93462
6708.06270,0.93678
6706.13399,0.94057
6704.20528,0.94000
6702.27656,0.93513
6700.34785,0.93354
6698.41914,0.93579
6696.49042,0.93783
6694.56171,0.94023
6692.63300,0.94312
6690.70429,0.94303
6688.77557,0.93856
6686.84686,0.93490
6684.91815,0.93433
6682.98944,0.93296
6681.06072,0.93201
6679.13201,0.93331
6677.20330,0.93324
6675.27458,0.93213
6673.34587,0.93319
6671.41716,0.93510
6669.48845,0.93487
6667.55973,0.93299
6665.63102,0.93341
6663.70231,0.93564
6661.77360,0.93580
6659.84488,0.93513
6657.91617,0.93528
6655.98746,0.93595
6654.05875,0.93751
6652.13003,0.93912
6650.20132,0.93925
6648.27261,0.93742
6646.34389,0.93567
6644.41518,0.93576
6642.48647,0.93637
6640.55776,0.93722
6638.62904,0.94021
6636.70033,0.94417
6634.77162,0.94452
6632.84291,0.94046
6630.91419,0.93736
6628.98548,0.93902
6627.05677,0.94165
6625.12806,0.94141
6623.19934,0.94129
6621.27063,0.94313
6619.34192,0.94376
6617.41320,0.94174
6615.48449,0.94050
6613.55578,0.94115
6611.62707,0.93987
6609.69835,0.93754
6607.76964,0.93834
6605.84093,0.94031
6603.91222,0.93914
6601.98350,0.93589
6600.05479,0.93498
6598.12608,0.93655
6596.19736,0.93600
6594.26865,0.93297
6592.33994,0.93200
6590.41123,0.93357
6588.48251,0.93493
6586.55380,0.93459
6584.62509,0.93444
6582.69638,0.93738
6580.76766,0.94037
6578.83895,0.93971
6576.91024,0.93698
6574.98153,0.93513
6573.05281,0.93590
6571.12410,0.93757
6569.19539,0.93735
6567.26667,0.93611
6565.33796,0.93625
6563.40925,0.93835
6561.48054,0.94072
6559.55182,0.94058
6557.62311,0.93847
6555.69440,0.93745
6553.76569,0.93746
6551.83697,0.93776
6549.90826,0.93670
6547.97955,0.93299
6546.05084,0.93099
6544.12212,0.93315
6542.19341,0.93627
6540.26470,0.93780
6538.33598,0.93766
6536.40727,0.93733
6534.47856,0.93807
6532.54985,0.93755
6530.62113,0.93371
6528.69242,0.93038
6526.76371,0.93067
6524.83500,0.93251
6522.90628,0.93398
6520.97757,0.93568
6519.04886,0.93773
6517.12015,0.93817
6515.19143,0.93701
6513.26272,0.93568
6511.33401,0.93542
6509.40529,0.93698
6507.47658,0.93663
6505.54787,0.93310
6503.61916,0.93190
6501.69044,0.93476
6499.76173,0.93755
6497.83302,0.93771
6495.90431,0.93583
6493.97559,0.93328
6492.04688,0.93146
6490.11817,0.93141
6488.18945,0.93361
6486.26074,0.93652
6484.33203,0.93703
6482.40332,0.93454
6480.47460,0.93173
6478.54589,0.93167
6476.61718,0.93421
6474.68847,0.93655
6472.75975,0.93667
6470.83104,0.93417
6468.90233,0.93019
6466.97362,0.92807
6465.04490,0.93077
6463.11619,0.93697
6461.18748,0.94288
6459.25876,0.94509
6457.33005,0.94243
6455.40134,0.93778
6453.47263,0.93568
6451.54391,0.93753
6449.61520,0.93905
6447.68649,0.93754
6445.75778,0.93599
6443.82906,0.93649
6441.90035,0.93810
6439.97164,0.94023
6438.04293,0.94267
6436.11421,0.94335
6434.18550,0.94243
6432.25679,0.94255
6430.32807,0.94223
6428.39936,0.93947
6426.47065,0.93653
6424.54194,0.93654
6422.61322,0.93876
6420.68451,0.94080
6418.75580,0.94210
6416.82709,0.94069
6414.89837,0.93746
6412.96966,0.93610
6411.04095,0.93588
6409.11224,0.93751
6407.18352,0.94274
6405.25481,0.94746
6403.32610,0.94809
6401.39738,0.94469
6399.46867,0.93953
6397.53996,0.93757
6395.61125,0.93910
6393.68253,0.94030
6391.75382,0.94124
6389.82511,0.94151
6387.89640,0.93956
6385.96768,0.93657
6384.03897,0.93470
6382.11026,0.93464
6380.18154,0.93351
6378.25283,0.93099
6376.32412,0.93091
6374.39541,0.93291
6372.46669,0.93468
6370.53798,0.93641
6368.60927,0.93881
6366.68056,0.94134
6364.75184,0.94255
6362.82313,0.94133
6360.89442,0.93796
6358.96571,0.93643
6357.03699,0.93906
6355.10828,0.94115
6353.17957,0.93868
6351.25085,0.93463
6349.32214,0.93489
6347.39343,0.93892
6345.46472,0.94060
6343.53600,0.93948
6341.60729,0.93953
6339.67858,0.94120
6337.74987,0.94266
6335.82115,0.94262
6333.89244,0.94063
6331.96373,0.93796
6330.03502,0.93585
6328.10630,0.93491
6326.17759,0.93541
6324.24888,0.93634
6322.32016,0.93771
6320.39145,0.93905
6318.46274,0.93843
6316.53403,0.93670
6314.60531,0.93569
6312.67660,0.93539
6310.74789,0.93513
6308.81918,0.93484
6306.89046,0.93628
6304.96175,0.94108
6303.03304,0.94505
6301.10432,0.94292
6299.17561,0.93826
6297.24690,0.93665
6295.31819,0.93652
6293.38947,0.93569
6291.46076,0.93695
6289.53205,0.94022
6287.60334,0.94064
6285.67462,0.93829
6283.74591,0.93738
6281.81720,0.93950
6279.88849,0.94199
6277.95977,0.94128
6276.03106,0.93971
6274.10235,0.94043
6272.17363,0.94115
6270.24492,0.94033
6268.31621,0.93871
6266.38750,0.93663
6264.45878,0.93604
6262.53007,0.93778
6260.60136,0.93881
6258.67265,0.93781
6256.74393,0.93600
6254.81522,0.93462
6252.88651,0.93468
6250.95780,0.93545
6249.02908,0.93582
6247.10037,0.93514
6245.17166,0.93383
6243.24294,0.93406
6241.31423,0.93504
6239.38552,0.93494
6237.45681,0.93524
6235.52809,0.93587
6233.59938,0.93573
6231.67067,0.93689
6229.74196,0.93939
6227.81324,0.94022
6225.88453,0.93892
6223.95582,0.93694
6222.02711,0.93587
6220.09839,0.93648
6218.16968,0.93744
6216.24097,0.93796
6214.31225,0.93797
6212.38354,0.93720
6210.45483,0.93654
6208.52612,0.93597
6206.59740,0.93471
6204.66869,0.93424
6202.73998,0.93512
6200.81127,0.93494
6198.88255,0.93258
6196.95384,0.93037
6195.02513,0.93088
6193.09641,0.93339
6191.16770,0.93594
6189.23899,0.93824
6187.31028,0.93947
6185.38156,0.93859
6183.45285,0.93713
6181.52414,0.93712
6179.59543,0.93742
6177.66671,0.93559
6175.73800,0.93335
6173.80929,0.93371
6171.88058,0.93456
6169.95186,0.93286
6168.02315,0.92950
6166.09444,0.92834
6164.16572,0.93123
6162.23701,0.93406
6160.30830,0.93341
6158.37959,0.93207
6156.45087,0.93234
6154.52216,0.93116
6152.59345,0.92797
6150.66474,0.92726
6148.73602,0.92944
6146.80731,0.93176
6144.87860,0.93354
6142.94989,0.93470
6141.02117,0.93546
6139.09246,0.93575
6137.16375,0.93516
6135.23503,0.93331
6133.30632,0.93066
6131.37761,0.92934
6129.44890,0.93044
6127.52018,0.93280
6125.59147,0.93437
6123.66276,0.93375
6121.73405,0.93234
6119.80533,0.93171
6117.87662,0.93082
6115.94791,0.93008
6114.01919,0.93056
6112.09048,0.93053
6110.16177,0.92976
6108.23306,0.92991
6106.30434,0.93104
6104.37563,0.93197
6102.44692,0.93192
6100.51821,0.93114
6098.58949,0.92985
6096.66078,0.92856
6094.73207,0.92825
6092.80336,0.92835
6090.87464,0.92834
6088.94593,0.92938
6087.01722,0.93093
6085.08850,0.93017
6083.15979,0.92808
6081.23108,0.92824
6079.30237,0.92972
6077.37365,0.93003
6075.44494,0.92982
6073.51623,0.92973
6071.58752,0.92944
6069.65880,0.92963
6067.73009,0.93050
6065.80138,0.93089
6063.87267,0.93007
6061.94395,0.92833
6060.01524,0.92684
6058.08653,0.92618
6056.15781,0.92572
6054.22910,0.92588
6052.30039,0.92797
6050.37168,0.93086
6048.44296,0.93098
6046.51425,0.92786
6044.58554,0.92491
6042.65683,0.92391
6040.72811,0.92471
6038.79940,0.92627
6036.87069,0.92685
6034.94198,0.92702
6033.01326,0.92737
6031.08455,0.92671
6029.15584,0.92532
6027.22712,0.92350
6025.29841,0.92227
6023.36970,0.92360
6021.44099,0.92468
6019.51227,0.92277
6017.58356,0.92108
6015.65485,0.92223
6013.72614,0.92478
6011.79742,0.92582
6009.86871,0.92411
6007.94000,0.92164
6006.01128,0.92140
6004.08257,0.92316
6002.15386,0.92396
6000.22515,0.92350
5998.29643,0.92347
5996.36772,0.92304
5994.43901,0.92198
5992.51030,0.92193
5990.58158,0.92215
5988.65287,0.92205
5986.72416,0.92292
5984.79545,0.92355
5982.86673,0.92260
5980.93802,0.92138
5979.00931,0.91983
5977.08059,0.91752
5975.15188,0.91579
5973.22317,0.91562
5971.29446,0.91792
5969.36574,0.92160
5967.43703,0.92313
5965.50832,0.92223
5963.57961,0.92023
5961.65089,0.91725
5959.72218,0.91554
5957.79347,0.91630
5955.86476,0.91673
5953.93604,0.91532
5952.00733,0.91350
5950.07862,0.91235
5948.14990,0.91226
5946.22119,0.91250
5944.29248,0.91180
5942.36377,0.91195
5940.43505,0.91401
5938.50634,0.91505
5936.57763,0.91399
5934.64892,0.91224
5932.72020,0.91050
5930.79149,0.90970
5928.86278,0.90982
5926.93407,0.90949
5925.00535,0.90928
5923.07664,0.91074
5921.14793,0.91306
5919.21921,0.91442
5917.29050,0.91420
5915.36179,0.91278
5913.43308,0.91088
5911.50436,0.90837
5909.57565,0.90571
5907.64694,0.90529
5905.71823,0.90686
5903.78951,0.90746
5901.86080,0.90652
5899.93209,0.90468
5898.00337,0.90296
5896.07466,0.90242
5894.14595,0.90166
5892.21724,0.89981
5890.28852,0.89842
5888.35981,0.89776
5886.43110,0.89761
5884.50239,0.89807
5882.57367,0.89725
5880.64496,0.89369
5878.71625,0.88940
5876.78754,0.88673
5874.85882,0.88609
5872.93011,0.88590
5871.00140,0.88324
5869.07268,0.87864
5867.14397,0.87552
5865.21526,0.87414
5863.28655,0.87256
5861.35783,0.87024
5859.42912,0.86745
5857.50041,0.86421
5855.57170,0.86037
5853.64298,0.85644
5851.71427,0.85341
5849.78556,0.85116
5847.85685,0.84872
5845.92813,0.84620
5843.99942,0.84396
5842.07071,0.84098
5840.14199,0.83664
5838.21328,0.83228
5836.28457,0.83015
5834.35586,0.83022
5832.42714,0.82933
5830.49843,0.82573
5828.56972,0.82037
5826.64101,0.81490
5824.71229,0.81150
5822.78358,0.81029
5820.85487,0.80852
5818.92615,0.80539
5816.99744,0.80242
5815.06873,0.80022
5813.14002,0.79822
5811.21130,0.79515
5809.28259,0.79119
5807.35388,0.78817
5805.42517,0.78588
5803.49645,0.78261
5801.56774,0.77846
5799.63903,0.77497
5797.71032,0.77207
5795.78160,0.76837
5793.85289,0.76390
5791.92418,0.75941
5789.99546,0.75452
5788.06675,0.74861
5786.13804,0.74168
5784.20933,0.73446
5782.28061,0.72774
5780.35190,0.72195
5778.42319,0.71844
5776.49448,0.71718
5774.56576,0.71652
5772.63705,0.71889
5770.70834,0.72713
5768.77963,0.73820
5766.85091,0.74871
5764.92220,0.75852
5762.99349,0.76821
5761.06477,0.77835
5759.13606,0.78819
5757.20735,0.79608
5755.27864,0.80288
5753.34992,0.81000
5751.42121,0.81665
5749.49250,0.82273
5747.56379,0.82866
5745.63507,0.83334
5743.70636,0.83657
5741.77765,0.83925
5739.84894,0.84172
5737.92022,0.84411
5735.99151,0.84584
5734.06280,0.84651
5732.13408,0.84792
5730.20537,0.85141
5728.27666,0.85502
5726.34795,0.85622
5724.41923,0.85588
5722.49052,0.85654
5720.56181,0.85772
5718.63310,0.85710
5716.70438,0.85545
5714.77567,0.85544
5712.84696,0.85677
5710.91824,0.85641
5708.98953,0.85380
5707.06082,0.85146
5705.13211,0.84975
5703.20339,0.84762
5701.27468,0.84575
5699.34597,0.84484
5697.41726,0.84497
5695.48854,0.84441
5693.55983,0.84110
5691.63112,0.83718
5689.70241,0.83512
5687.77369,0.83387
5685.84498,0.83239
5683.91627,0.83039
5681.98755,0.82772
5680.05884,0.82614
5678.13013,0.82637
5676.20142,0.82542
5674.27270,0.82240
5672.34399,0.81922
5670.41528,0.81594
5668.48657,0.81269
5666.55785,0.81099
5664.62914,0.81130
5662.70043,0.81295
5660.77172,0.81582
5658.84300,0.82021
5656.91429,0.82580
5654.98558,0.83185
5653.05686,0.83708
5651.12815,0.84040
5649.19944,0.84302
5647.27073,0.84678
5645.34201,0.85115
5643.41330,0.85461
5641.48459,0.85694
5639.55588,0.85837
5637.62716,0.85895
5635.69845,0.85954
5633.76974,0.86078
5631.84103,0.86194
5629.91231,0.86312
5627.98360,0.86503
5626.05489,0.86678
5624.12617,0.86751
5622.19746,0.86781
5620.26875,0.86860
5618.34004,0.86958
5616.41132,0.86983
5614.48261,0.86965
5612.55390,0.86997
5610.62519,0.87078
5608.69647,0.87123
5606.76776,0.87155
5604.83905,0.87252
5602.91033,0.87344
5600.98162,0.87412
5599.05291,0.87502
5597.12420,0.87556
5595.19548,0.87577
5593.26677,0.87639
5591.33806,0.87673
5589.40935,0.87631
5587.48063,0.87609
5585.55192,0.87626
5583.62321,0.87650
5581.69450,0.87689
5579.76578,0.87671
5577.83707,0.87487
5575.90836,0.87236
5573.97964,0.87207
5572.05093,0.87438
5570.12222,0.87652
5568.19351,0.87581
5566.26479,0.87227
5564.33608,0.86963
5562.40737,0.87027
5560.47866,0.87158
5558.54994,0.87133
5556.62123,0.87044
5554.69252,0.86984
5552.76381,0.86944
5550.83509,0.86954
5548.90638,0.87049
5546.97767,0.87207
5545.04895,0.87379
5543.12024,0.87482
5541.19153,0.87424
5539.26282,0.87238
5537.33410,0.87116
5535.40539,0.87200
5533.47668,0.87367
5531.54797,0.87417
5529.61925,0.87326
5527.69054,0.87221
5525.76183,0.87182
5523.83311,0.87138
5521.90440,0.87135
5519.97569,0.87242
5518.04698,0.87196
5516.11826,0.87013
5514.18955,0.87076
5512.26084,0.87226
5510.33213,0.87017
5508.40341,0.86650
5506.47470,0.86646
5504.54599,0.86946
5502.61728,0.87228
5500.68856,0.87339
5498.75985,0.87205
5496.83114,0.86845
5494.90242,0.86265
5492.97371,0.85811
5491.04500,0.85919
5489.11629,0.86346
5487.18757,0.86845
5485.25886,0.87362
5483.33015,0.87686
5481.40144,0.87778
5479.47272,0.87610
5477.54401,0.86946
5475.61530,0.86282
5473.68659,0.86536
5471.75787,0.87033
5469.82916,0.86965
5467.90045,0.86793
5465.97173,0.86894
5464.04302,0.86977
5462.11431,0.86912
5460.18560,0.86964
5458.25688,0.87200
5456.32817,0.87461
5454.39946,0.87706
5452.47075,0.87663
5450.54203,0.87183
5448.61332,0.86545
5446.68461,0.86022
5444.75590,0.85838
5442.82718,0.85978
5440.89847,0.86436
5438.96976,0.87097
5437.04104,0.87194
5435.11233,0.86804
5433.18362,0.86792
5431.25491,0.86740
5429.32619,0.86386
5427.39748,0.86708
5425.46877,0.87635
5423.54006,0.88359
5421.61134,0.88709
5419.68263,0.88696
5417.75392,0.88216
5415.82520,0.87183
5413.89649,0.86002
5411.96778,0.85557
5410.03907,0.86171
5408.11035,0.87283
5406.18164,0.88045
5404.25293,0.88312
5402.32422,0.88569
5400.39550,0.88795
5398.46679,0.88549
5396.53808,0.87862
5394.60937,0.87408
5392.68065,0.87807
5390.75194,0.88546
5388.82323,0.88630
5386.89451,0.88075
5384.96580,0.87929
5383.03709,0.88504
5381.10838,0.88847
5379.17966,0.88330
5377.25095,0.87420
5375.32224,0.87310
5373.39353,0.88177
5371.46481,0.89064
5369.53610,0.89458
5367.60739,0.89408
5365.67868,0.89029
5363.74996,0.88729
5361.82125,0.89033
5359.89254,0.89589
5357.96382,0.89561
5356.03511,0.88607
5354.10640,0.87491
5352.17769,0.87449
5350.24897,0.87985
5348.32026,0.88015
5346.39155,0.87483
5344.46284,0.87219
5342.53412,0.87726
5340.60541,0.87840
5338.67670,0.87279
5336.74799,0.87494
5334.81927,0.88452
5332.89056,0.89056
5330.96185,0.89156
5329.03313,0.88864
5327.10442,0.88673
5325.17571,0.89127
5323.24700,0.89731
5321.31828,0.89993
5319.38957,0.89918
5317.46086,0.89680
5315.53215,0.89664
5313.60343,0.89929
5311.67472,0.89988
5309.74601,0.89520
5307.81729,0.88997
5305.88858,0.89098
5303.95987,0.89505
5302.03116,0.89635
5300.10244,0.89652
5298.17373,0.89890
5296.24502,0.90126
5294.31631,0.89957
5292.38759,0.89402
5290.45888,0.89084
5288.53017,0.89346
5286.60146,0.89506
5284.67274,0.89358
5282.74403,0.89332
5280.81532,0.89458
5278.88660,0.89691
5276.95789,0.89944
5275.02918,0.90055
5273.10047,0.90050
5271.17175,0.89878
5269.24304,0.89562
5267.31433,0.89173
5265.38562,0.88577
5263.45690,0.88129
5261.52819,0.88493
5259.59948,0.89239
5257.67077,0.89442
5255.74205,0.89109
5253.81334,0.89110
5251.88463,0.89336
5249.95591,0.88901
5248.02720,0.88095
5246.09849,0.87812
5244.16978,0.88291
5242.24106,0.89172
5240.31235,0.89748
5238.38364,0.89829
5236.45493,0.89727
5234.52621,0.89534
5232.59750,0.89306
5230.66879,0.89250
5228.74007,0.89139
5226.81136,0.88666
5224.88265,0.88492
5222.95394,0.89087
5221.02522,0.89581
5219.09651,0.89530
5217.16780,0.89512
5215.23909,0.89807
5213.31037,0.90019
5211.38166,0.89747
5209.45295,0.88864
5207.52424,0.87983
5205.59552,0.88195
5203.66681,0.89225
5201.73810,0.89896
5199.80938,0.89766
5197.88067,0.89292
5195.95196,0.89268
5194.02325,0.89664
5192.09453,0.89814
5190.16582,0.89629
5188.23711,0.89428
5186.30840,0.89301
5184.37968,0.89354
5182.45097,0.89626
5180.52226,0.89843
5178.59355,0.89938
5176.66483,0.90085
5174.73612,0.90180
5172.80741,0.90017
5170.87869,0.89816
5168.94998,0.89877
5167.02127,0.89928
5165.09256,0.89746
5163.16384,0.89661
5161.23513,0.89758
5159.30642,0.89727
5157.37771,0.89597
5155.44899,0.89647
5153.52028,0.89840
5151.59157,0.89941
5149.66286,0.90003
5147.73414,0.90162
5145.80543,0.90253
5143.87672,0.90161
5141.94800,0.90096
5140.01929,0.90215
5138.09058,0.90381
5136.16187,0.90449
5134.23315,0.90422
5132.30444,0.90341
5130.37573,0.90270
5128.44702,0.90310
5126.51830,0.90453
5124.58959,0.90560
5122.66088,0.90563
5120.73216,0.90526
5118.80345,0.90517
5116.87474,0.90519
5114.94603,0.90478
5113.01731,0.90415
5111.08860,0.90415
5109.15989,0.90507
5107.23118,0.90610
5105.30246,0.90655
5103.37375,0.90655
5101.44504,0.90605
5099.51633,0.90501
5097.58761,0.90406
5095.65890,0.90397
5093.73019,0.90485
5091.80147,0.90560
5089.87276,0.90553
5087.94405,0.90528
5086.01534,0.90552
5084.08662,0.90612
5082.15791,0.90658
5080.22920,0.90687
5078.30049,0.90707
5076.37177,0.90679
5074.44306,0.90624
5072.51435,0.90612
5070.58564,0.90655
5068.65692,0.90694
5066.72821,0.90669
5064.79950,0.90609
5062.87078,0.90627
5060.94207,0.90725
5059.01336,0.90761
5057.08465,0.90730
5055.15593,0.90722
5053.22722,0.90706
5051.29851,0.90662
5049.36980,0.90650
5047.44108,0.90708
5045.51237,0.90826
5043.58366,0.90922
5041.65495,0.90903
5039.72623,0.90805
5037.79752,0.90761
5035.86881,0.90774
5033.94009,0.90752
5032.01138,0.90715
5030.08267,0.90719
5028.15396,0.90757
5026.22524,0.90813
5024.29653,0.90848
5022.36782,0.90854
5020.43911,0.90876
5018.51039,0.90909
5016.58168,0.90904
5014.65297,0.90832
5012.72425,0.90723
5010.79554,0.90655
5008.86683,0.90688
5006.93812,0.90781
5005.00940,0.90822
5003.08069,0.90814
5001.15198,0.90823
4999.22327,0.90801
4997.29455,0.90705
4995.36584,0.90596
4993.43713,0.90511
4991.50842,0.90449
4989.57970,0.90434
4987.65099,0.90468
4985.72228,0.90531
4983.79356,0.90551
4981.86485,0.90462
4979.93614,0.90331
4978.00743,0.90244
4976.07871,0.90245
4974.15000,0.90334
4972.22129,0.90405
4970.29258,0.90384
4968.36386,0.90313
4966.43515,0.90274
4964.50644,0.90284
4962.57773,0.90301
4960.64901,0.90362
4958.72030,0.90488
4956.79159,0.90558
4954.86287,0.90517
4952.93416,0.90486
4951.00545,0.90534
4949.07674,0.90603
4947.14802,0.90677
4945.21931,0.90768
4943.29060,0.90862
4941.36189,0.90934
4939.43317,0.90937
4937.50446,0.90887
4935.57575,0.90835
4933.64703,0.90799
4931.71832,0.90804
4929.78961,0.90820
4927.86090,0.90776
4925.93218,0.90714
4924.00347,0.90719
4922.07476,0.90802
4920.14605,0.90915
4918.21733,0.90997
4916.28862,0.91030
4914.35991,0.90992
4912.43120,0.90850
4910.50248,0.90658
4908.57377,0.90553
4906.64506,0.90618
4904.71634,0.90770
4902.78763,0.90850
4900.85892,0.90853
4898.93021,0.90890
4897.00149,0.90941
4895.07278,0.90892
4893.14407,0.90770
4891.21536,0.90717
4889.28664,0.90755
4887.35793,0.90781
4885.42922,0.90803
4883.50051,0.90890
4881.57179,0.90933
4879.64308,0.90840
4877.71437,0.90741
4875.78565,0.90724
4873.85694,0.90755
4871.92823,0.90804
4869.99952,0.90811
4868.07080,0.90811
4866.14209,0.90878
4864.21338,0.90913
4862.28467,0.90882
4860.35595,0.90910
4858.42724,0.90975
4856.49853,0.90960
4854.56982,0.90914
4852.64110,0.90917
4850.71239,0.90909
4848.78368,0.90871
4846.85496,0.90887
4844.92625,0.90951
4842.99754,0.90971
4841.06883,0.90965
4839.14011,0.91018
4837.21140,0.91108
4835.28269,0.91153
4833.35398,0.91150
4831.42526,0.91130
4829.49655,0.91118
4827.56784,0.91129
4825.63912,0.91145
4823.71041,0.91171
4821.78170,0.91230
4819.85299,0.91308
4817.92427,0.91345
4815.99556,0.91297
4814.06685,0.91229
4812.13814,0.91213
4810.20942,0.91207
4808.28071,0.91175
4806.35200,0.91164
4804.42329,0.91203
4802.49457,0.91264
4800.56586,0.91312
4798.63715,0.91328
4796.70843,0.91314
4794.77972,0.91279
4792.85101,0.91226
4790.92230,0.91200
4788.99358,0.91205
4787.06487,0.91181
4785.13616,0.91160
4783.20745,0.91212
4781.27873,0.91281
4779.35002,0.91316
4777.42131,0.91329
4775.49260,0.91305
4773.56388,0.91275
4771.63517,0.91290
4769.70646,0.91292
4767.77774,0.91203
4765.84903,0.91068
4763.92032,0.90965
4761.99161,0.90940
4760.06289,0.90996
4758.13418,0.91069
4756.20547,0.91091
4754.27676,0.91096
4752.34804,0.91138
4750.41933,0.91195
4748.49062,0.91204
4746.56191,0.91156
4744.63319,0.91130
4742.70448,0.91147
4740.77577,0.91160
4738.84705,0.91173
4736.91834,0.91182
4734.98963,0.91185
4733.06092,0.91197
4731.13220,0.91196
4729.20349,0.91171
4727.27478,0.91148
4725.34607,0.91147
4723.41735,0.91146
4721.48864,0.91139
4719.55993,0.91152
4717.63121,0.91201
4715.70250,0.91267
4713.77379,0.91300
4711.84508,0.91267
4709.91636,0.91188
4707.98765,0.91122
4706.05894,0.91096
4704.13023,0.91069
4702.20151,0.91003
4700.27280,0.90909
4698.34409,0.90824
4696.41538,0.90789
4694.48666,0.90786
4692.55795,0.90736
4690.62924,0.90640
4688.70052,0.90572
4686.77181,0.90509
4684.84310,0.90411
4682.91439,0.90314
4680.98567,0.90224
4679.05696,0.90108
4677.12825,0.89988
4675.19954,0.89961
4673.27082,0.90065
4671.34211,0.90185
4669.41340,0.90243
4667.48469,0.90318
4665.55597,0.90416
4663.62726,0.90459
4661.69855,0.90466
4659.76983,0.90517
4657.84112,0.90642
4655.91241,0.90792
4653.98370,0.90892
4652.05498,0.90957
4650.12627,0.91038
4648.19756,0.91105
4646.26885,0.91119
4644.34013,0.91124
4642.41142,0.91145
4640.48271,0.91159
4638.55399,0.91210
4636.62528,0.91317
4634.69657,0.91390
4632.76786,0.91405
4630.83914,0.91404
4628.91043,0.91375
4626.98172,0.91321
4625.05301,0.91269
4623.12429,0.91233
4621.19558,0.91231
4619.26687,0.91280
4617.33816,0.91370
4615.40944,0.91429
4613.48073,0.91430
4611.55202,0.91409
4609.62330,0.91373
4607.69459,0.91312
4605.76588,0.91229
4603.83717,0.91168
4601.90845,0.91180
4599.97974,0.91228
4598.05103,0.91208
4596.12232,0.91121
4594.19360,0.91082
4592.26489,0.91136
4590.33618,0.91202
4588.40747,0.91229
4586.47875,0.91249
4584.55004,0.91262
4582.62133,0.91256
4580.69261,0.91252
4578.76390,0.91236
4576.83519,0.91210
4574.90648,0.91196
4572.97776,0.91189
4571.04905,0.91175
4569.12034,0.91167
4567.19163,0.91154
4565.26291,0.91096
4563.33420,0.91049
4561.40549,0.91088
4559.47678,0.91119
4557.54806,0.91080
4555.61935,0.91059
4553.69064,0.91064
4551.76192,0.91017
4549.83321,0.90942
4547.90450,0.90901
4545.97579,0.90903
4544.04707,0.90907
4542.11836,0.90872
4540.18965,0.90815
4538.26094,0.90751
4536.33222,0.90669
4534.40351,0.90615
4532.47480,0.90585
4530.54608,0.90506
4528.61737,0.90415
4526.68866,0.90401
4524.75995,0.90429
4522.83123,0.90399
4520.90252,0.90294
4518.97381,0.90169
4517.04510,0.90060
4515.11638,0.89969
4513.18767,0.89922
4511.25896,0.89922
4509.33025,0.89903
4507.40153,0.89818
4505.47282,0.89696
4503.54411,0.89549
4501.61539,0.89384
4499.68668,0.89248
4497.75797,0.89141
4495.82926,0.89051
4493.90054,0.88985
4491.97183,0.88901
4490.04312,0.88767
4488.11441,0.88639
4486.18569,0.88557
4484.25698,0.88463
4482.32827,0.88335
4480.39956,0.88199
4478.47084,0.88067
4476.54213,0.87952
4474.61342,0.87856
4472.68470,0.87756
4470.75599,0.87630
4468.82728,0.87473
4466.89857,0.87310
4464.96985,0.87149
4463.04114,0.86944
4461.11243,0.86682
4459.18372,0.86409
4457.25500,0.86152
4455.32629,0.85920
4453.39758,0.85683
4451.46886,0.85405
4449.54015,0.85116
4447.61144,0.84819
4445.68273,0.84483
4443.75401,0.84124
4441.82530,0.83792
4439.89659,0.83471
4437.96788,0.83092
4436.03916,0.82689
4434.11045,0.82407
4432.18174,0.82258
4430.25303,0.82095
4428.32431,0.81877
4426.39560,0.81691
4424.46689,0.81534
4422.53817,0.81321
4420.60946,0.81046
4418.68075,0.80768
4416.75204,0.80485
4414.82332,0.80168
4412.89461,0.79813
4410.96590,0.79415
4409.03719,0.78967
4407.10847,0.78484
4405.17976,0.78011
4403.25105,0.77565
4401.32234,0.77088
4399.39362,0.76544
4397.46491,0.75957
4395.53620,0.75381
4393.60748,0.74840
4391.67877,0.74305
4389.75006,0.73741
4387.82135,0.73134
4385.89263,0.72470
4383.96392,0.71761
4382.03521,0.71050
4380.10650,0.70347
4378.17778,0.69612
4376.24907,0.68803
4374.32036,0.67949
4372.39165,0.67128
4370.46293,0.66343
4368.53422,0.65535
4366.60551,0.64658
4364.67679,0.63688
4362.74808,0.62636
4360.81937,0.61502
4358.89066,0.60234
4356.96194,0.58786
4355.03323,0.57155
4353.10452,0.55326
4351.17581,0.53293
4349.24709,0.51127
4347.31838,0.48904
4345.38967,0.46666
4343.46095,0.44523
4341.53224,0.42608
4339.60353,0.40936
4337.67482,0.39426
4335.74610,0.37974
4333.81739,0.36445
4331.88868,0.34713
4329.95997,0.32675
4328.03125,0.30328
4326.10254,0.27915
4324.17383,0.26122
4322.24512,0.26012
4320.31640,0.28389
4318.38769,0.33014
4316.45898,0.38677
4314.53026,0.44148
4312.60155,0.48775
4310.67284,0.52401
4308.74413,0.55150
4306.81541,0.57209
4304.88670,0.58687
4302.95799,0.59703
4301.02928,0.60396
4299.10056,0.60828
4297.17185,0.61023
4295.24314,0.61013
4293.31443,0.60829
4291.38571,0.60523
4289.45700,0.60129
4287.52829,0.59645
4285.59957,0.59119
4283.67086,0.58633
4281.74215,0.58169
4279.81344,0.57639
4277.88472,0.56999
4275.95601,0.56228
4274.02730,0.55283
4272.09859,0.54163
4270.16987,0.52876
4268.24116,0.51367
4266.31245,0.49589
4264.38374,0.47577
4262.45502,0.45408
4260.52631,0.43106
4258.59760,0.40721
4256.66888,0.38467
4254.74017,0.36668
4252.81146,0.35743
4250.88275,0.36209
4248.95403,0.38312
4247.02532,0.41609
4245.09661,0.45163
4243.16790,0.48207
4241.23918,0.50466
4239.31047,0.51973
4237.38176,0.52862
4235.45304,0.53279
4233.52433,0.53318
4231.59562,0.53041
4229.66691,0.52521
4227.73819,0.51839
4225.80948,0.51093
4223.88077,0.50452
4221.95206,0.50040
4220.02334,0.49852
4218.09463,0.49856
4216.16592,0.50022
4214.23721,0.50248
4212.30849,0.50401
4210.37978,0.50399
4208.45107,0.50217
4206.52235,0.49834
4204.59364,0.49266
4202.66493,0.48555
4200.73622,0.47723
4198.80750,0.46841
4196.87879,0.46062
4194.95008,0.45509
4193.02137,0.45190
4191.09265,0.45043
4189.16394,0.45024
4187.23523,0.45102
4185.30652,0.45236
4183.37780,0.45375
4181.44909,0.45474
4179.52038,0.45548
4177.59166,0.45648
4175.66295,0.45775
4173.73424,0.45895
4171.80553,0.46007
4169.87681,0.46125
4167.94810,0.46241
4166.01939,0.46364
4164.09068,0.46521
4162.16196,0.46723
4160.23325,0.46936
4158.30454,0.47101
4156.37582,0.47203
4154.44711,0.47278
4152.51840,0.47356
4150.58969,0.47465
4148.66097,0.47615
4146.73226,0.47787
4144.80355,0.47976
4142.87484,0.48170
4140.94612,0.48353
4139.01741,0.48532
4137.08870,0.48694
4135.15999,0.48838
4133.23127,0.48999
4131.30256,0.49177
4129.37385,0.49335
4127.44513,0.49470
4125.51642,0.49599
4123.58771,0.49724
4121.65900,0.49830
4119.73028,0.49931
4117.80157,0.50030
4115.87286,0.50089
4113.94415,0.50114
4112.01543,0.50139
4110.08672,0.50146
4108.15801,0.50109
4106.22930,0.50061
4104.30058,0.50063
4102.37187,0.50125
4100.44316,0.50229
4098.51444,0.50369
4096.58573,0.50580
4094.65702,0.50956
4092.72831,0.51531
4090.79959,0.52213
4088.87088,0.52962
4086.94217,0.53819
4085.01346,0.54700
4083.08474,0.55447
4081.15603,0.56052
4079.22732,0.56629
4077.29861,0.57214
4075.36989,0.57734
4073.44118,0.58140
4071.51247,0.58461
4069.58375,0.58769
4067.65504,0.59110
4065.72633,0.59439
4063.79762,0.59704
4061.86890,0.59915
4059.94019,0.60125
4058.01148,0.60380
4056.08277,0.60655
4054.15405,0.60903
4052.22534,0.61113
4050.29663,0.61321
4048.36791,0.61506
4046.43920,0.61614
4044.51049,0.61764
4042.58178,0.62057
4040.65306,0.62379
4038.72435,0.62638
4036.79564,0.62861
4034.86693,0.63053
4032.93821,0.63203
4031.00950,0.63323
4029.08079,0.63384
4027.15208,0.63352
4025.22336,0.63344
4023.29465,0.63503
4021.36594,0.63821
4019.43722,0.64344
4017.50851,0.65141
4015.57980,0.66040
4013.65109,0.66823
4011.72237,0.67407
4009.79366,0.67809
4007.86495,0.68163
4005.93624,0.68527
4004.00752,0.68793
4002.07881,0.68950
4000.15010,0.69075
3998.22139,0.69109
3996.29267,0.69011
3994.36396,0.68900
3992.43525,0.68823
3990.50653,0.68775
3988.57782,0.68792
3986.64911,0.68773
3984.72040,0.68620
3982.79168,0.68438
3980.86297,0.68343
3978.93426,0.68294
3977.00555,0.68187
3975.07683,0.68104
3973.14812,0.68227
3971.21941,0.68529
3969.29070,0.68882
3967.36198,0.69212
3965.43327,0.69408
3963.50456,0.69410
3961.57584,0.69417
3959.64713,0.69583
3957.71842,0.69800
3955.78971,0.69975
3953.86099,0.69962
3951.93228,0.69614
3950.00357,0.69178
3948.07486,0.69160
3946.14614,0.69404
3944.21743,0.69399
3942.28872,0.69437
3940.36000,0.69842
3938.43129,0.70171
3936.50258,0.70049
3934.57387,0.69384
3932.64515,0.68491
3930.71644,0.68148
3928.78773,0.68379
3926.85902,0.68331
3924.93030,0.67930
3923.00159,0.67910
3921.07288,0.68094
3919.14417,0.67912
3917.21545,0.67829
3915.28674,0.68413
3913.35803,0.69157
3911.42931,0.69537
3909.50060,0.69433
3907.57189,0.68603
3905.64318,0.67045
3903.71446,0.65778
3901.78575,0.65721
3899.85704,0.66501
3897.92833,0.67726
3895.99961,0.68564
3894.07090,0.68346
3892.14219,0.67753
3890.21348,0.68064
3888.28476,0.68467
3886.35605,0.68021
3884.42734,0.67452
3882.49862,0.67332
3880.56991,0.67718
3878.64120,0.68678
3876.71249,0.69028
3874.78377,0.68304
3872.85506,0.67289
3870.92635,0.66814
3868.99764,0.67306
3867.06892,0.67878
3865.14021,0.67752
3863.21150,0.68066
3861.28278,0.69308
3859.35407,0.69982
3857.42536,0.69362
3855.49665,0.67663
3853.56793,0.66178
3851.63922,0.67531
3849.71051,0.69765
3847.78180,0.71007
3845.85308,0.70974
3843.92437,0.69928
3841.99566,0.68483
3840.06695,0.67112
3838.13823,0.66671
3836.20952,0.67648
3834.28081,0.68866
3832.35209,0.69791
3830.42338,0.70417
3828.49467,0.70506
3826.56596,0.70182
3824.63724,0.69639
3822.70853,0.68486
3820.77982,0.67406
3818.85111,0.67760
3816.92239,0.68701
3814.99368,0.70214
3813.06497,0.71824
3811.13626,0.72474
3809.20754,0.71969
3807.27883,0.70984
3805.35012,0.70469
3803.42140,0.69861
3801.49269,0.69358
3799.56398,0.70173
3797.63527,0.71455
3795.70655,0.72967
3793.77784,0.74508
3791.84913,0.75364
3789.92042,0.75527
3787.99170,0.75165
3786.06299,0.74535
3784.13428,0.74328
3782.20557,0.74407
3780.27685,0.74220
3778.34814,0.74544
3776.41943,0.75546
3774.49071,0.76023
3772.56200,0.75457
3770.63329,0.74411
3768.70458,0.74001
3766.77586,0.74261
3764.84715,0.74724
3762.91844,0.74983
3760.98973,0.74398
3759.06101,0.73471
3757.13230,0.73326
3755.20359,0.73139
3753.27487,0.71656
3751.34616,0.69375
3749.41745,0.69060
3747.48874,0.70064
3745.56002,0.70749
3743.63131,0.71604
3741.70260,0.72344
3739.77389,0.72254
3737.84517,0.71118
3735.91646,0.69540
3733.98775,0.69692
3732.05904,0.71737
3730.13032,0.73433
3728.20161,0.73786
3726.27290,0.73187
3724.34418,0.72771
3722.41547,0.73150
3720.48676,0.74053
3718.55805,0.75003
3716.62933,0.75389
3714.70062,0.74601
3712.77191,0.72537
3710.84320,0.71255
3708.91448,0.72596
3706.98577,0.74230
3705.05706,0.74697
3703.12835,0.74269
3701.19963,0.74047
3699.27092,0.74415
3697.34221,0.74532
3695.41349,0.74046
3693.48478,0.72835
3691.55607,0.70795
3689.62736,0.69420
3687.69864,0.70758
3685.76993,0.72742
3683.84122,0.73717
3681.91251,0.73565
3679.98379,0.72380
3678.05508,0.70526
3676.12637,0.68866
3674.19766,0.68939
3672.26894,0.69378
3670.34023,0.69367
3668.41152,0.70658
3666.48280,0.72491
3664.55409,0.73367
3662.62538,0.73333
3660.69667,0.72752
3658.76795,0.71768
3656.83924,0.70639
3654.91053,0.69927
3652.98182,0.68961
3651.05310,0.66498
3649.12439,0.63920
3647.19568,0.65133
3645.26696,0.67571
3643.33825,0.68999
3641.40954,0.69732
3639.48083,0.70276
3637.55211,0.70696
3635.62340,0.70809
3633.69469,0.70486
3631.76598,0.69625
3629.83726,0.68387
3627.90855,0.68516
3625.97984,0.70065
3624.05113,0.70859
3622.12241,0.70308
3620.19370,0.68779
3618.26499,0.67692
3616.33627,0.67397
3614.40756,0.66875
3612.47885,0.66258
3610.55014,0.65682
3608.62142,0.64982
3606.69271,0.64857
3604.76400,0.65249
3602.83529,0.65468
3600.90657,0.65901
3598.97786,0.67198
3597.04915,0.68992
3595.12044,0.70979
3593.19172,0.73149
3591.26301,0.74593
3589.33430,0.74635
3587.40558,0.74530
3585.47687,0.75967
3583.54816,0.77648
3581.61945,0.78537
3579.69073,0.78898
3577.76202,0.79100
3575.83331,0.79316
3573.90460,0.79616
3571.97588,0.79655
3570.04717,0.78726
3568.11846,0.76899
3566.18974,0.76322
3564.26103,0.77826
3562.33232,0.79352
3560.40361,0.80296
3558.47489,0.80996
3556.54618,0.81327
3554.61747,0.81059
3552.68876,0.80702
3550.76004,0.80799
3548.83133,0.80762
3546.90262,0.80243
3544.97391,0.80176
3543.04519,0.81046
3541.11648,0.82006
3539.18777,0.82345
3537.25905,0.82216
3535.33034,0.82230
3533.40163,0.82342
3531.47292,0.82003
3529.54420,0.81277
3527.61549,0.80813
3525.68678,0.80804
3523.75807,0.81043
3521.82935,0.81565
3519.90064,0.82161
3517.97193,0.82554
3516.04322,0.82766
3514.11450,0.82726
3512.18579,0.82332
3510.25708,0.81887
3508.32836,0.81785
3506.39965,0.81660
3504.47094,0.81151
3502.54223,0.80961
3500.61351,0.81461
3498.68480,0.81850
3496.75609,0.81802
3494.82738,0.81730
3492.89866,0.81772
3490.96995,0.81620
3489.04124,0.81220
3487.11253,0.80853
3485.18381,0.80452
3483.25510,0.79763
3481.32639,0.79103
3479.39767,0.78723
3477.46896,0.78133
3475.54025,0.77053
3473.61154,0.75728
3471.68282,0.74292
3469.75411,0.72683
3467.82540,0.70975
3465.89669,0.69322
3463.96797,0.67771
3462.03926,0.66510
3460.11055,0.65808
3458.18183,0.65567
3456.25312,0.65620
3454.32441,0.65998
3452.39570,0.66658
3450.46698,0.67361
3448.53827,0.68047
3446.60956,0.69078
3444.68085,0.70515
3442.75213,0.71995
3440.82342,0.73408
3438.89471,0.74711
3436.96600,0.75799
3435.03728,0.76672
3433.10857,0.77387
3431.17986,0.78023
3429.25114,0.78603
3427.32243,0.79102
3425.39372,0.79428
3423.46501,0.79479
3421.53629,0.79438
3419.60758,0.79688
3417.67887,0.80201
3415.75016,0.80608
3413.82144,0.80803
3411.89273,0.80901
3409.96402,0.80946
3408.03531,0.80943
3406.10659,0.80916
3404.17788,0.80856
3402.24917,0.80786
3400.32045,0.80717
3398.39174,0.80626
3396.46303,0.80524
3394.53432,0.80402
3392.60560,0.80336
3390.67689,0.80418
3388.74818,0.80444
3386.81947,0.80247
3384.89075,0.80015
3382.96204,0.79943
3381.03333,0.79963
3379.10462,0.79969
3377.17590,0.79939
3375.24719,0.79839
3373.31848,0.79739
3371.38976,0.79727
3369.46105,0.79713
3367.53234,0.79636
3365.60363,0.79635
3363.67491,0.79772
3361.74620,0.79962
3359.81749,0.80176
3357.88878,0.80379
3355.96006,0.80551
3354.03135,0.80765
3352.10264,0.81013
3350.17392,0.81215
3348.24521,0.81333
3346.31650,0.81392
3344.38779,0.81443
3342.45907,0.81515
3340.53036,0.81585
3338.60165,0.81581
3336.67294,0.81566
3334.74422,0.81691
3332.81551,0.81888
3330.88680,0.81982
3328.95809,0.81963
3327.02937,0.81950
3325.10066,0.82002
3323.17195,0.82080
3321.24323,0.82132
3319.31452,0.82171
3317.38581,0.82213
3315.45710,0.82205
3313.52838,0.82159
3311.59967,0.82141
3309.67096,0.82152
3307.74225,0.82207
3305.81353,0.82285
3303.88482,0.82302
3301.95611,0.82264
3300.02740,0.82218
3298.09868,0.82203
3296.16997,0.82235
3294.24126,0.82238
3292.31254,0.82174
3290.38383,0.82138
3288.45512,0.82179
3286.52641,0.82204
3284.59769,0.82135
3282.66898,0.82028
3280.74027,0.81969
3278.81156,0.81909
3276.88284,0.81786
3274.95413,0.81707
3273.02542,0.81779
3271.09670,0.81924
3269.16799,0.81998
3267.23928,0.81933
3265.31057,0.81798
3263.38185,0.81701
3261.45314,0.81635
3259.52443,0.81569
3257.59572,0.81495
3255.66700,0.81390
3253.73829,0.81299
3251.80958,0.81296
3249.88087,0.81329
3247.95215,0.81270
3246.02344,0.81103
3244.09473,0.80971
3242.16601,0.80955
3240.23730,0.80950
3238.30859,0.80897
3236.37988,0.80801
3234.45116,0.80635
3232.52245,0.80425
3230.59374,0.80246
3228.66503,0.80148
3226.73631,0.80122
3224.80760,0.80073
3222.87889,0.79896
3220.95018,0.79616
3219.02146,0.79399
3217.09275,0.79263
3215.16404,0.79082
3213.23532,0.78892
3211.30661,0.78744
3209.37790,0.78594
3207.44919,0.78425
3205.52047,0.78213
3203.59176,0.77956
3201.66305,0.77701
3199.73434,0.77506
3197.80562,0.77388
3195.87691,0.77276
3193.94820,0.77113
3192.01949,0.76935
3190.09077,0.76759
3188.16206,0.76553
3186.23335,0.76317
3184.30463,0.76096
3182.37592,0.75896
3180.44721,0.75678
3178.51850,0.75483
3176.58978,0.75382
3174.66107,0.75283
3172.73236,0.75092
3170.80365,0.74877
3168.87493,0.74700
3166.94622,0.74550
3165.01751,0.74404
3163.08879,0.74242
3161.16008,0.74052
3159.23137,0.73854
3157.30266,0.73662
3155.37394,0.73462
3153.44523,0.73263
3151.51652,0.73057
3149.58781,0.72818
3147.65909,0.72553
3145.73038,0.72301
3143.80167,0.72067
3141.87296,0.71838
3139.94424,0.71615
3138.01553,0.71341
3136.08682,0.70948
3134.15810,0.70500
3132.22939,0.70152
3130.30068,0.69878
3128.37197,0.69500
3126.44325,0.69000
3124.51454,0.68473
3122.58583,0.67959
3120.65712,0.67453
3118.72840,0.66897
3116.79969,0.66296
3114.87098,0.65738
3112.94227,0.65200
3111.01355,0.64562
3109.08484,0.63795
3107.15613,0.62964
3105.22741,0.62042
3103.29870,0.60959
3101.36999,0.59781
3099.44128,0.58564
3097.51256,0.57234
3095.58385,0.55826
3093.65514,0.54463
3091.72643,0.53139
3089.79771,0.51869
3087.86900,0.50742
3085.94029,0.49777
3084.01158,0.48927
3082.08286,0.48140
3080.15415,0.47404
3078.22544,0.46730
3076.29672,0.46089
3074.36801,0.45432
3072.43930,0.44742
3070.51059,0.44020
3068.58187,0.43246
3066.65316,0.42419
3064.72445,0.41606
3062.79574,0.40842
3060.86702,0.40056
3058.93831,0.39185
3057.00960,0.38256
3055.08088,0.37336
3053.15217,0.36425
3051.22346,0.35455
3049.29475,0.34411
3047.36603,0.33333
3045.43732,0.32252
3043.50861,0.31160
3041.57990,0.30033
3039.65118,0.28869
3037.72247,0.27677
3035.79376,0.26464
3033.86505,0.25264
3031.93633,0.24133
3030.00762,0.23100
3028.07891,0.22130
3026.15019,0.21168
3024.22148,0.20231
3022.29277,0.19360
3020.36406,0.18550
3018.43534,0.17803
3016.50663,0.17125
3014.57792,0.16501
3012.64921,0.15908
3010.72049,0.15331
3008.79178,0.14749
3006.86307,0.14118
3004.93436,0.13411
3003.00564,0.12628
3001.07693,0.11775
2999.14822,0.10867
2997.21950,0.09923
2995.29079,0.08952
2993.36208,0.07966
2991.43337,0.06985
2989.50465,0.06018
2987.57594,0.05077
2985.64723,0.04182
2983.71852,0.03339
2981.78980,0.02553
2979.86109,0.01863
2977.93238,0.01306
2976.00366,0.00871
2974.07495,0.00549
2972.14624,0.00334
2970.21753,0.00198
2968.28881,0.00115
2966.36010,0.00082
2964.43139,0.00077
2962.50268,0.00054
2960.57396,0.00031
2958.64525,0.00038
2956.71654,0.00052
2954.78783,0.00057
2952.85911,0.00053
2950.93040,0.00043
2949.00169,0.00022
2947.07297,-0.00006
2945.14426,-0.00004
2943.21555,0.00036
2941.28684,0.00068
2939.35812,0.00073
2937.42941,0.00063
2935.50070,0.00058
2933.57199,0.00060
2931.64327,0.00053
2929.71456,0.00032
2927.78585,0.00032
2925.85714,0.00049
2923.92842,0.00064
2921.99971,0.00051
2920.07100,0.00031
2918.14228,0.00036
2916.21357,0.00039
2914.28486,0.00051
2912.35615,0.00076
2910.42743,0.00074
2908.49872,0.00059
2906.57001,0.00066
2904.64130,0.00079
2902.71258,0.00069
2900.78387,0.00029
2898.85516,-0.00003
2896.92645,0.00016
2894.99773,0.00051
2893.06902,0.00068
2891.14031,0.00070
2889.21159,0.00068
2887.28288,0.00058
2885.35417,0.00041
2883.42546,0.00037
2881.49674,0.00055
2879.56803,0.00063
2877.63932,0.00052
2875.71061,0.00040
2873.78189,0.00033
2871.85318,0.00042
2869.92447,0.00062
2867.99575,0.00071
2866.06704,0.00069
2864.13833,0.00060
2862.20962,0.00053
2860.28090,0.00051
2858.35219,0.00054
2856.42348,0.00047
2854.49477,0.00031
2852.56605,0.00015
2850.63734,0.00015
2848.70863,0.00012
2846.77992,0.00008
2844.85120,0.00017
2842.92249,0.00028
2840.99378,0.00041
2839.06506,0.00068
2837.13635,0.00061
2835.20764,0.00042
2833.27893,0.00064
2831.35021,0.00109
2829.42150,0.00146
2827.49279,0.00232
2825.56408,0.00385
2823.63536,0.00590
2821.70665,0.00853
2819.77794,0.01161
2817.84923,0.01508
2815.92051,0.01922
2813.99180,0.02412
2812.06309,0.02956
2810.13437,0.03531
2808.20566,0.04143
2806.27695,0.04806
2804.34824,0.05514
2802.41952,0.06276
2800.49081,0.07103
2798.56210,0.07978
2796.63339,0.08893
2794.70467,0.09874
2792.77596,0.10930
2790.84725,0.12042
2788.91854,0.13187
2786.98982,0.14347
2785.06111,0.15528
2783.13240,0.16723
2781.20368,0.17902
2779.27497,0.19038
2777.34626,0.20102
2775.41755,0.21091
2773.48883,0.22004
2771.56012,0.22810
2769.63141,0.23487
2767.70270,0.24068
2765.77398,0.24597
2763.84527,0.25077
2761.91656,0.25510
2759.98784,0.25926
2758.05913,0.26337
2756.13042,0.26728
2754.20171,0.27080
2752.27299,0.27376
2750.34428,0.27587
2748.41557,0.27685
2746.48686,0.27693
2744.55814,0.27676
2742.62943,0.27697
2740.70072,0.27773
2738.77201,0.27891
2736.84329,0.28056
2734.91458,0.28283
2732.98587,0.28570
2731.05715,0.28919
2729.12844,0.29341
2727.19973,0.29827
2725.27102,0.30346
2723.34230,0.30863
2721.41359,0.31363
2719.48488,0.31843
2717.55617,0.32302
2715.62745,0.32739
2713.69874,0.33157
2711.77003,0.33554
2709.84132,0.33927
2707.91260,0.34267
2705.98389,0.34553
2704.05518,0.34769
2702.12646,0.34907
2700.19775,0.34953
2698.26904,0.34874
2696.34033,0.34639
2694.41161,0.34257
2692.48290,0.33775
2690.55419,0.33254
2688.62548,0.32751
2686.69676,0.32311
2684.76805,0.31951
2682.83934,0.31649
2680.91062,0.31394
2678.98191,0.31193
2677.05320,0.31030
2675.12449,0.30892
2673.19577,0.30804
2671.26706,0.30798
2669.33835,0.30890
2667.40964,0.31067
2665.48092,0.31303
2663.55221,0.31574
2661.62350,0.31864
2659.69479,0.32159
2657.76607,0.32458
2655.83736,0.32765
2653.90865,0.33085
2651.97993,0.33411
2650.05122,0.33719
2648.12251,0.33975
2646.19380,0.34151
2644.26508,0.34255
2642.33637,0.34317
2640.40766,0.34344
2638.47895,0.34377
2636.55023,0.34508
2634.62152,0.34800
2632.69281,0.35275
2630.76410,0.35949
2628.83538,0.36768
2626.90667,0.37632
2624.97796,0.38485
2623.04924,0.39331
2621.12053,0.40178
2619.19182,0.41007
2617.26311,0.41808
2615.33439,0.42584
2613.40568,0.43343
2611.47697,0.44105
2609.54826,0.44880
2607.61954,0.45650
2605.69083,0.46394
2603.76212,0.47096
2601.83341,0.47756
2599.90469,0.48389
2597.97598,0.49011
2596.04727,0.49657
2594.11855,0.50354
2592.18984,0.51101
2590.26113,0.51896
2588.33242,0.52735
2586.40370,0.53588
2584.47499,0.54431
2582.54628,0.55243
2580.61757,0.56000
2578.68885,0.56713
2576.76014,0.57400
2574.83143,0.58076
2572.90271,0.58738
2570.97400,0.59368
2569.04529,0.59986
2567.11658,0.60613
2565.18786,0.61208
2563.25915,0.61725
2561.33044,0.62160
2559.40173,0.62513
2557.47301,0.62775
2555.54430,0.62976
2553.61559,0.63170
2551.68688,0.63404
2549.75816,0.63739
2547.82945,0.64227
2545.90074,0.64835
2543.97202,0.65459
2542.04331,0.65984
2540.11460,0.66305
2538.18589,0.66377
2536.25717,0.66239
2534.32846,0.66004
2532.39975,0.65804
2530.47104,0.65724
2528.54232,0.65811
2526.61361,0.66104
2524.68490,0.66601
2522.75619,0.67219
2520.82747,0.67831
2518.89876,0.68360
2516.97005,0.68799
2515.04133,0.69183
2513.11262,0.69553
2511.18391,0.69910
2509.25520,0.70215
2507.32648,0.70446
2505.39777,0.70593
2503.46906,0.70649
2501.54035,0.70622
2499.61163,0.70538
2497.68292,0.70430
2495.75421,0.70335
2493.82549,0.70270
2491.89678,0.70221
2489.96807,0.70163
2488.03936,0.70080
2486.11064,0.69952
2484.18193,0.69778
2482.25322,0.69570
2480.32451,0.69346
2478.39579,0.69144
2476.46708,0.69023
2474.53837,0.69084
2472.60966,0.69434
2470.68094,0.70052
2468.75223,0.70770
2466.82352,0.71434
2464.89480,0.71994
2462.96609,0.72453
2461.03738,0.72841
2459.10867,0.73211
2457.17995,0.73601
2455.25124,0.74014
2453.32253,0.74433
2451.39382,0.74850
2449.46510,0.75243
2447.53639,0.75571
2445.60768,0.75796
2443.67897,0.75918
2441.75025,0.75954
2439.82154,0.75918
2437.89283,0.75851
2435.96411,0.75820
2434.03540,0.75838
2432.10669,0.75867
2430.17798,0.75854
2428.24926,0.75747
2426.32055,0.75528
2424.39184,0.75215
2422.46313,0.74823
2420.53441,0.74390
2418.60570,0.74015
2416.67699,0.73805
2414.74828,0.73790
2412.81956,0.73916
2410.89085,0.74113
2408.96214,0.74325
2407.03342,0.74475
2405.10471,0.74524
2403.17600,0.74510
2401.24729,0.74482
2399.31857,0.74460
2397.38986,0.74444
2395.46115,0.74452
2393.53244,0.74516
2391.60372,0.74623
2389.67501,0.74706
2387.74630,0.74645
2385.81758,0.74312
2383.88887,0.73609
2381.96016,0.72484
2380.03145,0.70978
2378.10273,0.69261
2376.17402,0.67525
2374.24531,0.65851
2372.31660,0.64240
2370.38788,0.62699
2368.45917,0.61239
2366.53046,0.59881
2364.60175,0.58698
2362.67303,0.57748
2360.74432,0.57065
2358.81561,0.56746
2356.88689,0.56869
2354.95818,0.57440
2353.02947,0.58517
2351.10076,0.59859
2349.17204,0.60489
2347.24333,0.59643
2345.31462,0.57852
2343.38591,0.56470
2341.45719,0.55930
2339.52848,0.55817
2337.59977,0.55864
2335.67106,0.55976
2333.74234,0.56049
2331.81363,0.56080
2329.88492,0.56288
2327.95620,0.56783
2326.02749,0.57377
2324.09878,0.57940
2322.17007,0.58618
2320.24135,0.59553
2318.31264,0.60648
2316.38393,0.61674
2314.45522,0.62518
2312.52650,0.63294
2310.59779,0.64147
2308.66908,0.65064
2306.74037,0.65968
2304.81165,0.66796
2302.88294,0.67502
2300.95423,0.68122
2299.02551,0.68745
2297.09680,0.69389
2295.16809,0.70018
2293.23938,0.70613
2291.31066,0.71176
2289.38195,0.71706
2287.45324,0.72177
2285.52453,0.72555
2283.59581,0.72798
2281.66710,0.72886
2279.73839,0.72863
2277.80967,0.72835
2275.88096,0.72908
2273.95225,0.73121
2272.02354,0.73441
2270.09482,0.73811
2268.16611,0.74177
2266.23740,0.74472
2264.30869,0.74657
2262.37997,0.74760
2260.45126,0.74839
2258.52255,0.74926
2256.59384,0.75033
2254.66512,0.75168
2252.73641,0.75329
2250.80770,0.75520
2248.87898,0.75734
2246.95027,0.75955
2245.02156,0.76200
2243.09285,0.76498
2241.16413,0.76867
2239.23542,0.77318
2237.30671,0.77840
2235.37800,0.78368
2233.44928,0.78832
2231.52057,0.79202
2229.59186,0.79473
2227.66315,0.79631
2225.73443,0.79677
2223.80572,0.79626
2221.87701,0.79535
2219.94829,0.79479
2218.01958,0.79473
2216.09087,0.79482
2214.16216,0.79485
2212.23344,0.79471
2210.30473,0.79431
2208.37602,0.79370
2206.44731,0.79273
2204.51859,0.79108
2202.58988,0.78859
2200.66117,0.78550
2198.73245,0.78216
2196.80374,0.77896
2194.87503,0.77622
2192.94632,0.77386
2191.01760,0.77148
2189.08889,0.76902
2187.16018,0.76670
2185.23147,0.76435
2183.30275,0.76166
2181.37404,0.75887
2179.44533,0.75643
2177.51662,0.75447
2175.58790,0.75274
2173.65919,0.75107
2171.73048,0.74965
2169.80176,0.74854
2167.87305,0.74753
2165.94434,0.74639
2164.01563,0.74502
2162.08691,0.74340
2160.15820,0.74176
2158.22949,0.74042
2156.30078,0.73961
2154.37206,0.73949
2152.44335,0.74006
2150.51464,0.74138
2148.58593,0.74364
2146.65721,0.74702
2144.72850,0.75155
2142.79979,0.75651
2140.87107,0.76107
2138.94236,0.76522
2137.01365,0.76921
2135.08494,0.77311
2133.15622,0.77700
2131.22751,0.78076
2129.29880,0.78425
2127.37009,0.78740
2125.44137,0.79012
2123.51266,0.79222
2121.58395,0.79359
2119.65524,0.79433
2117.72652,0.79463
2115.79781,0.79486
2113.86910,0.79556
2111.94038,0.79661
2110.01167,0.79760
2108.08296,0.79847
2106.15425,0.79923
2104.22553,0.79968
2102.29682,0.79971
2100.36811,0.79934
2098.43940,0.79856
2096.51068,0.79756
2094.58197,0.79668
2092.65326,0.79600
2090.72454,0.79556
2088.79583,0.79570
2086.86712,0.79626
2084.93841,0.79639
2083.00969,0.79576
2081.08098,0.79468
2079.15227,0.79338
2077.22356,0.79183
2075.29484,0.79020
2073.36613,0.78884
2071.43742,0.78780
2069.50871,0.78657
2067.57999,0.78432
2065.65128,0.78166
2063.72257,0.78022
2061.79385,0.77924
2059.86514,0.77704
2057.93643,0.77390
2056.00772,0.77065
2054.07900,0.76760
2052.15029,0.76483
2050.22158,0.76209
2048.29287,0.75891
2046.36415,0.75509
2044.43544,0.75061
2042.50673,0.74575
2040.57802,0.74167
2038.64930,0.73849
2036.72059,0.73494
2034.79188,0.73072
2032.86316,0.72640
2030.93445,0.72216
2029.00574,0.71759
2027.07703,0.71237
2025.14831,0.70664
2023.21960,0.70091
2021.29089,0.69559
2019.36218,0.69153
2017.43346,0.69243
2015.50475,0.70193
2013.57604,0.71710
2011.64733,0.73234
2009.71861,0.74522
2007.78990,0.75585
2005.86119,0.76473
2003.93247,0.77175
2002.00376,0.77672
2000.07505,0.78016
1998.14634,0.78328
1996.21762,0.78547
1994.28891,0.78467
1992.36020,0.78366
1990.43149,0.78706
1988.50277,0.79307
1986.57406,0.79851
1984.64535,0.80239
1982.71663,0.80403
1980.78792,0.80395
1978.85921,0.80303
1976.93050,0.80175
1975.00178,0.80039
1973.07307,0.79896
1971.14436,0.79659
1969.21565,0.79202
1967.28693,0.78813
1965.35822,0.78928
1963.42951,0.79211
1961.50080,0.79212
1959.57208,0.79026
1957.64337,0.78775
1955.71466,0.78527
1953.78594,0.78421
1951.85723,0.78429
1949.92852,0.78387
1947.99981,0.78192
1946.07109,0.77810
1944.14238,0.77345
1942.21367,0.77276
1940.28496,0.77780
1938.35624,0.78198
1936.42753,0.78177
1934.49882,0.77970
1932.57011,0.77832
1930.64139,0.77808
1928.71268,0.77786
1926.78397,0.77518
1924.85525,0.76809
1922.92654,0.76077
1920.99783,0.75793
1919.06912,0.75549
1917.14040,0.75346
1915.21169,0.75427
1913.28298,0.75246
1911.35427,0.74541
1909.42555,0.73826
1907.49684,0.73602
1905.56813,0.73564
1903.63941,0.73271
1901.71070,0.72752
1899.78199,0.72115
1897.85328,0.71347
1895.92456,0.70652
1893.99585,0.70453
1892.06714,0.70528
1890.13843,0.70637
1888.20971,0.71177
1886.28100,0.71884
1884.35229,0.72255
1882.42358,0.72346
1880.49486,0.72213
1878.56615,0.71863
1876.63744,0.71426
1874.70872,0.70933
1872.78001,0.70121
1870.85130,0.68694
1868.92259,0.67323
1866.99387,0.67575
1865.06516,0.68794
1863.13645,0.69532
1861.20774,0.69671
1859.27902,0.69648
1857.35031,0.69734
1855.42160,0.69884
1853.49289,0.69992
1851.56417,0.69941
1849.63546,0.69553
1847.70675,0.68782
1845.77803,0.67822
1843.84932,0.67445
1841.92061,0.67984
1839.99190,0.68285
1838.06318,0.67853
1836.13447,0.67254
1834.20576,0.66694
1832.27705,0.65596
1830.34833,0.64051
1828.41962,0.63205
1826.49091,0.62935
1824.56220,0.62529
1822.63348,0.62228
1820.70477,0.61882
1818.77606,0.61201
1816.84734,0.60434
1814.91863,0.59662
1812.98992,0.58658
1811.06121,0.57604
1809.13249,0.57024
1807.20378,0.56666
1805.27507,0.55931
1803.34636,0.54604
1801.41764,0.52915
1799.48893,0.51542
1797.56022,0.50517
1795.63150,0.49317
1793.70279,0.47677
1791.77408,0.46089
1789.84537,0.45372
1787.91665,0.44745
1785.98794,0.43460
1784.05923,0.41719
1782.13052,0.39914
1780.20180,0.38117
1778.27309,0.36436
1776.34438,0.34621
1774.41567,0.32131
1772.48695,0.28741
1770.55824,0.25423
1768.62953,0.22501
1766.70081,0.19239
1764.77210,0.15944
1762.84339,0.12575
1760.91468,0.09322
1758.98596,0.06957
1757.05725,0.04896
1755.12854,0.03026
1753.19983,0.01691
1751.27111,0.00750
1749.34240,0.00185
1747.41369,0.00027
1745.48498,0.00041
1743.55626,0.00056
1741.62755,0.00082
1739.69884,0.00074
1737.77012,0.00065
1735.84141,0.00046
1733.91270,0.00032
1731.98399,0.00034
1730.05527,0.00011
1728.12656,0.00037
1726.19785,0.00152
1724.26914,0.00559
1722.34042,0.01324
1720.41171,0.02384
1718.48300,0.04198
1716.55429,0.07352
1714.62557,0.10636
1712.69686,0.13217
1710.76815,0.15377
1708.83943,0.17094
1706.91072,0.18406
1704.98201,0.19378
1703.05330,0.19860
1701.12458,0.19794
1699.19587,0.19595
1697.26716,0.20543
1695.33845,0.23174
1693.40973,0.26133
1691.48102,0.28634
1689.55231,0.31307
1687.62359,0.33749
1685.69488,0.35776
1683.76617,0.39015
1681.83746,0.42525
1679.90874,0.44867
1677.98003,0.46431
1676.05132,0.47412
1674.12261,0.48135
1672.19389,0.48526
1670.26518,0.48948
1668.33647,0.50480
1666.40776,0.51944
1664.47904,0.52243
1662.55033,0.52061
1660.62162,0.52332
1658.69290,0.52449
1656.76419,0.51683
1654.83548,0.49847
1652.90677,0.47578
1650.97805,0.46812
1649.04934,0.46040
1647.12063,0.45896
1645.19192,0.48870
1643.26320,0.52492
1641.33449,0.54985
1639.40578,0.56146
1637.47707,0.56303
1635.54835,0.57738
1633.61964,0.60816
1631.69093,0.62716
1629.76221,0.63334
1627.83350,0.63382
1625.90479,0.63248
1623.97608,0.63013
1622.04736,0.63343
1620.11865,0.63778
1618.18994,0.63437
1616.26123,0.63480
1614.33251,0.64864
1612.40380,0.65896
1610.47509,0.66012
1608.54637,0.65855
1606.61766,0.65928
1604.68895,0.65919
1602.76024,0.65686
1600.83152,0.65602
1598.90281,0.65635
1596.97410,0.65458
1595.04539,0.65272
1593.11667,0.65356
1591.18796,0.65514
1589.25925,0.65562
1587.33054,0.65474
1585.40182,0.65174
1583.47311,0.64708
1581.54440,0.64114
1579.61568,0.63091
1577.68697,0.61499
1575.75826,0.60628
1573.82955,0.61159
1571.90083,0.61045
1569.97212,0.59953
1568.04341,0.59341
1566.11470,0.59198
1564.18598,0.58668
1562.25727,0.57660
1560.32856,0.55689
1558.39985,0.53758
1556.47113,0.54800
1554.54242,0.56205
1552.61371,0.57015
1550.68499,0.57214
1548.75628,0.57061
1546.82757,0.56297
1544.89886,0.54348
1542.97014,0.51642
1541.04143,0.49956
1539.11272,0.51438
1537.18401,0.53218
1535.25529,0.53367
1533.32658,0.52863
1531.39787,0.52820
1529.46916,0.52468
1527.54044,0.51175
1525.61173,0.49604
1523.68302,0.48299
1521.75430,0.47301
1519.82559,0.47172
1517.89688,0.47228
1515.96817,0.47279
1514.03945,0.47358
1512.11074,0.46683
1510.18203,0.44975
1508.25332,0.42521
1506.32460,0.41468
1504.39589,0.42402
1502.46718,0.42515
1500.53846,0.41483
1498.60975,0.39581
1496.68104,0.37678
1494.75233,0.36487
1492.82361,0.35195
1490.89490,0.32739
1488.96619,0.29410
1487.03748,0.26721
1485.10876,0.24180
1483.18005,0.20757
1481.25134,0.16062
1479.32263,0.10914
1477.39391,0.06254
1475.46520,0.02582
1473.53649,0.00588
1471.60777,0.00073
1469.67906,0.00007
1467.75035,0.00014
1465.82164,0.00033
1463.89292,0.00025
1461.96421,0.00044
1460.03550,0.00065
1458.10679,0.00063
1456.17807,0.00097
1454.24936,0.00183
1452.32065,0.00308
1450.39194,0.00461
1448.46322,0.00654
1446.53451,0.00841
1444.60580,0.00947
1442.67708,0.01010
1440.74837,0.01069
1438.81966,0.01142
1436.89095,0.01313
1434.96223,0.01691
1433.03352,0.02252
1431.10481,0.03180
1429.17610,0.04680
1427.24738,0.06464
1425.31867,0.08537
1423.38996,0.10996
1421.46125,0.13354
1419.53253,0.15887
1417.60382,0.18935
1415.67511,0.21468
1413.74639,0.23408
1411.81768,0.25121
1409.88897,0.26633
1407.96026,0.27685
1406.03154,0.28182
1404.10283,0.28332
1402.17412,0.28098
1400.24541,0.27145
1398.31669,0.25487
1396.38798,0.23442
1394.45927,0.20910
1392.53055,0.18127
1390.60184,0.15222
1388.67313,0.11662
1386.74442,0.07615
1384.81570,0.04422
1382.88699,0.02382
1380.95828,0.01087
1379.02957,0.00408
1377.10085,0.00149
1375.17214,0.00078
1373.24343,0.00061
1371.31472,0.00062
1369.38600,0.00081
1367.45729,0.00094
1365.52858,0.00128
1363.59986,0.00243
1361.67115,0.00509
1359.74244,0.00884
1357.81373,0.01329
1355.88501,0.01890
1353.95630,0.02667
1352.02759,0.03835
1350.09888,0.05684
1348.17016,0.08413
1346.24145,0.11823
1344.31274,0.15389
1342.38403,0.18626
1340.45531,0.21709
1338.52660,0.25056
1336.59789,0.28213
1334.66917,0.30559
1332.74046,0.31958
1330.81175,0.32515
1328.88304,0.32441
1326.95432,0.31889
1325.02561,0.30941
1323.09690,0.29632
1321.16819,0.27974
1319.23947,0.26102
1317.31076,0.24280
1315.38205,0.22568
1313.45333,0.20867
1311.52462,0.19294
1309.59591,0.17966
1307.66720,0.16854
1305.73848,0.15945
1303.80977,0.15193
1301.88106,0.14538
1299.95235,0.13970
1298.02363,0.13486
1296.09492,0.13059
1294.16621,0.12633
1292.23750,0.12121
1290.30878,0.11451
1288.38007,0.10622
1286.45136,0.09699
1284.52264,0.08714
1282.59393,0.07648
1280.66522,0.06525
1278.73651,0.05405
1276.80779,0.04336
1274.87908,0.03335
1272.95037,0.02411
1271.02166,0.01606
1269.09294,0.00976
1267.16423,0.00534
1265.23552,0.00249
1263.30681,0.00093
1261.37809,0.00028
1259.44938,0.00026
1257.52067,0.00055
1255.59195,0.00069
1253.66324,0.00072
1251.73453,0.00066
1249.80582,0.00051
1247.87710,0.00036
1245.94839,0.00030
1244.01968,0.00033
1242.09097,0.00040
1240.16225,0.00038
1238.23354,0.00037
1236.30483,0.00037
1234.37612,0.00025
1232.44740,0.00019
1230.51869,0.00030
1228.58998,0.00025
1226.66126,0.00015
1224.73255,0.00027
1222.80384,0.00066
1220.87513,0.00154
1218.94641,0.00341
1217.01770,0.00665
1215.08899,0.01123
1213.16028,0.01736
1211.23156,0.02549
1209.30285,0.03578
1207.37414,0.04798
1205.44542,0.06151
1203.51671,0.07562
1201.58800,0.08977
1199.65929,0.10360
1197.73057,0.11691
1195.80186,0.12970
1193.87315,0.14193
1191.94444,0.15347
1190.01572,0.16411
1188.08701,0.17381
1186.15830,0.18270
1184.22959,0.19062
1182.30087,0.19719
1180.37216,0.20255
1178.44345,0.20743
1176.51473,0.21233
1174.58602,0.21701
1172.65731,0.22069
1170.72860,0.22294
1168.79988,0.22374
1166.87117,0.22286
1164.94246,0.22009
1163.01375,0.21567
1161.08503,0.20960
1159.15632,0.20145
1157.22761,0.19094
1155.29890,0.17864
1153.37018,0.16578
1151.44147,0.15395
1149.51276,0.14453
1147.58404,0.13821
1145.65533,0.13495
1143.72662,0.13393
1141.79791,0.13362
1139.86919,0.13261
1137.94048,0.13044
1136.01177,0.12754
1134.08306,0.12437
1132.15434,0.12125
1130.22563,0.11897
1128.29692,0.11848
1126.36821,0.11994
1124.43949,0.12299
1122.51078,0.12705
1120.58207,0.13142
1118.65335,0.13576
1116.72464,0.14015
1114.79593,0.14472
1112.86722,0.14925
1110.93850,0.15344
1109.00979,0.15703
1107.08108,0.15969
1105.15237,0.16106
1103.22365,0.16115
1101.29494,0.16016
1099.36623,0.15815
1097.43751,0.15519
1095.50880,0.15149
1093.58009,0.14715
1091.65138,0.14226
1089.72266,0.13694
1087.79395,0.13131
1085.86524,0.12541
1083.93653,0.11943
1082.00781,0.11375
1080.07910,0.10852
1078.15039,0.10355
1076.22168,0.09866
1074.29296,0.09377
1072.36425,0.08902
1070.43554,0.08476
1068.50682,0.08140
1066.57811,0.07900
1064.64940,0.07705
1062.72069,0.07510
1060.79197,0.07279
1058.86326,0.06969
1056.93455,0.06544
1055.00584,0.05969
1053.07712,0.05259
1051.14841,0.04498
1049.21970,0.03796
1047.29099,0.03250
1045.36227,0.02899
1043.43356,0.02691
1041.50485,0.02552
1039.57613,0.02419
1037.64742,0.02215
1035.71871,0.01869
1033.79000,0.01402
1031.86128,0.00935
1029.93257,0.00567
1028.00386,0.00319
1026.07515,0.00171
1024.14643,0.00080
1022.21772,0.00016
1020.28901,0.00001
1018.36029,0.00057
1016.43158,0.00152
1014.50287,0.00370
1012.57416,0.00906
1010.64544,0.01943
1008.71673,0.03569
1006.78802,0.05727
1004.85931,0.08221
1002.93059,0.10822
1001.00188,0.13358
999.07317,0.15695
997.14446,0.17704
995.21574,0.19343
993.28703,0.20676
991.35832,0.21771
989.42960,0.22633
987.50089,0.23231
985.57218,0.23539
983.64347,0.23573
981.71475,0.23369
979.78604,0.22951
977.85733,0.22317
975.92862,0.21475
973.99990,0.20486
972.07119,0.19402
970.14248,0.18251
968.21377,0.17103
966.28505,0.16058
964.35634,0.15186
962.42763,0.14542
960.49891,0.14182
958.57020,0.14120
956.64149,0.14312
954.71278,0.14693
952.78406,0.15212
950.85535,0.15820
948.92664,0.16483
946.99793,0.17151
945.06921,0.17696
943.14050,0.17952
941.21179,0.17918
939.28308,0.17825
937.35436,0.18034
935.42565,0.18937
933.49694,0.20866
931.56822,0.23879
929.63951,0.27664
927.71080,0.31673
925.78209,0.35400
923.85337,0.38526
921.92466,0.40919
919.99595,0.42644
918.06724,0.43904
916.13852,0.44844
914.20981,0.45518
912.28110,0.46013
910.35238,0.46453
908.42367,0.46910
906.49496,0.47429
904.56625,0.47960
902.63753,0.48346
900.70882,0.48497
898.78011,0.48466
896.85140,0.48346
894.92268,0.48232
892.99397,0.48235
891.06526,0.48423
889.13655,0.48763
887.20783,0.49175
885.27912,0.49614
883.35041,0.50031
881.42169,0.50327
879.49298,0.50447
877.56427,0.50413
875.63556,0.50240
873.70684,0.49969
871.77813,0.49716
869.84942,0.49601
867.92071,0.49717
865.99199,0.50123
864.06328,0.50758
862.13457,0.51454
860.20586,0.52048
858.27714,0.52492
856.34843,0.52886
854.41972,0.53341
852.49100,0.53908
850.56229,0.54593
848.63358,0.55331
846.70487,0.56032
844.77615,0.56659
842.84744,0.57244
840.91873,0.57808
838.99002,0.58323
837.06130,0.58787
835.13259,0.59247
833.20388,0.59772
831.27516,0.60387
829.34645,0.61023
827.41774,0.61587
825.48903,0.61997
823.56031,0.62183
821.63160,0.62121
819.70289,0.61814
817.77418,0.61296
815.84546,0.60706
813.91675,0.60182
811.98804,0.59714
810.05933,0.59232
808.13061,0.58710
806.20190,0.58151
804.27319,0.57589
802.34447,0.57104
800.41576,0.56793
798.48705,0.56775
796.55834,0.57164
794.62962,0.57972
792.70091,0.59098
790.77220,0.60346
788.84349,0.61441
786.91477,0.62171
784.98606,0.62459
783.05735,0.62291
781.12864,0.61760
779.19992,0.61058
777.27121,0.60326
775.34250,0.59626
773.41378,0.59024
771.48507,0.58570
769.55636,0.58262
767.62765,0.58012
765.69893,0.57694
763.77022,0.57218
761.84151,0.56535
759.91280,0.55615
757.98408,0.54522
756.05537,0.53379
754.12666,0.52203
752.19795,0.50896
750.26923,0.49360
748.34052,0.47516
746.41181,0.45274
744.48309,0.42551
742.55438,0.39277
740.62567,0.35384
738.69696,0.30755
736.76824,0.25065
734.83953,0.17940
732.91082,0.10142
730.98211,0.04121
729.05339,0.01485
727.12468,0.01071
725.19597,0.01001
723.26725,0.00650
721.33854,0.00272
719.40983,0.00309
717.48112,0.01524
715.55240,0.04968
713.62369,0.11058
711.69498,0.18911
709.76627,0.27147
707.83755,0.34913
705.90884,0.41819
703.98013,0.47728
702.05142,0.52740
700.12270,0.57213
698.19399,0.61435
696.26528,0.65220
694.33656,0.68167
692.40785,0.70100
690.47914,0.71168
688.55043,0.71767
686.62171,0.72301
684.69300,0.72947
682.76429,0.73676
680.83558,0.74385
678.90686,0.74964
676.97815,0.75289
675.04944,0.75186
673.12073,0.74309
671.19201,0.72098
669.26330,0.69328
667.33459,0.69609
665.40587,0.72529
663.47716,0.74057
661.54845,0.73914
659.61974,0.73063
657.69102,0.71827
655.76231,0.70094
653.83360,0.67694
651.90489,0.64722
649.97617,0.61605
648.04746,0.58899
646.11875,0.56998
644.19004,0.56060
642.26132,0.56097
640.33261,0.56923
638.40390,0.57999
636.47518,0.58314
634.54647,0.57010
632.61776,0.54188
630.68905,0.51094
628.76033,0.49309
626.83162,0.49640
624.90291,0.51732
622.97420,0.54297
621.04548,0.55876
619.11677,0.55239
617.18806,0.51448
615.25934,0.44412
613.33063,0.35436
611.40192,0.27068
609.47321,0.22072
607.54449,0.22096
605.61578,0.27086
603.68707,0.35280
601.75836,0.43984
599.82964,0.51536
