7496.90619,0.93303
7494.97747,0.93531
7493.04876,0.93168
7491.12005,0.92176
7489.19134,0.91646
7487.26262,0.92152
7485.33391,0.93032
7483.40520,0.93330
7481.47648,0.92453
7479.54777,0.91270
7477.61906,0.91119
7475.69035,0.91722
7473.76163,0.92287
7471.83292,0.92755
7469.90421,0.92974
7467.97550,0.92902
7466.04678,0.93147
7464.11807,0.93315
7462.18936,0.92579
7460.26065,0.91988
7458.33193,0.92166
7456.40322,0.92356
7454.47451,0.92834
7452.54579,0.93608
7450.61708,0.93754
7448.68837,0.93310
7446.75966,0.92691
7444.83094,0.92222
7442.90223,0.92394
7440.97352,0.92911
7439.04481,0.93044
7437.11609,0.92772
7435.18738,0.92694
7433.25867,0.93089
7431.32996,0.93196
7429.40124,0.92592
7427.47253,0.92071
7425.54382,0.92080
7423.61510,0.92466
7421.68639,0.92917
7419.75768,0.93092
7417.82897,0.93068
7415.90025,0.93054
7413.97154,0.93046
7412.04283,0.92697
7410.11412,0.91866
7408.18540,0.91248
7406.25669,0.91339
7404.32798,0.91824
7402.39927,0.92290
7400.47055,0.92596
7398.54184,0.92688
7396.61313,0.92435
7394.68441,0.92141
7392.75570,0.92565
7390.82699,0.93195
7388.89828,0.92826
7386.96956,0.91897
7385.04085,0.91353
7383.11214,0.91268
7381.18343,0.91540
7379.25471,0.91936
7377.32600,0.91887
7375.39729,0.91252
7373.46857,0.90711
7371.53986,0.90778
7369.61115,0.91638
7367.68244,0.92984
7365.75372,0.93633
7363.82501,0.93308
7361.89630,0.92784
7359.96759,0.92384
7358.03887,0.91855
7356.11016,0.91179
7354.18145,0.90958
7352.25274,0.91360
7350.32402,0.91800
7348.39531,0.91984
7346.46660,0.92049
7344.53788,0.92255
7342.60917,0.92463
7340.68046,0.92086
7338.75175,0.91586
7336.82303,0.91889
7334.89432,0.92520
7332.96561,0.92528
7331.03690,0.91850
7329.10818,0.91462
7327.17947,0.91759
7325.25076,0.91915
7323.32205,0.91841
7321.39333,0.91658
7319.46462,0.91286
7317.53591,0.91303
7315.60719,0.91631
7313.67848,0.91497
7311.74977,0.91191
7309.82106,0.91364
7307.89234,0.91806
7305.96363,0.92113
7304.03492,0.92084
7302.10621,0.91722
7300.17749,0.91239
7298.24878,0.90776
7296.32007,0.90442
7294.39136,0.90445
7292.46264,0.90804
7290.53393,0.91290
7288.60522,0.91821
7286.67650,0.92499
7284.74779,0.93143
7282.81908,0.93126
7280.89037,0.92290
7278.96165,0.91613
7277.03294,0.91686
7275.10423,0.91868
7273.17552,0.91847
7271.24680,0.91970
7269.31809,0.91913
7267.38938,0.91183
7265.46066,0.90489
7263.53195,0.90449
7261.60324,0.90411
7259.67453,0.90347
7257.74581,0.90779
7255.81710,0.91122
7253.88839,0.90855
7251.95968,0.90575
7250.03096,0.90954
7248.10225,0.91799
7246.17354,0.92268
7244.24483,0.91924
7242.31611,0.91219
7240.38740,0.90790
7238.45869,0.90796
7236.52997,0.90653
7234.60126,0.89631
7232.67255,0.88545
7230.74384,0.88874
7228.81512,0.89737
7226.88641,0.90185
7224.95770,0.90698
7223.02899,0.91257
7221.10027,0.91460
7219.17156,0.91351
7217.24285,0.91072
7215.31414,0.90663
7213.38542,0.90310
7211.45671,0.90161
7209.52800,0.90161
7207.59928,0.90315
7205.67057,0.90608
7203.74186,0.90961
7201.81315,0.90881
7199.88443,0.90099
7197.95572,0.89697
7196.02701,0.90340
7194.09830,0.91380
7192.16958,0.92107
7190.24087,0.91873
7188.31216,0.90901
7186.38344,0.90500
7184.45473,0.90792
7182.52602,0.90645
7180.59731,0.90153
7178.66859,0.90154
7176.73988,0.90283
7174.81117,0.90183
7172.88246,0.90141
7170.95374,0.90473
7169.02503,0.91016
7167.09632,0.91148
7165.16761,0.90762
7163.23889,0.90310
7161.31018,0.90213
7159.38147,0.90442
7157.45275,0.90466
7155.52404,0.90427
7153.59533,0.90828
7151.66662,0.91070
7149.73790,0.90639
7147.80919,0.90492
7145.88048,0.91067
7143.95177,0.91363
7142.02305,0.90579
7140.09434,0.89418
7138.16563,0.89172
7136.23692,0.89575
7134.30820,0.90091
7132.37949,0.90980
7130.45078,0.91611
7128.52206,0.91447
7126.59335,0.91035
7124.66464,0.90671
7122.73593,0.90401
7120.80721,0.90360
7118.87850,0.90354
7116.94979,0.90353
7115.02108,0.90527
7113.09236,0.90678
7111.16365,0.90597
7109.23494,0.90400
7107.30623,0.90430
7105.37751,0.90553
7103.44880,0.90534
7101.52009,0.90622
7099.59137,0.90724
7097.66266,0.90735
7095.73395,0.90744
7093.80524,0.90816
7091.87652,0.91404
7089.94781,0.92226
7088.01910,0.92033
7086.09039,0.90933
7084.16167,0.90455
7082.23296,0.90807
7080.30425,0.90987
7078.37553,0.90802
7076.44682,0.90599
7074.51811,0.90465
7072.58940,0.90384
7070.66068,0.90260
7068.73197,0.89971
7066.80326,0.89799
7064.87455,0.90162
7062.94583,0.90909
7061.01712,0.91467
7059.08841,0.91457
7057.15970,0.91021
7055.23098,0.90394
7053.30227,0.89733
7051.37356,0.89460
7049.44484,0.89751
7047.51613,0.90317
7045.58742,0.90720
7043.65871,0.90817
7041.72999,0.90909
7039.80128,0.90976
7037.87257,0.90759
7035.94386,0.90413
7034.01514,0.90318
7032.08643,0.90659
7030.15772,0.91084
7028.22901,0.91092
7026.30029,0.90906
7024.37158,0.91024
7022.44287,0.91119
7020.51415,0.90737
7018.58544,0.90188
7016.65673,0.89970
7014.72802,0.90181
7012.79930,0.90257
7010.87059,0.89950
7008.94188,0.90011
7007.01317,0.90665
7005.08445,0.91280
7003.15574,0.91486
7001.22703,0.91405
6999.29832,0.91392
6997.36960,0.91465
6995.44089,0.91207
6993.51218,0.90597
6991.58346,0.90361
6989.65475,0.90939
6987.72604,0.91569
6985.79733,0.91475
6983.86861,0.90979
6981.93990,0.90767
6980.01119,0.91055
6978.08248,0.91435
6976.15376,0.91587
6974.22505,0.91525
6972.29634,0.91202
6970.36762,0.91047
6968.43891,0.91492
6966.51020,0.91959
6964.58149,0.91926
6962.65277,0.91712
6960.72406,0.91645
6958.79535,0.91561
6956.86664,0.91311
6954.93792,0.91230
6953.00921,0.91401
6951.08050,0.91382
6949.15179,0.91315
6947.22307,0.91503
6945.29436,0.91533
6943.36565,0.91218
6941.43693,0.91015
6939.50822,0.91334
6937.57951,0.91871
6935.65080,0.92027
6933.72208,0.91965
6931.79337,0.91882
6929.86466,0.91555
6927.93595,0.91180
6926.00723,0.91145
6924.07852,0.91370
6922.14981,0.91527
6920.22110,0.91616
6918.29238,0.91660
6916.36367,0.91556
6914.43496,0.91570
6912.50624,0.91781
6910.57753,0.91853
6908.64882,0.91759
6906.72011,0.91857
6904.79139,0.92023
6902.86268,0.91686
6900.93397,0.91176
6899.00526,0.91324
6897.07654,0.91942
6895.14783,0.92204
6893.21912,0.91901
6891.29040,0.91507
6889.36169,0.91213
6887.43298,0.90972
6885.50427,0.90987
6883.57555,0.91290
6881.64684,0.91623
6879.71813,0.91852
6877.78942,0.92061
6875.86070,0.92135
6873.93199,0.91773
6872.00328,0.91207
6870.07457,0.90986
6868.14585,0.91134
6866.21714,0.91424
6864.28843,0.91749
6862.35971,0.91922
6860.43100,0.91926
6858.50229,0.91878
6856.57358,0.91768
6854.64486,0.91817
6852.71615,0.91980
6850.78744,0.91848
6848.85873,0.91708
6846.93001,0.92056
6845.00130,0.92502
6843.07259,0.92430
6841.14388,0.92161
6839.21516,0.92321
6837.28645,0.92637
6835.35774,0.92481
6833.42902,0.91854
6831.50031,0.91343
6829.57160,0.91290
6827.64289,0.91392
6825.71417,0.91541
6823.78546,0.91866
6821.85675,0.92009
6819.92804,0.91862
6817.99932,0.91783
6816.07061,0.91649
6814.14190,0.91381
6812.21319,0.91439
6810.28447,0.91891
6808.35576,0.92260
6806.42705,0.92310
6804.49833,0.92126
6802.56962,0.91925
6800.64091,0.91973
6798.71220,0.92139
6796.78348,0.92112
6794.85477,0.91949
6792.92606,0.91799
6790.99735,0.91710
6789.06863,0.91669
6787.13992,0.91679
6785.21121,0.91820
6783.28249,0.91887
6781.35378,0.91656
6779.42507,0.91441
6777.49636,0.91595
6775.56764,0.91966
6773.63893,0.92206
6771.71022,0.92288
6769.78151,0.92378
6767.85279,0.92483
6765.92408,0.92545
6763.99537,0.92578
6762.06666,0.92554
6760.13794,0.92400
6758.20923,0.92272
6756.28052,0.92473
6754.35180,0.92888
6752.42309,0.93001
6750.49438,0.92690
6748.56567,0.92403
6746.63695,0.92512
6744.70824,0.92912
6742.77953,0.93218
6740.85082,0.93168
6738.92210,0.92851
6736.99339,0.92534
6735.06468,0.92328
6733.13597,0.92285
6731.20725,0.92452
6729.27854,0.92532
6727.34983,0.92277
6725.42111,0.91977
6723.49240,0.92006
6721.56369,0.92309
6719.63498,0.92528
6717.70626,0.92468
6715.77755,0.92302
6713.84884,0.92371
6711.92013,0.92622
6709.99141,0.92696
6708.06270,0.92662
6706.13399,0.92618
6704.20528,0.92449
6702.27656,0.92396
6700.34785,0.92580
6698.41914,0.92644
6696.49042,0.92504
6694.56171,0.92547
6692.63300,0.92837
6690.70429,0.92900
6688.77557,0.92676
6686.84686,0.92593
6684.91815,0.92620
6682.98944,0.92603
6681.06072,0.92673
6679.13201,0.92791
6677.20330,0.92858
6675.27458,0.92993
6673.34587,0.93241
6671.41716,0.93236
6669.48845,0.92747
6667.55973,0.92332
6665.63102,0.92412
6663.70231,0.92569
6661.77360,0.92488
6659.84488,0.92492
6657.91617,0.92643
6655.98746,0.92451
6654.05875,0.91966
6652.13003,0.91867
6650.20132,0.92298
6648.27261,0.92755
6646.34389,0.92999
6644.41518,0.93098
6642.48647,0.92883
6640.55776,0.92365
6638.62904,0.92032
6636.70033,0.92223
6634.77162,0.92717
6632.84291,0.93045
6630.91419,0.92938
6628.98548,0.92372
6627.05677,0.91690
6625.12806,0.91538
6623.19934,0.91998
6621.27063,0.92517
6619.34192,0.92778
6617.41320,0.92681
6615.48449,0.92291
6613.55578,0.92014
6611.62707,0.91938
6609.69835,0.91812
6607.76964,0.91697
6605.84093,0.91606
6603.91222,0.91406
6601.98350,0.91327
6600.05479,0.91544
6598.12608,0.91886
6596.19736,0.92145
6594.26865,0.92104
6592.33994,0.91932
6590.41123,0.92026
6588.48251,0.92279
6586.55380,0.92578
6584.62509,0.92941
6582.69638,0.93060
6580.76766,0.92902
6578.83895,0.92798
6576.91024,0.92723
6574.98153,0.92491
6573.05281,0.92275
6571.12410,0.92285
6569.19539,0.92434
6567.26667,0.92535
6565.33796,0.92530
6563.40925,0.92492
6561.48054,0.92544
6559.55182,0.92725
6557.62311,0.92884
6555.69440,0.92953
6553.76569,0.93015
6551.83697,0.92991
6549.90826,0.92879
6547.97955,0.92801
6546.05084,0.92729
6544.12212,0.92698
6542.19341,0.92696
6540.26470,0.92659
6538.33598,0.92741
6536.40727,0.92923
6534.47856,0.92986
6532.54985,0.92883
6530.62113,0.92561
6528.69242,0.92138
6526.76371,0.91958
6524.83500,0.91976
6522.90628,0.92028
6520.97757,0.92275
6519.04886,0.92558
6517.12015,0.92567
6515.19143,0.92520
6513.26272,0.92560
6511.33401,0.92597
6509.40529,0.92681
6507.47658,0.92773
6505.54787,0.92823
6503.61916,0.92840
6501.69044,0.92752
6499.76173,0.92641
6497.83302,0.92734
6495.90431,0.92982
6493.97559,0.93132
6492.04688,0.93130
6490.11817,0.93009
6488.18945,0.92833
6486.26074,0.92737
6484.33203,0.92756
6482.40332,0.92857
6480.47460,0.92858
6478.54589,0.92640
6476.61718,0.92382
6474.68847,0.92225
6472.75975,0.92182
6470.83104,0.92251
6468.90233,0.92468
6466.97362,0.92791
6465.04490,0.92980
6463.11619,0.93025
6461.18748,0.93200
6459.25876,0.93412
6457.33005,0.93292
6455.40134,0.92903
6453.47263,0.92678
6451.54391,0.92830
6449.61520,0.93007
6447.68649,0.92817
6445.75778,0.92671
6443.82906,0.92900
6441.90035,0.93019
6439.97164,0.92849
6438.04293,0.92727
6436.11421,0.92779
6434.18550,0.92887
6432.25679,0.92957
6430.32807,0.93143
6428.39936,0.93373
6426.47065,0.93221
6424.54194,0.92928
6422.61322,0.93028
6420.68451,0.93178
6418.75580,0.92876
6416.82709,0.92427
6414.89837,0.92337
6412.96966,0.92493
6411.04095,0.92579
6409.11224,0.92614
6407.18352,0.92601
6405.25481,0.92520
6403.32610,0.92557
6401.39738,0.92645
6399.46867,0.92509
6397.53996,0.92258
6395.61125,0.92235
6393.68253,0.92482
6391.75382,0.92733
6389.82511,0.92850
6387.89640,0.92895
6385.96768,0.92954
6384.03897,0.93083
6382.11026,0.93082
6380.18154,0.92872
6378.25283,0.92766
6376.32412,0.92803
6374.39541,0.92741
6372.46669,0.92606
6370.53798,0.92549
6368.60927,0.92567
6366.68056,0.92646
6364.75184,0.92815
6362.82313,0.92890
6360.89442,0.92762
6358.96571,0.92718
6357.03699,0.92864
6355.10828,0.92953
6353.17957,0.92862
6351.25085,0.92707
6349.32214,0.92712
6347.39343,0.92920
6345.46472,0.93104
6343.53600,0.93085
6341.60729,0.92897
6339.67858,0.92785
6337.74987,0.92806
6335.82115,0.92682
6333.89244,0.92389
6331.96373,0.92217
6330.03502,0.92309
6328.10630,0.92451
6326.17759,0.92536
6324.24888,0.92770
6322.32016,0.93013
6320.39145,0.93008
6318.46274,0.92885
6316.53403,0.92784
6314.60531,0.92782
6312.67660,0.92909
6310.74789,0.92931
6308.81918,0.92686
6306.89046,0.92414
6304.96175,0.92335
6303.03304,0.92364
6301.10432,0.92343
6299.17561,0.92269
6297.24690,0.92360
6295.31819,0.92740
6293.38947,0.93131
6291.46076,0.93153
6289.53205,0.92813
6287.60334,0.92534
6285.67462,0.92556
6283.74591,0.92655
6281.81720,0.92681
6279.88849,0.92760
6277.95977,0.92876
6276.03106,0.92910
6274.10235,0.92865
6272.17363,0.92733
6270.24492,0.92511
6268.31621,0.92325
6266.38750,0.92350
6264.45878,0.92676
6262.53007,0.93134
6260.60136,0.93364
6258.67265,0.93222
6256.74393,0.92871
6254.81522,0.92604
6252.88651,0.92577
6250.95780,0.92582
6249.02908,0.92501
6247.10037,0.92634
6245.17166,0.93041
6243.24294,0.93242
6241.31423,0.93082
6239.38552,0.93044
6237.45681,0.93157
6235.52809,0.93006
6233.59938,0.92704
6231.67067,0.92475
6229.74196,0.92298
6227.81324,0.92256
6225.88453,0.92382
6223.95582,0.92478
6222.02711,0.92421
6220.09839,0.92371
6218.16968,0.92415
6216.24097,0.92461
6214.31225,0.92494
6212.38354,0.92513
6210.45483,0.92551
6208.52612,0.92695
6206.59740,0.92825
6204.66869,0.92779
6202.73998,0.92752
6200.81127,0.92829
6198.88255,0.92724
6196.95384,0.92452
6195.02513,0.92279
6193.09641,0.92326
6191.16770,0.92565
6189.23899,0.92656
6187.31028,0.92331
6185.38156,0.91958
6183.45285,0.91934
6181.52414,0.92100
6179.59543,0.92300
6177.66671,0.92483
6175.73800,0.92388
6173.80929,0.92082
6171.88058,0.91960
6169.95186,0.92128
6168.02315,0.92358
6166.09444,0.92392
6164.16572,0.92340
6162.23701,0.92466
6160.30830,0.92613
6158.37959,0.92492
6156.45087,0.92197
6154.52216,0.92081
6152.59345,0.92256
6150.66474,0.92401
6148.73602,0.92385
6146.80731,0.92459
6144.87860,0.92607
6142.94989,0.92661
6141.02117,0.92666
6139.09246,0.92541
6137.16375,0.92250
6135.23503,0.92034
6133.30632,0.91954
6131.37761,0.91931
6129.44890,0.92015
6127.52018,0.92198
6125.59147,0.92309
6123.66276,0.92206
6121.73405,0.91952
6119.80533,0.91735
6117.87662,0.91638
6115.94791,0.91595
6114.01919,0.91588
6112.09048,0.91655
6110.16177,0.91673
6108.23306,0.91643
6106.30434,0.91818
6104.37563,0.92048
6102.44692,0.91991
6100.51821,0.91830
6098.58949,0.91802
6096.66078,0.91775
6094.73207,0.91689
6092.80336,0.91713
6090.87464,0.91827
6088.94593,0.91774
6087.01722,0.91540
6085.08850,0.91339
6083.15979,0.91211
6081.23108,0.91057
6079.30237,0.90861
6077.37365,0.90785
6075.44494,0.90870
6073.51623,0.90904
6071.58752,0.90843
6069.65880,0.90729
6067.73009,0.90471
6065.80138,0.90230
6063.87267,0.90193
6061.94395,0.90079
6060.01524,0.89667
6058.08653,0.89331
6056.15781,0.89420
6054.22910,0.89543
6052.30039,0.89257
6050.37168,0.88929
6048.44296,0.88956
6046.51425,0.89043
6044.58554,0.88991
6042.65683,0.88969
6040.72811,0.88863
6038.79940,0.88541
6036.87069,0.88324
6034.94198,0.88398
6033.01326,0.88498
6031.08455,0.88384
6029.15584,0.88124
6027.22712,0.87908
6025.29841,0.87849
6023.36970,0.87971
6021.44099,0.88089
6019.51227,0.88026
6017.58356,0.87887
6015.65485,0.87720
6013.72614,0.87499
6011.79742,0.87373
6009.86871,0.87434
6007.94000,0.87637
6006.01128,0.87977
6004.08257,0.88310
6002.15386,0.88384
6000.22515,0.88293
5998.29643,0.88323
5996.36772,0.88564
5994.43901,0.88882
5992.51030,0.89046
5990.58158,0.89051
5988.65287,0.89055
5986.72416,0.89139
5984.79545,0.89323
5982.86673,0.89518
5980.93802,0.89567
5979.00931,0.89540
5977.08059,0.89637
5975.15188,0.89773
5973.22317,0.89800
5971.29446,0.89822
5969.36574,0.89849
5967.43703,0.89768
5965.50832,0.89644
5963.57961,0.89587
5961.65089,0.89575
5959.72218,0.89530
5957.79347,0.89458
5955.86476,0.89395
5953.93604,0.89284
5952.00733,0.89117
5950.07862,0.88994
5948.14990,0.88929
5946.22119,0.88811
5944.29248,0.88566
5942.36377,0.88270
5940.43505,0.87976
5938.50634,0.87697
5936.57763,0.87608
5934.64892,0.87670
5932.72020,0.87579
5930.79149,0.87323
5928.86278,0.87135
5926.93407,0.87093
5925.00535,0.87030
5923.07664,0.86750
5921.14793,0.86318
5919.21921,0.85981
5917.29050,0.85721
5915.36179,0.85418
5913.43308,0.85213
5911.50436,0.85174
5909.57565,0.85133
5907.64694,0.84987
5905.71823,0.84800
5903.78951,0.84700
5901.86080,0.84597
5899.93209,0.84212
5898.00337,0.83655
5896.07466,0.83322
5894.14595,0.83205
5892.21724,0.83006
5890.28852,0.82607
5888.35981,0.82186
5886.43110,0.81963
5884.50239,0.81850
5882.57367,0.81604
5880.64496,0.81226
5878.71625,0.80903
5876.78754,0.80713
5874.85882,0.80509
5872.93011,0.80196
5871.00140,0.79918
5869.07268,0.79759
5867.14397,0.79595
5865.21526,0.79376
5863.28655,0.79088
5861.35783,0.78618
5859.42912,0.78013
5857.50041,0.77509
5855.57170,0.77182
5853.64298,0.76912
5851.71427,0.76606
5849.78556,0.76204
5847.85685,0.75691
5845.92813,0.75120
5843.99942,0.74566
5842.07071,0.74165
5840.14199,0.73886
5838.21328,0.73515
5836.28457,0.73083
5834.35586,0.72768
5832.42714,0.72565
5830.49843,0.72422
5828.56972,0.72309
5826.64101,0.72159
5824.71229,0.72068
5822.78358,0.72209
5820.85487,0.72546
5818.92615,0.72962
5816.99744,0.73337
5815.06873,0.73653
5813.14002,0.74062
5811.21130,0.74548
5809.28259,0.74952
5807.35388,0.75336
5805.42517,0.75841
5803.49645,0.76423
5801.56774,0.76932
5799.63903,0.77254
5797.71032,0.77471
5795.78160,0.77737
5793.85289,0.78035
5791.92418,0.78421
5789.99546,0.78962
5788.06675,0.79397
5786.13804,0.79539
5784.20933,0.79679
5782.28061,0.80035
5780.35190,0.80409
5778.42319,0.80728
5776.49448,0.81127
5774.56576,0.81485
5772.63705,0.81610
5770.70834,0.81537
5768.77963,0.81421
5766.85091,0.81394
5764.92220,0.81468
5762.99349,0.81584
5761.06477,0.81697
5759.13606,0.81730
5757.20735,0.81666
5755.27864,0.81630
5753.34992,0.81677
5751.42121,0.81645
5749.49250,0.81479
5747.56379,0.81369
5745.63507,0.81331
5743.70636,0.81218
5741.77765,0.81075
5739.84894,0.81044
5737.92022,0.81135
5735.99151,0.81210
5734.06280,0.81190
5732.13408,0.81223
5730.20537,0.81373
5728.27666,0.81429
5726.34795,0.81321
5724.41923,0.81312
5722.49052,0.81486
5720.56181,0.81625
5718.63310,0.81648
5716.70438,0.81629
5714.77567,0.81578
5712.84696,0.81498
5710.91824,0.81409
5708.98953,0.81318
5707.06082,0.81223
5705.13211,0.81145
5703.20339,0.81143
5701.27468,0.81229
5699.34597,0.81322
5697.41726,0.81377
5695.48854,0.81445
5693.55983,0.81583
5691.63112,0.81789
5689.70241,0.81944
5687.77369,0.81962
5685.84498,0.82000
5683.91627,0.82171
5681.98755,0.82355
5680.05884,0.82513
5678.13013,0.82646
5676.20142,0.82715
5674.27270,0.82819
5672.34399,0.83025
5670.41528,0.83225
5668.48657,0.83299
5666.55785,0.83297
5664.62914,0.83382
5662.70043,0.83545
5660.77172,0.83601
5658.84300,0.83581
5656.91429,0.83640
5654.98558,0.83708
5653.05686,0.83753
5651.12815,0.83936
5649.19944,0.84241
5647.27073,0.84457
5645.34201,0.84497
5643.41330,0.84492
5641.48459,0.84593
5639.55588,0.84745
5637.62716,0.84819
5635.69845,0.84807
5633.76974,0.84727
5631.84103,0.84669
5629.91231,0.84775
5627.98360,0.84998
5626.05489,0.85202
5624.12617,0.85390
5622.19746,0.85581
5620.26875,0.85693
5618.34004,0.85677
5616.41132,0.85640
5614.48261,0.85661
5612.55390,0.85700
5610.62519,0.85778
5608.69647,0.85933
5606.76776,0.86032
5604.83905,0.85956
5602.91033,0.85845
5600.98162,0.85836
5599.05291,0.85890
5597.12420,0.86019
5595.19548,0.86220
5593.26677,0.86330
5591.33806,0.86318
5589.40935,0.86334
5587.48063,0.86423
5585.55192,0.86549
5583.62321,0.86666
5581.69450,0.86717
5579.76578,0.86753
5577.83707,0.86829
5575.90836,0.86912
5573.97964,0.86962
5572.05093,0.86955
5570.12222,0.86901
5568.19351,0.86823
5566.26479,0.86793
5564.33608,0.86882
5562.40737,0.87001
5560.47866,0.87051
5558.54994,0.87029
5556.62123,0.86933
5554.69252,0.86879
5552.76381,0.87032
5550.83509,0.87262
5548.90638,0.87304
5546.97767,0.87242
5545.04895,0.87276
5543.12024,0.87366
5541.19153,0.87374
5539.26282,0.87243
5537.33410,0.87106
5535.40539,0.87123
5533.47668,0.87215
5531.54797,0.87293
5529.61925,0.87440
5527.69054,0.87629
5525.76183,0.87651
5523.83311,0.87475
5521.90440,0.87339
5519.97569,0.87303
5518.04698,0.87224
5516.11826,0.87199
5514.18955,0.87329
5512.26084,0.87416
5510.33213,0.87375
5508.40341,0.87364
5506.47470,0.87452
5504.54599,0.87503
5502.61728,0.87404
5500.68856,0.87233
5498.75985,0.87127
5496.83114,0.87093
5494.90242,0.87011
5492.97371,0.86892
5491.04500,0.86907
5489.11629,0.87017
5487.18757,0.87127
5485.25886,0.87248
5483.33015,0.87339
5481.40144,0.87365
5479.47272,0.87273
5477.54401,0.86995
5475.61530,0.86730
5473.68659,0.86789
5471.75787,0.86975
5469.82916,0.86974
5467.90045,0.86933
5465.97173,0.87035
5464.04302,0.87084
5462.11431,0.86980
5460.18560,0.86961
5458.25688,0.87106
5456.32817,0.87300
5454.39946,0.87478
5452.47075,0.87474
5450.54203,0.87291
5448.61332,0.87161
5446.68461,0.87168
5444.75590,0.87273
5442.82718,0.87325
5440.89847,0.87333
5438.96976,0.87461
5437.04104,0.87521
5435.11233,0.87480
5433.18362,0.87599
5431.25491,0.87693
5429.32619,0.87645
5427.39748,0.87827
5425.46877,0.88174
5423.54006,0.88337
5421.61134,0.88378
5419.68263,0.88419
5417.75392,0.88358
5415.82520,0.88064
5413.89649,0.87588
5411.96778,0.87269
5410.03907,0.87425
5408.11035,0.87882
5406.18164,0.88188
5404.25293,0.88292
5402.32422,0.88423
5400.39550,0.88531
5398.46679,0.88409
5396.53808,0.88097
5394.60937,0.87910
5392.68065,0.88100
5390.75194,0.88498
5388.82323,0.88713
5386.89451,0.88614
5384.96580,0.88500
5383.03709,0.88560
5381.10838,0.88535
5379.17966,0.88277
5377.25095,0.88006
5375.32224,0.88071
5373.39353,0.88427
5371.46481,0.88768
5369.53610,0.88958
5367.60739,0.88970
5365.67868,0.88812
5363.74996,0.88716
5361.82125,0.88892
5359.89254,0.89134
5357.96382,0.89171
5356.03511,0.88885
5354.10640,0.88507
5352.17769,0.88555
5350.24897,0.88805
5348.32026,0.88744
5346.39155,0.88430
5344.46284,0.88287
5342.53412,0.88447
5340.60541,0.88397
5338.67670,0.88113
5336.74799,0.88239
5334.81927,0.88695
5332.89056,0.88991
5330.96185,0.89065
5329.03313,0.88946
5327.10442,0.88824
5325.17571,0.89005
5323.24700,0.89352
5321.31828,0.89538
5319.38957,0.89471
5317.46086,0.89323
5315.53215,0.89292
5313.60343,0.89364
5311.67472,0.89402
5309.74601,0.89288
5307.81729,0.89138
5305.88858,0.89251
5303.95987,0.89547
5302.03116,0.89705
5300.10244,0.89652
5298.17373,0.89566
5296.24502,0.89536
5294.31631,0.89461
5292.38759,0.89326
5290.45888,0.89299
5288.53017,0.89430
5286.60146,0.89501
5284.67274,0.89429
5282.74403,0.89311
5280.81532,0.89277
5278.88660,0.89430
5276.95789,0.89592
5275.02918,0.89583
5273.10047,0.89472
5271.17175,0.89273
5269.24304,0.89001
5267.31433,0.88750
5265.38562,0.88523
5263.45690,0.88432
5261.52819,0.88684
5259.59948,0.89082
5257.67077,0.89224
5255.74205,0.89122
5253.81334,0.89138
5251.88463,0.89212
5249.95591,0.88985
5248.02720,0.88617
5246.09849,0.88531
5244.16978,0.88765
5242.24106,0.89157
5240.31235,0.89459
5238.38364,0.89503
5236.45493,0.89389
5234.52621,0.89255
5232.59750,0.89185
5230.66879,0.89226
5228.74007,0.89176
5226.81136,0.88913
5224.88265,0.88792
5222.95394,0.89022
5221.02522,0.89260
5219.09651,0.89344
5217.16780,0.89457
5215.23909,0.89660
5213.31037,0.89773
5211.38166,0.89665
5209.45295,0.89380
5207.52424,0.89111
5205.59552,0.89123
5203.66681,0.89390
5201.73810,0.89621
5199.80938,0.89629
5197.88067,0.89477
5195.95196,0.89391
5194.02325,0.89431
5192.09453,0.89452
5190.16582,0.89408
5188.23711,0.89374
5186.30840,0.89349
5184.37968,0.89359
5182.45097,0.89448
5180.52226,0.89519
5178.59355,0.89579
5176.66483,0.89711
5174.73612,0.89784
5172.80741,0.89685
5170.87869,0.89594
5168.94998,0.89640
5167.02127,0.89623
5165.09256,0.89500
5163.16384,0.89493
5161.23513,0.89559
5159.30642,0.89525
5157.37771,0.89421
5155.44899,0.89377
5153.52028,0.89467
5151.59157,0.89602
5149.66286,0.89680
5147.73414,0.89727
5145.80543,0.89758
5143.87672,0.89751
5141.94800,0.89758
5140.01929,0.89794
5138.09058,0.89765
5136.16187,0.89690
5134.23315,0.89680
5132.30444,0.89702
5130.37573,0.89700
5128.44702,0.89683
5126.51830,0.89699
5124.58959,0.89774
5122.66088,0.89783
5120.73216,0.89668
5118.80345,0.89638
5116.87474,0.89757
5114.94603,0.89778
5113.01731,0.89662
5111.08860,0.89610
5109.15989,0.89628
5107.23118,0.89636
5105.30246,0.89630
5103.37375,0.89575
5101.44504,0.89492
5099.51633,0.89505
5097.58761,0.89633
5095.65890,0.89752
5093.73019,0.89770
5091.80147,0.89706
5089.87276,0.89641
5087.94405,0.89660
5086.01534,0.89771
5084.08662,0.89864
5082.15791,0.89873
5080.22920,0.89858
5078.30049,0.89878
5076.37177,0.89949
5074.44306,0.90033
5072.51435,0.90072
5070.58564,0.90078
5068.65692,0.90050
5066.72821,0.89981
5064.79950,0.89929
5062.87078,0.89953
5060.94207,0.90051
5059.01336,0.90135
5057.08465,0.90157
5055.15593,0.90165
5053.22722,0.90165
5051.29851,0.90132
5049.36980,0.90064
5047.44108,0.90001
5045.51237,0.90025
5043.58366,0.90140
5041.65495,0.90221
5039.72623,0.90208
5037.79752,0.90167
5035.86881,0.90141
5033.94009,0.90126
5032.01138,0.90147
5030.08267,0.90213
5028.15396,0.90258
5026.22524,0.90222
5024.29653,0.90188
5022.36782,0.90243
5020.43911,0.90313
5018.51039,0.90317
5016.58168,0.90268
5014.65297,0.90199
5012.72425,0.90144
5010.79554,0.90142
5008.86683,0.90192
5006.93812,0.90224
5005.00940,0.90213
5003.08069,0.90192
5001.15198,0.90168
4999.22327,0.90146
4997.29455,0.90145
4995.36584,0.90158
4993.43713,0.90200
4991.50842,0.90272
4989.57970,0.90317
4987.65099,0.90331
4985.72228,0.90332
4983.79356,0.90302
4981.86485,0.90293
4979.93614,0.90331
4978.00743,0.90368
4976.07871,0.90375
4974.15000,0.90348
4972.22129,0.90320
4970.29258,0.90321
4968.36386,0.90348
4966.43515,0.90388
4964.50644,0.90420
4962.57773,0.90421
4960.64901,0.90411
4958.72030,0.90427
4956.79159,0.90462
4954.86287,0.90488
4952.93416,0.90472
4951.00545,0.90404
4949.07674,0.90325
4947.14802,0.90273
4945.21931,0.90277
4943.29060,0.90332
4941.36189,0.90383
4939.43317,0.90386
4937.50446,0.90370
4935.57575,0.90367
4933.64703,0.90323
4931.71832,0.90213
4929.78961,0.90146
4927.86090,0.90171
4925.93218,0.90242
4924.00347,0.90385
4922.07476,0.90514
4920.14605,0.90470
4918.21733,0.90376
4916.28862,0.90393
4914.35991,0.90440
4912.43120,0.90429
4910.50248,0.90384
4908.57377,0.90364
4906.64506,0.90411
4904.71634,0.90463
4902.78763,0.90431
4900.85892,0.90392
4898.93021,0.90409
4897.00149,0.90408
4895.07278,0.90352
4893.14407,0.90256
4891.21536,0.90202
4889.28664,0.90277
4887.35793,0.90375
4885.42922,0.90350
4883.50051,0.90294
4881.57179,0.90321
4879.64308,0.90365
4877.71437,0.90378
4875.78565,0.90362
4873.85694,0.90317
4871.92823,0.90264
4869.99952,0.90197
4868.07080,0.90159
4866.14209,0.90175
4864.21338,0.90171
4862.28467,0.90187
4860.35595,0.90327
4858.42724,0.90468
4856.49853,0.90452
4854.56982,0.90371
4852.64110,0.90358
4850.71239,0.90418
4848.78368,0.90499
4846.85496,0.90506
4844.92625,0.90407
4842.99754,0.90271
4841.06883,0.90174
4839.14011,0.90168
4837.21140,0.90233
4835.28269,0.90274
4833.35398,0.90244
4831.42526,0.90210
4829.49655,0.90269
4827.56784,0.90363
4825.63912,0.90363
4823.71041,0.90290
4821.78170,0.90213
4819.85299,0.90138
4817.92427,0.90104
4815.99556,0.90144
4814.06685,0.90203
4812.13814,0.90229
4810.20942,0.90236
4808.28071,0.90234
4806.35200,0.90214
4804.42329,0.90159
4802.49457,0.90092
4800.56586,0.90047
4798.63715,0.90018
4796.70843,0.90053
4794.77972,0.90124
4792.85101,0.90152
4790.92230,0.90170
4788.99358,0.90143
4787.06487,0.90042
4785.13616,0.89986
4783.20745,0.89989
4781.27873,0.89969
4779.35002,0.89950
4777.42131,0.89999
4775.49260,0.90104
4773.56388,0.90174
4771.63517,0.90165
4769.70646,0.90128
4767.77774,0.90106
4765.84903,0.90105
4763.92032,0.90132
4761.99161,0.90198
4760.06289,0.90266
4758.13418,0.90259
4756.20547,0.90188
4754.27676,0.90132
4752.34804,0.90117
4750.41933,0.90114
4748.49062,0.90110
4746.56191,0.90110
4744.63319,0.90055
4742.70448,0.89973
4740.77577,0.89982
4738.84705,0.90017
4736.91834,0.89949
4734.98963,0.89822
4733.06092,0.89718
4731.13220,0.89647
4729.20349,0.89550
4727.27478,0.89394
4725.34607,0.89221
4723.41735,0.89055
4721.48864,0.88885
4719.55993,0.88763
4717.63121,0.88718
4715.70250,0.88671
4713.77379,0.88578
4711.84508,0.88504
4709.91636,0.88489
4707.98765,0.88460
4706.05894,0.88347
4704.13023,0.88182
4702.20151,0.88009
4700.27280,0.87818
4698.34409,0.87595
4696.41538,0.87343
4694.48666,0.87053
4692.55795,0.86733
4690.62924,0.86470
4688.70052,0.86298
4686.77181,0.86179
4684.84310,0.86151
4682.91439,0.86268
4680.98567,0.86479
4679.05696,0.86666
4677.12825,0.86781
4675.19954,0.86885
4673.27082,0.87030
4671.34211,0.87205
4669.41340,0.87388
4667.48469,0.87561
4665.55597,0.87659
4663.62726,0.87629
4661.69855,0.87590
4659.76983,0.87645
4657.84112,0.87720
4655.91241,0.87772
4653.98370,0.87820
4652.05498,0.87831
4650.12627,0.87783
4648.19756,0.87713
4646.26885,0.87637
4644.34013,0.87535
4642.41142,0.87384
4640.48271,0.87173
4638.55399,0.86912
4636.62528,0.86625
4634.69657,0.86366
4632.76786,0.86223
4630.83914,0.86245
4628.91043,0.86389
4626.98172,0.86571
4625.05301,0.86778
4623.12429,0.87047
4621.19558,0.87345
4619.26687,0.87629
4617.33816,0.87910
4615.40944,0.88127
4613.48073,0.88210
4611.55202,0.88276
4609.62330,0.88401
4607.69459,0.88494
4605.76588,0.88551
4603.83717,0.88614
4601.90845,0.88629
4599.97974,0.88564
4598.05103,0.88460
4596.12232,0.88398
4594.19360,0.88411
4592.26489,0.88414
4590.33618,0.88324
4588.40747,0.88202
4586.47875,0.88138
4584.55004,0.88110
4582.62133,0.88071
4580.69261,0.88040
4578.76390,0.88058
4576.83519,0.88093
4574.90648,0.88060
4572.97776,0.87994
4571.04905,0.88021
4569.12034,0.88168
4567.19163,0.88360
4565.26291,0.88534
4563.33420,0.88692
4561.40549,0.88820
4559.47678,0.88873
4557.54806,0.88851
4555.61935,0.88810
4553.69064,0.88778
4551.76192,0.88741
4549.83321,0.88697
4547.90450,0.88677
4545.97579,0.88677
4544.04707,0.88695
4542.11836,0.88722
4540.18965,0.88710
4538.26094,0.88674
4536.33222,0.88652
4534.40351,0.88603
4532.47480,0.88507
4530.54608,0.88434
4528.61737,0.88423
4526.68866,0.88438
4524.75995,0.88432
4522.83123,0.88380
4520.90252,0.88305
4518.97381,0.88258
4517.04510,0.88218
4515.11638,0.88123
4513.18767,0.87994
4511.25896,0.87884
4509.33025,0.87809
4507.40153,0.87747
4505.47282,0.87647
4503.54411,0.87461
4501.61539,0.87251
4499.68668,0.87086
4497.75797,0.86922
4495.82926,0.86728
4493.90054,0.86516
4491.97183,0.86281
4490.04312,0.86060
4488.11441,0.85860
4486.18569,0.85657
4484.25698,0.85488
4482.32827,0.85376
4480.39956,0.85277
4478.47084,0.85168
4476.54213,0.85059
4474.61342,0.84959
4472.68470,0.84862
4470.75599,0.84758
4468.82728,0.84626
4466.89857,0.84447
4464.96985,0.84231
4463.04114,0.83994
4461.11243,0.83704
4459.18372,0.83367
4457.25500,0.83037
4455.32629,0.82715
4453.39758,0.82383
4451.46886,0.82011
4449.54015,0.81545
4447.61144,0.81011
4445.68273,0.80444
4443.75401,0.79831
4441.82530,0.79215
4439.89659,0.78625
4437.96788,0.78002
4436.03916,0.77300
4434.11045,0.76536
4432.18174,0.75746
4430.25303,0.74933
4428.32431,0.74073
4426.39560,0.73198
4424.46689,0.72355
4422.53817,0.71491
4420.60946,0.70548
4418.68075,0.69574
4416.75204,0.68637
4414.82332,0.67719
4412.89461,0.66793
4410.96590,0.65893
4409.03719,0.65061
4407.10847,0.64316
4405.17976,0.63662
4403.25105,0.63096
4401.32234,0.62635
4399.39362,0.62271
4397.46491,0.61978
4395.53620,0.61765
4393.60748,0.61631
4391.67877,0.61510
4389.75006,0.61314
4387.82135,0.60964
4385.89263,0.60423
4383.96392,0.59705
4382.03521,0.58854
4380.10650,0.57939
4378.17778,0.57013
4376.24907,0.56054
4374.32036,0.55036
4372.39165,0.54002
4370.46293,0.52959
4368.53422,0.51847
4366.60551,0.50654
4364.67679,0.49427
4362.74808,0.48209
4360.81937,0.47032
4358.89066,0.45923
4356.96194,0.44897
4355.03323,0.43933
4353.10452,0.43000
4351.17581,0.42068
4349.24709,0.41126
4347.31838,0.40199
4345.38967,0.39286
4343.46095,0.38341
4341.53224,0.37392
4339.60353,0.36513
4337.67482,0.35764
4335.74610,0.35238
4333.81739,0.35034
4331.88868,0.35188
4329.95997,0.35701
4328.03125,0.36533
4326.10254,0.37564
4324.17383,0.38689
4322.24512,0.39873
4320.31640,0.41090
4318.38769,0.42307
4316.45898,0.43476
4314.53026,0.44544
4312.60155,0.45462
4310.67284,0.46186
4308.74413,0.46738
4306.81541,0.47181
4304.88670,0.47528
4302.95799,0.47782
4301.02928,0.47969
4299.10056,0.48113
4297.17185,0.48225
4295.24314,0.48281
4293.31443,0.48248
4291.38571,0.48126
4289.45700,0.47948
4287.52829,0.47758
4285.59957,0.47583
4283.67086,0.47414
4281.74215,0.47258
4279.81344,0.47156
4277.88472,0.47123
4275.95601,0.47146
4274.02730,0.47243
4272.09859,0.47398
4270.16987,0.47538
4268.24116,0.47676
4266.31245,0.47887
4264.38374,0.48142
4262.45502,0.48388
4260.52631,0.48618
4258.59760,0.48806
4256.66888,0.48913
4254.74017,0.48917
4252.81146,0.48856
4250.88275,0.48827
4248.95403,0.48849
4247.02532,0.48853
4245.09661,0.48817
4243.16790,0.48764
4241.23918,0.48706
4239.31047,0.48624
4237.38176,0.48487
4235.45304,0.48300
4233.52433,0.48093
4231.59562,0.47875
4229.66691,0.47652
4227.73819,0.47436
4225.80948,0.47231
4223.88077,0.47022
4221.95206,0.46813
4220.02334,0.46633
4218.09463,0.46524
4216.16592,0.46494
4214.23721,0.46489
4212.30849,0.46508
4210.37978,0.46630
4208.45107,0.46872
4206.52235,0.47172
4204.59364,0.47521
4202.66493,0.47939
4200.73622,0.48388
4198.80750,0.48826
4196.87879,0.49246
4194.95008,0.49638
4193.02137,0.49989
4191.09265,0.50292
4189.16394,0.50521
4187.23523,0.50633
4185.30652,0.50616
4183.37780,0.50482
4181.44909,0.50240
4179.52038,0.49933
4177.59166,0.49624
4175.66295,0.49346
4173.73424,0.49108
4171.80553,0.48945
4169.87681,0.48927
4167.94810,0.49112
4166.01939,0.49494
4164.09068,0.50003
4162.16196,0.50578
4160.23325,0.51197
4158.30454,0.51846
4156.37582,0.52483
4154.44711,0.53050
4152.51840,0.53533
4150.58969,0.53952
4148.66097,0.54341
4146.73226,0.54731
4144.80355,0.55149
4142.87484,0.55606
4140.94612,0.56078
4139.01741,0.56551
4137.08870,0.57011
4135.15999,0.57431
4133.23127,0.57820
4131.30256,0.58168
4129.37385,0.58428
4127.44513,0.58597
4125.51642,0.58687
4123.58771,0.58707
4121.65900,0.58683
4119.73028,0.58600
4117.80157,0.58439
4115.87286,0.58238
4113.94415,0.58050
4112.01543,0.57871
4110.08672,0.57682
4108.15801,0.57481
4106.22930,0.57272
4104.30058,0.57038
4102.37187,0.56746
4100.44316,0.56383
4098.51444,0.55950
4096.58573,0.55395
4094.65702,0.54656
4092.72831,0.53743
4090.79959,0.52733
4088.87088,0.51696
4086.94217,0.50718
4085.01346,0.49974
4083.08474,0.49634
4081.15603,0.49773
4079.22732,0.50351
4077.29861,0.51211
4075.36989,0.52149
4073.44118,0.53053
4071.51247,0.53927
4069.58375,0.54795
4067.65504,0.55654
4065.72633,0.56480
4063.79762,0.57242
4061.86890,0.57976
4059.94019,0.58748
4058.01148,0.59507
4056.08277,0.60152
4054.15405,0.60673
4052.22534,0.61085
4050.29663,0.61408
4048.36791,0.61664
4046.43920,0.61860
4044.51049,0.62052
4042.58178,0.62303
4040.65306,0.62550
4038.72435,0.62699
4036.79564,0.62766
4034.86693,0.62827
4032.93821,0.62919
4031.00950,0.63000
4029.08079,0.63013
4027.15208,0.62974
4025.22336,0.62955
4023.29465,0.62965
4021.36594,0.62961
4019.43722,0.62972
4017.50851,0.63092
4015.57980,0.63302
4013.65109,0.63497
4011.72237,0.63668
4009.79366,0.63896
4007.86495,0.64222
4005.93624,0.64595
4004.00752,0.64954
4002.07881,0.65279
4000.15010,0.65591
3998.22139,0.65924
3996.29267,0.66272
3994.36396,0.66591
3992.43525,0.66881
3990.50653,0.67204
3988.57782,0.67568
3986.64911,0.67908
3984.72040,0.68178
3982.79168,0.68392
3980.86297,0.68586
3978.93426,0.68777
3977.00555,0.68953
3975.07683,0.69121
3973.14812,0.69319
3971.21941,0.69528
3969.29070,0.69697
3967.36198,0.69830
3965.43327,0.69945
3963.50456,0.70030
3961.57584,0.70092
3959.64713,0.70155
3957.71842,0.70205
3955.78971,0.70235
3953.86099,0.70228
3951.93228,0.70143
3950.00357,0.70039
3948.07486,0.70059
3946.14614,0.70128
3944.21743,0.70095
3942.28872,0.70126
3940.36000,0.70321
3938.43129,0.70474
3936.50258,0.70461
3934.57387,0.70276
3932.64515,0.70035
3930.71644,0.69999
3928.78773,0.70151
3926.85902,0.70146
3924.93030,0.69958
3923.00159,0.69910
3921.07288,0.69946
3919.14417,0.69877
3917.21545,0.69921
3915.28674,0.70223
3913.35803,0.70518
3911.42931,0.70658
3909.50060,0.70641
3907.57189,0.70355
3905.64318,0.69781
3903.71446,0.69327
3901.78575,0.69392
3899.85704,0.69815
3897.92833,0.70393
3895.99961,0.70800
3894.07090,0.70785
3892.14219,0.70634
3890.21348,0.70866
3888.28476,0.71140
3886.35605,0.71090
3884.42734,0.70959
3882.49862,0.70912
3880.56991,0.71009
3878.64120,0.71359
3876.71249,0.71515
3874.78377,0.71226
3872.85506,0.70760
3870.92635,0.70494
3868.99764,0.70648
3867.06892,0.70850
3865.14021,0.70747
3863.21150,0.70780
3861.28278,0.71211
3859.35407,0.71462
3857.42536,0.71194
3855.49665,0.70456
3853.56793,0.69809
3851.63922,0.70419
3849.71051,0.71379
3847.78180,0.71914
3845.85308,0.71965
3843.92437,0.71646
3841.99566,0.71204
3840.06695,0.70809
3838.13823,0.70768
3836.20952,0.71241
3834.28081,0.71742
3832.35209,0.72088
3830.42338,0.72340
3828.49467,0.72434
3826.56596,0.72405
3824.63724,0.72286
3822.70853,0.71882
3820.77982,0.71521
3818.85111,0.71774
3816.92239,0.72222
3814.99368,0.72865
3813.06497,0.73540
3811.13626,0.73822
3809.20754,0.73639
3807.27883,0.73247
3805.35012,0.72997
3803.42140,0.72737
3801.49269,0.72635
3799.56398,0.73086
3797.63527,0.73659
3795.70655,0.74315
3793.77784,0.75004
3791.84913,0.75447
3789.92042,0.75653
3787.99170,0.75673
3786.06299,0.75552
3784.13428,0.75531
3782.20557,0.75595
3780.27685,0.75556
3778.34814,0.75662
3776.41943,0.75998
3774.49071,0.76155
3772.56200,0.75909
3770.63329,0.75434
3768.70458,0.75179
3766.77586,0.75222
3764.84715,0.75366
3762.91844,0.75414
3760.98973,0.75130
3759.06101,0.74715
3757.13230,0.74605
3755.20359,0.74528
3753.27487,0.74049
3751.34616,0.73350
3749.41745,0.73390
3747.48874,0.73870
3745.56002,0.74236
3743.63131,0.74760
3741.70260,0.75228
3739.77389,0.75298
3737.84517,0.74930
3735.91646,0.74394
3733.98775,0.74533
3732.05904,0.75391
3730.13032,0.76160
3728.20161,0.76476
3726.27290,0.76471
3724.34418,0.76517
3722.41547,0.76830
3720.48676,0.77322
3718.55805,0.77729
3716.62933,0.77791
3714.70062,0.77324
3712.77191,0.76344
3710.84320,0.75652
3708.91448,0.75944
3706.98577,0.76325
3705.05706,0.76189
3703.12835,0.75571
3701.19963,0.74900
3699.27092,0.74479
3697.34221,0.73964
3695.41349,0.73136
3693.48478,0.71980
3691.55607,0.70389
3689.62736,0.68723
3687.69864,0.68029
3685.76993,0.67994
3683.84122,0.67897
3681.91251,0.67598
3679.98379,0.67094
3678.05508,0.66409
3676.12637,0.65841
3674.19766,0.66040
3672.26894,0.66363
3670.34023,0.66501
3668.41152,0.67178
3666.48280,0.68063
3664.55409,0.68593
3662.62538,0.68838
3660.69667,0.68958
3658.76795,0.68946
3656.83924,0.68872
3654.91053,0.68905
3652.98182,0.68738
3651.05310,0.68000
3649.12439,0.67356
3647.19568,0.68151
3645.26696,0.69200
3643.33825,0.69712
3641.40954,0.69859
3639.48083,0.69858
3637.55211,0.69746
3635.62340,0.69465
3633.69469,0.69010
3631.76598,0.68388
3629.83726,0.67576
3627.90855,0.67143
3625.97984,0.67330
3624.05113,0.67350
3622.12241,0.66950
3620.19370,0.66258
3618.26499,0.65723
3616.33627,0.65472
3614.40756,0.65196
3612.47885,0.65010
3610.55014,0.64972
3608.62142,0.64935
3606.69271,0.65016
3604.76400,0.65082
3602.83529,0.64826
3600.90657,0.64366
3598.97786,0.64046
3597.04915,0.63831
3595.12044,0.63611
3593.19172,0.63485
3591.26301,0.63298
3589.33430,0.62756
3587.40558,0.62143
3585.47687,0.62124
3583.54816,0.62326
3581.61945,0.62282
3579.69073,0.62012
3577.76202,0.61655
3575.83331,0.61267
3573.90460,0.60852
3571.97588,0.60380
3570.04717,0.59692
3568.11846,0.58711
3566.18974,0.57981
3564.26103,0.57883
3562.33232,0.57846
3560.40361,0.57637
3558.47489,0.57369
3556.54618,0.57038
3554.61747,0.56585
3552.68876,0.56129
3550.76004,0.55851
3548.83133,0.55637
3546.90262,0.55358
3544.97391,0.55183
3543.04519,0.55212
3541.11648,0.55280
3539.18777,0.55234
3537.25905,0.55096
3535.33034,0.54992
3533.40163,0.54914
3531.47292,0.54711
3529.54420,0.54389
3527.61549,0.54150
3525.68678,0.54036
3523.75807,0.53961
3521.82935,0.53942
3519.90064,0.53926
3517.97193,0.53818
3516.04322,0.53642
3514.11450,0.53386
3512.18579,0.52999
3510.25708,0.52590
3508.32836,0.52292
3506.39965,0.52001
3504.47094,0.51583
3502.54223,0.51158
3500.61351,0.50843
3498.68480,0.50495
3496.75609,0.50034
3494.82738,0.49548
3492.89866,0.49080
3490.96995,0.48561
3489.04124,0.47969
3487.11253,0.47372
3485.18381,0.46787
3483.25510,0.46166
3481.32639,0.45577
3479.39767,0.45115
3477.46896,0.44667
3475.54025,0.44149
3473.61154,0.43654
3471.68282,0.43219
3469.75411,0.42809
3467.82540,0.42416
3465.89669,0.42007
3463.96797,0.41562
3462.03926,0.41130
3460.11055,0.40737
3458.18183,0.40343
3456.25312,0.39932
3454.32441,0.39506
3452.39570,0.39022
3450.46698,0.38415
3448.53827,0.37690
3446.60956,0.36924
3444.68085,0.36170
3442.75213,0.35375
3440.82342,0.34500
3438.89471,0.33576
3436.96600,0.32635
3435.03728,0.31743
3433.10857,0.30937
3431.17986,0.30245
3429.25114,0.29724
3427.32243,0.29357
3425.39372,0.29119
3423.46501,0.29042
3421.53629,0.29168
3419.60758,0.29511
3417.67887,0.30052
3415.75016,0.30750
3413.82144,0.31547
3411.89273,0.32416
3409.96402,0.33336
3408.03531,0.34294
3406.10659,0.35313
3404.17788,0.36392
3402.24917,0.37492
3400.32045,0.38551
3398.39174,0.39517
3396.46303,0.40419
3394.53432,0.41287
3392.60560,0.42078
3390.67689,0.42790
3388.74818,0.43465
3386.81947,0.44107
3384.89075,0.44719
3382.96204,0.45309
3381.03333,0.45854
3379.10462,0.46359
3377.17590,0.46871
3375.24719,0.47360
3373.31848,0.47790
3371.38976,0.48188
3369.46105,0.48546
3367.53234,0.48858
3365.60363,0.49154
3363.67491,0.49424
3361.74620,0.49660
3359.81749,0.49882
3357.88878,0.50064
3355.96006,0.50203
3354.03135,0.50348
3352.10264,0.50488
3350.17392,0.50553
3348.24521,0.50526
3346.31650,0.50447
3344.38779,0.50366
3342.45907,0.50283
3340.53036,0.50133
3338.60165,0.49879
3336.67294,0.49592
3334.74422,0.49343
3332.81551,0.49119
3330.88680,0.48933
3328.95809,0.48797
3327.02937,0.48664
3325.10066,0.48480
3323.17195,0.48176
3321.24323,0.47706
3319.31452,0.47035
3317.38581,0.46067
3315.45710,0.44726
3313.52838,0.42956
3311.59967,0.40707
3309.67096,0.38010
3307.74225,0.35084
3305.81353,0.32382
3303.88482,0.30376
3301.95611,0.29403
3300.02740,0.29588
3298.09868,0.30797
3296.16997,0.32719
3294.24126,0.34995
3292.31254,0.37365
3290.38383,0.39683
3288.45512,0.41866
3286.52641,0.43860
3284.59769,0.45625
3282.66898,0.47115
3280.74027,0.48332
3278.81156,0.49395
3276.88284,0.50423
3274.95413,0.51402
3273.02542,0.52278
3271.09670,0.53053
3269.16799,0.53735
3267.23928,0.54324
3265.31057,0.54854
3263.38185,0.55344
3261.45314,0.55749
3259.52443,0.56036
3257.59572,0.56245
3255.66700,0.56424
3253.73829,0.56594
3251.80958,0.56762
3249.88087,0.56898
3247.95215,0.56941
3246.02344,0.56912
3244.09473,0.56901
3242.16601,0.56908
3240.23730,0.56884
3238.30859,0.56822
3236.37988,0.56734
3234.45116,0.56620
3232.52245,0.56444
3230.59374,0.56233
3228.66503,0.56083
3226.73631,0.56004
3224.80760,0.55944
3222.87889,0.55865
3220.95018,0.55737
3219.02146,0.55572
3217.09275,0.55439
3215.16404,0.55363
3213.23532,0.55286
3211.30661,0.55153
3209.37790,0.54986
3207.44919,0.54831
3205.52047,0.54680
3203.59176,0.54528
3201.66305,0.54400
3199.73434,0.54291
3197.80562,0.54193
3195.87691,0.54128
3193.94820,0.54089
3192.01949,0.54046
3190.09077,0.54019
3188.16206,0.54049
3186.23335,0.54121
3184.30463,0.54200
3182.37592,0.54263
3180.44721,0.54281
3178.51850,0.54271
3176.58978,0.54301
3174.66107,0.54385
3172.73236,0.54443
3170.80365,0.54434
3168.87493,0.54415
3166.94622,0.54412
3165.01751,0.54395
3163.08879,0.54372
3161.16008,0.54334
3159.23137,0.54264
3157.30266,0.54185
3155.37394,0.54118
3153.44523,0.54053
3151.51652,0.53942
3149.58781,0.53753
3147.65909,0.53531
3145.73038,0.53308
3143.80167,0.53056
3141.87296,0.52780
3139.94424,0.52511
3138.01553,0.52228
3136.08682,0.51866
3134.15810,0.51403
3132.22939,0.50880
3130.30068,0.50350
3128.37197,0.49851
3126.44325,0.49464
3124.51454,0.49243
3122.58583,0.49161
3120.65712,0.49125
3118.72840,0.49002
3116.79969,0.48742
3114.87098,0.48387
3112.94227,0.47936
3111.01355,0.47347
3109.08484,0.46611
3107.15613,0.45767
3105.22741,0.44845
3103.29870,0.43831
3101.36999,0.42765
3099.44128,0.41776
3097.51256,0.40963
3095.58385,0.40354
3093.65514,0.39853
3091.72643,0.39242
3089.79771,0.38385
3087.86900,0.37332
3085.94029,0.36198
3084.01158,0.35102
3082.08286,0.34204
3080.15415,0.33672
3078.22544,0.33505
3076.29672,0.33482
3074.36801,0.33297
3072.43930,0.32763
3070.51059,0.31899
3068.58187,0.30873
3066.65316,0.29929
3064.72445,0.29280
3062.79574,0.28962
3060.86702,0.28802
3058.93831,0.28536
3057.00960,0.28033
3055.08088,0.27460
3053.15217,0.27153
3051.22346,0.27295
3049.29475,0.27810
3047.36603,0.28451
3045.43732,0.28928
3043.50861,0.29071
3041.57990,0.28888
3039.65118,0.28446
3037.72247,0.27786
3035.79376,0.26950
3033.86505,0.26032
3031.93633,0.25110
3030.00762,0.24191
3028.07891,0.23238
3026.15019,0.22211
3024.22148,0.21081
3022.29277,0.19856
3020.36406,0.18579
3018.43534,0.17260
3016.50663,0.15878
3014.57792,0.14419
3012.64921,0.12899
3010.72049,0.11358
3008.79178,0.09841
3006.86307,0.08370
3004.93436,0.06939
3003.00564,0.05566
3001.07693,0.04316
2999.14822,0.03251
2997.21950,0.02366
2995.29079,0.01623
2993.36208,0.01022
2991.43337,0.00581
2989.50465,0.00285
2987.57594,0.00118
2985.64723,0.00064
2983.71852,0.00060
2981.78980,0.00031
2979.86109,0.00023
2977.93238,0.00048
2976.00366,0.00059
2974.07495,0.00062
2972.14624,0.00063
2970.21753,0.00051
2968.28881,0.00029
2966.36010,0.00036
2964.43139,0.00037
2962.50268,0.00032
2960.57396,0.00022
2958.64525,0.00030
2956.71654,0.00056
2954.78783,0.00076
2952.85911,0.00074
2950.93040,0.00055
2949.00169,0.00034
2947.07297,0.00036
2945.14426,0.00052
2943.21555,0.00068
2941.28684,0.00085
2939.35812,0.00080
2937.42941,0.00039
2935.50070,0.00020
2933.57199,0.00047
2931.64327,0.00082
2929.71456,0.00082
2927.78585,0.00058
2925.85714,0.00046
2923.92842,0.00069
2921.99971,0.00088
2920.07100,0.00069
2918.14228,0.00038
2916.21357,0.00032
2914.28486,0.00040
2912.35615,0.00056
2910.42743,0.00076
2908.49872,0.00082
2906.57001,0.00077
2904.64130,0.00077
2902.71258,0.00076
2900.78387,0.00076
2898.85516,0.00068
2896.92645,0.00047
2894.99773,0.00022
2893.06902,0.00031
2891.14031,0.00045
2889.21159,0.00061
2887.28288,0.00068
2885.35417,0.00053
2883.42546,0.00039
2881.49674,0.00062
2879.56803,0.00091
2877.63932,0.00084
2875.71061,0.00057
2873.78189,0.00041
2871.85318,0.00046
2869.92447,0.00072
2867.99575,0.00087
2866.06704,0.00065
2864.13833,0.00028
2862.20962,0.00020
2860.28090,0.00035
2858.35219,0.00051
2856.42348,0.00058
2854.49477,0.00053
2852.56605,0.00057
2850.63734,0.00077
2848.70863,0.00071
2846.77992,0.00046
2844.85120,0.00066
2842.92249,0.00187
2840.99378,0.00447
2839.06506,0.00847
2837.13635,0.01388
2835.20764,0.02055
2833.27893,0.02804
2831.35021,0.03569
2829.42150,0.04299
2827.49279,0.04964
2825.56408,0.05520
2823.63536,0.05921
2821.70665,0.06169
2819.77794,0.06336
2817.84923,0.06581
2815.92051,0.07136
2813.99180,0.08177
2812.06309,0.09704
2810.13437,0.11558
2808.20566,0.13501
2806.27695,0.15350
2804.34824,0.17059
2802.41952,0.18654
2800.49081,0.20179
2798.56210,0.21660
2796.63339,0.23092
2794.70467,0.24460
2792.77596,0.25739
2790.84725,0.26927
2788.91854,0.28054
2786.98982,0.29134
2785.06111,0.30159
2783.13240,0.31145
2781.20368,0.32101
2779.27497,0.33006
2777.34626,0.33818
2775.41755,0.34515
2773.48883,0.35110
2771.56012,0.35599
2769.63141,0.35980
2767.70270,0.36300
2765.77398,0.36592
2763.84527,0.36831
2761.91656,0.36981
2759.98784,0.37032
2758.05913,0.36989
2756.13042,0.36844
2754.20171,0.36604
2752.27299,0.36290
2750.34428,0.35918
2748.41557,0.35504
2746.48686,0.35065
2744.55814,0.34593
2742.62943,0.34083
2740.70072,0.33559
2738.77201,0.33064
2736.84329,0.32669
2734.91458,0.32472
2732.98587,0.32569
2731.05715,0.33035
2729.12844,0.33879
2727.19973,0.35016
2725.27102,0.36302
2723.34230,0.37607
2721.41359,0.38818
2719.48488,0.39849
2717.55617,0.40705
2715.62745,0.41447
2713.69874,0.42103
2711.77003,0.42690
2709.84132,0.43249
2707.91260,0.43791
2705.98389,0.44288
2704.05518,0.44731
2702.12646,0.45135
2700.19775,0.45484
2698.26904,0.45768
2696.34033,0.46022
2694.41161,0.46251
2692.48290,0.46411
2690.55419,0.46478
2688.62548,0.46471
2686.69676,0.46399
2684.76805,0.46256
2682.83934,0.46055
2680.91062,0.45819
2678.98191,0.45567
2677.05320,0.45339
2675.12449,0.45193
2673.19577,0.45145
2671.26706,0.45203
2669.33835,0.45409
2667.40964,0.45782
2665.48092,0.46287
2663.55221,0.46879
2661.62350,0.47530
2659.69479,0.48193
2657.76607,0.48824
2655.83736,0.49413
2653.90865,0.49932
2651.97993,0.50344
2650.05122,0.50641
2648.12251,0.50833
2646.19380,0.50939
2644.26508,0.50972
2642.33637,0.50916
2640.40766,0.50747
2638.47895,0.50458
2636.55023,0.50067
2634.62152,0.49637
2632.69281,0.49251
2630.76410,0.48964
2628.83538,0.48798
2626.90667,0.48726
2624.97796,0.48694
2623.04924,0.48674
2621.12053,0.48654
2619.19182,0.48626
2617.26311,0.48601
2615.33439,0.48581
2613.40568,0.48556
2611.47697,0.48521
2609.54826,0.48478
2607.61954,0.48449
2605.69083,0.48461
2603.76212,0.48506
2601.83341,0.48567
2599.90469,0.48632
2597.97598,0.48685
2596.04727,0.48723
2594.11855,0.48736
2592.18984,0.48702
2590.26113,0.48626
2588.33242,0.48511
2586.40370,0.48360
2584.47499,0.48202
2582.54628,0.48071
2580.61757,0.47995
2578.68885,0.47998
2576.76014,0.48103
2574.83143,0.48314
2572.90271,0.48603
2570.97400,0.48921
2569.04529,0.49230
2567.11658,0.49505
2565.18786,0.49725
2563.25915,0.49885
2561.33044,0.49988
2559.40173,0.50045
2557.47301,0.50096
2555.54430,0.50190
2553.61559,0.50344
2551.68688,0.50529
2549.75816,0.50725
2547.82945,0.50951
2545.90074,0.51225
2543.97202,0.51534
2542.04331,0.51835
2540.11460,0.52092
2538.18589,0.52298
2536.25717,0.52456
2534.32846,0.52576
2532.39975,0.52690
2530.47104,0.52825
2528.54232,0.52991
2526.61361,0.53206
2524.68490,0.53482
2522.75619,0.53821
2520.82747,0.54227
2518.89876,0.54687
2516.97005,0.55157
2515.04133,0.55607
2513.11262,0.56057
2511.18391,0.56519
2509.25520,0.56980
2507.32648,0.57434
2505.39777,0.57859
2503.46906,0.58216
2501.54035,0.58495
2499.61163,0.58731
2497.68292,0.58940
2495.75421,0.59118
2493.82549,0.59280
2491.89678,0.59434
2489.96807,0.59576
2488.03936,0.59715
2486.11064,0.59861
2484.18193,0.60016
2482.25322,0.60185
2480.32451,0.60374
2478.39579,0.60565
2476.46708,0.60726
2474.53837,0.60881
2472.60966,0.61080
2470.68094,0.61302
2468.75223,0.61493
2466.82352,0.61632
2464.89480,0.61718
2462.96609,0.61754
2461.03738,0.61770
2459.10867,0.61789
2457.17995,0.61797
2455.25124,0.61771
2453.32253,0.61709
2451.39382,0.61613
2449.46510,0.61486
2447.53639,0.61334
2445.60768,0.61151
2443.67897,0.60937
2441.75025,0.60705
2439.82154,0.60459
2437.89283,0.60207
2435.96411,0.59953
2434.03540,0.59689
2432.10669,0.59409
2430.17798,0.59085
2428.24926,0.58671
2426.32055,0.58190
2424.39184,0.57705
2422.46313,0.57247
2420.53441,0.56826
2418.60570,0.56459
2416.67699,0.56153
2414.74828,0.55887
2412.81956,0.55619
2410.89085,0.55326
2408.96214,0.55017
2407.03342,0.54710
2405.10471,0.54405
2403.17600,0.54093
2401.24729,0.53780
2399.31857,0.53476
2397.38986,0.53172
2395.46115,0.52853
2393.53244,0.52530
2391.60372,0.52224
2389.67501,0.51949
2387.74630,0.51699
2385.81758,0.51461
2383.88887,0.51222
2381.96016,0.50975
2380.03145,0.50721
2378.10273,0.50484
2376.17402,0.50311
2374.24531,0.50215
2372.31660,0.50179
2370.38788,0.50213
2368.45917,0.50318
2366.53046,0.50464
2364.60175,0.50656
2362.67303,0.50943
2360.74432,0.51357
2358.81561,0.51930
2356.88689,0.52694
2354.95818,0.53621
2353.02947,0.54672
2351.10076,0.55736
2349.17204,0.56523
2347.24333,0.56883
2345.31462,0.57065
2343.38591,0.57449
2341.45719,0.58024
2339.52848,0.58578
2337.59977,0.59081
2335.67106,0.59584
2333.74234,0.60051
2331.81363,0.60445
2329.88492,0.60786
2327.95620,0.61011
2326.02749,0.61039
2324.09878,0.61004
2322.17007,0.61182
2320.24135,0.61700
2318.31264,0.62420
2316.38393,0.63079
2314.45522,0.63542
2312.52650,0.63853
2310.59779,0.64074
2308.66908,0.64229
2306.74037,0.64330
2304.81165,0.64363
2302.88294,0.64306
2300.95423,0.64163
2299.02551,0.63958
2297.09680,0.63694
2295.16809,0.63372
2293.23938,0.63005
2291.31066,0.62594
2289.38195,0.62118
2287.45324,0.61574
2285.52453,0.60998
2283.59581,0.60431
2281.66710,0.59910
2279.73839,0.59513
2277.80967,0.59333
2275.88096,0.59420
2273.95225,0.59753
2272.02354,0.60252
2270.09482,0.60803
2268.16611,0.61315
2266.23740,0.61743
2264.30869,0.62065
2262.37997,0.62278
2260.45126,0.62412
2258.52255,0.62502
2256.59384,0.62552
2254.66512,0.62570
2252.73641,0.62571
2250.80770,0.62557
2248.87898,0.62525
2246.95027,0.62459
2245.02156,0.62353
2243.09285,0.62232
2241.16413,0.62125
2239.23542,0.62049
2237.30671,0.62013
2235.37800,0.62009
2233.44928,0.62031
2231.52057,0.62084
2229.59186,0.62166
2227.66315,0.62279
2225.73443,0.62444
2223.80572,0.62664
2221.87701,0.62907
2219.94829,0.63124
2218.01958,0.63290
2216.09087,0.63406
2214.16216,0.63473
2212.23344,0.63514
2210.30473,0.63588
2208.37602,0.63774
2206.44731,0.64143
2204.51859,0.64698
2202.58988,0.65330
2200.66117,0.65905
2198.73245,0.66373
2196.80374,0.66742
2194.87503,0.67035
2192.94632,0.67280
2191.01760,0.67515
2189.08889,0.67762
2187.16018,0.68034
2185.23147,0.68321
2183.30275,0.68590
2181.37404,0.68817
2179.44533,0.68990
2177.51662,0.69125
2175.58790,0.69247
2173.65919,0.69344
2171.73048,0.69389
2169.80176,0.69389
2167.87305,0.69351
2165.94434,0.69263
2164.01563,0.69138
2162.08691,0.69008
2160.15820,0.68891
2158.22949,0.68791
2156.30078,0.68710
2154.37206,0.68633
2152.44335,0.68556
2150.51464,0.68503
2148.58593,0.68469
2146.65721,0.68418
2144.72850,0.68339
2142.79979,0.68247
2140.87107,0.68162
2138.94236,0.68089
2137.01365,0.68027
2135.08494,0.67990
2133.15622,0.67974
2131.22751,0.67950
2129.29880,0.67911
2127.37009,0.67850
2125.44137,0.67769
2123.51266,0.67695
2121.58395,0.67632
2119.65524,0.67565
2117.72652,0.67479
2115.79781,0.67368
2113.86910,0.67262
2111.94038,0.67196
2110.01167,0.67177
2108.08296,0.67175
2106.15425,0.67153
2104.22553,0.67102
2102.29682,0.67042
2100.36811,0.66980
2098.43940,0.66905
2096.51068,0.66821
2094.58197,0.66728
2092.65326,0.66602
2090.72454,0.66436
2088.79583,0.66271
2086.86712,0.66122
2084.93841,0.65977
2083.00969,0.65839
2081.08098,0.65702
2079.15227,0.65568
2077.22356,0.65454
2075.29484,0.65373
2073.36613,0.65328
2071.43742,0.65313
2069.50871,0.65314
2067.57999,0.65312
2065.65128,0.65337
2063.72257,0.65439
2061.79385,0.65594
2059.86514,0.65766
2057.93643,0.65965
2056.00772,0.66184
2054.07900,0.66401
2052.15029,0.66597
2050.22158,0.66775
2048.29287,0.66963
2046.36415,0.67164
2044.43544,0.67335
2042.50673,0.67464
2040.57802,0.67572
2038.64930,0.67654
2036.72059,0.67697
2034.79188,0.67738
2032.86316,0.67806
2030.93445,0.67895
2029.00574,0.68011
2027.07703,0.68148
2025.14831,0.68301
2023.21960,0.68487
2021.29089,0.68675
2019.36218,0.68810
2017.43346,0.68958
2015.50475,0.69197
2013.57604,0.69421
2011.64733,0.69537
2009.71861,0.69585
2007.78990,0.69624
2005.86119,0.69653
2003.93247,0.69620
2002.00376,0.69479
2000.07505,0.69219
1998.14634,0.68868
1996.21762,0.68410
1994.28891,0.67782
1992.36020,0.67080
1990.43149,0.66553
1988.50277,0.66283
1986.57406,0.66173
1984.64535,0.66104
1982.71663,0.65984
1980.78792,0.65804
1978.85921,0.65577
1976.93050,0.65277
1975.00178,0.64876
1973.07307,0.64351
1971.14436,0.63690
1969.21565,0.62841
1967.28693,0.61831
1965.35822,0.60796
1963.42951,0.59681
1961.50080,0.58313
1959.57208,0.56670
1957.64337,0.54793
1955.71466,0.52757
1953.78594,0.50810
1951.85723,0.49278
1949.92852,0.48418
1947.99981,0.48364
1946.07109,0.49030
1944.14238,0.50225
1942.21367,0.51842
1940.28496,0.53559
1938.35624,0.55057
1936.42753,0.56389
1934.49882,0.57671
1932.57011,0.58920
1930.64139,0.60056
1928.71268,0.60997
1926.78397,0.61690
1924.85525,0.62107
1922.92654,0.62399
1920.99783,0.62719
1919.06912,0.62999
1917.14040,0.63290
1915.21169,0.63620
1913.28298,0.63799
1911.35427,0.63802
1909.42555,0.63826
1907.49684,0.64031
1905.56813,0.64308
1903.63941,0.64525
1901.71070,0.64684
1899.78199,0.64780
1897.85328,0.64774
1895.92456,0.64724
1893.99585,0.64766
1892.06714,0.64809
1890.13843,0.64789
1888.20971,0.64891
1886.28100,0.65105
1884.35229,0.65300
1882.42358,0.65468
1880.49486,0.65607
1878.56615,0.65680
1876.63744,0.65686
1874.70872,0.65608
1872.78001,0.65366
1870.85130,0.64868
1868.92259,0.64307
1866.99387,0.64209
1865.06516,0.64368
1863.13645,0.64298
1861.20774,0.63951
1859.27902,0.63480
1857.35031,0.62972
1855.42160,0.62360
1853.49289,0.61580
1851.56417,0.60624
1849.63546,0.59493
1847.70675,0.58224
1845.77803,0.56876
1843.84932,0.55644
1841.92061,0.54825
1839.99190,0.54067
1838.06318,0.52905
1836.13447,0.51368
1834.20576,0.49663
1832.27705,0.47717
1830.34833,0.45333
1828.41962,0.43111
1826.49091,0.41639
1824.56220,0.40666
1822.63348,0.40288
1820.70477,0.40466
1818.77606,0.40942
1816.84734,0.41588
1814.91863,0.42207
1812.98992,0.42643
1811.06121,0.42941
1809.13249,0.43184
1807.20378,0.43277
1805.27507,0.43119
1803.34636,0.42707
1801.41764,0.42083
1799.48893,0.41392
1797.56022,0.40653
1795.63150,0.39762
1793.70279,0.38596
1791.77408,0.37218
1789.84537,0.36133
1787.91665,0.35232
1785.98794,0.34092
1784.05923,0.32732
1782.13052,0.31371
1780.20180,0.30035
1778.27309,0.28799
1776.34438,0.27644
1774.41567,0.26318
1772.48695,0.24624
1770.55824,0.22944
1768.62953,0.21486
1766.70081,0.19917
1764.77210,0.18253
1762.84339,0.16190
1760.91468,0.13614
1758.98596,0.11179
1757.05725,0.08725
1755.12854,0.06422
1753.19983,0.04693
1751.27111,0.03206
1749.34240,0.01889
1747.41369,0.01072
1745.48498,0.00633
1743.55626,0.00350
1741.62755,0.00172
1739.69884,0.00061
1737.77012,0.00031
1735.84141,0.00047
1733.91270,0.00070
1731.98399,0.00043
1730.05527,0.00029
1728.12656,0.00042
1726.19785,0.00054
1724.26914,0.00051
1722.34042,0.00045
1720.41171,0.00046
1718.48300,0.00056
1716.55429,0.00068
1714.62557,0.00057
1712.69686,0.00056
1710.76815,0.00050
1708.83943,0.00046
1706.91072,0.00032
1704.98201,0.00039
1703.05330,0.00050
1701.12458,0.00097
1699.19587,0.00295
1697.26716,0.00760
1695.33845,0.01627
1693.40973,0.02560
1691.48102,0.03390
1689.55231,0.04261
1687.62359,0.04972
1685.69488,0.05440
1683.76617,0.05996
1681.83746,0.06513
1679.90874,0.06874
1677.98003,0.07193
1676.05132,0.07573
1674.12261,0.08098
1672.19389,0.08829
1670.26518,0.10461
1668.33647,0.13357
1666.40776,0.16046
1664.47904,0.18510
1662.55033,0.21510
1660.62162,0.24335
1658.69290,0.26181
1656.76419,0.27273
1654.83548,0.27865
1652.90677,0.28389
1650.97805,0.28718
1649.04934,0.28365
1647.12063,0.27006
1645.19192,0.24884
1643.26320,0.22630
1641.33449,0.19915
1639.40578,0.17178
1637.47707,0.15686
1635.54835,0.17595
1633.61964,0.21776
1631.69093,0.25035
1629.76221,0.27644
1627.83350,0.29769
1625.90479,0.31097
1623.97608,0.31774
1622.04736,0.32016
1620.11865,0.31657
1618.18994,0.30209
1616.26123,0.27636
1614.33251,0.26135
1612.40380,0.26141
1610.47509,0.26734
1608.54637,0.27741
1606.61766,0.29149
1604.68895,0.30762
1602.76024,0.32445
1600.83152,0.34025
1598.90281,0.35133
1596.97410,0.35454
1595.04539,0.35045
1593.11667,0.34415
1591.18796,0.33990
1589.25925,0.33463
1587.33054,0.31881
1585.40182,0.28333
1583.47311,0.22789
1581.54440,0.16680
1579.61568,0.12050
1577.68697,0.09982
1575.75826,0.11259
1573.82955,0.14146
1571.90083,0.16566
1569.97212,0.18890
1568.04341,0.20667
1566.11470,0.21543
1564.18598,0.22274
1562.25727,0.23033
1560.32856,0.23824
1558.39985,0.25196
1556.47113,0.26140
1554.54242,0.26416
1552.61371,0.26576
1550.68499,0.26746
1548.75628,0.26856
1546.82757,0.26530
1544.89886,0.25387
1542.97014,0.23497
1541.04143,0.21613
1539.11272,0.21313
1537.18401,0.22238
1535.25529,0.23207
1533.32658,0.24115
1531.39787,0.24566
1529.46916,0.24576
1527.54044,0.24649
1525.61173,0.25157
1523.68302,0.25890
1521.75430,0.26645
1519.82559,0.27141
1517.89688,0.26824
1515.96817,0.25702
1514.03945,0.24066
1512.11074,0.21704
1510.18203,0.18391
1508.25332,0.13201
1506.32460,0.06263
1504.39589,0.05010
1502.46718,0.07750
1500.53846,0.11876
1498.60975,0.16195
1496.68104,0.19411
1494.75233,0.20739
1492.82361,0.20592
1490.89490,0.19239
1488.96619,0.16666
1487.03748,0.13848
1485.10876,0.11262
1483.18005,0.08694
1481.25134,0.06104
1479.32263,0.03919
1477.39391,0.02346
1475.46520,0.01205
1473.53649,0.00456
1471.60777,0.00094
1469.67906,-0.00008
1467.75035,-0.00017
1465.82164,0.00033
1463.89292,0.00050
1461.96421,0.00058
1460.03550,0.00057
1458.10679,0.00060
1456.17807,0.00062
1454.24936,0.00050
1452.32065,0.00019
1450.39194,0.00053
1448.46322,0.00087
1446.53451,0.00084
1444.60580,0.00060
1442.67708,0.00042
1440.74837,0.00019
1438.81966,0.00026
1436.89095,0.00023
1434.96223,0.00005
1433.03352,0.00006
1431.10481,0.00032
1429.17610,0.00054
1427.24738,0.00056
1425.31867,0.00038
1423.38996,0.00026
1421.46125,0.00030
1419.53253,0.00032
1417.60382,0.00019
1415.67511,0.00019
1413.74639,0.00019
1411.81768,0.00012
1409.88897,-0.00000
1407.96026,-0.00016
1406.03154,0.00009
1404.10283,0.00112
1402.17412,0.00270
1400.24541,0.00419
1398.31669,0.00501
1396.38798,0.00450
1394.45927,0.00288
1392.53055,0.00138
1390.60184,0.00060
1388.67313,0.00042
1386.74442,0.00051
1384.81570,0.00051
1382.88699,0.00035
1380.95828,0.00019
1379.02957,0.00013
1377.10085,0.00022
1375.17214,0.00041
1373.24343,0.00060
1371.31472,0.00080
1369.38600,0.00122
1367.45729,0.00171
1365.52858,0.00186
1363.59986,0.00158
1361.67115,0.00097
1359.74244,0.00047
1357.81373,0.00042
1355.88501,0.00048
1353.95630,0.00041
1352.02759,0.00035
1350.09888,0.00038
1348.17016,0.00035
1346.24145,0.00033
1344.31274,0.00040
1342.38403,0.00044
1340.45531,0.00033
1338.52660,0.00016
1336.59789,0.00011
1334.66917,0.00012
1332.74046,0.00018
1330.81175,0.00033
1328.88304,0.00049
1326.95432,0.00055
1325.02561,0.00050
1323.09690,0.00037
1321.16819,0.00026
1319.23947,0.00026
1317.31076,0.00032
1315.38205,0.00043
1313.45333,0.00046
1311.52462,0.00034
1309.59591,0.00014
1307.66720,0.00014
1305.73848,0.00018
1303.80977,0.00027
1301.88106,0.00034
1299.95235,0.00030
1298.02363,0.00045
1296.09492,0.00059
1294.16621,0.00056
1292.23750,0.00039
1290.30878,0.00009
1288.38007,0.00026
1286.45136,0.00036
1284.52264,0.00028
1282.59393,0.00026
1280.66522,0.00033
1278.73651,0.00037
1276.80779,0.00027
1274.87908,0.00013
1272.95037,0.00012
1271.02166,0.00022
1269.09294,0.00036
1267.16423,0.00055
1265.23552,0.00069
1263.30681,0.00064
1261.37809,0.00059
1259.44938,0.00057
1257.52067,0.00053
1255.59195,0.00038
1253.66324,0.00030
1251.73453,0.00035
1249.80582,0.00032
1247.87710,0.00027
1245.94839,0.00033
1244.01968,0.00042
1242.09097,0.00049
1240.16225,0.00042
1238.23354,0.00027
1236.30483,0.00020
1234.37612,0.00030
1232.44740,0.00042
1230.51869,0.00044
1228.58998,0.00038
1226.66126,0.00039
1224.73255,0.00038
1222.80384,0.00071
1220.87513,0.00151
1218.94641,0.00229
1217.01770,0.00284
1215.08899,0.00310
1213.16028,0.00296
1211.23156,0.00264
1209.30285,0.00243
1207.37414,0.00222
1205.44542,0.00181
1203.51671,0.00145
1201.58800,0.00130
1199.65929,0.00132
1197.73057,0.00146
1195.80186,0.00183
1193.87315,0.00253
1191.94444,0.00361
1190.01572,0.00514
1188.08701,0.00722
1186.15830,0.00980
1184.22959,0.01245
1182.30087,0.01421
1180.37216,0.01407
1178.44345,0.01194
1176.51473,0.00879
1174.58602,0.00605
1172.65731,0.00475
1170.72860,0.00489
1168.79988,0.00586
1166.87117,0.00694
1164.94246,0.00763
1163.01375,0.00780
1161.08503,0.00761
1159.15632,0.00725
1157.22761,0.00678
1155.29890,0.00618
1153.37018,0.00552
1151.44147,0.00496
1149.51276,0.00462
1147.58404,0.00434
1145.65533,0.00400
1143.72662,0.00364
1141.79791,0.00327
1139.86919,0.00265
1137.94048,0.00168
1136.01177,0.00074
1134.08306,0.00012
1132.15434,0.00013
1130.22563,0.00065
1128.29692,0.00062
1126.36821,0.00045
1124.43949,0.00022
1122.51078,0.00015
1120.58207,0.00029
1118.65335,0.00041
1116.72464,0.00043
1114.79593,0.00035
1112.86722,0.00034
1110.93850,0.00050
1109.00979,0.00036
1107.08108,0.00047
1105.15237,0.00053
1103.22365,0.00039
1101.29494,0.00023
1099.36623,0.00034
1097.43751,0.00062
1095.50880,0.00076
1093.58009,0.00047
1091.65138,0.00010
1089.72266,0.00024
1087.79395,0.00057
1085.86524,0.00045
1083.93653,0.00041
1082.00781,0.00066
1080.07910,0.00104
1078.15039,0.00183
1076.22168,0.00301
1074.29296,0.00439
1072.36425,0.00576
1070.43554,0.00715
1068.50682,0.00874
1066.57811,0.01053
1064.64940,0.01243
1062.72069,0.01420
1060.79197,0.01576
1058.86326,0.01758
1056.93455,0.01992
1055.00584,0.02221
1053.07712,0.02392
1051.14841,0.02503
1049.21970,0.02578
1047.29099,0.02625
1045.36227,0.02625
1043.43356,0.02570
1041.50485,0.02482
1039.57613,0.02353
1037.64742,0.02174
1035.71871,0.01961
1033.79000,0.01724
1031.86128,0.01462
1029.93257,0.01172
1028.00386,0.00863
1026.07515,0.00547
1024.14643,0.00258
1022.21772,0.00064
1020.28901,-0.00006
1018.36029,0.00014
1016.43158,0.00090
1014.50287,0.00222
1012.57416,0.00418
1010.64544,0.00648
1008.71673,0.00808
1006.78802,0.00827
1004.85931,0.00748
1002.93059,0.00639
1001.00188,0.00533
999.07317,0.00438
997.14446,0.00352
995.21574,0.00275
993.28703,0.00216
991.35832,0.00178
989.42960,0.00143
987.50089,0.00100
985.57218,0.00050
983.64347,0.00009
981.71475,0.00006
979.78604,0.00023
977.85733,0.00021
975.92862,0.00015
973.99990,0.00028
972.07119,0.00037
970.14248,0.00041
968.21377,0.00045
966.28505,0.00058
964.35634,0.00074
962.42763,0.00075
960.49891,0.00079
958.57020,0.00086
956.64149,0.00066
954.71278,0.00026
952.78406,0.00001
950.85535,0.00008
948.92664,0.00034
946.99793,0.00049
945.06921,0.00055
943.14050,0.00052
941.21179,0.00051
939.28308,0.00077
937.35436,0.00116
935.42565,0.00164
933.49694,0.00212
931.56822,0.00244
929.63951,0.00275
927.71080,0.00307
925.78209,0.00326
923.85337,0.00354
921.92466,0.00416
919.99595,0.00525
918.06724,0.00697
916.13852,0.00915
914.20981,0.01112
912.28110,0.01246
910.35238,0.01345
908.42367,0.01480
906.49496,0.01697
904.56625,0.01968
902.63753,0.02256
900.70882,0.02565
898.78011,0.02866
896.85140,0.03120
894.92268,0.03391
892.99397,0.03763
891.06526,0.04203
889.13655,0.04561
887.20783,0.04624
885.27912,0.04210
883.35041,0.03307
881.42169,0.02147
879.49298,0.01110
877.56427,0.00453
875.63556,0.00177
873.70684,0.00188
871.77813,0.00489
869.84942,0.01095
867.92071,0.01875
865.99199,0.02624
864.06328,0.03208
862.13457,0.03594
860.20586,0.03820
858.27714,0.03945
856.34843,0.04002
854.41972,0.04003
852.49100,0.03967
850.56229,0.03920
848.63358,0.03884
846.70487,0.03861
844.77615,0.03816
842.84744,0.03701
840.91873,0.03515
838.99002,0.03281
837.06130,0.03009
835.13259,0.02760
833.20388,0.02677
831.27516,0.02931
829.34645,0.03689
827.41774,0.05067
825.48903,0.07031
823.56031,0.09324
821.63160,0.11558
819.70289,0.13422
817.77418,0.14778
815.84546,0.15640
813.91675,0.16093
811.98804,0.16239
810.05933,0.16224
808.13061,0.16227
806.20190,0.16383
804.27319,0.16739
802.34447,0.17097
800.41576,0.16671
798.48705,0.14665
796.55834,0.12077
794.62962,0.11165
792.70091,0.12194
790.77220,0.13185
788.84349,0.12863
786.91477,0.11616
784.98606,0.10265
783.05735,0.09332
781.12864,0.08938
779.19992,0.08800
777.27121,0.08452
775.34250,0.07664
773.41378,0.06670
771.48507,0.05896
769.55636,0.05595
767.62765,0.05807
765.69893,0.06581
763.77022,0.08067
761.84151,0.10253
759.91280,0.12716
757.98408,0.14848
756.05537,0.16219
754.12666,0.16657
752.19795,0.16121
750.26923,0.14649
748.34052,0.12382
746.41181,0.09554
744.48309,0.06506
742.55438,0.03708
740.62567,0.01617
738.69696,0.00453
736.76824,0.00035
734.83953,-0.00018
732.91082,0.00008
730.98211,-0.00006
729.05339,-0.00024
727.12468,0.00009
725.19597,0.00195
723.26725,0.00622
721.33854,0.01262
719.40983,0.01905
717.48112,0.02281
715.55240,0.02250
713.62369,0.01897
711.69498,0.01444
709.76627,0.01033
707.83755,0.00690
705.90884,0.00424
703.98013,0.00233
702.05142,0.00106
700.12270,0.00039
698.19399,0.00028
696.26528,0.00046
694.33656,0.00087
692.40785,0.00131
690.47914,0.00151
688.55043,0.00154
686.62171,0.00163
684.69300,0.00172
682.76429,0.00192
680.83558,0.00234
678.90686,0.00292
676.97815,0.00377
675.04944,0.00511
673.12073,0.00718
671.19201,0.00974
669.26330,0.01296
667.33459,0.01783
665.40587,0.02215
663.47716,0.02359
661.54845,0.02162
659.61974,0.01706
657.69102,0.01172
655.76231,0.00676
653.83360,0.00301
651.90489,0.00104
649.97617,0.00072
648.04746,0.00071
646.11875,-0.00005
644.19004,0.00109
642.26132,0.00138
640.33261,0.00107
638.40390,0.00111
636.47518,0.00146
634.54647,0.00167
632.61776,0.00205
630.68905,0.00210
628.76033,0.00162
626.83162,0.00101
624.90291,0.00088
622.97420,0.00082
621.04548,0.00076
619.11677,0.00022
617.18806,0.00100
615.25934,0.00188
613.33063,0.00264
611.40192,0.00298
609.47321,0.00288
607.54449,0.00240
605.61578,0.00182
603.68707,0.00113
601.75836,0.00215
599.82964,0.00545
