7496.90619,0.94349
7494.97747,0.94262
7493.04876,0.94094
7491.12005,0.94399
7489.19134,0.94698
7487.26262,0.94112
7485.33391,0.93552
7483.40520,0.94188
7481.47648,0.94925
7479.54777,0.94784
7477.61906,0.94541
7475.69035,0.94386
7473.76163,0.93916
7471.83292,0.93494
7469.90421,0.93445
7467.97550,0.93617
7466.04678,0.93593
7464.11807,0.92918
7462.18936,0.92044
7460.26065,0.91711
7458.33193,0.91661
7456.40322,0.91456
7454.47451,0.91678
7452.54579,0.93032
7450.61708,0.94544
7448.68837,0.94607
7446.75966,0.93570
7444.83094,0.92875
7442.90223,0.92953
7440.97352,0.93334
7439.04481,0.93381
7437.11609,0.92894
7435.18738,0.92728
7433.25867,0.93499
7431.32996,0.94158
7429.40124,0.93954
7427.47253,0.93760
7425.54382,0.93773
7423.61510,0.93491
7421.68639,0.93408
7419.75768,0.93899
7417.82897,0.94230
7415.90025,0.93920
7413.97154,0.93572
7412.04283,0.93630
7410.11412,0.93753
7408.18540,0.93471
7406.25669,0.92901
7404.32798,0.92751
7402.39927,0.92934
7400.47055,0.92975
7398.54184,0.93035
7396.61313,0.92849
7394.68441,0.92171
7392.75570,0.91710
7390.82699,0.91962
7388.89828,0.92724
7386.96956,0.93393
7385.04085,0.93177
7383.11214,0.92639
7381.18343,0.92967
7379.25471,0.93389
7377.32600,0.93122
7375.39729,0.92960
7373.46857,0.92989
7371.53986,0.92651
7369.61115,0.92346
7367.68244,0.92495
7365.75372,0.92250
7363.82501,0.91279
7361.89630,0.90877
7359.96759,0.91752
7358.03887,0.92960
7356.11016,0.93618
7354.18145,0.93770
7352.25274,0.93543
7350.32402,0.93062
7348.39531,0.92800
7346.46660,0.92923
7344.53788,0.92753
7342.60917,0.92052
7340.68046,0.91904
7338.75175,0.92858
7336.82303,0.93916
7334.89432,0.94186
7332.96561,0.93770
7331.03690,0.93099
7329.10818,0.92380
7327.17947,0.92124
7325.25076,0.92800
7323.32205,0.93896
7321.39333,0.94484
7319.46462,0.94324
7317.53591,0.93754
7315.60719,0.93135
7313.67848,0.92895
7311.74977,0.92731
7309.82106,0.92438
7307.89234,0.92857
7305.96363,0.93646
7304.03492,0.93338
7302.10621,0.92168
7300.17749,0.91481
7298.24878,0.91423
7296.32007,0.91512
7294.39136,0.92127
7292.46264,0.93074
7290.53393,0.93444
7288.60522,0.93584
7286.67650,0.94179
7284.74779,0.94712
7282.81908,0.94546
7280.89037,0.93996
7278.96165,0.93485
7277.03294,0.92950
7275.10423,0.92552
7273.17552,0.92701
7271.24680,0.93117
7269.31809,0.93195
7267.38938,0.93051
7265.46066,0.93167
7263.53195,0.93352
7261.60324,0.93016
7259.67453,0.92501
7257.74581,0.92347
7255.81710,0.92249
7253.88839,0.92078
7251.95968,0.92087
7250.03096,0.92321
7248.10225,0.92616
7246.17354,0.92582
7244.24483,0.92127
7242.31611,0.91759
7240.38740,0.91750
7238.45869,0.91836
7236.52997,0.91721
7234.60126,0.91507
7232.67255,0.91736
7230.74384,0.92368
7228.81512,0.92709
7226.88641,0.92668
7224.95770,0.92177
7223.02899,0.91022
7221.10027,0.90041
7219.17156,0.90057
7217.24285,0.90377
7215.31414,0.90684
7213.38542,0.91306
7211.45671,0.91734
7209.52800,0.91638
7207.59928,0.91449
7205.67057,0.91383
7203.74186,0.91267
7201.81315,0.91175
7199.88443,0.91187
7197.95572,0.91121
7196.02701,0.91148
7194.09830,0.91384
7192.16958,0.91228
7190.24087,0.90734
7188.31216,0.90914
7186.38344,0.91529
7184.45473,0.91368
7182.52602,0.90640
7180.59731,0.90586
7178.66859,0.91158
7176.73988,0.91385
7174.81117,0.91019
7172.88246,0.90323
7170.95374,0.89930
7169.02503,0.90686
7167.09632,0.91901
7165.16761,0.91912
7163.23889,0.91173
7161.31018,0.91038
7159.38147,0.91522
7157.45275,0.92309
7155.52404,0.93049
7153.59533,0.92913
7151.66662,0.92234
7149.73790,0.92123
7147.80919,0.92421
7145.88048,0.92440
7143.95177,0.92360
7142.02305,0.92500
7140.09434,0.92563
7138.16563,0.92343
7136.23692,0.92141
7134.30820,0.92298
7132.37949,0.92652
7130.45078,0.92659
7128.52206,0.92409
7126.59335,0.92485
7124.66464,0.92596
7122.73593,0.92382
7120.80721,0.92415
7118.87850,0.92774
7116.94979,0.92834
7115.02108,0.92252
7113.09236,0.91138
7111.16365,0.90156
7109.23494,0.89865
7107.30623,0.90114
7105.37751,0.90612
7103.44880,0.91190
7101.52009,0.91787
7099.59137,0.92279
7097.66266,0.92171
7095.73395,0.91449
7093.80524,0.91164
7091.87652,0.91695
7089.94781,0.92099
7088.01910,0.91815
7086.09039,0.91440
7084.16167,0.91524
7082.23296,0.91663
7080.30425,0.91735
7078.37553,0.92058
7076.44682,0.92081
7074.51811,0.91235
7072.58940,0.90121
7070.66068,0.89800
7068.73197,0.90534
7066.80326,0.91592
7064.87455,0.92339
7062.94583,0.92586
7061.01712,0.92250
7059.08841,0.91729
7057.15970,0.91435
7055.23098,0.91246
7053.30227,0.91342
7051.37356,0.91887
7049.44484,0.92371
7047.51613,0.92369
7045.58742,0.91974
7043.65871,0.91739
7041.72999,0.92049
7039.80128,0.92518
7037.87257,0.92810
7035.94386,0.92854
7034.01514,0.92443
7032.08643,0.91986
7030.15772,0.92135
7028.22901,0.92703
7026.30029,0.92968
7024.37158,0.92468
7022.44287,0.91725
7020.51415,0.91526
7018.58544,0.91675
7016.65673,0.91705
7014.72802,0.91708
7012.79930,0.91922
7010.87059,0.92111
7008.94188,0.91881
7007.01317,0.91401
7005.08445,0.91002
7003.15574,0.90851
7001.22703,0.91122
6999.29832,0.91786
6997.36960,0.92444
6995.44089,0.92522
6993.51218,0.92079
6991.58346,0.91773
6989.65475,0.91752
6987.72604,0.91797
6985.79733,0.91904
6983.86861,0.91912
6981.93990,0.91633
6980.01119,0.91491
6978.08248,0.91733
6976.15376,0.92064
6974.22505,0.92520
6972.29634,0.92926
6970.36762,0.92799
6968.43891,0.92470
6966.51020,0.92479
6964.58149,0.92586
6962.65277,0.92279
6960.72406,0.91768
6958.79535,0.91540
6956.86664,0.91527
6954.93792,0.91565
6953.00921,0.91668
6951.08050,0.92029
6949.15179,0.92456
6947.22307,0.92174
6945.29436,0.91564
6943.36565,0.91664
6941.43693,0.92228
6939.50822,0.92631
6937.57951,0.92685
6935.65080,0.92310
6933.72208,0.91818
6931.79337,0.91542
6929.86466,0.91455
6927.93595,0.91454
6926.00723,0.91555
6924.07852,0.91986
6922.14981,0.92517
6920.22110,0.92624
6918.29238,0.92403
6916.36367,0.92025
6914.43496,0.91692
6912.50624,0.91787
6910.57753,0.92159
6908.64882,0.92346
6906.72011,0.92247
6904.79139,0.92108
6902.86268,0.92092
6900.93397,0.92271
6899.00526,0.92654
6897.07654,0.92842
6895.14783,0.92502
6893.21912,0.91914
6891.29040,0.91657
6889.36169,0.92061
6887.43298,0.92724
6885.50427,0.92893
6883.57555,0.92567
6881.64684,0.92558
6879.71813,0.93081
6877.78942,0.93331
6875.86070,0.93050
6873.93199,0.92664
6872.00328,0.92121
6870.07457,0.91745
6868.14585,0.92066
6866.21714,0.92406
6864.28843,0.92258
6862.35971,0.92164
6860.43100,0.92296
6858.50229,0.92387
6856.57358,0.92476
6854.64486,0.92725
6852.71615,0.93060
6850.78744,0.93433
6848.85873,0.93854
6846.93001,0.94042
6845.00130,0.93861
6843.07259,0.93615
6841.14388,0.93493
6839.21516,0.93256
6837.28645,0.92794
6835.35774,0.92462
6833.42902,0.92421
6831.50031,0.92469
6829.57160,0.92441
6827.64289,0.92401
6825.71417,0.92592
6823.78546,0.92842
6821.85675,0.92788
6819.92804,0.92598
6817.99932,0.92516
6816.07061,0.92481
6814.14190,0.92435
6812.21319,0.92476
6810.28447,0.92789
6808.35576,0.93238
6806.42705,0.93475
6804.49833,0.93504
6802.56962,0.93475
6800.64091,0.93381
6798.71220,0.93192
6796.78348,0.92888
6794.85477,0.92571
6792.92606,0.92513
6790.99735,0.92736
6789.06863,0.92882
6787.13992,0.92867
6785.21121,0.93022
6783.28249,0.93396
6781.35378,0.93493
6779.42507,0.93131
6777.49636,0.92909
6775.56764,0.93035
6773.63893,0.92988
6771.71022,0.92725
6769.78151,0.92687
6767.85279,0.92848
6765.92408,0.92963
6763.99537,0.93152
6762.06666,0.93176
6760.13794,0.92711
6758.20923,0.92518
6756.28052,0.93022
6754.35180,0.93476
6752.42309,0.93652
6750.49438,0.93915
6748.56567,0.94210
6746.63695,0.94254
6744.70824,0.93964
6742.77953,0.93630
6740.85082,0.93352
6738.92210,0.92858
6736.99339,0.92391
6735.06468,0.92481
6733.13597,0.93052
6731.20725,0.93462
6729.27854,0.93236
6727.34983,0.92863
6725.42111,0.92979
6723.49240,0.93366
6721.56369,0.93589
6719.63498,0.93512
6717.70626,0.93342
6715.77755,0.93486
6713.84884,0.93942
6711.92013,0.94121
6709.99141,0.93719
6708.06270,0.93199
6706.13399,0.92874
6704.20528,0.92713
6702.27656,0.92816
6700.34785,0.93079
6698.41914,0.93233
6696.49042,0.93243
6694.56171,0.93329
6692.63300,0.93616
6690.70429,0.93798
6688.77557,0.93731
6686.84686,0.93767
6684.91815,0.93895
6682.98944,0.93824
6681.06072,0.93817
6679.13201,0.94044
6677.20330,0.93997
6675.27458,0.93669
6673.34587,0.93662
6671.41716,0.93727
6669.48845,0.93359
6667.55973,0.93042
6665.63102,0.93064
6663.70231,0.93087
6661.77360,0.93122
6659.84488,0.93178
6657.91617,0.93009
6655.98746,0.92709
6654.05875,0.92573
6652.13003,0.92784
6650.20132,0.93333
6648.27261,0.93853
6646.34389,0.93906
6644.41518,0.93692
6642.48647,0.93737
6640.55776,0.93918
6638.62904,0.93869
6636.70033,0.93731
6634.77162,0.93798
6632.84291,0.94167
6630.91419,0.94577
6628.98548,0.94716
6627.05677,0.94563
6625.12806,0.94106
6623.19934,0.93522
6621.27063,0.93254
6619.34192,0.93408
6617.41320,0.93577
6615.48449,0.93527
6613.55578,0.93461
6611.62707,0.93431
6609.69835,0.93308
6607.76964,0.93229
6605.84093,0.93505
6603.91222,0.93997
6601.98350,0.94070
6600.05479,0.93489
6598.12608,0.92775
6596.19736,0.92660
6594.26865,0.93109
6592.33994,0.93288
6590.41123,0.93023
6588.48251,0.92872
6586.55380,0.92942
6584.62509,0.93068
6582.69638,0.93327
6580.76766,0.93565
6578.83895,0.93526
6576.91024,0.93446
6574.98153,0.93598
6573.05281,0.93809
6571.12410,0.93769
6569.19539,0.93479
6567.26667,0.93167
6565.33796,0.93005
6563.40925,0.93152
6561.48054,0.93595
6559.55182,0.93992
6557.62311,0.94050
6555.69440,0.93948
6553.76569,0.93910
6551.83697,0.93685
6549.90826,0.93225
6547.97955,0.92940
6546.05084,0.92996
6544.12212,0.93200
6542.19341,0.93338
6540.26470,0.93368
6538.33598,0.93338
6536.40727,0.93280
6534.47856,0.93233
6532.54985,0.93238
6530.62113,0.93344
6528.69242,0.93521
6526.76371,0.93518
6524.83500,0.93367
6522.90628,0.93556
6520.97757,0.93924
6519.04886,0.93897
6517.12015,0.93693
6515.19143,0.93582
6513.26272,0.93387
6511.33401,0.93159
6509.40529,0.93104
6507.47658,0.93180
6505.54787,0.93160
6503.61916,0.93072
6501.69044,0.93010
6499.76173,0.92917
6497.83302,0.93058
6495.90431,0.93411
6493.97559,0.93404
6492.04688,0.93071
6490.11817,0.92922
6488.18945,0.93132
6486.26074,0.93628
6484.33203,0.94065
6482.40332,0.94074
6480.47460,0.93887
6478.54589,0.93812
6476.61718,0.93671
6474.68847,0.93437
6472.75975,0.93518
6470.83104,0.93903
6468.90233,0.93871
6466.97362,0.93275
6465.04490,0.92803
6463.11619,0.92773
6461.18748,0.93057
6459.25876,0.93395
6457.33005,0.93469
6455.40134,0.93239
6453.47263,0.92948
6451.54391,0.92943
6449.61520,0.93309
6447.68649,0.93644
6445.75778,0.93772
6443.82906,0.93995
6441.90035,0.94337
6439.97164,0.94582
6438.04293,0.94619
6436.11421,0.94313
6434.18550,0.93857
6432.25679,0.93606
6430.32807,0.93485
6428.39936,0.93391
6426.47065,0.93347
6424.54194,0.93219
6422.61322,0.93119
6420.68451,0.93216
6418.75580,0.93232
6416.82709,0.93103
6414.89837,0.93140
6412.96966,0.93314
6411.04095,0.93350
6409.11224,0.93214
6407.18352,0.93157
6405.25481,0.93235
6403.32610,0.93257
6401.39738,0.93206
6399.46867,0.93227
6397.53996,0.93419
6395.61125,0.93707
6393.68253,0.93959
6391.75382,0.94168
6389.82511,0.94256
6387.89640,0.94193
6385.96768,0.94254
6384.03897,0.94373
6382.11026,0.94066
6380.18154,0.93602
6378.25283,0.93582
6376.32412,0.93700
6374.39541,0.93640
6372.46669,0.93758
6370.53798,0.94004
6368.60927,0.93986
6366.68056,0.93860
6364.75184,0.93918
6362.82313,0.94058
6360.89442,0.94016
6358.96571,0.93798
6357.03699,0.93608
6355.10828,0.93523
6353.17957,0.93537
6351.25085,0.93616
6349.32214,0.93748
6347.39343,0.93868
6345.46472,0.93871
6343.53600,0.93865
6341.60729,0.93869
6339.67858,0.93738
6337.74987,0.93578
6335.82115,0.93598
6333.89244,0.93696
6331.96373,0.93588
6330.03502,0.93341
6328.10630,0.93301
6326.17759,0.93554
6324.24888,0.93812
6322.32016,0.93839
6320.39145,0.93716
6318.46274,0.93602
6316.53403,0.93575
6314.60531,0.93608
6312.67660,0.93612
6310.74789,0.93616
6308.81918,0.93671
6306.89046,0.93808
6304.96175,0.93996
6303.03304,0.94025
6301.10432,0.93818
6299.17561,0.93575
6297.24690,0.93561
6295.31819,0.93745
6293.38947,0.93835
6291.46076,0.93864
6289.53205,0.93966
6287.60334,0.94002
6285.67462,0.93910
6283.74591,0.93718
6281.81720,0.93528
6279.88849,0.93550
6277.95977,0.93690
6276.03106,0.93657
6274.10235,0.93545
6272.17363,0.93638
6270.24492,0.93804
6268.31621,0.93753
6266.38750,0.93579
6264.45878,0.93422
6262.53007,0.93275
6260.60136,0.93254
6258.67265,0.93309
6256.74393,0.93255
6254.81522,0.93254
6252.88651,0.93361
6250.95780,0.93396
6249.02908,0.93465
6247.10037,0.93553
6245.17166,0.93436
6243.24294,0.93308
6241.31423,0.93455
6239.38552,0.93745
6237.45681,0.93863
6235.52809,0.93715
6233.59938,0.93495
6231.67067,0.93469
6229.74196,0.93642
6227.81324,0.93703
6225.88453,0.93623
6223.95582,0.93642
6222.02711,0.93563
6220.09839,0.93266
6218.16968,0.93009
6216.24097,0.92857
6214.31225,0.92899
6212.38354,0.93134
6210.45483,0.93278
6208.52612,0.93328
6206.59740,0.93353
6204.66869,0.93263
6202.73998,0.93202
6200.81127,0.93389
6198.88255,0.93672
6196.95384,0.93620
6195.02513,0.93201
6193.09641,0.92991
6191.16770,0.93315
6189.23899,0.93718
6187.31028,0.93795
6185.38156,0.93745
6183.45285,0.93661
6181.52414,0.93441
6179.59543,0.93227
6177.66671,0.93139
6175.73800,0.93072
6173.80929,0.92977
6171.88058,0.92958
6169.95186,0.93050
6168.02315,0.93136
6166.09444,0.93083
6164.16572,0.93007
6162.23701,0.93153
6160.30830,0.93315
6158.37959,0.93255
6156.45087,0.93241
6154.52216,0.93278
6152.59345,0.93075
6150.66474,0.92855
6148.73602,0.92911
6146.80731,0.92978
6144.87860,0.92886
6142.94989,0.92891
6141.02117,0.93112
6139.09246,0.93362
6137.16375,0.93424
6135.23503,0.93300
6133.30632,0.93123
6131.37761,0.92935
6129.44890,0.92787
6127.52018,0.92836
6125.59147,0.93133
6123.66276,0.93469
6121.73405,0.93583
6119.80533,0.93442
6117.87662,0.93251
6115.94791,0.93250
6114.01919,0.93447
6112.09048,0.93478
6110.16177,0.93250
6108.23306,0.93220
6106.30434,0.93474
6104.37563,0.93621
6102.44692,0.93559
6100.51821,0.93413
6098.58949,0.93236
6096.66078,0.93102
6094.73207,0.93118
6092.80336,0.93225
6090.87464,0.93220
6088.94593,0.93108
6087.01722,0.92998
6085.08850,0.92889
6083.15979,0.92871
6081.23108,0.93032
6079.30237,0.93250
6077.37365,0.93449
6075.44494,0.93567
6073.51623,0.93428
6071.58752,0.93103
6069.65880,0.92876
6067.73009,0.92841
6065.80138,0.92935
6063.87267,0.93040
6061.94395,0.93020
6060.01524,0.92887
6058.08653,0.92825
6056.15781,0.92877
6054.22910,0.92849
6052.30039,0.92738
6050.37168,0.92787
6048.44296,0.93012
6046.51425,0.93079
6044.58554,0.92741
6042.65683,0.92345
6040.72811,0.92355
6038.79940,0.92594
6036.87069,0.92719
6034.94198,0.92716
6033.01326,0.92618
6031.08455,0.92468
6029.15584,0.92426
6027.22712,0.92490
6025.29841,0.92477
6023.36970,0.92364
6021.44099,0.92258
6019.51227,0.92221
6017.58356,0.92217
6015.65485,0.92189
6013.72614,0.92170
6011.79742,0.92136
6009.86871,0.92064
6007.94000,0.92093
6006.01128,0.92284
6004.08257,0.92437
6002.15386,0.92311
6000.22515,0.92031
5998.29643,0.91909
5996.36772,0.91939
5994.43901,0.91957
5992.51030,0.91953
5990.58158,0.92016
5988.65287,0.92142
5986.72416,0.92186
5984.79545,0.92109
5982.86673,0.91988
5980.93802,0.91876
5979.00931,0.91909
5977.08059,0.92083
5975.15188,0.92143
5973.22317,0.92069
5971.29446,0.91993
5969.36574,0.91843
5967.43703,0.91667
5965.50832,0.91572
5963.57961,0.91437
5961.65089,0.91323
5959.72218,0.91426
5957.79347,0.91656
5955.86476,0.91801
5953.93604,0.91755
5952.00733,0.91604
5950.07862,0.91468
5948.14990,0.91375
5946.22119,0.91324
5944.29248,0.91226
5942.36377,0.91087
5940.43505,0.91011
5938.50634,0.90963
5936.57763,0.90955
5934.64892,0.90981
5932.72020,0.90888
5930.79149,0.90784
5928.86278,0.90939
5926.93407,0.91256
5925.00535,0.91482
5923.07664,0.91534
5921.14793,0.91416
5919.21921,0.91234
5917.29050,0.91098
5915.36179,0.91030
5913.43308,0.91049
5911.50436,0.91082
5909.57565,0.91015
5907.64694,0.90914
5905.71823,0.90852
5903.78951,0.90789
5901.86080,0.90725
5899.93209,0.90629
5898.00337,0.90387
5896.07466,0.89997
5894.14595,0.89633
5892.21724,0.89533
5890.28852,0.89730
5888.35981,0.89953
5886.43110,0.89964
5884.50239,0.89832
5882.57367,0.89692
5880.64496,0.89507
5878.71625,0.89257
5876.78754,0.89014
5874.85882,0.88797
5872.93011,0.88479
5871.00140,0.88102
5869.07268,0.87974
5867.14397,0.87997
5865.21526,0.87748
5863.28655,0.87186
5861.35783,0.86656
5859.42912,0.86420
5857.50041,0.86310
5855.57170,0.86043
5853.64298,0.85661
5851.71427,0.85384
5849.78556,0.85263
5847.85685,0.85087
5845.92813,0.84745
5843.99942,0.84365
5842.07071,0.84084
5840.14199,0.83844
5838.21328,0.83417
5836.28457,0.82850
5834.35586,0.82543
5832.42714,0.82610
5830.49843,0.82638
5828.56972,0.82298
5826.64101,0.81819
5824.71229,0.81524
5822.78358,0.81320
5820.85487,0.80995
5818.92615,0.80592
5816.99744,0.80261
5815.06873,0.80003
5813.14002,0.79736
5811.21130,0.79387
5809.28259,0.78968
5807.35388,0.78588
5805.42517,0.78301
5803.49645,0.78051
5801.56774,0.77710
5799.63903,0.77229
5797.71032,0.76824
5795.78160,0.76632
5793.85289,0.76371
5791.92418,0.75823
5789.99546,0.75165
5788.06675,0.74546
5786.13804,0.73906
5784.20933,0.73231
5782.28061,0.72629
5780.35190,0.72089
5778.42319,0.71532
5776.49448,0.71168
5774.56576,0.71335
5772.63705,0.72007
5770.70834,0.72866
5768.77963,0.73762
5766.85091,0.74722
5764.92220,0.75740
5762.99349,0.76813
5761.06477,0.77895
5759.13606,0.78896
5757.20735,0.79783
5755.27864,0.80578
5753.34992,0.81342
5751.42121,0.82055
5749.49250,0.82642
5747.56379,0.83101
5745.63507,0.83462
5743.70636,0.83786
5741.77765,0.84161
5739.84894,0.84531
5737.92022,0.84706
5735.99151,0.84689
5734.06280,0.84647
5732.13408,0.84665
5730.20537,0.84777
5728.27666,0.85035
5726.34795,0.85414
5724.41923,0.85755
5722.49052,0.85867
5720.56181,0.85804
5718.63310,0.85784
5716.70438,0.85842
5714.77567,0.85865
5712.84696,0.85738
5710.91824,0.85488
5708.98953,0.85294
5707.06082,0.85162
5705.13211,0.85035
5703.20339,0.84948
5701.27468,0.84834
5699.34597,0.84623
5697.41726,0.84352
5695.48854,0.84101
5693.55983,0.83944
5691.63112,0.83804
5689.70241,0.83624
5687.77369,0.83497
5685.84498,0.83438
5683.91627,0.83337
5681.98755,0.83138
5680.05884,0.82859
5678.13013,0.82585
5676.20142,0.82348
5674.27270,0.82063
5672.34399,0.81759
5670.41528,0.81563
5668.48657,0.81441
5666.55785,0.81297
5664.62914,0.81222
5662.70043,0.81311
5660.77172,0.81491
5658.84300,0.81750
5656.91429,0.82225
5654.98558,0.82871
5653.05686,0.83426
5651.12815,0.83796
5649.19944,0.84120
5647.27073,0.84499
5645.34201,0.84835
5643.41330,0.85025
5641.48459,0.85177
5639.55588,0.85355
5637.62716,0.85505
5635.69845,0.85696
5633.76974,0.85976
5631.84103,0.86228
5629.91231,0.86336
5627.98360,0.86331
5626.05489,0.86353
5624.12617,0.86428
5622.19746,0.86514
5620.26875,0.86648
5618.34004,0.86829
5616.41132,0.86977
5614.48261,0.87034
5612.55390,0.87029
5610.62519,0.87083
5608.69647,0.87208
5606.76776,0.87284
5604.83905,0.87320
5602.91033,0.87422
5600.98162,0.87578
5599.05291,0.87707
5597.12420,0.87763
5595.19548,0.87762
5593.26677,0.87792
5591.33806,0.87880
5589.40935,0.87905
5587.48063,0.87825
5585.55192,0.87743
5583.62321,0.87713
5581.69450,0.87682
5579.76578,0.87568
5577.83707,0.87369
5575.90836,0.87222
5573.97964,0.87201
5572.05093,0.87236
5570.12222,0.87288
5568.19351,0.87310
5566.26479,0.87257
5564.33608,0.87248
5562.40737,0.87353
5560.47866,0.87458
5558.54994,0.87461
5556.62123,0.87310
5554.69252,0.87137
5552.76381,0.87180
5550.83509,0.87298
5548.90638,0.87234
5546.97767,0.87125
5545.04895,0.87128
5543.12024,0.87175
5541.19153,0.87257
5539.26282,0.87321
5537.33410,0.87226
5535.40539,0.87112
5533.47668,0.87157
5531.54797,0.87236
5529.61925,0.87240
5527.69054,0.87217
5525.76183,0.87222
5523.83311,0.87214
5521.90440,0.87186
5519.97569,0.87234
5518.04698,0.87295
5516.11826,0.87323
5514.18955,0.87410
5512.26084,0.87458
5510.33213,0.87313
5508.40341,0.87082
5506.47470,0.87016
5504.54599,0.87102
5502.61728,0.87145
5500.68856,0.87172
5498.75985,0.87294
5496.83114,0.87315
5494.90242,0.87003
5492.97371,0.86696
5491.04500,0.86807
5489.11629,0.87120
5487.18757,0.87424
5485.25886,0.87683
5483.33015,0.87787
5481.40144,0.87776
5479.47272,0.87690
5477.54401,0.87427
5475.61530,0.87197
5473.68659,0.87400
5471.75787,0.87709
5469.82916,0.87658
5467.90045,0.87460
5465.97173,0.87468
5464.04302,0.87550
5462.11431,0.87504
5460.18560,0.87492
5458.25688,0.87652
5456.32817,0.87885
5454.39946,0.88108
5452.47075,0.88111
5450.54203,0.87761
5448.61332,0.87395
5446.68461,0.87260
5444.75590,0.87239
5442.82718,0.87297
5440.89847,0.87500
5438.96976,0.87742
5437.04104,0.87757
5435.11233,0.87661
5433.18362,0.87768
5431.25491,0.87763
5429.32619,0.87532
5427.39748,0.87683
5425.46877,0.88158
5423.54006,0.88435
5421.61134,0.88555
5419.68263,0.88679
5417.75392,0.88654
5415.82520,0.88320
5413.89649,0.87837
5411.96778,0.87645
5410.03907,0.87996
5408.11035,0.88602
5406.18164,0.88920
5404.25293,0.88947
5402.32422,0.89058
5400.39550,0.89149
5398.46679,0.88901
5396.53808,0.88442
5394.60937,0.88200
5392.68065,0.88440
5390.75194,0.88912
5388.82323,0.89126
5386.89451,0.88966
5384.96580,0.88867
5383.03709,0.89112
5381.10838,0.89326
5379.17966,0.89133
5377.25095,0.88669
5375.32224,0.88516
5373.39353,0.88898
5371.46481,0.89401
5369.53610,0.89602
5367.60739,0.89492
5365.67868,0.89354
5363.74996,0.89409
5361.82125,0.89626
5359.89254,0.89764
5357.96382,0.89617
5356.03511,0.89131
5354.10640,0.88639
5352.17769,0.88731
5350.24897,0.89203
5348.32026,0.89371
5346.39155,0.89029
5344.46284,0.88689
5342.53412,0.88826
5340.60541,0.88950
5338.67670,0.88792
5336.74799,0.88906
5334.81927,0.89348
5332.89056,0.89650
5330.96185,0.89698
5329.03313,0.89541
5327.10442,0.89417
5325.17571,0.89625
5323.24700,0.89969
5321.31828,0.90187
5319.38957,0.90190
5317.46086,0.89982
5315.53215,0.89834
5313.60343,0.89959
5311.67472,0.90110
5309.74601,0.89955
5307.81729,0.89694
5305.88858,0.89737
5303.95987,0.89890
5302.03116,0.89876
5300.10244,0.89884
5298.17373,0.90005
5296.24502,0.90075
5294.31631,0.90050
5292.38759,0.89892
5290.45888,0.89691
5288.53017,0.89677
5286.60146,0.89732
5284.67274,0.89769
5282.74403,0.89843
5280.81532,0.89862
5278.88660,0.89875
5276.95789,0.89970
5275.02918,0.90047
5273.10047,0.90070
5271.17175,0.90032
5269.24304,0.89872
5267.31433,0.89635
5265.38562,0.89396
5263.45690,0.89298
5261.52819,0.89528
5259.59948,0.89895
5257.67077,0.90021
5255.74205,0.89888
5253.81334,0.89851
5251.88463,0.89871
5249.95591,0.89637
5248.02720,0.89382
5246.09849,0.89398
5244.16978,0.89588
5242.24106,0.89883
5240.31235,0.90152
5238.38364,0.90217
5236.45493,0.90105
5234.52621,0.89951
5232.59750,0.89848
5230.66879,0.89834
5228.74007,0.89751
5226.81136,0.89529
5224.88265,0.89544
5222.95394,0.89898
5221.02522,0.90141
5219.09651,0.90125
5217.16780,0.90074
5215.23909,0.90123
5213.31037,0.90172
5211.38166,0.90039
5209.45295,0.89660
5207.52424,0.89302
5205.59552,0.89420
5203.66681,0.89946
5201.73810,0.90350
5199.80938,0.90340
5197.88067,0.90087
5195.95196,0.89990
5194.02325,0.90087
5192.09453,0.90089
5190.16582,0.89971
5188.23711,0.89906
5186.30840,0.89903
5184.37968,0.89947
5182.45097,0.90035
5180.52226,0.90102
5178.59355,0.90156
5176.66483,0.90244
5174.73612,0.90331
5172.80741,0.90294
5170.87869,0.90139
5168.94998,0.90082
5167.02127,0.90166
5165.09256,0.90229
5163.16384,0.90191
5161.23513,0.90092
5159.30642,0.90018
5157.37771,0.90007
5155.44899,0.90031
5153.52028,0.90066
5151.59157,0.90108
5149.66286,0.90172
5147.73414,0.90287
5145.80543,0.90427
5143.87672,0.90510
5141.94800,0.90516
5140.01929,0.90511
5138.09058,0.90498
5136.16187,0.90420
5134.23315,0.90331
5132.30444,0.90305
5130.37573,0.90291
5128.44702,0.90318
5126.51830,0.90449
5124.58959,0.90579
5122.66088,0.90610
5120.73216,0.90584
5118.80345,0.90569
5116.87474,0.90548
5114.94603,0.90506
5113.01731,0.90460
5111.08860,0.90389
5109.15989,0.90347
5107.23118,0.90384
5105.30246,0.90405
5103.37375,0.90378
5101.44504,0.90369
5099.51633,0.90393
5097.58761,0.90408
5095.65890,0.90411
5093.73019,0.90434
5091.80147,0.90446
5089.87276,0.90467
5087.94405,0.90548
5086.01534,0.90600
5084.08662,0.90593
5082.15791,0.90607
5080.22920,0.90626
5078.30049,0.90622
5076.37177,0.90616
5074.44306,0.90599
5072.51435,0.90544
5070.58564,0.90484
5068.65692,0.90494
5066.72821,0.90551
5064.79950,0.90584
5062.87078,0.90620
5060.94207,0.90652
5059.01336,0.90641
5057.08465,0.90664
5055.15593,0.90761
5053.22722,0.90825
5051.29851,0.90826
5049.36980,0.90824
5047.44108,0.90819
5045.51237,0.90830
5043.58366,0.90858
5041.65495,0.90862
5039.72623,0.90876
5037.79752,0.90890
5035.86881,0.90856
5033.94009,0.90805
5032.01138,0.90755
5030.08267,0.90718
5028.15396,0.90696
5026.22524,0.90628
5024.29653,0.90539
5022.36782,0.90543
5020.43911,0.90617
5018.51039,0.90669
5016.58168,0.90683
5014.65297,0.90657
5012.72425,0.90620
5010.79554,0.90626
5008.86683,0.90639
5006.93812,0.90593
5005.00940,0.90535
5003.08069,0.90560
5001.15198,0.90614
4999.22327,0.90611
4997.29455,0.90595
4995.36584,0.90625
4993.43713,0.90646
4991.50842,0.90587
4989.57970,0.90495
4987.65099,0.90451
4985.72228,0.90461
4983.79356,0.90475
4981.86485,0.90447
4979.93614,0.90422
4978.00743,0.90500
4976.07871,0.90620
4974.15000,0.90629
4972.22129,0.90539
4970.29258,0.90428
4968.36386,0.90327
4966.43515,0.90288
4964.50644,0.90313
4962.57773,0.90318
4960.64901,0.90239
4958.72030,0.90175
4956.79159,0.90272
4954.86287,0.90486
4952.93416,0.90649
4951.00545,0.90701
4949.07674,0.90695
4947.14802,0.90684
4945.21931,0.90713
4943.29060,0.90760
4941.36189,0.90793
4939.43317,0.90848
4937.50446,0.90903
4935.57575,0.90903
4933.64703,0.90844
4931.71832,0.90745
4929.78961,0.90683
4927.86090,0.90707
4925.93218,0.90766
4924.00347,0.90804
4922.07476,0.90809
4920.14605,0.90810
4918.21733,0.90856
4916.28862,0.90913
4914.35991,0.90901
4912.43120,0.90849
4910.50248,0.90817
4908.57377,0.90780
4906.64506,0.90746
4904.71634,0.90761
4902.78763,0.90799
4900.85892,0.90806
4898.93021,0.90769
4897.00149,0.90727
4895.07278,0.90723
4893.14407,0.90737
4891.21536,0.90731
4889.28664,0.90718
4887.35793,0.90735
4885.42922,0.90751
4883.50051,0.90714
4881.57179,0.90718
4879.64308,0.90814
4877.71437,0.90877
4875.78565,0.90863
4873.85694,0.90793
4871.92823,0.90662
4869.99952,0.90547
4868.07080,0.90528
4866.14209,0.90594
4864.21338,0.90671
4862.28467,0.90748
4860.35595,0.90860
4858.42724,0.90948
4856.49853,0.90970
4854.56982,0.90971
4852.64110,0.90954
4850.71239,0.90899
4848.78368,0.90853
4846.85496,0.90882
4844.92625,0.90964
4842.99754,0.91011
4841.06883,0.90994
4839.14011,0.90974
4837.21140,0.90994
4835.28269,0.91023
4833.35398,0.91013
4831.42526,0.91007
4829.49655,0.91101
4827.56784,0.91227
4825.63912,0.91232
4823.71041,0.91156
4821.78170,0.91136
4819.85299,0.91192
4817.92427,0.91256
4815.99556,0.91259
4814.06685,0.91209
4812.13814,0.91145
4810.20942,0.91085
4808.28071,0.91097
4806.35200,0.91201
4804.42329,0.91287
4802.49457,0.91279
4800.56586,0.91182
4798.63715,0.91057
4796.70843,0.91012
4794.77972,0.91093
4792.85101,0.91231
4790.92230,0.91325
4788.99358,0.91323
4787.06487,0.91256
4785.13616,0.91198
4783.20745,0.91195
4781.27873,0.91230
4779.35002,0.91233
4777.42131,0.91173
4775.49260,0.91094
4773.56388,0.91055
4771.63517,0.91082
4769.70646,0.91148
4767.77774,0.91157
4765.84903,0.91090
4763.92032,0.91032
4761.99161,0.90994
4760.06289,0.90964
4758.13418,0.90959
4756.20547,0.90959
4754.27676,0.90964
4752.34804,0.90995
4750.41933,0.91032
4748.49062,0.91069
4746.56191,0.91120
4744.63319,0.91172
4742.70448,0.91199
4740.77577,0.91214
4738.84705,0.91242
4736.91834,0.91280
4734.98963,0.91313
4733.06092,0.91341
4731.13220,0.91360
4729.20349,0.91331
4727.27478,0.91249
4725.34607,0.91204
4723.41735,0.91201
4721.48864,0.91148
4719.55993,0.91071
4717.63121,0.91040
4715.70250,0.91021
4713.77379,0.90965
4711.84508,0.90920
4709.91636,0.90955
4707.98765,0.91028
4706.05894,0.91028
4704.13023,0.90962
4702.20151,0.90927
4700.27280,0.90893
4698.34409,0.90807
4696.41538,0.90736
4694.48666,0.90722
4692.55795,0.90736
4690.62924,0.90746
4688.70052,0.90705
4686.77181,0.90568
4684.84310,0.90367
4682.91439,0.90224
4680.98567,0.90185
4679.05696,0.90142
4677.12825,0.90055
4675.19954,0.90015
4673.27082,0.90059
4671.34211,0.90146
4669.41340,0.90255
4667.48469,0.90371
4665.55597,0.90466
4663.62726,0.90533
4661.69855,0.90573
4659.76983,0.90597
4657.84112,0.90618
4655.91241,0.90657
4653.98370,0.90741
4652.05498,0.90838
4650.12627,0.90938
4648.19756,0.91044
4646.26885,0.91100
4644.34013,0.91073
4642.41142,0.91013
4640.48271,0.91006
4638.55399,0.91084
4636.62528,0.91158
4634.69657,0.91141
4632.76786,0.91089
4630.83914,0.91103
4628.91043,0.91184
4626.98172,0.91256
4625.05301,0.91301
4623.12429,0.91347
4621.19558,0.91351
4619.26687,0.91291
4617.33816,0.91235
4615.40944,0.91192
4613.48073,0.91149
4611.55202,0.91152
4609.62330,0.91182
4607.69459,0.91222
4605.76588,0.91301
4603.83717,0.91349
4601.90845,0.91272
4599.97974,0.91131
4598.05103,0.91052
4596.12232,0.91052
4594.19360,0.91082
4592.26489,0.91145
4590.33618,0.91230
4588.40747,0.91274
4586.47875,0.91269
4584.55004,0.91242
4582.62133,0.91216
4580.69261,0.91195
4578.76390,0.91160
4576.83519,0.91127
4574.90648,0.91124
4572.97776,0.91143
4571.04905,0.91147
4569.12034,0.91115
4567.19163,0.91082
4565.26291,0.91079
4563.33420,0.91080
4561.40549,0.91057
4559.47678,0.91024
4557.54806,0.90990
4555.61935,0.90945
4553.69064,0.90908
4551.76192,0.90891
4549.83321,0.90872
4547.90450,0.90860
4545.97579,0.90858
4544.04707,0.90789
4542.11836,0.90671
4540.18965,0.90631
4538.26094,0.90642
4536.33222,0.90596
4534.40351,0.90503
4532.47480,0.90417
4530.54608,0.90334
4528.61737,0.90265
4526.68866,0.90256
4524.75995,0.90274
4522.83123,0.90255
4520.90252,0.90211
4518.97381,0.90190
4517.04510,0.90188
4515.11638,0.90131
4513.18767,0.90004
4511.25896,0.89895
4509.33025,0.89830
4507.40153,0.89741
4505.47282,0.89619
4503.54411,0.89519
4501.61539,0.89461
4499.68668,0.89401
4497.75797,0.89282
4495.82926,0.89120
4493.90054,0.88976
4491.97183,0.88865
4490.04312,0.88777
4488.11441,0.88699
4486.18569,0.88612
4484.25698,0.88502
4482.32827,0.88383
4480.39956,0.88257
4478.47084,0.88104
4476.54213,0.87943
4474.61342,0.87807
4472.68470,0.87697
4470.75599,0.87572
4468.82728,0.87410
4466.89857,0.87250
4464.96985,0.87110
4463.04114,0.86953
4461.11243,0.86740
4459.18372,0.86476
4457.25500,0.86242
4455.32629,0.86039
4453.39758,0.85764
4451.46886,0.85447
4449.54015,0.85152
4447.61144,0.84820
4445.68273,0.84461
4443.75401,0.84139
4441.82530,0.83837
4439.89659,0.83507
4437.96788,0.83158
4436.03916,0.82872
4434.11045,0.82635
4432.18174,0.82347
4430.25303,0.82049
4428.32431,0.81837
4426.39560,0.81681
4424.46689,0.81505
4422.53817,0.81285
4420.60946,0.81033
4418.68075,0.80762
4416.75204,0.80456
4414.82332,0.80122
4412.89461,0.79790
4410.96590,0.79446
4409.03719,0.79048
4407.10847,0.78591
4405.17976,0.78090
4403.25105,0.77573
4401.32234,0.77066
4399.39362,0.76559
4397.46491,0.76050
4395.53620,0.75527
4393.60748,0.74941
4391.67877,0.74276
4389.75006,0.73582
4387.82135,0.72939
4385.89263,0.72363
4383.96392,0.71760
4382.03521,0.71053
4380.10650,0.70283
4378.17778,0.69519
4376.24907,0.68777
4374.32036,0.68039
4372.39165,0.67255
4370.46293,0.66404
4368.53422,0.65542
4366.60551,0.64685
4364.67679,0.63791
4362.74808,0.62815
4360.81937,0.61717
4358.89066,0.60438
4356.96194,0.58953
4355.03323,0.57287
4353.10452,0.55447
4351.17581,0.53439
4349.24709,0.51312
4347.31838,0.49118
4345.38967,0.46911
4343.46095,0.44784
4341.53224,0.42850
4339.60353,0.41152
4337.67482,0.39630
4335.74610,0.38185
4333.81739,0.36679
4331.88868,0.34961
4329.95997,0.32940
4328.03125,0.30588
4326.10254,0.28119
4324.17383,0.26266
4322.24512,0.26133
4320.31640,0.28527
4318.38769,0.33198
4316.45898,0.38913
4314.53026,0.44401
4312.60155,0.49003
4310.67284,0.52602
4308.74413,0.55304
4306.81541,0.57286
4304.88670,0.58740
4302.95799,0.59783
4301.02928,0.60467
4299.10056,0.60877
4297.17185,0.61108
4295.24314,0.61171
4293.31443,0.61033
4291.38571,0.60703
4289.45700,0.60250
4287.52829,0.59770
4285.59957,0.59335
4283.67086,0.58909
4281.74215,0.58394
4279.81344,0.57780
4277.88472,0.57107
4275.95601,0.56340
4274.02730,0.55425
4272.09859,0.54338
4270.16987,0.53063
4268.24116,0.51582
4266.31245,0.49863
4264.38374,0.47886
4262.45502,0.45688
4260.52631,0.43340
4258.59760,0.40968
4256.66888,0.38749
4254.74017,0.36930
4252.81146,0.35957
4250.88275,0.36406
4248.95403,0.38531
4247.02532,0.41852
4245.09661,0.45412
4243.16790,0.48449
4241.23918,0.50691
4239.31047,0.52191
4237.38176,0.53085
4235.45304,0.53499
4233.52433,0.53513
4231.59562,0.53185
4229.66691,0.52610
4227.73819,0.51897
4225.80948,0.51173
4223.88077,0.50561
4221.95206,0.50169
4220.02334,0.50042
4218.09463,0.50104
4216.16592,0.50261
4214.23721,0.50445
4212.30849,0.50556
4210.37978,0.50513
4208.45107,0.50318
4206.52235,0.49978
4204.59364,0.49468
4202.66493,0.48778
4200.73622,0.47924
4198.80750,0.47005
4196.87879,0.46191
4194.95008,0.45616
4193.02137,0.45323
4191.09265,0.45230
4189.16394,0.45215
4187.23523,0.45245
4185.30652,0.45334
4183.37780,0.45454
4181.44909,0.45561
4179.52038,0.45666
4177.59166,0.45798
4175.66295,0.45956
4173.73424,0.46109
4171.80553,0.46246
4169.87681,0.46385
4167.94810,0.46531
4166.01939,0.46673
4164.09068,0.46820
4162.16196,0.46958
4160.23325,0.47066
4158.30454,0.47161
4156.37582,0.47275
4154.44711,0.47414
4152.51840,0.47557
4150.58969,0.47690
4148.66097,0.47824
4146.73226,0.47967
4144.80355,0.48122
4142.87484,0.48285
4140.94612,0.48452
4139.01741,0.48652
4137.08870,0.48877
4135.15999,0.49071
4133.23127,0.49220
4131.30256,0.49372
4129.37385,0.49555
4127.44513,0.49727
4125.51642,0.49855
4123.58771,0.49965
4121.65900,0.50064
4119.73028,0.50146
4117.80157,0.50224
4115.87286,0.50295
4113.94415,0.50348
4112.01543,0.50378
4110.08672,0.50371
4108.15801,0.50326
4106.22930,0.50272
4104.30058,0.50254
4102.37187,0.50288
4100.44316,0.50361
4098.51444,0.50485
4096.58573,0.50719
4094.65702,0.51125
4092.72831,0.51713
4090.79959,0.52445
4088.87088,0.53275
4086.94217,0.54152
4085.01346,0.55020
4083.08474,0.55812
4081.15603,0.56464
4079.22732,0.56992
4077.29861,0.57471
4075.36989,0.57908
4073.44118,0.58277
4071.51247,0.58610
4069.58375,0.58939
4067.65504,0.59230
4065.72633,0.59487
4063.79762,0.59764
4061.86890,0.60060
4059.94019,0.60338
4058.01148,0.60582
4056.08277,0.60796
4054.15405,0.61029
4052.22534,0.61288
4050.29663,0.61522
4048.36791,0.61716
4046.43920,0.61887
4044.51049,0.62077
4042.58178,0.62326
4040.65306,0.62602
4038.72435,0.62843
4036.79564,0.63028
4034.86693,0.63172
4032.93821,0.63303
4031.00950,0.63413
4029.08079,0.63473
4027.15208,0.63508
4025.22336,0.63567
4023.29465,0.63706
4021.36594,0.64006
4019.43722,0.64554
4017.50851,0.65344
4015.57980,0.66224
4013.65109,0.67038
4011.72237,0.67689
4009.79366,0.68147
4007.86495,0.68482
4005.93624,0.68773
4004.00752,0.69020
4002.07881,0.69197
4000.15010,0.69288
3998.22139,0.69287
3996.29267,0.69237
3994.36396,0.69180
3992.43525,0.69115
3990.50653,0.69068
3988.57782,0.69071
3986.64911,0.69044
3984.72040,0.68931
3982.79168,0.68792
3980.86297,0.68675
3978.93426,0.68565
3977.00555,0.68480
3975.07683,0.68506
3973.14812,0.68675
3971.21941,0.68902
3969.29070,0.69163
3967.36198,0.69461
3965.43327,0.69686
3963.50456,0.69775
3961.57584,0.69861
3959.64713,0.70039
3957.71842,0.70217
3955.78971,0.70322
3953.86099,0.70337
3951.93228,0.70228
3950.00357,0.70059
3948.07486,0.70036
3946.14614,0.70138
3944.21743,0.70142
3942.28872,0.70164
3940.36000,0.70325
3938.43129,0.70418
3936.50258,0.70304
3934.57387,0.69942
3932.64515,0.69460
3930.71644,0.69236
3928.78773,0.69300
3926.85902,0.69253
3924.93030,0.69063
3923.00159,0.69045
3921.07288,0.69090
3919.14417,0.68966
3917.21545,0.68904
3915.28674,0.69146
3913.35803,0.69483
3911.42931,0.69701
3909.50060,0.69749
3907.57189,0.69495
3905.64318,0.68914
3903.71446,0.68425
3901.78575,0.68421
3899.85704,0.68797
3897.92833,0.69394
3895.99961,0.69797
3894.07090,0.69699
3892.14219,0.69433
3890.21348,0.69588
3888.28476,0.69802
3886.35605,0.69635
3884.42734,0.69382
3882.49862,0.69310
3880.56991,0.69497
3878.64120,0.69985
3876.71249,0.70186
3874.78377,0.69887
3872.85506,0.69462
3870.92635,0.69278
3868.99764,0.69612
3867.06892,0.70116
3865.14021,0.70359
3863.21150,0.70725
3861.28278,0.71344
3859.35407,0.71638
3857.42536,0.71344
3855.49665,0.70565
3853.56793,0.69918
3851.63922,0.70602
3849.71051,0.71696
3847.78180,0.72338
3845.85308,0.72397
3843.92437,0.71978
3841.99566,0.71321
3840.06695,0.70657
3838.13823,0.70479
3836.20952,0.70994
3834.28081,0.71545
3832.35209,0.71917
3830.42338,0.72192
3828.49467,0.72262
3826.56596,0.72147
3824.63724,0.71904
3822.70853,0.71341
3820.77982,0.70824
3818.85111,0.70995
3816.92239,0.71434
3814.99368,0.72168
3813.06497,0.72999
3811.13626,0.73402
3809.20754,0.73277
3807.27883,0.72977
3805.35012,0.72899
3803.42140,0.72717
3801.49269,0.72605
3799.56398,0.73116
3797.63527,0.73788
3795.70655,0.74557
3793.77784,0.75353
3791.84913,0.75837
3789.92042,0.76009
3787.99170,0.75934
3786.06299,0.75737
3784.13428,0.75730
3782.20557,0.75811
3780.27685,0.75762
3778.34814,0.75958
3776.41943,0.76443
3774.49071,0.76685
3772.56200,0.76484
3770.63329,0.76071
3768.70458,0.75902
3766.77586,0.76045
3764.84715,0.76321
3762.91844,0.76485
3760.98973,0.76253
3759.06101,0.75904
3757.13230,0.75918
3755.20359,0.75861
3753.27487,0.75170
3751.34616,0.74105
3749.41745,0.73922
3747.48874,0.74334
3745.56002,0.74616
3743.63131,0.75049
3741.70260,0.75447
3739.77389,0.75392
3737.84517,0.74783
3735.91646,0.73959
3733.98775,0.73994
3732.05904,0.74910
3730.13032,0.75651
3728.20161,0.75772
3726.27290,0.75467
3724.34418,0.75268
3722.41547,0.75469
3720.48676,0.75961
3718.55805,0.76487
3716.62933,0.76699
3714.70062,0.76280
3712.77191,0.75187
3710.84320,0.74401
3708.91448,0.74871
3706.98577,0.75562
3705.05706,0.75720
3703.12835,0.75442
3701.19963,0.75271
3699.27092,0.75386
3697.34221,0.75363
3695.41349,0.75022
3693.48478,0.74313
3691.55607,0.73213
3689.62736,0.72442
3687.69864,0.72974
3685.76993,0.73889
3683.84122,0.74385
3681.91251,0.74351
3679.98379,0.73796
3678.05508,0.72853
3676.12637,0.71946
3674.19766,0.71945
3672.26894,0.72158
3670.34023,0.72051
3668.41152,0.72529
3666.48280,0.73337
3664.55409,0.73683
3662.62538,0.73570
3660.69667,0.73188
3658.76795,0.72577
3656.83924,0.71835
3654.91053,0.71298
3652.98182,0.70684
3651.05310,0.69334
3649.12439,0.67911
3647.19568,0.68328
3645.26696,0.69374
3643.33825,0.69993
3641.40954,0.70409
3639.48083,0.70864
3637.55211,0.71294
3635.62340,0.71571
3633.69469,0.71645
3631.76598,0.71400
3629.83726,0.70887
3627.90855,0.70980
3625.97984,0.71674
3624.05113,0.71947
3622.12241,0.71594
3620.19370,0.70790
3618.26499,0.70123
3616.33627,0.69784
3614.40756,0.69254
3612.47885,0.68509
3610.55014,0.67719
3608.62142,0.66863
3606.69271,0.66363
3604.76400,0.66381
3602.83529,0.66634
3600.90657,0.67382
3598.97786,0.68883
3597.04915,0.70718
3595.12044,0.72653
3593.19172,0.74564
3591.26301,0.75859
3589.33430,0.76311
3587.40558,0.76676
3585.47687,0.77725
3583.54816,0.78787
3581.61945,0.79373
3579.69073,0.79638
3577.76202,0.79833
3575.83331,0.80060
3573.90460,0.80296
3571.97588,0.80379
3570.04717,0.80031
3568.11846,0.79290
3566.18974,0.79098
3564.26103,0.79799
3562.33232,0.80519
3560.40361,0.81013
3558.47489,0.81393
3556.54618,0.81598
3554.61747,0.81566
3552.68876,0.81500
3550.76004,0.81588
3548.83133,0.81575
3546.90262,0.81356
3544.97391,0.81384
3543.04519,0.81820
3541.11648,0.82236
3539.18777,0.82379
3537.25905,0.82390
3535.33034,0.82502
3533.40163,0.82600
3531.47292,0.82448
3529.54420,0.82123
3527.61549,0.81929
3525.68678,0.81956
3523.75807,0.82072
3521.82935,0.82261
3519.90064,0.82488
3517.97193,0.82664
3516.04322,0.82784
3514.11450,0.82792
3512.18579,0.82582
3510.25708,0.82301
3508.32836,0.82225
3506.39965,0.82196
3504.47094,0.81962
3502.54223,0.81822
3500.61351,0.82018
3498.68480,0.82194
3496.75609,0.82148
3494.82738,0.82058
3492.89866,0.81974
3490.96995,0.81770
3489.04124,0.81458
3487.11253,0.81135
3485.18381,0.80728
3483.25510,0.80150
3481.32639,0.79551
3479.39767,0.79012
3477.46896,0.78289
3475.54025,0.77200
3473.61154,0.75857
3471.68282,0.74406
3469.75411,0.72842
3467.82540,0.71175
3465.89669,0.69538
3463.96797,0.68087
3462.03926,0.66959
3460.11055,0.66231
3458.18183,0.65873
3456.25312,0.65862
3454.32441,0.66202
3452.39570,0.66843
3450.46698,0.67630
3448.53827,0.68504
3446.60956,0.69629
3444.68085,0.70971
3442.75213,0.72327
3440.82342,0.73650
3438.89471,0.74894
3436.96600,0.75985
3435.03728,0.76895
3433.10857,0.77619
3431.17986,0.78198
3429.25114,0.78689
3427.32243,0.79123
3425.39372,0.79475
3423.46501,0.79687
3421.53629,0.79826
3419.60758,0.80050
3417.67887,0.80345
3415.75016,0.80582
3413.82144,0.80754
3411.89273,0.80927
3409.96402,0.81083
3408.03531,0.81141
3406.10659,0.81099
3404.17788,0.81066
3402.24917,0.81085
3400.32045,0.81057
3398.39174,0.80967
3396.46303,0.80901
3394.53432,0.80841
3392.60560,0.80780
3390.67689,0.80749
3388.74818,0.80666
3386.81947,0.80487
3384.89075,0.80301
3382.96204,0.80179
3381.03333,0.80111
3379.10462,0.80043
3377.17590,0.79962
3375.24719,0.79905
3373.31848,0.79880
3371.38976,0.79839
3369.46105,0.79796
3367.53234,0.79830
3365.60363,0.79949
3363.67491,0.80095
3361.74620,0.80260
3359.81749,0.80450
3357.88878,0.80623
3355.96006,0.80778
3354.03135,0.80955
3352.10264,0.81139
3350.17392,0.81299
3348.24521,0.81422
3346.31650,0.81505
3344.38779,0.81584
3342.45907,0.81671
3340.53036,0.81731
3338.60165,0.81742
3336.67294,0.81748
3334.74422,0.81835
3332.81551,0.81983
3330.88680,0.82052
3328.95809,0.81985
3327.02937,0.81883
3325.10066,0.81852
3323.17195,0.81913
3321.24323,0.82044
3319.31452,0.82181
3317.38581,0.82247
3315.45710,0.82260
3313.52838,0.82295
3311.59967,0.82349
3309.67096,0.82378
3307.74225,0.82393
3305.81353,0.82398
3303.88482,0.82352
3301.95611,0.82283
3300.02740,0.82250
3298.09868,0.82237
3296.16997,0.82214
3294.24126,0.82207
3292.31254,0.82241
3290.38383,0.82274
3288.45512,0.82270
3286.52641,0.82245
3284.59769,0.82195
3282.66898,0.82097
3280.74027,0.81981
3278.81156,0.81905
3276.88284,0.81883
3274.95413,0.81875
3273.02542,0.81879
3271.09670,0.81908
3269.16799,0.81911
3267.23928,0.81869
3265.31057,0.81825
3263.38185,0.81789
3261.45314,0.81731
3259.52443,0.81660
3257.59572,0.81587
3255.66700,0.81486
3253.73829,0.81391
3251.80958,0.81357
3249.88087,0.81330
3247.95215,0.81222
3246.02344,0.81062
3244.09473,0.80968
3242.16601,0.80954
3240.23730,0.80922
3238.30859,0.80843
3236.37988,0.80757
3234.45116,0.80671
3232.52245,0.80571
3230.59374,0.80448
3228.66503,0.80276
3226.73631,0.80106
3224.80760,0.80017
3222.87889,0.79944
3220.95018,0.79779
3219.02146,0.79563
3217.09275,0.79369
3215.16404,0.79190
3213.23532,0.79020
3211.30661,0.78839
3209.37790,0.78634
3207.44919,0.78462
3205.52047,0.78314
3203.59176,0.78131
3201.66305,0.77889
3199.73434,0.77620
3197.80562,0.77417
3195.87691,0.77321
3193.94820,0.77242
3192.01949,0.77084
3190.09077,0.76859
3188.16206,0.76613
3186.23335,0.76361
3184.30463,0.76163
3182.37592,0.76031
3180.44721,0.75856
3178.51850,0.75634
3176.58978,0.75484
3174.66107,0.75386
3172.73236,0.75223
3170.80365,0.74985
3168.87493,0.74755
3166.94622,0.74575
3165.01751,0.74429
3163.08879,0.74297
3161.16008,0.74159
3159.23137,0.74005
3157.30266,0.73836
3155.37394,0.73653
3153.44523,0.73456
3151.51652,0.73235
3149.58781,0.72988
3147.65909,0.72737
3145.73038,0.72511
3143.80167,0.72325
3141.87296,0.72136
3139.94424,0.71885
3138.01553,0.71587
3136.08682,0.71278
3134.15810,0.70935
3132.22939,0.70541
3130.30068,0.70133
3128.37197,0.69722
3126.44325,0.69277
3124.51454,0.68788
3122.58583,0.68278
3120.65712,0.67764
3118.72840,0.67226
3116.79969,0.66669
3114.87098,0.66097
3112.94227,0.65471
3111.01355,0.64768
3109.08484,0.64000
3107.15613,0.63196
3105.22741,0.62330
3103.29870,0.61308
3101.36999,0.60129
3099.44128,0.58869
3097.51256,0.57517
3095.58385,0.56075
3093.65514,0.54659
3091.72643,0.53336
3089.79771,0.52085
3087.86900,0.50938
3085.94029,0.49957
3084.01158,0.49118
3082.08286,0.48345
3080.15415,0.47609
3078.22544,0.46903
3076.29672,0.46228
3074.36801,0.45584
3072.43930,0.44935
3070.51059,0.44241
3068.58187,0.43481
3066.65316,0.42665
3064.72445,0.41836
3062.79574,0.41028
3060.86702,0.40213
3058.93831,0.39350
3057.00960,0.38444
3055.08088,0.37545
3053.15217,0.36654
3051.22346,0.35704
3049.29475,0.34670
3047.36603,0.33578
3045.43732,0.32448
3043.50861,0.31311
3041.57990,0.30181
3039.65118,0.29034
3037.72247,0.27858
3035.79376,0.26656
3033.86505,0.25472
3031.93633,0.24365
3030.00762,0.23347
3028.07891,0.22366
3026.15019,0.21375
3024.22148,0.20413
3022.29277,0.19530
3020.36406,0.18721
3018.43534,0.17984
3016.50663,0.17323
3014.57792,0.16722
3012.64921,0.16144
3010.72049,0.15555
3008.79178,0.14949
3006.86307,0.14308
3004.93436,0.13604
3003.00564,0.12824
3001.07693,0.11964
2999.14822,0.11037
2997.21950,0.10076
2995.29079,0.09098
2993.36208,0.08104
2991.43337,0.07089
2989.50465,0.06074
2987.57594,0.05117
2985.64723,0.04245
2983.71852,0.03431
2981.78980,0.02661
2979.86109,0.01963
2977.93238,0.01378
2976.00366,0.00911
2974.07495,0.00555
2972.14624,0.00310
2970.21753,0.00156
2968.28881,0.00068
2966.36010,0.00031
2964.43139,0.00036
2962.50268,0.00053
2960.57396,0.00063
2958.64525,0.00072
2956.71654,0.00070
2954.78783,0.00055
2952.85911,0.00043
2950.93040,0.00053
2949.00169,0.00063
2947.07297,0.00065
2945.14426,0.00072
2943.21555,0.00079
2941.28684,0.00075
2939.35812,0.00074
2937.42941,0.00070
2935.50070,0.00062
2933.57199,0.00062
2931.64327,0.00073
2929.71456,0.00071
2927.78585,0.00053
2925.85714,0.00034
2923.92842,0.00034
2921.99971,0.00055
2920.07100,0.00081
2918.14228,0.00087
2916.21357,0.00083
2914.28486,0.00074
2912.35615,0.00069
2910.42743,0.00068
2908.49872,0.00062
2906.57001,0.00045
2904.64130,0.00037
2902.71258,0.00045
2900.78387,0.00060
2898.85516,0.00051
2896.92645,0.00041
2894.99773,0.00062
2893.06902,0.00084
2891.14031,0.00076
2889.21159,0.00060
2887.28288,0.00055
2885.35417,0.00042
2883.42546,0.00019
2881.49674,0.00033
2879.56803,0.00073
2877.63932,0.00096
2875.71061,0.00063
2873.78189,0.00004
2871.85318,-0.00005
2869.92447,0.00028
2867.99575,0.00033
2866.06704,0.00047
2864.13833,0.00076
2862.20962,0.00095
2860.28090,0.00085
2858.35219,0.00072
2856.42348,0.00078
2854.49477,0.00085
2852.56605,0.00069
2850.63734,0.00049
2848.70863,0.00056
2846.77992,0.00086
2844.85120,0.00089
2842.92249,0.00067
2840.99378,0.00051
2839.06506,0.00039
2837.13635,0.00021
2835.20764,0.00024
2833.27893,0.00044
2831.35021,0.00078
2829.42150,0.00142
2827.49279,0.00239
2825.56408,0.00383
2823.63536,0.00587
2821.70665,0.00853
2819.77794,0.01181
2817.84923,0.01562
2815.92051,0.01987
2813.99180,0.02466
2812.06309,0.03007
2810.13437,0.03597
2808.20566,0.04226
2806.27695,0.04904
2804.34824,0.05632
2802.41952,0.06403
2800.49081,0.07221
2798.56210,0.08090
2796.63339,0.09008
2794.70467,0.09988
2792.77596,0.11033
2790.84725,0.12121
2788.91854,0.13256
2786.98982,0.14448
2785.06111,0.15672
2783.13240,0.16890
2781.20368,0.18076
2779.27497,0.19211
2777.34626,0.20275
2775.41755,0.21259
2773.48883,0.22171
2771.56012,0.22989
2769.63141,0.23693
2767.70270,0.24293
2765.77398,0.24812
2763.84527,0.25276
2761.91656,0.25709
2759.98784,0.26129
2758.05913,0.26540
2756.13042,0.26920
2754.20171,0.27245
2752.27299,0.27504
2750.34428,0.27698
2748.41557,0.27827
2746.48686,0.27889
2744.55814,0.27896
2742.62943,0.27886
2740.70072,0.27917
2738.77201,0.28021
2736.84329,0.28194
2734.91458,0.28430
2732.98587,0.28730
2731.05715,0.29094
2729.12844,0.29527
2727.19973,0.30020
2725.27102,0.30531
2723.34230,0.31033
2721.41359,0.31532
2719.48488,0.32028
2717.55617,0.32489
2715.62745,0.32901
2713.69874,0.33304
2711.77003,0.33722
2709.84132,0.34106
2707.91260,0.34421
2705.98389,0.34689
2704.05518,0.34911
2702.12646,0.35051
2700.19775,0.35096
2698.26904,0.35030
2696.34033,0.34821
2694.41161,0.34459
2692.48290,0.33983
2690.55419,0.33458
2688.62548,0.32946
2686.69676,0.32484
2684.76805,0.32098
2682.83934,0.31790
2680.91062,0.31541
2678.98191,0.31344
2677.05320,0.31190
2675.12449,0.31072
2673.19577,0.30996
2671.26706,0.30986
2669.33835,0.31070
2667.40964,0.31244
2665.48092,0.31480
2663.55221,0.31760
2661.62350,0.32066
2659.69479,0.32369
2657.76607,0.32672
2655.83736,0.32986
2653.90865,0.33312
2651.97993,0.33643
2650.05122,0.33947
2648.12251,0.34188
2646.19380,0.34354
2644.26508,0.34455
2642.33637,0.34501
2640.40766,0.34517
2638.47895,0.34548
2636.55023,0.34670
2634.62152,0.34966
2632.69281,0.35473
2630.76410,0.36157
2628.83538,0.36949
2626.90667,0.37801
2624.97796,0.38666
2623.04924,0.39502
2621.12053,0.40322
2619.19182,0.41153
2617.26311,0.41977
2615.33439,0.42776
2613.40568,0.43557
2611.47697,0.44321
2609.54826,0.45069
2607.61954,0.45817
2605.69083,0.46575
2603.76212,0.47310
2601.83341,0.47988
2599.90469,0.48606
2597.97598,0.49195
2596.04727,0.49817
2594.11855,0.50511
2592.18984,0.51261
2590.26113,0.52051
2588.33242,0.52875
2586.40370,0.53710
2584.47499,0.54538
2582.54628,0.55338
2580.61757,0.56093
2578.68885,0.56821
2576.76014,0.57530
2574.83143,0.58201
2572.90271,0.58844
2570.97400,0.59492
2569.04529,0.60144
2567.11658,0.60766
2565.18786,0.61331
2563.25915,0.61828
2561.33044,0.62246
2559.40173,0.62594
2557.47301,0.62894
2555.54430,0.63139
2553.61559,0.63337
2551.68688,0.63543
2549.75816,0.63843
2547.82945,0.64306
2545.90074,0.64910
2543.97202,0.65538
2542.04331,0.66047
2540.11460,0.66346
2538.18589,0.66420
2536.25717,0.66297
2534.32846,0.66065
2532.39975,0.65847
2530.47104,0.65753
2528.54232,0.65862
2526.61361,0.66188
2524.68490,0.66684
2522.75619,0.67277
2520.82747,0.67878
2518.89876,0.68413
2516.97005,0.68875
2515.04133,0.69281
2513.11262,0.69637
2511.18391,0.69956
2509.25520,0.70242
2507.32648,0.70479
2505.39777,0.70648
2503.46906,0.70727
2501.54035,0.70707
2499.61163,0.70616
2497.68292,0.70510
2495.75421,0.70409
2493.82549,0.70321
2491.89678,0.70259
2489.96807,0.70212
2488.03936,0.70153
2486.11064,0.70066
2484.18193,0.69925
2482.25322,0.69717
2480.32451,0.69482
2478.39579,0.69282
2476.46708,0.69159
2474.53837,0.69209
2472.60966,0.69557
2470.68094,0.70183
2468.75223,0.70903
2466.82352,0.71557
2464.89480,0.72102
2462.96609,0.72567
2461.03738,0.72993
2459.10867,0.73403
2457.17995,0.73792
2455.25124,0.74170
2453.32253,0.74551
2451.39382,0.74934
2449.46510,0.75305
2447.53639,0.75631
2445.60768,0.75867
2443.67897,0.76001
2441.75025,0.76048
2439.82154,0.76025
2437.89283,0.75976
2435.96411,0.75957
2434.03540,0.75969
2432.10669,0.75966
2430.17798,0.75929
2428.24926,0.75846
2426.32055,0.75675
2424.39184,0.75376
2422.46313,0.74960
2420.53441,0.74501
2418.60570,0.74118
2416.67699,0.73917
2414.74828,0.73916
2412.81956,0.74044
2410.89085,0.74223
2408.96214,0.74400
2407.03342,0.74538
2405.10471,0.74614
2403.17600,0.74632
2401.24729,0.74608
2399.31857,0.74566
2397.38986,0.74542
2395.46115,0.74570
2393.53244,0.74650
2391.60372,0.74744
2389.67501,0.74804
2387.74630,0.74756
2385.81758,0.74484
2383.88887,0.73864
2381.96016,0.72820
2380.03145,0.71372
2378.10273,0.69669
2376.17402,0.67922
2374.24531,0.66271
2372.31660,0.64726
2370.38788,0.63245
2368.45917,0.61832
2366.53046,0.60523
2364.60175,0.59390
2362.67303,0.58505
2360.74432,0.57856
2358.81561,0.57459
2356.88689,0.57463
2354.95818,0.58008
2353.02947,0.59146
2351.10076,0.60545
2349.17204,0.61164
2347.24333,0.60253
2345.31462,0.58427
2343.38591,0.57056
2341.45719,0.56522
2339.52848,0.56397
2337.59977,0.56415
2335.67106,0.56489
2333.74234,0.56543
2331.81363,0.56595
2329.88492,0.56831
2327.95620,0.57315
2326.02749,0.57863
2324.09878,0.58386
2322.17007,0.59031
2320.24135,0.59930
2318.31264,0.61009
2316.38393,0.62059
2314.45522,0.62951
2312.52650,0.63758
2310.59779,0.64598
2308.66908,0.65489
2306.74037,0.66375
2304.81165,0.67193
2302.88294,0.67917
2300.95423,0.68544
2299.02551,0.69105
2297.09680,0.69651
2295.16809,0.70205
2293.23938,0.70767
2291.31066,0.71324
2289.38195,0.71846
2287.45324,0.72306
2285.52453,0.72665
2283.59581,0.72885
2281.66710,0.72969
2279.73839,0.72972
2277.80967,0.72966
2275.88096,0.73030
2273.95225,0.73240
2272.02354,0.73595
2270.09482,0.74007
2268.16611,0.74374
2266.23740,0.74639
2264.30869,0.74796
2262.37997,0.74882
2260.45126,0.74946
2258.52255,0.75012
2256.59384,0.75091
2254.66512,0.75201
2252.73641,0.75372
2250.80770,0.75605
2248.87898,0.75866
2246.95027,0.76120
2245.02156,0.76374
2243.09285,0.76667
2241.16413,0.77033
2239.23542,0.77482
2237.30671,0.77985
2235.37800,0.78491
2233.44928,0.78944
2231.52057,0.79312
2229.59186,0.79588
2227.66315,0.79762
2225.73443,0.79815
2223.80572,0.79752
2221.87701,0.79651
2219.94829,0.79598
2218.01958,0.79598
2216.09087,0.79612
2214.16216,0.79631
2212.23344,0.79648
2210.30473,0.79646
2208.37602,0.79612
2206.44731,0.79518
2204.51859,0.79332
2202.58988,0.79060
2200.66117,0.78736
2198.73245,0.78395
2196.80374,0.78075
2194.87503,0.77791
2192.94632,0.77539
2191.01760,0.77316
2189.08889,0.77103
2187.16018,0.76866
2185.23147,0.76600
2183.30275,0.76327
2181.37404,0.76058
2179.44533,0.75796
2177.51662,0.75564
2175.58790,0.75375
2173.65919,0.75228
2171.73048,0.75125
2169.80176,0.75049
2167.87305,0.74964
2165.94434,0.74852
2164.01563,0.74695
2162.08691,0.74492
2160.15820,0.74284
2158.22949,0.74117
2156.30078,0.74032
2154.37206,0.74048
2152.44335,0.74143
2150.51464,0.74310
2148.58593,0.74571
2146.65721,0.74933
2144.72850,0.75370
2142.79979,0.75833
2140.87107,0.76261
2138.94236,0.76627
2137.01365,0.76962
2135.08494,0.77318
2133.15622,0.77714
2131.22751,0.78125
2129.29880,0.78520
2127.37009,0.78863
2125.44137,0.79128
2123.51266,0.79309
2121.58395,0.79408
2119.65524,0.79444
2117.72652,0.79439
2115.79781,0.79438
2113.86910,0.79502
2111.94038,0.79631
2110.01167,0.79793
2108.08296,0.79949
2106.15425,0.80047
2104.22553,0.80049
2102.29682,0.79971
2100.36811,0.79857
2098.43940,0.79733
2096.51068,0.79611
2094.58197,0.79520
2092.65326,0.79492
2090.72454,0.79544
2088.79583,0.79650
2086.86712,0.79728
2084.93841,0.79717
2083.00969,0.79627
2081.08098,0.79478
2079.15227,0.79275
2077.22356,0.79064
2075.29484,0.78896
2073.36613,0.78780
2071.43742,0.78708
2069.50871,0.78648
2067.57999,0.78529
2065.65128,0.78339
2063.72257,0.78153
2061.79385,0.77961
2059.86514,0.77687
2057.93643,0.77348
2056.00772,0.77003
2054.07900,0.76685
2052.15029,0.76406
2050.22158,0.76153
2048.29287,0.75899
2046.36415,0.75609
2044.43544,0.75246
2042.50673,0.74807
2040.57802,0.74352
2038.64930,0.73912
2036.72059,0.73468
2034.79188,0.73021
2032.86316,0.72595
2030.93445,0.72199
2029.00574,0.71802
2027.07703,0.71354
2025.14831,0.70829
2023.21960,0.70252
2021.29089,0.69711
2019.36218,0.69375
2017.43346,0.69528
2015.50475,0.70378
2013.57604,0.71739
2011.64733,0.73228
2009.71861,0.74595
2007.78990,0.75741
2005.86119,0.76636
2003.93247,0.77296
2002.00376,0.77776
2000.07505,0.78131
1998.14634,0.78419
1996.21762,0.78642
1994.28891,0.78759
1992.36020,0.78926
1990.43149,0.79314
1988.50277,0.79779
1986.57406,0.80173
1984.64535,0.80450
1982.71663,0.80550
1980.78792,0.80481
1978.85921,0.80327
1976.93050,0.80169
1975.00178,0.80056
1973.07307,0.79990
1971.14436,0.79892
1969.21565,0.79685
1967.28693,0.79503
1965.35822,0.79517
1963.42951,0.79544
1961.50080,0.79400
1959.57208,0.79161
1957.64337,0.78911
1955.71466,0.78708
1953.78594,0.78628
1951.85723,0.78651
1949.92852,0.78671
1947.99981,0.78624
1946.07109,0.78475
1944.14238,0.78219
1942.21367,0.78084
1940.28496,0.78215
1938.35624,0.78317
1936.42753,0.78211
1934.49882,0.78041
1932.57011,0.77952
1930.64139,0.77946
1928.71268,0.77948
1926.78397,0.77824
1924.85525,0.77450
1922.92654,0.76982
1920.99783,0.76650
1919.06912,0.76296
1917.14040,0.75947
1915.21169,0.75773
1913.28298,0.75536
1911.35427,0.75076
1909.42555,0.74581
1907.49684,0.74259
1905.56813,0.73980
1903.63941,0.73532
1901.71070,0.72911
1899.78199,0.72218
1897.85328,0.71548
1895.92456,0.71056
1893.99585,0.70951
1892.06714,0.71112
1890.13843,0.71399
1888.20971,0.71913
1886.28100,0.72401
1884.35229,0.72590
1882.42358,0.72525
1880.49486,0.72292
1878.56615,0.71929
1876.63744,0.71528
1874.70872,0.71133
1872.78001,0.70625
1870.85130,0.69855
1868.92259,0.69111
1866.99387,0.69127
1865.06516,0.69622
1863.13645,0.69912
1861.20774,0.69931
1859.27902,0.69892
1857.35031,0.69946
1855.42160,0.70072
1853.49289,0.70212
1851.56417,0.70295
1849.63546,0.70211
1847.70675,0.69882
1845.77803,0.69350
1843.84932,0.68976
1841.92061,0.68975
1839.99190,0.68863
1838.06318,0.68384
1836.13447,0.67816
1834.20576,0.67293
1832.27705,0.66532
1830.34833,0.65514
1828.41962,0.64757
1826.49091,0.64237
1824.56220,0.63560
1822.63348,0.62894
1820.70477,0.62262
1818.77606,0.61535
1816.84734,0.60825
1814.91863,0.60156
1812.98992,0.59404
1811.06121,0.58585
1809.13249,0.57924
1807.20378,0.57335
1805.27507,0.56529
1803.34636,0.55390
1801.41764,0.54014
1799.48893,0.52775
1797.56022,0.51744
1795.63150,0.50653
1793.70279,0.49248
1791.77408,0.47644
1789.84537,0.46456
1787.91665,0.45437
1785.98794,0.44070
1784.05923,0.42411
1782.13052,0.40724
1780.20180,0.38987
1778.27309,0.37260
1776.34438,0.35476
1774.41567,0.33222
1772.48695,0.30070
1770.55824,0.26608
1768.62953,0.23331
1766.70081,0.19802
1764.77210,0.16369
1762.84339,0.12952
1760.91468,0.09659
1758.98596,0.07227
1757.05725,0.05109
1755.12854,0.03173
1753.19983,0.01774
1751.27111,0.00798
1749.34240,0.00227
1747.41369,0.00061
1745.48498,0.00051
1743.55626,0.00051
1741.62755,0.00081
1739.69884,0.00091
1737.77012,0.00082
1735.84141,0.00053
1733.91270,0.00019
1731.98399,0.00008
1730.05527,0.00005
1728.12656,0.00056
1726.19785,0.00183
1724.26914,0.00584
1722.34042,0.01351
1720.41171,0.02462
1718.48300,0.04395
1716.55429,0.07627
1714.62557,0.10857
1712.69686,0.13389
1710.76815,0.15579
1708.83943,0.17443
1706.91072,0.19007
1704.98201,0.20185
1703.05330,0.20749
1701.12458,0.20814
1699.19587,0.20827
1697.26716,0.21804
1695.33845,0.24202
1693.40973,0.26936
1691.48102,0.29477
1689.55231,0.32413
1687.62359,0.35184
1685.69488,0.37626
1683.76617,0.41137
1681.83746,0.44361
1679.90874,0.46325
1677.98003,0.47714
1676.05132,0.48805
1674.12261,0.49766
1672.19389,0.50405
1670.26518,0.50967
1668.33647,0.52065
1666.40776,0.53012
1664.47904,0.53285
1662.55033,0.53250
1660.62162,0.53348
1658.69290,0.53321
1656.76419,0.52834
1654.83548,0.51709
1652.90677,0.49999
1650.97805,0.48991
1649.04934,0.48213
1647.12063,0.48165
1645.19192,0.50581
1643.26320,0.53616
1641.33449,0.55999
1639.40578,0.57574
1637.47707,0.58509
1635.54835,0.60040
1633.61964,0.62118
1631.69093,0.63389
1629.76221,0.63997
1627.83350,0.64319
1625.90479,0.64488
1623.97608,0.64549
1622.04736,0.64827
1620.11865,0.65084
1618.18994,0.64962
1616.26123,0.65080
1614.33251,0.65854
1612.40380,0.66447
1610.47509,0.66609
1608.54637,0.66628
1606.61766,0.66682
1604.68895,0.66630
1602.76024,0.66423
1600.83152,0.66243
1598.90281,0.66122
1596.97410,0.65953
1595.04539,0.65840
1593.11667,0.65882
1591.18796,0.65946
1589.25925,0.65893
1587.33054,0.65727
1585.40182,0.65463
1583.47311,0.65124
1581.54440,0.64721
1579.61568,0.64115
1577.68697,0.63222
1575.75826,0.62604
1573.82955,0.62667
1571.90083,0.62460
1569.97212,0.61706
1568.04341,0.61142
1566.11470,0.60860
1564.18598,0.60423
1562.25727,0.59775
1560.32856,0.58671
1558.39985,0.57605
1556.47113,0.58056
1554.54242,0.58710
1552.61371,0.59039
1550.68499,0.59035
1548.75628,0.58826
1546.82757,0.58303
1544.89886,0.57160
1542.97014,0.55593
1541.04143,0.54442
1539.11272,0.54826
1537.18401,0.55590
1535.25529,0.55572
1533.32658,0.55138
1531.39787,0.54889
1529.46916,0.54487
1527.54044,0.53570
1525.61173,0.52468
1523.68302,0.51516
1521.75430,0.50668
1519.82559,0.50235
1517.89688,0.49938
1515.96817,0.49623
1514.03945,0.49365
1512.11074,0.48741
1510.18203,0.47549
1508.25332,0.45799
1506.32460,0.44360
1504.39589,0.44162
1502.46718,0.43813
1500.53846,0.42824
1498.60975,0.41189
1496.68104,0.39286
1494.75233,0.37732
1492.82361,0.36295
1490.89490,0.34094
1488.96619,0.30933
1487.03748,0.27848
1485.10876,0.24847
1483.18005,0.21191
1481.25134,0.16404
1479.32263,0.11145
1477.39391,0.06333
1475.46520,0.02567
1473.53649,0.00563
1471.60777,0.00066
1469.67906,0.00020
1467.75035,0.00034
1465.82164,0.00044
1463.89292,0.00043
1461.96421,0.00040
1460.03550,0.00040
1458.10679,0.00041
1456.17807,0.00083
1454.24936,0.00187
1452.32065,0.00328
1450.39194,0.00489
1448.46322,0.00679
1446.53451,0.00860
1444.60580,0.00973
1442.67708,0.01048
1440.74837,0.01110
1438.81966,0.01186
1436.89095,0.01379
1434.96223,0.01782
1433.03352,0.02372
1431.10481,0.03340
1429.17610,0.04873
1427.24738,0.06694
1425.31867,0.08822
1423.38996,0.11338
1421.46125,0.13789
1419.53253,0.16473
1417.60382,0.19531
1415.67511,0.21922
1413.74639,0.23769
1411.81768,0.25453
1409.88897,0.26916
1407.96026,0.27943
1406.03154,0.28515
1404.10283,0.28739
1402.17412,0.28552
1400.24541,0.27738
1398.31669,0.26243
1396.38798,0.24220
1394.45927,0.21547
1392.53055,0.18546
1390.60184,0.15500
1388.67313,0.11910
1386.74442,0.07835
1384.81570,0.04551
1382.88699,0.02444
1380.95828,0.01128
1379.02957,0.00434
1377.10085,0.00146
1375.17214,0.00051
1373.24343,0.00036
1371.31472,0.00042
1369.38600,0.00052
1367.45729,0.00067
1365.52858,0.00126
1363.59986,0.00257
1361.67115,0.00516
1359.74244,0.00889
1357.81373,0.01352
1355.88501,0.01935
1353.95630,0.02719
1352.02759,0.03893
1350.09888,0.05764
1348.17016,0.08523
1346.24145,0.11968
1344.31274,0.15594
1342.38403,0.18981
1340.45531,0.22278
1338.52660,0.25691
1336.59789,0.28722
1334.66917,0.30936
1332.74046,0.32268
1330.81175,0.32783
1328.88304,0.32663
1326.95432,0.32076
1325.02561,0.31131
1323.09690,0.29872
1321.16819,0.28305
1319.23947,0.26496
1317.31076,0.24640
1315.38205,0.22862
1313.45333,0.21133
1311.52462,0.19534
1309.59591,0.18180
1307.66720,0.17051
1305.73848,0.16116
1303.80977,0.15349
1301.88106,0.14707
1299.95235,0.14155
1298.02363,0.13680
1296.09492,0.13240
1294.16621,0.12777
1292.23750,0.12244
1290.30878,0.11587
1288.38007,0.10771
1286.45136,0.09818
1284.52264,0.08792
1282.59393,0.07721
1280.66522,0.06611
1278.73651,0.05478
1276.80779,0.04368
1274.87908,0.03333
1272.95037,0.02412
1271.02166,0.01627
1269.09294,0.00999
1267.16423,0.00553
1265.23552,0.00286
1263.30681,0.00147
1261.37809,0.00067
1259.44938,0.00024
1257.52067,0.00025
1255.59195,0.00030
1253.66324,0.00042
1251.73453,0.00044
1249.80582,0.00047
1247.87710,0.00051
1245.94839,0.00042
1244.01968,0.00024
1242.09097,0.00026
1240.16225,0.00033
1238.23354,0.00035
1236.30483,0.00035
1234.37612,0.00040
1232.44740,0.00030
1230.51869,0.00022
1228.58998,0.00011
1226.66126,0.00022
1224.73255,0.00042
1222.80384,0.00072
1220.87513,0.00168
1218.94641,0.00359
1217.01770,0.00674
1215.08899,0.01136
1213.16028,0.01768
1211.23156,0.02590
1209.30285,0.03624
1207.37414,0.04863
1205.44542,0.06240
1203.51671,0.07663
1201.58800,0.09077
1199.65929,0.10471
1197.73057,0.11833
1195.80186,0.13142
1193.87315,0.14387
1191.94444,0.15558
1190.01572,0.16639
1188.08701,0.17616
1186.15830,0.18481
1184.22959,0.19229
1182.30087,0.19860
1180.37216,0.20392
1178.44345,0.20891
1176.51473,0.21396
1174.58602,0.21841
1172.65731,0.22159
1170.72860,0.22363
1168.79988,0.22468
1166.87117,0.22418
1164.94246,0.22161
1163.01375,0.21714
1161.08503,0.21092
1159.15632,0.20267
1157.22761,0.19225
1155.29890,0.18015
1153.37018,0.16741
1151.44147,0.15550
1149.51276,0.14596
1147.58404,0.13963
1145.65533,0.13640
1143.72662,0.13538
1141.79791,0.13502
1139.86919,0.13414
1137.94048,0.13240
1136.01177,0.12982
1134.08306,0.12652
1132.15434,0.12299
1130.22563,0.12022
1128.29692,0.11928
1126.36821,0.12062
1124.43949,0.12379
1122.51078,0.12813
1120.58207,0.13312
1118.65335,0.13808
1116.72464,0.14253
1114.79593,0.14677
1112.86722,0.15098
1110.93850,0.15488
1109.00979,0.15825
1107.08108,0.16094
1105.15237,0.16265
1103.22365,0.16315
1101.29494,0.16247
1099.36623,0.16057
1097.43751,0.15749
1095.50880,0.15355
1093.58009,0.14883
1091.65138,0.14349
1089.72266,0.13797
1087.79395,0.13243
1085.86524,0.12679
1083.93653,0.12112
1082.00781,0.11565
1080.07910,0.11044
1078.15039,0.10548
1076.22168,0.10056
1074.29296,0.09558
1072.36425,0.09084
1070.43554,0.08648
1068.50682,0.08266
1066.57811,0.07993
1064.64940,0.07828
1062.72069,0.07684
1060.79197,0.07470
1058.86326,0.07140
1056.93455,0.06676
1055.00584,0.06073
1053.07712,0.05343
1051.14841,0.04550
1049.21970,0.03818
1047.29099,0.03273
1045.36227,0.02950
1043.43356,0.02781
1041.50485,0.02670
1039.57613,0.02506
1037.64742,0.02216
1035.71871,0.01822
1033.79000,0.01373
1031.86128,0.00924
1029.93257,0.00563
1028.00386,0.00330
1026.07515,0.00179
1024.14643,0.00078
1022.21772,0.00027
1020.28901,0.00023
1018.36029,0.00059
1016.43158,0.00153
1014.50287,0.00411
1012.57416,0.00991
1010.64544,0.02061
1008.71673,0.03712
1006.78802,0.05872
1004.85931,0.08367
1002.93059,0.10984
1001.00188,0.13519
999.07317,0.15820
997.14446,0.17813
995.21574,0.19492
993.28703,0.20885
991.35832,0.22007
989.42960,0.22860
987.50089,0.23462
985.57218,0.23799
983.64347,0.23832
981.71475,0.23586
979.78604,0.23117
977.85733,0.22461
975.92862,0.21648
973.99990,0.20702
972.07119,0.19640
970.14248,0.18495
968.21377,0.17329
966.28505,0.16241
964.35634,0.15328
962.42763,0.14665
960.49891,0.14321
958.57020,0.14303
956.64149,0.14530
954.71278,0.14906
952.78406,0.15393
950.85535,0.15995
948.92664,0.16708
946.99793,0.17449
945.06921,0.18008
943.14050,0.18210
941.21179,0.18130
939.28308,0.18033
937.35436,0.18259
935.42565,0.19193
933.49694,0.21145
931.56822,0.24166
929.63951,0.27977
927.71080,0.32036
925.78209,0.35777
923.85337,0.38833
921.92466,0.41125
919.99595,0.42794
918.06724,0.44042
916.13852,0.44996
914.20981,0.45701
912.28110,0.46224
910.35238,0.46700
908.42367,0.47222
906.49496,0.47771
904.56625,0.48245
902.63753,0.48535
900.70882,0.48602
898.78011,0.48519
896.85140,0.48423
894.92268,0.48392
892.99397,0.48466
891.06526,0.48688
889.13655,0.49042
887.20783,0.49475
885.27912,0.49906
883.35041,0.50213
881.42169,0.50339
879.49298,0.50342
877.56427,0.50295
875.63556,0.50207
873.70684,0.50078
871.77813,0.49974
869.84942,0.49968
867.92071,0.50122
865.99199,0.50505
864.06328,0.51066
862.13457,0.51601
860.20586,0.51993
858.27714,0.52325
856.34843,0.52731
854.41972,0.53295
852.49100,0.54044
850.56229,0.54916
848.63358,0.55786
846.70487,0.56547
844.77615,0.57136
842.84744,0.57536
840.91873,0.57813
838.99002,0.58103
837.06130,0.58523
835.13259,0.59114
833.20388,0.59845
831.27516,0.60658
829.34645,0.61454
827.41774,0.62063
825.48903,0.62369
823.56031,0.62368
821.63160,0.62106
819.70289,0.61660
817.77418,0.61121
815.84546,0.60607
813.91675,0.60212
811.98804,0.59921
810.05933,0.59629
808.13061,0.59207
806.20190,0.58593
804.27319,0.57849
802.34447,0.57150
800.41576,0.56699
798.48705,0.56620
796.55834,0.56992
794.62962,0.57871
792.70091,0.59175
790.77220,0.60671
788.84349,0.62029
786.91477,0.62862
784.98606,0.62961
783.05735,0.62453
781.12864,0.61616
779.19992,0.60696
777.27121,0.59870
775.34250,0.59258
773.41378,0.58895
771.48507,0.58731
769.55636,0.58677
767.62765,0.58583
765.69893,0.58252
763.77022,0.57579
761.84151,0.56613
759.91280,0.55484
757.98408,0.54334
756.05537,0.53223
754.12666,0.52135
752.19795,0.51018
750.26923,0.49710
748.34052,0.48011
746.41181,0.45768
744.48309,0.42913
742.55438,0.39493
740.62567,0.35566
738.69696,0.30989
736.76824,0.25305
734.83953,0.18088
732.91082,0.10199
730.98211,0.04138
729.05339,0.01486
727.12468,0.01050
725.19597,0.00924
723.26725,0.00537
721.33854,0.00190
719.40983,0.00275
717.48112,0.01540
715.55240,0.05042
713.62369,0.11168
711.69498,0.19054
709.76627,0.27323
707.83755,0.35068
705.90884,0.41925
703.98013,0.47851
702.05142,0.53023
700.12270,0.57798
698.19399,0.62326
696.26528,0.66172
694.33656,0.68795
692.40785,0.70178
690.47914,0.70785
688.55043,0.71232
686.62171,0.71970
684.69300,0.73083
682.76429,0.74378
680.83558,0.75511
678.90686,0.76157
676.97815,0.76166
675.04944,0.75521
673.12073,0.74127
671.19201,0.71563
669.26330,0.68623
667.33459,0.69009
665.40587,0.72465
663.47716,0.74684
661.54845,0.75002
659.61974,0.74207
657.69102,0.72581
655.76231,0.70237
653.83360,0.67398
651.90489,0.64344
649.97617,0.61401
648.04746,0.58979
646.11875,0.57378
644.19004,0.56700
642.26132,0.56936
640.33261,0.57838
638.40390,0.58772
636.47518,0.58787
634.54647,0.57185
632.61776,0.54163
630.68905,0.50997
628.76033,0.49324
626.83162,0.49975
624.90291,0.52424
622.97420,0.55178
621.04548,0.56798
619.11677,0.56107
617.18806,0.52106
615.25934,0.44781
613.33063,0.35683
611.40192,0.27353
609.47321,0.22312
607.54449,0.22199
605.61578,0.27183
603.68707,0.35587
601.75836,0.44666
599.82964,0.52610
