7496.90619,0.92829
7494.97747,0.93030
7493.04876,0.92442
7491.12005,0.92875
7489.19134,0.94540
7487.26262,0.95408
7485.33391,0.94872
7483.40520,0.94164
7481.47648,0.93766
7479.54777,0.93415
7477.61906,0.93495
7475.69035,0.94079
7473.76163,0.94336
7471.83292,0.94049
7469.90421,0.93829
7467.97550,0.94055
7466.04678,0.94240
7464.11807,0.93633
7462.18936,0.92871
7460.26065,0.93125
7458.33193,0.93785
7456.40322,0.93614
7454.47451,0.93119
7452.54579,0.93142
7450.61708,0.93332
7448.68837,0.93235
7446.75966,0.92911
7444.83094,0.92604
7442.90223,0.92528
7440.97352,0.92784
7439.04481,0.93347
7437.11609,0.93983
7435.18738,0.94116
7433.25867,0.93572
7431.32996,0.93114
7429.40124,0.93010
7427.47253,0.92709
7425.54382,0.92461
7423.61510,0.92540
7421.68639,0.92494
7419.75768,0.92713
7417.82897,0.93418
7415.90025,0.93595
7413.97154,0.93217
7412.04283,0.92971
7410.11412,0.92881
7408.18540,0.92975
7406.25669,0.92787
7404.32798,0.91706
7402.39927,0.90709
7400.47055,0.90949
7398.54184,0.91983
7396.61313,0.92752
7394.68441,0.92917
7392.75570,0.92708
7390.82699,0.92610
7388.89828,0.93259
7386.96956,0.94381
7385.04085,0.94844
7383.11214,0.94121
7381.18343,0.92871
7379.25471,0.92097
7377.32600,0.92015
7375.39729,0.92606
7373.46857,0.93307
7371.53986,0.93176
7369.61115,0.92422
7367.68244,0.91613
7365.75372,0.91376
7363.82501,0.92203
7361.89630,0.93209
7359.96759,0.93390
7358.03887,0.93170
7356.11016,0.93357
7354.18145,0.93840
7352.25274,0.93821
7350.32402,0.93024
7348.39531,0.91974
7346.46660,0.91665
7344.53788,0.91914
7342.60917,0.91563
7340.68046,0.91279
7338.75175,0.92152
7336.82303,0.93032
7334.89432,0.93192
7332.96561,0.93216
7331.03690,0.93118
7329.10818,0.92398
7327.17947,0.91498
7325.25076,0.91356
7323.32205,0.92119
7321.39333,0.93309
7319.46462,0.94001
7317.53591,0.93851
7315.60719,0.93224
7313.67848,0.92248
7311.74977,0.91515
7309.82106,0.91631
7307.89234,0.92145
7305.96363,0.92913
7304.03492,0.93873
7302.10621,0.94097
7300.17749,0.93244
7298.24878,0.92321
7296.32007,0.91958
7294.39136,0.91802
7292.46264,0.91833
7290.53393,0.92172
7288.60522,0.92552
7286.67650,0.92705
7284.74779,0.92420
7282.81908,0.91782
7280.89037,0.91473
7278.96165,0.91925
7277.03294,0.92774
7275.10423,0.93374
7273.17552,0.93421
7271.24680,0.93371
7269.31809,0.93492
7267.38938,0.93359
7265.46066,0.92783
7263.53195,0.92038
7261.60324,0.91470
7259.67453,0.91134
7257.74581,0.90804
7255.81710,0.90329
7253.88839,0.90051
7251.95968,0.90573
7250.03096,0.91749
7248.10225,0.92757
7246.17354,0.92750
7244.24483,0.91894
7242.31611,0.91801
7240.38740,0.92603
7238.45869,0.92593
7236.52997,0.91807
7234.60126,0.91172
7232.67255,0.90967
7230.74384,0.91481
7228.81512,0.92125
7226.88641,0.91904
7224.95770,0.91248
7223.02899,0.90843
7221.10027,0.90462
7219.17156,0.90173
7217.24285,0.90524
7215.31414,0.91487
7213.38542,0.92315
7211.45671,0.92374
7209.52800,0.91967
7207.59928,0.91431
7205.67057,0.90651
7203.74186,0.90410
7201.81315,0.91014
7199.88443,0.91267
7197.95572,0.91041
7196.02701,0.90967
7194.09830,0.91170
7192.16958,0.91676
7190.24087,0.92146
7188.31216,0.92170
7186.38344,0.91821
7184.45473,0.91245
7182.52602,0.90779
7180.59731,0.90790
7178.66859,0.91000
7176.73988,0.91224
7174.81117,0.91386
7172.88246,0.90922
7170.95374,0.90104
7169.02503,0.89915
7167.09632,0.90369
7165.16761,0.90684
7163.23889,0.90573
7161.31018,0.90627
7159.38147,0.91138
7157.45275,0.91422
7155.52404,0.91396
7153.59533,0.91599
7151.66662,0.92124
7149.73790,0.92656
7147.80919,0.92727
7145.88048,0.92366
7143.95177,0.92213
7142.02305,0.92360
7140.09434,0.92335
7138.16563,0.91981
7136.23692,0.91742
7134.30820,0.92193
7132.37949,0.93068
7130.45078,0.93423
7128.52206,0.92813
7126.59335,0.91764
7124.66464,0.91225
7122.73593,0.91435
7120.80721,0.91689
7118.87850,0.91572
7116.94979,0.91455
7115.02108,0.91544
7113.09236,0.91859
7111.16365,0.92296
7109.23494,0.92118
7107.30623,0.91255
7105.37751,0.90942
7103.44880,0.91513
7101.52009,0.92020
7099.59137,0.92134
7097.66266,0.92022
7095.73395,0.91776
7093.80524,0.91935
7091.87652,0.92504
7089.94781,0.92557
7088.01910,0.91904
7086.09039,0.91296
7084.16167,0.91058
7082.23296,0.90931
7080.30425,0.91014
7078.37553,0.91446
7076.44682,0.91813
7074.51811,0.91805
7072.58940,0.91498
7070.66068,0.91295
7068.73197,0.91897
7066.80326,0.93138
7064.87455,0.93678
7062.94583,0.93037
7061.01712,0.92196
7059.08841,0.91840
7057.15970,0.91882
7055.23098,0.91954
7053.30227,0.91815
7051.37356,0.91558
7049.44484,0.91455
7047.51613,0.91628
7045.58742,0.91684
7043.65871,0.91425
7041.72999,0.91084
7039.80128,0.90759
7037.87257,0.90895
7035.94386,0.91731
7034.01514,0.92508
7032.08643,0.92829
7030.15772,0.93229
7028.22901,0.93725
7026.30029,0.93674
7024.37158,0.92899
7022.44287,0.91867
7020.51415,0.91352
7018.58544,0.91624
7016.65673,0.91923
7014.72802,0.91610
7012.79930,0.91161
7010.87059,0.91438
7008.94188,0.92264
7007.01317,0.92664
7005.08445,0.92642
7003.15574,0.92816
7001.22703,0.93106
6999.29832,0.93335
6997.36960,0.93474
6995.44089,0.93204
6993.51218,0.92607
6991.58346,0.92273
6989.65475,0.92245
6987.72604,0.92128
6985.79733,0.92007
6983.86861,0.92035
6981.93990,0.91841
6980.01119,0.91328
6978.08248,0.90918
6976.15376,0.90708
6974.22505,0.90652
6972.29634,0.90978
6970.36762,0.91559
6968.43891,0.91817
6966.51020,0.91564
6964.58149,0.91189
6962.65277,0.91118
6960.72406,0.91399
6958.79535,0.91778
6956.86664,0.91905
6954.93792,0.91778
6953.00921,0.91823
6951.08050,0.92052
6949.15179,0.92175
6947.22307,0.92182
6945.29436,0.92208
6943.36565,0.92337
6941.43693,0.92434
6939.50822,0.92304
6937.57951,0.91929
6935.65080,0.91728
6933.72208,0.92149
6931.79337,0.92731
6929.86466,0.92686
6927.93595,0.92017
6926.00723,0.91545
6924.07852,0.91739
6922.14981,0.92135
6920.22110,0.92272
6918.29238,0.92069
6916.36367,0.91821
6914.43496,0.91835
6912.50624,0.92051
6910.57753,0.92475
6908.64882,0.92893
6906.72011,0.93018
6904.79139,0.92919
6902.86268,0.92681
6900.93397,0.92436
6899.00526,0.92325
6897.07654,0.92269
6895.14783,0.92084
6893.21912,0.91894
6891.29040,0.92083
6889.36169,0.92468
6887.43298,0.92522
6885.50427,0.92445
6883.57555,0.92637
6881.64684,0.92774
6879.71813,0.92588
6877.78942,0.92452
6875.86070,0.92577
6873.93199,0.92489
6872.00328,0.92112
6870.07457,0.92210
6868.14585,0.92796
6866.21714,0.93149
6864.28843,0.93177
6862.35971,0.93076
6860.43100,0.92848
6858.50229,0.92584
6856.57358,0.92436
6854.64486,0.92443
6852.71615,0.92590
6850.78744,0.92738
6848.85873,0.92724
6846.93001,0.92568
6845.00130,0.92363
6843.07259,0.92333
6841.14388,0.92627
6839.21516,0.92879
6837.28645,0.92724
6835.35774,0.92513
6833.42902,0.92702
6831.50031,0.93003
6829.57160,0.93119
6827.64289,0.93282
6825.71417,0.93485
6823.78546,0.93387
6821.85675,0.93015
6819.92804,0.92822
6817.99932,0.93015
6816.07061,0.93323
6814.14190,0.93405
6812.21319,0.93243
6810.28447,0.93077
6808.35576,0.92908
6806.42705,0.92661
6804.49833,0.92457
6802.56962,0.92115
6800.64091,0.91530
6798.71220,0.91342
6796.78348,0.91881
6794.85477,0.92548
6792.92606,0.92956
6790.99735,0.93165
6789.06863,0.93108
6787.13992,0.92928
6785.21121,0.92801
6783.28249,0.92615
6781.35378,0.92541
6779.42507,0.92737
6777.49636,0.92892
6775.56764,0.92818
6773.63893,0.92554
6771.71022,0.92222
6769.78151,0.92207
6767.85279,0.92635
6765.92408,0.92928
6763.99537,0.92660
6762.06666,0.92243
6760.13794,0.92175
6758.20923,0.92341
6756.28052,0.92499
6754.35180,0.92741
6752.42309,0.93059
6750.49438,0.93151
6748.56567,0.93011
6746.63695,0.92930
6744.70824,0.93003
6742.77953,0.93149
6740.85082,0.93314
6738.92210,0.93448
6736.99339,0.93473
6735.06468,0.93425
6733.13597,0.93332
6731.20725,0.93038
6729.27854,0.92696
6727.34983,0.92771
6725.42111,0.93132
6723.49240,0.93184
6721.56369,0.92972
6719.63498,0.92930
6717.70626,0.93030
6715.77755,0.93144
6713.84884,0.93251
6711.92013,0.93177
6709.99141,0.92980
6708.06270,0.93009
6706.13399,0.93258
6704.20528,0.93405
6702.27656,0.93442
6700.34785,0.93441
6698.41914,0.93359
6696.49042,0.93410
6694.56171,0.93616
6692.63300,0.93654
6690.70429,0.93391
6688.77557,0.93063
6686.84686,0.93225
6684.91815,0.93876
6682.98944,0.94250
6681.06072,0.94139
6679.13201,0.94003
6677.20330,0.94002
6675.27458,0.93906
6673.34587,0.93603
6671.41716,0.93266
6669.48845,0.93036
6667.55973,0.92904
6665.63102,0.92882
6663.70231,0.92972
6661.77360,0.93004
6659.84488,0.93002
6657.91617,0.93113
6655.98746,0.93045
6654.05875,0.92845
6652.13003,0.93085
6650.20132,0.93547
6648.27261,0.93606
6646.34389,0.93472
6644.41518,0.93634
6642.48647,0.93782
6640.55776,0.93352
6638.62904,0.92574
6636.70033,0.92152
6634.77162,0.92248
6632.84291,0.92477
6630.91419,0.92671
6628.98548,0.92745
6627.05677,0.92531
6625.12806,0.92354
6623.19934,0.92530
6621.27063,0.92736
6619.34192,0.92838
6617.41320,0.93163
6615.48449,0.93729
6613.55578,0.94332
6611.62707,0.94698
6609.69835,0.94433
6607.76964,0.93854
6605.84093,0.93658
6603.91222,0.93663
6601.98350,0.93367
6600.05479,0.92939
6598.12608,0.92710
6596.19736,0.92752
6594.26865,0.93002
6592.33994,0.93152
6590.41123,0.92943
6588.48251,0.92539
6586.55380,0.92317
6584.62509,0.92503
6582.69638,0.92974
6580.76766,0.93431
6578.83895,0.93642
6576.91024,0.93642
6574.98153,0.93646
6573.05281,0.93572
6571.12410,0.93237
6569.19539,0.92767
6567.26667,0.92599
6565.33796,0.92997
6563.40925,0.93420
6561.48054,0.93308
6559.55182,0.92998
6557.62311,0.92886
6555.69440,0.92735
6553.76569,0.92410
6551.83697,0.92373
6549.90826,0.92826
6547.97955,0.93211
6546.05084,0.93266
6544.12212,0.93279
6542.19341,0.93202
6540.26470,0.92995
6538.33598,0.93044
6536.40727,0.93486
6534.47856,0.93978
6532.54985,0.94033
6530.62113,0.93603
6528.69242,0.93228
6526.76371,0.93116
6524.83500,0.93001
6522.90628,0.93074
6520.97757,0.93378
6519.04886,0.93233
6517.12015,0.92630
6515.19143,0.92386
6513.26272,0.92743
6511.33401,0.93142
6509.40529,0.93170
6507.47658,0.93137
6505.54787,0.93327
6503.61916,0.93473
6501.69044,0.93401
6499.76173,0.93351
6497.83302,0.93393
6495.90431,0.93251
6493.97559,0.92880
6492.04688,0.92513
6490.11817,0.92452
6488.18945,0.92840
6486.26074,0.93155
6484.33203,0.92869
6482.40332,0.92427
6480.47460,0.92431
6478.54589,0.92795
6476.61718,0.93178
6474.68847,0.93372
6472.75975,0.93392
6470.83104,0.93304
6468.90233,0.93154
6466.97362,0.93166
6465.04490,0.93317
6463.11619,0.93448
6461.18748,0.93659
6459.25876,0.93825
6457.33005,0.93688
6455.40134,0.93307
6453.47263,0.92893
6451.54391,0.92567
6449.61520,0.92362
6447.68649,0.92325
6445.75778,0.92499
6443.82906,0.92769
6441.90035,0.92946
6439.97164,0.93144
6438.04293,0.93436
6436.11421,0.93585
6434.18550,0.93568
6432.25679,0.93573
6430.32807,0.93704
6428.39936,0.93984
6426.47065,0.94264
6424.54194,0.94245
6422.61322,0.93909
6420.68451,0.93522
6418.75580,0.93166
6416.82709,0.92904
6414.89837,0.92880
6412.96966,0.93055
6411.04095,0.93261
6409.11224,0.93335
6407.18352,0.93233
6405.25481,0.93104
6403.32610,0.93114
6401.39738,0.93199
6399.46867,0.93297
6397.53996,0.93498
6395.61125,0.93622
6393.68253,0.93474
6391.75382,0.93399
6389.82511,0.93655
6387.89640,0.93826
6385.96768,0.93544
6384.03897,0.93113
6382.11026,0.92857
6380.18154,0.92703
6378.25283,0.92658
6376.32412,0.92723
6374.39541,0.92772
6372.46669,0.92878
6370.53798,0.93173
6368.60927,0.93576
6366.68056,0.93738
6364.75184,0.93598
6362.82313,0.93626
6360.89442,0.93894
6358.96571,0.94015
6357.03699,0.93903
6355.10828,0.93727
6353.17957,0.93569
6351.25085,0.93373
6349.32214,0.93179
6347.39343,0.93103
6345.46472,0.93019
6343.53600,0.92867
6341.60729,0.92884
6339.67858,0.93066
6337.74987,0.93117
6335.82115,0.92996
6333.89244,0.93023
6331.96373,0.93229
6330.03502,0.93172
6328.10630,0.92982
6326.17759,0.93204
6324.24888,0.93604
6322.32016,0.93741
6320.39145,0.93724
6318.46274,0.93634
6316.53403,0.93386
6314.60531,0.93124
6312.67660,0.93024
6310.74789,0.93015
6308.81918,0.92936
6306.89046,0.92936
6304.96175,0.93252
6303.03304,0.93526
6301.10432,0.93431
6299.17561,0.93277
6297.24690,0.93262
6295.31819,0.93321
6293.38947,0.93451
6291.46076,0.93586
6289.53205,0.93633
6287.60334,0.93576
6285.67462,0.93423
6283.74591,0.93292
6281.81720,0.93282
6279.88849,0.93215
6277.95977,0.93083
6276.03106,0.93130
6274.10235,0.93258
6272.17363,0.93197
6270.24492,0.93055
6268.31621,0.93012
6266.38750,0.92971
6264.45878,0.92989
6262.53007,0.93125
6260.60136,0.93143
6258.67265,0.93193
6256.74393,0.93539
6254.81522,0.93814
6252.88651,0.93784
6250.95780,0.93721
6249.02908,0.93807
6247.10037,0.93851
6245.17166,0.93447
6243.24294,0.92837
6241.31423,0.92545
6239.38552,0.92396
6237.45681,0.92340
6235.52809,0.92555
6233.59938,0.92773
6231.67067,0.92867
6229.74196,0.93015
6227.81324,0.93215
6225.88453,0.93399
6223.95582,0.93577
6222.02711,0.93509
6220.09839,0.93139
6218.16968,0.92984
6216.24097,0.93096
6214.31225,0.93041
6212.38354,0.92915
6210.45483,0.92987
6208.52612,0.93155
6206.59740,0.93245
6204.66869,0.93225
6202.73998,0.93169
6200.81127,0.93163
6198.88255,0.93153
6196.95384,0.93044
6195.02513,0.92914
6193.09641,0.92820
6191.16770,0.92751
6189.23899,0.92843
6187.31028,0.93050
6185.38156,0.93144
6183.45285,0.93224
6181.52414,0.93451
6179.59543,0.93684
6177.66671,0.93719
6175.73800,0.93525
6173.80929,0.93220
6171.88058,0.92973
6169.95186,0.92919
6168.02315,0.92982
6166.09444,0.92948
6164.16572,0.92751
6162.23701,0.92657
6160.30830,0.92934
6158.37959,0.93298
6156.45087,0.93400
6154.52216,0.93349
6152.59345,0.93281
6150.66474,0.93226
6148.73602,0.93206
6146.80731,0.93137
6144.87860,0.93086
6142.94989,0.93223
6141.02117,0.93346
6139.09246,0.93174
6137.16375,0.92890
6135.23503,0.92778
6133.30632,0.92887
6131.37761,0.93124
6129.44890,0.93190
6127.52018,0.92913
6125.59147,0.92544
6123.66276,0.92334
6121.73405,0.92524
6119.80533,0.93167
6117.87662,0.93649
6115.94791,0.93606
6114.01919,0.93434
6112.09048,0.93296
6110.16177,0.93075
6108.23306,0.92879
6106.30434,0.92775
6104.37563,0.92727
6102.44692,0.92782
6100.51821,0.92839
6098.58949,0.92763
6096.66078,0.92756
6094.73207,0.92923
6092.80336,0.93017
6090.87464,0.92990
6088.94593,0.93024
6087.01722,0.93125
6085.08850,0.93151
6083.15979,0.93125
6081.23108,0.93213
6079.30237,0.93391
6077.37365,0.93444
6075.44494,0.93256
6073.51623,0.92915
6071.58752,0.92696
6069.65880,0.92696
6067.73009,0.92682
6065.80138,0.92648
6063.87267,0.92775
6061.94395,0.92902
6060.01524,0.92784
6058.08653,0.92523
6056.15781,0.92439
6054.22910,0.92568
6052.30039,0.92648
6050.37168,0.92650
6048.44296,0.92618
6046.51425,0.92452
6044.58554,0.92287
6042.65683,0.92308
6040.72811,0.92370
6038.79940,0.92399
6036.87069,0.92561
6034.94198,0.92759
6033.01326,0.92739
6031.08455,0.92566
6029.15584,0.92473
6027.22712,0.92536
6025.29841,0.92633
6023.36970,0.92599
6021.44099,0.92433
6019.51227,0.92294
6017.58356,0.92282
6015.65485,0.92376
6013.72614,0.92570
6011.79742,0.92702
6009.86871,0.92562
6007.94000,0.92349
6006.01128,0.92262
6004.08257,0.92192
6002.15386,0.92128
6000.22515,0.92205
5998.29643,0.92390
5996.36772,0.92480
5994.43901,0.92412
5992.51030,0.92294
5990.58158,0.92225
5988.65287,0.92271
5986.72416,0.92342
5984.79545,0.92223
5982.86673,0.91965
5980.93802,0.91862
5979.00931,0.91944
5977.08059,0.91979
5975.15188,0.91985
5973.22317,0.92061
5971.29446,0.92091
5969.36574,0.92122
5967.43703,0.92233
5965.50832,0.92279
5963.57961,0.92254
5961.65089,0.92233
5959.72218,0.92178
5957.79347,0.92118
5955.86476,0.92124
5953.93604,0.92045
5952.00733,0.91773
5950.07862,0.91631
5948.14990,0.91755
5946.22119,0.91848
5944.29248,0.91868
5942.36377,0.91949
5940.43505,0.92007
5938.50634,0.91973
5936.57763,0.91924
5934.64892,0.91876
5932.72020,0.91757
5930.79149,0.91558
5928.86278,0.91394
5926.93407,0.91335
5925.00535,0.91420
5923.07664,0.91657
5921.14793,0.91727
5919.21921,0.91530
5917.29050,0.91458
5915.36179,0.91507
5913.43308,0.91420
5911.50436,0.91254
5909.57565,0.91152
5907.64694,0.91111
5905.71823,0.91044
5903.78951,0.90998
5901.86080,0.90992
5899.93209,0.90914
5898.00337,0.90848
5896.07466,0.90944
5894.14595,0.91022
5892.21724,0.90856
5890.28852,0.90627
5888.35981,0.90610
5886.43110,0.90714
5884.50239,0.90697
5882.57367,0.90567
5880.64496,0.90508
5878.71625,0.90611
5876.78754,0.90819
5874.85882,0.90931
5872.93011,0.90754
5871.00140,0.90332
5869.07268,0.89894
5867.14397,0.89568
5865.21526,0.89317
5863.28655,0.89142
5861.35783,0.89033
5859.42912,0.88908
5857.50041,0.88759
5855.57170,0.88611
5853.64298,0.88462
5851.71427,0.88290
5849.78556,0.88087
5847.85685,0.87931
5845.92813,0.87869
5843.99942,0.87825
5842.07071,0.87725
5840.14199,0.87577
5838.21328,0.87384
5836.28457,0.87177
5834.35586,0.87068
5832.42714,0.86978
5830.49843,0.86723
5828.56972,0.86328
5826.64101,0.85840
5824.71229,0.85315
5822.78358,0.84865
5820.85487,0.84554
5818.92615,0.84478
5816.99744,0.84485
5815.06873,0.84315
5813.14002,0.84110
5811.21130,0.84032
5809.28259,0.83928
5807.35388,0.83728
5805.42517,0.83576
5803.49645,0.83437
5801.56774,0.83120
5799.63903,0.82605
5797.71032,0.82019
5795.78160,0.81525
5793.85289,0.81156
5791.92418,0.80736
5789.99546,0.80171
5788.06675,0.79546
5786.13804,0.78994
5784.20933,0.78538
5782.28061,0.78033
5780.35190,0.77379
5778.42319,0.76689
5776.49448,0.76239
5774.56576,0.76302
5772.63705,0.76838
5770.70834,0.77592
5768.77963,0.78472
5766.85091,0.79417
5764.92220,0.80335
5762.99349,0.81203
5761.06477,0.81940
5759.13606,0.82569
5757.20735,0.83246
5755.27864,0.83976
5753.34992,0.84554
5751.42121,0.84872
5749.49250,0.85167
5747.56379,0.85586
5745.63507,0.86015
5743.70636,0.86431
5741.77765,0.86766
5739.84894,0.86924
5737.92022,0.86971
5735.99151,0.87005
5734.06280,0.87041
5732.13408,0.87127
5730.20537,0.87328
5728.27666,0.87488
5726.34795,0.87518
5724.41923,0.87643
5722.49052,0.87906
5720.56181,0.88099
5718.63310,0.88128
5716.70438,0.88081
5714.77567,0.88041
5712.84696,0.88026
5710.91824,0.88083
5708.98953,0.88172
5707.06082,0.88152
5705.13211,0.88012
5703.20339,0.87869
5701.27468,0.87807
5699.34597,0.87836
5697.41726,0.87855
5695.48854,0.87738
5693.55983,0.87488
5691.63112,0.87180
5689.70241,0.86856
5687.77369,0.86560
5685.84498,0.86375
5683.91627,0.86260
5681.98755,0.86125
5680.05884,0.86013
5678.13013,0.85891
5676.20142,0.85716
5674.27270,0.85516
5672.34399,0.85252
5670.41528,0.84980
5668.48657,0.84777
5666.55785,0.84612
5664.62914,0.84516
5662.70043,0.84541
5660.77172,0.84707
5658.84300,0.85016
5656.91429,0.85376
5654.98558,0.85699
5653.05686,0.86040
5651.12815,0.86440
5649.19944,0.86786
5647.27073,0.86999
5645.34201,0.87209
5643.41330,0.87555
5641.48459,0.87905
5639.55588,0.88046
5637.62716,0.87986
5635.69845,0.87883
5633.76974,0.87901
5631.84103,0.88145
5629.91231,0.88516
5627.98360,0.88675
5626.05489,0.88549
5624.12617,0.88467
5622.19746,0.88524
5620.26875,0.88594
5618.34004,0.88685
5616.41132,0.88818
5614.48261,0.88985
5612.55390,0.89162
5610.62519,0.89237
5608.69647,0.89217
5606.76776,0.89226
5604.83905,0.89251
5602.91033,0.89253
5600.98162,0.89235
5599.05291,0.89224
5597.12420,0.89313
5595.19548,0.89538
5593.26677,0.89779
5591.33806,0.89805
5589.40935,0.89571
5587.48063,0.89341
5585.55192,0.89238
5583.62321,0.89141
5581.69450,0.89026
5579.76578,0.88992
5577.83707,0.88980
5575.90836,0.88937
5573.97964,0.88993
5572.05093,0.89148
5570.12222,0.89281
5568.19351,0.89325
5566.26479,0.89326
5564.33608,0.89371
5562.40737,0.89382
5560.47866,0.89284
5558.54994,0.89150
5556.62123,0.89016
5554.69252,0.88878
5552.76381,0.88774
5550.83509,0.88678
5548.90638,0.88586
5546.97767,0.88715
5545.04895,0.89021
5543.12024,0.89102
5541.19153,0.88885
5539.26282,0.88678
5537.33410,0.88740
5535.40539,0.89040
5533.47668,0.89320
5531.54797,0.89426
5529.61925,0.89350
5527.69054,0.89182
5525.76183,0.89095
5523.83311,0.89093
5521.90440,0.89058
5519.97569,0.89019
5518.04698,0.89015
5516.11826,0.89043
5514.18955,0.89131
5512.26084,0.89174
5510.33213,0.89003
5508.40341,0.88680
5506.47470,0.88501
5504.54599,0.88587
5502.61728,0.88743
5500.68856,0.88828
5498.75985,0.88939
5496.83114,0.89012
5494.90242,0.88743
5492.97371,0.88383
5491.04500,0.88460
5489.11629,0.88720
5487.18757,0.88894
5485.25886,0.89096
5483.33015,0.89210
5481.40144,0.89142
5479.47272,0.88885
5477.54401,0.88372
5475.61530,0.88035
5473.68659,0.88385
5471.75787,0.88816
5469.82916,0.88793
5467.90045,0.88689
5465.97173,0.88806
5464.04302,0.88898
5462.11431,0.88821
5460.18560,0.88822
5458.25688,0.89051
5456.32817,0.89370
5454.39946,0.89604
5452.47075,0.89547
5450.54203,0.89195
5448.61332,0.88760
5446.68461,0.88334
5444.75590,0.88047
5442.82718,0.87980
5440.89847,0.88188
5438.96976,0.88691
5437.04104,0.88946
5435.11233,0.88729
5433.18362,0.88531
5431.25491,0.88324
5429.32619,0.88076
5427.39748,0.88414
5425.46877,0.89166
5423.54006,0.89697
5421.61134,0.89979
5419.68263,0.90093
5417.75392,0.89833
5415.82520,0.89060
5413.89649,0.88163
5411.96778,0.87809
5410.03907,0.88188
5408.11035,0.88941
5406.18164,0.89503
5404.25293,0.89715
5402.32422,0.89794
5400.39550,0.89767
5398.46679,0.89524
5396.53808,0.89166
5394.60937,0.89055
5392.68065,0.89446
5390.75194,0.89980
5388.82323,0.90117
5386.89451,0.89858
5384.96580,0.89784
5383.03709,0.90152
5381.10838,0.90392
5379.17966,0.90016
5377.25095,0.89348
5375.32224,0.89258
5373.39353,0.89801
5371.46481,0.90298
5369.53610,0.90418
5367.60739,0.90213
5365.67868,0.89895
5363.74996,0.89755
5361.82125,0.89897
5359.89254,0.90115
5357.96382,0.90163
5356.03511,0.89821
5354.10640,0.89319
5352.17769,0.89311
5350.24897,0.89621
5348.32026,0.89653
5346.39155,0.89317
5344.46284,0.89112
5342.53412,0.89380
5340.60541,0.89386
5338.67670,0.88928
5336.74799,0.88977
5334.81927,0.89531
5332.89056,0.89829
5330.96185,0.89810
5329.03313,0.89656
5327.10442,0.89717
5325.17571,0.90231
5323.24700,0.90776
5321.31828,0.91052
5319.38957,0.91092
5317.46086,0.90974
5315.53215,0.90890
5313.60343,0.90947
5311.67472,0.90929
5309.74601,0.90582
5307.81729,0.90239
5305.88858,0.90378
5303.95987,0.90678
5302.03116,0.90723
5300.10244,0.90636
5298.17373,0.90643
5296.24502,0.90731
5294.31631,0.90668
5292.38759,0.90288
5290.45888,0.89977
5288.53017,0.90142
5286.60146,0.90383
5284.67274,0.90442
5282.74403,0.90558
5280.81532,0.90775
5278.88660,0.91008
5276.95789,0.91187
5275.02918,0.91218
5273.10047,0.91059
5271.17175,0.90720
5269.24304,0.90357
5267.31433,0.90009
5265.38562,0.89539
5263.45690,0.89255
5261.52819,0.89568
5259.59948,0.90086
5257.67077,0.90234
5255.74205,0.90071
5253.81334,0.90168
5251.88463,0.90421
5249.95591,0.90209
5248.02720,0.89762
5246.09849,0.89678
5244.16978,0.90015
5242.24106,0.90574
5240.31235,0.90988
5238.38364,0.91075
5236.45493,0.90963
5234.52621,0.90701
5232.59750,0.90359
5230.66879,0.90177
5228.74007,0.90079
5226.81136,0.89792
5224.88265,0.89599
5222.95394,0.89821
5221.02522,0.90066
5219.09651,0.90131
5217.16780,0.90326
5215.23909,0.90720
5213.31037,0.90969
5211.38166,0.90778
5209.45295,0.90161
5207.52424,0.89614
5205.59552,0.89771
5203.66681,0.90433
5201.73810,0.90898
5199.80938,0.90841
5197.88067,0.90532
5195.95196,0.90532
5194.02325,0.90806
5192.09453,0.90851
5190.16582,0.90649
5188.23711,0.90510
5186.30840,0.90456
5184.37968,0.90486
5182.45097,0.90691
5180.52226,0.90945
5178.59355,0.91115
5176.66483,0.91181
5174.73612,0.91170
5172.80741,0.91167
5170.87869,0.91245
5168.94998,0.91379
5167.02127,0.91341
5165.09256,0.91052
5163.16384,0.90829
5161.23513,0.90826
5159.30642,0.90817
5157.37771,0.90727
5155.44899,0.90747
5153.52028,0.90908
5151.59157,0.91023
5149.66286,0.91059
5147.73414,0.91114
5145.80543,0.91177
5143.87672,0.91163
5141.94800,0.91120
5140.01929,0.91179
5138.09058,0.91265
5136.16187,0.91223
5134.23315,0.91124
5132.30444,0.91135
5130.37573,0.91264
5128.44702,0.91368
5126.51830,0.91358
5124.58959,0.91288
5122.66088,0.91211
5120.73216,0.91082
5118.80345,0.90902
5116.87474,0.90862
5114.94603,0.91029
5113.01731,0.91189
5111.08860,0.91251
5109.15989,0.91357
5107.23118,0.91487
5105.30246,0.91520
5103.37375,0.91507
5101.44504,0.91492
5099.51633,0.91420
5097.58761,0.91305
5095.65890,0.91215
5093.73019,0.91170
5091.80147,0.91157
5089.87276,0.91166
5087.94405,0.91205
5086.01534,0.91285
5084.08662,0.91325
5082.15791,0.91261
5080.22920,0.91199
5078.30049,0.91264
5076.37177,0.91373
5074.44306,0.91403
5072.51435,0.91483
5070.58564,0.91694
5068.65692,0.91788
5066.72821,0.91663
5064.79950,0.91523
5062.87078,0.91475
5060.94207,0.91477
5059.01336,0.91480
5057.08465,0.91460
5055.15593,0.91408
5053.22722,0.91330
5051.29851,0.91278
5049.36980,0.91285
5047.44108,0.91306
5045.51237,0.91308
5043.58366,0.91320
5041.65495,0.91395
5039.72623,0.91529
5037.79752,0.91646
5035.86881,0.91680
5033.94009,0.91654
5032.01138,0.91659
5030.08267,0.91684
5028.15396,0.91638
5026.22524,0.91555
5024.29653,0.91519
5022.36782,0.91550
5020.43911,0.91578
5018.51039,0.91554
5016.58168,0.91522
5014.65297,0.91492
5012.72425,0.91432
5010.79554,0.91342
5008.86683,0.91272
5006.93812,0.91274
5005.00940,0.91305
5003.08069,0.91371
5001.15198,0.91506
4999.22327,0.91599
4997.29455,0.91560
4995.36584,0.91476
4993.43713,0.91436
4991.50842,0.91409
4989.57970,0.91380
4987.65099,0.91332
4985.72228,0.91248
4983.79356,0.91183
4981.86485,0.91145
4979.93614,0.91042
4978.00743,0.90894
4976.07871,0.90850
4974.15000,0.90968
4972.22129,0.91167
4970.29258,0.91299
4968.36386,0.91284
4966.43515,0.91215
4964.50644,0.91214
4962.57773,0.91305
4960.64901,0.91398
4958.72030,0.91438
4956.79159,0.91476
4954.86287,0.91467
4952.93416,0.91341
4951.00545,0.91208
4949.07674,0.91223
4947.14802,0.91349
4945.21931,0.91405
4943.29060,0.91346
4941.36189,0.91252
4939.43317,0.91202
4937.50446,0.91242
4935.57575,0.91344
4933.64703,0.91503
4931.71832,0.91685
4929.78961,0.91784
4927.86090,0.91790
4925.93218,0.91760
4924.00347,0.91730
4922.07476,0.91704
4920.14605,0.91660
4918.21733,0.91616
4916.28862,0.91609
4914.35991,0.91616
4912.43120,0.91600
4910.50248,0.91547
4908.57377,0.91474
4906.64506,0.91423
4904.71634,0.91399
4902.78763,0.91400
4900.85892,0.91439
4898.93021,0.91523
4897.00149,0.91658
4895.07278,0.91782
4893.14407,0.91783
4891.21536,0.91679
4889.28664,0.91593
4887.35793,0.91537
4885.42922,0.91468
4883.50051,0.91441
4881.57179,0.91424
4879.64308,0.91336
4877.71437,0.91262
4875.78565,0.91242
4873.85694,0.91217
4871.92823,0.91211
4869.99952,0.91249
4868.07080,0.91322
4866.14209,0.91434
4864.21338,0.91556
4862.28467,0.91612
4860.35595,0.91595
4858.42724,0.91592
4856.49853,0.91630
4854.56982,0.91659
4852.64110,0.91656
4850.71239,0.91623
4848.78368,0.91584
4846.85496,0.91549
4844.92625,0.91520
4842.99754,0.91508
4841.06883,0.91527
4839.14011,0.91540
4837.21140,0.91533
4835.28269,0.91575
4833.35398,0.91673
4831.42526,0.91786
4829.49655,0.91875
4827.56784,0.91903
4825.63912,0.91919
4823.71041,0.91968
4821.78170,0.92004
4819.85299,0.91990
4817.92427,0.91946
4815.99556,0.91909
4814.06685,0.91880
4812.13814,0.91836
4810.20942,0.91791
4808.28071,0.91791
4806.35200,0.91823
4804.42329,0.91835
4802.49457,0.91808
4800.56586,0.91763
4798.63715,0.91765
4796.70843,0.91819
4794.77972,0.91883
4792.85101,0.91975
4790.92230,0.92073
4788.99358,0.92107
4787.06487,0.92084
4785.13616,0.92057
4783.20745,0.92035
4781.27873,0.92000
4779.35002,0.91996
4777.42131,0.92018
4775.49260,0.92000
4773.56388,0.91955
4771.63517,0.91940
4769.70646,0.91935
4767.77774,0.91925
4765.84903,0.91938
4763.92032,0.91981
4761.99161,0.92049
4760.06289,0.92114
4758.13418,0.92156
4756.20547,0.92196
4754.27676,0.92227
4752.34804,0.92241
4750.41933,0.92230
4748.49062,0.92155
4746.56191,0.92078
4744.63319,0.92078
4742.70448,0.92078
4740.77577,0.92022
4738.84705,0.91965
4736.91834,0.91923
4734.98963,0.91880
4733.06092,0.91858
4731.13220,0.91887
4729.20349,0.91961
4727.27478,0.92050
4725.34607,0.92112
4723.41735,0.92148
4721.48864,0.92201
4719.55993,0.92271
4717.63121,0.92330
4715.70250,0.92357
4713.77379,0.92329
4711.84508,0.92287
4709.91636,0.92243
4707.98765,0.92144
4706.05894,0.92043
4704.13023,0.92025
4702.20151,0.92046
4700.27280,0.92015
4698.34409,0.91962
4696.41538,0.92003
4694.48666,0.92088
4692.55795,0.92104
4690.62924,0.92105
4688.70052,0.92161
4686.77181,0.92231
4684.84310,0.92253
4682.91439,0.92239
4680.98567,0.92234
4679.05696,0.92228
4677.12825,0.92179
4675.19954,0.92106
4673.27082,0.92061
4671.34211,0.92024
4669.41340,0.91972
4667.48469,0.91951
4665.55597,0.91960
4663.62726,0.91966
4661.69855,0.91962
4659.76983,0.91981
4657.84112,0.92059
4655.91241,0.92161
4653.98370,0.92216
4652.05498,0.92223
4650.12627,0.92237
4648.19756,0.92253
4646.26885,0.92240
4644.34013,0.92244
4642.41142,0.92278
4640.48271,0.92250
4638.55399,0.92150
4636.62528,0.92085
4634.69657,0.92098
4632.76786,0.92109
4630.83914,0.92052
4628.91043,0.91980
4626.98172,0.91971
4625.05301,0.92002
4623.12429,0.92019
4621.19558,0.92032
4619.26687,0.92080
4617.33816,0.92152
4615.40944,0.92197
4613.48073,0.92206
4611.55202,0.92204
4609.62330,0.92232
4607.69459,0.92279
4605.76588,0.92248
4603.83717,0.92106
4601.90845,0.91965
4599.97974,0.91935
4598.05103,0.91993
4596.12232,0.92045
4594.19360,0.92028
4592.26489,0.91965
4590.33618,0.91939
4588.40747,0.91977
4586.47875,0.92039
4584.55004,0.92109
4582.62133,0.92213
4580.69261,0.92313
4578.76390,0.92339
4576.83519,0.92297
4574.90648,0.92217
4572.97776,0.92120
4571.04905,0.92030
4569.12034,0.91966
4567.19163,0.91937
4565.26291,0.91927
4563.33420,0.91907
4561.40549,0.91893
4559.47678,0.91909
4557.54806,0.91926
4555.61935,0.91916
4553.69064,0.91878
4551.76192,0.91856
4549.83321,0.91890
4547.90450,0.91919
4545.97579,0.91891
4544.04707,0.91852
4542.11836,0.91848
4540.18965,0.91873
4538.26094,0.91875
4536.33222,0.91816
4534.40351,0.91716
4532.47480,0.91634
4530.54608,0.91626
4528.61737,0.91660
4526.68866,0.91658
4524.75995,0.91593
4522.83123,0.91501
4520.90252,0.91451
4518.97381,0.91461
4517.04510,0.91481
4515.11638,0.91481
4513.18767,0.91492
4511.25896,0.91528
4509.33025,0.91523
4507.40153,0.91448
4505.47282,0.91394
4503.54411,0.91384
4501.61539,0.91326
4499.68668,0.91196
4497.75797,0.91094
4495.82926,0.91089
4493.90054,0.91092
4491.97183,0.91012
4490.04312,0.90925
4488.11441,0.90903
4486.18569,0.90891
4484.25698,0.90850
4482.32827,0.90816
4480.39956,0.90813
4478.47084,0.90827
4476.54213,0.90812
4474.61342,0.90739
4472.68470,0.90643
4470.75599,0.90564
4468.82728,0.90502
4466.89857,0.90457
4464.96985,0.90385
4463.04114,0.90247
4461.11243,0.90108
4459.18372,0.90027
4457.25500,0.89999
4455.32629,0.90002
4453.39758,0.89956
4451.46886,0.89837
4449.54015,0.89721
4447.61144,0.89665
4445.68273,0.89661
4443.75401,0.89606
4441.82530,0.89461
4439.89659,0.89317
4437.96788,0.89242
4436.03916,0.89166
4434.11045,0.88990
4432.18174,0.88777
4430.25303,0.88640
4428.32431,0.88508
4426.39560,0.88288
4424.46689,0.88044
4422.53817,0.87843
4420.60946,0.87657
4418.68075,0.87459
4416.75204,0.87250
4414.82332,0.87024
4412.89461,0.86760
4410.96590,0.86445
4409.03719,0.86116
4407.10847,0.85816
4405.17976,0.85499
4403.25105,0.85117
4401.32234,0.84704
4399.39362,0.84278
4397.46491,0.83824
4395.53620,0.83336
4393.60748,0.82846
4391.67877,0.82379
4389.75006,0.81932
4387.82135,0.81509
4385.89263,0.81104
4383.96392,0.80694
4382.03521,0.80260
4380.10650,0.79806
4378.17778,0.79364
4376.24907,0.78930
4374.32036,0.78472
4372.39165,0.77981
4370.46293,0.77457
4368.53422,0.76926
4366.60551,0.76390
4364.67679,0.75807
4362.74808,0.75169
4360.81937,0.74466
4358.89066,0.73632
4356.96194,0.72613
4355.03323,0.71405
4353.10452,0.70030
4351.17581,0.68474
4349.24709,0.66698
4347.31838,0.64727
4345.38967,0.62643
4343.46095,0.60547
4341.53224,0.58558
4339.60353,0.56745
4337.67482,0.55060
4335.74610,0.53380
4333.81739,0.51560
4331.88868,0.49439
4329.95997,0.46850
4328.03125,0.43681
4326.10254,0.40109
4324.17383,0.36974
4322.24512,0.35801
4320.31640,0.37874
4318.38769,0.42963
4316.45898,0.49428
4314.53026,0.55577
4312.60155,0.60586
4310.67284,0.64388
4308.74413,0.67208
4306.81541,0.69286
4304.88670,0.70789
4302.95799,0.71824
4301.02928,0.72516
4299.10056,0.72993
4297.17185,0.73277
4295.24314,0.73318
4293.31443,0.73159
4291.38571,0.72895
4289.45700,0.72572
4287.52829,0.72197
4285.59957,0.71814
4283.67086,0.71437
4281.74215,0.71037
4279.81344,0.70641
4277.88472,0.70238
4275.95601,0.69746
4274.02730,0.69138
4272.09859,0.68397
4270.16987,0.67443
4268.24116,0.66224
4266.31245,0.64737
4264.38374,0.62926
4262.45502,0.60736
4260.52631,0.58227
4258.59760,0.55527
4256.66888,0.52758
4254.74017,0.50172
4252.81146,0.48381
4250.88275,0.48253
4248.95403,0.50259
4247.02532,0.53871
4245.09661,0.57877
4243.16790,0.61258
4241.23918,0.63654
4239.31047,0.65232
4237.38176,0.66252
4235.45304,0.66817
4233.52433,0.66923
4231.59562,0.66622
4229.66691,0.66061
4227.73819,0.65361
4225.80948,0.64597
4223.88077,0.63886
4221.95206,0.63363
4220.02334,0.63105
4218.09463,0.63127
4216.16592,0.63351
4214.23721,0.63591
4212.30849,0.63723
4210.37978,0.63736
4208.45107,0.63604
4206.52235,0.63274
4204.59364,0.62713
4202.66493,0.61914
4200.73622,0.60923
4198.80750,0.59885
4196.87879,0.59002
4194.95008,0.58412
4193.02137,0.58128
4191.09265,0.58072
4189.16394,0.58137
4187.23523,0.58243
4185.30652,0.58348
4183.37780,0.58450
4181.44909,0.58541
4179.52038,0.58597
4177.59166,0.58624
4175.66295,0.58658
4173.73424,0.58728
4171.80553,0.58841
4169.87681,0.58976
4167.94810,0.59115
4166.01939,0.59230
4164.09068,0.59312
4162.16196,0.59394
4160.23325,0.59456
4158.30454,0.59489
4156.37582,0.59536
4154.44711,0.59579
4152.51840,0.59587
4150.58969,0.59619
4148.66097,0.59710
4146.73226,0.59798
4144.80355,0.59880
4142.87484,0.59994
4140.94612,0.60103
4139.01741,0.60217
4137.08870,0.60384
4135.15999,0.60568
4133.23127,0.60729
4131.30256,0.60898
4129.37385,0.61065
4127.44513,0.61181
4125.51642,0.61279
4123.58771,0.61398
4121.65900,0.61498
4119.73028,0.61537
4117.80157,0.61532
4115.87286,0.61509
4113.94415,0.61487
4112.01543,0.61472
4110.08672,0.61427
4108.15801,0.61325
4106.22930,0.61218
4104.30058,0.61169
4102.37187,0.61147
4100.44316,0.61116
4098.51444,0.61162
4096.58573,0.61379
4094.65702,0.61772
4092.72831,0.62349
4090.79959,0.63114
4088.87088,0.64016
4086.94217,0.64991
4085.01346,0.65925
4083.08474,0.66706
4081.15603,0.67326
4079.22732,0.67832
4077.29861,0.68264
4075.36989,0.68645
4073.44118,0.68972
4071.51247,0.69259
4069.58375,0.69531
4067.65504,0.69820
4065.72633,0.70128
4063.79762,0.70427
4061.86890,0.70711
4059.94019,0.71014
4058.01148,0.71327
4056.08277,0.71625
4054.15405,0.71924
4052.22534,0.72221
4050.29663,0.72476
4048.36791,0.72674
4046.43920,0.72826
4044.51049,0.73007
4042.58178,0.73278
4040.65306,0.73559
4038.72435,0.73764
4036.79564,0.73900
4034.86693,0.73970
4032.93821,0.73965
4031.00950,0.73907
4029.08079,0.73818
4027.15208,0.73724
4025.22336,0.73704
4023.29465,0.73801
4021.36594,0.73997
4019.43722,0.74387
4017.50851,0.75088
4015.57980,0.75952
4013.65109,0.76703
4011.72237,0.77199
4009.79366,0.77486
4007.86495,0.77708
4005.93624,0.77939
4004.00752,0.78113
4002.07881,0.78180
4000.15010,0.78192
3998.22139,0.78156
3996.29267,0.78062
3994.36396,0.77972
3992.43525,0.77925
3990.50653,0.77947
3988.57782,0.78060
3986.64911,0.78152
3984.72040,0.78134
3982.79168,0.78090
3980.86297,0.78106
3978.93426,0.78120
3977.00555,0.78046
3975.07683,0.77977
3973.14812,0.78070
3971.21941,0.78277
3969.29070,0.78475
3967.36198,0.78640
3965.43327,0.78720
3963.50456,0.78651
3961.57584,0.78575
3959.64713,0.78637
3957.71842,0.78726
3955.78971,0.78750
3953.86099,0.78699
3951.93228,0.78501
3950.00357,0.78219
3948.07486,0.78159
3946.14614,0.78255
3944.21743,0.78169
3942.28872,0.78148
3940.36000,0.78401
3938.43129,0.78538
3936.50258,0.78307
3934.57387,0.77674
3932.64515,0.76837
3930.71644,0.76404
3928.78773,0.76492
3926.85902,0.76443
3924.93030,0.76136
3923.00159,0.76111
3921.07288,0.76240
3919.14417,0.76093
3917.21545,0.76037
3915.28674,0.76506
3913.35803,0.77107
3911.42931,0.77431
3909.50060,0.77360
3907.57189,0.76706
3905.64318,0.75476
3903.71446,0.74447
3901.78575,0.74376
3899.85704,0.74980
3897.92833,0.75871
3895.99961,0.76443
3894.07090,0.76233
3892.14219,0.75746
3890.21348,0.75936
3888.28476,0.76207
3886.35605,0.75862
3884.42734,0.75476
3882.49862,0.75464
3880.56991,0.75832
3878.64120,0.76603
3876.71249,0.76874
3874.78377,0.76282
3872.85506,0.75419
3870.92635,0.74990
3868.99764,0.75391
3867.06892,0.75869
3865.14021,0.75760
3863.21150,0.75997
3861.28278,0.76958
3859.35407,0.77437
3857.42536,0.76890
3855.49665,0.75535
3853.56793,0.74367
3851.63922,0.75388
3849.71051,0.77144
3847.78180,0.78179
3845.85308,0.78241
3843.92437,0.77493
3841.99566,0.76393
3840.06695,0.75343
3838.13823,0.75054
3836.20952,0.75902
3834.28081,0.76881
3832.35209,0.77513
3830.42338,0.77882
3828.49467,0.77898
3826.56596,0.77629
3824.63724,0.77149
3822.70853,0.76153
3820.77982,0.75244
3818.85111,0.75534
3816.92239,0.76295
3814.99368,0.77455
3813.06497,0.78664
3811.13626,0.79164
3809.20754,0.78835
3807.27883,0.78226
3805.35012,0.78014
3803.42140,0.77661
3801.49269,0.77316
3799.56398,0.77943
3797.63527,0.78872
3795.70655,0.79892
3793.77784,0.80899
3791.84913,0.81430
3789.92042,0.81513
3787.99170,0.81257
3786.06299,0.80831
3784.13428,0.80712
3782.20557,0.80764
3780.27685,0.80629
3778.34814,0.80894
3776.41943,0.81653
3774.49071,0.82049
3772.56200,0.81698
3770.63329,0.80949
3768.70458,0.80617
3766.77586,0.80792
3764.84715,0.81143
3762.91844,0.81346
3760.98973,0.80904
3759.06101,0.80162
3757.13230,0.79946
3755.20359,0.79723
3753.27487,0.78618
3751.34616,0.76960
3749.41745,0.76641
3747.48874,0.77238
3745.56002,0.77666
3743.63131,0.78277
3741.70260,0.78757
3739.77389,0.78550
3737.84517,0.77515
3735.91646,0.76152
3733.98775,0.76102
3732.05904,0.77433
3730.13032,0.78534
3728.20161,0.78720
3726.27290,0.78279
3724.34418,0.78026
3722.41547,0.78422
3720.48676,0.79303
3718.55805,0.80264
3716.62933,0.80753
3714.70062,0.80257
3712.77191,0.78654
3710.84320,0.77445
3708.91448,0.78196
3706.98577,0.79349
3705.05706,0.79764
3703.12835,0.79574
3701.19963,0.79553
3699.27092,0.79962
3697.34221,0.80244
3695.41349,0.80145
3693.48478,0.79489
3691.55607,0.78195
3689.62736,0.77323
3687.69864,0.78272
3685.76993,0.79669
3683.84122,0.80350
3681.91251,0.80196
3679.98379,0.79321
3678.05508,0.78007
3676.12637,0.76860
3674.19766,0.77031
3672.26894,0.77475
3670.34023,0.77619
3668.41152,0.78767
3666.48280,0.80269
3664.55409,0.81006
3662.62538,0.81029
3660.69667,0.80625
3658.76795,0.79891
3656.83924,0.78999
3654.91053,0.78372
3652.98182,0.77505
3651.05310,0.75468
3649.12439,0.73374
3647.19568,0.74215
3645.26696,0.76019
3643.33825,0.77089
3641.40954,0.77643
3639.48083,0.78055
3637.55211,0.78393
3635.62340,0.78518
3633.69469,0.78313
3631.76598,0.77651
3629.83726,0.76591
3627.90855,0.76533
3625.97984,0.77653
3624.05113,0.78246
3622.12241,0.77859
3620.19370,0.76755
3618.26499,0.75895
3616.33627,0.75551
3614.40756,0.74991
3612.47885,0.74238
3610.55014,0.73409
3608.62142,0.72459
3606.69271,0.72012
3604.76400,0.72137
3602.83529,0.72323
3600.90657,0.72907
3598.97786,0.74346
3597.04915,0.76136
3595.12044,0.77902
3593.19172,0.79665
3591.26301,0.80877
3589.33430,0.81113
3587.40558,0.81256
3585.47687,0.82433
3583.54816,0.83746
3581.61945,0.84516
3579.69073,0.84905
3577.76202,0.85123
3575.83331,0.85314
3573.90460,0.85583
3571.97588,0.85689
3570.04717,0.85122
3568.11846,0.83968
3566.18974,0.83732
3564.26103,0.84905
3562.33232,0.86069
3560.40361,0.86830
3558.47489,0.87410
3556.54618,0.87719
3554.61747,0.87564
3552.68876,0.87290
3550.76004,0.87308
3548.83133,0.87185
3546.90262,0.86677
3544.97391,0.86560
3543.04519,0.87213
3541.11648,0.87954
3539.18777,0.88232
3537.25905,0.88144
3535.33034,0.88151
3533.40163,0.88265
3531.47292,0.88101
3529.54420,0.87670
3527.61549,0.87396
3525.68678,0.87405
3523.75807,0.87585
3521.82935,0.87981
3519.90064,0.88409
3517.97193,0.88646
3516.04322,0.88744
3514.11450,0.88680
3512.18579,0.88371
3510.25708,0.88017
3508.32836,0.87912
3506.39965,0.87809
3504.47094,0.87467
3502.54223,0.87403
3500.61351,0.87857
3498.68480,0.88243
3496.75609,0.88352
3494.82738,0.88457
3492.89866,0.88590
3490.96995,0.88571
3489.04124,0.88421
3487.11253,0.88313
3485.18381,0.88209
3483.25510,0.87945
3481.32639,0.87720
3479.39767,0.87792
3477.46896,0.87907
3475.54025,0.87833
3473.61154,0.87725
3471.68282,0.87685
3469.75411,0.87630
3467.82540,0.87555
3465.89669,0.87492
3463.96797,0.87382
3462.03926,0.87303
3460.11055,0.87387
3458.18183,0.87494
3456.25312,0.87478
3454.32441,0.87410
3452.39570,0.87326
3450.46698,0.87090
3448.53827,0.86662
3446.60956,0.86348
3444.68085,0.86322
3442.75213,0.86399
3440.82342,0.86490
3438.89471,0.86534
3436.96600,0.86515
3435.03728,0.86553
3433.10857,0.86646
3431.17986,0.86735
3429.25114,0.86852
3427.32243,0.86971
3425.39372,0.86979
3423.46501,0.86809
3421.53629,0.86609
3419.60758,0.86655
3417.67887,0.86880
3415.75016,0.86995
3413.82144,0.86962
3411.89273,0.86900
3409.96402,0.86839
3408.03531,0.86768
3406.10659,0.86698
3404.17788,0.86663
3402.24917,0.86680
3400.32045,0.86663
3398.39174,0.86576
3396.46303,0.86498
3394.53432,0.86445
3392.60560,0.86462
3390.67689,0.86576
3388.74818,0.86606
3386.81947,0.86481
3384.89075,0.86329
3382.96204,0.86215
3381.03333,0.86106
3379.10462,0.85971
3377.17590,0.85829
3375.24719,0.85718
3373.31848,0.85627
3371.38976,0.85522
3369.46105,0.85459
3367.53234,0.85493
3365.60363,0.85612
3363.67491,0.85798
3361.74620,0.86000
3359.81749,0.86173
3357.88878,0.86313
3355.96006,0.86412
3354.03135,0.86481
3352.10264,0.86561
3350.17392,0.86636
3348.24521,0.86666
3346.31650,0.86685
3344.38779,0.86727
3342.45907,0.86754
3340.53036,0.86744
3338.60165,0.86711
3336.67294,0.86709
3334.74422,0.86799
3332.81551,0.86935
3330.88680,0.87015
3328.95809,0.87020
3327.02937,0.87016
3325.10066,0.87064
3323.17195,0.87161
3321.24323,0.87246
3319.31452,0.87297
3317.38581,0.87329
3315.45710,0.87310
3313.52838,0.87234
3311.59967,0.87141
3309.67096,0.87058
3307.74225,0.87050
3305.81353,0.87137
3303.88482,0.87236
3301.95611,0.87267
3300.02740,0.87235
3298.09868,0.87234
3296.16997,0.87299
3294.24126,0.87355
3292.31254,0.87385
3290.38383,0.87436
3288.45512,0.87481
3286.52641,0.87438
3284.59769,0.87317
3282.66898,0.87228
3280.74027,0.87202
3278.81156,0.87141
3276.88284,0.87000
3274.95413,0.86849
3273.02542,0.86789
3271.09670,0.86861
3269.16799,0.86990
3267.23928,0.87057
3265.31057,0.87063
3263.38185,0.87094
3261.45314,0.87134
3259.52443,0.87108
3257.59572,0.87063
3255.66700,0.87058
3253.73829,0.87069
3251.80958,0.87074
3249.88087,0.87049
3247.95215,0.86939
3246.02344,0.86732
3244.09473,0.86558
3242.16601,0.86536
3240.23730,0.86584
3238.30859,0.86594
3236.37988,0.86574
3234.45116,0.86558
3232.52245,0.86523
3230.59374,0.86436
3228.66503,0.86351
3226.73631,0.86340
3224.80760,0.86373
3222.87889,0.86347
3220.95018,0.86238
3219.02146,0.86115
3217.09275,0.85979
3215.16404,0.85829
3213.23532,0.85723
3211.30661,0.85626
3209.37790,0.85515
3207.44919,0.85454
3205.52047,0.85411
3203.59176,0.85312
3201.66305,0.85174
3199.73434,0.85037
3197.80562,0.84949
3195.87691,0.84891
3193.94820,0.84791
3192.01949,0.84653
3190.09077,0.84520
3188.16206,0.84382
3186.23335,0.84234
3184.30463,0.84136
3182.37592,0.84078
3180.44721,0.83957
3178.51850,0.83786
3176.58978,0.83668
3174.66107,0.83596
3172.73236,0.83519
3170.80365,0.83441
3168.87493,0.83376
3166.94622,0.83331
3165.01751,0.83298
3163.08879,0.83238
3161.16008,0.83140
3159.23137,0.83036
3157.30266,0.82904
3155.37394,0.82710
3153.44523,0.82512
3151.51652,0.82356
3149.58781,0.82199
3147.65909,0.82002
3145.73038,0.81798
3143.80167,0.81645
3141.87296,0.81548
3139.94424,0.81441
3138.01553,0.81283
3136.08682,0.81066
3134.15810,0.80806
3132.22939,0.80594
3130.30068,0.80443
3128.37197,0.80214
3126.44325,0.79858
3124.51454,0.79432
3122.58583,0.78985
3120.65712,0.78574
3118.72840,0.78192
3116.79969,0.77810
3114.87098,0.77440
3112.94227,0.77057
3111.01355,0.76618
3109.08484,0.76124
3107.15613,0.75566
3105.22741,0.74901
3103.29870,0.74083
3101.36999,0.73126
3099.44128,0.72077
3097.51256,0.70918
3095.58385,0.69634
3093.65514,0.68325
3091.72643,0.67099
3089.79771,0.65980
3087.86900,0.64984
3085.94029,0.64147
3084.01158,0.63476
3082.08286,0.62911
3080.15415,0.62413
3078.22544,0.61989
3076.29672,0.61609
3074.36801,0.61200
3072.43930,0.60701
3070.51059,0.60109
3068.58187,0.59449
3066.65316,0.58775
3064.72445,0.58151
3062.79574,0.57583
3060.86702,0.56992
3058.93831,0.56304
3057.00960,0.55558
3055.08088,0.54838
3053.15217,0.54113
3051.22346,0.53295
3049.29475,0.52393
3047.36603,0.51448
3045.43732,0.50437
3043.50861,0.49352
3041.57990,0.48238
3039.65118,0.47144
3037.72247,0.46074
3035.79376,0.45015
3033.86505,0.43993
3031.93633,0.43037
3030.00762,0.42186
3028.07891,0.41412
3026.15019,0.40620
3024.22148,0.39810
3022.29277,0.39013
3020.36406,0.38201
3018.43534,0.37349
3016.50663,0.36466
3014.57792,0.35575
3012.64921,0.34699
3010.72049,0.33849
3008.79178,0.32988
3006.86307,0.32036
3004.93436,0.30973
3003.00564,0.29853
3001.07693,0.28688
2999.14822,0.27448
2997.21950,0.26134
2995.29079,0.24748
2993.36208,0.23271
2991.43337,0.21685
2989.50465,0.19981
2987.57594,0.18166
2985.64723,0.16258
2983.71852,0.14250
2981.78980,0.12146
2979.86109,0.10010
2977.93238,0.07942
2976.00366,0.06031
2974.07495,0.04342
2972.14624,0.02934
2970.21753,0.01835
2968.28881,0.01056
2966.36010,0.00574
2964.43139,0.00305
2962.50268,0.00173
2960.57396,0.00131
2958.64525,0.00124
2956.71654,0.00112
2954.78783,0.00095
2952.85911,0.00079
2950.93040,0.00079
2949.00169,0.00094
2947.07297,0.00109
2945.14426,0.00109
2943.21555,0.00104
2941.28684,0.00098
2939.35812,0.00085
2937.42941,0.00075
2935.50070,0.00092
2933.57199,0.00109
2931.64327,0.00091
2929.71456,0.00066
2927.78585,0.00067
2925.85714,0.00082
2923.92842,0.00104
2921.99971,0.00111
2920.07100,0.00081
2918.14228,0.00043
2916.21357,0.00048
2914.28486,0.00084
2912.35615,0.00109
2910.42743,0.00114
2908.49872,0.00114
2906.57001,0.00106
2904.64130,0.00088
2902.71258,0.00081
2900.78387,0.00093
2898.85516,0.00106
2896.92645,0.00104
2894.99773,0.00086
2893.06902,0.00074
2891.14031,0.00079
2889.21159,0.00086
2887.28288,0.00076
2885.35417,0.00054
2883.42546,0.00030
2881.49674,0.00034
2879.56803,0.00067
2877.63932,0.00095
2875.71061,0.00098
2873.78189,0.00103
2871.85318,0.00124
2869.92447,0.00135
2867.99575,0.00108
2866.06704,0.00076
2864.13833,0.00070
2862.20962,0.00087
2860.28090,0.00101
2858.35219,0.00100
2856.42348,0.00083
2854.49477,0.00080
2852.56605,0.00078
2850.63734,0.00080
2848.70863,0.00096
2846.77992,0.00121
2844.85120,0.00124
2842.92249,0.00088
2840.99378,0.00045
2839.06506,0.00034
2837.13635,0.00084
2835.20764,0.00214
2833.27893,0.00432
2831.35021,0.00742
2829.42150,0.01161
2827.49279,0.01701
2825.56408,0.02360
2823.63536,0.03134
2821.70665,0.04007
2819.77794,0.04950
2817.84923,0.05944
2815.92051,0.06980
2813.99180,0.08051
2812.06309,0.09143
2810.13437,0.10247
2808.20566,0.11384
2806.27695,0.12567
2804.34824,0.13777
2802.41952,0.15004
2800.49081,0.16259
2798.56210,0.17563
2796.63339,0.18936
2794.70467,0.20386
2792.77596,0.21902
2790.84725,0.23468
2788.91854,0.25073
2786.98982,0.26696
2785.06111,0.28293
2783.13240,0.29839
2781.20368,0.31334
2779.27497,0.32760
2777.34626,0.34094
2775.41755,0.35329
2773.48883,0.36470
2771.56012,0.37514
2769.63141,0.38431
2767.70270,0.39209
2765.77398,0.39896
2763.84527,0.40547
2761.91656,0.41173
2759.98784,0.41779
2758.05913,0.42377
2756.13042,0.42940
2754.20171,0.43428
2752.27299,0.43813
2750.34428,0.44055
2748.41557,0.44130
2746.48686,0.44077
2744.55814,0.43973
2742.62943,0.43876
2740.70072,0.43811
2738.77201,0.43792
2736.84329,0.43857
2734.91458,0.44051
2732.98587,0.44353
2731.05715,0.44708
2729.12844,0.45114
2727.19973,0.45586
2725.27102,0.46100
2723.34230,0.46618
2721.41359,0.47116
2719.48488,0.47563
2717.55617,0.47954
2715.62745,0.48320
2713.69874,0.48679
2711.77003,0.49032
2709.84132,0.49382
2707.91260,0.49722
2705.98389,0.50053
2704.05518,0.50388
2702.12646,0.50703
2700.19775,0.50926
2698.26904,0.51007
2696.34033,0.50936
2694.41161,0.50710
2692.48290,0.50362
2690.55419,0.49946
2688.62548,0.49503
2686.69676,0.49087
2684.76805,0.48725
2682.83934,0.48383
2680.91062,0.48040
2678.98191,0.47728
2677.05320,0.47457
2675.12449,0.47182
2673.19577,0.46878
2671.26706,0.46577
2669.33835,0.46329
2667.40964,0.46164
2665.48092,0.46075
2663.55221,0.46050
2661.62350,0.46098
2659.69479,0.46223
2657.76607,0.46409
2655.83736,0.46645
2653.90865,0.46919
2651.97993,0.47208
2650.05122,0.47483
2648.12251,0.47688
2646.19380,0.47777
2644.26508,0.47769
2642.33637,0.47708
2640.40766,0.47606
2638.47895,0.47510
2636.55023,0.47521
2634.62152,0.47723
2632.69281,0.48173
2630.76410,0.48875
2628.83538,0.49740
2626.90667,0.50648
2624.97796,0.51522
2623.04924,0.52350
2621.12053,0.53166
2619.19182,0.53989
2617.26311,0.54817
2615.33439,0.55646
2613.40568,0.56467
2611.47697,0.57264
2609.54826,0.58032
2607.61954,0.58757
2605.69083,0.59420
2603.76212,0.60032
2601.83341,0.60600
2599.90469,0.61121
2597.97598,0.61610
2596.04727,0.62117
2594.11855,0.62690
2592.18984,0.63319
2590.26113,0.63969
2588.33242,0.64634
2586.40370,0.65310
2584.47499,0.65983
2582.54628,0.66638
2580.61757,0.67278
2578.68885,0.67921
2576.76014,0.68565
2574.83143,0.69170
2572.90271,0.69724
2570.97400,0.70232
2569.04529,0.70684
2567.11658,0.71085
2565.18786,0.71455
2563.25915,0.71790
2561.33044,0.72089
2559.40173,0.72360
2557.47301,0.72590
2555.54430,0.72773
2553.61559,0.72926
2551.68688,0.73068
2549.75816,0.73263
2547.82945,0.73611
2545.90074,0.74154
2543.97202,0.74832
2542.04331,0.75489
2540.11460,0.75964
2538.18589,0.76193
2536.25717,0.76189
2534.32846,0.76012
2532.39975,0.75782
2530.47104,0.75611
2528.54232,0.75536
2526.61361,0.75605
2524.68490,0.75891
2522.75619,0.76391
2520.82747,0.76998
2518.89876,0.77607
2516.97005,0.78166
2515.04133,0.78655
2513.11262,0.79084
2511.18391,0.79482
2509.25520,0.79857
2507.32648,0.80169
2505.39777,0.80407
2503.46906,0.80593
2501.54035,0.80739
2499.61163,0.80865
2497.68292,0.80984
2495.75421,0.81086
2493.82549,0.81174
2491.89678,0.81266
2489.96807,0.81370
2488.03936,0.81480
2486.11064,0.81591
2484.18193,0.81715
2482.25322,0.81846
2480.32451,0.81958
2478.39579,0.82027
2476.46708,0.82040
2474.53837,0.82062
2472.60966,0.82250
2470.68094,0.82683
2468.75223,0.83224
2466.82352,0.83653
2464.89480,0.83907
2462.96609,0.84056
2461.03738,0.84147
2459.10867,0.84196
2457.17995,0.84226
2455.25124,0.84254
2453.32253,0.84286
2451.39382,0.84335
2449.46510,0.84392
2447.53639,0.84436
2445.60768,0.84469
2443.67897,0.84505
2441.75025,0.84513
2439.82154,0.84456
2437.89283,0.84354
2435.96411,0.84250
2434.03540,0.84155
2432.10669,0.84040
2430.17798,0.83866
2428.24926,0.83647
2426.32055,0.83417
2424.39184,0.83143
2422.46313,0.82813
2420.53441,0.82496
2418.60570,0.82257
2416.67699,0.82152
2414.74828,0.82219
2412.81956,0.82407
2410.89085,0.82622
2408.96214,0.82837
2407.03342,0.83044
2405.10471,0.83200
2403.17600,0.83307
2401.24729,0.83400
2399.31857,0.83488
2397.38986,0.83547
2395.46115,0.83569
2393.53244,0.83560
2391.60372,0.83501
2389.67501,0.83328
2387.74630,0.82893
2385.81758,0.81967
2383.88887,0.80315
2381.96016,0.77856
2380.03145,0.74730
2378.10273,0.71234
2376.17402,0.67663
2374.24531,0.64222
2372.31660,0.61021
2370.38788,0.58082
2368.45917,0.55431
2366.53046,0.53177
2364.60175,0.51440
2362.67303,0.50232
2360.74432,0.49526
2358.81561,0.49402
2356.88689,0.50013
2354.95818,0.51469
2353.02947,0.53894
2351.10076,0.56794
2349.17204,0.58330
2347.24333,0.57119
2345.31462,0.54257
2343.38591,0.52212
2341.45719,0.51648
2339.52848,0.51804
2337.59977,0.52215
2335.67106,0.52648
2333.74234,0.52942
2331.81363,0.53166
2329.88492,0.53679
2327.95620,0.54609
2326.02749,0.55654
2324.09878,0.56643
2322.17007,0.57851
2320.24135,0.59569
2318.31264,0.61652
2316.38393,0.63610
2314.45522,0.65130
2312.52650,0.66407
2310.59779,0.67794
2308.66908,0.69386
2306.74037,0.71058
2304.81165,0.72606
2302.88294,0.73900
2300.95423,0.74985
2299.02551,0.75958
2297.09680,0.76851
2295.16809,0.77677
2293.23938,0.78463
2291.31066,0.79206
2289.38195,0.79887
2287.45324,0.80512
2285.52453,0.81071
2283.59581,0.81458
2281.66710,0.81570
2279.73839,0.81476
2277.80967,0.81354
2275.88096,0.81334
2273.95225,0.81474
2272.02354,0.81774
2270.09482,0.82156
2268.16611,0.82532
2266.23740,0.82882
2264.30869,0.83221
2262.37997,0.83534
2260.45126,0.83806
2258.52255,0.84038
2256.59384,0.84228
2254.66512,0.84379
2252.73641,0.84483
2250.80770,0.84531
2248.87898,0.84531
2246.95027,0.84502
2245.02156,0.84481
2243.09285,0.84523
2241.16413,0.84687
2239.23542,0.84986
2237.30671,0.85352
2235.37800,0.85707
2233.44928,0.86009
2231.52057,0.86218
2229.59186,0.86331
2227.66315,0.86398
2225.73443,0.86429
2223.80572,0.86439
2221.87701,0.86481
2219.94829,0.86581
2218.01958,0.86710
2216.09087,0.86819
2214.16216,0.86887
2212.23344,0.86907
2210.30473,0.86885
2208.37602,0.86830
2206.44731,0.86758
2204.51859,0.86690
2202.58988,0.86623
2200.66117,0.86552
2198.73245,0.86493
2196.80374,0.86459
2194.87503,0.86450
2192.94632,0.86473
2191.01760,0.86530
2189.08889,0.86594
2187.16018,0.86647
2185.23147,0.86691
2183.30275,0.86735
2181.37404,0.86780
2179.44533,0.86805
2177.51662,0.86798
2175.58790,0.86755
2173.65919,0.86671
2171.73048,0.86550
2169.80176,0.86405
2167.87305,0.86254
2165.94434,0.86110
2164.01563,0.85968
2162.08691,0.85828
2160.15820,0.85708
2158.22949,0.85627
2156.30078,0.85585
2154.37206,0.85566
2152.44335,0.85568
2150.51464,0.85602
2148.58593,0.85672
2146.65721,0.85784
2144.72850,0.85952
2142.79979,0.86167
2140.87107,0.86383
2138.94236,0.86562
2137.01365,0.86722
2135.08494,0.86891
2133.15622,0.87055
2131.22751,0.87191
2129.29880,0.87313
2127.37009,0.87440
2125.44137,0.87583
2123.51266,0.87753
2121.58395,0.87954
2119.65524,0.88157
2117.72652,0.88322
2115.79781,0.88452
2113.86910,0.88573
2111.94038,0.88658
2110.01167,0.88671
2108.08296,0.88621
2106.15425,0.88519
2104.22553,0.88372
2102.29682,0.88211
2100.36811,0.88049
2098.43940,0.87882
2096.51068,0.87726
2094.58197,0.87607
2092.65326,0.87526
2090.72454,0.87491
2088.79583,0.87549
2086.86712,0.87684
2084.93841,0.87818
2083.00969,0.87922
2081.08098,0.87995
2079.15227,0.88017
2077.22356,0.87993
2075.29484,0.87925
2073.36613,0.87790
2071.43742,0.87594
2069.50871,0.87338
2067.57999,0.86972
2065.65128,0.86556
2063.72257,0.86273
2061.79385,0.86114
2059.86514,0.85950
2057.93643,0.85792
2056.00772,0.85681
2054.07900,0.85612
2052.15029,0.85562
2050.22158,0.85517
2048.29287,0.85477
2046.36415,0.85406
2044.43544,0.85225
2042.50673,0.84932
2040.57802,0.84652
2038.64930,0.84406
2036.72059,0.84070
2034.79188,0.83604
2032.86316,0.83067
2030.93445,0.82500
2029.00574,0.81901
2027.07703,0.81263
2025.14831,0.80611
2023.21960,0.80008
2021.29089,0.79510
2019.36218,0.79200
2017.43346,0.79388
2015.50475,0.80388
2013.57604,0.81950
2011.64733,0.83544
2009.71861,0.84894
2007.78990,0.85965
2005.86119,0.86771
2003.93247,0.87309
2002.00376,0.87612
2000.07505,0.87753
1998.14634,0.87804
1996.21762,0.87715
1994.28891,0.87368
1992.36020,0.86981
1990.43149,0.86941
1988.50277,0.87175
1986.57406,0.87465
1984.64535,0.87749
1982.71663,0.88000
1980.78792,0.88253
1978.85921,0.88521
1976.93050,0.88771
1975.00178,0.88972
1973.07307,0.89088
1971.14436,0.89010
1969.21565,0.88622
1967.28693,0.88174
1965.35822,0.88056
1963.42951,0.88060
1961.50080,0.87865
1959.57208,0.87580
1957.64337,0.87321
1955.71466,0.87123
1953.78594,0.87077
1951.85723,0.87159
1949.92852,0.87242
1947.99981,0.87243
1946.07109,0.87139
1944.14238,0.86994
1942.21367,0.87171
1940.28496,0.87798
1938.35624,0.88336
1936.42753,0.88502
1934.49882,0.88446
1932.57011,0.88307
1930.64139,0.88111
1928.71268,0.87820
1926.78397,0.87323
1924.85525,0.86515
1922.92654,0.85732
1920.99783,0.85368
1919.06912,0.85177
1917.14040,0.85199
1915.21169,0.85551
1913.28298,0.85725
1911.35427,0.85494
1909.42555,0.85255
1907.49684,0.85352
1905.56813,0.85541
1903.63941,0.85498
1901.71070,0.85235
1899.78199,0.84850
1897.85328,0.84363
1895.92456,0.83948
1893.99585,0.83921
1892.06714,0.84108
1890.13843,0.84353
1888.20971,0.84978
1886.28100,0.85750
1884.35229,0.86298
1882.42358,0.86728
1880.49486,0.87127
1878.56615,0.87534
1876.63744,0.87991
1874.70872,0.88394
1872.78001,0.88419
1870.85130,0.87784
1868.92259,0.87117
1866.99387,0.87705
1865.06516,0.88943
1863.13645,0.89619
1861.20774,0.89643
1859.27902,0.89429
1857.35031,0.89242
1855.42160,0.89069
1853.49289,0.88832
1851.56417,0.88460
1849.63546,0.87873
1847.70675,0.87103
1845.77803,0.86379
1843.84932,0.86475
1841.92061,0.87609
1839.99190,0.88577
1838.06318,0.88980
1836.13447,0.89276
1834.20576,0.89480
1832.27705,0.88998
1830.34833,0.87984
1828.41962,0.87555
1826.49091,0.87560
1824.56220,0.87398
1822.63348,0.87361
1820.70477,0.87327
1818.77606,0.87050
1816.84734,0.86762
1814.91863,0.86522
1812.98992,0.86107
1811.06121,0.85813
1809.13249,0.86200
1807.20378,0.86967
1805.27507,0.87459
1803.34636,0.87416
1801.41764,0.87167
1799.48893,0.87311
1797.56022,0.87606
1795.63150,0.87419
1793.70279,0.86692
1791.77408,0.86361
1789.84537,0.87114
1787.91665,0.87717
1785.98794,0.87517
1784.05923,0.86891
1782.13052,0.86220
1780.20180,0.85799
1778.27309,0.85751
1776.34438,0.85444
1774.41567,0.84438
1772.48695,0.83530
1770.55824,0.84124
1768.62953,0.85550
1766.70081,0.86667
1764.77210,0.86935
1762.84339,0.86314
1760.91468,0.85527
1758.98596,0.84900
1757.05725,0.83977
1755.12854,0.82839
1753.19983,0.81257
1751.27111,0.78738
1749.34240,0.76356
1747.41369,0.75585
1745.48498,0.75635
1743.55626,0.75669
1741.62755,0.75723
1739.69884,0.76268
1737.77012,0.77200
1735.84141,0.77762
1733.91270,0.78414
1731.98399,0.80072
1730.05527,0.81745
1728.12656,0.82784
1726.19785,0.82799
1724.26914,0.81999
1722.34042,0.81091
1720.41171,0.79941
1718.48300,0.77725
1716.55429,0.75682
1714.62557,0.76212
1712.69686,0.77607
1710.76815,0.78572
1708.83943,0.78883
1706.91072,0.78750
1704.98201,0.78923
1703.05330,0.79383
1701.12458,0.79294
1699.19587,0.78864
1697.26716,0.79579
1695.33845,0.81991
1693.40973,0.84268
1691.48102,0.85021
1689.55231,0.84704
1687.62359,0.83904
1685.69488,0.82536
1683.76617,0.81334
1681.83746,0.81961
1679.90874,0.82883
1677.98003,0.83147
1676.05132,0.82711
1674.12261,0.82080
1672.19389,0.81526
1670.26518,0.81222
1668.33647,0.82336
1666.40776,0.83799
1664.47904,0.84212
1662.55033,0.84287
1660.62162,0.84995
1658.69290,0.85455
1656.76419,0.84811
1654.83548,0.82942
1652.90677,0.81109
1650.97805,0.81180
1649.04934,0.80652
1647.12063,0.79564
1645.19192,0.80115
1643.26320,0.81177
1641.33449,0.81295
1639.40578,0.80488
1637.47707,0.79094
1635.54835,0.78852
1633.61964,0.80695
1631.69093,0.82081
1629.76221,0.82444
1627.83350,0.82362
1625.90479,0.82218
1623.97608,0.82054
1622.04736,0.82378
1620.11865,0.82693
1618.18994,0.82105
1616.26123,0.81480
1614.33251,0.81937
1612.40380,0.82193
1610.47509,0.81685
1608.54637,0.81060
1606.61766,0.80878
1604.68895,0.80872
1602.76024,0.80877
1600.83152,0.81142
1598.90281,0.81531
1596.97410,0.81713
1595.04539,0.81864
1593.11667,0.82222
1591.18796,0.82639
1589.25925,0.82964
1587.33054,0.83155
1585.40182,0.83135
1583.47311,0.82895
1581.54440,0.82392
1579.61568,0.81355
1577.68697,0.79689
1575.75826,0.78628
1573.82955,0.79000
1571.90083,0.78990
1569.97212,0.78376
1568.04341,0.78471
1566.11470,0.79032
1564.18598,0.79247
1562.25727,0.78870
1560.32856,0.77404
1558.39985,0.76031
1556.47113,0.77262
1554.54242,0.78579
1552.61371,0.79222
1550.68499,0.79222
1548.75628,0.78874
1546.82757,0.77954
1544.89886,0.75833
1542.97014,0.72881
1541.04143,0.70835
1539.11272,0.71974
1537.18401,0.73708
1535.25529,0.74061
1533.32658,0.74125
1531.39787,0.74836
1529.46916,0.75149
1527.54044,0.74549
1525.61173,0.73622
1523.68302,0.72688
1521.75430,0.71844
1519.82559,0.71756
1517.89688,0.71745
1515.96817,0.71646
1514.03945,0.71583
1512.11074,0.70754
1510.18203,0.68828
1508.25332,0.66080
1506.32460,0.64878
1504.39589,0.65989
1502.46718,0.66307
1500.53846,0.65490
1498.60975,0.63884
1496.68104,0.62417
1494.75233,0.61605
1492.82361,0.60392
1490.89490,0.57660
1488.96619,0.53865
1487.03748,0.50864
1485.10876,0.47992
1483.18005,0.43676
1481.25134,0.36867
1479.32263,0.28008
1477.39391,0.18006
1475.46520,0.08316
1473.53649,0.02051
1471.60777,0.00205
1469.67906,0.00052
1467.75035,0.00053
1465.82164,0.00058
1463.89292,0.00052
1461.96421,0.00088
1460.03550,0.00218
1458.10679,0.00699
1456.17807,0.02013
1454.24936,0.03730
1452.32065,0.05720
1450.39194,0.07942
1448.46322,0.10149
1446.53451,0.12159
1444.60580,0.13825
1442.67708,0.15377
1440.74837,0.16976
1438.81966,0.18755
1436.89095,0.21734
1434.96223,0.26124
1433.03352,0.30725
1431.10481,0.36387
1429.17610,0.43493
1427.24738,0.49893
1425.31867,0.54737
1423.38996,0.58482
1421.46125,0.60887
1419.53253,0.62421
1417.60382,0.64326
1415.67511,0.66347
1413.74639,0.67873
1411.81768,0.69072
1409.88897,0.70219
1407.96026,0.71120
1406.03154,0.71669
1404.10283,0.72250
1402.17412,0.72642
1400.24541,0.72301
1398.31669,0.71446
1396.38798,0.70703
1394.45927,0.70346
1392.53055,0.70206
1390.60184,0.69524
1388.67313,0.67700
1386.74442,0.64692
1384.81570,0.60254
1382.88699,0.53236
1380.95828,0.44356
1379.02957,0.37877
1377.10085,0.36644
1375.17214,0.38534
1373.24343,0.39593
1371.31472,0.38604
1369.38600,0.37308
1367.45729,0.37296
1365.52858,0.38650
1363.59986,0.40784
1361.67115,0.43391
1359.74244,0.45495
1357.81373,0.46430
1355.88501,0.46398
1353.95630,0.46093
1352.02759,0.46332
1350.09888,0.47565
1348.17016,0.49740
1346.24145,0.52347
1344.31274,0.54769
1342.38403,0.56656
1340.45531,0.58403
1338.52660,0.60919
1336.59789,0.63969
1334.66917,0.66500
1332.74046,0.68042
1330.81175,0.68628
1328.88304,0.68488
1326.95432,0.67835
1325.02561,0.66800
1323.09690,0.65420
1321.16819,0.63682
1319.23947,0.61761
1317.31076,0.60045
1315.38205,0.58602
1313.45333,0.57285
1311.52462,0.56223
1309.59591,0.55515
1307.66720,0.55115
1305.73848,0.55020
1303.80977,0.55168
1301.88106,0.55497
1299.95235,0.56035
1298.02363,0.56817
1296.09492,0.57840
1294.16621,0.59021
1292.23750,0.60159
1290.30878,0.61076
1288.38007,0.61796
1286.45136,0.62436
1284.52264,0.63012
1282.59393,0.63492
1280.66522,0.63921
1278.73651,0.64366
1276.80779,0.64838
1274.87908,0.65315
1272.95037,0.65810
1271.02166,0.66409
1269.09294,0.67169
1267.16423,0.68037
1265.23552,0.68901
1263.30681,0.69630
1261.37809,0.70147
1259.44938,0.70500
1257.52067,0.70739
1255.59195,0.70837
1253.66324,0.70803
1251.73453,0.70706
1249.80582,0.70673
1247.87710,0.70821
1245.94839,0.71167
1244.01968,0.71688
1242.09097,0.72346
1240.16225,0.73049
1238.23354,0.73717
1236.30483,0.74319
1234.37612,0.74851
1232.44740,0.75296
1230.51869,0.75622
1228.58998,0.75787
1226.66126,0.75785
1224.73255,0.75666
1222.80384,0.75470
1220.87513,0.75197
1218.94641,0.74875
1217.01770,0.74574
1215.08899,0.74327
1213.16028,0.74156
1211.23156,0.74131
1209.30285,0.74299
1207.37414,0.74665
1205.44542,0.75216
1203.51671,0.75856
1201.58800,0.76439
1199.65929,0.76890
1197.73057,0.77163
1195.80186,0.77227
1193.87315,0.77092
1191.94444,0.76781
1190.01572,0.76345
1188.08701,0.75855
1186.15830,0.75383
1184.22959,0.74945
1182.30087,0.74463
1180.37216,0.73874
1178.44345,0.73354
1176.51473,0.73246
1174.58602,0.73587
1172.65731,0.74064
1170.72860,0.74491
1168.79988,0.74899
1166.87117,0.75305
1164.94246,0.75657
1163.01375,0.75901
1161.08503,0.76017
1159.15632,0.76003
1157.22761,0.75847
1155.29890,0.75559
1153.37018,0.75178
1151.44147,0.74757
1149.51276,0.74369
1147.58404,0.74087
1145.65533,0.73971
1143.72662,0.74061
1141.79791,0.74346
1139.86919,0.74797
1137.94048,0.75375
1136.01177,0.76017
1134.08306,0.76657
1132.15434,0.77241
1130.22563,0.77754
1128.29692,0.78195
1126.36821,0.78503
1124.43949,0.78581
1122.51078,0.78383
1120.58207,0.77967
1118.65335,0.77430
1116.72464,0.76851
1114.79593,0.76289
1112.86722,0.75795
1110.93850,0.75431
1109.00979,0.75241
1107.08108,0.75222
1105.15237,0.75338
1103.22365,0.75537
1101.29494,0.75765
1099.36623,0.75968
1097.43751,0.76081
1095.50880,0.76039
1093.58009,0.75814
1091.65138,0.75401
1089.72266,0.74785
1087.79395,0.73968
1085.86524,0.73014
1083.93653,0.72058
1082.00781,0.71284
1080.07910,0.70884
1078.15039,0.70928
1076.22168,0.71334
1074.29296,0.71955
1072.36425,0.72692
1070.43554,0.73458
1068.50682,0.74129
1066.57811,0.74676
1064.64940,0.75222
1062.72069,0.75869
1060.79197,0.76598
1058.86326,0.77293
1056.93455,0.77783
1055.00584,0.77878
1053.07712,0.77509
1051.14841,0.76974
1049.21970,0.76699
1047.29099,0.76644
1045.36227,0.76482
1043.43356,0.76165
1041.50485,0.75865
1039.57613,0.75674
1037.64742,0.75575
1035.71871,0.75549
1033.79000,0.75577
1031.86128,0.75602
1029.93257,0.75548
1028.00386,0.75351
1026.07515,0.74945
1024.14643,0.74276
1022.21772,0.73379
1020.28901,0.72501
1018.36029,0.72039
1016.43158,0.72237
1014.50287,0.73010
1012.57416,0.74068
1010.64544,0.75109
1008.71673,0.75983
1006.78802,0.76709
1004.85931,0.77348
1002.93059,0.77958
1001.00188,0.78622
999.07317,0.79366
997.14446,0.80160
995.21574,0.80975
993.28703,0.81792
991.35832,0.82583
989.42960,0.83293
987.50089,0.83843
985.57218,0.84139
983.64347,0.84077
981.71475,0.83642
979.78604,0.82928
977.85733,0.82058
975.92862,0.81137
973.99990,0.80252
972.07119,0.79505
970.14248,0.79000
968.21377,0.78790
966.28505,0.78865
964.35634,0.79204
962.42763,0.79790
960.49891,0.80595
958.57020,0.81554
956.64149,0.82544
954.71278,0.83438
952.78406,0.84142
950.85535,0.84555
948.92664,0.84607
946.99793,0.84354
945.06921,0.83888
943.14050,0.83264
941.21179,0.82558
939.28308,0.81887
937.35436,0.81387
935.42565,0.81152
933.49694,0.81192
931.56822,0.81486
929.63951,0.81995
927.71080,0.82655
925.78209,0.83407
923.85337,0.84186
921.92466,0.84920
919.99595,0.85529
918.06724,0.85904
916.13852,0.85944
914.20981,0.85577
912.28110,0.84785
910.35238,0.83761
908.42367,0.82889
906.49496,0.82341
904.56625,0.81984
902.63753,0.81679
900.70882,0.81397
898.78011,0.81194
896.85140,0.81175
894.92268,0.81402
892.99397,0.81853
891.06526,0.82466
889.13655,0.83193
887.20783,0.84033
885.27912,0.84939
883.35041,0.85727
881.42169,0.86197
879.49298,0.86274
877.56427,0.85970
875.63556,0.85360
873.70684,0.84603
871.77813,0.83843
869.84942,0.83124
867.92071,0.82517
865.99199,0.82139
864.06328,0.82046
862.13457,0.82225
860.20586,0.82632
858.27714,0.83224
856.34843,0.83959
854.41972,0.84773
852.49100,0.85560
850.56229,0.86180
848.63358,0.86543
846.70487,0.86632
844.77615,0.86435
842.84744,0.85936
840.91873,0.85168
838.99002,0.84264
837.06130,0.83375
835.13259,0.82578
833.20388,0.81908
831.27516,0.81449
829.34645,0.81298
827.41774,0.81458
825.48903,0.81905
823.56031,0.82592
821.63160,0.83384
819.70289,0.84128
817.77418,0.84721
815.84546,0.85075
813.91675,0.85160
811.98804,0.84987
810.05933,0.84509
808.13061,0.83671
806.20190,0.82545
804.27319,0.81288
802.34447,0.80006
800.41576,0.78808
798.48705,0.77887
796.55834,0.77334
794.62962,0.77075
792.70091,0.77037
790.77220,0.77180
788.84349,0.77432
786.91477,0.77662
784.98606,0.77729
783.05735,0.77534
781.12864,0.77039
779.19992,0.76259
777.27121,0.75225
775.34250,0.74016
773.41378,0.72815
771.48507,0.71819
769.55636,0.71086
767.62765,0.70596
765.69893,0.70340
763.77022,0.70293
761.84151,0.70398
759.91280,0.70554
757.98408,0.70708
756.05537,0.70864
754.12666,0.70959
752.19795,0.70842
750.26923,0.70313
748.34052,0.69191
746.41181,0.67378
744.48309,0.64794
742.55438,0.61300
740.62567,0.56688
738.69696,0.50551
736.76824,0.41954
734.83953,0.30000
732.91082,0.16506
730.98211,0.06660
729.05339,0.03629
727.12468,0.04768
725.19597,0.05508
723.26725,0.04175
721.33854,0.02230
719.40983,0.02101
717.48112,0.05656
715.55240,0.13162
713.62369,0.22978
711.69498,0.32919
709.76627,0.41854
707.83755,0.49702
705.90884,0.56645
703.98013,0.62802
702.05142,0.68060
700.12270,0.72236
698.19399,0.75299
696.26528,0.77230
694.33656,0.78019
692.40785,0.77862
690.47914,0.77182
688.55043,0.76388
686.62171,0.75750
684.69300,0.75426
682.76429,0.75516
680.83558,0.76077
678.90686,0.77137
676.97815,0.78616
675.04944,0.80206
673.12073,0.80934
671.19201,0.78926
669.26330,0.75421
667.33459,0.77483
665.40587,0.83911
663.47716,0.86896
661.54845,0.86407
659.61974,0.84948
657.69102,0.83578
655.76231,0.82487
653.83360,0.81638
651.90489,0.81080
649.97617,0.81041
648.04746,0.81826
646.11875,0.83391
644.19004,0.85303
642.26132,0.87266
640.33261,0.89208
638.40390,0.90996
636.47518,0.92411
634.54647,0.93455
632.61776,0.94140
630.68905,0.94207
628.76033,0.93464
626.83162,0.92153
624.90291,0.90732
622.97420,0.89360
621.04548,0.87907
619.11677,0.86516
617.18806,0.85885
615.25934,0.86324
613.33063,0.87191
611.40192,0.88038
609.47321,0.89022
607.54449,0.90275
605.61578,0.91673
603.68707,0.92931
601.75836,0.93825
599.82964,0.94318
