7497.19974,0.10694
7495.27095,0.10200
7493.34216,0.09866
7491.41337,0.09710
7489.48459,0.09672
7487.55580,0.09782
7485.62701,0.10026
7483.69822,0.10292
7481.76943,0.10214
7479.84065,0.09955
7477.91186,0.09994
7475.98307,0.10188
7474.05428,0.10339
7472.12549,0.10374
7470.19670,0.10127
7468.26792,0.10204
7466.33913,0.10998
7464.41034,0.11545
7462.48155,0.11430
7460.55276,0.11242
7458.62398,0.10881
7456.69519,0.10522
7454.76640,0.11113
7452.83761,0.12213
7450.90882,0.12265
7448.98003,0.11243
7447.05125,0.10538
7445.12246,0.10513
7443.19367,0.10358
7441.26488,0.09977
7439.33609,0.09975
7437.40731,0.10456
7435.47852,0.10928
7433.54973,0.11040
7431.62094,0.10825
7429.69215,0.10432
7427.76336,0.10080
7425.83458,0.10209
7423.90579,0.10386
7421.97700,0.10175
7420.04821,0.10177
7418.11942,0.10576
7416.19063,0.10921
7414.26185,0.10861
7412.33306,0.10286
7410.40427,0.09883
7408.47548,0.10152
7406.54669,0.10649
7404.61791,0.10775
7402.68912,0.10678
7400.76033,0.10645
7398.83154,0.10520
7396.90275,0.10161
7394.97396,0.09666
7393.04518,0.09419
7391.11639,0.09840
7389.18760,0.10542
7387.25881,0.10802
7385.33002,0.10766
7383.40124,0.10807
7381.47245,0.10818
7379.54366,0.10918
7377.61487,0.10837
7375.68608,0.10296
7373.75729,0.10004
7371.82851,0.10177
7369.89972,0.10175
7367.97093,0.09989
7366.04214,0.09783
7364.11335,0.09456
7362.18457,0.09129
7360.25578,0.09181
7358.32699,0.09840
7356.39820,0.10691
7354.46941,0.11072
7352.54062,0.11287
7350.61184,0.11449
7348.68305,0.11149
7346.75426,0.10845
7344.82547,0.10736
7342.89668,0.10346
7340.96790,0.09863
7339.03911,0.09842
7337.11032,0.10069
7335.18153,0.09976
7333.25274,0.09791
7331.32395,0.10031
7329.39517,0.10395
7327.46638,0.10444
7325.53759,0.10303
7323.60880,0.10052
7321.68001,0.09960
7319.75122,0.10106
7317.82244,0.09892
7315.89365,0.09412
7313.96486,0.09432
7312.03607,0.09643
7310.10728,0.09393
7308.17850,0.09241
7306.24971,0.09821
7304.32092,0.10567
7302.39213,0.10776
7300.46334,0.10420
7298.53455,0.10140
7296.60577,0.10383
7294.67698,0.10798
7292.74819,0.10957
7290.81940,0.11000
7288.89061,0.10941
7286.96183,0.10644
7285.03304,0.10406
7283.10425,0.10630
7281.17546,0.11014
7279.24667,0.10973
7277.31788,0.10501
7275.38910,0.09901
7273.46031,0.09448
7271.53152,0.09596
7269.60273,0.10356
7267.67394,0.10859
7265.74516,0.10562
7263.81637,0.10021
7261.88758,0.09729
7259.95879,0.09572
7258.03000,0.09847
7256.10121,0.10705
7254.17243,0.11297
7252.24364,0.11214
7250.31485,0.10988
7248.38606,0.10877
7246.45727,0.10584
7244.52848,0.09968
7242.59970,0.09588
7240.67091,0.09886
7238.74212,0.10437
7236.81333,0.10906
7234.88454,0.11124
7232.95576,0.10927
7231.02697,0.10871
7229.09818,0.11259
7227.16939,0.11210
7225.24060,0.10545
7223.31181,0.10009
7221.38303,0.09777
7219.45424,0.09811
7217.52545,0.10223
7215.59666,0.10675
7213.66787,0.10727
7211.73909,0.10296
7209.81030,0.09691
7207.88151,0.09502
7205.95272,0.09998
7204.02393,0.10305
7202.09514,0.09802
7200.16636,0.09400
7198.23757,0.09535
7196.30878,0.09891
7194.37999,0.10329
7192.45120,0.10324
7190.52242,0.10017
7188.59363,0.10023
7186.66484,0.10033
7184.73605,0.09874
7182.80726,0.09945
7180.87847,0.10065
7178.94969,0.10088
7177.02090,0.10132
7175.09211,0.10110
7173.16332,0.10057
7171.23453,0.10290
7169.30575,0.10560
7167.37696,0.10340
7165.44817,0.09854
7163.51938,0.09562
7161.59059,0.09730
7159.66180,0.10409
7157.73302,0.10986
7155.80423,0.11018
7153.87544,0.10730
7151.94665,0.10412
7150.01786,0.10277
7148.08907,0.10227
7146.16029,0.09963
7144.23150,0.09872
7142.30271,0.10194
7140.37392,0.10343
7138.44513,0.10190
7136.51635,0.10123
7134.58756,0.10243
7132.65877,0.10391
7130.72998,0.10339
7128.80119,0.10201
7126.87240,0.10273
7124.94362,0.10520
7123.01483,0.10637
7121.08604,0.10463
7119.15725,0.10303
7117.22846,0.10551
7115.29968,0.11013
7113.37089,0.11235
7111.44210,0.11057
7109.51331,0.10571
7107.58452,0.09857
7105.65573,0.09284
7103.72695,0.09320
7101.79816,0.09653
7099.86937,0.09871
7097.94058,0.10019
7096.01179,0.10045
7094.08301,0.09953
7092.15422,0.10013
7090.22543,0.10260
7088.29664,0.10358
7086.36785,0.10293
7084.43906,0.10321
7082.51028,0.10191
7080.58149,0.09777
7078.65270,0.09714
7076.72391,0.10204
7074.79512,0.10576
7072.86634,0.10467
7070.93755,0.10375
7069.00876,0.10608
7067.07997,0.10753
7065.15118,0.10656
7063.22239,0.10481
7061.29361,0.10105
7059.36482,0.09722
7057.43603,0.09868
7055.50724,0.10399
7053.57845,0.10750
7051.64966,0.10774
7049.72088,0.10540
7047.79209,0.10254
7045.86330,0.10263
7043.93451,0.10506
7042.00572,0.10606
7040.07694,0.10482
7038.14815,0.10348
7036.21936,0.10346
7034.29057,0.10191
7032.36178,0.09835
7030.43299,0.09658
7028.50421,0.09930
7026.57542,0.10659
7024.64663,0.11226
7022.71784,0.11105
7020.78905,0.10731
7018.86027,0.10368
7016.93148,0.09819
7015.00269,0.09330
7013.07390,0.09304
7011.14511,0.09660
7009.21632,0.10002
7007.28754,0.10060
7005.35875,0.09922
7003.42996,0.09923
7001.50117,0.10109
6999.57238,0.10168
6997.64360,0.10151
6995.71481,0.10235
6993.78602,0.10162
6991.85723,0.09843
6989.92844,0.09810
6987.99965,0.10377
6986.07087,0.11009
6984.14208,0.11149
6982.21329,0.11024
6980.28450,0.10850
6978.35571,0.10566
6976.42692,0.10355
6974.49814,0.10237
6972.56935,0.10023
6970.64056,0.09945
6968.71177,0.10293
6966.78298,0.10708
6964.85420,0.10644
6962.92541,0.10169
6960.99662,0.09819
6959.06783,0.09861
6957.13904,0.10120
6955.21025,0.10335
6953.28147,0.10234
6951.35268,0.09963
6949.42389,0.10097
6947.49510,0.10561
6945.56631,0.10757
6943.63753,0.10671
6941.70874,0.10532
6939.77995,0.10422
6937.85116,0.10484
6935.92237,0.10693
6933.99358,0.10703
6932.06480,0.10535
6930.13601,0.10551
6928.20722,0.10535
6926.27843,0.10304
6924.34964,0.10185
6922.42086,0.10150
6920.49207,0.10188
6918.56328,0.10489
6916.63449,0.10778
6914.70570,0.10698
6912.77691,0.10449
6910.84813,0.10447
6908.91934,0.10619
6906.99055,0.10575
6905.06176,0.10293
6903.13297,0.10072
6901.20419,0.10116
6899.27540,0.10331
6897.34661,0.10431
6895.41782,0.10338
6893.48903,0.10262
6891.56024,0.10171
6889.63146,0.10015
6887.70267,0.09803
6885.77388,0.09523
6883.84509,0.09367
6881.91630,0.09354
6879.98751,0.09510
6878.05873,0.09960
6876.12994,0.10299
6874.20115,0.10248
6872.27236,0.10150
6870.34357,0.10179
6868.41479,0.10122
6866.48600,0.10059
6864.55721,0.10189
6862.62842,0.10263
6860.69963,0.10202
6858.77084,0.10310
6856.84206,0.10551
6854.91327,0.10629
6852.98448,0.10400
6851.05569,0.10044
6849.12690,0.09893
6847.19812,0.09995
6845.26933,0.10152
6843.34054,0.10214
6841.41175,0.10062
6839.48296,0.09875
6837.55417,0.09978
6835.62539,0.10296
6833.69660,0.10496
6831.76781,0.10486
6829.83902,0.10497
6827.91023,0.10567
6825.98145,0.10376
6824.05266,0.09969
6822.12387,0.09845
6820.19508,0.10065
6818.26629,0.10186
6816.33750,0.10052
6814.40872,0.09904
6812.47993,0.09927
6810.55114,0.10025
6808.62235,0.10158
6806.69356,0.10396
6804.76478,0.10573
6802.83599,0.10469
6800.90720,0.10156
6798.97841,0.09984
6797.04962,0.10137
6795.12083,0.10343
6793.19205,0.10417
6791.26326,0.10443
6789.33447,0.10465
6787.40568,0.10506
6785.47689,0.10488
6783.54810,0.10248
6781.61932,0.10054
6779.69053,0.10291
6777.76174,0.10676
6775.83295,0.10746
6773.90416,0.10567
6771.97538,0.10456
6770.04659,0.10560
6768.11780,0.10745
6766.18901,0.10765
6764.26022,0.10575
6762.33143,0.10400
6760.40265,0.10284
6758.47386,0.10149
6756.54507,0.10197
6754.61628,0.10482
6752.68749,0.10774
6750.75871,0.11010
6748.82992,0.10982
6746.90113,0.10464
6744.97234,0.09959
6743.04355,0.09927
6741.11476,0.09997
6739.18598,0.09865
6737.25719,0.09748
6735.32840,0.09846
6733.39961,0.10070
6731.47082,0.10327
6729.54204,0.10485
6727.61325,0.10316
6725.68446,0.10014
6723.75567,0.10090
6721.82688,0.10498
6719.89809,0.10772
6717.96931,0.10815
6716.04052,0.10754
6714.11173,0.10415
6712.18294,0.09924
6710.25415,0.09840
6708.32536,0.10227
6706.39658,0.10556
6704.46779,0.10555
6702.53900,0.10439
6700.61021,0.10309
6698.68142,0.10189
6696.75264,0.10391
6694.82385,0.10884
6692.89506,0.11118
6690.96627,0.10953
6689.03748,0.10790
6687.10869,0.10669
6685.17991,0.10393
6683.25112,0.10094
6681.32233,0.09877
6679.39354,0.09711
6677.46475,0.09648
6675.53597,0.09589
6673.60718,0.09479
6671.67839,0.09560
6669.74960,0.09802
6667.82081,0.09919
6665.89202,0.10034
6663.96324,0.10257
6662.03445,0.10294
6660.10566,0.10106
6658.17687,0.10085
6656.24808,0.10365
6654.31930,0.10649
6652.39051,0.10761
6650.46172,0.10711
6648.53293,0.10472
6646.60414,0.10138
6644.67535,0.09888
6642.74657,0.09934
6640.81778,0.10442
6638.88899,0.11024
6636.96020,0.11083
6635.03141,0.10737
6633.10263,0.10398
6631.17384,0.10273
6629.24505,0.10405
6627.31626,0.10649
6625.38747,0.10885
6623.45868,0.10927
6621.52990,0.10583
6619.60111,0.10056
6617.67232,0.09787
6615.74353,0.09923
6613.81474,0.10108
6611.88595,0.10136
6609.95717,0.10203
6608.02838,0.10442
6606.09959,0.10692
6604.17080,0.10679
6602.24201,0.10453
6600.31323,0.10200
6598.38444,0.10000
6596.45565,0.09955
6594.52686,0.10049
6592.59807,0.10097
6590.66928,0.10014
6588.74050,0.10071
6586.81171,0.10374
6584.88292,0.10476
6582.95413,0.10216
6581.02534,0.09991
6579.09656,0.09940
6577.16777,0.10007
6575.23898,0.10249
6573.31019,0.10423
6571.38140,0.10377
6569.45261,0.10560
6567.52383,0.10949
6565.59504,0.10993
6563.66625,0.10836
6561.73746,0.10749
6559.80867,0.10436
6557.87989,0.09985
6555.95110,0.09918
6554.02231,0.10275
6552.09352,0.10545
6550.16473,0.10449
6548.23594,0.10208
6546.30716,0.09960
6544.37837,0.09794
6542.44958,0.09935
6540.52079,0.10246
6538.59200,0.10415
6536.66322,0.10481
6534.73443,0.10561
6532.80564,0.10583
6530.87685,0.10526
6528.94806,0.10396
6527.01927,0.10210
6525.09049,0.10182
6523.16170,0.10349
6521.23291,0.10409
6519.30412,0.10229
6517.37533,0.10106
6515.44654,0.10270
6513.51776,0.10376
6511.58897,0.10240
6509.66018,0.10187
6507.73139,0.10292
6505.80260,0.10402
6503.87382,0.10430
6501.94503,0.10249
6500.01624,0.10008
6498.08745,0.10036
6496.15866,0.10176
6494.22987,0.10031
6492.30109,0.09768
6490.37230,0.09812
6488.44351,0.10104
6486.51472,0.10317
6484.58593,0.10363
6482.65715,0.10370
6480.72836,0.10468
6478.79957,0.10557
6476.87078,0.10478
6474.94199,0.10345
6473.01320,0.10296
6471.08442,0.10318
6469.15563,0.10423
6467.22684,0.10526
6465.29805,0.10541
6463.36926,0.10575
6461.44048,0.10654
6459.51169,0.10649
6457.58290,0.10550
6455.65411,0.10447
6453.72532,0.10378
6451.79653,0.10293
6449.86775,0.10113
6447.93896,0.09869
6446.01017,0.09765
6444.08138,0.09957
6442.15259,0.10338
6440.22380,0.10590
6438.29502,0.10635
6436.36623,0.10706
6434.43744,0.10787
6432.50865,0.10622
6430.57986,0.10308
6428.65108,0.10187
6426.72229,0.10375
6424.79350,0.10649
6422.86471,0.10679
6420.93592,0.10537
6419.00713,0.10495
6417.07835,0.10443
6415.14956,0.10364
6413.22077,0.10421
6411.29198,0.10501
6409.36319,0.10461
6407.43441,0.10362
6405.50562,0.10380
6403.57683,0.10558
6401.64804,0.10632
6399.71925,0.10538
6397.79046,0.10663
6395.86168,0.11017
6393.93289,0.11073
6392.00410,0.10805
6390.07531,0.10610
6388.14652,0.10446
6386.21774,0.10166
6384.28895,0.10053
6382.36016,0.10354
6380.43137,0.10750
6378.50258,0.10835
6376.57379,0.10636
6374.64501,0.10387
6372.71622,0.10285
6370.78743,0.10328
6368.85864,0.10368
6366.92985,0.10314
6365.00107,0.10123
6363.07228,0.09909
6361.14349,0.09884
6359.21470,0.10028
6357.28591,0.10206
6355.35712,0.10379
6353.42834,0.10520
6351.49955,0.10522
6349.57076,0.10339
6347.64197,0.10162
6345.71318,0.10166
6343.78439,0.10281
6341.85561,0.10480
6339.92682,0.10712
6337.99803,0.10755
6336.06924,0.10537
6334.14045,0.10282
6332.21167,0.10180
6330.28288,0.10176
6328.35409,0.10213
6326.42530,0.10362
6324.49651,0.10529
6322.56772,0.10471
6320.63894,0.10207
6318.71015,0.10036
6316.78136,0.10124
6314.85257,0.10298
6312.92378,0.10327
6310.99500,0.10385
6309.06621,0.10714
6307.13742,0.10967
6305.20863,0.10813
6303.27984,0.10553
6301.35105,0.10434
6299.42227,0.10370
6297.49348,0.10343
6295.56469,0.10334
6293.63590,0.10260
6291.70711,0.10213
6289.77833,0.10225
6287.84954,0.10100
6285.92075,0.09984
6283.99196,0.10250
6282.06317,0.10698
6280.13438,0.10911
6278.20560,0.10825
6276.27681,0.10628
6274.34802,0.10599
6272.41923,0.10778
6270.49044,0.10880
6268.56165,0.10671
6266.63287,0.10286
6264.70408,0.10104
6262.77529,0.10154
6260.84650,0.10187
6258.91771,0.10252
6256.98893,0.10387
6255.06014,0.10360
6253.13135,0.10262
6251.20256,0.10333
6249.27377,0.10372
6247.34498,0.10233
6245.41620,0.10180
6243.48741,0.10366
6241.55862,0.10554
6239.62983,0.10465
6237.70104,0.10197
6235.77226,0.10062
6233.84347,0.10079
6231.91468,0.10109
6229.98589,0.10201
6228.05710,0.10350
6226.12831,0.10344
6224.19953,0.10157
6222.27074,0.10064
6220.34195,0.10172
6218.41316,0.10367
6216.48437,0.10562
6214.55559,0.10577
6212.62680,0.10335
6210.69801,0.10039
6208.76922,0.09830
6206.84043,0.09765
6204.91164,0.09851
6202.98286,0.10045
6201.05407,0.10295
6199.12528,0.10349
6197.19649,0.10157
6195.26770,0.10090
6193.33892,0.10223
6191.41013,0.10365
6189.48134,0.10442
6187.55255,0.10362
6185.62376,0.10138
6183.69497,0.09974
6181.76619,0.09975
6179.83740,0.10048
6177.90861,0.10074
6175.97982,0.10084
6174.05103,0.10135
6172.12224,0.10197
6170.19346,0.10277
6168.26467,0.10420
6166.33588,0.10515
6164.40709,0.10446
6162.47830,0.10260
6160.54952,0.10158
6158.62073,0.10288
6156.69194,0.10526
6154.76315,0.10657
6152.83436,0.10609
6150.90557,0.10471
6148.97679,0.10440
6147.04800,0.10547
6145.11921,0.10610
6143.19042,0.10542
6141.26163,0.10503
6139.33285,0.10550
6137.40406,0.10507
6135.47527,0.10428
6133.54648,0.10490
6131.61769,0.10549
6129.68890,0.10469
6127.76012,0.10353
6125.83133,0.10263
6123.90254,0.10170
6121.97375,0.10089
6120.04496,0.10040
6118.11618,0.09976
6116.18739,0.09960
6114.25860,0.10146
6112.32981,0.10422
6110.40102,0.10486
6108.47223,0.10343
6106.54345,0.10227
6104.61466,0.10115
6102.68587,0.09949
6100.75708,0.09928
6098.82829,0.10157
6096.89951,0.10424
6094.97072,0.10493
6093.04193,0.10440
6091.11314,0.10418
6089.18435,0.10413
6087.25556,0.10415
6085.32678,0.10291
6083.39799,0.10021
6081.46920,0.09886
6079.54041,0.09968
6077.61162,0.10094
6075.68283,0.10184
6073.75405,0.10243
6071.82526,0.10284
6069.89647,0.10376
6067.96768,0.10494
6066.03889,0.10528
6064.11011,0.10496
6062.18132,0.10389
6060.25253,0.10205
6058.32374,0.10035
6056.39495,0.09887
6054.46616,0.09828
6052.53738,0.09888
6050.60859,0.09929
6048.67980,0.09945
6046.75101,0.09978
6044.82222,0.09951
6042.89344,0.09874
6040.96465,0.09872
6039.03586,0.09939
6037.10707,0.09931
6035.17828,0.09846
6033.24949,0.09882
6031.32071,0.10107
6029.39192,0.10291
6027.46313,0.10275
6025.53434,0.10233
6023.60555,0.10279
6021.67677,0.10277
6019.74798,0.10185
6017.81919,0.10081
6015.89040,0.09949
6013.96161,0.09812
6012.03282,0.09781
6010.10404,0.09833
6008.17525,0.09847
6006.24646,0.09851
6004.31767,0.09922
6002.38888,0.10026
6000.46009,0.10121
5998.53131,0.10208
5996.60252,0.10244
5994.67373,0.10151
5992.74494,0.09896
5990.81615,0.09647
5988.88737,0.09676
5986.95858,0.09902
5985.02979,0.10008
5983.10100,0.10000
5981.17221,0.10079
5979.24342,0.10240
5977.31464,0.10348
5975.38585,0.10372
5973.45706,0.10352
5971.52827,0.10319
5969.59948,0.10317
5967.67070,0.10356
5965.74191,0.10353
5963.81312,0.10255
5961.88433,0.10163
5959.95554,0.10160
5958.02675,0.10156
5956.09797,0.10100
5954.16918,0.10085
5952.24039,0.10151
5950.31160,0.10204
5948.38281,0.10167
5946.45403,0.10074
5944.52524,0.10013
5942.59645,0.09994
5940.66766,0.09972
5938.73887,0.09979
5936.81008,0.10030
5934.88130,0.10029
5932.95251,0.10020
5931.02372,0.10098
5929.09493,0.10128
5927.16614,0.09962
5925.23736,0.09691
5923.30857,0.09517
5921.37978,0.09515
5919.45099,0.09573
5917.52220,0.09565
5915.59341,0.09480
5913.66463,0.09374
5911.73584,0.09305
5909.80705,0.09397
5907.87826,0.09667
5905.94947,0.09880
5904.02068,0.09887
5902.09190,0.09739
5900.16311,0.09539
5898.23432,0.09443
5896.30553,0.09492
5894.37674,0.09561
5892.44796,0.09513
5890.51917,0.09352
5888.59038,0.09177
5886.66159,0.09038
5884.73280,0.09027
5882.80401,0.09149
5880.87523,0.09207
5878.94644,0.09159
5877.01765,0.09106
5875.08886,0.09074
5873.16007,0.09120
5871.23129,0.09187
5869.30250,0.09095
5867.37371,0.09018
5865.44492,0.09183
5863.51613,0.09401
5861.58734,0.09518
5859.65856,0.09527
5857.72977,0.09405
5855.80098,0.09226
5853.87219,0.09057
5851.94340,0.08930
5850.01462,0.08922
5848.08583,0.08986
5846.15704,0.08976
5844.22825,0.08889
5842.29946,0.08790
5840.37067,0.08717
5838.44189,0.08712
5836.51310,0.08753
5834.58431,0.08768
5832.65552,0.08764
5830.72673,0.08791
5828.79795,0.08840
5826.86916,0.08932
5824.94037,0.09039
5823.01158,0.08970
5821.08279,0.08754
5819.15400,0.08670
5817.22522,0.08803
5815.29643,0.09033
5813.36764,0.09209
5811.43885,0.09189
5809.51006,0.08989
5807.58127,0.08843
5805.65249,0.08878
5803.72370,0.08968
5801.79491,0.09021
5799.86612,0.09064
5797.93733,0.09111
5796.00855,0.09142
5794.07976,0.09159
5792.15097,0.09170
5790.22218,0.09161
5788.29339,0.09143
5786.36460,0.09154
5784.43582,0.09196
5782.50703,0.09237
5780.57824,0.09306
5778.64945,0.09401
5776.72066,0.09393
5774.79188,0.09289
5772.86309,0.09222
5770.93430,0.09226
5769.00551,0.09332
5767.07672,0.09479
5765.14793,0.09515
5763.21915,0.09482
5761.29036,0.09473
5759.36157,0.09498
5757.43278,0.09570
5755.50399,0.09609
5753.57521,0.09523
5751.64642,0.09381
5749.71763,0.09261
5747.78884,0.09196
5745.86005,0.09247
5743.93126,0.09392
5742.00248,0.09495
5740.07369,0.09457
5738.14490,0.09337
5736.21611,0.09303
5734.28732,0.09369
5732.35853,0.09418
5730.42975,0.09467
5728.50096,0.09537
5726.57217,0.09549
5724.64338,0.09491
5722.71459,0.09441
5720.78581,0.09477
5718.85702,0.09600
5716.92823,0.09746
5714.99944,0.09814
5713.07065,0.09723
5711.14186,0.09563
5709.21308,0.09473
5707.28429,0.09444
5705.35550,0.09412
5703.42671,0.09372
5701.49792,0.09364
5699.56914,0.09373
5697.64035,0.09368
5695.71156,0.09349
5693.78277,0.09302
5691.85398,0.09309
5689.92519,0.09425
5687.99641,0.09483
5686.06762,0.09456
5684.13883,0.09524
5682.21004,0.09616
5680.28125,0.09570
5678.35247,0.09497
5676.42368,0.09507
5674.49489,0.09555
5672.56610,0.09606
5670.63731,0.09628
5668.70852,0.09594
5666.77974,0.09565
5664.85095,0.09570
5662.92216,0.09550
5660.99337,0.09525
5659.06458,0.09552
5657.13580,0.09574
5655.20701,0.09594
5653.27822,0.09650
5651.34943,0.09725
5649.42064,0.09831
5647.49185,0.09909
5645.56307,0.09892
5643.63428,0.09856
5641.70549,0.09852
5639.77670,0.09855
5637.84791,0.09832
5635.91912,0.09758
5633.99034,0.09663
5632.06155,0.09619
5630.13276,0.09646
5628.20397,0.09714
5626.27518,0.09780
5624.34640,0.09777
5622.41761,0.09710
5620.48882,0.09652
5618.56003,0.09600
5616.63124,0.09578
5614.70245,0.09648
5612.77367,0.09761
5610.84488,0.09791
5608.91609,0.09715
5606.98730,0.09652
5605.05851,0.09665
5603.12973,0.09714
5601.20094,0.09783
5599.27215,0.09875
5597.34336,0.09936
5595.41457,0.09888
5593.48578,0.09729
5591.55700,0.09619
5589.62821,0.09746
5587.69942,0.09952
5585.77063,0.09947
5583.84184,0.09786
5581.91306,0.09720
5579.98427,0.09803
5578.05548,0.09921
5576.12669,0.10023
5574.19790,0.10051
5572.26911,0.09988
5570.34033,0.09963
5568.41154,0.09965
5566.48275,0.09886
5564.55396,0.09790
5562.62517,0.09792
5560.69639,0.09883
5558.76760,0.09973
5556.83881,0.09973
5554.91002,0.09846
5552.98123,0.09687
5551.05244,0.09650
5549.12366,0.09695
5547.19487,0.09717
5545.26608,0.09784
5543.33729,0.09952
5541.40850,0.10151
5539.47971,0.10296
5537.55093,0.10280
5535.62214,0.10129
5533.69335,0.10060
5531.76456,0.10123
5529.83577,0.10142
5527.90699,0.10068
5525.97820,0.10017
5524.04941,0.10002
5522.12062,0.09993
5520.19183,0.10018
5518.26304,0.10020
5516.33426,0.09926
5514.40547,0.09837
5512.47668,0.09839
5510.54789,0.09855
5508.61910,0.09910
5506.69032,0.10075
5504.76153,0.10226
5502.83274,0.10215
5500.90395,0.10091
5498.97516,0.10024
5497.04637,0.10049
5495.11759,0.10098
5493.18880,0.10085
5491.26001,0.09924
5489.33122,0.09802
5487.40243,0.09899
5485.47365,0.10001
5483.54486,0.09960
5481.61607,0.09951
5479.68728,0.10074
5477.75849,0.10207
5475.82970,0.10245
5473.90092,0.10232
5471.97213,0.10224
5470.04334,0.10174
5468.11455,0.10114
5466.18576,0.10124
5464.25697,0.10139
5462.32819,0.10151
5460.39940,0.10193
5458.47061,0.10142
5456.54182,0.09987
5454.61303,0.09901
5452.68425,0.09980
5450.75546,0.10122
5448.82667,0.10116
5446.89788,0.09947
5444.96909,0.09877
5443.04030,0.09982
5441.11152,0.10078
5439.18273,0.10092
5437.25394,0.10097
5435.32515,0.10131
5433.39636,0.10151
5431.46758,0.10109
5429.53879,0.10077
5427.61000,0.10151
5425.68121,0.10242
5423.75242,0.10235
5421.82363,0.10179
5419.89485,0.10229
5417.96606,0.10404
5416.03727,0.10478
5414.10848,0.10367
5412.17969,0.10253
5410.25091,0.10174
5408.32212,0.10082
5406.39333,0.10066
5404.46454,0.10125
5402.53575,0.10157
5400.60696,0.10136
5398.67818,0.10105
5396.74939,0.10102
5394.82060,0.10120
5392.89181,0.10139
5390.96302,0.10145
5389.03424,0.10057
5387.10545,0.09877
5385.17666,0.09825
5383.24787,0.09964
5381.31908,0.10088
5379.39029,0.10088
5377.46151,0.10045
5375.53272,0.10083
5373.60393,0.10163
5371.67514,0.10186
5369.74635,0.10186
5367.81756,0.10190
5365.88878,0.10152
5363.95999,0.10082
5362.03120,0.10027
5360.10241,0.10003
5358.17362,0.10056
5356.24484,0.10149
5354.31605,0.10166
5352.38726,0.10139
5350.45847,0.10144
5348.52968,0.10144
5346.60089,0.10117
5344.67211,0.10042
5342.74332,0.09930
5340.81453,0.09861
5338.88574,0.09905
5336.95695,0.10021
5335.02817,0.10098
5333.09938,0.10126
5331.17059,0.10130
5329.24180,0.10130
5327.31301,0.10155
5325.38422,0.10171
5323.45544,0.10165
5321.52665,0.10168
5319.59786,0.10145
5317.66907,0.10114
5315.74028,0.10194
5313.81150,0.10337
5311.88271,0.10371
5309.95392,0.10290
5308.02513,0.10188
5306.09634,0.10128
5304.16755,0.10143
5302.23877,0.10203
5300.30998,0.10237
5298.38119,0.10263
5296.45240,0.10347
5294.52361,0.10393
5292.59483,0.10290
5290.66604,0.10162
5288.73725,0.10143
5286.80846,0.10126
5284.87967,0.10078
5282.95088,0.10077
5281.02210,0.10035
5279.09331,0.09988
5277.16452,0.10121
5275.23573,0.10303
5273.30694,0.10308
5271.37815,0.10233
5269.44937,0.10259
5267.52058,0.10312
5265.59179,0.10233
5263.66300,0.10080
5261.73421,0.10050
5259.80543,0.10191
5257.87664,0.10334
5255.94785,0.10294
5254.01906,0.10157
5252.09027,0.10157
5250.16148,0.10241
5248.23270,0.10286
5246.30391,0.10341
5244.37512,0.10387
5242.44633,0.10357
5240.51754,0.10292
5238.58876,0.10256
5236.65997,0.10263
5234.73118,0.10264
5232.80239,0.10223
5230.87360,0.10159
5228.94481,0.10133
5227.01603,0.10216
5225.08724,0.10340
5223.15845,0.10348
5221.22966,0.10284
5219.30087,0.10271
5217.37209,0.10313
5215.44330,0.10381
5213.51451,0.10416
5211.58572,0.10377
5209.65693,0.10323
5207.72814,0.10321
5205.79936,0.10381
5203.87057,0.10431
5201.94178,0.10383
5200.01299,0.10277
5198.08420,0.10217
5196.15541,0.10237
5194.22663,0.10261
5192.29784,0.10242
5190.36905,0.10266
5188.44026,0.10342
5186.51147,0.10366
5184.58269,0.10347
5182.65390,0.10328
5180.72511,0.10287
5178.79632,0.10250
5176.86753,0.10291
5174.93874,0.10382
5173.00996,0.10405
5171.08117,0.10359
5169.15238,0.10353
5167.22359,0.10399
5165.29480,0.10409
5163.36602,0.10365
5161.43723,0.10320
5159.50844,0.10257
5157.57965,0.10169
5155.65086,0.10152
5153.72207,0.10243
5151.79329,0.10348
5149.86450,0.10378
5147.93571,0.10338
5146.00692,0.10323
5144.07813,0.10394
5142.14935,0.10474
5140.22056,0.10492
5138.29177,0.10495
5136.36298,0.10533
5134.43419,0.10569
5132.50540,0.10532
5130.57662,0.10427
5128.64783,0.10368
5126.71904,0.10404
5124.79025,0.10427
5122.86146,0.10378
5120.93268,0.10304
5119.00389,0.10268
5117.07510,0.10296
5115.14631,0.10302
5113.21752,0.10269
5111.28873,0.10267
5109.35995,0.10280
5107.43116,0.10313
5105.50237,0.10387
5103.57358,0.10417
5101.64479,0.10382
5099.71600,0.10367
5097.78722,0.10363
5095.85843,0.10312
5093.92964,0.10274
5092.00085,0.10293
5090.07206,0.10322
5088.14328,0.10370
5086.21449,0.10432
5084.28570,0.10418
5082.35691,0.10333
5080.42812,0.10310
5078.49933,0.10372
5076.57055,0.10403
5074.64176,0.10407
5072.71297,0.10433
5070.78418,0.10400
5068.85539,0.10313
5066.92661,0.10297
5064.99782,0.10321
5063.06903,0.10283
5061.14024,0.10223
5059.21145,0.10254
5057.28266,0.10374
5055.35388,0.10444
5053.42509,0.10410
5051.49630,0.10343
5049.56751,0.10290
5047.63872,0.10271
5045.70994,0.10333
5043.78115,0.10475
5041.85236,0.10573
5039.92357,0.10511
5037.99478,0.10355
5036.06599,0.10259
5034.13721,0.10278
5032.20842,0.10351
5030.27963,0.10405
5028.35084,0.10408
5026.42205,0.10373
5024.49327,0.10371
5022.56448,0.10417
5020.63569,0.10418
5018.70690,0.10367
5016.77811,0.10352
5014.84932,0.10392
5012.92054,0.10462
5010.99175,0.10524
5009.06296,0.10527
5007.13417,0.10466
5005.20538,0.10403
5003.27659,0.10400
5001.34781,0.10415
4999.41902,0.10402
4997.49023,0.10389
4995.56144,0.10369
4993.63265,0.10323
4991.70387,0.10304
4989.77508,0.10344
4987.84629,0.10368
4985.91750,0.10346
4983.98871,0.10327
4982.05992,0.10321
4980.13114,0.10339
4978.20235,0.10385
4976.27356,0.10422
4974.34477,0.10436
4972.41598,0.10430
4970.48720,0.10407
4968.55841,0.10389
4966.62962,0.10387
4964.70083,0.10349
4962.77204,0.10320
4960.84325,0.10400
4958.91447,0.10519
4956.98568,0.10543
4955.05689,0.10481
4953.12810,0.10450
4951.19931,0.10467
4949.27053,0.10468
4947.34174,0.10472
4945.41295,0.10484
4943.48416,0.10474
4941.55537,0.10433
4939.62658,0.10353
4937.69780,0.10281
4935.76901,0.10255
4933.84022,0.10287
4931.91143,0.10366
4929.98264,0.10417
4928.05385,0.10409
4926.12507,0.10395
4924.19628,0.10388
4922.26749,0.10382
4920.33870,0.10390
4918.40991,0.10404
4916.48113,0.10424
4914.55234,0.10440
4912.62355,0.10418
4910.69476,0.10367
4908.76597,0.10343
4906.83718,0.10369
4904.90840,0.10419
4902.97961,0.10475
4901.05082,0.10521
4899.12203,0.10536
4897.19324,0.10516
4895.26446,0.10471
4893.33567,0.10447
4891.40688,0.10469
4889.47809,0.10509
4887.54930,0.10526
4885.62051,0.10494
4883.69173,0.10437
4881.76294,0.10391
4879.83415,0.10345
4877.90536,0.10313
4875.97657,0.10340
4874.04779,0.10401
4872.11900,0.10422
4870.19021,0.10403
4868.26142,0.10399
4866.33263,0.10418
4864.40384,0.10412
4862.47506,0.10368
4860.54627,0.10334
4858.61748,0.10365
4856.68869,0.10447
4854.75990,0.10507
4852.83112,0.10515
4850.90233,0.10474
4848.97354,0.10405
4847.04475,0.10364
4845.11596,0.10364
4843.18717,0.10409
4841.25839,0.10487
4839.32960,0.10520
4837.40081,0.10455
4835.47202,0.10344
4833.54323,0.10292
4831.61444,0.10336
4829.68566,0.10404
4827.75687,0.10423
4825.82808,0.10397
4823.89929,0.10368
4821.97050,0.10360
4820.04172,0.10378
4818.11293,0.10415
4816.18414,0.10441
4814.25535,0.10413
4812.32656,0.10325
4810.39777,0.10285
4808.46899,0.10343
4806.54020,0.10410
4804.61141,0.10429
4802.68262,0.10402
4800.75383,0.10372
4798.82505,0.10391
4796.89626,0.10412
4794.96747,0.10362
4793.03868,0.10294
4791.10989,0.10294
4789.18110,0.10343
4787.25232,0.10367
4785.32353,0.10369
4783.39474,0.10403
4781.46595,0.10432
4779.53716,0.10413
4777.60838,0.10388
4775.67959,0.10398
4773.75080,0.10446
4771.82201,0.10498
4769.89322,0.10523
4767.96443,0.10499
4766.03565,0.10451
4764.10686,0.10441
4762.17807,0.10445
4760.24928,0.10407
4758.32049,0.10366
4756.39170,0.10358
4754.46292,0.10382
4752.53413,0.10429
4750.60534,0.10440
4748.67655,0.10404
4746.74776,0.10391
4744.81898,0.10403
4742.89019,0.10415
4740.96140,0.10435
4739.03261,0.10457
4737.10382,0.10440
4735.17503,0.10387
4733.24625,0.10376
4731.31746,0.10413
4729.38867,0.10420
4727.45988,0.10392
4725.53109,0.10355
4723.60231,0.10289
4721.67352,0.10232
4719.74473,0.10239
4717.81594,0.10268
4715.88715,0.10287
4713.95836,0.10294
4712.02958,0.10267
4710.10079,0.10240
4708.17200,0.10217
4706.24321,0.10161
4704.31442,0.10133
4702.38564,0.10165
4700.45685,0.10191
4698.52806,0.10194
4696.59927,0.10185
4694.67048,0.10146
4692.74169,0.10107
4690.81291,0.10077
4688.88412,0.10017
4686.95533,0.09983
4685.02654,0.10036
4683.09775,0.10107
4681.16897,0.10121
4679.24018,0.10108
4677.31139,0.10123
4675.38260,0.10161
4673.45381,0.10179
4671.52502,0.10186
4669.59624,0.10222
4667.66745,0.10252
4665.73866,0.10236
4663.80987,0.10212
4661.88108,0.10207
4659.95229,0.10211
4658.02351,0.10222
4656.09472,0.10226
4654.16593,0.10224
4652.23714,0.10211
4650.30835,0.10188
4648.37957,0.10188
4646.45078,0.10216
4644.52199,0.10227
4642.59320,0.10205
4640.66441,0.10163
4638.73562,0.10121
4636.80684,0.10104
4634.87805,0.10100
4632.94926,0.10088
4631.02047,0.10101
4629.09168,0.10128
4627.16290,0.10117
4625.23411,0.10117
4623.30532,0.10182
4621.37653,0.10253
4619.44774,0.10265
4617.51895,0.10247
4615.59017,0.10248
4613.66138,0.10250
4611.73259,0.10247
4609.80380,0.10268
4607.87501,0.10276
4605.94623,0.10249
4604.01744,0.10254
4602.08865,0.10304
4600.15986,0.10355
4598.23107,0.10397
4596.30228,0.10412
4594.37350,0.10389
4592.44471,0.10352
4590.51592,0.10343
4588.58713,0.10372
4586.65834,0.10376
4584.72956,0.10335
4582.80077,0.10303
4580.87198,0.10293
4578.94319,0.10264
4577.01440,0.10215
4575.08561,0.10199
4573.15683,0.10224
4571.22804,0.10246
4569.29925,0.10264
4567.37046,0.10288
4565.44167,0.10293
4563.51288,0.10284
4561.58410,0.10309
4559.65531,0.10353
4557.72652,0.10353
4555.79773,0.10310
4553.86894,0.10275
4551.94016,0.10267
4550.01137,0.10273
4548.08258,0.10267
4546.15379,0.10245
4544.22500,0.10227
4542.29621,0.10198
4540.36743,0.10185
4538.43864,0.10243
4536.50985,0.10325
4534.58106,0.10361
4532.65227,0.10348
4530.72349,0.10314
4528.79470,0.10303
4526.86591,0.10328
4524.93712,0.10339
4523.00833,0.10304
4521.07954,0.10251
4519.15076,0.10214
4517.22197,0.10208
4515.29318,0.10236
4513.36439,0.10256
4511.43560,0.10231
4509.50682,0.10208
4507.57803,0.10227
4505.64924,0.10246
4503.72045,0.10224
4501.79166,0.10170
4499.86287,0.10108
4497.93409,0.10072
4496.00530,0.10053
4494.07651,0.10051
4492.14772,0.10082
4490.21893,0.10116
4488.29014,0.10125
4486.36136,0.10118
4484.43257,0.10120
4482.50378,0.10120
4480.57499,0.10069
4478.64620,0.09998
4476.71742,0.09971
4474.78863,0.09969
4472.85984,0.09962
4470.93105,0.09960
4469.00226,0.09971
4467.07347,0.09964
4465.14469,0.09897
4463.21590,0.09817
4461.28711,0.09791
4459.35832,0.09801
4457.42953,0.09811
4455.50075,0.09811
4453.57196,0.09804
4451.64317,0.09786
4449.71438,0.09758
4447.78559,0.09706
4445.85680,0.09607
4443.92802,0.09506
4441.99923,0.09456
4440.07044,0.09409
4438.14165,0.09327
4436.21286,0.09248
4434.28408,0.09203
4432.35529,0.09169
4430.42650,0.09122
4428.49771,0.09074
4426.56892,0.09043
4424.64013,0.09008
4422.71135,0.08926
4420.78256,0.08799
4418.85377,0.08688
4416.92498,0.08620
4414.99619,0.08581
4413.06741,0.08563
4411.13862,0.08554
4409.20983,0.08526
4407.28104,0.08467
4405.35225,0.08390
4403.42346,0.08323
4401.49468,0.08289
4399.56589,0.08281
4397.63710,0.08276
4395.70831,0.08263
4393.77952,0.08233
4391.85073,0.08183
4389.92195,0.08129
4387.99316,0.08100
4386.06437,0.08108
4384.13558,0.08122
4382.20679,0.08097
4380.27801,0.08022
4378.34922,0.07936
4376.42043,0.07869
4374.49164,0.07800
4372.56285,0.07719
4370.63406,0.07654
4368.70528,0.07616
4366.77649,0.07585
4364.84770,0.07552
4362.91891,0.07509
4360.99012,0.07447
4359.06134,0.07369
4357.13255,0.07275
4355.20376,0.07193
4353.27497,0.07153
4351.34618,0.07127
4349.41739,0.07093
4347.48861,0.07062
4345.55982,0.07021
4343.63103,0.06990
4341.70224,0.06997
4339.77345,0.07000
4337.84467,0.06979
4335.91588,0.06962
4333.98709,0.06942
4332.05830,0.06912
4330.12951,0.06889
4328.20072,0.06882
4326.27194,0.06908
4324.34315,0.06968
4322.41436,0.07035
4320.48557,0.07100
4318.55678,0.07169
4316.62800,0.07229
4314.69921,0.07289
4312.77042,0.07364
4310.84163,0.07417
4308.91284,0.07435
4306.98405,0.07460
4305.05527,0.07480
4303.12648,0.07466
4301.19769,0.07456
4299.26890,0.07474
4297.34011,0.07497
4295.41132,0.07519
4293.48254,0.07531
4291.55375,0.07512
4289.62496,0.07466
4287.69617,0.07419
4285.76738,0.07399
4283.83860,0.07405
4281.90981,0.07418
4279.98102,0.07414
4278.05223,0.07399
4276.12344,0.07419
4274.19465,0.07480
4272.26587,0.07536
4270.33708,0.07537
4268.40829,0.07479
4266.47950,0.07427
4264.55071,0.07422
4262.62193,0.07440
4260.69314,0.07463
4258.76435,0.07494
4256.83556,0.07518
4254.90677,0.07530
4252.97798,0.07533
4251.04920,0.07527
4249.12041,0.07527
4247.19162,0.07525
4245.26283,0.07494
4243.33404,0.07442
4241.40526,0.07410
4239.47647,0.07418
4237.54768,0.07436
4235.61889,0.07414
4233.69010,0.07372
4231.76131,0.07364
4229.83253,0.07390
4227.90374,0.07434
4225.97495,0.07475
4224.04616,0.07476
4222.11737,0.07455
4220.18858,0.07442
4218.25980,0.07431
4216.33101,0.07405
4214.40222,0.07372
4212.47343,0.07378
4210.54464,0.07432
4208.61586,0.07488
4206.68707,0.07510
4204.75828,0.07509
4202.82949,0.07536
4200.90070,0.07559
4198.97191,0.07524
4197.04313,0.07495
4195.11434,0.07543
4193.18555,0.07603
4191.25676,0.07596
4189.32797,0.07569
4187.39919,0.07594
4185.47040,0.07652
4183.54161,0.07689
4181.61282,0.07675
4179.68403,0.07612
4177.75524,0.07550
4175.82646,0.07510
4173.89767,0.07480
4171.96888,0.07478
4170.04009,0.07494
4168.11130,0.07497
4166.18252,0.07518
4164.25373,0.07575
4162.32494,0.07619
4160.39615,0.07651
4158.46736,0.07696
4156.53857,0.07745
4154.60979,0.07804
4152.68100,0.07866
4150.75221,0.07888
4148.82342,0.07870
4146.89463,0.07853
4144.96585,0.07835
4143.03706,0.07816
4141.10827,0.07849
4139.17948,0.07926
4137.25069,0.07979
4135.32190,0.08021
4133.39312,0.08075
4131.46433,0.08093
4129.53554,0.08071
4127.60675,0.08055
4125.67796,0.08069
4123.74917,0.08099
4121.82039,0.08097
4119.89160,0.08045
4117.96281,0.08007
4116.03402,0.08005
4114.10523,0.07980
4112.17645,0.07922
4110.24766,0.07902
4108.31887,0.07935
4106.39008,0.07965
4104.46129,0.07972
4102.53250,0.07945
4100.60372,0.07886
4098.67493,0.07835
4096.74614,0.07825
4094.81735,0.07831
4092.88856,0.07804
4090.95978,0.07747
4089.03099,0.07691
4087.10220,0.07637
4085.17341,0.07585
4083.24462,0.07552
4081.31583,0.07557
4079.38705,0.07591
4077.45826,0.07639
4075.52947,0.07702
4073.60068,0.07775
4071.67189,0.07837
4069.74311,0.07865
4067.81432,0.07889
4065.88553,0.07941
4063.95674,0.07983
4062.02795,0.08021
4060.09916,0.08077
4058.17038,0.08118
4056.24159,0.08138
4054.31280,0.08162
4052.38401,0.08187
4050.45522,0.08210
4048.52644,0.08230
4046.59765,0.08248
4044.66886,0.08287
4042.74007,0.08338
4040.81128,0.08370
4038.88249,0.08397
4036.95371,0.08410
4035.02492,0.08383
4033.09613,0.08350
4031.16734,0.08350
4029.23855,0.08382
4027.30976,0.08409
4025.38098,0.08402
4023.45219,0.08370
4021.52340,0.08334
4019.59461,0.08305
4017.66582,0.08300
4015.73704,0.08306
4013.80825,0.08305
4011.87946,0.08327
4009.95067,0.08399
4008.02188,0.08488
4006.09309,0.08524
4004.16431,0.08485
4002.23552,0.08439
4000.30673,0.08449
3998.37794,0.08515
3996.44915,0.08602
3994.52037,0.08664
3992.59158,0.08671
3990.66279,0.08647
3988.73400,0.08645
3986.80521,0.08667
3984.87642,0.08693
3982.94764,0.08727
3981.01885,0.08761
3979.09006,0.08785
3977.16127,0.08810
3975.23248,0.08840
3973.30370,0.08847
3971.37491,0.08835
3969.44612,0.08850
3967.51733,0.08884
3965.58854,0.08893
3963.65975,0.08872
3961.73097,0.08848
3959.80218,0.08836
3957.87339,0.08836
3955.94460,0.08847
3954.01581,0.08848
3952.08702,0.08866
3950.15824,0.08924
3948.22945,0.08944
3946.30066,0.08903
3944.37187,0.08875
3942.44308,0.08887
3940.51430,0.08928
3938.58551,0.08961
3936.65672,0.08957
3934.72793,0.08929
3932.79914,0.08891
3930.87035,0.08853
3928.94157,0.08853
3927.01278,0.08901
3925.08399,0.08950
3923.15520,0.08962
3921.22641,0.08928
3919.29763,0.08860
3917.36884,0.08808
3915.44005,0.08824
3913.51126,0.08879
3911.58247,0.08922
3909.65368,0.08947
3907.72490,0.08953
3905.79611,0.08933
3903.86732,0.08899
3901.93853,0.08880
3900.00974,0.08890
3898.08096,0.08919
3896.15217,0.08948
3894.22338,0.08972
3892.29459,0.08994
3890.36580,0.09012
3888.43701,0.08996
3886.50823,0.08944
3884.57944,0.08935
3882.65065,0.08986
3880.72186,0.08999
3878.79307,0.08960
3876.86429,0.08929
3874.93550,0.08922
3873.00671,0.08964
3871.07792,0.09033
3869.14913,0.09037
3867.22034,0.09004
3865.29156,0.08978
3863.36277,0.08930
3861.43398,0.08919
3859.50519,0.08976
3857.57640,0.09047
3855.64761,0.09064
3853.71883,0.08965
3851.79004,0.08906
3849.86125,0.08961
3847.93246,0.09021
3846.00367,0.09059
3844.07489,0.09068
3842.14610,0.09049
3840.21731,0.09020
3838.28852,0.09009
3836.35973,0.09014
3834.43094,0.09011
3832.50216,0.09012
3830.57337,0.09033
3828.64458,0.09083
3826.71579,0.09139
3824.78700,0.09165
3822.85822,0.09151
3820.92943,0.09132
3819.00064,0.09139
3817.07185,0.09123
3815.14306,0.09105
3813.21427,0.09136
3811.28549,0.09175
3809.35670,0.09171
3807.42791,0.09126
3805.49912,0.09123
3803.57033,0.09170
3801.64155,0.09208
3799.71276,0.09231
3797.78397,0.09258
3795.85518,0.09278
3793.92639,0.09279
3791.99760,0.09274
3790.06882,0.09288
3788.14003,0.09319
3786.21124,0.09342
3784.28245,0.09347
3782.35366,0.09347
3780.42488,0.09340
3778.49609,0.09319
3776.56730,0.09297
3774.63851,0.09293
3772.70972,0.09318
3770.78093,0.09368
3768.85215,0.09396
3766.92336,0.09374
3764.99457,0.09335
3763.06578,0.09302
3761.13699,0.09269
3759.20820,0.09231
3757.27942,0.09217
3755.35063,0.09235
3753.42184,0.09273
3751.49305,0.09313
3749.56426,0.09322
3747.63548,0.09314
3745.70669,0.09297
3743.77790,0.09275
3741.84911,0.09293
3739.92032,0.09334
3737.99153,0.09375
3736.06275,0.09422
3734.13396,0.09447
3732.20517,0.09430
3730.27638,0.09442
3728.34759,0.09492
3726.41881,0.09509
3724.49002,0.09488
3722.56123,0.09491
3720.63244,0.09519
3718.70365,0.09541
3716.77486,0.09554
3714.84608,0.09554
3712.91729,0.09500
3710.98850,0.09393
3709.05971,0.09340
3707.13092,0.09334
3705.20214,0.09313
3703.27335,0.09270
3701.34456,0.09219
3699.41577,0.09168
3697.48698,0.09116
3695.55819,0.09067
3693.62941,0.09038
3691.70062,0.09008
3689.77183,0.08891
3687.84304,0.08721
3685.91425,0.08643
3683.98546,0.08630
3682.05668,0.08616
3680.12789,0.08600
3678.19910,0.08598
3676.27031,0.08597
3674.34152,0.08622
3672.41274,0.08683
3670.48395,0.08708
3668.55516,0.08683
3666.62637,0.08671
3664.69758,0.08677
3662.76879,0.08694
3660.84001,0.08732
3658.91122,0.08759
3656.98243,0.08719
3655.05364,0.08647
3653.12485,0.08637
3651.19607,0.08679
3649.26728,0.08732
3647.33849,0.08790
3645.40970,0.08836
3643.48091,0.08833
3641.55212,0.08795
3639.62334,0.08778
3637.69455,0.08796
3635.76576,0.08801
3633.83697,0.08782
3631.90818,0.08760
3629.97940,0.08688
3628.05061,0.08566
3626.12182,0.08543
3624.19303,0.08593
3622.26424,0.08628
3620.33545,0.08601
3618.40667,0.08541
3616.47788,0.08515
3614.54909,0.08490
3612.62030,0.08444
3610.69151,0.08420
3608.76273,0.08419
3606.83394,0.08421
3604.90515,0.08407
3602.97636,0.08367
3601.04757,0.08321
3599.11878,0.08300
3597.19000,0.08293
3595.26121,0.08291
3593.33242,0.08312
3591.40363,0.08335
3589.47484,0.08315
3587.54605,0.08246
3585.61727,0.08185
3583.68848,0.08169
3581.75969,0.08172
3579.83090,0.08157
3577.90211,0.08120
3575.97333,0.08084
3574.04454,0.08053
3572.11575,0.08030
3570.18696,0.08002
3568.25817,0.07941
3566.32938,0.07900
3564.40060,0.07915
3562.47181,0.07912
3560.54302,0.07878
3558.61423,0.07840
3556.68544,0.07796
3554.75666,0.07757
3552.82787,0.07740
3550.89908,0.07749
3548.97029,0.07784
3547.04150,0.07821
3545.11271,0.07824
3543.18393,0.07795
3541.25514,0.07763
3539.32635,0.07730
3537.39756,0.07709
3535.46877,0.07723
3533.53999,0.07746
3531.61120,0.07738
3529.68241,0.07720
3527.75362,0.07716
3525.82483,0.07720
3523.89604,0.07724
3521.96726,0.07712
3520.03847,0.07672
3518.10968,0.07627
3516.18089,0.07605
3514.25210,0.07601
3512.32332,0.07609
3510.39453,0.07616
3508.46574,0.07599
3506.53695,0.07563
3504.60816,0.07528
3502.67937,0.07498
3500.75059,0.07482
3498.82180,0.07478
3496.89301,0.07457
3494.96422,0.07410
3493.03543,0.07366
3491.10664,0.07324
3489.17786,0.07285
3487.24907,0.07267
3485.32028,0.07257
3483.39149,0.07230
3481.46270,0.07209
3479.53392,0.07224
3477.60513,0.07235
3475.67634,0.07212
3473.74755,0.07187
3471.81876,0.07159
3469.88997,0.07110
3467.96119,0.07063
3466.03240,0.07026
3464.10361,0.06987
3462.17482,0.06959
3460.24603,0.06953
3458.31725,0.06960
3456.38846,0.06961
3454.45967,0.06946
3452.53088,0.06922
3450.60209,0.06894
3448.67330,0.06867
3446.74452,0.06856
3444.81573,0.06851
3442.88694,0.06822
3440.95815,0.06762
3439.02936,0.06682
3437.10058,0.06610
3435.17179,0.06578
3433.24300,0.06581
3431.31421,0.06593
3429.38542,0.06601
3427.45663,0.06603
3425.52785,0.06595
3423.59906,0.06576
3421.67027,0.06547
3419.74148,0.06508
3417.81269,0.06501
3415.88390,0.06531
3413.95512,0.06556
3412.02633,0.06589
3410.09754,0.06657
3408.16875,0.06725
3406.23996,0.06757
3404.31118,0.06766
3402.38239,0.06761
3400.45360,0.06764
3398.52481,0.06811
3396.59602,0.06889
3394.66723,0.06953
3392.73845,0.06993
3390.80966,0.07028
3388.88087,0.07067
3386.95208,0.07097
3385.02329,0.07121
3383.09451,0.07156
3381.16572,0.07205
3379.23693,0.07240
3377.30814,0.07240
3375.37935,0.07238
3373.45056,0.07263
3371.52178,0.07278
3369.59299,0.07259
3367.66420,0.07262
3365.73541,0.07319
3363.80662,0.07356
3361.87784,0.07333
3359.94905,0.07326
3358.02026,0.07374
3356.09147,0.07411
3354.16268,0.07402
3352.23389,0.07376
3350.30511,0.07367
3348.37632,0.07362
3346.44753,0.07335
3344.51874,0.07310
3342.58995,0.07326
3340.66117,0.07359
3338.73238,0.07369
3336.80359,0.07358
3334.87480,0.07318
3332.94601,0.07269
3331.01722,0.07264
3329.08844,0.07296
3327.15965,0.07307
3325.23086,0.07271
3323.30207,0.07206
3321.37328,0.07151
3319.44449,0.07123
3317.51571,0.07111
3315.58692,0.07082
3313.65813,0.07007
3311.72934,0.06914
3309.80055,0.06832
3307.87177,0.06732
3305.94298,0.06606
3304.01419,0.06506
3302.08540,0.06458
3300.15661,0.06457
3298.22782,0.06496
3296.29904,0.06565
3294.37025,0.06669
3292.44146,0.06779
3290.51267,0.06846
3288.58388,0.06883
3286.65510,0.06935
3284.72631,0.07014
3282.79752,0.07123
3280.86873,0.07244
3278.93994,0.07326
3277.01115,0.07352
3275.08237,0.07373
3273.15358,0.07417
3271.22479,0.07470
3269.29600,0.07510
3267.36721,0.07512
3265.43843,0.07509
3263.50964,0.07559
3261.58085,0.07634
3259.65206,0.07665
3257.72327,0.07660
3255.79448,0.07663
3253.86570,0.07683
3251.93691,0.07710
3250.00812,0.07714
3248.07933,0.07697
3246.15054,0.07716
3244.22175,0.07762
3242.29297,0.07762
3240.36418,0.07733
3238.43539,0.07736
3236.50660,0.07755
3234.57781,0.07733
3232.64903,0.07676
3230.72024,0.07623
3228.79145,0.07610
3226.86266,0.07655
3224.93387,0.07709
3223.00508,0.07719
3221.07630,0.07687
3219.14751,0.07643
3217.21872,0.07613
3215.28993,0.07603
3213.36114,0.07624
3211.43236,0.07659
3209.50357,0.07645
3207.57478,0.07569
3205.64599,0.07533
3203.71720,0.07575
3201.78841,0.07611
3199.85963,0.07585
3197.93084,0.07547
3196.00205,0.07535
3194.07326,0.07528
3192.14447,0.07516
3190.21569,0.07516
3188.28690,0.07531
3186.35811,0.07550
3184.42932,0.07560
3182.50053,0.07565
3180.57174,0.07579
3178.64296,0.07586
3176.71417,0.07589
3174.78538,0.07614
3172.85659,0.07634
3170.92780,0.07622
3168.99902,0.07594
3167.07023,0.07553
3165.14144,0.07517
3163.21265,0.07521
3161.28386,0.07561
3159.35507,0.07580
3157.42629,0.07555
3155.49750,0.07520
3153.56871,0.07503
3151.63992,0.07525
3149.71113,0.07585
3147.78234,0.07616
3145.85356,0.07589
3143.92477,0.07556
3141.99598,0.07542
3140.06719,0.07526
3138.13840,0.07497
3136.20962,0.07453
3134.28083,0.07409
3132.35204,0.07387
3130.42325,0.07373
3128.49446,0.07346
3126.56567,0.07318
3124.63689,0.07297
3122.70810,0.07262
3120.77931,0.07230
3118.85052,0.07234
3116.92173,0.07253
3114.99295,0.07257
3113.06416,0.07243
3111.13537,0.07211
3109.20658,0.07170
3107.27779,0.07111
3105.34900,0.07028
3103.42022,0.06961
3101.49143,0.06937
3099.56264,0.06915
3097.63385,0.06863
3095.70506,0.06809
3093.77628,0.06793
3091.84749,0.06800
3089.91870,0.06778
3087.98991,0.06720
3086.06112,0.06668
3084.13233,0.06634
3082.20355,0.06604
3080.27476,0.06592
3078.34597,0.06600
3076.41718,0.06613
3074.48839,0.06618
3072.55961,0.06595
3070.63082,0.06543
3068.70203,0.06480
3066.77324,0.06422
3064.84445,0.06393
3062.91566,0.06401
3060.98688,0.06412
3059.05809,0.06410
3057.12930,0.06401
3055.20051,0.06389
3053.27172,0.06387
3051.34293,0.06402
3049.41415,0.06427
3047.48536,0.06447
3045.55657,0.06435
3043.62778,0.06402
3041.69899,0.06380
3039.77021,0.06380
3037.84142,0.06384
3035.91263,0.06361
3033.98384,0.06317
3032.05505,0.06282
3030.12626,0.06255
3028.19748,0.06212
3026.26869,0.06159
3024.33990,0.06116
3022.41111,0.06098
3020.48232,0.06095
3018.55354,0.06071
3016.62475,0.06035
3014.69596,0.06011
3012.76717,0.05982
3010.83838,0.05942
3008.90959,0.05920
3006.98081,0.05936
3005.05202,0.05954
3003.12323,0.05931
3001.19444,0.05886
2999.26565,0.05853
2997.33687,0.05835
2995.40808,0.05817
2993.47929,0.05788
2991.55050,0.05759
2989.62171,0.05751
2987.69292,0.05763
2985.76414,0.05774
2983.83535,0.05751
2981.90656,0.05704
2979.97777,0.05685
2978.04898,0.05685
2976.12019,0.05667
2974.19141,0.05645
2972.26262,0.05634
2970.33383,0.05636
2968.40504,0.05661
2966.47625,0.05719
2964.54747,0.05798
2962.61868,0.05880
2960.68989,0.05958
2958.76110,0.06013
2956.83231,0.06035
2954.90352,0.06048
2952.97474,0.06065
2951.04595,0.06081
2949.11716,0.06087
2947.18837,0.06072
2945.25958,0.06060
2943.33080,0.06051
2941.40201,0.06016
2939.47322,0.05973
2937.54443,0.05964
2935.61564,0.06001
2933.68685,0.06063
2931.75807,0.06115
2929.82928,0.06157
2927.90049,0.06199
2925.97170,0.06243
2924.04291,0.06288
2922.11413,0.06321
2920.18534,0.06333
2918.25655,0.06326
2916.32776,0.06306
2914.39897,0.06291
2912.47018,0.06313
2910.54140,0.06369
2908.61261,0.06412
2906.68382,0.06413
2904.75503,0.06379
2902.82624,0.06353
2900.89746,0.06364
2898.96867,0.06391
2897.03988,0.06395
2895.11109,0.06367
2893.18230,0.06325
2891.25351,0.06290
2889.32473,0.06275
2887.39594,0.06275
2885.46715,0.06268
2883.53836,0.06243
2881.60957,0.06207
2879.68078,0.06182
2877.75200,0.06189
2875.82321,0.06234
2873.89442,0.06285
2871.96563,0.06306
2870.03684,0.06310
2868.10806,0.06316
2866.17927,0.06325
2864.25048,0.06346
2862.32169,0.06386
2860.39290,0.06422
2858.46411,0.06429
2856.53533,0.06421
2854.60654,0.06414
2852.67775,0.06414
2850.74896,0.06431
2848.82017,0.06447
2846.89139,0.06445
2844.96260,0.06440
2843.03381,0.06435
2841.10502,0.06415
2839.17623,0.06388
2837.24744,0.06381
2835.31866,0.06388
2833.38987,0.06378
2831.46108,0.06363
2829.53229,0.06372
2827.60350,0.06383
2825.67472,0.06370
2823.74593,0.06341
2821.81714,0.06316
2819.88835,0.06310
2817.95956,0.06319
2816.03077,0.06326
2814.10199,0.06341
2812.17320,0.06379
2810.24441,0.06427
2808.31562,0.06471
2806.38683,0.06488
2804.45805,0.06481
2802.52926,0.06471
2800.60047,0.06470
2798.67168,0.06492
2796.74289,0.06538
2794.81410,0.06584
2792.88532,0.06623
2790.95653,0.06672
2789.02774,0.06725
2787.09895,0.06752
2785.17016,0.06765
2783.24137,0.06792
2781.31259,0.06822
2779.38380,0.06847
2777.45501,0.06893
2775.52622,0.06948
2773.59743,0.06960
2771.66865,0.06935
2769.73986,0.06920
2767.81107,0.06929
2765.88228,0.06944
2763.95349,0.06943
2762.02470,0.06931
2760.09592,0.06921
2758.16713,0.06919
2756.23834,0.06934
2754.30955,0.06963
2752.38076,0.06976
2750.45198,0.06950
2748.52319,0.06908
2746.59440,0.06870
2744.66561,0.06826
2742.73682,0.06788
2740.80803,0.06781
2738.87925,0.06778
2736.95046,0.06756
2735.02167,0.06749
2733.09288,0.06779
2731.16409,0.06812
2729.23531,0.06833
2727.30652,0.06871
2725.37773,0.06932
2723.44894,0.06982
2721.52015,0.07009
2719.59136,0.07036
2717.66258,0.07080
2715.73379,0.07126
2713.80500,0.07154
2711.87621,0.07171
2709.94742,0.07198
2708.01863,0.07229
2706.08985,0.07245
2704.16106,0.07252
2702.23227,0.07264
2700.30348,0.07277
2698.37469,0.07305
2696.44591,0.07349
2694.51712,0.07375
2692.58833,0.07370
2690.65954,0.07358
2688.73075,0.07356
2686.80196,0.07350
2684.87318,0.07330
2682.94439,0.07304
2681.01560,0.07292
2679.08681,0.07297
2677.15802,0.07307
2675.22924,0.07312
2673.30045,0.07310
2671.37166,0.07310
2669.44287,0.07323
2667.51408,0.07331
2665.58529,0.07326
2663.65651,0.07342
2661.72772,0.07398
2659.79893,0.07462
2657.87014,0.07494
2655.94135,0.07511
2654.01257,0.07541
2652.08378,0.07568
2650.15499,0.07571
2648.22620,0.07569
2646.29741,0.07584
2644.36862,0.07591
2642.43984,0.07575
2640.51105,0.07563
2638.58226,0.07563
2636.65347,0.07546
2634.72468,0.07508
2632.79590,0.07477
2630.86711,0.07468
2628.93832,0.07472
2627.00953,0.07479
2625.08074,0.07478
2623.15195,0.07464
2621.22317,0.07446
2619.29438,0.07436
2617.36559,0.07440
2615.43680,0.07450
2613.50801,0.07454
2611.57922,0.07453
2609.65044,0.07453
2607.72165,0.07448
2605.79286,0.07432
2603.86407,0.07416
2601.93528,0.07417
2600.00650,0.07430
2598.07771,0.07437
2596.14892,0.07440
2594.22013,0.07442
2592.29134,0.07443
2590.36255,0.07443
2588.43377,0.07436
2586.50498,0.07422
2584.57619,0.07421
2582.64740,0.07433
2580.71861,0.07437
2578.78983,0.07429
2576.86104,0.07410
2574.93225,0.07390
2573.00346,0.07399
2571.07467,0.07427
2569.14588,0.07433
2567.21710,0.07427
2565.28831,0.07436
2563.35952,0.07452
2561.43073,0.07480
2559.50194,0.07515
2557.57316,0.07529
2555.64437,0.07524
2553.71558,0.07519
2551.78679,0.07524
2549.85800,0.07533
2547.92921,0.07539
2546.00043,0.07541
2544.07164,0.07552
2542.14285,0.07579
2540.21406,0.07600
2538.28527,0.07614
2536.35649,0.07632
2534.42770,0.07644
2532.49891,0.07645
2530.57012,0.07639
2528.64133,0.07631
2526.71254,0.07640
2524.78376,0.07675
2522.85497,0.07713
2520.92618,0.07740
2518.99739,0.07761
2517.06860,0.07769
2515.13981,0.07768
2513.21103,0.07788
2511.28224,0.07837
2509.35345,0.07881
2507.42466,0.07908
2505.49587,0.07935
2503.56709,0.07952
2501.63830,0.07936
2499.70951,0.07921
2497.78072,0.07949
2495.85193,0.07992
2493.92314,0.08010
2491.99436,0.08008
2490.06557,0.08012
2488.13678,0.08046
2486.20799,0.08092
2484.27920,0.08112
2482.35042,0.08101
2480.42163,0.08097
2478.49284,0.08122
2476.56405,0.08144
2474.63526,0.08145
2472.70647,0.08142
2470.77769,0.08151
2468.84890,0.08164
2466.92011,0.08170
2464.99132,0.08166
2463.06253,0.08162
2461.13375,0.08166
2459.20496,0.08174
2457.27617,0.08179
2455.34738,0.08171
2453.41859,0.08153
2451.48980,0.08137
2449.56102,0.08124
2447.63223,0.08116
2445.70344,0.08112
2443.77465,0.08106
2441.84586,0.08102
2439.91707,0.08098
2437.98829,0.08086
2436.05950,0.08067
2434.13071,0.08050
2432.20192,0.08023
2430.27313,0.07979
2428.34435,0.07938
2426.41556,0.07895
2424.48677,0.07851
2422.55798,0.07822
2420.62919,0.07809
2418.70040,0.07807
2416.77162,0.07812
2414.84283,0.07805
2412.91404,0.07771
2410.98525,0.07739
2409.05646,0.07738
2407.12768,0.07743
2405.19889,0.07728
2403.27010,0.07699
2401.34131,0.07668
2399.41252,0.07642
2397.48373,0.07626
2395.55495,0.07609
2393.62616,0.07578
2391.69737,0.07546
2389.76858,0.07536
2387.83979,0.07542
2385.91101,0.07538
2383.98222,0.07513
2382.05343,0.07489
2380.12464,0.07489
2378.19585,0.07509
2376.26706,0.07522
2374.33828,0.07519
2372.40949,0.07526
2370.48070,0.07550
2368.55191,0.07576
2366.62312,0.07620
2364.69434,0.07686
2362.76555,0.07733
2360.83676,0.07754
2358.90797,0.07781
2356.97918,0.07815
2355.05039,0.07841
2353.12161,0.07866
2351.19282,0.07899
2349.26403,0.07923
2347.33524,0.07940
2345.40645,0.07982
2343.47766,0.08061
2341.54888,0.08140
2339.62009,0.08178
2337.69130,0.08172
2335.76251,0.08158
2333.83372,0.08184
2331.90494,0.08236
2329.97615,0.08272
2328.04736,0.08287
2326.11857,0.08282
2324.18978,0.08271
2322.26099,0.08284
2320.33221,0.08316
2318.40342,0.08344
2316.47463,0.08361
2314.54584,0.08363
2312.61705,0.08353
2310.68827,0.08347
2308.75948,0.08354
2306.83069,0.08360
2304.90190,0.08350
2302.97311,0.08338
2301.04432,0.08332
2299.11554,0.08310
2297.18675,0.08271
2295.25796,0.08237
2293.32917,0.08214
2291.40038,0.08192
2289.47160,0.08159
2287.54281,0.08114
2285.61402,0.08065
2283.68523,0.08030
2281.75644,0.08011
2279.82765,0.07989
2277.89887,0.07975
2275.97008,0.07991
2274.04129,0.08030
2272.11250,0.08063
2270.18371,0.08070
2268.25493,0.08067
2266.32614,0.08089
2264.39735,0.08128
2262.46856,0.08152
2260.53977,0.08157
2258.61098,0.08151
2256.68220,0.08141
2254.75341,0.08136
2252.82462,0.08141
2250.89583,0.08145
2248.96704,0.08142
2247.03825,0.08137
2245.10947,0.08136
2243.18068,0.08134
2241.25189,0.08125
2239.32310,0.08115
2237.39431,0.08119
2235.46553,0.08119
2233.53674,0.08096
2231.60795,0.08086
2229.67916,0.08108
2227.75037,0.08139
2225.82158,0.08168
2223.89280,0.08194
2221.96401,0.08209
2220.03522,0.08210
2218.10643,0.08194
2216.17764,0.08182
2214.24886,0.08195
2212.32007,0.08222
2210.39128,0.08238
2208.46249,0.08245
2206.53370,0.08259
2204.60491,0.08293
2202.67613,0.08341
2200.74734,0.08381
2198.81855,0.08410
2196.88976,0.08428
2194.96097,0.08435
2193.03219,0.08444
2191.10340,0.08457
2189.17461,0.08483
2187.24582,0.08528
2185.31703,0.08555
2183.38824,0.08549
2181.45946,0.08540
2179.53067,0.08550
2177.60188,0.08568
2175.67309,0.08587
2173.74430,0.08615
2171.81551,0.08639
2169.88673,0.08634
2167.95794,0.08606
2166.02915,0.08582
2164.10036,0.08570
2162.17157,0.08555
2160.24279,0.08522
2158.31400,0.08489
2156.38521,0.08478
2154.45642,0.08498
2152.52763,0.08531
2150.59884,0.08554
2148.67006,0.08554
2146.74127,0.08538
2144.81248,0.08502
2142.88369,0.08468
2140.95490,0.08474
2139.02612,0.08504
2137.09733,0.08509
2135.16854,0.08489
2133.23975,0.08467
2131.31096,0.08445
2129.38217,0.08426
2127.45339,0.08416
2125.52460,0.08429
2123.59581,0.08458
2121.66702,0.08469
2119.73823,0.08451
2117.80945,0.08423
2115.88066,0.08405
2113.95187,0.08407
2112.02308,0.08421
2110.09429,0.08429
2108.16550,0.08422
2106.23672,0.08403
2104.30793,0.08384
2102.37914,0.08381
2100.45035,0.08392
2098.52156,0.08405
2096.59278,0.08416
2094.66399,0.08416
2092.73520,0.08397
2090.80641,0.08374
2088.87762,0.08355
2086.94883,0.08337
2085.02005,0.08321
2083.09126,0.08307
2081.16247,0.08295
2079.23368,0.08285
2077.30489,0.08278
2075.37610,0.08282
2073.44732,0.08295
2071.51853,0.08301
2069.58974,0.08287
2067.66095,0.08260
2065.73216,0.08242
2063.80338,0.08255
2061.87459,0.08288
2059.94580,0.08322
2058.01701,0.08347
2056.08822,0.08348
2054.15943,0.08325
2052.23065,0.08308
2050.30186,0.08328
2048.37307,0.08373
2046.44428,0.08408
2044.51549,0.08416
2042.58671,0.08406
2040.65792,0.08394
2038.72913,0.08392
2036.80034,0.08413
2034.87155,0.08440
2032.94276,0.08447
2031.01398,0.08432
2029.08519,0.08415
2027.15640,0.08416
2025.22761,0.08445
2023.29882,0.08490
2021.37004,0.08524
2019.44125,0.08531
2017.51246,0.08512
2015.58367,0.08489
2013.65488,0.08487
2011.72609,0.08513
2009.79731,0.08545
2007.86852,0.08554
2005.93973,0.08533
2004.01094,0.08500
2002.08215,0.08482
2000.15336,0.08485
1998.22458,0.08484
1996.29579,0.08459
1994.36700,0.08416
1992.43821,0.08358
1990.50942,0.08300
1988.58064,0.08270
1986.65185,0.08271
1984.72306,0.08285
1982.79427,0.08286
1980.86548,0.08258
1978.93669,0.08215
1977.00791,0.08185
1975.07912,0.08174
1973.15033,0.08163
1971.22154,0.08135
1969.29275,0.08086
1967.36397,0.08012
1965.43518,0.07924
1963.50639,0.07838
1961.57760,0.07761
1959.64881,0.07676
1957.72002,0.07567
1955.79124,0.07439
1953.86245,0.07317
1951.93366,0.07228
1950.00487,0.07195
1948.07608,0.07222
1946.14730,0.07280
1944.21851,0.07341
1942.28972,0.07399
1940.36093,0.07469
1938.43214,0.07546
1936.50335,0.07626
1934.57457,0.07714
1932.64578,0.07796
1930.71699,0.07849
1928.78820,0.07872
1926.85941,0.07898
1924.93063,0.07942
1923.00184,0.07996
1921.07305,0.08050
1919.14426,0.08082
1917.21547,0.08076
1915.28668,0.08054
1913.35790,0.08049
1911.42911,0.08080
1909.50032,0.08129
1907.57153,0.08149
1905.64274,0.08123
1903.71395,0.08087
1901.78517,0.08075
1899.85638,0.08089
1897.92759,0.08109
1895.99880,0.08128
1894.07001,0.08140
1892.14123,0.08127
1890.21244,0.08099
1888.28365,0.08095
1886.35486,0.08123
1884.42607,0.08156
1882.49728,0.08166
1880.56850,0.08145
1878.63971,0.08115
1876.71092,0.08095
1874.78213,0.08089
1872.85334,0.08108
1870.92456,0.08131
1868.99577,0.08111
1867.06698,0.08062
1865.13819,0.08032
1863.20940,0.08013
1861.28061,0.07991
1859.35183,0.07964
1857.42304,0.07917
1855.49425,0.07843
1853.56546,0.07765
1851.63667,0.07705
1849.70789,0.07661
1847.77910,0.07628
1845.85031,0.07581
1843.92152,0.07486
1841.99273,0.07393
1840.06394,0.07339
1838.13516,0.07288
1836.20637,0.07216
1834.27758,0.07130
1832.34879,0.07020
1830.42000,0.06876
1828.49122,0.06758
1826.56243,0.06715
1824.63364,0.06699
1822.70485,0.06678
1820.77606,0.06656
1818.84727,0.06650
1816.91849,0.06672
1814.98970,0.06714
1813.06091,0.06749
1811.13212,0.06751
1809.20333,0.06731
1807.27454,0.06717
1805.34576,0.06710
1803.41697,0.06705
1801.48818,0.06686
1799.55939,0.06650
1797.63060,0.06593
1795.70182,0.06526
1793.77303,0.06471
1791.84424,0.06417
1789.91545,0.06358
1787.98666,0.06311
1786.05787,0.06273
1784.12909,0.06245
1782.20030,0.06222
1780.27151,0.06171
1778.34272,0.06100
1776.41393,0.06050
1774.48515,0.06010
1772.55636,0.05940
1770.62757,0.05865
1768.69878,0.05830
1766.76999,0.05809
1764.84120,0.05779
1762.91242,0.05728
1760.98363,0.05659
1759.05484,0.05612
1757.12605,0.05579
1755.19726,0.05530
1753.26848,0.05485
1751.33969,0.05457
1749.41090,0.05416
1747.48211,0.05345
1745.55332,0.05280
1743.62453,0.05243
1741.69575,0.05215
1739.76696,0.05162
1737.83817,0.05100
1735.90938,0.05053
1733.98059,0.05014
1732.05180,0.05019
1730.12302,0.05083
1728.19423,0.05201
1726.26544,0.05385
1724.33665,0.05645
1722.40786,0.05927
1720.47908,0.06164
1718.55029,0.06399
1716.62150,0.06696
1714.69271,0.06951
1712.76392,0.07080
1710.83513,0.07100
1708.90635,0.07044
1706.97756,0.06942
1705.04877,0.06825
1703.11998,0.06723
1701.19119,0.06598
1699.26241,0.06463
1697.33362,0.06390
1695.40483,0.06317
1693.47604,0.06253
1691.54725,0.06226
1689.61846,0.06224
1687.68968,0.06231
1685.76089,0.06221
1683.83210,0.06170
1681.90331,0.06116
1679.97452,0.06097
1678.04574,0.06101
1676.11695,0.06100
1674.18816,0.06088
1672.25937,0.06092
1670.33058,0.06110
1668.40179,0.06136
1666.47301,0.06172
1664.54422,0.06207
1662.61543,0.06246
1660.68664,0.06305
1658.75785,0.06360
1656.82907,0.06388
1654.90028,0.06385
1652.97149,0.06363
1651.04270,0.06367
1649.11391,0.06370
1647.18512,0.06315
1645.25634,0.06232
1643.32755,0.06180
1641.39876,0.06130
1639.46997,0.06088
1637.54118,0.06068
1635.61239,0.06075
1633.68361,0.06146
1631.75482,0.06254
1629.82603,0.06353
1627.89724,0.06419
1625.96845,0.06448
1624.03967,0.06444
1622.11088,0.06422
1620.18209,0.06411
1618.25330,0.06382
1616.32451,0.06295
1614.39572,0.06224
1612.46694,0.06208
1610.53815,0.06233
1608.60936,0.06288
1606.68057,0.06353
1604.75178,0.06414
1602.82300,0.06456
1600.89421,0.06468
1598.96542,0.06486
1597.03663,0.06525
1595.10784,0.06538
1593.17905,0.06502
1591.25027,0.06451
1589.32148,0.06392
1587.39269,0.06300
1585.46390,0.06167
1583.53511,0.06028
1581.60633,0.05936
1579.67754,0.05900
1577.74875,0.05881
1575.81996,0.05878
1573.89117,0.05925
1571.96238,0.05986
1570.03360,0.06039
1568.10481,0.06070
1566.17602,0.06067
1564.24723,0.06057
1562.31844,0.06066
1560.38966,0.06083
1558.46087,0.06096
1556.53208,0.06119
1554.60329,0.06128
1552.67450,0.06121
1550.74571,0.06108
1548.81693,0.06104
1546.88814,0.06119
1544.95935,0.06112
1543.03056,0.06041
1541.10177,0.05949
1539.17298,0.05934
1537.24420,0.05992
1535.31541,0.06044
1533.38662,0.06045
1531.45783,0.06002
1529.52904,0.05983
1527.60026,0.06008
1525.67147,0.06057
1523.74268,0.06083
1521.81389,0.06053
1519.88510,0.05999
1517.95631,0.05979
1516.02753,0.05982
1514.09874,0.05963
1512.16995,0.05907
1510.24116,0.05836
1508.31237,0.05752
1506.38359,0.05656
1504.45480,0.05652
1502.52601,0.05708
1500.59722,0.05772
1498.66843,0.05827
1496.73964,0.05862
1494.81086,0.05866
1492.88207,0.05849
1490.95328,0.05819
1489.02449,0.05772
1487.09570,0.05711
1485.16692,0.05658
1483.23813,0.05623
1481.30934,0.05595
1479.38055,0.05568
1477.45176,0.05534
1475.52297,0.05484
1473.59419,0.05437
1471.66540,0.05424
1469.73661,0.05444
1467.80782,0.05490
1465.87903,0.05561
1463.95024,0.05632
1462.02146,0.05672
1460.09267,0.05689
1458.16388,0.05695
1456.23509,0.05717
1454.30630,0.05745
1452.37752,0.05755
1450.44873,0.05747
1448.51994,0.05720
1446.59115,0.05679
1444.66236,0.05643
1442.73357,0.05613
1440.80479,0.05587
1438.87600,0.05578
1436.94721,0.05603
1435.01842,0.05645
1433.08963,0.05659
1431.16085,0.05643
1429.23206,0.05635
1427.30327,0.05667
1425.37448,0.05716
1423.44569,0.05753
1421.51690,0.05766
1419.58812,0.05745
1417.65933,0.05707
1415.73054,0.05689
1413.80175,0.05677
1411.87296,0.05674
1409.94418,0.05708
1408.01539,0.05765
1406.08660,0.05795
1404.15781,0.05773
1402.22902,0.05735
1400.30023,0.05712
1398.37145,0.05696
1396.44266,0.05671
1394.51387,0.05610
1392.58508,0.05549
1390.65629,0.05528
1388.72751,0.05527
1386.79872,0.05529
1384.86993,0.05540
1382.94114,0.05565
1381.01235,0.05609
1379.08356,0.05656
1377.15478,0.05680
1375.22599,0.05679
1373.29720,0.05665
1371.36841,0.05650
1369.43962,0.05632
1367.51083,0.05603
1365.58205,0.05574
1363.65326,0.05557
1361.72447,0.05541
1359.79568,0.05520
1357.86689,0.05496
1355.93811,0.05471
1354.00932,0.05445
1352.08053,0.05422
1350.15174,0.05412
1348.22295,0.05411
1346.29416,0.05397
1344.36538,0.05354
1342.43659,0.05299
1340.50780,0.05268
1338.57901,0.05278
1336.65022,0.05301
1334.72144,0.05318
1332.79265,0.05336
1330.86386,0.05360
1328.93507,0.05380
1327.00628,0.05382
1325.07749,0.05373
1323.14871,0.05363
1321.21992,0.05345
1319.29113,0.05325
1317.36234,0.05320
1315.43355,0.05317
1313.50477,0.05288
1311.57598,0.05242
1309.64719,0.05212
1307.71840,0.05207
1305.78961,0.05212
1303.86082,0.05190
1301.93204,0.05126
1300.00325,0.05055
1298.07446,0.04994
1296.14567,0.04936
1294.21688,0.04870
1292.28810,0.04796
1290.35931,0.04728
1288.43052,0.04677
1286.50173,0.04668
1284.57294,0.04720
1282.64415,0.04826
1280.71537,0.04977
1278.78658,0.05182
1276.85779,0.05451
1274.92900,0.05798
1273.00021,0.06215
1271.07142,0.06653
1269.14264,0.07044
1267.21385,0.07320
1265.28506,0.07432
1263.35627,0.07397
1261.42748,0.07278
1259.49870,0.07131
1257.56991,0.07014
1255.64112,0.06972
1253.71233,0.07011
1251.78354,0.07105
1249.85475,0.07238
1247.92597,0.07365
1245.99718,0.07437
1244.06839,0.07460
1242.13960,0.07460
1240.21081,0.07431
1238.28203,0.07381
1236.35324,0.07322
1234.42445,0.07238
1232.49566,0.07138
1230.56687,0.07057
1228.63808,0.07008
1226.70930,0.06972
1224.78051,0.06920
1222.85172,0.06836
1220.92293,0.06747
1218.99414,0.06685
1217.06536,0.06651
1215.13657,0.06624
1213.20778,0.06587
1211.27899,0.06536
1209.35020,0.06485
1207.42141,0.06452
1205.49263,0.06434
1203.56384,0.06414
1201.63505,0.06394
1199.70626,0.06377
1197.77747,0.06361
1195.84868,0.06349
1193.91990,0.06337
1191.99111,0.06309
1190.06232,0.06282
1188.13353,0.06283
1186.20474,0.06299
1184.27596,0.06298
1182.34717,0.06269
1180.41838,0.06219
1178.48959,0.06161
1176.56080,0.06120
1174.63201,0.06106
1172.70323,0.06112
1170.77444,0.06116
1168.84565,0.06100
1166.91686,0.06075
1164.98807,0.06056
1163.05929,0.06026
1161.13050,0.05991
1159.20171,0.05973
1157.27292,0.05948
1155.34413,0.05898
1153.41534,0.05868
1151.48656,0.05885
1149.55777,0.05906
1147.62898,0.05894
1145.70019,0.05859
1143.77140,0.05811
1141.84262,0.05744
1139.91383,0.05675
1137.98504,0.05635
1136.05625,0.05597
1134.12746,0.05517
1132.19867,0.05424
1130.26989,0.05370
1128.34110,0.05362
1126.41231,0.05417
1124.48352,0.05551
1122.55473,0.05731
1120.62595,0.05937
1118.69716,0.06176
1116.76837,0.06403
1114.83958,0.06549
1112.91079,0.06608
1110.98200,0.06605
1109.05322,0.06544
1107.12443,0.06510
1105.19564,0.06628
1103.26685,0.06873
1101.33806,0.07106
1099.40927,0.07229
1097.48049,0.07240
1095.55170,0.07167
1093.62291,0.07041
1091.69412,0.06907
1089.76533,0.06800
1087.83655,0.06748
1085.90776,0.06760
1083.97897,0.06808
1082.05018,0.06836
1080.12139,0.06810
1078.19260,0.06746
1076.26382,0.06695
1074.33503,0.06676
1072.40624,0.06646
1070.47745,0.06594
1068.54866,0.06573
1066.61988,0.06580
1064.69109,0.06571
1062.76230,0.06545
1060.83351,0.06512
1058.90472,0.06470
1056.97593,0.06423
1055.04715,0.06399
1053.11836,0.06420
1051.18957,0.06441
1049.26078,0.06419
1047.33199,0.06383
1045.40321,0.06367
1043.47442,0.06360
1041.54563,0.06348
1039.61684,0.06344
1037.68805,0.06339
1035.75926,0.06300
1033.83048,0.06253
1031.90169,0.06236
1029.97290,0.06217
1028.04411,0.06173
1026.11532,0.06114
1024.18654,0.06052
1022.25775,0.06067
1020.32896,0.06248
1018.40017,0.06511
1016.47138,0.06650
1014.54259,0.06596
1012.61381,0.06482
1010.68502,0.06403
1008.75623,0.06346
1006.82744,0.06308
1004.89865,0.06288
1002.96986,0.06250
1001.04108,0.06197
999.11229,0.06172
997.18350,0.06177
995.25471,0.06177
993.32592,0.06151
991.39714,0.06134
989.46835,0.06154
987.53956,0.06182
985.61077,0.06181
983.68198,0.06160
981.75319,0.06149
979.82441,0.06155
977.89562,0.06181
975.96683,0.06212
974.03804,0.06233
972.10925,0.06247
970.18047,0.06252
968.25168,0.06242
966.32289,0.06230
964.39410,0.06225
962.46531,0.06248
960.53652,0.06306
958.60774,0.06375
956.67895,0.06433
954.75016,0.06473
952.82137,0.06489
950.89258,0.06489
948.96380,0.06489
947.03501,0.06499
945.10622,0.06499
943.17743,0.06473
941.24864,0.06454
939.31985,0.06463
937.39107,0.06471
935.46228,0.06461
933.53349,0.06439
931.60470,0.06438
929.67591,0.06469
927.74712,0.06478
925.81834,0.06432
923.88955,0.06393
921.96076,0.06403
920.03197,0.06422
918.10318,0.06413
916.17440,0.06389
914.24561,0.06371
912.31682,0.06359
910.38803,0.06355
908.45924,0.06351
906.53045,0.06338
904.60167,0.06327
902.67288,0.06326
900.74409,0.06332
898.81530,0.06347
896.88651,0.06364
894.95773,0.06360
893.02894,0.06324
891.10015,0.06285
889.17136,0.06286
887.24257,0.06292
885.31378,0.06248
883.38500,0.06178
881.45621,0.06145
879.52742,0.06172
877.59863,0.06244
875.66984,0.06318
873.74106,0.06360
871.81227,0.06381
869.88348,0.06412
867.95469,0.06432
866.02590,0.06424
864.09711,0.06402
862.16833,0.06364
860.23954,0.06320
858.31075,0.06312
856.38196,0.06336
854.45317,0.06324
852.52439,0.06264
850.59560,0.06227
848.66681,0.06233
846.73802,0.06263
844.80923,0.06280
842.88044,0.06241
840.95166,0.06204
839.02287,0.06233
837.09408,0.06284
835.16529,0.06305
833.23650,0.06294
831.30771,0.06257
829.37893,0.06227
827.45014,0.06223
825.52135,0.06242
823.59256,0.06295
821.66377,0.06374
819.73499,0.06408
817.80620,0.06332
815.87741,0.06249
813.94862,0.06299
812.01983,0.06419
810.09104,0.06461
808.16226,0.06387
806.23347,0.06274
804.30468,0.06230
802.37589,0.06296
800.44710,0.06388
798.51832,0.06359
796.58953,0.06213
794.66074,0.06108
792.73195,0.06115
790.80316,0.06181
788.87437,0.06215
786.94559,0.06143
785.01680,0.06003
783.08801,0.05929
781.15922,0.05959
779.23043,0.06031
777.30165,0.06097
775.37286,0.06109
773.44407,0.06042
771.51528,0.05941
769.58649,0.05892
767.65770,0.05938
765.72892,0.06018
763.80013,0.06061
761.87134,0.06045
759.94255,0.06011
758.01376,0.06046
756.08498,0.06115
754.15619,0.06063
752.22740,0.05897
750.29861,0.05794
748.36982,0.05779
746.44103,0.05706
744.51225,0.05564
742.58346,0.05447
740.65467,0.05338
738.72588,0.05214
736.79709,0.05185
734.86830,0.05429
732.93952,0.05962
731.01073,0.06546
729.08194,0.06910
727.15315,0.06958
725.22436,0.06796
723.29558,0.06600
721.36679,0.06438
719.43800,0.06298
717.50921,0.06196
715.58042,0.06131
713.65163,0.06072
711.72285,0.06011
709.79406,0.05956
707.86527,0.05916
705.93648,0.05905
704.00769,0.05914
702.07891,0.05920
700.15012,0.05917
698.22133,0.05926
696.29254,0.05956
694.36375,0.05994
692.43496,0.06025
690.50618,0.06044
688.57739,0.06073
686.64860,0.06115
684.71981,0.06141
682.79102,0.06150
680.86224,0.06163
678.93345,0.06160
677.00466,0.06111
675.07587,0.06053
673.14708,0.06039
671.21829,0.06066
669.28951,0.06097
667.36072,0.06081
665.43193,0.05996
663.50314,0.05874
661.57435,0.05781
659.64556,0.05776
657.71678,0.05822
655.78799,0.05828
653.85920,0.05756
651.93041,0.05693
650.00162,0.05720
648.07284,0.05757
646.14405,0.05731
644.21526,0.05696
642.28647,0.05733
640.35768,0.05827
638.42889,0.05884
636.50011,0.05885
634.57132,0.05924
632.64253,0.06032
630.71374,0.06090
628.78495,0.06042
626.85617,0.06003
624.92738,0.06059
622.99859,0.06163
621.06980,0.06220
619.14101,0.06213
617.21222,0.06241
615.28344,0.06333
613.35465,0.06407
611.42586,0.06475
609.49707,0.06572
607.56828,0.06662
605.63950,0.06734
603.71071,0.06731
601.78192,0.06644
599.85313,0.06587
