7496.90619,0.00800
7494.97747,0.00716
7493.04876,0.01974
7491.12005,0.02733
7489.19134,0.01713
7487.26262,0.01990
7485.33391,0.00648
7483.40520,0.01274
7481.47648,0.01801
7479.54777,0.02188
7477.61906,0.02337
7475.69035,0.01678
7473.76163,0.00994
7471.83292,0.02121
7469.90421,0.03405
7467.97550,0.02970
7466.04678,0.01414
7464.11807,0.02406
7462.18936,0.02478
7460.26065,0.01217
7458.33193,0.02036
7456.40322,0.03768
7454.47451,0.02921
7452.54579,0.01641
7450.61708,0.02289
7448.68837,0.03471
7446.75966,0.02952
7444.83094,0.01778
7442.90223,0.01259
7440.97352,0.00945
7439.04481,0.01105
7437.11609,0.02709
7435.18738,0.02822
7433.25867,0.02970
7431.32996,0.02709
7429.40124,0.01172
7427.47253,-0.00141
7425.54382,0.03578
7423.61510,0.03924
7421.68639,0.03227
7419.75768,0.02352
7417.82897,0.00686
7415.90025,0.01618
7413.97154,0.02211
7412.04283,0.01061
7410.11412,0.01010
7408.18540,0.02070
7406.25669,0.02872
7404.32798,0.02438
7402.39927,0.01176
7400.47055,0.00544
7398.54184,0.01766
7396.61313,0.03856
7394.68441,0.04291
7392.75570,0.02313
7390.82699,0.01273
7388.89828,0.02752
7386.96956,0.04089
7385.04085,0.03755
7383.11214,0.02431
7381.18343,0.01498
7379.25471,0.02184
7377.32600,0.02732
7375.39729,0.02351
7373.46857,0.02629
7371.53986,0.03296
7369.61115,0.02853
7367.68244,0.01789
7365.75372,0.01164
7363.82501,0.01615
7361.89630,0.01979
7359.96759,0.01992
7358.03887,0.02539
7356.11016,0.03059
7354.18145,0.02680
7352.25274,0.02752
7350.32402,0.02829
7348.39531,0.01966
7346.46660,0.00773
7344.53788,0.00313
7342.60917,0.00710
7340.68046,0.02194
7338.75175,0.02317
7336.82303,0.01518
7334.89432,0.00862
7332.96561,0.01122
7331.03690,0.01800
7329.10818,0.02174
7327.17947,0.02032
7325.25076,0.02006
7323.32205,0.02358
7321.39333,0.01699
7319.46462,0.00398
7317.53591,0.00170
7315.60719,0.01010
7313.67848,0.02056
7311.74977,0.00791
7309.82106,0.01423
7307.89234,0.02897
7305.96363,0.03465
7304.03492,0.02506
7302.10621,0.01140
7300.17749,0.00474
7298.24878,0.00695
7296.32007,0.01895
7294.39136,0.02472
7292.46264,0.01118
7290.53393,0.00776
7288.60522,0.01789
7286.67650,0.02120
7284.74779,0.01506
7282.81908,0.01285
7280.89037,0.01353
7278.96165,0.01639
7277.03294,0.02028
7275.10423,0.01890
7273.17552,0.00686
7271.24680,0.00644
7269.31809,0.01955
7267.38938,0.01563
7265.46066,0.01481
7263.53195,0.02658
7261.60324,0.02917
7259.67453,0.02556
7257.74581,0.02080
7255.81710,0.01727
7253.88839,0.00623
7251.95968,0.00928
7250.03096,0.01845
7248.10225,0.00902
7246.17354,0.00350
7244.24483,0.01054
7242.31611,0.01153
7240.38740,0.01944
7238.45869,0.02100
7236.52997,0.02470
7234.60126,0.03060
7232.67255,0.02297
7230.74384,0.01250
7228.81512,0.01733
7226.88641,0.02407
7224.95770,0.02306
7223.02899,0.01874
7221.10027,0.01377
7219.17156,0.01181
7217.24285,0.01700
7215.31414,0.02150
7213.38542,0.01873
7211.45671,0.01033
7209.52800,0.02894
7207.59928,0.03075
7205.67057,0.02615
7203.74186,0.02010
7201.81315,0.01223
7199.88443,0.00629
7197.95572,0.00537
7196.02701,0.00671
7194.09830,0.00490
7192.16958,0.01166
7190.24087,0.01111
7188.31216,0.00630
7186.38344,0.01152
7184.45473,0.02028
7182.52602,0.01500
7180.59731,0.00768
7178.66859,0.02180
7176.73988,0.02041
7174.81117,0.00841
7172.88246,0.00313
7170.95374,0.01505
7169.02503,0.02324
7167.09632,0.02591
7165.16761,0.03222
7163.23889,0.03865
7161.31018,0.03572
7159.38147,0.02337
7157.45275,0.01132
7155.52404,0.01617
7153.59533,0.01710
7151.66662,0.01518
7149.73790,0.01143
7147.80919,0.01480
7145.88048,0.02420
7143.95177,0.02741
7142.02305,0.02119
7140.09434,0.01285
7138.16563,0.00859
7136.23692,0.01200
7134.30820,0.01127
7132.37949,0.01490
7130.45078,0.02426
7128.52206,0.02584
7126.59335,0.01972
7124.66464,0.01743
7122.73593,0.01821
7120.80721,0.01950
7118.87850,0.01848
7116.94979,0.01917
7115.02108,0.02081
7113.09236,0.02558
7111.16365,0.02683
7109.23494,0.02005
7107.30623,0.01407
7105.37751,0.01991
7103.44880,0.02465
7101.52009,0.02316
7099.59137,0.00938
7097.66266,-0.00640
7095.73395,0.00203
7093.80524,0.01944
7091.87652,0.02354
7089.94781,0.01749
7088.01910,0.01235
7086.09039,0.01574
7084.16167,0.01952
7082.23296,0.01731
7080.30425,0.01473
7078.37553,0.01587
7076.44682,0.01438
7074.51811,0.01312
7072.58940,-0.00137
7070.66068,0.00129
7068.73197,0.00871
7066.80326,0.02201
7064.87455,0.03249
7062.94583,0.03572
7061.01712,0.03188
7059.08841,0.02154
7057.15970,0.00791
7055.23098,0.00347
7053.30227,0.00958
7051.37356,0.01452
7049.44484,0.02040
7047.51613,0.02070
7045.58742,0.00962
7043.65871,0.00076
7041.72999,0.00271
7039.80128,0.00294
7037.87257,0.01035
7035.94386,0.01592
7034.01514,0.01669
7032.08643,0.01358
7030.15772,0.01143
7028.22901,0.00778
7026.30029,0.00634
7024.37158,0.00885
7022.44287,0.00877
7020.51415,0.01848
7018.58544,0.03080
7016.65673,0.03350
7014.72802,0.02510
7012.79930,0.01235
7010.87059,0.00734
7008.94188,0.01639
7007.01317,0.02222
7005.08445,0.01769
7003.15574,0.01016
7001.22703,0.00923
6999.29832,0.01465
6997.36960,0.02056
6995.44089,0.02506
6993.51218,0.02780
6991.58346,0.02111
6989.65475,0.01081
6987.72604,0.00619
6985.79733,0.01139
6983.86861,0.00677
6981.93990,0.00812
6980.01119,0.01450
6978.08248,0.01622
6976.15376,0.01373
6974.22505,0.00854
6972.29634,0.00765
6970.36762,0.01983
6968.43891,0.01954
6966.51020,0.00930
6964.58149,0.00346
6962.65277,0.00125
6960.72406,0.00222
6958.79535,0.01093
6956.86664,0.01667
6954.93792,0.01046
6953.00921,0.01119
6951.08050,0.01239
6949.15179,0.01184
6947.22307,0.01053
6945.29436,0.00578
6943.36565,0.00231
6941.43693,0.00533
6939.50822,0.01213
6937.57951,0.01749
6935.65080,0.01877
6933.72208,0.00810
6931.79337,0.00362
6929.86466,0.00562
6927.93595,0.01580
6926.00723,0.02441
6924.07852,0.02384
6922.14981,0.01436
6920.22110,0.01327
6918.29238,0.01609
6916.36367,0.01897
6914.43496,0.01634
6912.50624,0.01283
6910.57753,0.01622
6908.64882,0.01951
6906.72011,0.01586
6904.79139,0.00913
6902.86268,0.01168
6900.93397,0.01958
6899.00526,0.02128
6897.07654,0.01669
6895.14783,0.00932
6893.21912,0.00722
6891.29040,0.01281
6889.36169,0.01563
6887.43298,0.01059
6885.50427,0.00769
6883.57555,0.00470
6881.64684,0.00407
6879.71813,0.00605
6877.78942,0.00965
6875.86070,0.01214
6873.93199,0.01304
6872.00328,0.00878
6870.07457,0.00716
6868.14585,0.01212
6866.21714,0.01550
6864.28843,0.01363
6862.35971,0.00669
6860.43100,-0.00265
6858.50229,0.00782
6856.57358,0.01575
6854.64486,0.01914
6852.71615,0.01226
6850.78744,0.00453
6848.85873,0.00764
6846.93001,0.01311
6845.00130,0.01314
6843.07259,0.01514
6841.14388,0.01737
6839.21516,0.01269
6837.28645,0.00771
6835.35774,0.01052
6833.42902,0.01327
6831.50031,0.01230
6829.57160,0.00944
6827.64289,0.00551
6825.71417,0.00636
6823.78546,0.01541
6821.85675,0.02034
6819.92804,0.02033
6817.99932,0.01712
6816.07061,0.00958
6814.14190,0.00401
6812.21319,0.00488
6810.28447,0.00682
6808.35576,0.00974
6806.42705,0.01352
6804.49833,0.01924
6802.56962,0.01802
6800.64091,0.01685
6798.71220,0.01720
6796.78348,0.01053
6794.85477,0.00543
6792.92606,0.00818
6790.99735,0.01244
6789.06863,0.01531
6787.13992,0.01461
6785.21121,0.01231
6783.28249,0.01343
6781.35378,0.01882
6779.42507,0.02109
6777.49636,0.01814
6775.56764,0.01229
6773.63893,0.00613
6771.71022,-0.00118
6769.78151,0.00440
6767.85279,0.01203
6765.92408,0.01491
6763.99537,0.01497
6762.06666,0.00868
6760.13794,0.00311
6758.20923,0.00929
6756.28052,0.01786
6754.35180,0.02227
6752.42309,0.01650
6750.49438,0.00506
6748.56567,0.00132
6746.63695,0.00525
6744.70824,0.00593
6742.77953,0.00835
6740.85082,0.01650
6738.92210,0.01986
6736.99339,0.01201
6735.06468,0.00832
6733.13597,0.00904
6731.20725,0.01208
6729.27854,0.01230
6727.34983,0.01733
6725.42111,0.01489
6723.49240,0.00952
6721.56369,0.01064
6719.63498,0.01376
6717.70626,0.01264
6715.77755,0.01256
6713.84884,0.01836
6711.92013,0.02335
6709.99141,0.02217
6708.06270,0.02000
6706.13399,0.01821
6704.20528,0.01335
6702.27656,0.00508
6700.34785,0.00311
6698.41914,0.00356
6696.49042,0.01092
6694.56171,0.00872
6692.63300,0.00547
6690.70429,0.00991
6688.77557,0.01817
6686.84686,0.01825
6684.91815,0.01202
6682.98944,0.00692
6681.06072,0.00317
6679.13201,0.00208
6677.20330,0.00484
6675.27458,0.00635
6673.34587,0.00775
6671.41716,0.00966
6669.48845,0.01050
6667.55973,0.01325
6665.63102,0.01334
6663.70231,0.01215
6661.77360,0.01030
6659.84488,0.00830
6657.91617,0.00872
6655.98746,0.00882
6654.05875,0.00450
6652.13003,0.00292
6650.20132,0.00875
6648.27261,0.00925
6646.34389,0.00620
6644.41518,0.00367
6642.48647,0.00602
6640.55776,0.00066
6638.62904,0.00436
6636.70033,0.01125
6634.77162,0.01175
6632.84291,0.00832
6630.91419,0.00895
6628.98548,0.01123
6627.05677,0.00830
6625.12806,0.00145
6623.19934,-0.00047
6621.27063,0.00202
6619.34192,0.00600
6617.41320,0.00458
6615.48449,0.00440
6613.55578,0.00560
6611.62707,0.00951
6609.69835,0.00988
6607.76964,0.00839
6605.84093,0.01285
6603.91222,0.01463
6601.98350,0.00772
6600.05479,0.01142
6598.12608,0.01425
6596.19736,0.01107
6594.26865,0.00797
6592.33994,0.00916
6590.41123,0.01275
6588.48251,0.01444
6586.55380,0.00503
6584.62509,-0.00012
6582.69638,0.01116
6580.76766,0.01756
6578.83895,0.01361
6576.91024,0.00976
6574.98153,0.01163
6573.05281,0.01401
6571.12410,0.01468
6569.19539,0.00899
6567.26667,0.00476
6565.33796,0.01033
6563.40925,0.00745
6561.48054,0.00324
6559.55182,0.00056
6557.62311,0.00289
6555.69440,0.00607
6553.76569,0.00988
6551.83697,0.00934
6549.90826,0.00937
6547.97955,0.00999
6546.05084,0.00911
6544.12212,0.00661
6542.19341,0.00679
6540.26470,0.00684
6538.33598,0.00451
6536.40727,0.00044
6534.47856,0.00742
6532.54985,0.01253
6530.62113,0.01500
6528.69242,0.01298
6526.76371,0.01324
6524.83500,0.01472
6522.90628,0.00903
6520.97757,0.00074
6519.04886,0.00513
6517.12015,0.00560
6515.19143,0.00867
6513.26272,0.01437
6511.33401,0.01584
6509.40529,0.01313
6507.47658,0.01015
6505.54787,0.00702
6503.61916,0.00779
6501.69044,0.00947
6499.76173,0.00653
6497.83302,0.00512
6495.90431,0.00765
6493.97559,0.00546
6492.04688,0.00178
6490.11817,0.00053
6488.18945,0.00234
6486.26074,0.00667
6484.33203,0.01322
6482.40332,0.01704
6480.47460,0.01665
6478.54589,0.01198
6476.61718,0.01004
6474.68847,0.00945
6472.75975,0.00598
6470.83104,-0.00006
6468.90233,0.00920
6466.97362,0.01205
6465.04490,0.01458
6463.11619,0.01387
6461.18748,0.00909
6459.25876,0.00505
6457.33005,0.00355
6455.40134,0.00481
6453.47263,0.01073
6451.54391,0.01433
6449.61520,0.01229
6447.68649,0.00896
6445.75778,0.01323
6443.82906,0.01418
6441.90035,0.00805
6439.97164,0.00421
6438.04293,0.00688
6436.11421,0.01229
6434.18550,0.01345
6432.25679,0.00936
6430.32807,0.00494
6428.39936,0.00382
6426.47065,0.00911
6424.54194,0.01546
6422.61322,0.01655
6420.68451,0.01328
6418.75580,0.01197
6416.82709,0.01212
6414.89837,0.00933
6412.96966,0.00420
6411.04095,0.00694
6409.11224,0.00465
6407.18352,0.00280
6405.25481,0.00265
6403.32610,-0.00164
6401.39738,-0.00084
6399.46867,0.00601
6397.53996,0.01215
6395.61125,0.01040
6393.68253,0.00374
6391.75382,0.00670
6389.82511,0.01056
6387.89640,0.01324
6385.96768,0.01247
6384.03897,0.01240
6382.11026,0.01359
6380.18154,0.01073
6378.25283,0.00645
6376.32412,0.00540
6374.39541,0.00174
6372.46669,0.00183
6370.53798,0.00592
6368.60927,0.00854
6366.68056,0.00808
6364.75184,0.00708
6362.82313,0.00836
6360.89442,0.01053
6358.96571,0.00758
6357.03699,0.00546
6355.10828,0.00694
6353.17957,0.01159
6351.25085,0.00573
6349.32214,0.01074
6347.39343,0.00980
6345.46472,0.01336
6343.53600,0.01450
6341.60729,0.00866
6339.67858,0.00527
6337.74987,0.00730
6335.82115,0.00463
6333.89244,0.00168
6331.96373,0.00456
6330.03502,0.00650
6328.10630,0.00107
6326.17759,0.00435
6324.24888,0.00683
6322.32016,0.00928
6320.39145,0.00678
6318.46274,0.00706
6316.53403,0.01183
6314.60531,0.01228
6312.67660,0.00752
6310.74789,0.00647
6308.81918,0.00756
6306.89046,0.00864
6304.96175,0.00767
6303.03304,0.00776
6301.10432,0.00617
6299.17561,0.00651
6297.24690,0.00867
6295.31819,0.00984
6293.38947,0.01031
6291.46076,0.00898
6289.53205,0.00429
6287.60334,-0.00039
6285.67462,-0.00063
6283.74591,0.01036
6281.81720,0.00893
6279.88849,0.00754
6277.95977,0.00721
6276.03106,0.00710
6274.10235,0.00073
6272.17363,-0.00229
6270.24492,-0.00092
6268.31621,0.00315
6266.38750,0.00434
6264.45878,0.00523
6262.53007,0.01088
6260.60136,0.01615
6258.67265,0.01519
6256.74393,0.01231
6254.81522,0.00914
6252.88651,0.00671
6250.95780,0.00436
6249.02908,0.00524
6247.10037,0.00948
6245.17166,0.00978
6243.24294,0.00569
6241.31423,0.00438
6239.38552,0.00769
6237.45681,0.01033
6235.52809,0.00857
6233.59938,0.00322
6231.67067,0.00180
6229.74196,0.00930
6227.81324,0.00770
6225.88453,0.00791
6223.95582,0.01036
6222.02711,0.01061
6220.09839,0.00618
6218.16968,0.00553
6216.24097,0.00925
6214.31225,0.01057
6212.38354,0.01024
6210.45483,0.01248
6208.52612,0.01589
6206.59740,0.01569
6204.66869,0.00997
6202.73998,0.00471
6200.81127,0.00464
6198.88255,0.00753
6196.95384,0.00735
6195.02513,0.00450
6193.09641,0.00221
6191.16770,0.00234
6189.23899,0.00432
6187.31028,0.00950
6185.38156,0.00893
6183.45285,0.00936
6181.52414,0.01076
6179.59543,0.01040
6177.66671,0.00692
6175.73800,0.00147
6173.80929,-0.00273
6171.88058,0.00283
6169.95186,0.00800
6168.02315,0.01079
6166.09444,0.01016
6164.16572,0.00660
6162.23701,0.00596
6160.30830,0.00794
6158.37959,0.00668
6156.45087,0.00569
6154.52216,0.00780
6152.59345,0.01152
6150.66474,0.00991
6148.73602,0.00503
6146.80731,0.00633
6144.87860,0.00858
6142.94989,0.00384
6141.02117,0.00178
6139.09246,0.00512
6137.16375,0.00965
6135.23503,0.00980
6133.30632,0.00673
6131.37761,0.00696
6129.44890,0.00946
6127.52018,0.00758
6125.59147,0.00410
6123.66276,0.00282
6121.73405,0.00648
6119.80533,0.00956
6117.87662,0.00795
6115.94791,0.00472
6114.01919,0.00752
6112.09048,0.00790
6110.16177,0.00508
6108.23306,0.00539
6106.30434,0.00869
6104.37563,0.00836
6102.44692,0.00448
6100.51821,0.00680
6098.58949,0.00872
6096.66078,0.00731
6094.73207,0.00572
6092.80336,0.00647
6090.87464,0.00852
6088.94593,0.00930
6087.01722,0.00745
6085.08850,0.00193
6083.15979,0.00336
6081.23108,0.01065
6079.30237,0.01348
6077.37365,0.01088
6075.44494,0.00814
6073.51623,0.00367
6071.58752,0.00477
6069.65880,0.00973
6067.73009,0.01092
6065.80138,0.00651
6063.87267,0.00687
6061.94395,0.00680
6060.01524,0.00594
6058.08653,0.00659
6056.15781,0.00751
6054.22910,0.00574
6052.30039,0.00585
6050.37168,0.00806
6048.44296,0.00766
6046.51425,0.00802
6044.58554,0.00855
6042.65683,0.00897
6040.72811,0.00886
6038.79940,0.00526
6036.87069,0.00560
6034.94198,0.00676
6033.01326,0.00701
6031.08455,0.00883
6029.15584,0.00973
6027.22712,0.00813
6025.29841,0.00508
6023.36970,0.00315
6021.44099,0.00161
6019.51227,-0.00010
6017.58356,-0.00108
6015.65485,0.00062
6013.72614,0.00546
6011.79742,0.00662
6009.86871,0.00843
6007.94000,0.01032
6006.01128,0.00980
6004.08257,0.00805
6002.15386,0.00769
6000.22515,0.00517
5998.29643,0.00257
5996.36772,0.00307
5994.43901,0.00330
5992.51030,0.00290
5990.58158,0.00422
5988.65287,0.00649
5986.72416,0.00660
5984.79545,0.00298
5982.86673,0.00137
5980.93802,0.00350
5979.00931,0.00517
5977.08059,0.00389
5975.15188,0.00437
5973.22317,0.00621
5971.29446,0.00689
5969.36574,0.00694
5967.43703,0.00838
5965.50832,0.00910
5963.57961,0.00764
5961.65089,0.00507
5959.72218,0.00340
5957.79347,0.00198
5955.86476,0.00193
5953.93604,0.00357
5952.00733,0.00346
5950.07862,0.00382
5948.14990,0.00690
5946.22119,0.00861
5944.29248,0.00714
5942.36377,0.00605
5940.43505,0.00671
5938.50634,0.00654
5936.57763,0.00479
5934.64892,0.00177
5932.72020,-0.00063
5930.79149,0.00237
5928.86278,0.00701
5926.93407,0.00940
5925.00535,0.00911
5923.07664,0.00731
5921.14793,0.00530
5919.21921,0.00400
5917.29050,0.00260
5915.36179,0.00519
5913.43308,0.00442
5911.50436,0.00544
5909.57565,0.00874
5907.64694,0.00990
5905.71823,0.00788
5903.78951,0.00393
5901.86080,0.00077
5899.93209,0.00368
5898.00337,0.00261
5896.07466,0.00246
5894.14595,0.00559
5892.21724,0.00395
5890.28852,0.00229
5888.35981,0.00499
5886.43110,0.00892
5884.50239,0.01002
5882.57367,0.00677
5880.64496,0.00314
5878.71625,0.00310
5876.78754,0.00404
5874.85882,0.00524
5872.93011,0.00379
5871.00140,0.00166
5869.07268,0.00210
5867.14397,0.00456
5865.21526,0.00433
5863.28655,0.00380
5861.35783,0.00563
5859.42912,0.00850
5857.50041,0.00827
5855.57170,0.00579
5853.64298,0.00376
5851.71427,0.00336
5849.78556,0.00467
5847.85685,0.00806
5845.92813,0.00764
5843.99942,0.00582
5842.07071,0.00527
5840.14199,0.00465
5838.21328,0.00261
5836.28457,0.00339
5834.35586,0.00618
5832.42714,0.00717
5830.49843,0.00548
5828.56972,0.00534
5826.64101,0.00600
5824.71229,0.00645
5822.78358,0.00776
5820.85487,0.00810
5818.92615,0.00713
5816.99744,0.00764
5815.06873,0.00867
5813.14002,0.00690
5811.21130,0.00224
5809.28259,0.00064
5807.35388,0.00333
5805.42517,0.00532
5803.49645,0.00563
5801.56774,0.00510
5799.63903,0.00386
5797.71032,0.00361
5795.78160,0.00410
5793.85289,0.00515
5791.92418,0.00379
5789.99546,0.00096
5788.06675,0.00258
5786.13804,0.00514
5784.20933,0.00573
5782.28061,0.00417
5780.35190,0.00238
5778.42319,0.00301
5776.49448,0.00561
5774.56576,0.00763
5772.63705,0.00760
5770.70834,0.00659
5768.77963,0.00418
5766.85091,0.00156
5764.92220,0.00142
5762.99349,0.00414
5761.06477,0.00781
5759.13606,0.00983
5757.20735,0.00874
5755.27864,0.00603
5753.34992,0.00305
5751.42121,0.00149
5749.49250,0.00063
5747.56379,0.00049
5745.63507,0.00162
5743.70636,0.00255
5741.77765,0.00183
5739.84894,0.00226
5737.92022,0.00602
5735.99151,0.00664
5734.06280,0.00431
5732.13408,0.00431
5730.20537,0.00330
5728.27666,0.00390
5726.34795,0.00394
5724.41923,0.00387
5722.49052,0.00384
5720.56181,0.00243
5718.63310,0.00305
5716.70438,0.00485
5714.77567,0.00576
5712.84696,0.00375
5710.91824,0.00095
5708.98953,0.00271
5707.06082,0.00307
5705.13211,0.00566
5703.20339,0.00916
5701.27468,0.00984
5699.34597,0.00607
5697.41726,0.00234
5695.48854,0.00216
5693.55983,0.00494
5691.63112,0.00634
5689.70241,0.00477
5687.77369,0.00099
5685.84498,0.00212
5683.91627,0.00456
5681.98755,0.00506
5680.05884,0.00251
5678.13013,0.00160
5676.20142,0.00199
5674.27270,0.00621
5672.34399,0.00954
5670.41528,0.00760
5668.48657,0.00196
5666.55785,0.00206
5664.62914,0.00347
5662.70043,0.00477
5660.77172,0.00336
5658.84300,0.00402
5656.91429,0.00540
5654.98558,0.00435
5653.05686,0.00316
5651.12815,0.00340
5649.19944,0.00469
5647.27073,0.00679
5645.34201,0.00598
5643.41330,0.00440
5641.48459,0.00414
5639.55588,0.00613
5637.62716,0.00591
5635.69845,0.00381
5633.76974,0.00084
5631.84103,0.00279
5629.91231,0.00238
5627.98360,0.00117
5626.05489,0.00194
5624.12617,0.00417
5622.19746,0.00521
5620.26875,0.00616
5618.34004,0.00592
5616.41132,0.00653
5614.48261,0.00771
5612.55390,0.00775
5610.62519,0.00502
5608.69647,0.00325
5606.76776,0.00388
5604.83905,0.00735
5602.91033,0.00858
5600.98162,0.00740
5599.05291,0.00453
5597.12420,0.00306
5595.19548,0.00165
5593.26677,0.00069
5591.33806,0.00201
5589.40935,0.00211
5587.48063,0.00190
5585.55192,0.00179
5583.62321,0.00192
5581.69450,0.00205
5579.76578,0.00366
5577.83707,0.00526
5575.90836,0.00425
5573.97964,0.00233
5572.05093,0.00193
5570.12222,0.00352
5568.19351,0.00445
5566.26479,0.00624
5564.33608,0.00593
5562.40737,0.00412
5560.47866,0.00201
5558.54994,0.00154
5556.62123,-0.00032
5554.69252,0.00278
5552.76381,0.00423
5550.83509,0.00522
5548.90638,0.00538
5546.97767,0.00622
5545.04895,0.00586
5543.12024,0.00424
5541.19153,0.00259
5539.26282,0.00269
5537.33410,0.00230
5535.40539,0.00242
5533.47668,0.00310
5531.54797,0.00353
5529.61925,0.00431
5527.69054,0.00463
5525.76183,0.00167
5523.83311,0.00060
5521.90440,0.00307
5519.97569,0.00564
5518.04698,0.00671
5516.11826,0.00553
5514.18955,0.00381
5512.26084,0.00474
5510.33213,0.00503
5508.40341,0.00347
5506.47470,0.00148
5504.54599,0.00441
5502.61728,0.00375
5500.68856,0.00314
5498.75985,0.00312
5496.83114,0.00307
5494.90242,0.00399
5492.97371,0.00625
5491.04500,0.00469
5489.11629,0.00274
5487.18757,0.00267
5485.25886,0.00359
5483.33015,0.00338
5481.40144,0.00371
5479.47272,0.00538
5477.54401,0.00677
5475.61530,0.00583
5473.68659,0.00256
5471.75787,0.00084
5469.82916,0.00243
5467.90045,0.00335
5465.97173,0.00461
5464.04302,0.00481
5462.11431,0.00359
5460.18560,0.00310
5458.25688,0.00369
5456.32817,0.00369
5454.39946,0.00200
5452.47075,0.00024
5450.54203,0.00248
5448.61332,0.00248
5446.68461,0.00359
5444.75590,0.00490
5442.82718,0.00370
5440.89847,0.00250
5438.96976,0.00302
5437.04104,0.00223
5435.11233,0.00160
5433.18362,0.00222
5431.25491,0.00272
5429.32619,0.00154
5427.39748,0.00293
5425.46877,0.00555
5423.54006,0.00825
5421.61134,0.00804
5419.68263,0.00444
5417.75392,0.00095
5415.82520,-0.00012
5413.89649,0.00110
5411.96778,0.00331
5410.03907,0.00577
5408.11035,0.00793
5406.18164,0.00879
5404.25293,0.00759
5402.32422,0.00468
5400.39550,0.00228
5398.46679,0.00144
5396.53808,0.00241
5394.60937,0.00366
5392.68065,0.00245
5390.75194,0.00196
5388.82323,0.00368
5386.89451,0.00501
5384.96580,0.00315
5383.03709,0.00237
5381.10838,0.00475
5379.17966,0.00693
5377.25095,0.00633
5375.32224,0.00397
5373.39353,0.00495
5371.46481,0.00534
5369.53610,0.00224
5367.60739,-0.00064
5365.67868,0.00241
5363.74996,0.00355
5361.82125,0.00309
5359.89254,0.00122
5357.96382,0.00079
5356.03511,0.00147
5354.10640,0.00235
5352.17769,0.00253
5350.24897,0.00060
5348.32026,0.00022
5346.39155,0.00118
5344.46284,0.00026
5342.53412,0.00199
5340.60541,0.00597
5338.67670,0.00729
5336.74799,0.00428
5334.81927,0.00066
5332.89056,-0.00022
5330.96185,0.00164
5329.03313,0.00384
5327.10442,0.00257
5325.17571,0.00261
5323.24700,0.00404
5321.31828,0.00412
5319.38957,0.00380
5317.46086,0.00211
5315.53215,0.00173
5313.60343,0.00166
5311.67472,0.00179
5309.74601,0.00220
5307.81729,0.00335
5305.88858,0.00488
5303.95987,0.00528
5302.03116,0.00386
5300.10244,0.00198
5298.17373,0.00116
5296.24502,0.00251
5294.31631,0.00287
5292.38759,0.00188
5290.45888,0.00030
5288.53017,0.00152
5286.60146,-0.00050
5284.67274,0.00009
5282.74403,0.00242
5280.81532,0.00471
5278.88660,0.00460
5276.95789,0.00316
5275.02918,0.00252
5273.10047,0.00394
5271.17175,0.00431
5269.24304,0.00286
5267.31433,0.00162
5265.38562,0.00193
5263.45690,0.00328
5261.52819,0.00337
5259.59948,0.00134
5257.67077,0.00060
5255.74205,0.00171
5253.81334,0.00261
5251.88463,0.00145
5249.95591,0.00126
5248.02720,0.00207
5246.09849,0.00287
5244.16978,0.00419
5242.24106,0.00502
5240.31235,0.00525
5238.38364,0.00547
5236.45493,0.00344
5234.52621,0.00074
5232.59750,0.00210
5230.66879,0.00297
5228.74007,0.00274
5226.81136,0.00214
5224.88265,0.00186
5222.95394,0.00252
5221.02522,0.00314
5219.09651,0.00340
5217.16780,0.00321
5215.23909,0.00279
5213.31037,0.00209
5211.38166,0.00190
5209.45295,0.00178
5207.52424,0.00192
5205.59552,0.00296
5203.66681,0.00398
5201.73810,0.00318
5199.80938,0.00185
5197.88067,0.00150
5195.95196,0.00319
5194.02325,0.00364
5192.09453,0.00395
5190.16582,0.00479
5188.23711,0.00520
5186.30840,0.00397
5184.37968,0.00275
5182.45097,0.00312
5180.52226,0.00372
5178.59355,0.00392
5176.66483,0.00330
5174.73612,0.00280
5172.80741,0.00328
5170.87869,0.00254
5168.94998,0.00166
5167.02127,0.00239
5165.09256,0.00335
5163.16384,0.00264
5161.23513,0.00197
5159.30642,0.00206
5157.37771,0.00352
5155.44899,0.00415
5153.52028,0.00333
5151.59157,0.00294
5149.66286,0.00393
5147.73414,0.00455
5145.80543,0.00469
5143.87672,0.00334
5141.94800,0.00252
5140.01929,0.00299
5138.09058,0.00262
5136.16187,0.00170
5134.23315,0.00171
5132.30444,0.00197
5130.37573,0.00142
5128.44702,0.00103
5126.51830,0.00237
5124.58959,0.00293
5122.66088,0.00175
5120.73216,0.00090
5118.80345,0.00184
5116.87474,0.00284
5114.94603,0.00331
5113.01731,0.00192
5111.08860,0.00083
5109.15989,0.00247
5107.23118,0.00334
5105.30246,0.00278
5103.37375,0.00275
5101.44504,0.00268
5099.51633,0.00275
5097.58761,0.00320
5095.65890,0.00279
5093.73019,0.00069
5091.80147,0.00025
5089.87276,-0.00027
5087.94405,0.00085
5086.01534,0.00237
5084.08662,0.00419
5082.15791,0.00348
5080.22920,0.00169
5078.30049,0.00113
5076.37177,0.00246
5074.44306,0.00229
5072.51435,0.00145
5070.58564,0.00147
5068.65692,0.00204
5066.72821,0.00288
5064.79950,0.00411
5062.87078,0.00426
5060.94207,0.00353
5059.01336,0.00300
5057.08465,0.00277
5055.15593,0.00174
5053.22722,0.00053
5051.29851,0.00126
5049.36980,0.00156
5047.44108,0.00058
5045.51237,0.00154
5043.58366,0.00261
5041.65495,0.00313
5039.72623,0.00293
5037.79752,0.00211
5035.86881,0.00099
5033.94009,0.00118
5032.01138,0.00209
5030.08267,0.00286
5028.15396,0.00314
5026.22524,0.00259
5024.29653,0.00171
5022.36782,0.00279
5020.43911,0.00411
5018.51039,0.00368
5016.58168,0.00248
5014.65297,0.00201
5012.72425,0.00174
5010.79554,0.00062
5008.86683,0.00046
5006.93812,0.00206
5005.00940,0.00187
5003.08069,0.00158
5001.15198,0.00271
4999.22327,0.00377
4997.29455,0.00376
4995.36584,0.00427
4993.43713,0.00490
4991.50842,0.00341
4989.57970,0.00124
4987.65099,0.00160
4985.72228,0.00075
4983.79356,0.00044
4981.86485,0.00194
4979.93614,0.00209
4978.00743,0.00013
4976.07871,0.00101
4974.15000,0.00241
4972.22129,0.00268
4970.29258,0.00240
4968.36386,0.00250
4966.43515,0.00276
4964.50644,0.00262
4962.57773,0.00213
4960.64901,0.00165
4958.72030,0.00075
4956.79159,0.00074
4954.86287,0.00150
4952.93416,0.00216
4951.00545,0.00006
4949.07674,-0.00066
4947.14802,0.00062
4945.21931,0.00195
4943.29060,0.00252
4941.36189,0.00257
4939.43317,0.00186
4937.50446,0.00098
4935.57575,0.00052
4933.64703,0.00105
4931.71832,0.00234
4929.78961,0.00306
4927.86090,0.00250
4925.93218,0.00236
4924.00347,0.00263
4922.07476,0.00278
4920.14605,0.00202
4918.21733,0.00111
4916.28862,0.00152
4914.35991,0.00089
4912.43120,0.00073
4910.50248,0.00200
4908.57377,0.00186
4906.64506,0.00191
4904.71634,0.00135
4902.78763,0.00207
4900.85892,0.00293
4898.93021,0.00323
4897.00149,0.00393
4895.07278,0.00434
4893.14407,0.00363
4891.21536,0.00349
4889.28664,0.00366
4887.35793,0.00306
4885.42922,0.00111
4883.50051,-0.00024
4881.57179,0.00006
4879.64308,0.00111
4877.71437,0.00112
4875.78565,0.00193
4873.85694,0.00214
4871.92823,0.00111
4869.99952,0.00096
4868.07080,0.00188
4866.14209,0.00168
4864.21338,0.00089
4862.28467,0.00043
4860.35595,0.00041
4858.42724,0.00073
4856.49853,0.00184
4854.56982,0.00252
4852.64110,0.00241
4850.71239,0.00118
4848.78368,0.00083
4846.85496,0.00195
4844.92625,0.00309
4842.99754,0.00270
4841.06883,0.00288
4839.14011,0.00427
4837.21140,0.00387
4835.28269,0.00133
4833.35398,0.00014
4831.42526,0.00133
4829.49655,0.00202
4827.56784,0.00129
4825.63912,0.00089
4823.71041,0.00125
4821.78170,0.00087
4819.85299,0.00072
4817.92427,0.00160
4815.99556,0.00176
4814.06685,0.00229
4812.13814,0.00288
4810.20942,0.00235
4808.28071,0.00056
4806.35200,0.00073
4804.42329,0.00201
4802.49457,0.00287
4800.56586,0.00273
4798.63715,0.00259
4796.70843,0.00272
4794.77972,0.00315
4792.85101,0.00342
4790.92230,0.00324
4788.99358,0.00278
4787.06487,0.00219
4785.13616,0.00229
4783.20745,0.00307
4781.27873,0.00310
4779.35002,0.00238
4777.42131,0.00158
4775.49260,0.00148
4773.56388,0.00095
4771.63517,0.00145
4769.70646,0.00254
4767.77774,0.00263
4765.84903,0.00172
4763.92032,0.00053
4761.99161,0.00045
4760.06289,0.00195
4758.13418,0.00268
4756.20547,0.00265
4754.27676,0.00259
4752.34804,0.00233
4750.41933,0.00159
4748.49062,0.00218
4746.56191,0.00270
4744.63319,0.00255
4742.70448,0.00204
4740.77577,0.00170
4738.84705,0.00140
4736.91834,0.00178
4734.98963,0.00244
4733.06092,0.00208
4731.13220,0.00186
4729.20349,0.00222
4727.27478,0.00163
4725.34607,0.00115
4723.41735,0.00186
4721.48864,0.00173
4719.55993,0.00002
4717.63121,0.00040
4715.70250,0.00115
4713.77379,0.00132
4711.84508,0.00126
4709.91636,0.00139
4707.98765,0.00100
4706.05894,0.00063
4704.13023,0.00097
4702.20151,0.00166
4700.27280,0.00238
4698.34409,0.00281
4696.41538,0.00233
4694.48666,0.00141
4692.55795,0.00046
4690.62924,0.00037
4688.70052,0.00109
4686.77181,0.00102
4684.84310,0.00070
4682.91439,0.00044
4680.98567,0.00023
4679.05696,0.00125
4677.12825,0.00177
4675.19954,0.00138
4673.27082,0.00118
4671.34211,0.00195
4669.41340,0.00230
4667.48469,0.00217
4665.55597,0.00114
4663.62726,0.00071
4661.69855,0.00151
4659.76983,0.00239
4657.84112,0.00347
4655.91241,0.00374
4653.98370,0.00284
4652.05498,0.00205
4650.12627,0.00143
4648.19756,0.00165
4646.26885,0.00178
4644.34013,0.00145
4642.41142,0.00105
4640.48271,0.00140
4638.55399,0.00204
4636.62528,0.00204
4634.69657,0.00163
4632.76786,0.00227
4630.83914,0.00209
4628.91043,0.00140
4626.98172,0.00149
4625.05301,0.00291
4623.12429,0.00339
4621.19558,0.00146
4619.26687,-0.00052
4617.33816,0.00126
4615.40944,0.00276
4613.48073,0.00312
4611.55202,0.00186
4609.62330,0.00096
4607.69459,0.00099
4605.76588,0.00071
4603.83717,-0.00053
4601.90845,0.00106
4599.97974,0.00187
4598.05103,0.00242
4596.12232,0.00218
4594.19360,0.00158
4592.26489,0.00086
4590.33618,0.00044
4588.40747,0.00043
4586.47875,0.00108
4584.55004,0.00182
4582.62133,0.00200
4580.69261,0.00107
4578.76390,0.00076
4576.83519,0.00139
4574.90648,0.00233
4572.97776,0.00244
4571.04905,0.00172
4569.12034,0.00130
4567.19163,0.00162
4565.26291,0.00122
4563.33420,0.00167
4561.40549,0.00240
4559.47678,0.00238
4557.54806,0.00174
4555.61935,0.00084
4553.69064,0.00019
4551.76192,0.00120
4549.83321,0.00111
4547.90450,0.00109
4545.97579,0.00039
4544.04707,0.00072
4542.11836,0.00124
4540.18965,0.00169
4538.26094,0.00244
4536.33222,0.00310
4534.40351,0.00296
4532.47480,0.00224
4530.54608,0.00201
4528.61737,0.00256
4526.68866,0.00190
4524.75995,0.00092
4522.83123,0.00077
4520.90252,0.00076
4518.97381,0.00092
4517.04510,0.00176
4515.11638,0.00245
4513.18767,0.00232
4511.25896,0.00138
4509.33025,0.00038
4507.40153,0.00040
4505.47282,0.00144
4503.54411,0.00168
4501.61539,0.00215
4499.68668,0.00268
4497.75797,0.00255
4495.82926,0.00182
4493.90054,0.00160
4491.97183,0.00145
4490.04312,0.00160
4488.11441,0.00150
4486.18569,0.00196
4484.25698,0.00276
4482.32827,0.00331
4480.39956,0.00367
4478.47084,0.00321
4476.54213,0.00122
4474.61342,0.00102
4472.68470,0.00230
4470.75599,0.00302
4468.82728,0.00240
4466.89857,0.00141
4464.96985,0.00101
4463.04114,0.00175
4461.11243,0.00195
4459.18372,0.00151
4457.25500,0.00167
4455.32629,0.00256
4453.39758,0.00243
4451.46886,0.00227
4449.54015,0.00280
4447.61144,0.00285
4445.68273,0.00216
4443.75401,0.00169
4441.82530,0.00157
4439.89659,0.00139
4437.96788,0.00104
4436.03916,0.00120
4434.11045,0.00168
4432.18174,0.00204
4430.25303,0.00199
4428.32431,0.00132
4426.39560,0.00100
4424.46689,0.00192
4422.53817,0.00139
4420.60946,0.00117
4418.68075,0.00105
4416.75204,0.00106
4414.82332,0.00180
4412.89461,0.00238
4410.96590,0.00124
4409.03719,0.00103
4407.10847,0.00178
4405.17976,0.00247
4403.25105,0.00251
4401.32234,0.00220
4399.39362,0.00195
4397.46491,0.00079
4395.53620,0.00024
4393.60748,0.00154
4391.67877,0.00148
4389.75006,0.00108
4387.82135,0.00073
4385.89263,0.00089
4383.96392,0.00190
4382.03521,0.00330
4380.10650,0.00362
4378.17778,0.00262
4376.24907,0.00115
4374.32036,0.00122
4372.39165,0.00206
4370.46293,0.00196
4368.53422,0.00150
4366.60551,0.00133
4364.67679,0.00102
4362.74808,0.00092
4360.81937,0.00105
4358.89066,0.00135
4356.96194,0.00166
4355.03323,0.00149
4353.10452,0.00081
4351.17581,0.00076
4349.24709,0.00047
4347.31838,0.00019
4345.38967,0.00049
4343.46095,0.00139
4341.53224,0.00251
4339.60353,0.00291
4337.67482,0.00265
4335.74610,0.00230
4333.81739,0.00125
4331.88868,0.00053
4329.95997,0.00123
4328.03125,0.00169
4326.10254,0.00214
4324.17383,0.00191
4322.24512,0.00142
4320.31640,0.00137
4318.38769,0.00077
4316.45898,0.00050
4314.53026,0.00042
4312.60155,0.00086
4310.67284,0.00145
4308.74413,0.00168
4306.81541,0.00154
4304.88670,0.00081
4302.95799,0.00054
4301.02928,0.00131
4299.10056,0.00235
4297.17185,0.00218
4295.24314,0.00108
4293.31443,0.00038
4291.38571,0.00058
4289.45700,0.00097
4287.52829,0.00118
4285.59957,0.00109
4283.67086,0.00067
4281.74215,0.00135
4279.81344,0.00157
4277.88472,0.00128
4275.95601,0.00101
4274.02730,0.00221
4272.09859,0.00302
4270.16987,0.00255
4268.24116,0.00184
4266.31245,0.00120
4264.38374,0.00118
4262.45502,0.00223
4260.52631,0.00184
4258.59760,0.00156
4256.66888,0.00150
4254.74017,0.00122
4252.81146,0.00131
4250.88275,0.00200
4248.95403,0.00237
4247.02532,0.00255
4245.09661,0.00241
4243.16790,0.00210
4241.23918,0.00188
4239.31047,0.00176
4237.38176,0.00157
4235.45304,0.00195
4233.52433,0.00194
4231.59562,0.00110
4229.66691,0.00015
4227.73819,0.00222
4225.80948,0.00257
4223.88077,0.00165
4221.95206,0.00102
4220.02334,0.00092
4218.09463,0.00126
4216.16592,0.00249
4214.23721,0.00334
4212.30849,0.00331
4210.37978,0.00249
4208.45107,0.00168
4206.52235,0.00156
4204.59364,0.00189
4202.66493,0.00158
4200.73622,0.00105
4198.80750,0.00117
4196.87879,0.00180
4194.95008,0.00212
4193.02137,0.00207
4191.09265,0.00134
4189.16394,0.00083
4187.23523,0.00098
4185.30652,0.00161
4183.37780,0.00186
4181.44909,0.00158
4179.52038,0.00136
4177.59166,0.00145
4175.66295,0.00101
4173.73424,0.00106
4171.80553,0.00166
4169.87681,0.00212
4167.94810,0.00185
4166.01939,0.00105
4164.09068,0.00058
4162.16196,0.00080
4160.23325,0.00098
4158.30454,0.00125
4156.37582,0.00135
4154.44711,0.00097
4152.51840,0.00043
4150.58969,0.00048
4148.66097,0.00091
4146.73226,0.00144
4144.80355,0.00142
4142.87484,0.00100
4140.94612,0.00021
4139.01741,0.00015
4137.08870,0.00173
4135.15999,0.00272
4133.23127,0.00247
4131.30256,0.00234
4129.37385,0.00232
4127.44513,0.00149
4125.51642,0.00055
4123.58771,0.00042
4121.65900,0.00072
4119.73028,0.00120
4117.80157,0.00141
4115.87286,0.00206
4113.94415,0.00254
4112.01543,0.00233
4110.08672,0.00171
4108.15801,0.00145
4106.22930,0.00153
4104.30058,0.00151
4102.37187,0.00124
4100.44316,0.00155
4098.51444,0.00182
4096.58573,0.00134
4094.65702,0.00057
4092.72831,0.00062
4090.79959,0.00101
4088.87088,0.00106
4086.94217,0.00104
4085.01346,0.00124
4083.08474,0.00144
4081.15603,0.00204
4079.22732,0.00235
4077.29861,0.00131
4075.36989,0.00011
4073.44118,0.00124
4071.51247,0.00199
4069.58375,0.00219
4067.65504,0.00155
4065.72633,0.00085
4063.79762,0.00062
4061.86890,0.00044
4059.94019,0.00076
4058.01148,0.00140
4056.08277,0.00141
4054.15405,0.00117
4052.22534,0.00045
4050.29663,0.00036
4048.36791,0.00102
4046.43920,0.00087
4044.51049,0.00103
4042.58178,0.00157
4040.65306,0.00170
4038.72435,0.00161
4036.79564,0.00175
4034.86693,0.00193
4032.93821,0.00119
4031.00950,0.00020
4029.08079,0.00063
4027.15208,0.00159
4025.22336,0.00153
4023.29465,0.00127
4021.36594,0.00143
4019.43722,0.00161
4017.50851,0.00120
4015.57980,0.00077
4013.65109,0.00017
4011.72237,0.00036
4009.79366,0.00099
4007.86495,0.00150
4005.93624,0.00162
4004.00752,0.00175
4002.07881,0.00182
4000.15010,0.00145
3998.22139,0.00121
3996.29267,0.00164
3994.36396,0.00181
3992.43525,0.00136
3990.50653,0.00081
3988.57782,0.00106
3986.64911,0.00156
3984.72040,0.00115
3982.79168,0.00031
3980.86297,0.00030
3978.93426,0.00065
3977.00555,0.00126
3975.07683,0.00121
3973.14812,0.00116
3971.21941,0.00124
3969.29070,0.00123
3967.36198,0.00133
3965.43327,0.00106
3963.50456,0.00045
3961.57584,0.00063
3959.64713,0.00120
3957.71842,0.00188
3955.78971,0.00223
3953.86099,0.00178
3951.93228,0.00097
3950.00357,0.00149
3948.07486,0.00241
3946.14614,0.00239
3944.21743,0.00184
3942.28872,0.00123
3940.36000,0.00031
3938.43129,0.00042
3936.50258,0.00082
3934.57387,0.00156
3932.64515,0.00217
3930.71644,0.00212
3928.78773,0.00154
3926.85902,0.00126
3924.93030,0.00052
3923.00159,0.00043
3921.07288,0.00149
3919.14417,0.00169
3917.21545,0.00081
3915.28674,0.00067
3913.35803,0.00128
3911.42931,0.00153
3909.50060,0.00084
3907.57189,0.00114
3905.64318,0.00187
3903.71446,0.00246
3901.78575,0.00255
3899.85704,0.00207
3897.92833,0.00100
3895.99961,0.00125
3894.07090,0.00154
3892.14219,0.00146
3890.21348,0.00122
3888.28476,0.00136
3886.35605,0.00184
3884.42734,0.00205
3882.49862,0.00203
3880.56991,0.00220
3878.64120,0.00189
3876.71249,0.00142
3874.78377,0.00112
3872.85506,0.00148
3870.92635,0.00143
3868.99764,0.00143
3867.06892,0.00153
3865.14021,0.00075
3863.21150,0.00013
3861.28278,0.00044
3859.35407,0.00089
3857.42536,0.00169
3855.49665,0.00289
3853.56793,0.00410
3851.63922,0.00315
3849.71051,0.00200
3847.78180,0.00097
3845.85308,0.00082
3843.92437,0.00164
3841.99566,0.00264
3840.06695,0.00303
3838.13823,0.00254
3836.20952,0.00150
3834.28081,0.00117
3832.35209,0.00127
3830.42338,0.00110
3828.49467,0.00074
3826.56596,0.00064
3824.63724,0.00068
3822.70853,0.00112
3820.77982,0.00037
3818.85111,0.00099
3816.92239,0.00157
3814.99368,0.00153
3813.06497,0.00125
3811.13626,0.00089
3809.20754,0.00004
3807.27883,0.00042
3805.35012,0.00138
3803.42140,0.00205
3801.49269,0.00215
3799.56398,0.00211
3797.63527,0.00152
3795.70655,0.00075
3793.77784,0.00014
3791.84913,0.00080
3789.92042,0.00096
3787.99170,0.00092
3786.06299,0.00053
3784.13428,0.00085
3782.20557,0.00109
3780.27685,0.00085
3778.34814,0.00024
3776.41943,0.00048
3774.49071,0.00141
3772.56200,0.00184
3770.63329,0.00246
3768.70458,0.00255
3766.77586,0.00217
3764.84715,0.00195
3762.91844,0.00115
3760.98973,0.00045
3759.06101,0.00020
3757.13230,0.00104
3755.20359,0.00148
3753.27487,0.00172
3751.34616,0.00245
3749.41745,0.00203
3747.48874,0.00120
3745.56002,0.00219
3743.63131,0.00264
3741.70260,0.00210
3739.77389,0.00208
3737.84517,0.00272
3735.91646,0.00249
3733.98775,0.00112
3732.05904,0.00102
3730.13032,0.00176
3728.20161,0.00166
3726.27290,0.00159
3724.34418,0.00166
3722.41547,0.00151
3720.48676,0.00146
3718.55805,0.00123
3716.62933,0.00063
3714.70062,0.00102
3712.77191,0.00172
3710.84320,0.00198
3708.91448,0.00191
3706.98577,0.00152
3705.05706,0.00115
3703.12835,0.00126
3701.19963,0.00113
3699.27092,0.00128
3697.34221,0.00159
3695.41349,0.00162
3693.48478,0.00132
3691.55607,0.00153
3689.62736,0.00231
3687.69864,0.00223
3685.76993,0.00131
3683.84122,0.00074
3681.91251,0.00082
3679.98379,0.00133
3678.05508,0.00207
3676.12637,0.00335
3674.19766,0.00353
3672.26894,0.00287
3670.34023,0.00196
3668.41152,0.00106
3666.48280,0.00099
3664.55409,0.00053
3662.62538,0.00085
3660.69667,0.00176
3658.76795,0.00155
3656.83924,0.00134
3654.91053,0.00110
3652.98182,0.00038
3651.05310,0.00005
3649.12439,0.00215
3647.19568,0.00322
3645.26696,0.00171
3643.33825,0.00094
3641.40954,0.00040
3639.48083,0.00045
3637.55211,0.00103
3635.62340,0.00126
3633.69469,0.00185
3631.76598,0.00180
3629.83726,0.00086
3627.90855,0.00066
3625.97984,0.00109
3624.05113,0.00139
3622.12241,0.00122
3620.19370,0.00058
3618.26499,0.00006
3616.33627,-0.00018
3614.40756,0.00078
3612.47885,0.00156
3610.55014,0.00153
3608.62142,0.00060
3606.69271,0.00091
3604.76400,0.00218
3602.83529,0.00266
3600.90657,0.00181
3598.97786,0.00082
3597.04915,0.00037
3595.12044,0.00030
3593.19172,0.00064
3591.26301,0.00065
3589.33430,0.00108
3587.40558,0.00153
3585.47687,0.00063
3583.54816,0.00073
3581.61945,0.00165
3579.69073,0.00233
3577.76202,0.00248
3575.83331,0.00187
3573.90460,0.00082
3571.97588,0.00100
3570.04717,0.00101
3568.11846,0.00057
3566.18974,-0.00070
3564.26103,0.00029
3562.33232,0.00070
3560.40361,0.00145
3558.47489,0.00197
3556.54618,0.00156
3554.61747,0.00096
3552.68876,0.00099
3550.76004,0.00112
3548.83133,0.00151
3546.90262,0.00146
3544.97391,0.00082
3543.04519,0.00045
3541.11648,0.00107
3539.18777,0.00093
3537.25905,0.00066
3535.33034,0.00085
3533.40163,0.00115
3531.47292,0.00119
3529.54420,0.00109
3527.61549,0.00137
3525.68678,0.00196
3523.75807,0.00248
3521.82935,0.00270
3519.90064,0.00207
3517.97193,0.00105
3516.04322,0.00096
3514.11450,0.00133
3512.18579,0.00149
3510.25708,0.00175
3508.32836,0.00181
3506.39965,0.00184
3504.47094,0.00190
3502.54223,0.00196
3500.61351,0.00168
3498.68480,0.00089
3496.75609,0.00004
3494.82738,0.00077
3492.89866,0.00100
3490.96995,0.00104
3489.04124,0.00041
3487.11253,0.00129
3485.18381,0.00116
3483.25510,0.00110
3481.32639,0.00153
3479.39767,0.00173
3477.46896,0.00155
3475.54025,0.00165
3473.61154,0.00200
3471.68282,0.00184
3469.75411,0.00156
3467.82540,0.00164
3465.89669,0.00146
3463.96797,0.00126
3462.03926,0.00115
3460.11055,0.00096
3458.18183,0.00090
3456.25312,0.00110
3454.32441,0.00117
3452.39570,0.00182
3450.46698,0.00198
3448.53827,0.00183
3446.60956,0.00193
3444.68085,0.00201
3442.75213,0.00207
3440.82342,0.00205
3438.89471,0.00123
3436.96600,0.00130
3435.03728,0.00120
3433.10857,0.00129
3431.17986,0.00152
3429.25114,0.00179
3427.32243,0.00190
3425.39372,0.00142
3423.46501,0.00118
3421.53629,0.00158
3419.60758,0.00207
3417.67887,0.00248
3415.75016,0.00175
3413.82144,0.00145
3411.89273,0.00121
3409.96402,0.00172
3408.03531,0.00213
3406.10659,0.00156
3404.17788,0.00033
3402.24917,0.00079
3400.32045,0.00073
3398.39174,0.00109
3396.46303,0.00097
3394.53432,0.00101
3392.60560,0.00160
3390.67689,0.00230
3388.74818,0.00286
3386.81947,0.00294
3384.89075,0.00283
3382.96204,0.00215
3381.03333,0.00053
3379.10462,0.00258
3377.17590,0.00306
3375.24719,0.00247
3373.31848,0.00223
3371.38976,0.00205
3369.46105,0.00148
3367.53234,0.00108
3365.60363,0.00067
3363.67491,0.00059
3361.74620,0.00096
3359.81749,0.00130
3357.88878,0.00112
3355.96006,0.00063
3354.03135,0.00114
3352.10264,0.00226
3350.17392,0.00278
3348.24521,0.00266
3346.31650,0.00220
3344.38779,0.00169
3342.45907,0.00095
3340.53036,0.00028
3338.60165,0.00068
3336.67294,0.00142
3334.74422,0.00171
3332.81551,0.00176
3330.88680,0.00162
3328.95809,0.00095
3327.02937,0.00019
3325.10066,0.00040
3323.17195,0.00090
3321.24323,0.00121
3319.31452,0.00173
3317.38581,0.00189
3315.45710,0.00115
3313.52838,0.00092
3311.59967,0.00144
3309.67096,0.00152
3307.74225,0.00066
3305.81353,0.00094
3303.88482,0.00196
3301.95611,0.00163
3300.02740,0.00085
3298.09868,0.00041
3296.16997,0.00026
3294.24126,0.00060
3292.31254,0.00074
3290.38383,0.00072
3288.45512,0.00085
3286.52641,0.00100
3284.59769,0.00129
3282.66898,0.00124
3280.74027,0.00050
3278.81156,0.00073
3276.88284,0.00084
3274.95413,0.00100
3273.02542,0.00102
3271.09670,0.00085
3269.16799,0.00088
3267.23928,0.00097
3265.31057,0.00139
3263.38185,0.00035
3261.45314,-0.00017
3259.52443,0.00123
3257.59572,0.00219
3255.66700,0.00216
3253.73829,0.00140
3251.80958,0.00145
3249.88087,0.00149
3247.95215,0.00150
3246.02344,0.00221
3244.09473,0.00202
3242.16601,0.00096
3240.23730,0.00175
3238.30859,0.00295
3236.37988,0.00334
3234.45116,0.00297
3232.52245,0.00211
3230.59374,0.00183
3228.66503,0.00212
3226.73631,0.00186
3224.80760,0.00206
3222.87889,0.00164
3220.95018,0.00089
3219.02146,0.00108
3217.09275,0.00117
3215.16404,0.00035
3213.23532,0.00046
3211.30661,0.00075
3209.37790,0.00123
3207.44919,0.00165
3205.52047,0.00204
3203.59176,0.00122
3201.66305,0.00074
3199.73434,0.00183
3197.80562,0.00259
3195.87691,0.00226
3193.94820,0.00216
3192.01949,0.00170
3190.09077,0.00108
3188.16206,0.00196
3186.23335,0.00317
3184.30463,0.00287
3182.37592,0.00185
3180.44721,0.00126
3178.51850,0.00099
3176.58978,0.00042
3174.66107,0.00132
3172.73236,0.00171
3170.80365,0.00162
3168.87493,0.00153
3166.94622,0.00151
3165.01751,0.00164
3163.08879,0.00227
3161.16008,0.00194
3159.23137,0.00144
3157.30266,0.00073
3155.37394,0.00012
3153.44523,-0.00002
3151.51652,0.00040
3149.58781,0.00158
3147.65909,0.00227
3145.73038,0.00151
3143.80167,0.00122
3141.87296,0.00193
3139.94424,0.00193
3138.01553,0.00159
3136.08682,0.00148
3134.15810,0.00152
3132.22939,0.00141
3130.30068,0.00139
3128.37197,0.00138
3126.44325,0.00069
3124.51454,0.00064
3122.58583,0.00100
3120.65712,0.00114
3118.72840,0.00162
3116.79969,0.00186
3114.87098,0.00138
3112.94227,0.00106
3111.01355,0.00085
3109.08484,0.00084
3107.15613,0.00042
3105.22741,0.00017
3103.29870,0.00063
3101.36999,0.00097
3099.44128,0.00090
3097.51256,0.00095
3095.58385,0.00090
3093.65514,0.00075
3091.72643,0.00061
3089.79771,0.00065
3087.86900,0.00091
3085.94029,0.00124
3084.01158,0.00117
3082.08286,0.00082
3080.15415,0.00057
3078.22544,0.00103
3076.29672,0.00097
3074.36801,0.00084
3072.43930,0.00095
3070.51059,0.00110
3068.58187,0.00107
3066.65316,0.00097
3064.72445,0.00078
3062.79574,0.00084
3060.86702,0.00060
3058.93831,0.00051
3057.00960,0.00072
3055.08088,0.00074
3053.15217,0.00033
3051.22346,0.00074
3049.29475,0.00093
3047.36603,0.00063
3045.43732,0.00033
3043.50861,0.00019
3041.57990,0.00046
3039.65118,0.00101
3037.72247,0.00137
3035.79376,0.00141
3033.86505,0.00132
3031.93633,0.00123
3030.00762,0.00106
3028.07891,0.00064
3026.15019,0.00044
3024.22148,0.00086
3022.29277,0.00079
3020.36406,0.00059
3018.43534,0.00064
3016.50663,0.00073
3014.57792,0.00033
3012.64921,0.00086
3010.72049,0.00086
3008.79178,0.00075
3006.86307,0.00035
3004.93436,0.00022
3003.00564,0.00075
3001.07693,0.00066
2999.14822,0.00057
2997.21950,0.00071
2995.29079,0.00109
2993.36208,0.00128
2991.43337,0.00104
2989.50465,0.00083
2987.57594,0.00067
2985.64723,0.00061
2983.71852,0.00111
2981.78980,0.00116
2979.86109,0.00048
2977.93238,0.00041
2976.00366,0.00047
2974.07495,0.00071
2972.14624,0.00096
2970.21753,0.00097
2968.28881,0.00050
2966.36010,0.00050
2964.43139,0.00104
2962.50268,0.00119
2960.57396,0.00066
2958.64525,0.00032
2956.71654,0.00025
2954.78783,0.00046
2952.85911,0.00097
2950.93040,0.00123
2949.00169,0.00109
2947.07297,0.00093
2945.14426,0.00072
2943.21555,0.00086
2941.28684,0.00094
2939.35812,0.00027
2937.42941,0.00075
2935.50070,0.00125
2933.57199,0.00100
2931.64327,0.00036
2929.71456,0.00066
2927.78585,0.00148
2925.85714,0.00136
2923.92842,0.00075
2921.99971,0.00065
2920.07100,0.00079
2918.14228,0.00111
2916.21357,0.00140
2914.28486,0.00098
2912.35615,0.00131
2910.42743,0.00133
2908.49872,0.00102
2906.57001,0.00070
2904.64130,0.00071
2902.71258,0.00059
2900.78387,0.00049
2898.85516,0.00063
2896.92645,0.00089
2894.99773,0.00089
2893.06902,0.00051
2891.14031,0.00040
2889.21159,0.00092
2887.28288,0.00144
2885.35417,0.00156
2883.42546,0.00124
2881.49674,0.00089
2879.56803,0.00059
2877.63932,0.00059
2875.71061,0.00085
2873.78189,0.00140
2871.85318,0.00163
2869.92447,0.00141
2867.99575,0.00091
2866.06704,0.00077
2864.13833,0.00085
2862.20962,0.00110
2860.28090,0.00127
2858.35219,0.00101
2856.42348,0.00052
2854.49477,0.00070
2852.56605,0.00123
2850.63734,0.00132
2848.70863,0.00081
2846.77992,0.00085
2844.85120,0.00079
2842.92249,0.00035
2840.99378,0.00042
2839.06506,0.00100
2837.13635,0.00084
2835.20764,0.00082
2833.27893,0.00139
2831.35021,0.00172
2829.42150,0.00124
2827.49279,0.00058
2825.56408,0.00061
2823.63536,0.00119
2821.70665,0.00121
2819.77794,0.00061
2817.84923,0.00000
2815.92051,-0.00018
2813.99180,0.00034
2812.06309,0.00104
2810.13437,0.00092
2808.20566,0.00057
2806.27695,0.00053
2804.34824,0.00081
2802.41952,0.00060
2800.49081,0.00067
2798.56210,0.00107
2796.63339,0.00086
2794.70467,0.00026
2792.77596,0.00040
2790.84725,0.00063
2788.91854,0.00057
2786.98982,0.00021
2785.06111,0.00024
2783.13240,0.00042
2781.20368,0.00050
2779.27497,0.00054
2777.34626,0.00075
2775.41755,0.00050
2773.48883,0.00055
2771.56012,0.00044
2769.63141,0.00095
2767.70270,0.00125
2765.77398,0.00144
2763.84527,0.00164
2761.91656,0.00144
2759.98784,0.00084
2758.05913,0.00076
2756.13042,0.00055
2754.20171,0.00040
2752.27299,0.00056
2750.34428,0.00072
2748.41557,0.00059
2746.48686,0.00025
2744.55814,-0.00012
2742.62943,0.00050
2740.70072,0.00078
2738.77201,0.00090
2736.84329,0.00064
2734.91458,0.00048
2732.98587,0.00058
2731.05715,0.00095
2729.12844,0.00116
2727.19973,0.00113
2725.27102,0.00060
2723.34230,0.00066
2721.41359,0.00118
2719.48488,0.00105
2717.55617,0.00088
2715.62745,0.00108
2713.69874,0.00064
2711.77003,0.00052
2709.84132,0.00067
2707.91260,0.00054
2705.98389,0.00033
2704.05518,0.00046
2702.12646,0.00048
2700.19775,0.00043
2698.26904,0.00038
2696.34033,0.00042
2694.41161,0.00039
2692.48290,0.00046
2690.55419,0.00069
2688.62548,0.00090
2686.69676,0.00097
2684.76805,0.00087
2682.83934,0.00048
2680.91062,0.00044
2678.98191,0.00055
2677.05320,0.00074
2675.12449,0.00068
2673.19577,0.00028
2671.26706,0.00011
2669.33835,0.00038
2667.40964,0.00050
2665.48092,0.00041
2663.55221,0.00008
2661.62350,0.00051
2659.69479,0.00061
2657.76607,0.00055
2655.83736,0.00048
2653.90865,0.00065
2651.97993,0.00086
2650.05122,0.00097
2648.12251,0.00101
2646.19380,0.00081
2644.26508,0.00041
2642.33637,0.00063
2640.40766,0.00088
2638.47895,0.00058
2636.55023,0.00040
2634.62152,0.00060
2632.69281,0.00080
2630.76410,0.00079
2628.83538,0.00071
2626.90667,0.00076
2624.97796,0.00075
2623.04924,0.00046
2621.12053,0.00005
2619.19182,0.00030
2617.26311,0.00060
2615.33439,0.00057
2613.40568,0.00071
2611.47697,0.00096
2609.54826,0.00070
2607.61954,0.00052
2605.69083,0.00082
2603.76212,0.00084
2601.83341,0.00081
2599.90469,0.00074
2597.97598,0.00053
2596.04727,0.00051
2594.11855,0.00063
2592.18984,0.00064
2590.26113,0.00036
2588.33242,0.00027
2586.40370,0.00025
2584.47499,0.00036
2582.54628,0.00068
2580.61757,0.00091
2578.68885,0.00096
2576.76014,0.00095
2574.83143,0.00093
2572.90271,0.00101
2570.97400,0.00097
2569.04529,0.00060
2567.11658,0.00049
2565.18786,0.00058
2563.25915,0.00071
2561.33044,0.00070
2559.40173,0.00048
2557.47301,0.00047
2555.54430,0.00017
2553.61559,0.00059
2551.68688,0.00068
2549.75816,0.00072
2547.82945,0.00082
2545.90074,0.00053
2543.97202,0.00019
2542.04331,0.00042
2540.11460,0.00028
2538.18589,0.00040
2536.25717,0.00059
2534.32846,0.00046
2532.39975,0.00066
2530.47104,0.00113
2528.54232,0.00129
2526.61361,0.00125
2524.68490,0.00087
2522.75619,0.00088
2520.82747,0.00088
2518.89876,0.00053
2516.97005,0.00031
2515.04133,0.00037
2513.11262,0.00046
2511.18391,0.00074
2509.25520,0.00077
2507.32648,0.00049
2505.39777,0.00053
2503.46906,0.00104
2501.54035,0.00128
2499.61163,0.00066
2497.68292,0.00017
2495.75421,0.00076
2493.82549,0.00045
2491.89678,0.00018
2489.96807,0.00049
2488.03936,0.00080
2486.11064,0.00077
2484.18193,0.00055
2482.25322,0.00009
2480.32451,0.00037
2478.39579,0.00037
2476.46708,0.00036
2474.53837,0.00041
2472.60966,0.00058
2470.68094,0.00091
2468.75223,0.00083
2466.82352,0.00062
2464.89480,0.00069
2462.96609,0.00062
2461.03738,0.00038
2459.10867,0.00046
2457.17995,0.00064
2455.25124,0.00074
2453.32253,0.00086
2451.39382,0.00080
2449.46510,0.00063
2447.53639,0.00053
2445.60768,0.00080
2443.67897,0.00120
2441.75025,0.00121
2439.82154,0.00085
2437.89283,0.00043
2435.96411,0.00032
2434.03540,0.00045
2432.10669,0.00043
2430.17798,0.00043
2428.24926,0.00064
2426.32055,0.00087
2424.39184,0.00085
2422.46313,0.00062
2420.53441,0.00046
2418.60570,0.00057
2416.67699,0.00074
2414.74828,0.00059
2412.81956,0.00020
2410.89085,0.00041
2408.96214,0.00066
2407.03342,0.00070
2405.10471,0.00012
2403.17600,0.00026
2401.24729,0.00040
2399.31857,0.00040
2397.38986,0.00048
2395.46115,0.00043
2393.53244,0.00047
2391.60372,0.00073
2389.67501,0.00045
2387.74630,0.00013
2385.81758,0.00030
2383.88887,0.00076
2381.96016,0.00079
2380.03145,0.00025
2378.10273,-0.00010
2376.17402,0.00024
2374.24531,0.00062
2372.31660,0.00069
2370.38788,0.00099
2368.45917,0.00128
2366.53046,0.00081
2364.60175,0.00098
2362.67303,0.00145
2360.74432,0.00140
2358.81561,0.00108
2356.88689,0.00084
2354.95818,0.00043
2353.02947,0.00097
2351.10076,0.00142
2349.17204,0.00114
2347.24333,0.00084
2345.31462,0.00087
2343.38591,0.00091
2341.45719,0.00080
2339.52848,0.00092
2337.59977,0.00139
2335.67106,0.00130
2333.74234,0.00071
2331.81363,0.00032
2329.88492,0.00112
2327.95620,0.00205
2326.02749,0.00163
2324.09878,0.00056
2322.17007,0.00091
2320.24135,0.00047
2318.31264,0.00080
2316.38393,0.00110
2314.45522,0.00087
2312.52650,0.00091
2310.59779,0.00098
2308.66908,0.00070
2306.74037,0.00083
2304.81165,0.00106
2302.88294,0.00084
2300.95423,0.00031
2299.02551,0.00028
2297.09680,0.00077
2295.16809,0.00134
2293.23938,0.00120
2291.31066,0.00076
2289.38195,0.00060
2287.45324,0.00062
2285.52453,0.00063
2283.59581,0.00055
2281.66710,0.00049
2279.73839,0.00084
2277.80967,0.00057
2275.88096,0.00057
2273.95225,0.00104
2272.02354,0.00110
2270.09482,0.00094
2268.16611,0.00085
2266.23740,0.00076
2264.30869,0.00055
2262.37997,0.00033
2260.45126,0.00020
2258.52255,0.00019
2256.59384,0.00025
2254.66512,0.00020
2252.73641,0.00027
2250.80770,0.00011
2248.87898,0.00023
2246.95027,0.00052
2245.02156,0.00050
2243.09285,0.00028
2241.16413,0.00022
2239.23542,0.00013
2237.30671,0.00017
2235.37800,0.00041
2233.44928,0.00054
2231.52057,0.00044
2229.59186,0.00035
2227.66315,0.00038
2225.73443,0.00038
2223.80572,0.00040
2221.87701,0.00031
2219.94829,0.00035
2218.01958,0.00059
2216.09087,0.00075
2214.16216,0.00070
2212.23344,0.00054
2210.30473,0.00036
2208.37602,0.00018
2206.44731,0.00028
2204.51859,0.00062
2202.58988,0.00066
2200.66117,0.00048
2198.73245,0.00058
2196.80374,0.00050
2194.87503,0.00027
2192.94632,0.00032
2191.01760,0.00063
2189.08889,0.00070
2187.16018,0.00045
2185.23147,0.00050
2183.30275,0.00070
2181.37404,0.00101
2179.44533,0.00118
2177.51662,0.00064
2175.58790,0.00027
2173.65919,0.00051
2171.73048,0.00061
2169.80176,0.00044
2167.87305,0.00043
2165.94434,0.00035
2164.01563,0.00034
2162.08691,0.00043
2160.15820,0.00011
2158.22949,0.00018
2156.30078,0.00083
2154.37206,0.00102
2152.44335,0.00075
2150.51464,0.00023
2148.58593,0.00049
2146.65721,0.00075
2144.72850,0.00065
2142.79979,0.00059
2140.87107,0.00057
2138.94236,-0.00022
2137.01365,0.00055
2135.08494,0.00112
2133.15622,0.00110
2131.22751,0.00086
2129.29880,0.00074
2127.37009,0.00082
2125.44137,0.00106
2123.51266,0.00095
2121.58395,0.00064
2119.65524,0.00060
2117.72652,0.00049
2115.79781,0.00028
2113.86910,0.00053
2111.94038,0.00073
2110.01167,0.00052
2108.08296,0.00023
2106.15425,0.00072
2104.22553,0.00123
2102.29682,0.00115
2100.36811,0.00054
2098.43940,-0.00006
2096.51068,-0.00001
2094.58197,0.00029
2092.65326,0.00049
2090.72454,0.00079
2088.79583,0.00075
2086.86712,0.00066
2084.93841,0.00057
2083.00969,0.00051
2081.08098,0.00033
2079.15227,0.00031
2077.22356,0.00047
2075.29484,0.00050
2073.36613,0.00043
2071.43742,0.00025
2069.50871,0.00002
2067.57999,0.00032
2065.65128,0.00076
2063.72257,0.00121
2061.79385,0.00119
2059.86514,0.00073
2057.93643,0.00026
2056.00772,0.00020
2054.07900,0.00042
2052.15029,0.00043
2050.22158,0.00032
2048.29287,0.00058
2046.36415,0.00078
2044.43544,0.00072
2042.50673,0.00063
2040.57802,0.00075
2038.64930,0.00080
2036.72059,0.00056
2034.79188,0.00046
2032.86316,0.00078
2030.93445,0.00077
2029.00574,0.00078
2027.07703,0.00091
2025.14831,0.00109
2023.21960,0.00097
2021.29089,0.00047
2019.36218,0.00019
2017.43346,0.00040
2015.50475,0.00059
2013.57604,0.00047
2011.64733,0.00028
2009.71861,0.00027
2007.78990,0.00037
2005.86119,0.00036
2003.93247,0.00044
2002.00376,0.00080
2000.07505,0.00088
1998.14634,0.00082
1996.21762,0.00058
1994.28891,0.00048
1992.36020,0.00056
1990.43149,0.00056
1988.50277,0.00051
1986.57406,0.00053
1984.64535,0.00089
1982.71663,0.00096
1980.78792,0.00074
1978.85921,0.00045
1976.93050,0.00026
1975.00178,0.00030
1973.07307,0.00038
1971.14436,0.00072
1969.21565,0.00073
1967.28693,0.00056
1965.35822,0.00042
1963.42951,0.00029
1961.50080,-0.00027
1959.57208,-0.00002
1957.64337,0.00053
1955.71466,0.00077
1953.78594,0.00071
1951.85723,0.00064
1949.92852,0.00053
1947.99981,0.00090
1946.07109,0.00085
1944.14238,0.00049
1942.21367,0.00021
1940.28496,0.00028
1938.35624,0.00035
1936.42753,0.00013
1934.49882,0.00003
1932.57011,0.00033
1930.64139,0.00049
1928.71268,0.00044
1926.78397,0.00071
1924.85525,0.00107
1922.92654,0.00089
1920.99783,0.00057
1919.06912,0.00059
1917.14040,0.00066
1915.21169,0.00054
1913.28298,0.00057
1911.35427,0.00065
1909.42555,0.00056
1907.49684,0.00041
1905.56813,0.00053
1903.63941,0.00052
1901.71070,0.00020
1899.78199,0.00007
1897.85328,0.00026
1895.92456,0.00036
1893.99585,0.00045
1892.06714,0.00057
1890.13843,0.00074
1888.20971,0.00066
1886.28100,0.00039
1884.35229,0.00028
1882.42358,0.00048
1880.49486,0.00070
1878.56615,0.00062
1876.63744,-0.00001
1874.70872,-0.00016
1872.78001,0.00046
1870.85130,0.00117
1868.92259,0.00114
1866.99387,0.00073
1865.06516,0.00048
1863.13645,0.00045
1861.20774,0.00050
1859.27902,0.00072
1857.35031,0.00043
1855.42160,0.00022
1853.49289,0.00052
1851.56417,0.00057
1849.63546,0.00044
1847.70675,0.00064
1845.77803,0.00085
1843.84932,0.00080
1841.92061,0.00059
1839.99190,0.00056
1838.06318,0.00073
1836.13447,0.00074
1834.20576,0.00052
1832.27705,0.00047
1830.34833,0.00046
1828.41962,0.00073
1826.49091,0.00081
1824.56220,0.00063
1822.63348,0.00055
1820.70477,0.00059
1818.77606,0.00056
1816.84734,0.00066
1814.91863,0.00076
1812.98992,0.00074
1811.06121,0.00063
1809.13249,0.00061
1807.20378,0.00078
1805.27507,0.00060
1803.34636,0.00025
1801.41764,0.00018
1799.48893,0.00029
1797.56022,0.00045
1795.63150,0.00064
1793.70279,0.00117
1791.77408,0.00128
1789.84537,0.00061
1787.91665,0.00012
1785.98794,0.00037
1784.05923,0.00072
1782.13052,0.00092
1780.20180,0.00069
1778.27309,0.00052
1776.34438,0.00087
1774.41567,0.00098
1772.48695,0.00040
1770.55824,0.00033
1768.62953,0.00061
1766.70081,0.00048
1764.77210,0.00041
1762.84339,0.00048
1760.91468,0.00046
1758.98596,0.00070
1757.05725,0.00038
1755.12854,0.00040
1753.19983,0.00082
1751.27111,0.00101
1749.34240,0.00072
1747.41369,0.00051
1745.48498,-0.00035
1743.55626,0.00008
1741.62755,0.00086
1739.69884,0.00122
1737.77012,0.00098
1735.84141,0.00070
1733.91270,0.00061
1731.98399,0.00086
1730.05527,0.00083
1728.12656,0.00035
1726.19785,0.00007
1724.26914,0.00046
1722.34042,0.00059
1720.41171,0.00083
1718.48300,0.00139
1716.55429,0.00182
1714.62557,0.00128
1712.69686,0.00080
1710.76815,0.00053
1708.83943,0.00027
1706.91072,0.00028
1704.98201,0.00069
1703.05330,0.00067
1701.12458,0.00050
1699.19587,0.00031
1697.26716,0.00102
1695.33845,0.00127
1693.40973,0.00097
1691.48102,0.00074
1689.55231,0.00091
1687.62359,0.00115
1685.69488,0.00127
1683.76617,0.00085
1681.83746,0.00067
1679.90874,0.00047
1677.98003,0.00052
1676.05132,0.00077
1674.12261,0.00073
1672.19389,0.00037
1670.26518,0.00033
1668.33647,0.00036
1666.40776,0.00025
1664.47904,0.00021
1662.55033,0.00049
1660.62162,0.00069
1658.69290,0.00115
1656.76419,0.00194
1654.83548,0.00283
1652.90677,0.00285
1650.97805,0.00178
1649.04934,0.00124
1647.12063,0.00091
1645.19192,0.00073
1643.26320,0.00058
1641.33449,0.00037
1639.40578,0.00053
1637.47707,0.00108
1635.54835,0.00148
1633.61964,0.00122
1631.69093,0.00075
1629.76221,0.00018
1627.83350,0.00089
1625.90479,0.00109
1623.97608,0.00121
1622.04736,0.00085
1620.11865,0.00107
1618.18994,0.00089
1616.26123,0.00069
1614.33251,0.00069
1612.40380,0.00034
1610.47509,0.00000
1608.54637,0.00004
1606.61766,0.00031
1604.68895,0.00044
1602.76024,0.00052
1600.83152,0.00067
1598.90281,0.00073
1596.97410,0.00067
1595.04539,0.00060
1593.11667,0.00060
1591.18796,0.00017
1589.25925,0.00032
1587.33054,0.00054
1585.40182,0.00077
1583.47311,0.00084
1581.54440,0.00072
1579.61568,0.00055
1577.68697,0.00063
1575.75826,0.00117
1573.82955,0.00152
1571.90083,0.00146
1569.97212,0.00082
1568.04341,0.00008
1566.11470,0.00017
1564.18598,0.00057
1562.25727,0.00104
1560.32856,0.00089
1558.39985,0.00144
1556.47113,0.00138
1554.54242,0.00100
1552.61371,0.00043
1550.68499,0.00027
1548.75628,0.00043
1546.82757,0.00037
1544.89886,0.00008
1542.97014,0.00026
1541.04143,0.00133
1539.11272,0.00114
1537.18401,0.00057
1535.25529,0.00062
1533.32658,0.00114
1531.39787,0.00126
1529.46916,0.00052
1527.54044,0.00079
1525.61173,0.00090
1523.68302,0.00097
1521.75430,0.00135
1519.82559,0.00160
1517.89688,0.00150
1515.96817,0.00080
1514.03945,0.00036
1512.11074,0.00059
1510.18203,0.00084
1508.25332,0.00101
1506.32460,-0.00040
1504.39589,0.00036
1502.46718,0.00071
1500.53846,0.00059
1498.60975,0.00026
1496.68104,0.00014
1494.75233,0.00047
1492.82361,0.00067
1490.89490,0.00051
1488.96619,0.00042
1487.03748,0.00036
1485.10876,0.00062
1483.18005,0.00081
1481.25134,0.00069
1479.32263,0.00048
1477.39391,0.00034
1475.46520,0.00040
1473.53649,0.00059
1471.60777,0.00048
1469.67906,0.00060
1467.75035,0.00062
1465.82164,0.00052
1463.89292,0.00041
1461.96421,0.00019
1460.03550,0.00043
1458.10679,0.00098
1456.17807,0.00126
1454.24936,0.00112
1452.32065,0.00085
1450.39194,0.00029
1448.46322,0.00015
1446.53451,0.00045
1444.60580,0.00078
1442.67708,0.00113
1440.74837,0.00106
1438.81966,0.00106
1436.89095,0.00127
1434.96223,0.00113
1433.03352,0.00064
1431.10481,0.00034
1429.17610,0.00017
1427.24738,0.00030
1425.31867,0.00052
1423.38996,0.00043
1421.46125,0.00031
1419.53253,0.00083
1417.60382,0.00145
1415.67511,0.00158
1413.74639,0.00119
1411.81768,0.00074
1409.88897,0.00061
1407.96026,0.00086
1406.03154,0.00074
1404.10283,0.00062
1402.17412,0.00044
1400.24541,0.00051
1398.31669,0.00028
1396.38798,0.00041
1394.45927,0.00082
1392.53055,0.00094
1390.60184,0.00054
1388.67313,0.00020
1386.74442,0.00034
1384.81570,0.00045
1382.88699,0.00020
1380.95828,0.00046
1379.02957,0.00044
1377.10085,0.00042
1375.17214,0.00041
1373.24343,0.00008
1371.31472,0.00017
1369.38600,0.00052
1367.45729,0.00064
1365.52858,0.00062
1363.59986,0.00076
1361.67115,0.00100
1359.74244,0.00096
1357.81373,0.00073
1355.88501,0.00054
1353.95630,0.00041
1352.02759,0.00022
1350.09888,0.00025
1348.17016,0.00038
1346.24145,0.00065
1344.31274,0.00069
1342.38403,0.00037
1340.45531,-0.00013
1338.52660,-0.00013
1336.59789,0.00015
1334.66917,0.00054
1332.74046,0.00096
1330.81175,0.00097
1328.88304,0.00059
1326.95432,0.00061
1325.02561,0.00114
1323.09690,0.00142
1321.16819,0.00122
1319.23947,0.00085
1317.31076,0.00068
1315.38205,0.00122
1313.45333,0.00111
1311.52462,0.00085
1309.59591,0.00073
1307.66720,0.00072
1305.73848,0.00047
1303.80977,0.00012
1301.88106,-0.00004
1299.95235,0.00038
1298.02363,0.00058
1296.09492,0.00039
1294.16621,0.00033
1292.23750,0.00034
1290.30878,0.00028
1288.38007,0.00058
1286.45136,0.00075
1284.52264,0.00037
1282.59393,0.00007
1280.66522,0.00019
1278.73651,0.00050
1276.80779,0.00105
1274.87908,0.00118
1272.95037,0.00081
1271.02166,0.00040
1269.09294,0.00043
1267.16423,0.00052
1265.23552,0.00030
1263.30681,0.00011
1261.37809,0.00035
1259.44938,0.00081
1257.52067,0.00110
1255.59195,0.00088
1253.66324,0.00076
1251.73453,0.00077
1249.80582,0.00075
1247.87710,0.00042
1245.94839,0.00041
1244.01968,0.00083
1242.09097,0.00111
1240.16225,0.00090
1238.23354,0.00055
1236.30483,0.00033
1234.37612,0.00048
1232.44740,0.00058
1230.51869,0.00065
1228.58998,0.00065
1226.66126,0.00045
1224.73255,0.00034
1222.80384,0.00048
1220.87513,0.00043
1218.94641,0.00013
1217.01770,0.00021
1215.08899,0.00074
1213.16028,0.00090
1211.23156,0.00077
1209.30285,0.00066
1207.37414,0.00059
1205.44542,0.00035
1203.51671,0.00030
1201.58800,0.00045
1199.65929,0.00044
1197.73057,0.00017
1195.80186,0.00024
1193.87315,0.00035
1191.94444,0.00046
1190.01572,0.00054
1188.08701,0.00093
1186.15830,0.00091
1184.22959,0.00096
1182.30087,0.00068
1180.37216,0.00049
1178.44345,0.00046
1176.51473,0.00083
1174.58602,0.00077
1172.65731,0.00074
1170.72860,0.00075
1168.79988,0.00064
1166.87117,0.00054
1164.94246,0.00046
1163.01375,0.00041
1161.08503,0.00052
1159.15632,0.00049
1157.22761,0.00037
1155.29890,0.00083
1153.37018,0.00080
1151.44147,0.00044
1149.51276,0.00072
1147.58404,0.00101
1145.65533,0.00106
1143.72662,0.00074
1141.79791,0.00037
1139.86919,0.00066
1137.94048,0.00115
1136.01177,0.00105
1134.08306,0.00082
1132.15434,0.00024
1130.22563,0.00003
1128.29692,0.00113
1126.36821,0.00203
1124.43949,0.00172
1122.51078,0.00082
1120.58207,0.00018
1118.65335,0.00016
1116.72464,0.00023
1114.79593,0.00031
1112.86722,0.00019
1110.93850,0.00053
1109.00979,0.00021
1107.08108,0.00028
1105.15237,0.00061
1103.22365,0.00121
1101.29494,0.00151
1099.36623,0.00165
1097.43751,0.00175
1095.50880,0.00130
1093.58009,0.00075
1091.65138,0.00160
1089.72266,0.00133
1087.79395,0.00113
1085.86524,0.00119
1083.93653,0.00089
1082.00781,-0.00009
1080.07910,-0.00008
1078.15039,0.00088
1076.22168,0.00130
1074.29296,0.00080
1072.36425,0.00067
1070.43554,0.00155
1068.50682,0.00200
1066.57811,0.00146
1064.64940,0.00103
1062.72069,0.00091
1060.79197,0.00084
1058.86326,0.00087
1056.93455,0.00149
1055.00584,0.00200
1053.07712,0.00189
1051.14841,0.00153
1049.21970,0.00130
1047.29099,0.00114
1045.36227,0.00120
1043.43356,0.00111
1041.50485,0.00093
1039.57613,0.00148
1037.64742,0.00170
1035.71871,0.00121
1033.79000,0.00113
1031.86128,0.00136
1029.93257,0.00153
1028.00386,0.00130
1026.07515,0.00082
1024.14643,0.00072
1022.21772,0.00139
1020.28901,0.00147
1018.36029,0.00145
1016.43158,0.00127
1014.50287,0.00127
1012.57416,0.00103
1010.64544,0.00073
1008.71673,0.00079
1006.78802,0.00110
1004.85931,0.00104
1002.93059,0.00063
1001.00188,0.00049
999.07317,0.00086
997.14446,0.00113
995.21574,0.00099
993.28703,0.00078
991.35832,0.00087
989.42960,0.00075
987.50089,0.00086
985.57218,0.00133
983.64347,0.00149
981.71475,0.00103
979.78604,0.00061
977.85733,0.00084
975.92862,0.00124
973.99990,0.00120
972.07119,0.00123
970.14248,0.00159
968.21377,0.00163
966.28505,0.00149
964.35634,0.00129
962.42763,0.00106
960.49891,0.00139
958.57020,0.00143
956.64149,0.00137
954.71278,0.00120
952.78406,0.00085
950.85535,0.00048
948.92664,0.00076
946.99793,0.00076
945.06921,0.00014
943.14050,0.00018
941.21179,0.00049
939.28308,0.00093
937.35436,0.00140
935.42565,0.00089
933.49694,0.00003
931.56822,0.00004
929.63951,0.00052
927.71080,0.00138
925.78209,0.00191
923.85337,0.00130
921.92466,0.00091
919.99595,0.00105
918.06724,0.00122
916.13852,0.00093
914.20981,0.00022
912.28110,0.00022
910.35238,0.00077
908.42367,0.00102
906.49496,0.00110
904.56625,0.00093
902.63753,0.00098
900.70882,0.00121
898.78011,0.00124
896.85140,0.00062
894.92268,0.00008
892.99397,0.00028
891.06526,0.00119
889.13655,0.00171
887.20783,0.00183
885.27912,0.00150
883.35041,0.00124
881.42169,0.00124
879.49298,0.00125
877.56427,0.00130
875.63556,0.00144
873.70684,0.00084
871.77813,0.00064
869.84942,0.00067
867.92071,0.00103
865.99199,0.00107
864.06328,0.00097
862.13457,0.00116
860.20586,0.00158
858.27714,0.00161
856.34843,0.00102
854.41972,0.00018
852.49100,0.00088
850.56229,0.00080
848.63358,0.00133
846.70487,0.00156
844.77615,0.00140
842.84744,0.00118
840.91873,0.00151
838.99002,0.00047
837.06130,0.00075
835.13259,0.00142
833.20388,0.00145
831.27516,0.00085
829.34645,0.00074
827.41774,0.00039
825.48903,0.00104
823.56031,0.00098
821.63160,0.00066
819.70289,0.00043
817.77418,0.00077
815.84546,0.00148
813.91675,0.00193
811.98804,0.00189
810.05933,0.00201
808.13061,0.00185
806.20190,0.00074
804.27319,0.00060
802.34447,0.00129
800.41576,0.00119
798.48705,0.00089
796.55834,0.00049
794.62962,0.00062
792.70091,0.00131
790.77220,0.00117
788.84349,0.00069
786.91477,0.00150
784.98606,0.00204
783.05735,0.00144
781.12864,0.00109
779.19992,0.00122
777.27121,0.00039
775.34250,0.00080
773.41378,0.00138
771.48507,0.00219
769.55636,0.00252
767.62765,0.00254
765.69893,0.00250
763.77022,0.00205
761.84151,0.00135
759.91280,0.00154
757.98408,0.00184
756.05537,0.00192
754.12666,0.00168
752.19795,0.00190
750.26923,0.00198
748.34052,0.00099
746.41181,0.00017
744.48309,0.00112
742.55438,0.00128
740.62567,0.00122
738.69696,0.00102
736.76824,0.00170
734.83953,0.00167
732.91082,0.00086
730.98211,0.00105
729.05339,0.00100
727.12468,0.00160
725.19597,0.00205
723.26725,0.00168
721.33854,0.00112
719.40983,0.00084
717.48112,0.00127
715.55240,0.00140
713.62369,0.00126
711.69498,0.00157
709.76627,0.00138
707.83755,0.00082
705.90884,0.00087
703.98013,0.00012
702.05142,0.00066
700.12270,0.00170
698.19399,0.00167
696.26528,0.00145
694.33656,0.00155
692.40785,0.00109
690.47914,0.00132
688.55043,0.00198
686.62171,0.00154
684.69300,0.00062
682.76429,0.00088
680.83558,0.00171
678.90686,0.00176
676.97815,0.00109
675.04944,0.00072
673.12073,0.00119
671.19201,0.00163
669.26330,0.00096
667.33459,0.00204
665.40587,0.00172
663.47716,0.00182
661.54845,0.00171
659.61974,0.00118
657.69102,0.00162
655.76231,0.00264
653.83360,0.00194
651.90489,0.00064
649.97617,0.00131
648.04746,0.00320
646.11875,0.00387
644.19004,0.00278
642.26132,0.00164
640.33261,0.00168
638.40390,0.00251
636.47518,0.00283
634.54647,0.00204
632.61776,0.00116
630.68905,0.00133
628.76033,0.00181
626.83162,0.00263
624.90291,0.00352
622.97420,0.00333
621.04548,0.00306
619.11677,0.00309
617.18806,0.00255
615.25934,-0.00046
613.33063,-0.00020
611.40192,0.00236
609.47321,0.00483
607.54449,0.00632
605.61578,0.00602
603.68707,0.00342
601.75836,0.00128
599.82964,0.00146
