7496.90619,0.93206
7494.97747,0.94007
7493.04876,0.94904
7491.12005,0.95177
7489.19134,0.94803
7487.26262,0.93613
7485.33391,0.92343
7483.40520,0.92524
7481.47648,0.93966
7479.54777,0.94254
7477.61906,0.92739
7475.69035,0.91644
7473.76163,0.92080
7471.83292,0.92909
7469.90421,0.92973
7467.97550,0.92932
7466.04678,0.93596
7464.11807,0.94098
7462.18936,0.93894
7460.26065,0.93433
7458.33193,0.93081
7456.40322,0.93156
7454.47451,0.93752
7452.54579,0.94322
7450.61708,0.94066
7448.68837,0.93279
7446.75966,0.92801
7444.83094,0.92721
7442.90223,0.92795
7440.97352,0.92872
7439.04481,0.93079
7437.11609,0.93500
7435.18738,0.94182
7433.25867,0.95049
7431.32996,0.95192
7429.40124,0.94393
7427.47253,0.93886
7425.54382,0.94082
7423.61510,0.93937
7421.68639,0.93111
7419.75768,0.92476
7417.82897,0.92360
7415.90025,0.92310
7413.97154,0.92360
7412.04283,0.93009
7410.11412,0.93981
7408.18540,0.94426
7406.25669,0.94180
7404.32798,0.94098
7402.39927,0.94640
7400.47055,0.94434
7398.54184,0.92691
7396.61313,0.91304
7394.68441,0.91925
7392.75570,0.93429
7390.82699,0.93887
7388.89828,0.93760
7386.96956,0.94075
7385.04085,0.93920
7383.11214,0.93048
7381.18343,0.92603
7379.25471,0.92441
7377.32600,0.92049
7375.39729,0.92168
7373.46857,0.92839
7371.53986,0.92932
7369.61115,0.92306
7367.68244,0.91878
7365.75372,0.92012
7363.82501,0.92488
7361.89630,0.93147
7359.96759,0.93418
7358.03887,0.93068
7356.11016,0.92688
7354.18145,0.92560
7352.25274,0.92620
7350.32402,0.92982
7348.39531,0.93169
7346.46660,0.92557
7344.53788,0.91903
7342.60917,0.91782
7340.68046,0.91958
7338.75175,0.92688
7336.82303,0.93606
7334.89432,0.94077
7332.96561,0.94276
7331.03690,0.94254
7329.10818,0.93772
7327.17947,0.92857
7325.25076,0.91959
7323.32205,0.91513
7321.39333,0.91635
7319.46462,0.91996
7317.53591,0.92107
7315.60719,0.92164
7313.67848,0.92505
7311.74977,0.92587
7309.82106,0.92391
7307.89234,0.92598
7305.96363,0.92857
7304.03492,0.92611
7302.10621,0.92012
7300.17749,0.91402
7298.24878,0.91087
7296.32007,0.90859
7294.39136,0.90829
7292.46264,0.91610
7290.53393,0.92664
7288.60522,0.93315
7286.67650,0.93916
7284.74779,0.94441
7282.81908,0.94264
7280.89037,0.93410
7278.96165,0.92497
7277.03294,0.92047
7275.10423,0.92135
7273.17552,0.92555
7271.24680,0.93010
7269.31809,0.93065
7267.38938,0.92856
7265.46066,0.92811
7263.53195,0.92690
7261.60324,0.92718
7259.67453,0.93376
7257.74581,0.93700
7255.81710,0.92897
7253.88839,0.92048
7251.95968,0.92042
7250.03096,0.92099
7248.10225,0.91772
7246.17354,0.91225
7244.24483,0.90359
7242.31611,0.89985
7240.38740,0.90843
7238.45869,0.91933
7236.52997,0.92191
7234.60126,0.91165
7232.67255,0.89687
7230.74384,0.89540
7228.81512,0.90484
7226.88641,0.91142
7224.95770,0.91186
7223.02899,0.90868
7221.10027,0.90284
7219.17156,0.89880
7217.24285,0.90246
7215.31414,0.90985
7213.38542,0.91764
7211.45671,0.92546
7209.52800,0.92565
7207.59928,0.91523
7205.67057,0.90366
7203.74186,0.90320
7201.81315,0.91317
7199.88443,0.91920
7197.95572,0.91626
7196.02701,0.91062
7194.09830,0.90711
7192.16958,0.90924
7190.24087,0.91451
7188.31216,0.91658
7186.38344,0.91675
7184.45473,0.91399
7182.52602,0.90507
7180.59731,0.89976
7178.66859,0.90338
7176.73988,0.90808
7174.81117,0.91311
7172.88246,0.91890
7170.95374,0.91826
7169.02503,0.91127
7167.09632,0.90889
7165.16761,0.91312
7163.23889,0.91586
7161.31018,0.91560
7159.38147,0.91318
7157.45275,0.90826
7155.52404,0.90679
7153.59533,0.91168
7151.66662,0.91794
7149.73790,0.92092
7147.80919,0.91805
7145.88048,0.91219
7143.95177,0.91036
7142.02305,0.91405
7140.09434,0.92138
7138.16563,0.92731
7136.23692,0.92398
7134.30820,0.91487
7132.37949,0.91116
7130.45078,0.91584
7128.52206,0.92378
7126.59335,0.92887
7124.66464,0.92970
7122.73593,0.92976
7120.80721,0.92900
7118.87850,0.92444
7116.94979,0.91954
7115.02108,0.92066
7113.09236,0.92632
7111.16365,0.93081
7109.23494,0.93106
7107.30623,0.92652
7105.37751,0.91915
7103.44880,0.91541
7101.52009,0.91757
7099.59137,0.91922
7097.66266,0.91573
7095.73395,0.91122
7093.80524,0.91270
7091.87652,0.91897
7089.94781,0.92168
7088.01910,0.91721
7086.09039,0.91070
7084.16167,0.90823
7082.23296,0.90790
7080.30425,0.90510
7078.37553,0.90255
7076.44682,0.90575
7074.51811,0.91282
7072.58940,0.91611
7070.66068,0.91539
7068.73197,0.91580
7066.80326,0.91581
7064.87455,0.91531
7062.94583,0.91632
7061.01712,0.91410
7059.08841,0.90866
7057.15970,0.90754
7055.23098,0.90876
7053.30227,0.90728
7051.37356,0.90767
7049.44484,0.91131
7047.51613,0.91486
7045.58742,0.91856
7043.65871,0.92070
7041.72999,0.92069
7039.80128,0.92153
7037.87257,0.92141
7035.94386,0.91878
7034.01514,0.91817
7032.08643,0.92052
7030.15772,0.92019
7028.22901,0.91555
7026.30029,0.91255
7024.37158,0.91441
7022.44287,0.91766
7020.51415,0.92043
7018.58544,0.92292
7016.65673,0.92335
7014.72802,0.92210
7012.79930,0.92103
7010.87059,0.91797
7008.94188,0.91154
7007.01317,0.90821
7005.08445,0.91387
7003.15574,0.92229
7001.22703,0.92443
6999.29832,0.92233
6997.36960,0.92147
6995.44089,0.92141
6993.51218,0.92141
6991.58346,0.92206
6989.65475,0.92094
6987.72604,0.91782
6985.79733,0.91761
6983.86861,0.92111
6981.93990,0.92188
6980.01119,0.91717
6978.08248,0.91416
6976.15376,0.91718
6974.22505,0.91899
6972.29634,0.91533
6970.36762,0.91331
6968.43891,0.91714
6966.51020,0.92048
6964.58149,0.91821
6962.65277,0.91412
6960.72406,0.91056
6958.79535,0.90688
6956.86664,0.90810
6954.93792,0.91472
6953.00921,0.92037
6951.08050,0.92403
6949.15179,0.92426
6947.22307,0.91922
6945.29436,0.91481
6943.36565,0.91513
6941.43693,0.91957
6939.50822,0.92648
6937.57951,0.92909
6935.65080,0.92489
6933.72208,0.92146
6931.79337,0.92195
6929.86466,0.92443
6927.93595,0.92813
6926.00723,0.92942
6924.07852,0.92515
6922.14981,0.92031
6920.22110,0.92008
6918.29238,0.92099
6916.36367,0.92147
6914.43496,0.92558
6912.50624,0.93046
6910.57753,0.92888
6908.64882,0.92013
6906.72011,0.91319
6904.79139,0.91682
6902.86268,0.92558
6900.93397,0.92850
6899.00526,0.92573
6897.07654,0.92396
6895.14783,0.92435
6893.21912,0.92428
6891.29040,0.92611
6889.36169,0.92971
6887.43298,0.92799
6885.50427,0.92217
6883.57555,0.92069
6881.64684,0.92584
6879.71813,0.93169
6877.78942,0.93073
6875.86070,0.92524
6873.93199,0.92325
6872.00328,0.92449
6870.07457,0.92416
6868.14585,0.92330
6866.21714,0.92651
6864.28843,0.93252
6862.35971,0.93567
6860.43100,0.93464
6858.50229,0.93230
6856.57358,0.93160
6854.64486,0.93181
6852.71615,0.92927
6850.78744,0.92472
6848.85873,0.92190
6846.93001,0.92107
6845.00130,0.92064
6843.07259,0.92119
6841.14388,0.92331
6839.21516,0.92587
6837.28645,0.92804
6835.35774,0.92917
6833.42902,0.92855
6831.50031,0.92619
6829.57160,0.92487
6827.64289,0.92650
6825.71417,0.92676
6823.78546,0.92520
6821.85675,0.92613
6819.92804,0.92818
6817.99932,0.93026
6816.07061,0.93220
6814.14190,0.93092
6812.21319,0.92785
6810.28447,0.92727
6808.35576,0.92766
6806.42705,0.92420
6804.49833,0.91796
6802.56962,0.91561
6800.64091,0.92001
6798.71220,0.92633
6796.78348,0.92761
6794.85477,0.92525
6792.92606,0.92680
6790.99735,0.93111
6789.06863,0.93171
6787.13992,0.93060
6785.21121,0.93154
6783.28249,0.93424
6781.35378,0.93773
6779.42507,0.93778
6777.49636,0.93324
6775.56764,0.92927
6773.63893,0.92784
6771.71022,0.92777
6769.78151,0.92750
6767.85279,0.92680
6765.92408,0.92781
6763.99537,0.92939
6762.06666,0.92916
6760.13794,0.92933
6758.20923,0.93187
6756.28052,0.93431
6754.35180,0.93308
6752.42309,0.93046
6750.49438,0.93202
6748.56567,0.93702
6746.63695,0.93991
6744.70824,0.93672
6742.77953,0.93176
6740.85082,0.93235
6738.92210,0.93451
6736.99339,0.93294
6735.06468,0.93124
6733.13597,0.93198
6731.20725,0.93479
6729.27854,0.93757
6727.34983,0.93713
6725.42111,0.93528
6723.49240,0.93550
6721.56369,0.93598
6719.63498,0.93453
6717.70626,0.93260
6715.77755,0.93085
6713.84884,0.93045
6711.92013,0.93316
6709.99141,0.93639
6708.06270,0.93694
6706.13399,0.93563
6704.20528,0.93552
6702.27656,0.93614
6700.34785,0.93345
6698.41914,0.92934
6696.49042,0.92886
6694.56171,0.93175
6692.63300,0.93458
6690.70429,0.93389
6688.77557,0.93133
6686.84686,0.93125
6684.91815,0.93205
6682.98944,0.93081
6681.06072,0.92989
6679.13201,0.93161
6677.20330,0.93332
6675.27458,0.93245
6673.34587,0.93077
6671.41716,0.93079
6669.48845,0.93347
6667.55973,0.93691
6665.63102,0.93725
6663.70231,0.93478
6661.77360,0.93388
6659.84488,0.93658
6657.91617,0.94090
6655.98746,0.94232
6654.05875,0.93926
6652.13003,0.93670
6650.20132,0.93613
6648.27261,0.93506
6646.34389,0.93609
6644.41518,0.93959
6642.48647,0.94112
6640.55776,0.93965
6638.62904,0.93713
6636.70033,0.93548
6634.77162,0.93518
6632.84291,0.93444
6630.91419,0.93276
6628.98548,0.93175
6627.05677,0.93152
6625.12806,0.93178
6623.19934,0.93195
6621.27063,0.93031
6619.34192,0.92902
6617.41320,0.93146
6615.48449,0.93555
6613.55578,0.93835
6611.62707,0.93963
6609.69835,0.93867
6607.76964,0.93702
6605.84093,0.93848
6603.91222,0.94146
6601.98350,0.94254
6600.05479,0.94138
6598.12608,0.93831
6596.19736,0.93613
6594.26865,0.93721
6592.33994,0.93958
6590.41123,0.94042
6588.48251,0.93789
6586.55380,0.93296
6584.62509,0.92968
6582.69638,0.92888
6580.76766,0.92800
6578.83895,0.92713
6576.91024,0.92793
6574.98153,0.92974
6573.05281,0.93134
6571.12410,0.93281
6569.19539,0.93309
6567.26667,0.93154
6565.33796,0.93112
6563.40925,0.93334
6561.48054,0.93611
6559.55182,0.93780
6557.62311,0.93752
6555.69440,0.93520
6553.76569,0.93206
6551.83697,0.93011
6549.90826,0.93100
6547.97955,0.93305
6546.05084,0.93255
6544.12212,0.93039
6542.19341,0.93134
6540.26470,0.93526
6538.33598,0.93686
6536.40727,0.93576
6534.47856,0.93681
6532.54985,0.93957
6530.62113,0.94045
6528.69242,0.93938
6526.76371,0.93611
6524.83500,0.93153
6522.90628,0.92969
6520.97757,0.93157
6519.04886,0.93323
6517.12015,0.93255
6515.19143,0.93239
6513.26272,0.93364
6511.33401,0.93306
6509.40529,0.93038
6507.47658,0.92979
6505.54787,0.93272
6503.61916,0.93442
6501.69044,0.93298
6499.76173,0.93153
6497.83302,0.93144
6495.90431,0.93312
6493.97559,0.93518
6492.04688,0.93577
6490.11817,0.93578
6488.18945,0.93411
6486.26074,0.93038
6484.33203,0.92856
6482.40332,0.93031
6480.47460,0.93242
6478.54589,0.93183
6476.61718,0.93011
6474.68847,0.93023
6472.75975,0.93314
6470.83104,0.93832
6468.90233,0.94245
6466.97362,0.94213
6465.04490,0.93874
6463.11619,0.93622
6461.18748,0.93471
6459.25876,0.93190
6457.33005,0.92949
6455.40134,0.92897
6453.47263,0.92949
6451.54391,0.93234
6449.61520,0.93663
6447.68649,0.93812
6445.75778,0.93521
6443.82906,0.93148
6441.90035,0.93130
6439.97164,0.93318
6438.04293,0.93412
6436.11421,0.93440
6434.18550,0.93390
6432.25679,0.93286
6430.32807,0.93197
6428.39936,0.93005
6426.47065,0.92742
6424.54194,0.92695
6422.61322,0.93055
6420.68451,0.93689
6418.75580,0.94184
6416.82709,0.94285
6414.89837,0.94139
6412.96966,0.93940
6411.04095,0.93790
6409.11224,0.93672
6407.18352,0.93437
6405.25481,0.93225
6403.32610,0.93438
6401.39738,0.93968
6399.46867,0.94189
6397.53996,0.93970
6395.61125,0.93811
6393.68253,0.93918
6391.75382,0.94079
6389.82511,0.94097
6387.89640,0.93890
6385.96768,0.93641
6384.03897,0.93537
6382.11026,0.93481
6380.18154,0.93481
6378.25283,0.93626
6376.32412,0.93689
6374.39541,0.93393
6372.46669,0.92977
6370.53798,0.93011
6368.60927,0.93516
6366.68056,0.93880
6364.75184,0.93834
6362.82313,0.93686
6360.89442,0.93617
6358.96571,0.93633
6357.03699,0.93779
6355.10828,0.93943
6353.17957,0.94013
6351.25085,0.94006
6349.32214,0.93893
6347.39343,0.93659
6345.46472,0.93375
6343.53600,0.93138
6341.60729,0.93118
6339.67858,0.93488
6337.74987,0.93976
6335.82115,0.94083
6333.89244,0.93940
6331.96373,0.94020
6330.03502,0.94351
6328.10630,0.94491
6326.17759,0.94277
6324.24888,0.94059
6322.32016,0.93919
6320.39145,0.93691
6318.46274,0.93389
6316.53403,0.93172
6314.60531,0.93182
6312.67660,0.93245
6310.74789,0.93262
6308.81918,0.93436
6306.89046,0.93748
6304.96175,0.93969
6303.03304,0.93950
6301.10432,0.93651
6299.17561,0.93284
6297.24690,0.93185
6295.31819,0.93407
6293.38947,0.93753
6291.46076,0.93856
6289.53205,0.93593
6287.60334,0.93425
6285.67462,0.93512
6283.74591,0.93586
6281.81720,0.93635
6279.88849,0.93835
6277.95977,0.94160
6276.03106,0.94260
6274.10235,0.93989
6272.17363,0.93691
6270.24492,0.93629
6268.31621,0.93629
6266.38750,0.93367
6264.45878,0.92953
6262.53007,0.92820
6260.60136,0.93042
6258.67265,0.93444
6256.74393,0.93960
6254.81522,0.94332
6252.88651,0.94369
6250.95780,0.94213
6249.02908,0.93901
6247.10037,0.93611
6245.17166,0.93587
6243.24294,0.93643
6241.31423,0.93693
6239.38552,0.93839
6237.45681,0.93896
6235.52809,0.93662
6233.59938,0.93311
6231.67067,0.93113
6229.74196,0.93128
6227.81324,0.93322
6225.88453,0.93510
6223.95582,0.93468
6222.02711,0.93298
6220.09839,0.93155
6218.16968,0.93039
6216.24097,0.93081
6214.31225,0.93346
6212.38354,0.93555
6210.45483,0.93422
6208.52612,0.93066
6206.59740,0.92843
6204.66869,0.92902
6202.73998,0.93094
6200.81127,0.93253
6198.88255,0.93414
6196.95384,0.93582
6195.02513,0.93637
6193.09641,0.93610
6191.16770,0.93457
6189.23899,0.93108
6187.31028,0.92863
6185.38156,0.93033
6183.45285,0.93368
6181.52414,0.93334
6179.59543,0.92949
6177.66671,0.92679
6175.73800,0.92705
6173.80929,0.92888
6171.88058,0.93023
6169.95186,0.93086
6168.02315,0.93144
6166.09444,0.93086
6164.16572,0.93033
6162.23701,0.93141
6160.30830,0.93171
6158.37959,0.93116
6156.45087,0.93112
6154.52216,0.93092
6152.59345,0.93159
6150.66474,0.93369
6148.73602,0.93568
6146.80731,0.93594
6144.87860,0.93412
6142.94989,0.93254
6141.02117,0.93214
6139.09246,0.93148
6137.16375,0.92969
6135.23503,0.92827
6133.30632,0.92984
6131.37761,0.93268
6129.44890,0.93309
6127.52018,0.93159
6125.59147,0.93026
6123.66276,0.92959
6121.73405,0.92976
6119.80533,0.93103
6117.87662,0.93248
6115.94791,0.93280
6114.01919,0.93269
6112.09048,0.93298
6110.16177,0.93228
6108.23306,0.93080
6106.30434,0.93060
6104.37563,0.93090
6102.44692,0.93053
6100.51821,0.92943
6098.58949,0.92794
6096.66078,0.92756
6094.73207,0.92813
6092.80336,0.92846
6090.87464,0.92794
6088.94593,0.92591
6087.01722,0.92337
6085.08850,0.92222
6083.15979,0.92237
6081.23108,0.92218
6079.30237,0.92166
6077.37365,0.92230
6075.44494,0.92359
6073.51623,0.92477
6071.58752,0.92677
6069.65880,0.92959
6067.73009,0.93212
6065.80138,0.93373
6063.87267,0.93281
6061.94395,0.92914
6060.01524,0.92647
6058.08653,0.92599
6056.15781,0.92475
6054.22910,0.92281
6052.30039,0.92248
6050.37168,0.92326
6048.44296,0.92374
6046.51425,0.92334
6044.58554,0.92208
6042.65683,0.92154
6040.72811,0.92259
6038.79940,0.92406
6036.87069,0.92482
6034.94198,0.92443
6033.01326,0.92460
6031.08455,0.92612
6029.15584,0.92584
6027.22712,0.92258
6025.29841,0.91968
6023.36970,0.91909
6021.44099,0.91969
6019.51227,0.92062
6017.58356,0.92106
6015.65485,0.92090
6013.72614,0.92219
6011.79742,0.92454
6009.86871,0.92481
6007.94000,0.92275
6006.01128,0.92064
6004.08257,0.91866
6002.15386,0.91656
6000.22515,0.91647
5998.29643,0.91864
5996.36772,0.91965
5994.43901,0.91723
5992.51030,0.91281
5990.58158,0.91035
5988.65287,0.91211
5986.72416,0.91556
5984.79545,0.91707
5982.86673,0.91611
5980.93802,0.91429
5979.00931,0.91313
5977.08059,0.91347
5975.15188,0.91503
5973.22317,0.91633
5971.29446,0.91658
5969.36574,0.91710
5967.43703,0.91824
5965.50832,0.91763
5963.57961,0.91461
5961.65089,0.91246
5959.72218,0.91376
5957.79347,0.91641
5955.86476,0.91695
5953.93604,0.91450
5952.00733,0.91035
5950.07862,0.90833
5948.14990,0.91046
5946.22119,0.91221
5944.29248,0.91047
5942.36377,0.90775
5940.43505,0.90564
5938.50634,0.90416
5936.57763,0.90442
5934.64892,0.90648
5932.72020,0.90797
5930.79149,0.90785
5928.86278,0.90841
5926.93407,0.91026
5925.00535,0.91074
5923.07664,0.90990
5921.14793,0.90963
5919.21921,0.90885
5917.29050,0.90716
5915.36179,0.90652
5913.43308,0.90744
5911.50436,0.90779
5909.57565,0.90565
5907.64694,0.90291
5905.71823,0.90213
5903.78951,0.90187
5901.86080,0.90004
5899.93209,0.89814
5898.00337,0.89807
5896.07466,0.89866
5894.14595,0.89892
5892.21724,0.89907
5890.28852,0.89911
5888.35981,0.89876
5886.43110,0.89753
5884.50239,0.89602
5882.57367,0.89493
5880.64496,0.89302
5878.71625,0.88955
5876.78754,0.88624
5874.85882,0.88408
5872.93011,0.88217
5871.00140,0.87984
5869.07268,0.87667
5867.14397,0.87432
5865.21526,0.87430
5863.28655,0.87293
5861.35783,0.86789
5859.42912,0.86278
5857.50041,0.85919
5855.57170,0.85535
5853.64298,0.85121
5851.71427,0.84769
5849.78556,0.84595
5847.85685,0.84625
5845.92813,0.84593
5843.99942,0.84305
5842.07071,0.83896
5840.14199,0.83556
5838.21328,0.83332
5836.28457,0.83177
5834.35586,0.82980
5832.42714,0.82658
5830.49843,0.82252
5828.56972,0.81839
5826.64101,0.81462
5824.71229,0.81192
5822.78358,0.81034
5820.85487,0.80836
5818.92615,0.80482
5816.99744,0.80004
5815.06873,0.79525
5813.14002,0.79178
5811.21130,0.78922
5809.28259,0.78671
5807.35388,0.78432
5805.42517,0.78116
5803.49645,0.77719
5801.56774,0.77419
5799.63903,0.77171
5797.71032,0.76734
5795.78160,0.76142
5793.85289,0.75583
5791.92418,0.75069
5789.99546,0.74543
5788.06675,0.73966
5786.13804,0.73428
5784.20933,0.73014
5782.28061,0.72527
5780.35190,0.71881
5778.42319,0.71336
5776.49448,0.71080
5774.56576,0.71106
5772.63705,0.71495
5770.70834,0.72283
5768.77963,0.73302
5766.85091,0.74420
5764.92220,0.75602
5762.99349,0.76753
5761.06477,0.77780
5759.13606,0.78695
5757.20735,0.79500
5755.27864,0.80177
5753.34992,0.80812
5751.42121,0.81431
5749.49250,0.81959
5747.56379,0.82378
5745.63507,0.82714
5743.70636,0.83089
5741.77765,0.83626
5739.84894,0.84132
5737.92022,0.84356
5735.99151,0.84441
5734.06280,0.84536
5732.13408,0.84559
5730.20537,0.84562
5728.27666,0.84678
5726.34795,0.84911
5724.41923,0.85192
5722.49052,0.85489
5720.56181,0.85762
5718.63310,0.85904
5716.70438,0.85877
5714.77567,0.85806
5712.84696,0.85791
5710.91824,0.85686
5708.98953,0.85326
5707.06082,0.84872
5705.13211,0.84638
5703.20339,0.84661
5701.27468,0.84643
5699.34597,0.84341
5697.41726,0.83891
5695.48854,0.83594
5693.55983,0.83515
5691.63112,0.83449
5689.70241,0.83254
5687.77369,0.83046
5685.84498,0.82930
5683.91627,0.82735
5681.98755,0.82410
5680.05884,0.82230
5678.13013,0.82221
5676.20142,0.82070
5674.27270,0.81711
5672.34399,0.81367
5670.41528,0.81093
5668.48657,0.80810
5666.55785,0.80624
5664.62914,0.80650
5662.70043,0.80819
5660.77172,0.81143
5658.84300,0.81677
5656.91429,0.82271
5654.98558,0.82808
5653.05686,0.83227
5651.12815,0.83470
5649.19944,0.83755
5647.27073,0.84274
5645.34201,0.84819
5643.41330,0.85163
5641.48459,0.85325
5639.55588,0.85383
5637.62716,0.85402
5635.69845,0.85436
5633.76974,0.85529
5631.84103,0.85718
5629.91231,0.85954
5627.98360,0.86129
5626.05489,0.86254
5624.12617,0.86393
5622.19746,0.86488
5620.26875,0.86454
5618.34004,0.86382
5616.41132,0.86450
5614.48261,0.86645
5612.55390,0.86800
5610.62519,0.86871
5608.69647,0.86940
5606.76776,0.86977
5604.83905,0.86973
5602.91033,0.87053
5600.98162,0.87210
5599.05291,0.87298
5597.12420,0.87283
5595.19548,0.87187
5593.26677,0.87076
5591.33806,0.87115
5589.40935,0.87323
5587.48063,0.87463
5585.55192,0.87417
5583.62321,0.87380
5581.69450,0.87417
5579.76578,0.87326
5577.83707,0.87142
5575.90836,0.87111
5573.97964,0.87155
5572.05093,0.87062
5570.12222,0.86953
5568.19351,0.86966
5566.26479,0.86971
5564.33608,0.86923
5562.40737,0.86914
5560.47866,0.86966
5558.54994,0.87034
5556.62123,0.87012
5554.69252,0.86854
5552.76381,0.86697
5550.83509,0.86638
5548.90638,0.86600
5546.97767,0.86579
5545.04895,0.86653
5543.12024,0.86798
5541.19153,0.86957
5539.26282,0.87042
5537.33410,0.87042
5535.40539,0.87093
5533.47668,0.87165
5531.54797,0.87154
5529.61925,0.87148
5527.69054,0.87226
5525.76183,0.87240
5523.83311,0.87030
5521.90440,0.86777
5519.97569,0.86721
5518.04698,0.86781
5516.11826,0.86881
5514.18955,0.87022
5512.26084,0.87032
5510.33213,0.86764
5508.40341,0.86488
5506.47470,0.86572
5504.54599,0.86833
5502.61728,0.86926
5500.68856,0.86876
5498.75985,0.86855
5496.83114,0.86745
5494.90242,0.86317
5492.97371,0.85904
5491.04500,0.85894
5489.11629,0.86085
5487.18757,0.86405
5485.25886,0.86852
5483.33015,0.87177
5481.40144,0.87301
5479.47272,0.87156
5477.54401,0.86612
5475.61530,0.86143
5473.68659,0.86459
5471.75787,0.87014
5469.82916,0.87055
5467.90045,0.86852
5465.97173,0.86827
5464.04302,0.86854
5462.11431,0.86806
5460.18560,0.86871
5458.25688,0.87056
5456.32817,0.87230
5454.39946,0.87490
5452.47075,0.87559
5450.54203,0.87128
5448.61332,0.86569
5446.68461,0.86205
5444.75590,0.86019
5442.82718,0.85971
5440.89847,0.86235
5438.96976,0.86764
5437.04104,0.86828
5435.11233,0.86469
5433.18362,0.86461
5431.25491,0.86474
5429.32619,0.86217
5427.39748,0.86426
5425.46877,0.87112
5423.54006,0.87656
5421.61134,0.87949
5419.68263,0.88078
5417.75392,0.87893
5415.82520,0.87200
5413.89649,0.86345
5411.96778,0.86079
5410.03907,0.86603
5408.11035,0.87464
5406.18164,0.88020
5404.25293,0.88247
5402.32422,0.88524
5400.39550,0.88650
5398.46679,0.88302
5396.53808,0.87707
5394.60937,0.87418
5392.68065,0.87814
5390.75194,0.88490
5388.82323,0.88707
5386.89451,0.88355
5384.96580,0.88108
5383.03709,0.88397
5381.10838,0.88633
5379.17966,0.88168
5377.25095,0.87326
5375.32224,0.87175
5373.39353,0.87927
5371.46481,0.88769
5369.53610,0.89157
5367.60739,0.89083
5365.67868,0.88713
5363.74996,0.88472
5361.82125,0.88772
5359.89254,0.89220
5357.96382,0.89163
5356.03511,0.88401
5354.10640,0.87570
5352.17769,0.87687
5350.24897,0.88243
5348.32026,0.88197
5346.39155,0.87554
5344.46284,0.87213
5342.53412,0.87698
5340.60541,0.87892
5338.67670,0.87368
5336.74799,0.87394
5334.81927,0.88134
5332.89056,0.88649
5330.96185,0.88779
5329.03313,0.88688
5327.10442,0.88732
5325.17571,0.89213
5323.24700,0.89736
5321.31828,0.89934
5319.38957,0.89808
5317.46086,0.89522
5315.53215,0.89357
5313.60343,0.89427
5311.67472,0.89486
5309.74601,0.89242
5307.81729,0.89000
5305.88858,0.89257
5303.95987,0.89643
5302.03116,0.89656
5300.10244,0.89523
5298.17373,0.89627
5296.24502,0.89860
5294.31631,0.89839
5292.38759,0.89395
5290.45888,0.89012
5288.53017,0.89195
5286.60146,0.89436
5284.67274,0.89362
5282.74403,0.89277
5280.81532,0.89330
5278.88660,0.89514
5276.95789,0.89742
5275.02918,0.89906
5273.10047,0.89941
5271.17175,0.89699
5269.24304,0.89280
5267.31433,0.88860
5265.38562,0.88349
5263.45690,0.88093
5261.52819,0.88575
5259.59948,0.89252
5257.67077,0.89347
5255.74205,0.88952
5253.81334,0.88815
5251.88463,0.88940
5249.95591,0.88637
5248.02720,0.88076
5246.09849,0.87911
5244.16978,0.88266
5242.24106,0.88982
5240.31235,0.89598
5238.38364,0.89760
5236.45493,0.89542
5234.52621,0.89122
5232.59750,0.88796
5230.66879,0.88828
5228.74007,0.88889
5226.81136,0.88626
5224.88265,0.88583
5222.95394,0.89065
5221.02522,0.89311
5219.09651,0.89208
5217.16780,0.89427
5215.23909,0.89935
5213.31037,0.90148
5211.38166,0.89807
5209.45295,0.88920
5207.52424,0.88006
5205.59552,0.88073
5203.66681,0.88957
5201.73810,0.89535
5199.80938,0.89437
5197.88067,0.89117
5195.95196,0.89199
5194.02325,0.89633
5192.09453,0.89818
5190.16582,0.89586
5188.23711,0.89251
5186.30840,0.89039
5184.37968,0.89048
5182.45097,0.89236
5180.52226,0.89400
5178.59355,0.89447
5176.66483,0.89442
5174.73612,0.89463
5172.80741,0.89548
5170.87869,0.89692
5168.94998,0.89788
5167.02127,0.89641
5165.09256,0.89375
5163.16384,0.89390
5161.23513,0.89586
5159.30642,0.89523
5157.37771,0.89288
5155.44899,0.89311
5153.52028,0.89574
5151.59157,0.89738
5149.66286,0.89768
5147.73414,0.89813
5145.80543,0.89884
5143.87672,0.89900
5141.94800,0.89883
5140.01929,0.89901
5138.09058,0.89907
5136.16187,0.89906
5134.23315,0.89953
5132.30444,0.90021
5130.37573,0.90103
5128.44702,0.90181
5126.51830,0.90199
5124.58959,0.90158
5122.66088,0.90085
5120.73216,0.90000
5118.80345,0.89942
5116.87474,0.89937
5114.94603,0.89984
5113.01731,0.90070
5111.08860,0.90164
5109.15989,0.90226
5107.23118,0.90198
5105.30246,0.90108
5103.37375,0.90088
5101.44504,0.90166
5099.51633,0.90249
5097.58761,0.90246
5095.65890,0.90197
5093.73019,0.90159
5091.80147,0.90077
5089.87276,0.89975
5087.94405,0.90011
5086.01534,0.90229
5084.08662,0.90426
5082.15791,0.90414
5080.22920,0.90288
5078.30049,0.90245
5076.37177,0.90308
5074.44306,0.90366
5072.51435,0.90400
5070.58564,0.90453
5068.65692,0.90458
5066.72821,0.90384
5064.79950,0.90324
5062.87078,0.90326
5060.94207,0.90400
5059.01336,0.90520
5057.08465,0.90548
5055.15593,0.90473
5053.22722,0.90442
5051.29851,0.90486
5049.36980,0.90529
5047.44108,0.90512
5045.51237,0.90448
5043.58366,0.90426
5041.65495,0.90446
5039.72623,0.90455
5037.79752,0.90465
5035.86881,0.90470
5033.94009,0.90426
5032.01138,0.90353
5030.08267,0.90330
5028.15396,0.90372
5026.22524,0.90440
5024.29653,0.90496
5022.36782,0.90500
5020.43911,0.90500
5018.51039,0.90538
5016.58168,0.90550
5014.65297,0.90498
5012.72425,0.90380
5010.79554,0.90256
5008.86683,0.90261
5006.93812,0.90367
5005.00940,0.90386
5003.08069,0.90297
5001.15198,0.90234
4999.22327,0.90197
4997.29455,0.90148
4995.36584,0.90130
4993.43713,0.90137
4991.50842,0.90125
4989.57970,0.90080
4987.65099,0.90032
4985.72228,0.90035
4983.79356,0.90096
4981.86485,0.90144
4979.93614,0.90118
4978.00743,0.90059
4976.07871,0.90043
4974.15000,0.90043
4972.22129,0.89982
4970.29258,0.89906
4968.36386,0.89872
4966.43515,0.89838
4964.50644,0.89803
4962.57773,0.89823
4960.64901,0.89915
4958.72030,0.90043
4956.79159,0.90118
4954.86287,0.90127
4952.93416,0.90176
4951.00545,0.90313
4949.07674,0.90423
4947.14802,0.90445
4945.21931,0.90492
4943.29060,0.90587
4941.36189,0.90634
4939.43317,0.90616
4937.50446,0.90590
4935.57575,0.90589
4933.64703,0.90601
4931.71832,0.90602
4929.78961,0.90612
4927.86090,0.90658
4925.93218,0.90665
4924.00347,0.90585
4922.07476,0.90502
4920.14605,0.90460
4918.21733,0.90436
4916.28862,0.90469
4914.35991,0.90563
4912.43120,0.90619
4910.50248,0.90630
4908.57377,0.90667
4906.64506,0.90671
4904.71634,0.90584
4902.78763,0.90501
4900.85892,0.90490
4898.93021,0.90490
4897.00149,0.90426
4895.07278,0.90348
4893.14407,0.90360
4891.21536,0.90426
4889.28664,0.90430
4887.35793,0.90362
4885.42922,0.90341
4883.50051,0.90432
4881.57179,0.90540
4879.64308,0.90556
4877.71437,0.90501
4875.78565,0.90463
4873.85694,0.90495
4871.92823,0.90543
4869.99952,0.90511
4868.07080,0.90421
4866.14209,0.90426
4864.21338,0.90525
4862.28467,0.90566
4860.35595,0.90544
4858.42724,0.90528
4856.49853,0.90536
4854.56982,0.90605
4852.64110,0.90718
4850.71239,0.90800
4848.78368,0.90819
4846.85496,0.90780
4844.92625,0.90695
4842.99754,0.90605
4841.06883,0.90590
4839.14011,0.90645
4837.21140,0.90675
4835.28269,0.90684
4833.35398,0.90717
4831.42526,0.90726
4829.49655,0.90706
4827.56784,0.90760
4825.63912,0.90860
4823.71041,0.90885
4821.78170,0.90879
4819.85299,0.90940
4817.92427,0.90988
4815.99556,0.90936
4814.06685,0.90841
4812.13814,0.90782
4810.20942,0.90773
4808.28071,0.90797
4806.35200,0.90835
4804.42329,0.90895
4802.49457,0.90987
4800.56586,0.91085
4798.63715,0.91132
4796.70843,0.91118
4794.77972,0.91101
4792.85101,0.91091
4790.92230,0.91045
4788.99358,0.90991
4787.06487,0.90985
4785.13616,0.90990
4783.20745,0.90961
4781.27873,0.90912
4779.35002,0.90865
4777.42131,0.90846
4775.49260,0.90857
4773.56388,0.90859
4771.63517,0.90853
4769.70646,0.90853
4767.77774,0.90853
4765.84903,0.90853
4763.92032,0.90842
4761.99161,0.90812
4760.06289,0.90758
4758.13418,0.90697
4756.20547,0.90689
4754.27676,0.90730
4752.34804,0.90748
4750.41933,0.90745
4748.49062,0.90780
4746.56191,0.90827
4744.63319,0.90847
4742.70448,0.90848
4740.77577,0.90833
4738.84705,0.90833
4736.91834,0.90872
4734.98963,0.90902
4733.06092,0.90868
4731.13220,0.90824
4729.20349,0.90810
4727.27478,0.90792
4725.34607,0.90820
4723.41735,0.90897
4721.48864,0.90908
4719.55993,0.90814
4717.63121,0.90695
4715.70250,0.90632
4713.77379,0.90661
4711.84508,0.90746
4709.91636,0.90770
4707.98765,0.90733
4706.05894,0.90737
4704.13023,0.90729
4702.20151,0.90634
4700.27280,0.90524
4698.34409,0.90486
4696.41538,0.90491
4694.48666,0.90458
4692.55795,0.90391
4690.62924,0.90346
4688.70052,0.90305
4686.77181,0.90234
4684.84310,0.90133
4682.91439,0.90001
4680.98567,0.89896
4679.05696,0.89866
4677.12825,0.89858
4675.19954,0.89850
4673.27082,0.89881
4671.34211,0.89969
4669.41340,0.90066
4667.48469,0.90088
4665.55597,0.90064
4663.62726,0.90091
4661.69855,0.90178
4659.76983,0.90320
4657.84112,0.90512
4655.91241,0.90646
4653.98370,0.90658
4652.05498,0.90615
4650.12627,0.90579
4648.19756,0.90581
4646.26885,0.90614
4644.34013,0.90643
4642.41142,0.90685
4640.48271,0.90744
4638.55399,0.90811
4636.62528,0.90916
4634.69657,0.91034
4632.76786,0.91080
4630.83914,0.91058
4628.91043,0.91032
4626.98172,0.90991
4625.05301,0.90942
4623.12429,0.90947
4621.19558,0.90965
4619.26687,0.90950
4617.33816,0.90921
4615.40944,0.90877
4613.48073,0.90849
4611.55202,0.90881
4609.62330,0.90930
4607.69459,0.90956
4605.76588,0.90946
4603.83717,0.90919
4601.90845,0.90921
4599.97974,0.90916
4598.05103,0.90863
4596.12232,0.90817
4594.19360,0.90814
4592.26489,0.90839
4590.33618,0.90844
4588.40747,0.90816
4586.47875,0.90815
4584.55004,0.90860
4582.62133,0.90895
4580.69261,0.90893
4578.76390,0.90864
4576.83519,0.90832
4574.90648,0.90807
4572.97776,0.90787
4571.04905,0.90792
4569.12034,0.90816
4567.19163,0.90806
4565.26291,0.90758
4563.33420,0.90699
4561.40549,0.90650
4559.47678,0.90626
4557.54806,0.90612
4555.61935,0.90596
4553.69064,0.90601
4551.76192,0.90620
4549.83321,0.90614
4547.90450,0.90586
4545.97579,0.90524
4544.04707,0.90426
4542.11836,0.90358
4540.18965,0.90322
4538.26094,0.90259
4536.33222,0.90219
4534.40351,0.90218
4532.47480,0.90162
4530.54608,0.90077
4528.61737,0.90068
4526.68866,0.90085
4524.75995,0.90029
4522.83123,0.89919
4520.90252,0.89799
4518.97381,0.89687
4517.04510,0.89620
4515.11638,0.89588
4513.18767,0.89532
4511.25896,0.89449
4509.33025,0.89393
4507.40153,0.89371
4505.47282,0.89314
4503.54411,0.89180
4501.61539,0.89015
4499.68668,0.88876
4497.75797,0.88792
4495.82926,0.88748
4493.90054,0.88678
4491.97183,0.88572
4490.04312,0.88473
4488.11441,0.88354
4486.18569,0.88184
4484.25698,0.88014
4482.32827,0.87882
4480.39956,0.87791
4478.47084,0.87728
4476.54213,0.87655
4474.61342,0.87564
4472.68470,0.87444
4470.75599,0.87270
4468.82728,0.87063
4466.89857,0.86882
4464.96985,0.86731
4463.04114,0.86553
4461.11243,0.86332
4459.18372,0.86104
4457.25500,0.85882
4455.32629,0.85640
4453.39758,0.85350
4451.46886,0.85037
4449.54015,0.84708
4447.61144,0.84381
4445.68273,0.84124
4443.75401,0.83897
4441.82530,0.83573
4439.89659,0.83154
4437.96788,0.82755
4436.03916,0.82443
4434.11045,0.82187
4432.18174,0.81949
4430.25303,0.81742
4428.32431,0.81559
4426.39560,0.81372
4424.46689,0.81170
4422.53817,0.80940
4420.60946,0.80660
4418.68075,0.80358
4416.75204,0.80085
4414.82332,0.79790
4412.89461,0.79408
4410.96590,0.78999
4409.03719,0.78619
4407.10847,0.78231
4405.17976,0.77795
4403.25105,0.77295
4401.32234,0.76740
4399.39362,0.76169
4397.46491,0.75615
4395.53620,0.75088
4393.60748,0.74555
4391.67877,0.73968
4389.75006,0.73328
4387.82135,0.72659
4385.89263,0.71968
4383.96392,0.71293
4382.03521,0.70640
4380.10650,0.69940
4378.17778,0.69175
4376.24907,0.68400
4374.32036,0.67624
4372.39165,0.66809
4370.46293,0.65972
4368.53422,0.65154
4366.60551,0.64321
4364.67679,0.63392
4362.74808,0.62347
4360.81937,0.61200
4358.89066,0.59914
4356.96194,0.58437
4355.03323,0.56768
4353.10452,0.54950
4351.17581,0.52985
4349.24709,0.50866
4347.31838,0.48656
4345.38967,0.46449
4343.46095,0.44316
4341.53224,0.42345
4339.60353,0.40617
4337.67482,0.39108
4335.74610,0.37690
4333.81739,0.36199
4331.88868,0.34489
4329.95997,0.32477
4328.03125,0.30161
4326.10254,0.27757
4324.17383,0.25950
4322.24512,0.25818
4320.31640,0.28181
4318.38769,0.32799
4316.45898,0.38460
4314.53026,0.43928
4312.60155,0.48531
4310.67284,0.52107
4308.74413,0.54785
4306.81541,0.56781
4304.88670,0.58241
4302.95799,0.59282
4301.02928,0.60024
4299.10056,0.60495
4297.17185,0.60678
4295.24314,0.60617
4293.31443,0.60380
4291.38571,0.60026
4289.45700,0.59634
4287.52829,0.59247
4285.59957,0.58829
4283.67086,0.58362
4281.74215,0.57850
4279.81344,0.57274
4277.88472,0.56611
4275.95601,0.55826
4274.02730,0.54900
4272.09859,0.53840
4270.16987,0.52599
4268.24116,0.51111
4266.31245,0.49368
4264.38374,0.47396
4262.45502,0.45225
4260.52631,0.42921
4258.59760,0.40588
4256.66888,0.38352
4254.74017,0.36489
4252.81146,0.35508
4250.88275,0.35958
4248.95403,0.38058
4247.02532,0.41364
4245.09661,0.44940
4243.16790,0.47993
4241.23918,0.50221
4239.31047,0.51702
4237.38176,0.52609
4235.45304,0.53032
4233.52433,0.53042
4231.59562,0.52717
4229.66691,0.52137
4227.73819,0.51440
4225.80948,0.50740
4223.88077,0.50120
4221.95206,0.49674
4220.02334,0.49482
4218.09463,0.49553
4216.16592,0.49770
4214.23721,0.49954
4212.30849,0.50045
4210.37978,0.50049
4208.45107,0.49904
4206.52235,0.49542
4204.59364,0.48985
4202.66493,0.48281
4200.73622,0.47462
4198.80750,0.46608
4196.87879,0.45841
4194.95008,0.45274
4193.02137,0.44934
4191.09265,0.44784
4189.16394,0.44779
4187.23523,0.44856
4185.30652,0.44954
4183.37780,0.45069
4181.44909,0.45202
4179.52038,0.45310
4177.59166,0.45384
4175.66295,0.45460
4173.73424,0.45552
4171.80553,0.45666
4169.87681,0.45823
4167.94810,0.46001
4166.01939,0.46153
4164.09068,0.46289
4162.16196,0.46458
4160.23325,0.46652
4158.30454,0.46817
4156.37582,0.46944
4154.44711,0.47043
4152.51840,0.47101
4150.58969,0.47155
4148.66097,0.47265
4146.73226,0.47436
4144.80355,0.47650
4142.87484,0.47885
4140.94612,0.48098
4139.01741,0.48289
4137.08870,0.48485
4135.15999,0.48681
4133.23127,0.48850
4131.30256,0.48982
4129.37385,0.49107
4127.44513,0.49243
4125.51642,0.49361
4123.58771,0.49442
4121.65900,0.49511
4119.73028,0.49605
4117.80157,0.49721
4115.87286,0.49827
4113.94415,0.49896
4112.01543,0.49920
4110.08672,0.49914
4108.15801,0.49879
4106.22930,0.49832
4104.30058,0.49817
4102.37187,0.49829
4100.44316,0.49863
4098.51444,0.49977
4096.58573,0.50225
4094.65702,0.50617
4092.72831,0.51164
4090.79959,0.51880
4088.87088,0.52733
4086.94217,0.53639
4085.01346,0.54494
4083.08474,0.55228
4081.15603,0.55863
4079.22732,0.56460
4077.29861,0.57003
4075.36989,0.57452
4073.44118,0.57837
4071.51247,0.58185
4069.58375,0.58474
4067.65504,0.58736
4065.72633,0.59016
4063.79762,0.59282
4061.86890,0.59510
4059.94019,0.59759
4058.01148,0.60062
4056.08277,0.60361
4054.15405,0.60606
4052.22534,0.60811
4050.29663,0.60993
4048.36791,0.61160
4046.43920,0.61328
4044.51049,0.61545
4042.58178,0.61844
4040.65306,0.62172
4038.72435,0.62451
4036.79564,0.62664
4034.86693,0.62832
4032.93821,0.62964
4031.00950,0.63055
4029.08079,0.63087
4027.15208,0.63045
4025.22336,0.63032
4023.29465,0.63182
4021.36594,0.63488
4019.43722,0.63990
4017.50851,0.64760
4015.57980,0.65666
4013.65109,0.66513
4011.72237,0.67164
4009.79366,0.67569
4007.86495,0.67862
4005.93624,0.68183
4004.00752,0.68483
4002.07881,0.68688
4000.15010,0.68803
3998.22139,0.68826
3996.29267,0.68791
3994.36396,0.68755
3992.43525,0.68693
3990.50653,0.68615
3988.57782,0.68580
3986.64911,0.68533
3984.72040,0.68387
3982.79168,0.68184
3980.86297,0.68035
3978.93426,0.67968
3977.00555,0.67901
3975.07683,0.67865
3973.14812,0.67981
3971.21941,0.68235
3969.29070,0.68557
3967.36198,0.68892
3965.43327,0.69111
3963.50456,0.69152
3961.57584,0.69219
3959.64713,0.69447
3957.71842,0.69674
3955.78971,0.69787
3953.86099,0.69748
3951.93228,0.69482
3950.00357,0.69108
3948.07486,0.69021
3946.14614,0.69168
3944.21743,0.69127
3942.28872,0.69165
3940.36000,0.69559
3938.43129,0.69865
3936.50258,0.69751
3934.57387,0.69166
3932.64515,0.68382
3930.71644,0.68057
3928.78773,0.68223
3926.85902,0.68173
3924.93030,0.67848
3923.00159,0.67831
3921.07288,0.67954
3919.14417,0.67789
3917.21545,0.67778
3915.28674,0.68357
3913.35803,0.69023
3911.42931,0.69344
3909.50060,0.69259
3907.57189,0.68548
3905.64318,0.67174
3903.71446,0.66003
3901.78575,0.65915
3899.85704,0.66645
3897.92833,0.67747
3895.99961,0.68476
3894.07090,0.68312
3892.14219,0.67867
3890.21348,0.68169
3888.28476,0.68479
3886.35605,0.68042
3884.42734,0.67556
3882.49862,0.67464
3880.56991,0.67772
3878.64120,0.68607
3876.71249,0.68933
3874.78377,0.68307
3872.85506,0.67438
3870.92635,0.67020
3868.99764,0.67426
3867.06892,0.67939
3865.14021,0.67889
3863.21150,0.68282
3861.28278,0.69472
3859.35407,0.70093
3857.42536,0.69536
3855.49665,0.68031
3853.56793,0.66696
3851.63922,0.67805
3849.71051,0.69777
3847.78180,0.70931
3845.85308,0.70940
3843.92437,0.69999
3841.99566,0.68672
3840.06695,0.67470
3838.13823,0.67188
3836.20952,0.68139
3834.28081,0.69224
3832.35209,0.69989
3830.42338,0.70482
3828.49467,0.70544
3826.56596,0.70282
3824.63724,0.69846
3822.70853,0.68850
3820.77982,0.67866
3818.85111,0.68115
3816.92239,0.68921
3814.99368,0.70297
3813.06497,0.71789
3811.13626,0.72402
3809.20754,0.71983
3807.27883,0.71158
3805.35012,0.70726
3803.42140,0.70178
3801.49269,0.69736
3799.56398,0.70495
3797.63527,0.71654
3795.70655,0.72967
3793.77784,0.74325
3791.84913,0.75127
3789.92042,0.75305
3787.99170,0.74972
3786.06299,0.74400
3784.13428,0.74223
3782.20557,0.74307
3780.27685,0.74176
3778.34814,0.74514
3776.41943,0.75455
3774.49071,0.75901
3772.56200,0.75387
3770.63329,0.74461
3768.70458,0.74128
3766.77586,0.74375
3764.84715,0.74776
3762.91844,0.74997
3760.98973,0.74501
3759.06101,0.73746
3757.13230,0.73650
3755.20359,0.73464
3753.27487,0.72156
3751.34616,0.70264
3749.41745,0.70075
3747.48874,0.70856
3745.56002,0.71297
3743.63131,0.72050
3741.70260,0.72803
3739.77389,0.72718
3737.84517,0.71625
3735.91646,0.70173
3733.98775,0.70340
3732.05904,0.72211
3730.13032,0.73756
3728.20161,0.74095
3726.27290,0.73590
3724.34418,0.73183
3722.41547,0.73408
3720.48676,0.74148
3718.55805,0.75033
3716.62933,0.75435
3714.70062,0.74757
3712.77191,0.72983
3710.84320,0.71904
3708.91448,0.72991
3706.98577,0.74334
3705.05706,0.74710
3703.12835,0.74318
3701.19963,0.74096
3699.27092,0.74399
3697.34221,0.74494
3695.41349,0.74052
3693.48478,0.72972
3691.55607,0.71174
3689.62736,0.69916
3687.69864,0.70995
3685.76993,0.72737
3683.84122,0.73619
3681.91251,0.73489
3679.98379,0.72447
3678.05508,0.70788
3676.12637,0.69278
3674.19766,0.69373
3672.26894,0.69828
3670.34023,0.69820
3668.41152,0.70901
3666.48280,0.72474
3664.55409,0.73214
3662.62538,0.73170
3660.69667,0.72672
3658.76795,0.71801
3656.83924,0.70761
3654.91053,0.70076
3652.98182,0.69161
3651.05310,0.66925
3649.12439,0.64629
3647.19568,0.65649
3645.26696,0.67790
3643.33825,0.69072
3641.40954,0.69753
3639.48083,0.70270
3637.55211,0.70663
3635.62340,0.70807
3633.69469,0.70638
3631.76598,0.69974
3629.83726,0.68834
3627.90855,0.68824
3625.97984,0.70171
3624.05113,0.70892
3622.12241,0.70397
3620.19370,0.69048
3618.26499,0.68107
3616.33627,0.67823
3614.40756,0.67280
3612.47885,0.66598
3610.55014,0.65919
3608.62142,0.65114
3606.69271,0.64872
3604.76400,0.65209
3602.83529,0.65455
3600.90657,0.65953
3598.97786,0.67320
3597.04915,0.69162
3595.12044,0.71148
3593.19172,0.73257
3591.26301,0.74667
3589.33430,0.74793
3587.40558,0.74763
3585.47687,0.76065
3583.54816,0.77594
3581.61945,0.78408
3579.69073,0.78723
3577.76202,0.78929
3575.83331,0.79208
3573.90460,0.79567
3571.97588,0.79660
3570.04717,0.78865
3568.11846,0.77244
3566.18974,0.76673
3564.26103,0.77933
3562.33232,0.79273
3560.40361,0.80131
3558.47489,0.80797
3556.54618,0.81173
3554.61747,0.81012
3552.68876,0.80716
3550.76004,0.80791
3548.83133,0.80758
3546.90262,0.80318
3544.97391,0.80284
3543.04519,0.81005
3541.11648,0.81752
3539.18777,0.82022
3537.25905,0.81965
3535.33034,0.82041
3533.40163,0.82179
3531.47292,0.81908
3529.54420,0.81295
3527.61549,0.80907
3525.68678,0.80888
3523.75807,0.81065
3521.82935,0.81508
3519.90064,0.82024
3517.97193,0.82333
3516.04322,0.82489
3514.11450,0.82477
3512.18579,0.82165
3510.25708,0.81753
3508.32836,0.81630
3506.39965,0.81533
3504.47094,0.81079
3502.54223,0.80833
3500.61351,0.81201
3498.68480,0.81550
3496.75609,0.81593
3494.82738,0.81616
3492.89866,0.81639
3490.96995,0.81438
3489.04124,0.81033
3487.11253,0.80649
3485.18381,0.80237
3483.25510,0.79604
3481.32639,0.78966
3479.39767,0.78488
3477.46896,0.77791
3475.54025,0.76687
3473.61154,0.75416
3471.68282,0.74059
3469.75411,0.72481
3467.82540,0.70729
3465.89669,0.69025
3463.96797,0.67513
3462.03926,0.66309
3460.11055,0.65570
3458.18183,0.65276
3456.25312,0.65338
3454.32441,0.65746
3452.39570,0.66431
3450.46698,0.67161
3448.53827,0.67878
3446.60956,0.68900
3444.68085,0.70285
3442.75213,0.71723
3440.82342,0.73099
3438.89471,0.74387
3436.96600,0.75517
3435.03728,0.76439
3433.10857,0.77156
3431.17986,0.77777
3429.25114,0.78351
3427.32243,0.78799
3425.39372,0.79070
3423.46501,0.79169
3421.53629,0.79239
3419.60758,0.79513
3417.67887,0.79940
3415.75016,0.80281
3413.82144,0.80467
3411.89273,0.80576
3409.96402,0.80668
3408.03531,0.80723
3406.10659,0.80692
3404.17788,0.80618
3402.24917,0.80585
3400.32045,0.80549
3398.39174,0.80439
3396.46303,0.80339
3394.53432,0.80277
3392.60560,0.80225
3390.67689,0.80225
3388.74818,0.80188
3386.81947,0.80007
3384.89075,0.79804
3382.96204,0.79732
3381.03333,0.79742
3379.10462,0.79735
3377.17590,0.79679
3375.24719,0.79568
3373.31848,0.79456
3371.38976,0.79384
3369.46105,0.79335
3367.53234,0.79340
3365.60363,0.79438
3363.67491,0.79601
3361.74620,0.79762
3359.81749,0.79907
3357.88878,0.80067
3355.96006,0.80276
3354.03135,0.80522
3352.10264,0.80730
3350.17392,0.80877
3348.24521,0.80998
3346.31650,0.81094
3344.38779,0.81152
3342.45907,0.81196
3340.53036,0.81244
3338.60165,0.81275
3336.67294,0.81285
3334.74422,0.81322
3332.81551,0.81393
3330.88680,0.81482
3328.95809,0.81579
3327.02937,0.81638
3325.10066,0.81649
3323.17195,0.81678
3321.24323,0.81752
3319.31452,0.81848
3317.38581,0.81928
3315.45710,0.81948
3313.52838,0.81925
3311.59967,0.81892
3309.67096,0.81864
3307.74225,0.81899
3305.81353,0.81987
3303.88482,0.82016
3301.95611,0.81967
3300.02740,0.81918
3298.09868,0.81933
3296.16997,0.81975
3294.24126,0.81926
3292.31254,0.81792
3290.38383,0.81717
3288.45512,0.81717
3286.52641,0.81717
3284.59769,0.81718
3282.66898,0.81717
3280.74027,0.81696
3278.81156,0.81661
3276.88284,0.81594
3274.95413,0.81506
3273.02542,0.81484
3271.09670,0.81570
3269.16799,0.81659
3267.23928,0.81658
3265.31057,0.81603
3263.38185,0.81537
3261.45314,0.81445
3259.52443,0.81349
3257.59572,0.81267
3255.66700,0.81182
3253.73829,0.81127
3251.80958,0.81111
3249.88087,0.81057
3247.95215,0.80908
3246.02344,0.80714
3244.09473,0.80611
3242.16601,0.80626
3240.23730,0.80613
3238.30859,0.80498
3236.37988,0.80359
3234.45116,0.80239
3232.52245,0.80110
3230.59374,0.79990
3228.66503,0.79902
3226.73631,0.79830
3224.80760,0.79714
3222.87889,0.79483
3220.95018,0.79206
3219.02146,0.79005
3217.09275,0.78819
3215.16404,0.78587
3213.23532,0.78395
3211.30661,0.78242
3209.37790,0.78067
3207.44919,0.77894
3205.52047,0.77744
3203.59176,0.77602
3201.66305,0.77428
3199.73434,0.77191
3197.80562,0.76960
3195.87691,0.76797
3193.94820,0.76649
3192.01949,0.76482
3190.09077,0.76312
3188.16206,0.76112
3186.23335,0.75881
3184.30463,0.75686
3182.37592,0.75519
3180.44721,0.75281
3178.51850,0.74997
3176.58978,0.74814
3174.66107,0.74724
3172.73236,0.74602
3170.80365,0.74427
3168.87493,0.74234
3166.94622,0.74060
3165.01751,0.73934
3163.08879,0.73815
3161.16008,0.73626
3159.23137,0.73394
3157.30266,0.73206
3155.37394,0.73057
3153.44523,0.72873
3151.51652,0.72647
3149.58781,0.72446
3147.65909,0.72271
3145.73038,0.72048
3143.80167,0.71773
3141.87296,0.71510
3139.94424,0.71276
3138.01553,0.71032
3136.08682,0.70702
3134.15810,0.70281
3132.22939,0.69906
3130.30068,0.69604
3128.37197,0.69245
3126.44325,0.68794
3124.51454,0.68275
3122.58583,0.67706
3120.65712,0.67130
3118.72840,0.66558
3116.79969,0.65995
3114.87098,0.65460
3112.94227,0.64897
3111.01355,0.64232
3109.08484,0.63474
3107.15613,0.62650
3105.22741,0.61747
3103.29870,0.60727
3101.36999,0.59585
3099.44128,0.58361
3097.51256,0.57049
3095.58385,0.55651
3093.65514,0.54243
3091.72643,0.52883
3089.79771,0.51592
3087.86900,0.50434
3085.94029,0.49474
3084.01158,0.48662
3082.08286,0.47886
3080.15415,0.47129
3078.22544,0.46448
3076.29672,0.45822
3074.36801,0.45173
3072.43930,0.44474
3070.51059,0.43733
3068.58187,0.42943
3066.65316,0.42126
3064.72445,0.41328
3062.79574,0.40549
3060.86702,0.39743
3058.93831,0.38889
3057.00960,0.38004
3055.08088,0.37102
3053.15217,0.36179
3051.22346,0.35216
3049.29475,0.34185
3047.36603,0.33102
3045.43732,0.32011
3043.50861,0.30916
3041.57990,0.29787
3039.65118,0.28618
3037.72247,0.27420
3035.79376,0.26212
3033.86505,0.25040
3031.93633,0.23939
3030.00762,0.22915
3028.07891,0.21945
3026.15019,0.20999
3024.22148,0.20069
3022.29277,0.19166
3020.36406,0.18334
3018.43534,0.17603
3016.50663,0.16956
3014.57792,0.16360
3012.64921,0.15783
3010.72049,0.15207
3008.79178,0.14626
3006.86307,0.14001
3004.93436,0.13293
3003.00564,0.12512
3001.07693,0.11676
2999.14822,0.10783
2997.21950,0.09838
2995.29079,0.08854
2993.36208,0.07864
2991.43337,0.06897
2989.50465,0.05941
2987.57594,0.05002
2985.64723,0.04115
2983.71852,0.03279
2981.78980,0.02497
2979.86109,0.01810
2977.93238,0.01257
2976.00366,0.00828
2974.07495,0.00510
2972.14624,0.00313
2970.21753,0.00202
2968.28881,0.00124
2966.36010,0.00075
2964.43139,0.00064
2962.50268,0.00060
2960.57396,0.00050
2958.64525,0.00045
2956.71654,0.00039
2954.78783,0.00037
2952.85911,0.00046
2950.93040,0.00057
2949.00169,0.00050
2947.07297,0.00047
2945.14426,0.00063
2943.21555,0.00071
2941.28684,0.00056
2939.35812,0.00039
2937.42941,0.00035
2935.50070,0.00063
2933.57199,0.00060
2931.64327,0.00049
2929.71456,0.00051
2927.78585,0.00058
2925.85714,0.00037
2923.92842,0.00013
2921.99971,0.00034
2920.07100,0.00073
2918.14228,0.00098
2916.21357,0.00100
2914.28486,0.00066
2912.35615,0.00014
2910.42743,-0.00013
2908.49872,0.00004
2906.57001,0.00030
2904.64130,0.00051
2902.71258,0.00063
2900.78387,0.00050
2898.85516,0.00020
2896.92645,0.00036
2894.99773,0.00027
2893.06902,0.00031
2891.14031,0.00036
2889.21159,0.00031
2887.28288,0.00030
2885.35417,0.00030
2883.42546,0.00019
2881.49674,0.00033
2879.56803,0.00063
2877.63932,0.00069
2875.71061,0.00034
2873.78189,-0.00003
2871.85318,0.00001
2869.92447,0.00025
2867.99575,0.00022
2866.06704,0.00023
2864.13833,0.00040
2862.20962,0.00052
2860.28090,0.00045
2858.35219,0.00030
2856.42348,0.00023
2854.49477,0.00038
2852.56605,0.00059
2850.63734,0.00054
2848.70863,0.00048
2846.77992,0.00041
2844.85120,0.00018
2842.92249,0.00016
2840.99378,0.00017
2839.06506,0.00023
2837.13635,0.00028
2835.20764,0.00030
2833.27893,0.00022
2831.35021,0.00039
2829.42150,0.00117
2827.49279,0.00242
2825.56408,0.00397
2823.63536,0.00584
2821.70665,0.00828
2819.77794,0.01142
2817.84923,0.01518
2815.92051,0.01945
2813.99180,0.02413
2812.06309,0.02929
2810.13437,0.03507
2808.20566,0.04130
2806.27695,0.04776
2804.34824,0.05466
2802.41952,0.06226
2800.49081,0.07045
2798.56210,0.07914
2796.63339,0.08827
2794.70467,0.09784
2792.77596,0.10806
2790.84725,0.11894
2788.91854,0.13026
2786.98982,0.14183
2785.06111,0.15363
2783.13240,0.16555
2781.20368,0.17723
2779.27497,0.18836
2777.34626,0.19884
2775.41755,0.20866
2773.48883,0.21765
2771.56012,0.22567
2769.63141,0.23279
2767.70270,0.23897
2765.77398,0.24416
2763.84527,0.24862
2761.91656,0.25285
2759.98784,0.25708
2758.05913,0.26114
2756.13042,0.26491
2754.20171,0.26832
2752.27299,0.27113
2750.34428,0.27317
2748.41557,0.27431
2746.48686,0.27459
2744.55814,0.27455
2742.62943,0.27482
2740.70072,0.27551
2738.77201,0.27662
2736.84329,0.27834
2734.91458,0.28075
2732.98587,0.28371
2731.05715,0.28717
2729.12844,0.29138
2727.19973,0.29643
2725.27102,0.30174
2723.34230,0.30676
2721.41359,0.31142
2719.48488,0.31583
2717.55617,0.32021
2715.62745,0.32453
2713.69874,0.32861
2711.77003,0.33251
2709.84132,0.33638
2707.91260,0.33997
2705.98389,0.34285
2704.05518,0.34488
2702.12646,0.34609
2700.19775,0.34637
2698.26904,0.34554
2696.34033,0.34348
2694.41161,0.34015
2692.48290,0.33568
2690.55419,0.33040
2688.62548,0.32502
2686.69676,0.32022
2684.76805,0.31625
2682.83934,0.31321
2680.91062,0.31106
2678.98191,0.30934
2677.05320,0.30779
2675.12449,0.30666
2673.19577,0.30606
2671.26706,0.30588
2669.33835,0.30637
2667.40964,0.30787
2665.48092,0.31010
2663.55221,0.31269
2661.62350,0.31553
2659.69479,0.31868
2657.76607,0.32200
2655.83736,0.32525
2653.90865,0.32838
2651.97993,0.33153
2650.05122,0.33447
2648.12251,0.33684
2646.19380,0.33852
2644.26508,0.33959
2642.33637,0.34013
2640.40766,0.34043
2638.47895,0.34105
2636.55023,0.34247
2634.62152,0.34519
2632.69281,0.34981
2630.76410,0.35640
2628.83538,0.36435
2626.90667,0.37290
2624.97796,0.38153
2623.04924,0.39009
2621.12053,0.39854
2619.19182,0.40692
2617.26311,0.41516
2615.33439,0.42306
2613.40568,0.43061
2611.47697,0.43811
2609.54826,0.44580
2607.61954,0.45351
2605.69083,0.46084
2603.76212,0.46764
2601.83341,0.47415
2599.90469,0.48052
2597.97598,0.48672
2596.04727,0.49289
2594.11855,0.49940
2592.18984,0.50664
2590.26113,0.51471
2588.33242,0.52338
2586.40370,0.53224
2584.47499,0.54085
2582.54628,0.54890
2580.61757,0.55637
2578.68885,0.56342
2576.76014,0.57013
2574.83143,0.57655
2572.90271,0.58294
2570.97400,0.58946
2569.04529,0.59607
2567.11658,0.60253
2565.18786,0.60844
2563.25915,0.61346
2561.33044,0.61755
2559.40173,0.62079
2557.47301,0.62333
2555.54430,0.62544
2553.61559,0.62756
2551.68688,0.63000
2549.75816,0.63324
2547.82945,0.63790
2545.90074,0.64380
2543.97202,0.64992
2542.04331,0.65517
2540.11460,0.65851
2538.18589,0.65918
2536.25717,0.65756
2534.32846,0.65507
2532.39975,0.65309
2530.47104,0.65251
2528.54232,0.65375
2526.61361,0.65690
2524.68490,0.66184
2522.75619,0.66778
2520.82747,0.67356
2518.89876,0.67862
2516.97005,0.68306
2515.04133,0.68707
2513.11262,0.69072
2511.18391,0.69411
2509.25520,0.69726
2507.32648,0.69983
2505.39777,0.70138
2503.46906,0.70172
2501.54035,0.70113
2499.61163,0.70011
2497.68292,0.69895
2495.75421,0.69792
2493.82549,0.69741
2491.89678,0.69732
2489.96807,0.69712
2488.03936,0.69640
2486.11064,0.69502
2484.18193,0.69302
2482.25322,0.69069
2480.32451,0.68831
2478.39579,0.68604
2476.46708,0.68449
2474.53837,0.68511
2472.60966,0.68901
2470.68094,0.69555
2468.75223,0.70282
2466.82352,0.70933
2464.89480,0.71464
2462.96609,0.71901
2461.03738,0.72290
2459.10867,0.72662
2457.17995,0.73044
2455.25124,0.73463
2453.32253,0.73914
2451.39382,0.74349
2449.46510,0.74726
2447.53639,0.75024
2445.60768,0.75230
2443.67897,0.75346
2441.75025,0.75375
2439.82154,0.75341
2437.89283,0.75286
2435.96411,0.75260
2434.03540,0.75287
2432.10669,0.75344
2430.17798,0.75353
2428.24926,0.75260
2426.32055,0.75050
2424.39184,0.74710
2422.46313,0.74272
2420.53441,0.73832
2418.60570,0.73486
2416.67699,0.73299
2414.74828,0.73292
2412.81956,0.73436
2410.89085,0.73653
2408.96214,0.73850
2407.03342,0.73973
2405.10471,0.74018
2403.17600,0.73996
2401.24729,0.73935
2399.31857,0.73888
2397.38986,0.73889
2395.46115,0.73952
2393.53244,0.74075
2391.60372,0.74219
2389.67501,0.74305
2387.74630,0.74238
2385.81758,0.73921
2383.88887,0.73252
2381.96016,0.72176
2380.03145,0.70758
2378.10273,0.69136
2376.17402,0.67458
2374.24531,0.65827
2372.31660,0.64283
2370.38788,0.62811
2368.45917,0.61429
2366.53046,0.60190
2364.60175,0.59095
2362.67303,0.58144
2360.74432,0.57410
2358.81561,0.57023
2356.88689,0.57096
2354.95818,0.57675
2353.02947,0.58791
2351.10076,0.60156
2349.17204,0.60767
2347.24333,0.59859
2345.31462,0.58027
2343.38591,0.56639
2341.45719,0.56083
2339.52848,0.55962
2337.59977,0.56029
2335.67106,0.56145
2333.74234,0.56208
2331.81363,0.56260
2329.88492,0.56491
2327.95620,0.56951
2326.02749,0.57471
2324.09878,0.57966
2322.17007,0.58594
2320.24135,0.59512
2318.31264,0.60612
2316.38393,0.61644
2314.45522,0.62499
2312.52650,0.63281
2310.59779,0.64109
2308.66908,0.64987
2306.74037,0.65851
2304.81165,0.66646
2302.88294,0.67346
2300.95423,0.67957
2299.02551,0.68535
2297.09680,0.69120
2295.16809,0.69708
2293.23938,0.70287
2291.31066,0.70845
2289.38195,0.71347
2287.45324,0.71759
2285.52453,0.72069
2283.59581,0.72267
2281.66710,0.72350
2279.73839,0.72365
2277.80967,0.72394
2275.88096,0.72503
2273.95225,0.72730
2272.02354,0.73068
2270.09482,0.73440
2268.16611,0.73761
2266.23740,0.73997
2264.30869,0.74149
2262.37997,0.74239
2260.45126,0.74301
2258.52255,0.74373
2256.59384,0.74483
2254.66512,0.74642
2252.73641,0.74833
2250.80770,0.75030
2248.87898,0.75216
2246.95027,0.75397
2245.02156,0.75608
2243.09285,0.75891
2241.16413,0.76274
2239.23542,0.76760
2237.30671,0.77317
2235.37800,0.77871
2233.44928,0.78347
2231.52057,0.78711
2229.59186,0.78935
2227.66315,0.79018
2225.73443,0.79009
2223.80572,0.78956
2221.87701,0.78887
2219.94829,0.78850
2218.01958,0.78874
2216.09087,0.78927
2214.16216,0.78960
2212.23344,0.78961
2210.30473,0.78931
2208.37602,0.78858
2206.44731,0.78720
2204.51859,0.78508
2202.58988,0.78245
2200.66117,0.77963
2198.73245,0.77680
2196.80374,0.77396
2194.87503,0.77118
2192.94632,0.76859
2191.01760,0.76617
2189.08889,0.76364
2187.16018,0.76091
2185.23147,0.75812
2183.30275,0.75535
2181.37404,0.75279
2179.44533,0.75070
2177.51662,0.74902
2175.58790,0.74746
2173.65919,0.74600
2171.73048,0.74470
2169.80176,0.74337
2167.87305,0.74195
2165.94434,0.74040
2164.01563,0.73871
2162.08691,0.73715
2160.15820,0.73604
2158.22949,0.73534
2156.30078,0.73492
2154.37206,0.73482
2152.44335,0.73536
2150.51464,0.73667
2148.58593,0.73876
2146.65721,0.74177
2144.72850,0.74574
2142.79979,0.75042
2140.87107,0.75532
2138.94236,0.75989
2137.01365,0.76406
2135.08494,0.76826
2133.15622,0.77245
2131.22751,0.77606
2129.29880,0.77907
2127.37009,0.78176
2125.44137,0.78410
2123.51266,0.78595
2121.58395,0.78740
2119.65524,0.78870
2117.72652,0.78974
2115.79781,0.79043
2113.86910,0.79114
2111.94038,0.79202
2110.01167,0.79273
2108.08296,0.79311
2106.15425,0.79326
2104.22553,0.79333
2102.29682,0.79328
2100.36811,0.79309
2098.43940,0.79294
2096.51068,0.79279
2094.58197,0.79242
2092.65326,0.79165
2090.72454,0.79078
2088.79583,0.79041
2086.86712,0.79042
2084.93841,0.79016
2083.00969,0.78950
2081.08098,0.78861
2079.15227,0.78757
2077.22356,0.78648
2075.29484,0.78539
2073.36613,0.78426
2071.43742,0.78303
2069.50871,0.78135
2067.57999,0.77867
2065.65128,0.77566
2063.72257,0.77385
2061.79385,0.77282
2059.86514,0.77120
2057.93643,0.76891
2056.00772,0.76622
2054.07900,0.76316
2052.15029,0.75985
2050.22158,0.75649
2048.29287,0.75313
2046.36415,0.74950
2044.43544,0.74520
2042.50673,0.74042
2040.57802,0.73637
2038.64930,0.73335
2036.72059,0.73009
2034.79188,0.72603
2032.86316,0.72160
2030.93445,0.71701
2029.00574,0.71208
2027.07703,0.70656
2025.14831,0.70057
2023.21960,0.69478
2021.29089,0.68980
2019.36218,0.68646
2017.43346,0.68804
2015.50475,0.69763
2013.57604,0.71232
2011.64733,0.72695
2009.71861,0.73935
2007.78990,0.74949
2005.86119,0.75775
2003.93247,0.76439
2002.00376,0.76962
2000.07505,0.77388
1998.14634,0.77775
1996.21762,0.78037
1994.28891,0.78010
1992.36020,0.77952
1990.43149,0.78250
1988.50277,0.78736
1986.57406,0.79165
1984.64535,0.79493
1982.71663,0.79666
1980.78792,0.79704
1978.85921,0.79680
1976.93050,0.79618
1975.00178,0.79519
1973.07307,0.79400
1971.14436,0.79189
1969.21565,0.78740
1967.28693,0.78304
1965.35822,0.78314
1963.42951,0.78518
1961.50080,0.78533
1959.57208,0.78424
1957.64337,0.78255
1955.71466,0.78056
1953.78594,0.77949
1951.85723,0.77929
1949.92852,0.77854
1947.99981,0.77625
1946.07109,0.77211
1944.14238,0.76742
1942.21367,0.76692
1940.28496,0.77207
1938.35624,0.77651
1936.42753,0.77691
1934.49882,0.77538
1932.57011,0.77386
1930.64139,0.77270
1928.71268,0.77143
1926.78397,0.76842
1924.85525,0.76210
1922.92654,0.75591
1920.99783,0.75365
1919.06912,0.75170
1917.14040,0.75001
1915.21169,0.75055
1913.28298,0.74845
1911.35427,0.74142
1909.42555,0.73408
1907.49684,0.73104
1905.56813,0.72988
1903.63941,0.72672
1901.71070,0.72176
1899.78199,0.71606
1897.85328,0.70938
1895.92456,0.70316
1893.99585,0.70102
1892.06714,0.70131
1890.13843,0.70220
1888.20971,0.70706
1886.28100,0.71325
1884.35229,0.71643
1882.42358,0.71730
1880.49486,0.71652
1878.56615,0.71399
1876.63744,0.71029
1874.70872,0.70545
1872.78001,0.69757
1870.85130,0.68437
1868.92259,0.67162
1866.99387,0.67296
1865.06516,0.68318
1863.13645,0.68981
1861.20774,0.69153
1859.27902,0.69192
1857.35031,0.69318
1855.42160,0.69468
1853.49289,0.69540
1851.56417,0.69451
1849.63546,0.69071
1847.70675,0.68361
1845.77803,0.67492
1843.84932,0.67158
1841.92061,0.67639
1839.99190,0.67897
1838.06318,0.67495
1836.13447,0.66922
1834.20576,0.66349
1832.27705,0.65279
1830.34833,0.63804
1828.41962,0.62931
1826.49091,0.62592
1824.56220,0.62170
1822.63348,0.61846
1820.70477,0.61461
1818.77606,0.60771
1816.84734,0.60012
1814.91863,0.59256
1812.98992,0.58296
1811.06121,0.57279
1809.13249,0.56666
1807.20378,0.56259
1805.27507,0.55531
1803.34636,0.54278
1801.41764,0.52697
1799.48893,0.51373
1797.56022,0.50321
1795.63150,0.49097
1793.70279,0.47476
1791.77408,0.45892
1789.84537,0.45099
1787.91665,0.44421
1785.98794,0.43138
1784.05923,0.41410
1782.13052,0.39624
1780.20180,0.37853
1778.27309,0.36177
1776.34438,0.34378
1774.41567,0.31953
1772.48695,0.28662
1770.55824,0.25379
1768.62953,0.22417
1766.70081,0.19115
1764.77210,0.15804
1762.84339,0.12448
1760.91468,0.09216
1758.98596,0.06861
1757.05725,0.04839
1755.12854,0.03020
1753.19983,0.01708
1751.27111,0.00777
1749.34240,0.00226
1747.41369,0.00067
1745.48498,0.00054
1743.55626,0.00025
1741.62755,0.00033
1739.69884,0.00057
1737.77012,0.00080
1735.84141,0.00086
1733.91270,0.00098
1731.98399,0.00104
1730.05527,0.00052
1728.12656,0.00051
1726.19785,0.00165
1724.26914,0.00566
1722.34042,0.01322
1720.41171,0.02397
1718.48300,0.04237
1716.55429,0.07332
1714.62557,0.10517
1712.69686,0.13066
1710.76815,0.15235
1708.83943,0.16982
1706.91072,0.18330
1704.98201,0.19309
1703.05330,0.19770
1701.12458,0.19708
1699.19587,0.19566
1697.26716,0.20519
1695.33845,0.23076
1693.40973,0.25992
1691.48102,0.28519
1689.55231,0.31251
1687.62359,0.33750
1685.69488,0.35837
1683.76617,0.39082
1681.83746,0.42514
1679.90874,0.44785
1677.98003,0.46326
1676.05132,0.47354
1674.12261,0.48145
1672.19389,0.48581
1670.26518,0.48983
1668.33647,0.50370
1666.40776,0.51750
1664.47904,0.52087
1662.55033,0.51943
1660.62162,0.52158
1658.69290,0.52221
1656.76419,0.51480
1654.83548,0.49757
1652.90677,0.47625
1650.97805,0.46854
1649.04934,0.46115
1647.12063,0.46012
1645.19192,0.48840
1643.26320,0.52330
1641.33449,0.54825
1639.40578,0.56120
1637.47707,0.56471
1635.54835,0.57876
1633.61964,0.60683
1631.69093,0.62438
1629.76221,0.63043
1627.83350,0.63146
1625.90479,0.63071
1623.97608,0.62888
1622.04736,0.63202
1620.11865,0.63613
1618.18994,0.63344
1616.26123,0.63400
1614.33251,0.64618
1612.40380,0.65538
1610.47509,0.65652
1608.54637,0.65510
1606.61766,0.65551
1604.68895,0.65512
1602.76024,0.65287
1600.83152,0.65200
1598.90281,0.65215
1596.97410,0.65055
1595.04539,0.64896
1593.11667,0.64964
1591.18796,0.65069
1589.25925,0.65035
1587.33054,0.64870
1585.40182,0.64550
1583.47311,0.64132
1581.54440,0.63649
1579.61568,0.62791
1577.68697,0.61391
1575.75826,0.60581
1573.82955,0.60990
1571.90083,0.60818
1569.97212,0.59741
1568.04341,0.59096
1566.11470,0.58928
1564.18598,0.58457
1562.25727,0.57548
1560.32856,0.55747
1558.39985,0.54068
1556.47113,0.55095
1554.54242,0.56378
1552.61371,0.57040
1550.68499,0.57103
1548.75628,0.56863
1546.82757,0.56130
1544.89886,0.54380
1542.97014,0.52000
1541.04143,0.50487
1539.11272,0.51680
1537.18401,0.53237
1535.25529,0.53361
1533.32658,0.52854
1531.39787,0.52732
1529.46916,0.52344
1527.54044,0.51140
1525.61173,0.49710
1523.68302,0.48487
1521.75430,0.47514
1519.82559,0.47353
1517.89688,0.47358
1515.96817,0.47311
1514.03945,0.47289
1512.11074,0.46606
1510.18203,0.44997
1508.25332,0.42712
1506.32460,0.41646
1504.39589,0.42399
1502.46718,0.42432
1500.53846,0.41393
1498.60975,0.39527
1496.68104,0.37620
1494.75233,0.36356
1492.82361,0.35046
1490.89490,0.32694
1488.96619,0.29479
1487.03748,0.26709
1485.10876,0.24038
1483.18005,0.20572
1481.25134,0.15925
1479.32263,0.10828
1477.39391,0.06169
1475.46520,0.02490
1473.53649,0.00515
1471.60777,0.00037
1469.67906,0.00003
1467.75035,-0.00010
1465.82164,0.00043
1463.89292,0.00061
1461.96421,0.00054
1460.03550,0.00052
1458.10679,0.00060
1456.17807,0.00082
1454.24936,0.00159
1452.32065,0.00303
1450.39194,0.00473
1448.46322,0.00644
1446.53451,0.00808
1444.60580,0.00925
1442.67708,0.00997
1440.74837,0.01053
1438.81966,0.01131
1436.89095,0.01325
1434.96223,0.01712
1433.03352,0.02248
1431.10481,0.03138
1429.17610,0.04607
1427.24738,0.06390
1425.31867,0.08474
1423.38996,0.10925
1421.46125,0.13274
1419.53253,0.15790
1417.60382,0.18771
1415.67511,0.21246
1413.74639,0.23163
1411.81768,0.24875
1409.88897,0.26395
1407.96026,0.27460
1406.03154,0.27966
1404.10283,0.28101
1402.17412,0.27845
1400.24541,0.26924
1398.31669,0.25351
1396.38798,0.23376
1394.45927,0.20870
1392.53055,0.18058
1390.60184,0.15104
1388.67313,0.11544
1386.74442,0.07553
1384.81570,0.04389
1382.88699,0.02363
1380.95828,0.01097
1379.02957,0.00436
1377.10085,0.00170
1375.17214,0.00079
1373.24343,0.00050
1371.31472,0.00049
1369.38600,0.00062
1367.45729,0.00078
1365.52858,0.00120
1363.59986,0.00227
1361.67115,0.00478
1359.74244,0.00856
1357.81373,0.01319
1355.88501,0.01889
1353.95630,0.02641
1352.02759,0.03762
1350.09888,0.05562
1348.17016,0.08252
1346.24145,0.11645
1344.31274,0.15215
1342.38403,0.18482
1340.45531,0.21597
1338.52660,0.24897
1336.59789,0.27942
1334.66917,0.30210
1332.74046,0.31605
1330.81175,0.32198
1328.88304,0.32147
1326.95432,0.31599
1325.02561,0.30641
1323.09690,0.29313
1321.16819,0.27656
1319.23947,0.25809
1317.31076,0.24007
1315.38205,0.22313
1313.45333,0.20645
1311.52462,0.19102
1309.59591,0.17790
1307.66720,0.16679
1305.73848,0.15758
1303.80977,0.15009
1301.88106,0.14380
1299.95235,0.13825
1298.02363,0.13334
1296.09492,0.12901
1294.16621,0.12475
1292.23750,0.11964
1290.30878,0.11301
1288.38007,0.10492
1286.45136,0.09587
1284.52264,0.08613
1282.59393,0.07567
1280.66522,0.06466
1278.73651,0.05352
1276.80779,0.04270
1274.87908,0.03265
1272.95037,0.02351
1271.02166,0.01551
1269.09294,0.00936
1267.16423,0.00526
1265.23552,0.00266
1263.30681,0.00125
1261.37809,0.00062
1259.44938,0.00040
1257.52067,0.00033
1255.59195,0.00017
1253.66324,0.00005
1251.73453,0.00001
1249.80582,0.00032
1247.87710,0.00056
1245.94839,0.00055
1244.01968,0.00033
1242.09097,0.00021
1240.16225,0.00028
1238.23354,0.00046
1236.30483,0.00061
1234.37612,0.00055
1232.44740,0.00032
1230.51869,0.00020
1228.58998,0.00020
1226.66126,0.00022
1224.73255,0.00037
1222.80384,0.00087
1220.87513,0.00187
1218.94641,0.00361
1217.01770,0.00650
1215.08899,0.01090
1213.16028,0.01704
1211.23156,0.02514
1209.30285,0.03534
1207.37414,0.04735
1205.44542,0.06060
1203.51671,0.07454
1201.58800,0.08858
1199.65929,0.10220
1197.73057,0.11529
1195.80186,0.12799
1193.87315,0.14020
1191.94444,0.15170
1190.01572,0.16226
1188.08701,0.17187
1186.15830,0.18073
1184.22959,0.18875
1182.30087,0.19544
1180.37216,0.20059
1178.44345,0.20499
1176.51473,0.20955
1174.58602,0.21391
1172.65731,0.21721
1170.72860,0.21935
1168.79988,0.22045
1166.87117,0.22014
1164.94246,0.21791
1163.01375,0.21353
1161.08503,0.20701
1159.15632,0.19857
1157.22761,0.18841
1155.29890,0.17675
1153.37018,0.16418
1151.44147,0.15219
1149.51276,0.14261
1147.58404,0.13638
1145.65533,0.13340
1143.72662,0.13246
1141.79791,0.13185
1139.86919,0.13056
1137.94048,0.12842
1136.01177,0.12566
1134.08306,0.12258
1132.15434,0.11951
1130.22563,0.11719
1128.29692,0.11653
1126.36821,0.11791
1124.43949,0.12107
1122.51078,0.12530
1120.58207,0.12982
1118.65335,0.13418
1116.72464,0.13833
1114.79593,0.14254
1112.86722,0.14692
1110.93850,0.15116
1109.00979,0.15493
1107.08108,0.15792
1105.15237,0.15963
1103.22365,0.15980
1101.29494,0.15876
1099.36623,0.15675
1097.43751,0.15355
1095.50880,0.14930
1093.58009,0.14479
1091.65138,0.14014
1089.72266,0.13487
1087.79395,0.12911
1085.86524,0.12339
1083.93653,0.11784
1082.00781,0.11233
1080.07910,0.10701
1078.15039,0.10206
1076.22168,0.09743
1074.29296,0.09289
1072.36425,0.08837
1070.43554,0.08410
1068.50682,0.08048
1066.57811,0.07776
1064.64940,0.07566
1062.72069,0.07368
1060.79197,0.07140
1058.86326,0.06829
1056.93455,0.06411
1055.00584,0.05877
1053.07712,0.05208
1051.14841,0.04462
1049.21970,0.03766
1047.29099,0.03206
1045.36227,0.02830
1043.43356,0.02646
1041.50485,0.02562
1039.57613,0.02425
1037.64742,0.02152
1035.71871,0.01766
1033.79000,0.01336
1031.86128,0.00917
1029.93257,0.00538
1028.00386,0.00256
1026.07515,0.00119
1024.14643,0.00083
1022.21772,0.00062
1020.28901,0.00039
1018.36029,0.00057
1016.43158,0.00149
1014.50287,0.00385
1012.57416,0.00926
1010.64544,0.01960
1008.71673,0.03561
1006.78802,0.05652
1004.85931,0.08065
1002.93059,0.10626
1001.00188,0.13151
999.07317,0.15475
997.14446,0.17486
995.21574,0.19139
993.28703,0.20461
991.35832,0.21513
989.42960,0.22325
987.50089,0.22889
985.57218,0.23202
983.64347,0.23280
981.71475,0.23128
979.78604,0.22730
977.85733,0.22086
975.92862,0.21248
973.99990,0.20275
972.07119,0.19187
970.14248,0.18021
968.21377,0.16867
966.28505,0.15818
964.35634,0.14958
962.42763,0.14345
960.49891,0.14006
958.57020,0.13942
956.64149,0.14119
954.71278,0.14475
952.78406,0.14964
950.85535,0.15571
948.92664,0.16268
946.99793,0.16969
945.06921,0.17520
943.14050,0.17774
941.21179,0.17742
939.28308,0.17650
937.35436,0.17856
935.42565,0.18748
933.49694,0.20635
931.56822,0.23575
929.63951,0.27296
927.71080,0.31284
925.78209,0.35004
923.85337,0.38099
921.92466,0.40474
919.99595,0.42232
918.06724,0.43526
916.13852,0.44473
914.20981,0.45133
912.28110,0.45582
910.35238,0.45944
908.42367,0.46363
906.49496,0.46896
904.56625,0.47433
902.63753,0.47835
900.70882,0.48053
898.78011,0.48087
896.85140,0.47985
894.92268,0.47861
892.99397,0.47807
891.06526,0.47855
889.13655,0.48048
887.20783,0.48437
885.27912,0.48950
883.35041,0.49422
881.42169,0.49749
879.49298,0.49912
877.56427,0.49913
875.63556,0.49778
873.70684,0.49564
871.77813,0.49312
869.84942,0.49105
867.92071,0.49120
865.99199,0.49485
864.06328,0.50132
862.13457,0.50847
860.20586,0.51457
858.27714,0.51932
856.34843,0.52346
854.41972,0.52809
852.49100,0.53407
850.56229,0.54102
848.63358,0.54788
846.70487,0.55430
844.77615,0.56049
842.84744,0.56634
840.91873,0.57178
838.99002,0.57710
837.06130,0.58236
835.13259,0.58746
833.20388,0.59271
831.27516,0.59822
829.34645,0.60368
827.41774,0.60853
825.48903,0.61210
823.56031,0.61390
821.63160,0.61373
819.70289,0.61143
817.77418,0.60748
815.84546,0.60289
813.91675,0.59802
811.98804,0.59260
810.05933,0.58666
808.13061,0.58030
806.20190,0.57376
804.27319,0.56777
802.34447,0.56330
800.41576,0.56122
798.48705,0.56250
796.55834,0.56750
794.62962,0.57579
792.70091,0.58653
790.77220,0.59806
788.84349,0.60790
786.91477,0.61399
784.98606,0.61596
783.05735,0.61454
781.12864,0.61048
779.19992,0.60467
777.27121,0.59838
775.34250,0.59231
773.41378,0.58657
771.48507,0.58152
769.55636,0.57734
767.62765,0.57374
765.69893,0.57013
763.77022,0.56552
761.84151,0.55906
759.91280,0.55073
757.98408,0.54082
756.05537,0.52955
754.12666,0.51704
752.19795,0.50300
750.26923,0.48700
748.34052,0.46869
746.41181,0.44712
744.48309,0.42102
742.55438,0.38934
740.62567,0.35102
738.69696,0.30501
736.76824,0.24848
734.83953,0.17770
732.91082,0.10034
730.98211,0.04085
729.05339,0.01494
727.12468,0.01106
725.19597,0.01056
723.26725,0.00721
721.33854,0.00361
719.40983,0.00401
717.48112,0.01584
715.55240,0.04951
713.62369,0.10916
711.69498,0.18646
709.76627,0.26819
707.83755,0.34579
705.90884,0.41528
703.98013,0.47495
702.05142,0.52473
700.12270,0.56770
698.19399,0.60777
696.26528,0.64395
694.33656,0.67252
692.40785,0.69241
690.47914,0.70564
688.55043,0.71523
686.62171,0.72265
684.69300,0.72794
682.76429,0.73229
680.83558,0.73690
678.90686,0.74109
676.97815,0.74369
675.04944,0.74367
673.12073,0.73742
671.19201,0.71742
669.26330,0.69010
667.33459,0.69158
665.40587,0.71979
663.47716,0.73389
661.54845,0.73034
659.61974,0.72070
657.69102,0.70874
655.76231,0.69312
653.83360,0.67179
651.90489,0.64452
649.97617,0.61443
648.04746,0.58703
646.11875,0.56687
644.19004,0.55575
642.26132,0.55420
640.33261,0.56110
638.40390,0.57125
636.47518,0.57500
634.54647,0.56406
632.61776,0.53807
630.68905,0.50835
628.76033,0.49121
626.83162,0.49496
624.90291,0.51535
622.97420,0.53932
621.04548,0.55306
619.11677,0.54548
617.18806,0.50820
615.25934,0.43950
613.33063,0.35114
611.40192,0.26844
609.47321,0.21886
607.54449,0.21958
605.61578,0.27017
603.68707,0.35179
601.75836,0.43761
599.82964,0.51113
