7497.33348,0.03250
7495.40466,0.03832
7493.47584,0.04175
7491.54702,0.04080
7489.61819,0.03859
7487.68937,0.03761
7485.76055,0.03529
7483.83173,0.03270
7481.90290,0.03188
7479.97408,0.03141
7478.04526,0.02979
7476.11644,0.03010
7474.18761,0.03149
7472.25879,0.03203
7470.32997,0.03329
7468.40115,0.03411
7466.47232,0.03383
7464.54350,0.03534
7462.61468,0.03323
7460.68585,0.02726
7458.75703,0.02843
7456.82821,0.03586
7454.89939,0.04008
7452.97056,0.04089
7451.04174,0.04048
7449.11292,0.04072
7447.18410,0.03969
7445.25527,0.03794
7443.32645,0.04059
7441.39763,0.04548
7439.46881,0.04412
7437.53998,0.03808
7435.61116,0.03584
7433.68234,0.03911
7431.75352,0.04068
7429.82469,0.03856
7427.89587,0.03756
7425.96705,0.03861
7424.03823,0.03965
7422.10940,0.04156
7420.18058,0.04126
7418.25176,0.03790
7416.32293,0.03707
7414.39411,0.04004
7412.46529,0.04217
7410.53647,0.04284
7408.60764,0.03928
7406.67882,0.02894
7404.75000,0.02026
7402.82118,0.02288
7400.89235,0.03159
7398.96353,0.03569
7397.03471,0.03291
7395.10589,0.03129
7393.17706,0.03172
7391.24824,0.03073
7389.31942,0.03314
7387.39060,0.04079
7385.46177,0.04285
7383.53295,0.03708
7381.60413,0.03160
7379.67531,0.03287
7377.74648,0.03877
7375.81766,0.03865
7373.88884,0.03242
7371.96001,0.03340
7370.03119,0.03973
7368.10237,0.04091
7366.17355,0.03657
7364.24472,0.03349
7362.31590,0.03646
7360.38708,0.04224
7358.45826,0.04171
7356.52943,0.03869
7354.60061,0.04045
7352.67179,0.04107
7350.74297,0.03983
7348.81414,0.04081
7346.88532,0.03620
7344.95650,0.03150
7343.02768,0.03535
7341.09885,0.04267
7339.17003,0.04173
7337.24121,0.03759
7335.31239,0.03922
7333.38356,0.04323
7331.45474,0.04379
7329.52592,0.04350
7327.59709,0.04030
7325.66827,0.03461
7323.73945,0.03132
7321.81063,0.03297
7319.88180,0.03828
7317.95298,0.04384
7316.02416,0.04584
7314.09534,0.04715
7312.16651,0.04922
7310.23769,0.04883
7308.30887,0.04464
7306.38005,0.04030
7304.45122,0.03872
7302.52240,0.03805
7300.59358,0.03688
7298.66476,0.04003
7296.73593,0.04565
7294.80711,0.04627
7292.87829,0.04117
7290.94947,0.03773
7289.02064,0.03898
7287.09182,0.03839
7285.16300,0.03332
7283.23417,0.03018
7281.30535,0.03167
7279.37653,0.03545
7277.44771,0.03227
7275.51888,0.02169
7273.59006,0.01838
7271.66124,0.02787
7269.73242,0.03893
7267.80359,0.04187
7265.87477,0.03908
7263.94595,0.03843
7262.01713,0.04271
7260.08830,0.04916
7258.15948,0.05323
7256.23066,0.05152
7254.30184,0.04361
7252.37301,0.03606
7250.44419,0.03292
7248.51537,0.03061
7246.58655,0.02814
7244.65772,0.02903
7242.72890,0.03211
7240.80008,0.03305
7238.87125,0.03365
7236.94243,0.03620
7235.01361,0.03841
7233.08479,0.03721
7231.15596,0.03178
7229.22714,0.02883
7227.29832,0.03075
7225.36950,0.03588
7223.44067,0.03822
7221.51185,0.03709
7219.58303,0.03808
7217.65421,0.04271
7215.72538,0.04516
7213.79656,0.04236
7211.86774,0.03456
7209.93892,0.02767
7208.01009,0.02747
7206.08127,0.03382
7204.15245,0.04007
7202.22363,0.04026
7200.29480,0.03579
7198.36598,0.03284
7196.43716,0.03397
7194.50833,0.03665
7192.57951,0.03790
7190.65069,0.03622
7188.72187,0.03312
7186.79304,0.03414
7184.86422,0.03652
7182.93540,0.03351
7181.00658,0.02986
7179.07775,0.03210
7177.14893,0.03489
7175.22011,0.03484
7173.29129,0.03299
7171.36246,0.02999
7169.43364,0.02890
7167.50482,0.03225
7165.57600,0.03563
7163.64717,0.03687
7161.71835,0.03618
7159.78953,0.03503
7157.86071,0.03398
7155.93188,0.03149
7154.00306,0.02810
7152.07424,0.02605
7150.14541,0.02556
7148.21659,0.02903
7146.28777,0.03643
7144.35895,0.04241
7142.43012,0.04350
7140.50130,0.04185
7138.57248,0.03690
7136.64366,0.03124
7134.71483,0.02823
7132.78601,0.02778
7130.85719,0.02659
7128.92837,0.02506
7126.99954,0.02814
7125.07072,0.03440
7123.14190,0.03695
7121.21308,0.03721
7119.28425,0.03842
7117.35543,0.03756
7115.42661,0.03106
7113.49779,0.02518
7111.56896,0.02588
7109.64014,0.03036
7107.71132,0.03443
7105.78249,0.03696
7103.85367,0.03554
7101.92485,0.03250
7099.99603,0.03318
7098.06720,0.03475
7096.13838,0.03206
7094.20956,0.02858
7092.28074,0.02926
7090.35191,0.03223
7088.42309,0.03437
7086.49427,0.03527
7084.56545,0.03629
7082.63662,0.03760
7080.70780,0.03560
7078.77898,0.03131
7076.85016,0.02995
7074.92133,0.03179
7072.99251,0.03398
7071.06369,0.03436
7069.13487,0.03256
7067.20604,0.03059
7065.27722,0.02916
7063.34840,0.02772
7061.41957,0.02707
7059.49075,0.02854
7057.56193,0.03219
7055.63311,0.03513
7053.70428,0.03433
7051.77546,0.03280
7049.84664,0.03263
7047.91782,0.03308
7045.98899,0.03376
7044.06017,0.03327
7042.13135,0.03184
7040.20253,0.03012
7038.27370,0.02619
7036.34488,0.02316
7034.41606,0.02372
7032.48724,0.02340
7030.55841,0.02065
7028.62959,0.02134
7026.70077,0.02609
7024.77195,0.02883
7022.84312,0.02909
7020.91430,0.03058
7018.98548,0.03247
7017.05665,0.03629
7015.12783,0.04393
7013.19901,0.04745
7011.27019,0.04212
7009.34136,0.03506
7007.41254,0.03247
7005.48372,0.03423
7003.55490,0.03575
7001.62607,0.03470
6999.69725,0.03100
6997.76843,0.02695
6995.83961,0.02656
6993.91078,0.03145
6991.98196,0.03651
6990.05314,0.03710
6988.12432,0.03530
6986.19549,0.03534
6984.26667,0.03609
6982.33785,0.03557
6980.40903,0.03414
6978.48020,0.03352
6976.55138,0.03343
6974.62256,0.03307
6972.69373,0.03269
6970.76491,0.03361
6968.83609,0.03663
6966.90727,0.03972
6964.97844,0.03974
6963.04962,0.03610
6961.12080,0.03256
6959.19198,0.03313
6957.26315,0.03416
6955.33433,0.03365
6953.40551,0.03407
6951.47669,0.03466
6949.54786,0.03314
6947.61904,0.03066
6945.69022,0.02850
6943.76140,0.02694
6941.83257,0.02670
6939.90375,0.02784
6937.97493,0.03057
6936.04611,0.03446
6934.11728,0.03656
6932.18846,0.03758
6930.25964,0.03939
6928.33081,0.03892
6926.40199,0.03366
6924.47317,0.02916
6922.54435,0.03094
6920.61552,0.03489
6918.68670,0.03363
6916.75788,0.02946
6914.82906,0.02848
6912.90023,0.03126
6910.97141,0.03347
6909.04259,0.03340
6907.11377,0.03160
6905.18494,0.02935
6903.25612,0.03041
6901.32730,0.03442
6899.39848,0.03536
6897.46965,0.03393
6895.54083,0.03581
6893.61201,0.03972
6891.68319,0.04062
6889.75436,0.03980
6887.82554,0.03965
6885.89672,0.03974
6883.96789,0.04025
6882.03907,0.04092
6880.11025,0.03935
6878.18143,0.03532
6876.25260,0.03196
6874.32378,0.03100
6872.39496,0.03195
6870.46614,0.03429
6868.53731,0.03471
6866.60849,0.03253
6864.67967,0.03246
6862.75085,0.03647
6860.82202,0.04008
6858.89320,0.04008
6856.96438,0.03658
6855.03556,0.03238
6853.10673,0.03191
6851.17791,0.03619
6849.24909,0.03917
6847.32027,0.03733
6845.39144,0.03323
6843.46262,0.02881
6841.53380,0.02672
6839.60497,0.02796
6837.67615,0.02834
6835.74733,0.02769
6833.81851,0.02784
6831.88968,0.02924
6829.96086,0.03103
6828.03204,0.03386
6826.10322,0.03727
6824.17439,0.04100
6822.24557,0.04423
6820.31675,0.04260
6818.38793,0.03722
6816.45910,0.03478
6814.53028,0.03403
6812.60146,0.03147
6810.67264,0.02968
6808.74381,0.02925
6806.81499,0.02751
6804.88617,0.02675
6802.95734,0.02982
6801.02852,0.03333
6799.09970,0.03309
6797.17088,0.03040
6795.24205,0.02809
6793.31323,0.02806
6791.38441,0.03139
6789.45559,0.03611
6787.52676,0.03910
6785.59794,0.03892
6783.66912,0.03717
6781.74030,0.03599
6779.81147,0.03413
6777.88265,0.03215
6775.95383,0.03162
6774.02501,0.03193
6772.09618,0.03369
6770.16736,0.03697
6768.23854,0.03896
6766.30972,0.03796
6764.38089,0.03602
6762.45207,0.03574
6760.52325,0.03518
6758.59442,0.03317
6756.66560,0.03212
6754.73678,0.03404
6752.80796,0.03500
6750.87913,0.03392
6748.95031,0.03447
6747.02149,0.03648
6745.09267,0.03756
6743.16384,0.03734
6741.23502,0.03541
6739.30620,0.03434
6737.37738,0.03529
6735.44855,0.03536
6733.51973,0.03447
6731.59091,0.03477
6729.66209,0.03449
6727.73326,0.03215
6725.80444,0.02985
6723.87562,0.02817
6721.94680,0.02760
6720.01797,0.03010
6718.08915,0.03262
6716.16033,0.03112
6714.23150,0.02857
6712.30268,0.02941
6710.37386,0.03176
6708.44504,0.03268
6706.51621,0.03201
6704.58739,0.03129
6702.65857,0.03208
6700.72975,0.03461
6698.80092,0.03842
6696.87210,0.04171
6694.94328,0.04090
6693.01446,0.03540
6691.08563,0.02923
6689.15681,0.02708
6687.22799,0.02851
6685.29917,0.02939
6683.37034,0.02877
6681.44152,0.02688
6679.51270,0.02505
6677.58388,0.02684
6675.65505,0.03183
6673.72623,0.03660
6671.79741,0.03833
6669.86858,0.03697
6667.93976,0.03534
6666.01094,0.03365
6664.08212,0.03202
6662.15329,0.03389
6660.22447,0.03692
6658.29565,0.03661
6656.36683,0.03555
6654.43800,0.03671
6652.50918,0.03846
6650.58036,0.03966
6648.65154,0.04045
6646.72271,0.04009
6644.79389,0.03840
6642.86507,0.03763
6640.93625,0.03919
6639.00742,0.04099
6637.07860,0.04038
6635.14978,0.03744
6633.22096,0.03327
6631.29213,0.02955
6629.36331,0.02857
6627.43449,0.03062
6625.50566,0.03351
6623.57684,0.03414
6621.64802,0.03242
6619.71920,0.03197
6617.79037,0.03329
6615.86155,0.03421
6613.93273,0.03326
6612.00391,0.03083
6610.07508,0.02909
6608.14626,0.03158
6606.21744,0.03680
6604.28862,0.03770
6602.35979,0.03348
6600.43097,0.02980
6598.50215,0.02721
6596.57333,0.02612
6594.64450,0.02666
6592.71568,0.02528
6590.78686,0.02430
6588.85804,0.02838
6586.92921,0.03304
6585.00039,0.03354
6583.07157,0.03255
6581.14274,0.03240
6579.21392,0.03131
6577.28510,0.02936
6575.35628,0.02859
6573.42745,0.02915
6571.49863,0.03000
6569.56981,0.03007
6567.64099,0.02814
6565.71216,0.02681
6563.78334,0.02949
6561.85452,0.03244
6559.92570,0.03160
6557.99687,0.02990
6556.06805,0.02897
6554.13923,0.02863
6552.21041,0.02972
6550.28158,0.03091
6548.35276,0.03038
6546.42394,0.03063
6544.49512,0.03443
6542.56629,0.03885
6540.63747,0.03928
6538.70865,0.03767
6536.77982,0.03713
6534.85100,0.03636
6532.92218,0.03624
6530.99336,0.03708
6529.06453,0.03465
6527.13571,0.03007
6525.20689,0.02789
6523.27807,0.02778
6521.34924,0.02862
6519.42042,0.02942
6517.49160,0.02759
6515.56278,0.02517
6513.63395,0.02623
6511.70513,0.02891
6509.77631,0.03085
6507.84749,0.03287
6505.91866,0.03362
6503.98984,0.03293
6502.06102,0.03275
6500.13220,0.03234
6498.20337,0.03098
6496.27455,0.02993
6494.34573,0.03027
6492.41690,0.03253
6490.48808,0.03436
6488.55926,0.03235
6486.63044,0.02904
6484.70161,0.02961
6482.77279,0.03222
6480.84397,0.03168
6478.91515,0.02867
6476.98632,0.02765
6475.05750,0.02827
6473.12868,0.02905
6471.19986,0.02998
6469.27103,0.03189
6467.34221,0.03482
6465.41339,0.03679
6463.48457,0.03620
6461.55574,0.03424
6459.62692,0.03158
6457.69810,0.02930
6455.76928,0.03005
6453.84045,0.03387
6451.91163,0.03639
6449.98281,0.03437
6448.05398,0.03034
6446.12516,0.02910
6444.19634,0.03091
6442.26752,0.03265
6440.33869,0.03243
6438.40987,0.03070
6436.48105,0.02871
6434.55223,0.02658
6432.62340,0.02523
6430.69458,0.02735
6428.76576,0.03087
6426.83694,0.03230
6424.90811,0.03291
6422.97929,0.03382
6421.05047,0.03325
6419.12165,0.03154
6417.19282,0.03079
6415.26400,0.03167
6413.33518,0.03303
6411.40636,0.03289
6409.47753,0.03169
6407.54871,0.03169
6405.61989,0.03194
6403.69106,0.03065
6401.76224,0.02925
6399.83342,0.02951
6397.90460,0.03121
6395.97577,0.03339
6394.04695,0.03405
6392.11813,0.03288
6390.18931,0.03197
6388.26048,0.03274
6386.33166,0.03378
6384.40284,0.03369
6382.47402,0.03235
6380.54519,0.03057
6378.61637,0.02897
6376.68755,0.02875
6374.75873,0.02958
6372.82990,0.02988
6370.90108,0.02887
6368.97226,0.02758
6367.04344,0.02725
6365.11461,0.02788
6363.18579,0.02835
6361.25697,0.02926
6359.32814,0.03061
6357.39932,0.03167
6355.47050,0.03198
6353.54168,0.03100
6351.61285,0.03019
6349.68403,0.03122
6347.75521,0.03252
6345.82639,0.03238
6343.89756,0.03047
6341.96874,0.02824
6340.03992,0.02731
6338.11110,0.02843
6336.18227,0.03111
6334.25345,0.03314
6332.32463,0.03292
6330.39581,0.03112
6328.46698,0.02966
6326.53816,0.03085
6324.60934,0.03316
6322.68052,0.03372
6320.75169,0.03247
6318.82287,0.03081
6316.89405,0.02907
6314.96522,0.02888
6313.03640,0.03052
6311.10758,0.03135
6309.17876,0.03032
6307.24993,0.03024
6305.32111,0.03128
6303.39229,0.03136
6301.46347,0.03136
6299.53464,0.03274
6297.60582,0.03426
6295.67700,0.03309
6293.74818,0.02880
6291.81935,0.02607
6289.89053,0.02762
6287.96171,0.03033
6286.03289,0.03142
6284.10406,0.03182
6282.17524,0.03217
6280.24642,0.03148
6278.31760,0.02997
6276.38877,0.03019
6274.45995,0.03258
6272.53113,0.03336
6270.60230,0.03118
6268.67348,0.03012
6266.74466,0.03139
6264.81584,0.03291
6262.88701,0.03307
6260.95819,0.03186
6259.02937,0.03044
6257.10055,0.02990
6255.17172,0.03028
6253.24290,0.03109
6251.31408,0.03266
6249.38526,0.03441
6247.45643,0.03346
6245.52761,0.03102
6243.59879,0.03091
6241.66997,0.03238
6239.74114,0.03229
6237.81232,0.03119
6235.88350,0.03169
6233.95468,0.03413
6232.02585,0.03506
6230.09703,0.03267
6228.16821,0.02980
6226.23938,0.02914
6224.31056,0.03028
6222.38174,0.03203
6220.45292,0.03446
6218.52409,0.03655
6216.59527,0.03602
6214.66645,0.03381
6212.73763,0.03260
6210.80880,0.03260
6208.87998,0.03267
6206.95116,0.03230
6205.02234,0.03054
6203.09351,0.02728
6201.16469,0.02532
6199.23587,0.02621
6197.30705,0.02763
6195.37822,0.02866
6193.44940,0.03017
6191.52058,0.03104
6189.59176,0.03054
6187.66293,0.02984
6185.73411,0.02873
6183.80529,0.02749
6181.87646,0.02837
6179.94764,0.03144
6178.01882,0.03505
6176.09000,0.03799
6174.16117,0.03759
6172.23235,0.03331
6170.30353,0.02927
6168.37471,0.02800
6166.44588,0.02900
6164.51706,0.03155
6162.58824,0.03353
6160.65942,0.03353
6158.73059,0.03278
6156.80177,0.03309
6154.87295,0.03325
6152.94413,0.03173
6151.01530,0.02990
6149.08648,0.02927
6147.15766,0.02996
6145.22884,0.02987
6143.30001,0.02758
6141.37119,0.02673
6139.44237,0.02926
6137.51354,0.03131
6135.58472,0.03146
6133.65590,0.03233
6131.72708,0.03243
6129.79825,0.02978
6127.86943,0.02767
6125.94061,0.02745
6124.01179,0.02713
6122.08296,0.02716
6120.15414,0.02847
6118.22532,0.02988
6116.29650,0.02956
6114.36767,0.02751
6112.43885,0.02630
6110.51003,0.02774
6108.58121,0.03000
6106.65238,0.03104
6104.72356,0.03124
6102.79474,0.03200
6100.86591,0.03334
6098.93709,0.03313
6097.00827,0.03142
6095.07945,0.03092
6093.15062,0.03124
6091.22180,0.03093
6089.29298,0.03115
6087.36416,0.03261
6085.43533,0.03381
6083.50651,0.03387
6081.57769,0.03301
6079.64887,0.03139
6077.72004,0.02948
6075.79122,0.02849
6073.86240,0.02852
6071.93358,0.02853
6070.00475,0.02955
6068.07593,0.03259
6066.14711,0.03400
6064.21829,0.03129
6062.28946,0.02872
6060.36064,0.03003
6058.43182,0.03272
6056.50299,0.03432
6054.57417,0.03525
6052.64535,0.03540
6050.71653,0.03467
6048.78770,0.03328
6046.85888,0.03127
6044.93006,0.03035
6043.00124,0.03067
6041.07241,0.02990
6039.14359,0.02818
6037.21477,0.02757
6035.28595,0.02869
6033.35712,0.03057
6031.42830,0.03135
6029.49948,0.03088
6027.57066,0.03042
6025.64183,0.03035
6023.71301,0.03079
6021.78419,0.03093
6019.85537,0.02958
6017.92654,0.02827
6015.99772,0.02790
6014.06890,0.02801
6012.14007,0.02997
6010.21125,0.03256
6008.28243,0.03157
6006.35361,0.02878
6004.42478,0.02861
6002.49596,0.03015
6000.56714,0.03128
5998.63832,0.03155
5996.70949,0.03014
5994.78067,0.02881
5992.85185,0.03035
5990.92303,0.03333
5988.99420,0.03439
5987.06538,0.03300
5985.13656,0.03144
5983.20774,0.03161
5981.27891,0.03247
5979.35009,0.03250
5977.42127,0.03178
5975.49245,0.03094
5973.56362,0.03056
5971.63480,0.03075
5969.70598,0.03076
5967.77715,0.02932
5965.84833,0.02708
5963.91951,0.02656
5961.99069,0.02794
5960.06186,0.02913
5958.13304,0.02902
5956.20422,0.02877
5954.27540,0.02931
5952.34657,0.03021
5950.41775,0.03158
5948.48893,0.03335
5946.56011,0.03390
5944.63128,0.03350
5942.70246,0.03379
5940.77364,0.03478
5938.84482,0.03505
5936.91599,0.03455
5934.98717,0.03363
5933.05835,0.03184
5931.12953,0.03024
5929.20070,0.03068
5927.27188,0.03182
5925.34306,0.03196
5923.41423,0.03185
5921.48541,0.03116
5919.55659,0.02884
5917.62777,0.02688
5915.69894,0.02709
5913.77012,0.02810
5911.84130,0.02798
5909.91248,0.02760
5907.98365,0.02793
5906.05483,0.02827
5904.12601,0.02852
5902.19719,0.02920
5900.26836,0.02984
5898.33954,0.03026
5896.41072,0.03006
5894.48190,0.02906
5892.55307,0.02903
5890.62425,0.03063
5888.69543,0.03173
5886.76661,0.03111
5884.83778,0.02949
5882.90896,0.02891
5880.98014,0.03058
5879.05131,0.03281
5877.12249,0.03277
5875.19367,0.03028
5873.26485,0.02776
5871.33602,0.02795
5869.40720,0.02993
5867.47838,0.03005
5865.54956,0.02848
5863.62073,0.02887
5861.69191,0.03111
5859.76309,0.03234
5857.83427,0.03175
5855.90544,0.03021
5853.97662,0.02929
5852.04780,0.03021
5850.11898,0.03204
5848.19015,0.03290
5846.26133,0.03254
5844.33251,0.03260
5842.40369,0.03330
5840.47486,0.03272
5838.54604,0.03109
5836.61722,0.03034
5834.68839,0.03019
5832.75957,0.02995
5830.83075,0.03043
5828.90193,0.03163
5826.97310,0.03164
5825.04428,0.03015
5823.11546,0.02900
5821.18664,0.02937
5819.25781,0.03049
5817.32899,0.03083
5815.40017,0.03033
5813.47135,0.02999
5811.54252,0.03026
5809.61370,0.03101
5807.68488,0.03076
5805.75606,0.02848
5803.82723,0.02669
5801.89841,0.02821
5799.96959,0.03052
5798.04077,0.03065
5796.11194,0.03062
5794.18312,0.03174
5792.25430,0.03167
5790.32547,0.02993
5788.39665,0.02908
5786.46783,0.02971
5784.53901,0.03068
5782.61018,0.03232
5780.68136,0.03452
5778.75254,0.03512
5776.82372,0.03295
5774.89489,0.02999
5772.96607,0.02835
5771.03725,0.02817
5769.10843,0.02876
5767.17960,0.02905
5765.25078,0.02867
5763.32196,0.02859
5761.39314,0.02833
5759.46431,0.02749
5757.53549,0.02770
5755.60667,0.02884
5753.67785,0.02974
5751.74902,0.03100
5749.82020,0.03249
5747.89138,0.03357
5745.96255,0.03348
5744.03373,0.03159
5742.10491,0.02983
5740.17609,0.03020
5738.24726,0.03107
5736.31844,0.03071
5734.38962,0.03075
5732.46080,0.03189
5730.53197,0.03259
5728.60315,0.03242
5726.67433,0.03153
5724.74551,0.03050
5722.81668,0.03040
5720.88786,0.03109
5718.95904,0.03084
5717.03022,0.02937
5715.10139,0.02895
5713.17257,0.03021
5711.24375,0.03128
5709.31493,0.03119
5707.38610,0.03076
5705.45728,0.03036
5703.52846,0.02911
5701.59963,0.02766
5699.67081,0.02827
5697.74199,0.03013
5695.81317,0.03033
5693.88434,0.02960
5691.95552,0.02997
5690.02670,0.03085
5688.09788,0.03120
5686.16905,0.03095
5684.24023,0.03075
5682.31141,0.03084
5680.38259,0.03087
5678.45376,0.03090
5676.52494,0.03084
5674.59612,0.03080
5672.66730,0.03086
5670.73847,0.03092
5668.80965,0.03131
5666.88083,0.03171
5664.95201,0.03149
5663.02318,0.03088
5661.09436,0.03003
5659.16554,0.02933
5657.23671,0.02996
5655.30789,0.03104
5653.37907,0.03046
5651.45025,0.02928
5649.52142,0.02888
5647.59260,0.02868
5645.66378,0.02898
5643.73496,0.03031
5641.80613,0.03156
5639.87731,0.03177
5637.94849,0.03118
5636.01967,0.03038
5634.09084,0.02955
5632.16202,0.02876
5630.23320,0.02876
5628.30438,0.02943
5626.37555,0.02947
5624.44673,0.02924
5622.51791,0.02997
5620.58909,0.03089
5618.66026,0.03106
5616.73144,0.03118
5614.80262,0.03109
5612.87379,0.03076
5610.94497,0.03099
5609.01615,0.03115
5607.08733,0.03074
5605.15850,0.03099
5603.22968,0.03182
5601.30086,0.03169
5599.37204,0.03041
5597.44321,0.02973
5595.51439,0.03021
5593.58557,0.03032
5591.65675,0.02955
5589.72792,0.02921
5587.79910,0.02992
5585.87028,0.03047
5583.94146,0.02986
5582.01263,0.02908
5580.08381,0.02910
5578.15499,0.02972
5576.22617,0.03060
5574.29734,0.03107
5572.36852,0.03063
5570.43970,0.02993
5568.51087,0.02969
5566.58205,0.02993
5564.65323,0.02991
5562.72441,0.02944
5560.79558,0.02911
5558.86676,0.02926
5556.93794,0.02966
5555.00912,0.02943
5553.08029,0.02797
5551.15147,0.02697
5549.22265,0.02811
5547.29383,0.02991
5545.36500,0.03069
5543.43618,0.03146
5541.50736,0.03250
5539.57854,0.03208
5537.64971,0.03024
5535.72089,0.02938
5533.79207,0.03037
5531.86325,0.03127
5529.93442,0.03068
5528.00560,0.02968
5526.07678,0.02947
5524.14795,0.02980
5522.21913,0.03019
5520.29031,0.03083
5518.36149,0.03121
5516.43266,0.03068
5514.50384,0.03020
5512.57502,0.03010
5510.64620,0.02934
5508.71737,0.02847
5506.78855,0.02880
5504.85973,0.03002
5502.93091,0.03073
5501.00208,0.03024
5499.07326,0.02954
5497.14444,0.02990
5495.21562,0.03069
5493.28679,0.03090
5491.35797,0.03072
5489.42915,0.03042
5487.50033,0.02984
5485.57150,0.02928
5483.64268,0.02927
5481.71386,0.02985
5479.78503,0.02986
5477.85621,0.02877
5475.92739,0.02837
5473.99857,0.02964
5472.06974,0.03051
5470.14092,0.03043
5468.21210,0.03028
5466.28328,0.02942
5464.35445,0.02805
5462.42563,0.02777
5460.49681,0.02864
5458.56799,0.02947
5456.63916,0.02974
5454.71034,0.03036
5452.78152,0.03184
5450.85270,0.03332
5448.92387,0.03394
5446.99505,0.03339
5445.06623,0.03201
5443.13741,0.03066
5441.20858,0.02950
5439.27976,0.02897
5437.35094,0.02948
5435.42211,0.03022
5433.49329,0.03001
5431.56447,0.02917
5429.63565,0.02886
5427.70682,0.02945
5425.77800,0.03011
5423.84918,0.03062
5421.92036,0.03107
5419.99153,0.03094
5418.06271,0.03034
5416.13389,0.03013
5414.20507,0.03013
5412.27624,0.02980
5410.34742,0.02980
5408.41860,0.03001
5406.48978,0.02985
5404.56095,0.03033
5402.63213,0.03181
5400.70331,0.03300
5398.77449,0.03290
5396.84566,0.03192
5394.91684,0.03105
5392.98802,0.03005
5391.05919,0.02855
5389.13037,0.02765
5387.20155,0.02793
5385.27273,0.02903
5383.34390,0.03011
5381.41508,0.03066
5379.48626,0.03076
5377.55744,0.03012
5375.62861,0.02922
5373.69979,0.02937
5371.77097,0.03006
5369.84215,0.03056
5367.91332,0.03101
5365.98450,0.03136
5364.05568,0.03128
5362.12686,0.03070
5360.19803,0.03023
5358.26921,0.03042
5356.34039,0.03081
5354.41156,0.03057
5352.48274,0.02992
5350.55392,0.03008
5348.62510,0.03111
5346.69627,0.03175
5344.76745,0.03091
5342.83863,0.02955
5340.90981,0.02900
5338.98098,0.02958
5337.05216,0.03049
5335.12334,0.03055
5333.19452,0.03021
5331.26569,0.02977
5329.33687,0.02896
5327.40805,0.02827
5325.47923,0.02834
5323.55040,0.02870
5321.62158,0.02867
5319.69276,0.02807
5317.76394,0.02730
5315.83511,0.02759
5313.90629,0.02941
5311.97747,0.03130
5310.04864,0.03209
5308.11982,0.03176
5306.19100,0.03076
5304.26218,0.02967
5302.33335,0.02879
5300.40453,0.02853
5298.47571,0.02868
5296.54689,0.02848
5294.61806,0.02829
5292.68924,0.02869
5290.76042,0.02939
5288.83160,0.03043
5286.90277,0.03180
5284.97395,0.03215
5283.04513,0.03091
5281.11631,0.02966
5279.18748,0.02950
5277.25866,0.02978
5275.32984,0.02988
5273.40102,0.02981
5271.47219,0.02947
5269.54337,0.02899
5267.61455,0.02899
5265.68572,0.02954
5263.75690,0.03007
5261.82808,0.03034
5259.89926,0.02981
5257.97043,0.02846
5256.04161,0.02756
5254.11279,0.02778
5252.18397,0.02842
5250.25514,0.02934
5248.32632,0.03020
5246.39750,0.03025
5244.46868,0.02998
5242.53985,0.03013
5240.61103,0.03059
5238.68221,0.03123
5236.75339,0.03153
5234.82456,0.03079
5232.89574,0.02937
5230.96692,0.02871
5229.03810,0.02884
5227.10927,0.02861
5225.18045,0.02867
5223.25163,0.02963
5221.32280,0.03027
5219.39398,0.03040
5217.46516,0.03086
5215.53634,0.03117
5213.60751,0.03041
5211.67869,0.02930
5209.74987,0.02900
5207.82105,0.02942
5205.89222,0.02993
5203.96340,0.03080
5202.03458,0.03190
5200.10576,0.03195
5198.17693,0.03073
5196.24811,0.02962
5194.31929,0.02933
5192.39047,0.02945
5190.46164,0.02921
5188.53282,0.02850
5186.60400,0.02804
5184.67518,0.02833
5182.74635,0.02928
5180.81753,0.03058
5178.88871,0.03163
5176.95988,0.03193
5175.03106,0.03175
5173.10224,0.03163
5171.17342,0.03132
5169.24459,0.03044
5167.31577,0.02921
5165.38695,0.02833
5163.45813,0.02848
5161.52930,0.02935
5159.60048,0.02993
5157.67166,0.03000
5155.74284,0.03001
5153.81401,0.03032
5151.88519,0.03055
5149.95637,0.03037
5148.02755,0.03014
5146.09872,0.02996
5144.16990,0.02995
5142.24108,0.03012
5140.31226,0.02948
5138.38343,0.02861
5136.45461,0.02905
5134.52579,0.03004
5132.59696,0.03046
5130.66814,0.03075
5128.73932,0.03095
5126.81050,0.03039
5124.88167,0.02964
5122.95285,0.02985
5121.02403,0.03076
5119.09521,0.03149
5117.16638,0.03126
5115.23756,0.03018
5113.30874,0.02950
5111.37992,0.02926
5109.45109,0.02858
5107.52227,0.02809
5105.59345,0.02869
5103.66463,0.02969
5101.73580,0.02998
5099.80698,0.02988
5097.87816,0.03033
5095.94934,0.03085
5094.02051,0.03034
5092.09169,0.02935
5090.16287,0.02930
5088.23404,0.03010
5086.30522,0.03021
5084.37640,0.02985
5082.44758,0.03037
5080.51875,0.03118
5078.58993,0.03138
5076.66111,0.03135
5074.73229,0.03096
5072.80346,0.02996
5070.87464,0.02922
5068.94582,0.02928
5067.01700,0.02948
5065.08817,0.02938
5063.15935,0.02926
5061.23053,0.02916
5059.30171,0.02934
5057.37288,0.03012
5055.44406,0.03098
5053.51524,0.03121
5051.58642,0.03059
5049.65759,0.02968
5047.72877,0.02929
5045.79995,0.02934
5043.87112,0.02923
5041.94230,0.02923
5040.01348,0.03011
5038.08466,0.03108
5036.15583,0.03098
5034.22701,0.03058
5032.29819,0.03042
5030.36937,0.02999
5028.44054,0.02962
5026.51172,0.02982
5024.58290,0.03008
5022.65408,0.03014
5020.72525,0.03064
5018.79643,0.03135
5016.86761,0.03118
5014.93879,0.03039
5013.00996,0.02992
5011.08114,0.02953
5009.15232,0.02893
5007.22350,0.02876
5005.29467,0.02930
5003.36585,0.02972
5001.43703,0.02941
4999.50820,0.02921
4997.57938,0.02990
4995.65056,0.03075
4993.72174,0.03064
4991.79291,0.03011
4989.86409,0.03021
4987.93527,0.03048
4986.00645,0.03039
4984.07762,0.03019
4982.14880,0.03006
4980.21998,0.03002
4978.29116,0.02997
4976.36233,0.03001
4974.43351,0.03051
4972.50469,0.03097
4970.57587,0.03066
4968.64704,0.02969
4966.71822,0.02876
4964.78940,0.02884
4962.86058,0.02998
4960.93175,0.03076
4959.00293,0.03027
4957.07411,0.02944
4955.14528,0.02943
4953.21646,0.03004
4951.28764,0.03034
4949.35882,0.02997
4947.42999,0.02930
4945.50117,0.02885
4943.57235,0.02880
4941.64353,0.02916
4939.71470,0.02966
4937.78588,0.02987
4935.85706,0.02985
4933.92824,0.02993
4931.99941,0.03011
4930.07059,0.03046
4928.14177,0.03085
4926.21295,0.03062
4924.28412,0.02996
4922.35530,0.02985
4920.42648,0.03027
4918.49766,0.03060
4916.56883,0.03052
4914.64001,0.03016
4912.71119,0.03002
4910.78236,0.03019
4908.85354,0.03028
4906.92472,0.03020
4904.99590,0.03025
4903.06707,0.03037
4901.13825,0.03020
4899.20943,0.03002
4897.28061,0.03015
4895.35178,0.03033
4893.42296,0.03015
4891.49414,0.02976
4889.56532,0.02976
4887.63649,0.03002
4885.70767,0.03009
4883.77885,0.03003
4881.85003,0.02989
4879.92120,0.02991
4877.99238,0.03016
4876.06356,0.03009
4874.13474,0.02965
4872.20591,0.02949
4870.27709,0.02981
4868.34827,0.02997
4866.41944,0.02955
4864.49062,0.02926
4862.56180,0.02964
4860.63298,0.03010
4858.70415,0.03014
4856.77533,0.03013
4854.84651,0.03028
4852.91769,0.03047
4850.98886,0.03050
4849.06004,0.03029
4847.13122,0.03012
4845.20240,0.02996
4843.27357,0.02983
4841.34475,0.03045
4839.41593,0.03132
4837.48711,0.03115
4835.55828,0.03018
4833.62946,0.02940
4831.70064,0.02930
4829.77182,0.02985
4827.84299,0.03023
4825.91417,0.03041
4823.98535,0.03088
4822.05652,0.03072
4820.12770,0.02974
4818.19888,0.02963
4816.27006,0.03034
4814.34123,0.03000
4812.41241,0.02879
4810.48359,0.02818
4808.55477,0.02844
4806.62594,0.02920
4804.69712,0.02990
4802.76830,0.03011
4800.83948,0.03004
4798.91065,0.02981
4796.98183,0.02947
4795.05301,0.02930
4793.12419,0.02946
4791.19536,0.02971
4789.26654,0.02982
4787.33772,0.02975
4785.40890,0.02935
4783.48007,0.02889
4781.55125,0.02895
4779.62243,0.02943
4777.69360,0.02978
4775.76478,0.02974
4773.83596,0.02949
4771.90714,0.02949
4769.97831,0.02992
4768.04949,0.03029
4766.12067,0.03045
4764.19185,0.03056
4762.26302,0.03040
4760.33420,0.03018
4758.40538,0.03019
4756.47656,0.02993
4754.54773,0.02936
4752.61891,0.02934
4750.69009,0.03005
4748.76127,0.03092
4746.83244,0.03145
4744.90362,0.03121
4742.97480,0.03041
4741.04598,0.03008
4739.11715,0.03016
4737.18833,0.02972
4735.25951,0.02908
4733.33068,0.02879
4731.40186,0.02875
4729.47304,0.02906
4727.54422,0.02946
4725.61539,0.02963
4723.68657,0.02963
4721.75775,0.02970
4719.82893,0.03040
4717.90010,0.03122
4715.97128,0.03101
4714.04246,0.03005
4712.11364,0.02914
4710.18481,0.02866
4708.25599,0.02879
4706.32717,0.02917
4704.39835,0.02946
4702.46952,0.02959
4700.54070,0.02976
4698.61188,0.03040
4696.68306,0.03095
4694.75423,0.03059
4692.82541,0.02996
4690.89659,0.02984
4688.96776,0.02977
4687.03894,0.02923
4685.11012,0.02893
4683.18130,0.02953
4681.25247,0.03045
4679.32365,0.03064
4677.39483,0.02987
4675.46601,0.02925
4673.53718,0.02965
4671.60836,0.03038
4669.67954,0.03048
4667.75072,0.03010
4665.82189,0.02975
4663.89307,0.02955
4661.96425,0.02943
4660.03543,0.02926
4658.10660,0.02917
4656.17778,0.02948
4654.24896,0.02996
4652.32013,0.03014
4650.39131,0.03007
4648.46249,0.02994
4646.53367,0.02991
4644.60484,0.03021
4642.67602,0.03033
4640.74720,0.02983
4638.81838,0.02910
4636.88955,0.02862
4634.96073,0.02897
4633.03191,0.03013
4631.10309,0.03095
4629.17426,0.03083
4627.24544,0.02996
4625.31662,0.02885
4623.38780,0.02818
4621.45897,0.02834
4619.53015,0.02887
4617.60133,0.02909
4615.67251,0.02928
4613.74368,0.02987
4611.81486,0.03040
4609.88604,0.03072
4607.95721,0.03079
4606.02839,0.03020
4604.09957,0.02946
4602.17075,0.02922
4600.24192,0.02906
4598.31310,0.02885
4596.38428,0.02915
4594.45546,0.02998
4592.52663,0.03051
4590.59781,0.03011
4588.66899,0.02939
4586.74017,0.02936
4584.81134,0.02989
4582.88252,0.03019
4580.95370,0.02998
4579.02488,0.02972
4577.09605,0.02967
4575.16723,0.02954
4573.23841,0.02956
4571.30959,0.03002
4569.38076,0.03034
4567.45194,0.02990
4565.52312,0.02920
4563.59429,0.02917
4561.66547,0.02981
4559.73665,0.03013
4557.80783,0.02986
4555.87900,0.02965
4553.95018,0.02984
4552.02136,0.03034
4550.09254,0.03074
4548.16371,0.03063
4546.23489,0.03039
4544.30607,0.03018
4542.37725,0.02959
4540.44842,0.02905
4538.51960,0.02930
4536.59078,0.02997
4534.66196,0.03035
4532.73313,0.03029
4530.80431,0.02991
4528.87549,0.02955
4526.94667,0.02934
4525.01784,0.02901
4523.08902,0.02880
4521.16020,0.02930
4519.23137,0.03035
4517.30255,0.03092
4515.37373,0.03048
4513.44491,0.02987
4511.51608,0.02975
4509.58726,0.02996
4507.65844,0.03037
4505.72962,0.03074
4503.80079,0.03063
4501.87197,0.03011
4499.94315,0.02954
4498.01433,0.02933
4496.08550,0.02950
4494.15668,0.02960
4492.22786,0.02968
4490.29904,0.03005
4488.37021,0.03023
4486.44139,0.02981
4484.51257,0.02949
4482.58375,0.02988
4480.65492,0.03030
4478.72610,0.03000
4476.79728,0.02938
4474.86845,0.02911
4472.93963,0.02928
4471.01081,0.02949
4469.08199,0.02955
4467.15316,0.02983
4465.22434,0.03028
4463.29552,0.03040
4461.36670,0.03021
4459.43787,0.03016
4457.50905,0.03023
4455.58023,0.03010
4453.65141,0.03011
4451.72258,0.03033
4449.79376,0.03018
4447.86494,0.02973
4445.93612,0.02952
4444.00729,0.02953
4442.07847,0.02949
4440.14965,0.02927
4438.22083,0.02914
4436.29200,0.02925
4434.36318,0.02931
4432.43436,0.02951
4430.50553,0.03029
4428.57671,0.03106
4426.64789,0.03098
4424.71907,0.03039
4422.79024,0.03013
4420.86142,0.03009
4418.93260,0.02986
4417.00378,0.02971
4415.07495,0.02972
4413.14613,0.02966
4411.21731,0.02973
4409.28849,0.03015
4407.35966,0.03068
4405.43084,0.03105
4403.50202,0.03100
4401.57320,0.03056
4399.64437,0.03004
4397.71555,0.02972
4395.78673,0.02974
4393.85791,0.02990
4391.92908,0.02987
4390.00026,0.02985
4388.07144,0.03000
4386.14261,0.03000
4384.21379,0.02974
4382.28497,0.02975
4380.35615,0.03004
4378.42732,0.02998
4376.49850,0.02943
4374.56968,0.02926
4372.64086,0.02989
4370.71203,0.03053
4368.78321,0.03051
4366.85439,0.03033
4364.92557,0.03035
4362.99674,0.03034
4361.06792,0.03020
4359.13910,0.03010
4357.21028,0.03007
4355.28145,0.02999
4353.35263,0.02974
4351.42381,0.02935
4349.49499,0.02915
4347.56616,0.02932
4345.63734,0.02961
4343.70852,0.02967
4341.77969,0.02956
4339.85087,0.02956
4337.92205,0.02978
4335.99323,0.03018
4334.06440,0.03056
4332.13558,0.03039
4330.20676,0.02960
4328.27794,0.02881
4326.34911,0.02860
4324.42029,0.02890
4322.49147,0.02933
4320.56265,0.02952
4318.63382,0.02926
4316.70500,0.02895
4314.77618,0.02912
4312.84736,0.02942
4310.91853,0.02947
4308.98971,0.02953
4307.06089,0.02973
4305.13207,0.02985
4303.20324,0.02987
4301.27442,0.02977
4299.34560,0.02956
4297.41677,0.02939
4295.48795,0.02918
4293.55913,0.02915
4291.63031,0.02965
4289.70148,0.03019
4287.77266,0.03033
4285.84384,0.03028
4283.91502,0.03018
4281.98619,0.02997
4280.05737,0.02987
4278.12855,0.03001
4276.19973,0.03026
4274.27090,0.03054
4272.34208,0.03067
4270.41326,0.03041
4268.48444,0.03013
4266.55561,0.03009
4264.62679,0.02986
4262.69797,0.02946
4260.76915,0.02944
4258.84032,0.02959
4256.91150,0.02941
4254.98268,0.02909
4253.05385,0.02907
4251.12503,0.02939
4249.19621,0.02978
4247.26739,0.03020
4245.33856,0.03051
4243.40974,0.03041
4241.48092,0.03009
4239.55210,0.02992
4237.62327,0.02977
4235.69445,0.02970
4233.76563,0.02978
4231.83681,0.02974
4229.90798,0.02958
4227.97916,0.02958
4226.05034,0.02991
4224.12152,0.03039
4222.19269,0.03045
4220.26387,0.03014
4218.33505,0.03005
4216.40623,0.03012
4214.47740,0.02996
4212.54858,0.02969
4210.61976,0.02949
4208.69093,0.02943
4206.76211,0.02946
4204.83329,0.02937
4202.90447,0.02921
4200.97564,0.02913
4199.04682,0.02911
4197.11800,0.02922
4195.18918,0.02959
4193.26035,0.03005
4191.33153,0.03027
4189.40271,0.03000
4187.47389,0.02942
4185.54506,0.02918
4183.61624,0.02952
4181.68742,0.02989
4179.75860,0.03000
4177.82977,0.02990
4175.90095,0.02980
4173.97213,0.02993
4172.04331,0.03007
4170.11448,0.03004
4168.18566,0.02991
4166.25684,0.02969
4164.32801,0.02931
4162.39919,0.02885
4160.47037,0.02871
4158.54155,0.02904
4156.61272,0.02947
4154.68390,0.02967
4152.75508,0.02978
4150.82626,0.03002
4148.89743,0.03016
4146.96861,0.02994
4145.03979,0.02962
4143.11097,0.02954
4141.18214,0.02944
4139.25332,0.02910
4137.32450,0.02893
4135.39568,0.02915
4133.46685,0.02947
4131.53803,0.02959
4129.60921,0.02944
4127.68039,0.02934
4125.75156,0.02957
4123.82274,0.03003
4121.89392,0.03034
4119.96509,0.03040
4118.03627,0.03032
4116.10745,0.02993
4114.17863,0.02929
4112.24980,0.02918
4110.32098,0.02966
4108.39216,0.02993
4106.46334,0.02975
4104.53451,0.02943
4102.60569,0.02910
4100.67687,0.02904
4098.74805,0.02934
4096.81922,0.02965
4094.89040,0.02980
4092.96158,0.02978
4091.03276,0.02970
4089.10393,0.02983
4087.17511,0.03003
4085.24629,0.02993
4083.31747,0.02981
4081.38864,0.03000
4079.45982,0.03005
4077.53100,0.02977
4075.60217,0.02956
4073.67335,0.02935
4071.74453,0.02915
4069.81571,0.02933
4067.88688,0.02966
4065.95806,0.02982
4064.02924,0.02972
4062.10042,0.02938
4060.17159,0.02912
4058.24277,0.02925
4056.31395,0.02954
4054.38513,0.02975
4052.45630,0.02998
4050.52748,0.03013
4048.59866,0.02994
4046.66984,0.02962
4044.74101,0.02950
4042.81219,0.02979
4040.88337,0.03020
4038.95455,0.03041
4037.02572,0.03039
4035.09690,0.03013
4033.16808,0.02974
4031.23925,0.02947
4029.31043,0.02934
4027.38161,0.02930
4025.45279,0.02936
4023.52396,0.02945
4021.59514,0.02944
4019.66632,0.02939
4017.73750,0.02948
4015.80867,0.02972
4013.87985,0.02984
4011.95103,0.02972
4010.02221,0.02967
4008.09338,0.02993
4006.16456,0.03009
4004.23574,0.02984
4002.30692,0.02947
4000.37809,0.02932
3998.44927,0.02949
3996.52045,0.02978
3994.59163,0.02988
3992.66280,0.02985
3990.73398,0.02997
3988.80516,0.03027
3986.87633,0.03047
3984.94751,0.03027
3983.01869,0.02976
3981.08987,0.02941
3979.16104,0.02948
3977.23222,0.02978
3975.30340,0.03004
3973.37458,0.03025
3971.44575,0.03033
3969.51693,0.03015
3967.58811,0.02976
3965.65929,0.02945
3963.73046,0.02947
3961.80164,0.02970
3959.87282,0.02980
3957.94400,0.02982
3956.01517,0.02989
3954.08635,0.02985
3952.15753,0.02981
3950.22870,0.03002
3948.29988,0.03018
3946.37106,0.03017
3944.44224,0.03035
3942.51341,0.03057
3940.58459,0.03038
3938.65577,0.03004
3936.72695,0.02990
3934.79812,0.02989
3932.86930,0.02972
3930.94048,0.02926
3929.01166,0.02909
3927.08283,0.02965
3925.15401,0.03025
3923.22519,0.03034
3921.29637,0.03020
3919.36754,0.02991
3917.43872,0.02950
3915.50990,0.02931
3913.58108,0.02932
3911.65225,0.02937
3909.72343,0.02957
3907.79461,0.02982
3905.86578,0.02979
3903.93696,0.02951
3902.00814,0.02926
3900.07932,0.02909
3898.15049,0.02929
3896.22167,0.02992
3894.29285,0.03057
3892.36403,0.03075
3890.43520,0.03052
3888.50638,0.03039
3886.57756,0.03017
3884.64874,0.02989
3882.71991,0.03006
3880.79109,0.03021
3878.86227,0.03001
3876.93345,0.03003
3875.00462,0.03015
3873.07580,0.03006
3871.14698,0.02999
3869.21816,0.03022
3867.28933,0.03063
3865.36051,0.03083
3863.43169,0.03066
3861.50286,0.03050
3859.57404,0.03055
3857.64522,0.03071
3855.71640,0.03066
3853.78757,0.02993
3851.85875,0.02953
3849.92993,0.02969
3848.00111,0.02962
3846.07228,0.02941
3844.14346,0.02942
3842.21464,0.03003
3840.28582,0.03091
3838.35699,0.03112
3836.42817,0.03068
3834.49935,0.03036
3832.57053,0.03009
3830.64170,0.02965
3828.71288,0.02915
3826.78406,0.02891
3824.85524,0.02922
3822.92641,0.02953
3820.99759,0.02919
3819.06877,0.02915
3817.13994,0.02972
3815.21112,0.03002
3813.28230,0.02999
3811.35348,0.02998
3809.42465,0.02997
3807.49583,0.02959
3805.56701,0.02923
3803.63819,0.02951
3801.70936,0.02983
3799.78054,0.02981
3797.85172,0.02960
3795.92290,0.02927
3793.99407,0.02905
3792.06525,0.02904
3790.13643,0.02931
3788.20761,0.02976
3786.27878,0.02987
3784.34996,0.02957
3782.42114,0.02935
3780.49232,0.02923
3778.56349,0.02930
3776.63467,0.02977
3774.70585,0.03022
3772.77702,0.03043
3770.84820,0.03024
3768.91938,0.02975
3766.99056,0.02959
3765.06173,0.02962
3763.13291,0.02959
3761.20409,0.02957
3759.27527,0.02972
3757.34644,0.03019
3755.41762,0.03060
3753.48880,0.03029
3751.55998,0.02942
3749.63115,0.02993
3747.70233,0.03108
3745.77351,0.03099
3743.84469,0.03038
3741.91586,0.03050
3739.98704,0.03062
3738.05822,0.03034
3736.12940,0.02969
3734.20057,0.02940
3732.27175,0.02984
3730.34293,0.03015
3728.41410,0.03009
3726.48528,0.03002
3724.55646,0.02982
3722.62764,0.02932
3720.69881,0.02902
3718.76999,0.02920
3716.84117,0.02955
3714.91235,0.02975
3712.98352,0.02941
3711.05470,0.02862
3709.12588,0.02845
3707.19706,0.02892
3705.26823,0.02944
3703.33941,0.02973
3701.41059,0.02963
3699.48177,0.02914
3697.55294,0.02872
3695.62412,0.02890
3693.69530,0.02952
3691.76648,0.02984
3689.83765,0.02921
3687.90883,0.02854
3685.98001,0.02866
3684.05118,0.02893
3682.12236,0.02902
3680.19354,0.02905
3678.26472,0.02897
3676.33589,0.02819
3674.40707,0.02770
3672.47825,0.02831
3670.54943,0.02877
3668.62060,0.02869
3666.69178,0.02859
3664.76296,0.02866
3662.83414,0.02887
3660.90531,0.02912
3658.97649,0.02928
3657.04767,0.02910
3655.11885,0.02869
3653.19002,0.02856
3651.26120,0.02844
3649.33238,0.02764
3647.40356,0.02711
3645.47473,0.02763
3643.54591,0.02819
3641.61709,0.02828
3639.68826,0.02814
3637.75944,0.02807
3635.83062,0.02796
3633.90180,0.02793
3631.97297,0.02797
3630.04415,0.02737
3628.11533,0.02660
3626.18651,0.02718
3624.25768,0.02808
3622.32886,0.02871
3620.40004,0.02890
3618.47122,0.02870
3616.54239,0.02865
3614.61357,0.02836
3612.68475,0.02776
3610.75593,0.02754
3608.82710,0.02740
3606.89828,0.02710
3604.96946,0.02704
3603.04064,0.02709
3601.11181,0.02700
3599.18299,0.02690
3597.25417,0.02672
3595.32534,0.02652
3593.39652,0.02682
3591.46770,0.02743
3589.53888,0.02765
3587.61005,0.02725
3585.68123,0.02693
3583.75241,0.02709
3581.82359,0.02734
3579.89476,0.02735
3577.96594,0.02707
3576.03712,0.02689
3574.10830,0.02710
3572.17947,0.02741
3570.25065,0.02752
3568.32183,0.02744
3566.39301,0.02741
3564.46418,0.02737
3562.53536,0.02702
3560.60654,0.02656
3558.67772,0.02645
3556.74889,0.02672
3554.82007,0.02708
3552.89125,0.02737
3550.96242,0.02757
3549.03360,0.02735
3547.10478,0.02633
3545.17596,0.02522
3543.24713,0.02514
3541.31831,0.02571
3539.38949,0.02646
3537.46067,0.02719
3535.53184,0.02738
3533.60302,0.02699
3531.67420,0.02653
3529.74538,0.02607
3527.81655,0.02571
3525.88773,0.02597
3523.95891,0.02662
3522.03009,0.02695
3520.10126,0.02693
3518.17244,0.02662
3516.24362,0.02617
3514.31480,0.02607
3512.38597,0.02635
3510.45715,0.02641
3508.52833,0.02628
3506.59950,0.02666
3504.67068,0.02725
3502.74186,0.02720
3500.81304,0.02665
3498.88421,0.02622
3496.95539,0.02601
3495.02657,0.02602
3493.09775,0.02625
3491.16892,0.02669
3489.24010,0.02723
3487.31128,0.02751
3485.38246,0.02709
3483.45363,0.02634
3481.52481,0.02602
3479.59599,0.02612
3477.66717,0.02618
3475.73834,0.02630
3473.80952,0.02682
3471.88070,0.02732
3469.95188,0.02722
3468.02305,0.02677
3466.09423,0.02638
3464.16541,0.02617
3462.23658,0.02613
3460.30776,0.02612
3458.37894,0.02622
3456.45012,0.02646
3454.52129,0.02649
3452.59247,0.02634
3450.66365,0.02626
3448.73483,0.02614
3446.80600,0.02593
3444.87718,0.02572
3442.94836,0.02576
3441.01954,0.02620
3439.09071,0.02637
3437.16189,0.02590
3435.23307,0.02569
3433.30425,0.02639
3431.37542,0.02706
3429.44660,0.02671
3427.51778,0.02605
3425.58896,0.02589
3423.66013,0.02594
3421.73131,0.02597
3419.80249,0.02598
3417.87366,0.02571
3415.94484,0.02519
3414.01602,0.02487
3412.08720,0.02496
3410.15837,0.02519
3408.22955,0.02536
3406.30073,0.02544
3404.37191,0.02535
3402.44308,0.02519
3400.51426,0.02512
3398.58544,0.02516
3396.65662,0.02511
3394.72779,0.02496
3392.79897,0.02517
3390.87015,0.02570
3388.94133,0.02594
3387.01250,0.02560
3385.08368,0.02516
3383.15486,0.02520
3381.22604,0.02550
3379.29721,0.02551
3377.36839,0.02528
3375.43957,0.02527
3373.51074,0.02570
3371.58192,0.02618
3369.65310,0.02631
3367.72428,0.02597
3365.79545,0.02537
3363.86663,0.02507
3361.93781,0.02534
3360.00899,0.02563
3358.08016,0.02550
3356.15134,0.02523
3354.22252,0.02518
3352.29370,0.02535
3350.36487,0.02551
3348.43605,0.02541
3346.50723,0.02527
3344.57841,0.02531
3342.64958,0.02531
3340.72076,0.02531
3338.79194,0.02533
3336.86312,0.02524
3334.93429,0.02524
3333.00547,0.02558
3331.07665,0.02600
3329.14782,0.02622
3327.21900,0.02623
3325.29018,0.02601
3323.36136,0.02560
3321.43253,0.02529
3319.50371,0.02528
3317.57489,0.02545
3315.64607,0.02549
3313.71724,0.02527
3311.78842,0.02500
3309.85960,0.02512
3307.93078,0.02568
3306.00195,0.02625
3304.07313,0.02647
3302.14431,0.02643
3300.21549,0.02632
3298.28666,0.02616
3296.35784,0.02602
3294.42902,0.02609
3292.50020,0.02613
3290.57137,0.02590
3288.64255,0.02569
3286.71373,0.02579
3284.78490,0.02592
3282.85608,0.02573
3280.92726,0.02542
3278.99844,0.02531
3277.06961,0.02540
3275.14079,0.02552
3273.21197,0.02563
3271.28315,0.02570
3269.35432,0.02568
3267.42550,0.02571
3265.49668,0.02580
3263.56786,0.02567
3261.63903,0.02544
3259.71021,0.02545
3257.78139,0.02572
3255.85257,0.02600
3253.92374,0.02621
3251.99492,0.02644
3250.06610,0.02665
3248.13728,0.02674
3246.20845,0.02678
3244.27963,0.02680
3242.35081,0.02676
3240.42198,0.02653
3238.49316,0.02624
3236.56434,0.02625
3234.63552,0.02636
3232.70669,0.02611
3230.77787,0.02588
3228.84905,0.02602
3226.92023,0.02628
3224.99140,0.02653
3223.06258,0.02698
3221.13376,0.02743
3219.20494,0.02741
3217.27611,0.02682
3215.34729,0.02615
3213.41847,0.02606
3211.48965,0.02640
3209.56082,0.02649
3207.63200,0.02641
3205.70318,0.02633
3203.77435,0.02627
3201.84553,0.02644
3199.91671,0.02657
3197.98789,0.02641
3196.05906,0.02634
3194.13024,0.02645
3192.20142,0.02648
3190.27260,0.02637
3188.34377,0.02636
3186.41495,0.02666
3184.48613,0.02711
3182.55731,0.02721
3180.62848,0.02682
3178.69966,0.02644
3176.77084,0.02647
3174.84202,0.02655
3172.91319,0.02619
3170.98437,0.02577
3169.05555,0.02595
3167.12673,0.02652
3165.19790,0.02670
3163.26908,0.02633
3161.34026,0.02592
3159.41143,0.02592
3157.48261,0.02606
3155.55379,0.02594
3153.62497,0.02577
3151.69614,0.02568
3149.76732,0.02579
3147.83850,0.02616
3145.90968,0.02652
3143.98085,0.02684
3142.05203,0.02701
3140.12321,0.02667
3138.19439,0.02615
3136.26556,0.02614
3134.33674,0.02672
3132.40792,0.02718
3130.47910,0.02691
3128.55027,0.02646
3126.62145,0.02638
3124.69263,0.02638
3122.76381,0.02650
3120.83498,0.02692
3118.90616,0.02708
3116.97734,0.02675
3115.04851,0.02643
3113.11969,0.02634
3111.19087,0.02636
3109.26205,0.02645
3107.33322,0.02651
3105.40440,0.02652
3103.47558,0.02660
3101.54676,0.02677
3099.61793,0.02696
3097.68911,0.02687
3095.76029,0.02643
3093.83147,0.02595
3091.90264,0.02557
3089.97382,0.02538
3088.04500,0.02550
3086.11618,0.02581
3084.18735,0.02605
3082.25853,0.02613
3080.32971,0.02603
3078.40089,0.02601
3076.47206,0.02631
3074.54324,0.02669
3072.61442,0.02685
3070.68559,0.02681
3068.75677,0.02680
3066.82795,0.02693
3064.89913,0.02700
3062.97030,0.02680
3061.04148,0.02654
3059.11266,0.02642
3057.18384,0.02631
3055.25501,0.02622
3053.32619,0.02642
3051.39737,0.02682
3049.46855,0.02697
3047.53972,0.02677
3045.61090,0.02656
3043.68208,0.02646
3041.75326,0.02637
3039.82443,0.02636
3037.89561,0.02647
3035.96679,0.02653
3034.03797,0.02643
3032.10914,0.02620
3030.18032,0.02621
3028.25150,0.02656
3026.32267,0.02671
3024.39385,0.02640
3022.46503,0.02608
3020.53621,0.02615
3018.60738,0.02635
3016.67856,0.02627
3014.74974,0.02611
3012.82092,0.02634
3010.89209,0.02674
3008.96327,0.02669
3007.03445,0.02607
3005.10563,0.02562
3003.17680,0.02596
3001.24798,0.02657
2999.31916,0.02675
2997.39034,0.02652
2995.46151,0.02613
2993.53269,0.02580
2991.60387,0.02576
2989.67505,0.02593
2987.74622,0.02598
2985.81740,0.02591
2983.88858,0.02583
2981.95975,0.02567
2980.03093,0.02553
2978.10211,0.02570
2976.17329,0.02602
2974.24446,0.02605
2972.31564,0.02573
2970.38682,0.02529
2968.45800,0.02483
2966.52917,0.02457
2964.60035,0.02482
2962.67153,0.02521
2960.74271,0.02524
2958.81388,0.02523
2956.88506,0.02546
2954.95624,0.02557
2953.02742,0.02549
2951.09859,0.02534
2949.16977,0.02512
2947.24095,0.02500
2945.31213,0.02499
2943.38330,0.02496
2941.45448,0.02495
2939.52566,0.02503
2937.59683,0.02505
2935.66801,0.02501
2933.73919,0.02507
2931.81037,0.02531
2929.88154,0.02555
2927.95272,0.02548
2926.02390,0.02532
2924.09508,0.02546
2922.16625,0.02573
2920.23743,0.02585
2918.30861,0.02595
2916.37979,0.02616
2914.45096,0.02624
2912.52214,0.02596
2910.59332,0.02567
2908.66450,0.02571
2906.73567,0.02594
2904.80685,0.02606
2902.87803,0.02610
2900.94921,0.02632
2899.02038,0.02665
2897.09156,0.02680
2895.16274,0.02663
2893.23391,0.02624
2891.30509,0.02602
2889.37627,0.02607
2887.44745,0.02605
2885.51862,0.02595
2883.58980,0.02601
2881.66098,0.02607
2879.73216,0.02611
2877.80333,0.02621
2875.87451,0.02619
2873.94569,0.02604
2872.01687,0.02599
2870.08804,0.02601
2868.15922,0.02596
2866.23040,0.02578
2864.30158,0.02550
2862.37275,0.02529
2860.44393,0.02543
2858.51511,0.02582
2856.58629,0.02612
2854.65746,0.02617
2852.72864,0.02627
2850.79982,0.02669
2848.87099,0.02705
2846.94217,0.02698
2845.01335,0.02670
2843.08453,0.02655
2841.15570,0.02659
2839.22688,0.02664
2837.29806,0.02661
2835.36924,0.02658
2833.44041,0.02655
2831.51159,0.02663
2829.58277,0.02678
2827.65395,0.02675
2825.72512,0.02657
2823.79630,0.02643
2821.86748,0.02633
2819.93866,0.02631
2818.00983,0.02651
2816.08101,0.02689
2814.15219,0.02721
2812.22337,0.02724
2810.29454,0.02703
2808.36572,0.02675
2806.43690,0.02664
2804.50807,0.02674
2802.57925,0.02671
2800.65043,0.02638
2798.72161,0.02620
2796.79278,0.02637
2794.86396,0.02672
2792.93514,0.02702
2791.00632,0.02707
2789.07749,0.02700
2787.14867,0.02704
2785.21985,0.02713
2783.29103,0.02710
2781.36220,0.02691
2779.43338,0.02668
2777.50456,0.02668
2775.57574,0.02682
2773.64691,0.02681
2771.71809,0.02677
2769.78927,0.02686
2767.86045,0.02692
2765.93162,0.02699
2764.00280,0.02713
2762.07398,0.02722
2760.14515,0.02715
2758.21633,0.02689
2756.28751,0.02665
2754.35869,0.02668
2752.42986,0.02690
2750.50104,0.02709
2748.57222,0.02708
2746.64340,0.02683
2744.71457,0.02652
2742.78575,0.02637
2740.85693,0.02630
2738.92811,0.02627
2736.99928,0.02636
2735.07046,0.02663
2733.14164,0.02698
2731.21282,0.02716
2729.28399,0.02715
2727.35517,0.02712
2725.42635,0.02701
2723.49753,0.02686
2721.56870,0.02692
2719.63988,0.02706
2717.71106,0.02702
2715.78223,0.02701
2713.85341,0.02708
2711.92459,0.02698
2709.99577,0.02676
2708.06694,0.02670
2706.13812,0.02672
2704.20930,0.02674
2702.28048,0.02686
2700.35165,0.02697
2698.42283,0.02688
2696.49401,0.02675
2694.56519,0.02674
2692.63636,0.02677
2690.70754,0.02675
2688.77872,0.02670
2686.84990,0.02675
2684.92107,0.02701
2682.99225,0.02715
2681.06343,0.02695
2679.13461,0.02671
2677.20578,0.02665
2675.27696,0.02664
2673.34814,0.02653
2671.41931,0.02639
2669.49049,0.02638
2667.56167,0.02655
2665.63285,0.02668
2663.70402,0.02659
2661.77520,0.02657
2659.84638,0.02677
2657.91756,0.02689
2655.98873,0.02677
2654.05991,0.02666
2652.13109,0.02670
2650.20227,0.02678
2648.27344,0.02683
2646.34462,0.02687
2644.41580,0.02693
2642.48698,0.02694
2640.55815,0.02683
2638.62933,0.02671
2636.70051,0.02665
2634.77169,0.02659
2632.84286,0.02650
2630.91404,0.02645
2628.98522,0.02648
2627.05639,0.02661
2625.12757,0.02684
2623.19875,0.02708
2621.26993,0.02723
2619.34110,0.02725
2617.41228,0.02720
2615.48346,0.02717
2613.55464,0.02712
2611.62581,0.02697
2609.69699,0.02692
2607.76817,0.02700
2605.83935,0.02699
2603.91052,0.02685
2601.98170,0.02670
2600.05288,0.02657
2598.12406,0.02648
2596.19523,0.02657
2594.26641,0.02683
2592.33759,0.02703
2590.40877,0.02707
2588.47994,0.02702
2586.55112,0.02693
2584.62230,0.02679
2582.69347,0.02665
2580.76465,0.02652
2578.83583,0.02647
2576.90701,0.02662
2574.97818,0.02685
2573.04936,0.02691
2571.12054,0.02685
2569.19172,0.02679
2567.26289,0.02673
2565.33407,0.02677
2563.40525,0.02681
2561.47643,0.02667
2559.54760,0.02653
2557.61878,0.02657
2555.68996,0.02660
2553.76114,0.02659
2551.83231,0.02670
2549.90349,0.02683
2547.97467,0.02684
2546.04585,0.02678
2544.11702,0.02683
2542.18820,0.02703
2540.25938,0.02719
2538.33055,0.02713
2536.40173,0.02698
2534.47291,0.02690
2532.54409,0.02688
2530.61526,0.02679
2528.68644,0.02665
2526.75762,0.02661
2524.82880,0.02669
2522.89997,0.02670
2520.97115,0.02657
2519.04233,0.02645
2517.11351,0.02636
2515.18468,0.02629
2513.25586,0.02642
2511.32704,0.02678
2509.39822,0.02704
2507.46939,0.02699
2505.54057,0.02671
2503.61175,0.02641
2501.68292,0.02638
2499.75410,0.02660
2497.82528,0.02665
2495.89646,0.02644
2493.96763,0.02628
2492.03881,0.02628
2490.10999,0.02629
2488.18117,0.02631
2486.25234,0.02635
2484.32352,0.02634
2482.39470,0.02633
2480.46588,0.02651
2478.53705,0.02682
2476.60823,0.02697
2474.67941,0.02688
2472.75059,0.02676
2470.82176,0.02675
2468.89294,0.02682
2466.96412,0.02680
2465.03530,0.02662
2463.10647,0.02638
2461.17765,0.02628
2459.24883,0.02641
2457.32000,0.02654
2455.39118,0.02654
2453.46236,0.02643
2451.53354,0.02624
2449.60471,0.02612
2447.67589,0.02631
2445.74707,0.02675
2443.81825,0.02696
2441.88942,0.02680
2439.96060,0.02662
2438.03178,0.02657
2436.10296,0.02656
2434.17413,0.02661
2432.24531,0.02662
2430.31649,0.02644
2428.38767,0.02620
2426.45884,0.02615
2424.53002,0.02626
2422.60120,0.02628
2420.67238,0.02629
2418.74355,0.02641
2416.81473,0.02645
2414.88591,0.02641
2412.95708,0.02643
2411.02826,0.02645
2409.09944,0.02640
2407.17062,0.02628
2405.24179,0.02619
2403.31297,0.02619
2401.38415,0.02620
2399.45533,0.02629
2397.52650,0.02647
2395.59768,0.02651
2393.66886,0.02637
2391.74004,0.02621
2389.81121,0.02611
2387.88239,0.02618
2385.95357,0.02643
2384.02475,0.02654
2382.09592,0.02634
2380.16710,0.02615
2378.23828,0.02618
2376.30946,0.02625
2374.38063,0.02641
2372.45181,0.02682
2370.52299,0.02729
2368.59416,0.02746
2366.66534,0.02730
2364.73652,0.02725
2362.80770,0.02745
2360.87887,0.02765
2358.95005,0.02767
2357.02123,0.02749
2355.09241,0.02734
2353.16358,0.02725
2351.23476,0.02701
2349.30594,0.02680
2347.37712,0.02683
2345.44829,0.02700
2343.51947,0.02700
2341.59065,0.02683
2339.66183,0.02689
2337.73300,0.02711
2335.80418,0.02705
2333.87536,0.02676
2331.94654,0.02666
2330.01771,0.02686
2328.08889,0.02706
2326.16007,0.02708
2324.23124,0.02707
2322.30242,0.02711
2320.37360,0.02701
2318.44478,0.02683
2316.51595,0.02668
2314.58713,0.02668
2312.65831,0.02687
2310.72949,0.02692
2308.80066,0.02666
2306.87184,0.02645
2304.94302,0.02640
2303.01420,0.02632
2301.08537,0.02621
2299.15655,0.02607
2297.22773,0.02591
2295.29891,0.02584
2293.37008,0.02592
2291.44126,0.02612
2289.51244,0.02623
2287.58362,0.02614
2285.65479,0.02608
2283.72597,0.02620
2281.79715,0.02628
2279.86832,0.02620
2277.93950,0.02615
2276.01068,0.02621
2274.08186,0.02625
2272.15303,0.02620
2270.22421,0.02610
2268.29539,0.02607
2266.36657,0.02622
2264.43774,0.02626
2262.50892,0.02611
2260.58010,0.02605
2258.65128,0.02615
2256.72245,0.02622
2254.79363,0.02621
2252.86481,0.02612
2250.93599,0.02600
2249.00716,0.02599
2247.07834,0.02610
2245.14952,0.02618
2243.22070,0.02619
2241.29187,0.02617
2239.36305,0.02606
2237.43423,0.02597
2235.50540,0.02596
2233.57658,0.02600
2231.64776,0.02607
2229.71894,0.02614
2227.79011,0.02612
2225.86129,0.02603
2223.93247,0.02600
2222.00365,0.02600
2220.07482,0.02596
2218.14600,0.02594
2216.21718,0.02601
2214.28836,0.02600
2212.35953,0.02580
2210.43071,0.02558
2208.50189,0.02552
2206.57307,0.02564
2204.64424,0.02583
2202.71542,0.02593
2200.78660,0.02591
2198.85778,0.02585
2196.92895,0.02578
2195.00013,0.02571
2193.07131,0.02566
2191.14248,0.02562
2189.21366,0.02561
2187.28484,0.02560
2185.35602,0.02567
2183.42719,0.02585
2181.49837,0.02598
2179.56955,0.02591
2177.64073,0.02585
2175.71190,0.02591
2173.78308,0.02592
2171.85426,0.02584
2169.92544,0.02580
2167.99661,0.02587
2166.06779,0.02592
2164.13897,0.02584
2162.21015,0.02582
2160.28132,0.02592
2158.35250,0.02591
2156.42368,0.02578
2154.49486,0.02573
2152.56603,0.02570
2150.63721,0.02560
2148.70839,0.02559
2146.77956,0.02569
2144.85074,0.02579
2142.92192,0.02582
2140.99310,0.02583
2139.06427,0.02583
2137.13545,0.02591
2135.20663,0.02608
2133.27781,0.02614
2131.34898,0.02604
2129.42016,0.02589
2127.49134,0.02583
2125.56252,0.02585
2123.63369,0.02580
2121.70487,0.02575
2119.77605,0.02580
2117.84723,0.02587
2115.91840,0.02591
2113.98958,0.02591
2112.06076,0.02582
2110.13194,0.02570
2108.20311,0.02566
2106.27429,0.02573
2104.34547,0.02578
2102.41664,0.02569
2100.48782,0.02552
2098.55900,0.02543
2096.63018,0.02542
2094.70135,0.02540
2092.77253,0.02540
2090.84371,0.02541
2088.91489,0.02538
2086.98606,0.02538
2085.05724,0.02553
2083.12842,0.02569
2081.19960,0.02561
2079.27077,0.02539
2077.34195,0.02532
2075.41313,0.02529
2073.48431,0.02518
2071.55548,0.02517
2069.62666,0.02527
2067.69784,0.02538
2065.76902,0.02548
2063.84019,0.02552
2061.91137,0.02546
2059.98255,0.02540
2058.05372,0.02541
2056.12490,0.02559
2054.19608,0.02575
2052.26726,0.02565
2050.33843,0.02540
2048.40961,0.02523
2046.48079,0.02526
2044.55197,0.02540
2042.62314,0.02551
2040.69432,0.02559
2038.76550,0.02561
2036.83668,0.02548
2034.90785,0.02528
2032.97903,0.02524
2031.05021,0.02536
2029.12139,0.02545
2027.19256,0.02544
2025.26374,0.02534
2023.33492,0.02520
2021.40610,0.02528
2019.47727,0.02560
2017.54845,0.02586
2015.61963,0.02590
2013.69080,0.02577
2011.76198,0.02553
2009.83316,0.02533
2007.90434,0.02532
2005.97551,0.02542
2004.04669,0.02545
2002.11787,0.02539
2000.18905,0.02533
1998.26022,0.02535
1996.33140,0.02554
1994.40258,0.02575
1992.47376,0.02567
1990.54493,0.02545
1988.61611,0.02541
1986.68729,0.02548
1984.75847,0.02544
1982.82964,0.02532
1980.90082,0.02531
1978.97200,0.02540
1977.04318,0.02552
1975.11435,0.02556
1973.18553,0.02553
1971.25671,0.02549
1969.32788,0.02537
1967.39906,0.02520
1965.47024,0.02522
1963.54142,0.02539
1961.61259,0.02534
1959.68377,0.02517
1957.75495,0.02518
1955.82613,0.02530
1953.89730,0.02541
1951.96848,0.02548
1950.03966,0.02541
1948.11084,0.02528
1946.18201,0.02537
1944.25319,0.02552
1942.32437,0.02535
1940.39555,0.02513
1938.46672,0.02512
1936.53790,0.02515
1934.60908,0.02511
1932.68026,0.02494
1930.75143,0.02473
1928.82261,0.02471
1926.89379,0.02484
1924.96496,0.02500
1923.03614,0.02520
1921.10732,0.02541
1919.17850,0.02552
1917.24967,0.02549
1915.32085,0.02537
1913.39203,0.02519
1911.46321,0.02498
1909.53438,0.02479
1907.60556,0.02475
1905.67674,0.02489
1903.74792,0.02496
1901.81909,0.02483
1899.89027,0.02468
1897.96145,0.02466
1896.03263,0.02476
1894.10380,0.02494
1892.17498,0.02518
1890.24616,0.02527
1888.31734,0.02502
1886.38851,0.02475
1884.45969,0.02472
1882.53087,0.02474
1880.60204,0.02467
1878.67322,0.02464
1876.74440,0.02475
1874.81558,0.02496
1872.88675,0.02506
1870.95793,0.02493
1869.02911,0.02460
1867.10029,0.02436
1865.17146,0.02447
1863.24264,0.02471
1861.31382,0.02482
1859.38500,0.02480
1857.45617,0.02470
1855.52735,0.02448
1853.59853,0.02432
1851.66971,0.02434
1849.74088,0.02444
1847.81206,0.02452
1845.88324,0.02466
1843.95442,0.02482
1842.02559,0.02472
1840.09677,0.02447
1838.16795,0.02433
1836.23912,0.02432
1834.31030,0.02436
1832.38148,0.02446
1830.45266,0.02454
1828.52383,0.02455
1826.59501,0.02449
1824.66619,0.02435
1822.73737,0.02426
1820.80854,0.02435
1818.87972,0.02451
1816.95090,0.02456
1815.02208,0.02438
1813.09325,0.02416
1811.16443,0.02405
1809.23561,0.02408
1807.30679,0.02408
1805.37796,0.02388
1803.44914,0.02366
1801.52032,0.02365
1799.59150,0.02377
1797.66267,0.02388
1795.73385,0.02408
1793.80503,0.02425
1791.87620,0.02400
1789.94738,0.02361
1788.01856,0.02335
1786.08974,0.02306
1784.16091,0.02283
1782.23209,0.02284
1780.30327,0.02296
1778.37445,0.02292
1776.44562,0.02280
1774.51680,0.02276
1772.58798,0.02270
1770.65916,0.02249
1768.73033,0.02228
1766.80151,0.02219
1764.87269,0.02224
1762.94387,0.02232
1761.01504,0.02222
1759.08622,0.02188
1757.15740,0.02151
1755.22857,0.02133
1753.29975,0.02131
1751.37093,0.02129
1749.44211,0.02132
1747.51328,0.02136
1745.58446,0.02153
1743.65564,0.02192
1741.72682,0.02225
1739.79799,0.02235
1737.86917,0.02242
1735.94035,0.02254
1734.01153,0.02285
1732.08270,0.02335
1730.15388,0.02361
1728.22506,0.02369
1726.29624,0.02384
1724.36741,0.02396
1722.43859,0.02406
1720.50977,0.02433
1718.58095,0.02465
1716.65212,0.02447
1714.72330,0.02412
1712.79448,0.02406
1710.86565,0.02412
1708.93683,0.02407
1707.00801,0.02388
1705.07919,0.02377
1703.15036,0.02385
1701.22154,0.02369
1699.29272,0.02303
1697.36390,0.02245
1695.43507,0.02217
1693.50625,0.02232
1691.57743,0.02265
1689.64861,0.02282
1687.71978,0.02285
1685.79096,0.02295
1683.86214,0.02269
1681.93332,0.02211
1680.00449,0.02180
1678.07567,0.02167
1676.14685,0.02165
1674.21803,0.02172
1672.28920,0.02179
1670.36038,0.02161
1668.43156,0.02133
1666.50273,0.02148
1664.57391,0.02176
1662.64509,0.02170
1660.71627,0.02153
1658.78744,0.02162
1656.85862,0.02170
1654.92980,0.02144
1653.00098,0.02121
1651.07215,0.02169
1649.14333,0.02220
1647.21451,0.02220
1645.28569,0.02164
1643.35686,0.02146
1641.42804,0.02160
1639.49922,0.02182
1637.57040,0.02197
1635.64157,0.02181
1633.71275,0.02168
1631.78393,0.02189
1629.85511,0.02219
1627.92628,0.02232
1625.99746,0.02227
1624.06864,0.02219
1622.13981,0.02218
1620.21099,0.02230
1618.28217,0.02222
1616.35335,0.02171
1614.42452,0.02153
1612.49570,0.02168
1610.56688,0.02176
1608.63806,0.02178
1606.70923,0.02187
1604.78041,0.02189
1602.85159,0.02172
1600.92277,0.02160
1598.99394,0.02176
1597.06512,0.02195
1595.13630,0.02195
1593.20748,0.02179
1591.27865,0.02157
1589.34983,0.02145
1587.42101,0.02147
1585.49219,0.02164
1583.56336,0.02193
1581.63454,0.02215
1579.70572,0.02219
1577.77689,0.02193
1575.84807,0.02142
1573.91925,0.02137
1571.99043,0.02157
1570.06160,0.02143
1568.13278,0.02100
1566.20396,0.02099
1564.27514,0.02146
1562.34631,0.02208
1560.41749,0.02255
1558.48867,0.02221
1556.55985,0.02152
1554.63102,0.02121
1552.70220,0.02116
1550.77338,0.02146
1548.84456,0.02178
1546.91573,0.02197
1544.98691,0.02235
1543.05809,0.02309
1541.12927,0.02330
1539.20044,0.02233
1537.27162,0.02191
1535.34280,0.02201
1533.41397,0.02212
1531.48515,0.02208
1529.55633,0.02211
1527.62751,0.02214
1525.69868,0.02203
1523.76986,0.02210
1521.84104,0.02250
1519.91222,0.02272
1517.98339,0.02258
1516.05457,0.02226
1514.12575,0.02207
1512.19693,0.02203
1510.26810,0.02207
1508.33928,0.02216
1506.41046,0.02198
1504.48164,0.02192
1502.55281,0.02210
1500.62399,0.02229
1498.69517,0.02238
1496.76635,0.02231
1494.83752,0.02227
1492.90870,0.02237
1490.97988,0.02236
1489.05105,0.02204
1487.12223,0.02174
1485.19341,0.02171
1483.26459,0.02185
1481.33576,0.02190
1479.40694,0.02173
1477.47812,0.02166
1475.54930,0.02196
1473.62047,0.02222
1471.69165,0.02168
1469.76283,0.02119
1467.83401,0.02122
1465.90518,0.02130
1463.97636,0.02102
1462.04754,0.02079
1460.11872,0.02091
1458.18989,0.02131
1456.26107,0.02162
1454.33225,0.02157
1452.40343,0.02140
1450.47460,0.02134
1448.54578,0.02149
1446.61696,0.02162
1444.68813,0.02166
1442.75931,0.02164
1440.83049,0.02156
1438.90167,0.02156
1436.97284,0.02152
1435.04402,0.02132
1433.11520,0.02128
1431.18638,0.02133
1429.25755,0.02121
1427.32873,0.02106
1425.39991,0.02103
1423.47109,0.02101
1421.54226,0.02103
1419.61344,0.02120
1417.68462,0.02124
1415.75580,0.02109
1413.82697,0.02100
1411.89815,0.02094
1409.96933,0.02081
1408.04051,0.02070
1406.11168,0.02065
1404.18286,0.02059
1402.25404,0.02054
1400.32521,0.02056
1398.39639,0.02070
1396.46757,0.02082
1394.53875,0.02068
1392.60992,0.02044
1390.68110,0.02041
1388.75228,0.02044
1386.82346,0.02031
1384.89463,0.02021
1382.96581,0.02031
1381.03699,0.02037
1379.10817,0.02031
1377.17934,0.02030
1375.25052,0.02042
1373.32170,0.02063
1371.39288,0.02081
1369.46405,0.02082
1367.53523,0.02061
1365.60641,0.02046
1363.67759,0.02047
1361.74876,0.02052
1359.81994,0.02060
1357.89112,0.02068
1355.96229,0.02077
1354.03347,0.02086
1352.10465,0.02083
1350.17583,0.02071
1348.24700,0.02062
1346.31818,0.02049
1344.38936,0.02028
1342.46054,0.02022
1340.53171,0.02026
1338.60289,0.02015
1336.67407,0.02003
1334.74525,0.02007
1332.81642,0.02008
1330.88760,0.01994
1328.95878,0.01972
1327.02996,0.01953
1325.10113,0.01943
1323.17231,0.01943
1321.24349,0.01943
1319.31467,0.01943
1317.38584,0.01951
1315.45702,0.01958
1313.52820,0.01959
1311.59937,0.01955
1309.67055,0.01949
1307.74173,0.01947
1305.81291,0.01945
1303.88408,0.01951
1301.95526,0.01967
1300.02644,0.01973
1298.09762,0.01972
1296.16879,0.01979
1294.23997,0.01990
1292.31115,0.02008
1290.38233,0.02029
1288.45350,0.02041
1286.52468,0.02049
1284.59586,0.02063
1282.66704,0.02088
1280.73821,0.02119
1278.80939,0.02135
1276.88057,0.02130
1274.95175,0.02124
1273.02292,0.02128
1271.09410,0.02136
1269.16528,0.02152
1267.23645,0.02168
1265.30763,0.02175
1263.37881,0.02182
1261.44999,0.02191
1259.52116,0.02190
1257.59234,0.02176
1255.66352,0.02176
1253.73470,0.02202
1251.80587,0.02232
1249.87705,0.02238
1247.94823,0.02228
1246.01941,0.02216
1244.09058,0.02209
1242.16176,0.02211
1240.23294,0.02221
1238.30412,0.02233
1236.37529,0.02226
1234.44647,0.02190
1232.51765,0.02155
1230.58883,0.02149
1228.66000,0.02157
1226.73118,0.02156
1224.80236,0.02141
1222.87353,0.02125
1220.94471,0.02133
1219.01589,0.02156
1217.08707,0.02174
1215.15824,0.02177
1213.22942,0.02152
1211.30060,0.02120
1209.37178,0.02114
1207.44295,0.02126
1205.51413,0.02118
1203.58531,0.02084
1201.65649,0.02065
1199.72766,0.02077
1197.79884,0.02085
1195.87002,0.02078
1193.94120,0.02069
1192.01237,0.02062
1190.08355,0.02059
1188.15473,0.02045
1186.22591,0.02017
1184.29708,0.02001
1182.36826,0.02010
1180.43944,0.02032
1178.51061,0.02054
1176.58179,0.02056
1174.65297,0.02028
1172.72415,0.02003
1170.79532,0.02005
1168.86650,0.02002
1166.93768,0.01970
1165.00886,0.01947
1163.08003,0.01957
1161.15121,0.01978
1159.22239,0.01991
1157.29357,0.01992
1155.36474,0.01983
1153.43592,0.01974
1151.50710,0.01972
1149.57828,0.01973
1147.64945,0.01976
1145.72063,0.01985
1143.79181,0.01993
1141.86299,0.01984
1139.93416,0.01984
1138.00534,0.02010
1136.07652,0.02027
1134.14769,0.02018
1132.21887,0.02008
1130.29005,0.02024
1128.36123,0.02056
1126.43240,0.02090
1124.50358,0.02137
1122.57476,0.02181
1120.64594,0.02190
1118.71711,0.02181
1116.78829,0.02186
1114.85947,0.02209
1112.93065,0.02240
1111.00182,0.02241
1109.07300,0.02193
1107.14418,0.02149
1105.21536,0.02161
1103.28653,0.02194
1101.35771,0.02179
1099.42889,0.02121
1097.50007,0.02087
1095.57124,0.02093
1093.64242,0.02101
1091.71360,0.02103
1089.78477,0.02118
1087.85595,0.02148
1085.92713,0.02182
1083.99831,0.02204
1082.06948,0.02211
1080.14066,0.02214
1078.21184,0.02218
1076.28302,0.02242
1074.35419,0.02297
1072.42537,0.02350
1070.49655,0.02376
1068.56773,0.02400
1066.63890,0.02414
1064.71008,0.02388
1062.78126,0.02341
1060.85244,0.02302
1058.92361,0.02286
1056.99479,0.02292
1055.06597,0.02319
1053.13714,0.02353
1051.20832,0.02352
1049.27950,0.02324
1047.35068,0.02322
1045.42185,0.02332
1043.49303,0.02331
1041.56421,0.02352
1039.63539,0.02382
1037.70656,0.02368
1035.77774,0.02319
1033.84892,0.02290
1031.92010,0.02302
1029.99127,0.02315
1028.06245,0.02306
1026.13363,0.02303
1024.20481,0.02313
1022.27598,0.02309
1020.34716,0.02291
1018.41834,0.02284
1016.48952,0.02290
1014.56069,0.02320
1012.63187,0.02370
1010.70305,0.02392
1008.77422,0.02385
1006.84540,0.02384
1004.91658,0.02386
1002.98776,0.02381
1001.05893,0.02386
999.13011,0.02412
997.20129,0.02425
995.27247,0.02410
993.34364,0.02400
991.41482,0.02408
989.48600,0.02421
987.55718,0.02423
985.62835,0.02405
983.69953,0.02393
981.77071,0.02405
979.84189,0.02423
977.91306,0.02425
975.98424,0.02399
974.05542,0.02357
972.12660,0.02318
970.19777,0.02284
968.26895,0.02260
966.34013,0.02255
964.41130,0.02271
962.48248,0.02298
960.55366,0.02316
958.62484,0.02319
956.69601,0.02316
954.76719,0.02309
952.83837,0.02280
950.90955,0.02250
948.98072,0.02248
947.05190,0.02252
945.12308,0.02249
943.19426,0.02262
941.26543,0.02290
939.33661,0.02291
937.40779,0.02254
935.47897,0.02220
933.55014,0.02209
931.62132,0.02209
929.69250,0.02219
927.76368,0.02236
925.83485,0.02243
923.90603,0.02238
921.97721,0.02230
920.04838,0.02223
918.11956,0.02232
916.19074,0.02251
914.26192,0.02246
912.33309,0.02209
910.40427,0.02170
908.47545,0.02156
906.54663,0.02162
904.61780,0.02188
902.68898,0.02221
900.76016,0.02217
898.83134,0.02195
896.90251,0.02199
894.97369,0.02209
893.04487,0.02193
891.11605,0.02176
889.18722,0.02197
887.25840,0.02234
885.32958,0.02237
883.40076,0.02207
881.47193,0.02189
879.54311,0.02197
877.61429,0.02209
875.68546,0.02227
873.75664,0.02251
871.82782,0.02261
869.89900,0.02247
867.97017,0.02226
866.04135,0.02208
864.11253,0.02182
862.18371,0.02138
860.25488,0.02089
858.32606,0.02076
856.39724,0.02104
854.46842,0.02127
852.53959,0.02129
850.61077,0.02132
848.68195,0.02142
846.75313,0.02145
844.82430,0.02135
842.89548,0.02124
840.96666,0.02140
839.03784,0.02186
837.10901,0.02198
835.18019,0.02144
833.25137,0.02072
831.32254,0.02035
829.39372,0.02049
827.46490,0.02095
825.53608,0.02129
823.60725,0.02137
821.67843,0.02136
819.74961,0.02135
817.82079,0.02125
815.89196,0.02119
813.96314,0.02140
812.03432,0.02168
810.10550,0.02174
808.17667,0.02167
806.24785,0.02160
804.31903,0.02162
802.39021,0.02154
800.46138,0.02123
798.53256,0.02089
796.60374,0.02051
794.67492,0.02023
792.74609,0.02019
790.81727,0.02012
788.88845,0.02005
786.95962,0.02022
785.03080,0.02037
783.10198,0.02058
781.17316,0.02107
779.24433,0.02135
777.31551,0.02115
775.38669,0.02081
773.45787,0.02081
771.52904,0.02109
769.60022,0.02104
767.67140,0.02071
765.74258,0.02059
763.81375,0.02066
761.88493,0.02066
759.95611,0.02031
758.02729,0.01979
756.09846,0.01966
754.16964,0.01989
752.24082,0.02003
750.31200,0.01984
748.38317,0.01944
746.45435,0.01918
744.52553,0.01938
742.59670,0.01998
740.66788,0.02053
738.73906,0.02043
736.81024,0.01996
734.88141,0.01984
732.95259,0.01991
731.02377,0.01986
729.09495,0.01958
727.16612,0.01918
725.23730,0.01921
723.30848,0.01948
721.37966,0.01954
719.45083,0.01949
717.52201,0.01925
715.59319,0.01893
713.66437,0.01892
711.73554,0.01899
709.80672,0.01899
707.87790,0.01903
705.94908,0.01906
704.02025,0.01910
702.09143,0.01926
700.16261,0.01942
698.23378,0.01948
696.30496,0.01950
694.37614,0.01960
692.44732,0.01980
690.51849,0.01964
688.58967,0.01902
686.66085,0.01861
684.73203,0.01862
682.80320,0.01872
680.87438,0.01889
678.94556,0.01927
677.01674,0.01949
675.08791,0.01938
673.15909,0.01916
671.23027,0.01904
669.30145,0.01923
667.37262,0.01923
665.44380,0.01858
663.51498,0.01817
661.58616,0.01832
659.65733,0.01848
657.72851,0.01813
655.79969,0.01766
653.87086,0.01747
651.94204,0.01727
650.01322,0.01725
648.08440,0.01775
646.15557,0.01797
644.22675,0.01768
642.29793,0.01795
640.36911,0.01880
638.44028,0.01921
636.51146,0.01924
634.58264,0.01967
632.65382,0.02007
630.72499,0.01945
628.79617,0.01858
626.86735,0.01830
624.93853,0.01818
623.00970,0.01804
621.08088,0.01866
619.15206,0.02005
617.22324,0.02080
615.29441,0.02010
613.36559,0.01871
611.43677,0.01778
609.50794,0.01764
607.57912,0.01776
605.65030,0.01838
603.72148,0.01968
601.79265,0.02104
599.86383,0.02129
