7497.19974,0.03803
7495.27095,0.03532
7493.34216,0.03301
7491.41337,0.02853
7489.48459,0.02223
7487.55580,0.02094
7485.62701,0.02487
7483.69822,0.03290
7481.76943,0.04171
7479.84065,0.04291
7477.91186,0.03695
7475.98307,0.03227
7474.05428,0.03024
7472.12549,0.02863
7470.19670,0.02563
7468.26792,0.02483
7466.33913,0.03055
7464.41034,0.03862
7462.48155,0.04061
7460.55276,0.03635
7458.62398,0.03265
7456.69519,0.03281
7454.76640,0.03331
7452.83761,0.03244
7450.90882,0.03252
7448.98003,0.03666
7447.05125,0.04027
7445.12246,0.03840
7443.19367,0.03527
7441.26488,0.03779
7439.33609,0.04299
7437.40731,0.04512
7435.47852,0.04146
7433.54973,0.03753
7431.62094,0.03946
7429.69215,0.04467
7427.76336,0.04492
7425.83458,0.03934
7423.90579,0.03139
7421.97700,0.02419
7420.04821,0.02147
7418.11942,0.02476
7416.19063,0.03184
7414.26185,0.03838
7412.33306,0.03893
7410.40427,0.03664
7408.47548,0.03639
7406.54669,0.03704
7404.61791,0.03699
7402.68912,0.03662
7400.76033,0.03562
7398.83154,0.03410
7396.90275,0.03251
7394.97396,0.03009
7393.04518,0.02555
7391.11639,0.02330
7389.18760,0.02768
7387.25881,0.03169
7385.33002,0.03068
7383.40124,0.03118
7381.47245,0.03435
7379.54366,0.03425
7377.61487,0.03207
7375.68608,0.03101
7373.75729,0.03109
7371.82851,0.03405
7369.89972,0.03732
7367.97093,0.03711
7366.04214,0.03382
7364.11335,0.02844
7362.18457,0.02545
7360.25578,0.02904
7358.32699,0.03422
7356.39820,0.03951
7354.46941,0.04332
7352.54062,0.04040
7350.61184,0.03331
7348.68305,0.02891
7346.75426,0.02397
7344.82547,0.01572
7342.89668,0.01269
7340.96790,0.02117
7339.03911,0.03277
7337.11032,0.03797
7335.18153,0.03785
7333.25274,0.03890
7331.32395,0.04016
7329.39517,0.03657
7327.46638,0.02957
7325.53759,0.02588
7323.60880,0.02766
7321.68001,0.02829
7319.75122,0.02496
7317.82244,0.02525
7315.89365,0.03061
7313.96486,0.03212
7312.03607,0.02941
7310.10728,0.03208
7308.17850,0.03865
7306.24971,0.03858
7304.32092,0.03208
7302.39213,0.02790
7300.46334,0.02813
7298.53455,0.03010
7296.60577,0.03180
7294.67698,0.03080
7292.74819,0.02759
7290.81940,0.02569
7288.89061,0.02575
7286.96183,0.02654
7285.03304,0.02698
7283.10425,0.02870
7281.17546,0.03451
7279.24667,0.03852
7277.31788,0.03381
7275.38910,0.02909
7273.46031,0.03272
7271.53152,0.03918
7269.60273,0.04129
7267.67394,0.03983
7265.74516,0.03835
7263.81637,0.03485
7261.88758,0.02906
7259.95879,0.02905
7258.03000,0.03586
7256.10121,0.04254
7254.17243,0.04351
7252.24364,0.03883
7250.31485,0.03103
7248.38606,0.02523
7246.45727,0.02423
7244.52848,0.02720
7242.59970,0.03177
7240.67091,0.03519
7238.74212,0.03609
7236.81333,0.03726
7234.88454,0.04178
7232.95576,0.04660
7231.02697,0.04490
7229.09818,0.03971
7227.16939,0.03753
7225.24060,0.03625
7223.31181,0.03468
7221.38303,0.03650
7219.45424,0.03827
7217.52545,0.03611
7215.59666,0.03444
7213.66787,0.03496
7211.73909,0.03439
7209.81030,0.03526
7207.88151,0.03862
7205.95272,0.04073
7204.02393,0.04081
7202.09514,0.04058
7200.16636,0.03802
7198.23757,0.03439
7196.30878,0.03226
7194.37999,0.02875
7192.45120,0.02234
7190.52242,0.02173
7188.59363,0.02962
7186.66484,0.03505
7184.73605,0.03453
7182.80726,0.03607
7180.87847,0.04020
7178.94969,0.04022
7177.02090,0.03620
7175.09211,0.03476
7173.16332,0.03520
7171.23453,0.03314
7169.30575,0.03214
7167.37696,0.03749
7165.44817,0.04621
7163.51938,0.05054
7161.59059,0.04629
7159.66180,0.03819
7157.73302,0.03106
7155.80423,0.02497
7153.87544,0.02036
7151.94665,0.01889
7150.01786,0.02315
7148.08907,0.03179
7146.16029,0.03691
7144.23150,0.03583
7142.30271,0.03292
7140.37392,0.03150
7138.44513,0.03269
7136.51635,0.03634
7134.58756,0.03734
7132.65877,0.03227
7130.72998,0.02643
7128.80119,0.02601
7126.87240,0.02920
7124.94362,0.03181
7123.01483,0.03522
7121.08604,0.04022
7119.15725,0.03993
7117.22846,0.03589
7115.29968,0.03563
7113.37089,0.03619
7111.44210,0.03552
7109.51331,0.03786
7107.58452,0.04010
7105.65573,0.03573
7103.72695,0.03057
7101.79816,0.03387
7099.86937,0.04101
7097.94058,0.04390
7096.01179,0.04213
7094.08301,0.04048
7092.15422,0.03970
7090.22543,0.03749
7088.29664,0.03491
7086.36785,0.03363
7084.43906,0.03560
7082.51028,0.03989
7080.58149,0.03840
7078.65270,0.03172
7076.72391,0.03098
7074.79512,0.03549
7072.86634,0.03511
7070.93755,0.03174
7069.00876,0.03207
7067.07997,0.03477
7065.15118,0.03575
7063.22239,0.03448
7061.29361,0.03390
7059.36482,0.03638
7057.43603,0.03888
7055.50724,0.03759
7053.57845,0.03377
7051.64966,0.03191
7049.72088,0.03308
7047.79209,0.03490
7045.86330,0.03389
7043.93451,0.03157
7042.00572,0.03349
7040.07694,0.03873
7038.14815,0.04098
7036.21936,0.04127
7034.29057,0.04182
7032.36178,0.04068
7030.43299,0.03862
7028.50421,0.03667
7026.57542,0.03586
7024.64663,0.03944
7022.71784,0.04311
7020.78905,0.04025
7018.86027,0.03564
7016.93148,0.03547
7015.00269,0.03571
7013.07390,0.03522
7011.14511,0.03588
7009.21632,0.03547
7007.28754,0.03516
7005.35875,0.03741
7003.42996,0.03856
7001.50117,0.03723
6999.57238,0.03556
6997.64360,0.03404
6995.71481,0.03342
6993.78602,0.03465
6991.85723,0.03518
6989.92844,0.03325
6987.99965,0.03096
6986.07087,0.03183
6984.14208,0.03486
6982.21329,0.03626
6980.28450,0.03525
6978.35571,0.03371
6976.42692,0.03234
6974.49814,0.03027
6972.56935,0.02865
6970.64056,0.03039
6968.71177,0.03410
6966.78298,0.03605
6964.85420,0.03466
6962.92541,0.03261
6960.99662,0.03074
6959.06783,0.02781
6957.13904,0.02661
6955.21025,0.02899
6953.28147,0.03208
6951.35268,0.03408
6949.42389,0.03456
6947.49510,0.03356
6945.56631,0.03236
6943.63753,0.03247
6941.70874,0.03395
6939.77995,0.03509
6937.85116,0.03519
6935.92237,0.03456
6933.99358,0.03212
6932.06480,0.03076
6930.13601,0.03280
6928.20722,0.03369
6926.27843,0.03334
6924.34964,0.03471
6922.42086,0.03554
6920.49207,0.03532
6918.56328,0.03423
6916.63449,0.03195
6914.70570,0.03053
6912.77691,0.03114
6910.84813,0.03324
6908.91934,0.03512
6906.99055,0.03499
6905.06176,0.03342
6903.13297,0.03171
6901.20419,0.03094
6899.27540,0.03068
6897.34661,0.03054
6895.41782,0.03104
6893.48903,0.03191
6891.56024,0.03366
6889.63146,0.03792
6887.70267,0.03993
6885.77388,0.03646
6883.84509,0.03429
6881.91630,0.03556
6879.98751,0.03366
6878.05873,0.02943
6876.12994,0.02803
6874.20115,0.03072
6872.27236,0.03520
6870.34357,0.03662
6868.41479,0.03486
6866.48600,0.03444
6864.55721,0.03371
6862.62842,0.02862
6860.69963,0.02493
6858.77084,0.02912
6856.84206,0.03433
6854.91327,0.03452
6852.98448,0.03256
6851.05569,0.03081
6849.12690,0.03100
6847.19812,0.03507
6845.26933,0.04000
6843.34054,0.04132
6841.41175,0.03997
6839.48296,0.03771
6837.55417,0.03397
6835.62539,0.03178
6833.69660,0.03077
6831.76781,0.02845
6829.83902,0.02888
6827.91023,0.03322
6825.98145,0.03551
6824.05266,0.03332
6822.12387,0.03139
6820.19508,0.03286
6818.26629,0.03531
6816.33750,0.03705
6814.40872,0.03832
6812.47993,0.03794
6810.55114,0.03437
6808.62235,0.03033
6806.69356,0.02913
6804.76478,0.03016
6802.83599,0.03167
6800.90720,0.03186
6798.97841,0.02936
6797.04962,0.02663
6795.12083,0.02626
6793.19205,0.02742
6791.26326,0.02869
6789.33447,0.02970
6787.40568,0.03054
6785.47689,0.03355
6783.54810,0.03999
6781.61932,0.04507
6779.69053,0.04336
6777.76174,0.03763
6775.83295,0.03309
6773.90416,0.02977
6771.97538,0.02707
6770.04659,0.02674
6768.11780,0.02936
6766.18901,0.03431
6764.26022,0.03704
6762.33143,0.03519
6760.40265,0.03316
6758.47386,0.03285
6756.54507,0.03153
6754.61628,0.03002
6752.68749,0.02955
6750.75871,0.02958
6748.82992,0.03062
6746.90113,0.03145
6744.97234,0.03179
6743.04355,0.03345
6741.11476,0.03361
6739.18598,0.03074
6737.25719,0.02964
6735.32840,0.03235
6733.39961,0.03479
6731.47082,0.03501
6729.54204,0.03470
6727.61325,0.03483
6725.68446,0.03411
6723.75567,0.03452
6721.82688,0.03710
6719.89809,0.03751
6717.96931,0.03584
6716.04052,0.03611
6714.11173,0.03675
6712.18294,0.03670
6710.25415,0.03679
6708.32536,0.03489
6706.39658,0.03244
6704.46779,0.03395
6702.53900,0.03798
6700.61021,0.03998
6698.68142,0.03803
6696.75264,0.03476
6694.82385,0.03358
6692.89506,0.03412
6690.96627,0.03436
6689.03748,0.03336
6687.10869,0.03132
6685.17991,0.02924
6683.25112,0.02800
6681.32233,0.02864
6679.39354,0.03093
6677.46475,0.03264
6675.53597,0.03294
6673.60718,0.03337
6671.67839,0.03474
6669.74960,0.03653
6667.82081,0.03694
6665.89202,0.03561
6663.96324,0.03371
6662.03445,0.03190
6660.10566,0.03128
6658.17687,0.03244
6656.24808,0.03468
6654.31930,0.03600
6652.39051,0.03457
6650.46172,0.03198
6648.53293,0.02930
6646.60414,0.02851
6644.67535,0.03118
6642.74657,0.03374
6640.81778,0.03319
6638.88899,0.03174
6636.96020,0.03226
6635.03141,0.03560
6633.10263,0.03904
6631.17384,0.03979
6629.24505,0.03772
6627.31626,0.03511
6625.38747,0.03327
6623.45868,0.03157
6621.52990,0.02992
6619.60111,0.02987
6617.67232,0.03176
6615.74353,0.03304
6613.81474,0.03157
6611.88595,0.03071
6609.95717,0.03326
6608.02838,0.03565
6606.09959,0.03467
6604.17080,0.03336
6602.24201,0.03519
6600.31323,0.03674
6598.38444,0.03323
6596.45565,0.02853
6594.52686,0.02588
6592.59807,0.02577
6590.66928,0.02987
6588.74050,0.03486
6586.81171,0.03555
6584.88292,0.03458
6582.95413,0.03484
6581.02534,0.03421
6579.09656,0.03117
6577.16777,0.02782
6575.23898,0.02755
6573.31019,0.02967
6571.38140,0.03096
6569.45261,0.03367
6567.52383,0.03771
6565.59504,0.03732
6563.66625,0.03356
6561.73746,0.03328
6559.80867,0.03524
6557.87989,0.03372
6555.95110,0.03006
6554.02231,0.02912
6552.09352,0.03097
6550.16473,0.03219
6548.23594,0.03209
6546.30716,0.03235
6544.37837,0.03247
6542.44958,0.03218
6540.52079,0.03310
6538.59200,0.03503
6536.66322,0.03514
6534.73443,0.03380
6532.80564,0.03298
6530.87685,0.03266
6528.94806,0.03176
6527.01927,0.03025
6525.09049,0.03016
6523.16170,0.03307
6521.23291,0.03619
6519.30412,0.03553
6517.37533,0.03147
6515.44654,0.02891
6513.51776,0.03108
6511.58897,0.03436
6509.66018,0.03334
6507.73139,0.03004
6505.80260,0.02840
6503.87382,0.02747
6501.94503,0.02675
6500.01624,0.02850
6498.08745,0.03212
6496.15866,0.03383
6494.22987,0.03317
6492.30109,0.03242
6490.37230,0.03086
6488.44351,0.02833
6486.51472,0.02613
6484.58593,0.02541
6482.65715,0.02683
6480.72836,0.02834
6478.79957,0.02856
6476.87078,0.02846
6474.94199,0.02898
6473.01320,0.03048
6471.08442,0.03106
6469.15563,0.02926
6467.22684,0.02766
6465.29805,0.02857
6463.36926,0.03003
6461.44048,0.03085
6459.51169,0.03046
6457.58290,0.02966
6455.65411,0.03085
6453.72532,0.03336
6451.79653,0.03388
6449.86775,0.03291
6447.93896,0.03318
6446.01017,0.03376
6444.08138,0.03310
6442.15259,0.03122
6440.22380,0.02744
6438.29502,0.02497
6436.36623,0.02737
6434.43744,0.03052
6432.50865,0.03036
6430.57986,0.02996
6428.65108,0.03141
6426.72229,0.03235
6424.79350,0.03108
6422.86471,0.02983
6420.93592,0.03162
6419.00713,0.03379
6417.07835,0.03275
6415.14956,0.03081
6413.22077,0.03071
6411.29198,0.03277
6409.36319,0.03481
6407.43441,0.03481
6405.50562,0.03284
6403.57683,0.03101
6401.64804,0.03042
6399.71925,0.03011
6397.79046,0.03042
6395.86168,0.03127
6393.93289,0.03066
6392.00410,0.02980
6390.07531,0.03141
6388.14652,0.03458
6386.21774,0.03578
6384.28895,0.03409
6382.36016,0.03099
6380.43137,0.02787
6378.50258,0.02732
6376.57379,0.03054
6374.64501,0.03289
6372.71622,0.03098
6370.78743,0.02858
6368.85864,0.02893
6366.92985,0.02989
6365.00107,0.02998
6363.07228,0.03007
6361.14349,0.02975
6359.21470,0.02908
6357.28591,0.02963
6355.35712,0.03111
6353.42834,0.03181
6351.49955,0.03188
6349.57076,0.03250
6347.64197,0.03255
6345.71318,0.03203
6343.78439,0.03233
6341.85561,0.03195
6339.92682,0.03044
6337.99803,0.03027
6336.06924,0.03234
6334.14045,0.03530
6332.21167,0.03623
6330.28288,0.03379
6328.35409,0.03074
6326.42530,0.03113
6324.49651,0.03466
6322.56772,0.03767
6320.63894,0.03863
6318.71015,0.03780
6316.78136,0.03508
6314.85257,0.03147
6312.92378,0.03001
6310.99500,0.03156
6309.06621,0.03281
6307.13742,0.03257
6305.20863,0.03180
6303.27984,0.03070
6301.35105,0.03058
6299.42227,0.03135
6297.49348,0.03164
6295.56469,0.03265
6293.63590,0.03402
6291.70711,0.03354
6289.77833,0.03190
6287.84954,0.03166
6285.92075,0.03268
6283.99196,0.03289
6282.06317,0.03131
6280.13438,0.02926
6278.20560,0.02872
6276.27681,0.02993
6274.34802,0.03082
6272.41923,0.03117
6270.49044,0.03142
6268.56165,0.03201
6266.63287,0.03428
6264.70408,0.03711
6262.77529,0.03789
6260.84650,0.03658
6258.91771,0.03353
6256.98893,0.03006
6255.06014,0.02870
6253.13135,0.03036
6251.20256,0.03209
6249.27377,0.03153
6247.34498,0.03007
6245.41620,0.02999
6243.48741,0.03205
6241.55862,0.03451
6239.62983,0.03388
6237.70104,0.03068
6235.77226,0.02812
6233.84347,0.02699
6231.91468,0.02679
6229.98589,0.02740
6228.05710,0.02867
6226.12831,0.03103
6224.19953,0.03307
6222.27074,0.03203
6220.34195,0.02885
6218.41316,0.02796
6216.48437,0.03045
6214.55559,0.03274
6212.62680,0.03250
6210.69801,0.03165
6208.76922,0.03254
6206.84043,0.03414
6204.91164,0.03379
6202.98286,0.03099
6201.05407,0.02820
6199.12528,0.02823
6197.19649,0.03045
6195.26770,0.03159
6193.33892,0.02955
6191.41013,0.02709
6189.48134,0.02789
6187.55255,0.03149
6185.62376,0.03503
6183.69497,0.03536
6181.76619,0.03270
6179.83740,0.03114
6177.90861,0.03187
6175.97982,0.03303
6174.05103,0.03365
6172.12224,0.03340
6170.19346,0.03118
6168.26467,0.02847
6166.33588,0.02848
6164.40709,0.03031
6162.47830,0.03112
6160.54952,0.03133
6158.62073,0.03163
6156.69194,0.03142
6154.76315,0.03010
6152.83436,0.02877
6150.90557,0.02862
6148.97679,0.02945
6147.04800,0.03083
6145.11921,0.03266
6143.19042,0.03464
6141.26163,0.03570
6139.33285,0.03446
6137.40406,0.03246
6135.47527,0.03150
6133.54648,0.03047
6131.61769,0.02938
6129.68890,0.03024
6127.76012,0.03216
6125.83133,0.03272
6123.90254,0.03264
6121.97375,0.03332
6120.04496,0.03399
6118.11618,0.03438
6116.18739,0.03439
6114.25860,0.03267
6112.32981,0.03002
6110.40102,0.02921
6108.47223,0.02925
6106.54345,0.02806
6104.61466,0.02673
6102.68587,0.02743
6100.75708,0.02907
6098.82829,0.03007
6096.89951,0.03075
6094.97072,0.03045
6093.04193,0.02858
6091.11314,0.02702
6089.18435,0.02731
6087.25556,0.02927
6085.32678,0.03078
6083.39799,0.03002
6081.46920,0.02867
6079.54041,0.02897
6077.61162,0.02975
6075.68283,0.03021
6073.75405,0.03110
6071.82526,0.03131
6069.89647,0.03065
6067.96768,0.03013
6066.03889,0.02948
6064.11011,0.02962
6062.18132,0.03110
6060.25253,0.03195
6058.32374,0.03106
6056.39495,0.03058
6054.46616,0.03222
6052.53738,0.03297
6050.60859,0.02988
6048.67980,0.02681
6046.75101,0.02782
6044.82222,0.03008
6042.89344,0.03030
6040.96465,0.03026
6039.03586,0.03214
6037.10707,0.03485
6035.17828,0.03545
6033.24949,0.03327
6031.32071,0.03097
6029.39192,0.03046
6027.46313,0.03070
6025.53434,0.03075
6023.60555,0.03039
6021.67677,0.02942
6019.74798,0.02879
6017.81919,0.02944
6015.89040,0.03019
6013.96161,0.03033
6012.03282,0.03068
6010.10404,0.03134
6008.17525,0.03175
6006.24646,0.03181
6004.31767,0.03117
6002.38888,0.02972
6000.46009,0.02773
5998.53131,0.02635
5996.60252,0.02726
5994.67373,0.02977
5992.74494,0.03120
5990.81615,0.03156
5988.88737,0.03278
5986.95858,0.03433
5985.02979,0.03393
5983.10100,0.03159
5981.17221,0.02843
5979.24342,0.02557
5977.31464,0.02515
5975.38585,0.02758
5973.45706,0.02948
5971.52827,0.02893
5969.59948,0.02886
5967.67070,0.03035
5965.74191,0.03041
5963.81312,0.02894
5961.88433,0.02817
5959.95554,0.02843
5958.02675,0.02975
5956.09797,0.03110
5954.16918,0.02951
5952.24039,0.02622
5950.31160,0.02534
5948.38281,0.02731
5946.45403,0.02968
5944.52524,0.03059
5942.59645,0.03019
5940.66766,0.02992
5938.73887,0.03056
5936.81008,0.03175
5934.88130,0.03233
5932.95251,0.03160
5931.02372,0.02996
5929.09493,0.02894
5927.16614,0.02969
5925.23736,0.03235
5923.30857,0.03563
5921.37978,0.03655
5919.45099,0.03456
5917.52220,0.03189
5915.59341,0.03036
5913.66463,0.03058
5911.73584,0.03074
5909.80705,0.02952
5907.87826,0.02871
5905.94947,0.02919
5904.02068,0.02982
5902.09190,0.03016
5900.16311,0.03042
5898.23432,0.03104
5896.30553,0.03185
5894.37674,0.03191
5892.44796,0.03140
5890.51917,0.03116
5888.59038,0.03073
5886.66159,0.02980
5884.73280,0.02936
5882.80401,0.03055
5880.87523,0.03240
5878.94644,0.03295
5877.01765,0.03163
5875.08886,0.03012
5873.16007,0.02969
5871.23129,0.02960
5869.30250,0.02934
5867.37371,0.02920
5865.44492,0.02977
5863.51613,0.03037
5861.58734,0.02986
5859.65856,0.02960
5857.72977,0.03023
5855.80098,0.03046
5853.87219,0.02986
5851.94340,0.02947
5850.01462,0.03000
5848.08583,0.03021
5846.15704,0.03008
5844.22825,0.03079
5842.29946,0.03149
5840.37067,0.03164
5838.44189,0.03087
5836.51310,0.02952
5834.58431,0.02965
5832.65552,0.03131
5830.72673,0.03243
5828.79795,0.03233
5826.86916,0.03093
5824.94037,0.02864
5823.01158,0.02798
5821.08279,0.02967
5819.15400,0.03084
5817.22522,0.03030
5815.29643,0.02944
5813.36764,0.02902
5811.43885,0.02905
5809.51006,0.03027
5807.58127,0.03167
5805.65249,0.03107
5803.72370,0.02916
5801.79491,0.02899
5799.86612,0.03059
5797.93733,0.03153
5796.00855,0.03079
5794.07976,0.02980
5792.15097,0.02942
5790.22218,0.02958
5788.29339,0.03026
5786.36460,0.03089
5784.43582,0.03043
5782.50703,0.02951
5780.57824,0.02930
5778.64945,0.02988
5776.72066,0.03105
5774.79188,0.03184
5772.86309,0.03112
5770.93430,0.02992
5769.00551,0.02941
5767.07672,0.02968
5765.14793,0.03134
5763.21915,0.03339
5761.29036,0.03355
5759.36157,0.03222
5757.43278,0.03067
5755.50399,0.02908
5753.57521,0.02799
5751.64642,0.02800
5749.71763,0.02895
5747.78884,0.03052
5745.86005,0.03201
5743.93126,0.03239
5742.00248,0.03203
5740.07369,0.03217
5738.14490,0.03208
5736.21611,0.03086
5734.28732,0.02975
5732.35853,0.02945
5730.42975,0.02980
5728.50096,0.03111
5726.57217,0.03225
5724.64338,0.03186
5722.71459,0.03146
5720.78581,0.03208
5718.85702,0.03209
5716.92823,0.03139
5714.99944,0.03111
5713.07065,0.03081
5711.14186,0.03007
5709.21308,0.02954
5707.28429,0.02953
5705.35550,0.02985
5703.42671,0.03081
5701.49792,0.03211
5699.56914,0.03218
5697.64035,0.03172
5695.71156,0.03193
5693.78277,0.03152
5691.85398,0.03077
5689.92519,0.03156
5687.99641,0.03287
5686.06762,0.03277
5684.13883,0.03173
5682.21004,0.03118
5680.28125,0.03143
5678.35247,0.03207
5676.42368,0.03269
5674.49489,0.03291
5672.56610,0.03257
5670.63731,0.03215
5668.70852,0.03225
5666.77974,0.03234
5664.85095,0.03159
5662.92216,0.03054
5660.99337,0.02994
5659.06458,0.02979
5657.13580,0.02999
5655.20701,0.03045
5653.27822,0.03090
5651.34943,0.03118
5649.42064,0.03097
5647.49185,0.03047
5645.56307,0.03008
5643.63428,0.02981
5641.70549,0.03009
5639.77670,0.03108
5637.84791,0.03168
5635.91912,0.03151
5633.99034,0.03150
5632.06155,0.03223
5630.13276,0.03309
5628.20397,0.03316
5626.27518,0.03209
5624.34640,0.03041
5622.41761,0.02964
5620.48882,0.03043
5618.56003,0.03122
5616.63124,0.03091
5614.70245,0.03007
5612.77367,0.02976
5610.84488,0.03053
5608.91609,0.03188
5606.98730,0.03249
5605.05851,0.03228
5603.12973,0.03244
5601.20094,0.03336
5599.27215,0.03406
5597.34336,0.03369
5595.41457,0.03269
5593.48578,0.03189
5591.55700,0.03099
5589.62821,0.02977
5587.69942,0.02920
5585.77063,0.02968
5583.84184,0.02995
5581.91306,0.02949
5579.98427,0.02939
5578.05548,0.03023
5576.12669,0.03122
5574.19790,0.03134
5572.26911,0.03074
5570.34033,0.03079
5568.41154,0.03161
5566.48275,0.03173
5564.55396,0.03095
5562.62517,0.03095
5560.69639,0.03182
5558.76760,0.03156
5556.83881,0.02997
5554.91002,0.02935
5552.98123,0.03049
5551.05244,0.03176
5549.12366,0.03198
5547.19487,0.03152
5545.26608,0.03122
5543.33729,0.03143
5541.40850,0.03152
5539.47971,0.03113
5537.55093,0.03128
5535.62214,0.03223
5533.69335,0.03245
5531.76456,0.03139
5529.83577,0.03005
5527.90699,0.02958
5525.97820,0.03009
5524.04941,0.03045
5522.12062,0.02997
5520.19183,0.02951
5518.26304,0.02971
5516.33426,0.02988
5514.40547,0.02992
5512.47668,0.03056
5510.54789,0.03143
5508.61910,0.03134
5506.69032,0.03037
5504.76153,0.03001
5502.83274,0.03009
5500.90395,0.03001
5498.97516,0.03067
5497.04637,0.03172
5495.11759,0.03173
5493.18880,0.03162
5491.26001,0.03215
5489.33122,0.03193
5487.40243,0.03124
5485.47365,0.03140
5483.54486,0.03168
5481.61607,0.03148
5479.68728,0.03125
5477.75849,0.03113
5475.82970,0.03121
5473.90092,0.03125
5471.97213,0.03102
5470.04334,0.03082
5468.11455,0.03097
5466.18576,0.03167
5464.25697,0.03258
5462.32819,0.03320
5460.39940,0.03320
5458.47061,0.03260
5456.54182,0.03221
5454.61303,0.03277
5452.68425,0.03326
5450.75546,0.03242
5448.82667,0.03088
5446.89788,0.02999
5444.96909,0.02978
5443.04030,0.03005
5441.11152,0.03081
5439.18273,0.03185
5437.25394,0.03254
5435.32515,0.03156
5433.39636,0.02900
5431.46758,0.02755
5429.53879,0.02874
5427.61000,0.03049
5425.68121,0.03055
5423.75242,0.03043
5421.82363,0.03145
5419.89485,0.03268
5417.96606,0.03342
5416.03727,0.03333
5414.10848,0.03176
5412.17969,0.02979
5410.25091,0.02942
5408.32212,0.03032
5406.39333,0.03092
5404.46454,0.03044
5402.53575,0.03004
5400.60696,0.03138
5398.67818,0.03320
5396.74939,0.03340
5394.82060,0.03250
5392.89181,0.03228
5390.96302,0.03283
5389.03424,0.03278
5387.10545,0.03208
5385.17666,0.03185
5383.24787,0.03156
5381.31908,0.03078
5379.39029,0.03064
5377.46151,0.03127
5375.53272,0.03171
5373.60393,0.03142
5371.67514,0.03090
5369.74635,0.03105
5367.81756,0.03114
5365.88878,0.03040
5363.95999,0.02983
5362.03120,0.02984
5360.10241,0.03019
5358.17362,0.03112
5356.24484,0.03175
5354.31605,0.03136
5352.38726,0.03142
5350.45847,0.03278
5348.52968,0.03407
5346.60089,0.03360
5344.67211,0.03137
5342.74332,0.02991
5340.81453,0.03042
5338.88574,0.03163
5336.95695,0.03211
5335.02817,0.03209
5333.09938,0.03216
5331.17059,0.03214
5329.24180,0.03232
5327.31301,0.03217
5325.38422,0.03111
5323.45544,0.03049
5321.52665,0.03077
5319.59786,0.03132
5317.66907,0.03152
5315.74028,0.03111
5313.81150,0.03080
5311.88271,0.03068
5309.95392,0.03011
5308.02513,0.02978
5306.09634,0.03065
5304.16755,0.03183
5302.23877,0.03202
5300.30998,0.03140
5298.38119,0.03126
5296.45240,0.03141
5294.52361,0.03085
5292.59483,0.03013
5290.66604,0.03013
5288.73725,0.03095
5286.80846,0.03174
5284.87967,0.03156
5282.95088,0.03149
5281.02210,0.03252
5279.09331,0.03335
5277.16452,0.03300
5275.23573,0.03212
5273.30694,0.03161
5271.37815,0.03130
5269.44937,0.03058
5267.52058,0.02983
5265.59179,0.02949
5263.66300,0.02948
5261.73421,0.03068
5259.80543,0.03270
5257.87664,0.03378
5255.94785,0.03392
5254.01906,0.03363
5252.09027,0.03243
5250.16148,0.03093
5248.23270,0.03059
5246.30391,0.03166
5244.37512,0.03285
5242.44633,0.03316
5240.51754,0.03249
5238.58876,0.03165
5236.65997,0.03147
5234.73118,0.03103
5232.80239,0.02987
5230.87360,0.02960
5228.94481,0.03052
5227.01603,0.03114
5225.08724,0.03101
5223.15845,0.03088
5221.22966,0.03076
5219.30087,0.03079
5217.37209,0.03141
5215.44330,0.03174
5213.51451,0.03111
5211.58572,0.03038
5209.65693,0.03002
5207.72814,0.02985
5205.79936,0.03014
5203.87057,0.03100
5201.94178,0.03179
5200.01299,0.03193
5198.08420,0.03138
5196.15541,0.03056
5194.22663,0.02962
5192.29784,0.02897
5190.36905,0.02907
5188.44026,0.02929
5186.51147,0.02915
5184.58269,0.02952
5182.65390,0.03047
5180.72511,0.03093
5178.79632,0.03060
5176.86753,0.03058
5174.93874,0.03119
5173.00996,0.03119
5171.08117,0.03056
5169.15238,0.03075
5167.22359,0.03184
5165.29480,0.03252
5163.36602,0.03222
5161.43723,0.03163
5159.50844,0.03123
5157.57965,0.03057
5155.65086,0.02968
5153.72207,0.02936
5151.79329,0.02959
5149.86450,0.02993
5147.93571,0.03068
5146.00692,0.03171
5144.07813,0.03217
5142.14935,0.03165
5140.22056,0.03055
5138.29177,0.02974
5136.36298,0.02983
5134.43419,0.03046
5132.50540,0.03098
5130.57662,0.03119
5128.64783,0.03089
5126.71904,0.03042
5124.79025,0.03058
5122.86146,0.03117
5120.93268,0.03115
5119.00389,0.03069
5117.07510,0.03090
5115.14631,0.03160
5113.21752,0.03171
5111.28873,0.03130
5109.35995,0.03124
5107.43116,0.03158
5105.50237,0.03167
5103.57358,0.03140
5101.64479,0.03071
5099.71600,0.02973
5097.78722,0.02960
5095.85843,0.03070
5093.92964,0.03178
5092.00085,0.03180
5090.07206,0.03085
5088.14328,0.02969
5086.21449,0.02936
5084.28570,0.03035
5082.35691,0.03198
5080.42812,0.03288
5078.49933,0.03247
5076.57055,0.03145
5074.64176,0.03030
5072.71297,0.02919
5070.78418,0.02886
5068.85539,0.02983
5066.92661,0.03150
5064.99782,0.03279
5063.06903,0.03294
5061.14024,0.03197
5059.21145,0.03106
5057.28266,0.03134
5055.35388,0.03201
5053.42509,0.03200
5051.49630,0.03130
5049.56751,0.03047
5047.63872,0.03024
5045.70994,0.03062
5043.78115,0.03103
5041.85236,0.03147
5039.92357,0.03200
5037.99478,0.03218
5036.06599,0.03168
5034.13721,0.03085
5032.20842,0.03059
5030.27963,0.03113
5028.35084,0.03165
5026.42205,0.03180
5024.49327,0.03190
5022.56448,0.03182
5020.63569,0.03123
5018.70690,0.03077
5016.77811,0.03109
5014.84932,0.03131
5012.92054,0.03073
5010.99175,0.02986
5009.06296,0.02949
5007.13417,0.02993
5005.20538,0.03027
5003.27659,0.02974
5001.34781,0.02875
4999.41902,0.02820
4997.49023,0.02898
4995.56144,0.03049
4993.63265,0.03091
4991.70387,0.03049
4989.77508,0.03080
4987.84629,0.03142
4985.91750,0.03125
4983.98871,0.03077
4982.05992,0.03070
4980.13114,0.03087
4978.20235,0.03085
4976.27356,0.03070
4974.34477,0.03066
4972.41598,0.03069
4970.48720,0.03081
4968.55841,0.03112
4966.62962,0.03163
4964.70083,0.03184
4962.77204,0.03141
4960.84325,0.03100
4958.91447,0.03103
4956.98568,0.03139
4955.05689,0.03178
4953.12810,0.03183
4951.19931,0.03160
4949.27053,0.03154
4947.34174,0.03132
4945.41295,0.03033
4943.48416,0.02949
4941.55537,0.02979
4939.62658,0.03063
4937.69780,0.03150
4935.76901,0.03222
4933.84022,0.03209
4931.91143,0.03114
4929.98264,0.03043
4928.05385,0.03054
4926.12507,0.03099
4924.19628,0.03104
4922.26749,0.03069
4920.33870,0.03013
4918.40991,0.02941
4916.48113,0.02899
4914.55234,0.02921
4912.62355,0.02985
4910.69476,0.03056
4908.76597,0.03111
4906.83718,0.03128
4904.90840,0.03106
4902.97961,0.03100
4901.05082,0.03138
4899.12203,0.03158
4897.19324,0.03135
4895.26446,0.03099
4893.33567,0.03067
4891.40688,0.03062
4889.47809,0.03102
4887.54930,0.03149
4885.62051,0.03148
4883.69173,0.03120
4881.76294,0.03128
4879.83415,0.03166
4877.90536,0.03165
4875.97657,0.03113
4874.04779,0.03075
4872.11900,0.03109
4870.19021,0.03180
4868.26142,0.03178
4866.33263,0.03087
4864.40384,0.03007
4862.47506,0.02997
4860.54627,0.03017
4858.61748,0.03009
4856.68869,0.03020
4854.75990,0.03069
4852.83112,0.03066
4850.90233,0.03029
4848.97354,0.03080
4847.04475,0.03184
4845.11596,0.03201
4843.18717,0.03126
4841.25839,0.03055
4839.32960,0.03014
4837.40081,0.03008
4835.47202,0.03055
4833.54323,0.03104
4831.61444,0.03087
4829.68566,0.03056
4827.75687,0.03078
4825.82808,0.03083
4823.89929,0.03027
4821.97050,0.02985
4820.04172,0.02980
4818.11293,0.02998
4816.18414,0.03043
4814.25535,0.03104
4812.32656,0.03146
4810.39777,0.03117
4808.46899,0.03029
4806.54020,0.02974
4804.61141,0.02972
4802.68262,0.02985
4800.75383,0.02997
4798.82505,0.02985
4796.89626,0.02947
4794.96747,0.02924
4793.03868,0.02924
4791.10989,0.02949
4789.18110,0.02991
4787.25232,0.03015
4785.32353,0.03028
4783.39474,0.03039
4781.46595,0.03028
4779.53716,0.03027
4777.60838,0.03034
4775.67959,0.02999
4773.75080,0.02957
4771.82201,0.02987
4769.89322,0.03057
4767.96443,0.03095
4766.03565,0.03124
4764.10686,0.03188
4762.17807,0.03228
4760.24928,0.03193
4758.32049,0.03165
4756.39170,0.03185
4754.46292,0.03157
4752.53413,0.03069
4750.60534,0.03035
4748.67655,0.03087
4746.74776,0.03131
4744.81898,0.03106
4742.89019,0.03051
4740.96140,0.03015
4739.03261,0.03006
4737.10382,0.03010
4735.17503,0.03017
4733.24625,0.03040
4731.31746,0.03068
4729.38867,0.03066
4727.45988,0.03054
4725.53109,0.03075
4723.60231,0.03120
4721.67352,0.03145
4719.74473,0.03134
4717.81594,0.03111
4715.88715,0.03105
4713.95836,0.03121
4712.02958,0.03113
4710.10079,0.03070
4708.17200,0.03056
4706.24321,0.03070
4704.31442,0.03054
4702.38564,0.03039
4700.45685,0.03079
4698.52806,0.03152
4696.59927,0.03197
4694.67048,0.03181
4692.74169,0.03143
4690.81291,0.03111
4688.88412,0.03084
4686.95533,0.03053
4685.02654,0.03021
4683.09775,0.03031
4681.16897,0.03078
4679.24018,0.03098
4677.31139,0.03126
4675.38260,0.03176
4673.45381,0.03146
4671.52502,0.03048
4669.59624,0.03010
4667.66745,0.03029
4665.73866,0.03043
4663.80987,0.03054
4661.88108,0.03042
4659.95229,0.03020
4658.02351,0.03038
4656.09472,0.03074
4654.16593,0.03084
4652.23714,0.03087
4650.30835,0.03091
4648.37957,0.03089
4646.45078,0.03103
4644.52199,0.03128
4642.59320,0.03139
4640.66441,0.03150
4638.73562,0.03147
4636.80684,0.03103
4634.87805,0.03042
4632.94926,0.02982
4631.02047,0.02944
4629.09168,0.02962
4627.16290,0.02989
4625.23411,0.02986
4623.30532,0.03001
4621.37653,0.03064
4619.44774,0.03142
4617.51895,0.03192
4615.59017,0.03198
4613.66138,0.03177
4611.73259,0.03144
4609.80380,0.03102
4607.87501,0.03079
4605.94623,0.03115
4604.01744,0.03174
4602.08865,0.03154
4600.15986,0.03063
4598.23107,0.03007
4596.30228,0.03015
4594.37350,0.03053
4592.44471,0.03075
4590.51592,0.03042
4588.58713,0.03005
4586.65834,0.02999
4584.72956,0.03001
4582.80077,0.03011
4580.87198,0.03029
4578.94319,0.03036
4577.01440,0.03027
4575.08561,0.03018
4573.15683,0.03016
4571.22804,0.03016
4569.29925,0.03027
4567.37046,0.03050
4565.44167,0.03066
4563.51288,0.03072
4561.58410,0.03091
4559.65531,0.03118
4557.72652,0.03130
4555.79773,0.03152
4553.86894,0.03187
4551.94016,0.03188
4550.01137,0.03148
4548.08258,0.03090
4546.15379,0.03040
4544.22500,0.03035
4542.29621,0.03075
4540.36743,0.03114
4538.43864,0.03111
4536.50985,0.03075
4534.58106,0.03056
4532.65227,0.03044
4530.72349,0.03023
4528.79470,0.03030
4526.86591,0.03055
4524.93712,0.03057
4523.00833,0.03048
4521.07954,0.03059
4519.15076,0.03100
4517.22197,0.03138
4515.29318,0.03141
4513.36439,0.03128
4511.43560,0.03125
4509.50682,0.03127
4507.57803,0.03111
4505.64924,0.03066
4503.72045,0.03016
4501.79166,0.02989
4499.86287,0.02994
4497.93409,0.03027
4496.00530,0.03053
4494.07651,0.03070
4492.14772,0.03103
4490.21893,0.03129
4488.29014,0.03120
4486.36136,0.03094
4484.43257,0.03073
4482.50378,0.03058
4480.57499,0.03061
4478.64620,0.03102
4476.71742,0.03128
4474.78863,0.03105
4472.85984,0.03091
4470.93105,0.03093
4469.00226,0.03066
4467.07347,0.03030
4465.14469,0.03037
4463.21590,0.03068
4461.28711,0.03073
4459.35832,0.03052
4457.42953,0.03016
4455.50075,0.02981
4453.57196,0.02979
4451.64317,0.02998
4449.71438,0.03000
4447.78559,0.02990
4445.85680,0.02992
4443.92802,0.03016
4441.99923,0.03050
4440.07044,0.03072
4438.14165,0.03080
4436.21286,0.03075
4434.28408,0.03054
4432.35529,0.03040
4430.42650,0.03047
4428.49771,0.03070
4426.56892,0.03078
4424.64013,0.03047
4422.71135,0.03012
4420.78256,0.03030
4418.85377,0.03076
4416.92498,0.03088
4414.99619,0.03072
4413.06741,0.03068
4411.13862,0.03067
4409.20983,0.03039
4407.28104,0.03004
4405.35225,0.03008
4403.42346,0.03041
4401.49468,0.03069
4399.56589,0.03073
4397.63710,0.03049
4395.70831,0.03019
4393.77952,0.03014
4391.85073,0.03041
4389.92195,0.03074
4387.99316,0.03092
4386.06437,0.03083
4384.13558,0.03047
4382.20679,0.03015
4380.27801,0.03017
4378.34922,0.03066
4376.42043,0.03139
4374.49164,0.03158
4372.56285,0.03106
4370.63406,0.03055
4368.70528,0.03023
4366.77649,0.02998
4364.84770,0.03006
4362.91891,0.03020
4360.99012,0.03013
4359.06134,0.03025
4357.13255,0.03037
4355.20376,0.02999
4353.27497,0.02942
4351.34618,0.02920
4349.41739,0.02953
4347.48861,0.03005
4345.55982,0.03005
4343.63103,0.02981
4341.70224,0.02985
4339.77345,0.02986
4337.84467,0.03002
4335.91588,0.03045
4333.98709,0.03053
4332.05830,0.03015
4330.12951,0.02974
4328.20072,0.02963
4326.27194,0.03007
4324.34315,0.03088
4322.41436,0.03133
4320.48557,0.03104
4318.55678,0.03058
4316.62800,0.03054
4314.69921,0.03073
4312.77042,0.03059
4310.84163,0.03024
4308.91284,0.03039
4306.98405,0.03093
4305.05527,0.03104
4303.12648,0.03072
4301.19769,0.03067
4299.26890,0.03088
4297.34011,0.03098
4295.41132,0.03081
4293.48254,0.03044
4291.55375,0.03014
4289.62496,0.02997
4287.69617,0.02991
4285.76738,0.03002
4283.83860,0.03026
4281.90981,0.03022
4279.98102,0.02986
4278.05223,0.02995
4276.12344,0.03052
4274.19465,0.03076
4272.26587,0.03064
4270.33708,0.03061
4268.40829,0.03068
4266.47950,0.03068
4264.55071,0.03046
4262.62193,0.03006
4260.69314,0.02975
4258.76435,0.02980
4256.83556,0.03034
4254.90677,0.03104
4252.97798,0.03126
4251.04920,0.03098
4249.12041,0.03069
4247.19162,0.03050
4245.26283,0.03021
4243.33404,0.02992
4241.40526,0.02987
4239.47647,0.02998
4237.54768,0.03008
4235.61889,0.03004
4233.69010,0.02991
4231.76131,0.03002
4229.83253,0.03045
4227.90374,0.03071
4225.97495,0.03057
4224.04616,0.03039
4222.11737,0.03021
4220.18858,0.03004
4218.25980,0.03002
4216.33101,0.03000
4214.40222,0.03008
4212.47343,0.03038
4210.54464,0.03051
4208.61586,0.03041
4206.68707,0.03054
4204.75828,0.03084
4202.82949,0.03073
4200.90070,0.03035
4198.97191,0.03011
4197.04313,0.02996
4195.11434,0.02997
4193.18555,0.03017
4191.25676,0.03040
4189.32797,0.03045
4187.39919,0.03043
4185.47040,0.03061
4183.54161,0.03076
4181.61282,0.03064
4179.68403,0.03065
4177.75524,0.03082
4175.82646,0.03067
4173.89767,0.03045
4171.96888,0.03047
4170.04009,0.03054
4168.11130,0.03056
4166.18252,0.03065
4164.25373,0.03083
4162.32494,0.03087
4160.39615,0.03070
4158.46736,0.03073
4156.53857,0.03090
4154.60979,0.03072
4152.68100,0.03022
4150.75221,0.02988
4148.82342,0.02996
4146.89463,0.03015
4144.96585,0.03011
4143.03706,0.03028
4141.10827,0.03083
4139.17948,0.03109
4137.25069,0.03077
4135.32190,0.03048
4133.39312,0.03035
4131.46433,0.03000
4129.53554,0.02972
4127.60675,0.03000
4125.67796,0.03053
4123.74917,0.03085
4121.82039,0.03084
4119.89160,0.03064
4117.96281,0.03044
4116.03402,0.03037
4114.10523,0.03035
4112.17645,0.03032
4110.24766,0.03018
4108.31887,0.02982
4106.39008,0.02948
4104.46129,0.02952
4102.53250,0.02997
4100.60372,0.03035
4098.67493,0.03041
4096.74614,0.03047
4094.81735,0.03057
4092.88856,0.03065
4090.95978,0.03077
4089.03099,0.03090
4087.10220,0.03098
4085.17341,0.03102
4083.24462,0.03089
4081.31583,0.03063
4079.38705,0.03055
4077.45826,0.03054
4075.52947,0.03031
4073.60068,0.03019
4071.67189,0.03038
4069.74311,0.03042
4067.81432,0.03015
4065.88553,0.03001
4063.95674,0.03031
4062.02795,0.03079
4060.09916,0.03092
4058.17038,0.03046
4056.24159,0.03001
4054.31280,0.03015
4052.38401,0.03057
4050.45522,0.03069
4048.52644,0.03053
4046.59765,0.03054
4044.66886,0.03081
4042.74007,0.03100
4040.81128,0.03097
4038.88249,0.03088
4036.95371,0.03077
4035.02492,0.03075
4033.09613,0.03090
4031.16734,0.03089
4029.23855,0.03056
4027.30976,0.03043
4025.38098,0.03053
4023.45219,0.03023
4021.52340,0.02972
4019.59461,0.02967
4017.66582,0.02990
4015.73704,0.02992
4013.80825,0.02974
4011.87946,0.02983
4009.95067,0.03023
4008.02188,0.03045
4006.09309,0.03032
4004.16431,0.03019
4002.23552,0.03031
4000.30673,0.03052
3998.37794,0.03042
3996.44915,0.03012
3994.52037,0.03018
3992.59158,0.03036
3990.66279,0.03020
3988.73400,0.03015
3986.80521,0.03039
3984.87642,0.03053
3982.94764,0.03043
3981.01885,0.03015
3979.09006,0.02990
3977.16127,0.02976
3975.23248,0.02967
3973.30370,0.02974
3971.37491,0.03005
3969.44612,0.03042
3967.51733,0.03068
3965.58854,0.03076
3963.65975,0.03052
3961.73097,0.03001
3959.80218,0.02959
3957.87339,0.02961
3955.94460,0.02995
3954.01581,0.03019
3952.08702,0.03025
3950.15824,0.03013
3948.22945,0.02994
3946.30066,0.02989
3944.37187,0.02984
3942.44308,0.02976
3940.51430,0.02986
3938.58551,0.03013
3936.65672,0.03041
3934.72793,0.03055
3932.79914,0.03045
3930.87035,0.03038
3928.94157,0.03054
3927.01278,0.03053
3925.08399,0.03025
3923.15520,0.03017
3921.22641,0.03035
3919.29763,0.03046
3917.36884,0.03048
3915.44005,0.03053
3913.51126,0.03063
3911.58247,0.03074
3909.65368,0.03091
3907.72490,0.03125
3905.79611,0.03127
3903.86732,0.03032
3901.93853,0.02938
3900.00974,0.02960
3898.08096,0.03030
3896.15217,0.03076
3894.22338,0.03071
3892.29459,0.03019
3890.36580,0.03011
3888.43701,0.03085
3886.50823,0.03145
3884.57944,0.03137
3882.65065,0.03112
3880.72186,0.03086
3878.79307,0.03057
3876.86429,0.03043
3874.93550,0.03041
3873.00671,0.03047
3871.07792,0.03019
3869.14913,0.02972
3867.22034,0.02964
3865.29156,0.02962
3863.36277,0.02956
3861.43398,0.02981
3859.50519,0.03025
3857.57640,0.03076
3855.64761,0.03114
3853.71883,0.03053
3851.79004,0.02945
3849.86125,0.02950
3847.93246,0.02986
3846.00367,0.03010
3844.07489,0.03032
3842.14610,0.03043
3840.21731,0.03025
3838.28852,0.02998
3836.35973,0.03017
3834.43094,0.03050
3832.50216,0.03056
3830.57337,0.03033
3828.64458,0.02989
3826.71579,0.02975
3824.78700,0.03022
3822.85822,0.03044
3820.92943,0.03012
3819.00064,0.03036
3817.07185,0.03045
3815.14306,0.02986
3813.21427,0.02985
3811.28549,0.03042
3809.35670,0.03079
3807.42791,0.03074
3805.49912,0.03074
3803.57033,0.03073
3801.64155,0.03014
3799.71276,0.02973
3797.78397,0.03001
3795.85518,0.03026
3793.92639,0.03033
3791.99760,0.03036
3790.06882,0.03035
3788.14003,0.03028
3786.21124,0.03004
3784.28245,0.02988
3782.35366,0.03023
3780.42488,0.03069
3778.49609,0.03065
3776.56730,0.03039
3774.63851,0.03049
3772.70972,0.03078
3770.78093,0.03082
3768.85215,0.03086
3766.92336,0.03119
3764.99457,0.03123
3763.06578,0.03089
3761.13699,0.03076
3759.20820,0.03082
3757.27942,0.03064
3755.35063,0.03050
3753.42184,0.03056
3751.49305,0.03015
3749.56426,0.02946
3747.63548,0.02920
3745.70669,0.02885
3743.77790,0.02876
3741.84911,0.02939
3739.92032,0.02996
3737.99153,0.03018
3736.06275,0.03016
3734.13396,0.03019
3732.20517,0.03043
3730.27638,0.03074
3728.34759,0.03079
3726.41881,0.03056
3724.49002,0.03052
3722.56123,0.03077
3720.63244,0.03087
3718.70365,0.03078
3716.77486,0.03070
3714.84608,0.03075
3712.91729,0.03072
3710.98850,0.03014
3709.05971,0.02960
3707.13092,0.02963
3705.20214,0.02989
3703.27335,0.03006
3701.34456,0.03003
3699.41577,0.02997
3697.48698,0.02989
3695.55819,0.02998
3693.62941,0.03047
3691.70062,0.03106
3689.77183,0.03089
3687.84304,0.02982
3685.91425,0.02922
3683.98546,0.02930
3682.05668,0.02956
3680.12789,0.02972
3678.19910,0.02960
3676.27031,0.02906
3674.34152,0.02877
3672.41274,0.02908
3670.48395,0.02909
3668.55516,0.02880
3666.62637,0.02911
3664.69758,0.02966
3662.76879,0.02989
3660.84001,0.02982
3658.91122,0.02981
3656.98243,0.02980
3655.05364,0.02966
3653.12485,0.02945
3651.19607,0.02890
3649.26728,0.02793
3647.33849,0.02768
3645.40970,0.02826
3643.48091,0.02884
3641.55212,0.02906
3639.62334,0.02898
3637.69455,0.02888
3635.76576,0.02891
3633.83697,0.02884
3631.90818,0.02874
3629.97940,0.02895
3628.05061,0.02934
3626.12182,0.02938
3624.19303,0.02924
3622.26424,0.02935
3620.33545,0.02943
3618.40667,0.02902
3616.47788,0.02894
3614.54909,0.02909
3612.62030,0.02883
3610.69151,0.02853
3608.76273,0.02841
3606.83394,0.02852
3604.90515,0.02877
3602.97636,0.02871
3601.04757,0.02840
3599.11878,0.02838
3597.19000,0.02840
3595.26121,0.02790
3593.33242,0.02742
3591.40363,0.02751
3589.47484,0.02777
3587.54605,0.02786
3585.61727,0.02785
3583.68848,0.02773
3581.75969,0.02754
3579.83090,0.02758
3577.90211,0.02776
3575.97333,0.02779
3574.04454,0.02763
3572.11575,0.02738
3570.18696,0.02709
3568.25817,0.02688
3566.32938,0.02711
3564.40060,0.02772
3562.47181,0.02817
3560.54302,0.02839
3558.61423,0.02855
3556.68544,0.02853
3554.75666,0.02808
3552.82787,0.02743
3550.89908,0.02713
3548.97029,0.02730
3547.04150,0.02752
3545.11271,0.02763
3543.18393,0.02767
3541.25514,0.02752
3539.32635,0.02720
3537.39756,0.02709
3535.46877,0.02745
3533.53999,0.02789
3531.61120,0.02792
3529.68241,0.02766
3527.75362,0.02770
3525.82483,0.02808
3523.89604,0.02805
3521.96726,0.02746
3520.03847,0.02710
3518.10968,0.02725
3516.18089,0.02741
3514.25210,0.02749
3512.32332,0.02756
3510.39453,0.02733
3508.46574,0.02710
3506.53695,0.02736
3504.60816,0.02761
3502.67937,0.02719
3500.75059,0.02663
3498.82180,0.02676
3496.89301,0.02709
3494.96422,0.02702
3493.03543,0.02710
3491.10664,0.02761
3489.17786,0.02784
3487.24907,0.02747
3485.32028,0.02701
3483.39149,0.02686
3481.46270,0.02703
3479.53392,0.02746
3477.60513,0.02800
3475.67634,0.02816
3473.74755,0.02780
3471.81876,0.02748
3469.88997,0.02734
3467.96119,0.02712
3466.03240,0.02696
3464.10361,0.02701
3462.17482,0.02717
3460.24603,0.02727
3458.31725,0.02722
3456.38846,0.02720
3454.45967,0.02722
3452.53088,0.02699
3450.60209,0.02660
3448.67330,0.02635
3446.74452,0.02641
3444.81573,0.02666
3442.88694,0.02681
3440.95815,0.02671
3439.02936,0.02642
3437.10058,0.02638
3435.17179,0.02672
3433.24300,0.02677
3431.31421,0.02629
3429.38542,0.02588
3427.45663,0.02577
3425.52785,0.02584
3423.59906,0.02613
3421.67027,0.02627
3419.74148,0.02608
3417.81269,0.02602
3415.88390,0.02606
3413.95512,0.02612
3412.02633,0.02652
3410.09754,0.02702
3408.16875,0.02713
3406.23996,0.02673
3404.31118,0.02631
3402.38239,0.02640
3400.45360,0.02665
3398.52481,0.02666
3396.59602,0.02676
3394.66723,0.02702
3392.73845,0.02688
3390.80966,0.02632
3388.88087,0.02597
3386.95208,0.02607
3385.02329,0.02639
3383.09451,0.02651
3381.16572,0.02634
3379.23693,0.02626
3377.30814,0.02641
3375.37935,0.02659
3373.45056,0.02669
3371.52178,0.02666
3369.59299,0.02649
3367.66420,0.02626
3365.73541,0.02615
3363.80662,0.02615
3361.87784,0.02596
3359.94905,0.02564
3358.02026,0.02549
3356.09147,0.02560
3354.16268,0.02595
3352.23389,0.02633
3350.30511,0.02655
3348.37632,0.02679
3346.44753,0.02703
3344.51874,0.02682
3342.58995,0.02631
3340.66117,0.02614
3338.73238,0.02607
3336.80359,0.02572
3334.87480,0.02560
3332.94601,0.02594
3331.01722,0.02649
3329.08844,0.02707
3327.15965,0.02762
3325.23086,0.02788
3323.30207,0.02776
3321.37328,0.02756
3319.44449,0.02725
3317.51571,0.02678
3315.58692,0.02634
3313.65813,0.02604
3311.72934,0.02588
3309.80055,0.02579
3307.87177,0.02590
3305.94298,0.02634
3304.01419,0.02663
3302.08540,0.02658
3300.15661,0.02648
3298.22782,0.02625
3296.29904,0.02583
3294.37025,0.02577
3292.44146,0.02600
3290.51267,0.02604
3288.58388,0.02623
3286.65510,0.02661
3284.72631,0.02660
3282.79752,0.02638
3280.86873,0.02643
3278.93994,0.02665
3277.01115,0.02689
3275.08237,0.02695
3273.15358,0.02668
3271.22479,0.02648
3269.29600,0.02659
3267.36721,0.02675
3265.43843,0.02683
3263.50964,0.02688
3261.58085,0.02691
3259.65206,0.02688
3257.72327,0.02673
3255.79448,0.02661
3253.86570,0.02670
3251.93691,0.02688
3250.00812,0.02694
3248.07933,0.02666
3246.15054,0.02605
3244.22175,0.02583
3242.29297,0.02631
3240.36418,0.02686
3238.43539,0.02685
3236.50660,0.02645
3234.57781,0.02653
3232.64903,0.02711
3230.72024,0.02747
3228.79145,0.02751
3226.86266,0.02747
3224.93387,0.02741
3223.00508,0.02725
3221.07630,0.02695
3219.14751,0.02668
3217.21872,0.02657
3215.28993,0.02662
3213.36114,0.02695
3211.43236,0.02725
3209.50357,0.02721
3207.57478,0.02723
3205.64599,0.02764
3203.71720,0.02806
3201.78841,0.02800
3199.85963,0.02742
3197.93084,0.02679
3196.00205,0.02637
3194.07326,0.02609
3192.14447,0.02612
3190.21569,0.02652
3188.28690,0.02692
3186.35811,0.02717
3184.42932,0.02738
3182.50053,0.02750
3180.57174,0.02746
3178.64296,0.02748
3176.71417,0.02778
3174.78538,0.02797
3172.85659,0.02772
3170.92780,0.02755
3168.99902,0.02768
3167.07023,0.02779
3165.14144,0.02770
3163.21265,0.02743
3161.28386,0.02703
3159.35507,0.02679
3157.42629,0.02668
3155.49750,0.02647
3153.56871,0.02651
3151.63992,0.02687
3149.71113,0.02719
3147.78234,0.02745
3145.85356,0.02760
3143.92477,0.02733
3141.99598,0.02693
3140.06719,0.02705
3138.13840,0.02738
3136.20962,0.02738
3134.28083,0.02711
3132.35204,0.02688
3130.42325,0.02698
3128.49446,0.02724
3126.56567,0.02723
3124.63689,0.02707
3122.70810,0.02709
3120.77931,0.02720
3118.85052,0.02726
3116.92173,0.02725
3114.99295,0.02720
3113.06416,0.02731
3111.13537,0.02756
3109.20658,0.02755
3107.27779,0.02725
3105.34900,0.02707
3103.42022,0.02709
3101.49143,0.02695
3099.56264,0.02678
3097.63385,0.02695
3095.70506,0.02733
3093.77628,0.02755
3091.84749,0.02738
3089.91870,0.02705
3087.98991,0.02689
3086.06112,0.02687
3084.13233,0.02696
3082.20355,0.02717
3080.27476,0.02735
3078.34597,0.02736
3076.41718,0.02722
3074.48839,0.02709
3072.55961,0.02712
3070.63082,0.02723
3068.70203,0.02727
3066.77324,0.02741
3064.84445,0.02746
3062.91566,0.02708
3060.98688,0.02670
3059.05809,0.02682
3057.12930,0.02724
3055.20051,0.02752
3053.27172,0.02747
3051.34293,0.02734
3049.41415,0.02733
3047.48536,0.02739
3045.55657,0.02744
3043.62778,0.02723
3041.69899,0.02686
3039.77021,0.02682
3037.84142,0.02709
3035.91263,0.02723
3033.98384,0.02711
3032.05505,0.02706
3030.12626,0.02730
3028.19748,0.02752
3026.26869,0.02757
3024.33990,0.02762
3022.41111,0.02748
3020.48232,0.02702
3018.55354,0.02663
3016.62475,0.02653
3014.69596,0.02655
3012.76717,0.02667
3010.83838,0.02694
3008.90959,0.02712
3006.98081,0.02709
3005.05202,0.02702
3003.12323,0.02698
3001.19444,0.02685
2999.26565,0.02668
2997.33687,0.02657
2995.40808,0.02655
2993.47929,0.02674
2991.55050,0.02698
2989.62171,0.02696
2987.69292,0.02663
2985.76414,0.02636
2983.83535,0.02639
2981.90656,0.02649
2979.97777,0.02646
2978.04898,0.02647
2976.12019,0.02650
2974.19141,0.02620
2972.26262,0.02570
2970.33383,0.02567
2968.40504,0.02613
2966.47625,0.02645
2964.54747,0.02644
2962.61868,0.02645
2960.68989,0.02651
2958.76110,0.02643
2956.83231,0.02619
2954.90352,0.02586
2952.97474,0.02570
2951.04595,0.02585
2949.11716,0.02598
2947.18837,0.02591
2945.25958,0.02594
2943.33080,0.02607
2941.40201,0.02601
2939.47322,0.02590
2937.54443,0.02594
2935.61564,0.02604
2933.68685,0.02613
2931.75807,0.02631
2929.82928,0.02638
2927.90049,0.02612
2925.97170,0.02601
2924.04291,0.02646
2922.11413,0.02693
2920.18534,0.02690
2918.25655,0.02657
2916.32776,0.02634
2914.39897,0.02640
2912.47018,0.02657
2910.54140,0.02657
2908.61261,0.02657
2906.68382,0.02669
2904.75503,0.02683
2902.82624,0.02703
2900.89746,0.02717
2898.96867,0.02704
2897.03988,0.02671
2895.11109,0.02645
2893.18230,0.02645
2891.25351,0.02669
2889.32473,0.02693
2887.39594,0.02708
2885.46715,0.02717
2883.53836,0.02708
2881.60957,0.02679
2879.68078,0.02663
2877.75200,0.02663
2875.82321,0.02662
2873.89442,0.02677
2871.96563,0.02700
2870.03684,0.02695
2868.10806,0.02675
2866.17927,0.02681
2864.25048,0.02704
2862.32169,0.02700
2860.39290,0.02681
2858.46411,0.02682
2856.53533,0.02690
2854.60654,0.02690
2852.67775,0.02693
2850.74896,0.02706
2848.82017,0.02715
2846.89139,0.02713
2844.96260,0.02720
2843.03381,0.02745
2841.10502,0.02753
2839.17623,0.02747
2837.24744,0.02759
2835.31866,0.02763
2833.38987,0.02749
2831.46108,0.02755
2829.53229,0.02784
2827.60350,0.02807
2825.67472,0.02807
2823.74593,0.02781
2821.81714,0.02749
2819.88835,0.02743
2817.95956,0.02754
2816.03077,0.02758
2814.10199,0.02754
2812.17320,0.02744
2810.24441,0.02739
2808.31562,0.02736
2806.38683,0.02723
2804.45805,0.02704
2802.52926,0.02699
2800.60047,0.02719
2798.67168,0.02747
2796.74289,0.02749
2794.81410,0.02742
2792.88532,0.02758
2790.95653,0.02774
2789.02774,0.02770
2787.09895,0.02748
2785.17016,0.02712
2783.24137,0.02687
2781.31259,0.02682
2779.38380,0.02689
2777.45501,0.02705
2775.52622,0.02730
2773.59743,0.02754
2771.66865,0.02763
2769.73986,0.02760
2767.81107,0.02763
2765.88228,0.02771
2763.95349,0.02761
2762.02470,0.02746
2760.09592,0.02746
2758.16713,0.02749
2756.23834,0.02750
2754.30955,0.02756
2752.38076,0.02759
2750.45198,0.02760
2748.52319,0.02762
2746.59440,0.02762
2744.66561,0.02758
2742.73682,0.02755
2740.80803,0.02758
2738.87925,0.02771
2736.95046,0.02780
2735.02167,0.02769
2733.09288,0.02746
2731.16409,0.02728
2729.23531,0.02730
2727.30652,0.02745
2725.37773,0.02749
2723.44894,0.02749
2721.52015,0.02759
2719.59136,0.02778
2717.66258,0.02795
2715.73379,0.02791
2713.80500,0.02758
2711.87621,0.02727
2709.94742,0.02730
2708.01863,0.02742
2706.08985,0.02733
2704.16106,0.02709
2702.23227,0.02690
2700.30348,0.02695
2698.37469,0.02719
2696.44591,0.02734
2694.51712,0.02736
2692.58833,0.02740
2690.65954,0.02749
2688.73075,0.02772
2686.80196,0.02807
2684.87318,0.02829
2682.94439,0.02819
2681.01560,0.02782
2679.08681,0.02759
2677.15802,0.02761
2675.22924,0.02751
2673.30045,0.02725
2671.37166,0.02709
2669.44287,0.02714
2667.51408,0.02724
2665.58529,0.02724
2663.65651,0.02721
2661.72772,0.02728
2659.79893,0.02743
2657.87014,0.02745
2655.94135,0.02718
2654.01257,0.02691
2652.08378,0.02689
2650.15499,0.02712
2648.22620,0.02740
2646.29741,0.02756
2644.36862,0.02759
2642.43984,0.02759
2640.51105,0.02757
2638.58226,0.02747
2636.65347,0.02736
2634.72468,0.02744
2632.79590,0.02759
2630.86711,0.02757
2628.93832,0.02741
2627.00953,0.02728
2625.08074,0.02713
2623.15195,0.02702
2621.22317,0.02707
2619.29438,0.02719
2617.36559,0.02726
2615.43680,0.02732
2613.50801,0.02727
2611.57922,0.02706
2609.65044,0.02697
2607.72165,0.02719
2605.79286,0.02740
2603.86407,0.02732
2601.93528,0.02715
2600.00650,0.02713
2598.07771,0.02723
2596.14892,0.02735
2594.22013,0.02746
2592.29134,0.02756
2590.36255,0.02767
2588.43377,0.02777
2586.50498,0.02771
2584.57619,0.02751
2582.64740,0.02738
2580.71861,0.02741
2578.78983,0.02746
2576.86104,0.02750
2574.93225,0.02760
2573.00346,0.02766
2571.07467,0.02754
2569.14588,0.02736
2567.21710,0.02732
2565.28831,0.02736
2563.35952,0.02736
2561.43073,0.02733
2559.50194,0.02728
2557.57316,0.02728
2555.64437,0.02738
2553.71558,0.02743
2551.78679,0.02739
2549.85800,0.02739
2547.92921,0.02737
2546.00043,0.02733
2544.07164,0.02731
2542.14285,0.02724
2540.21406,0.02709
2538.28527,0.02699
2536.35649,0.02701
2534.42770,0.02709
2532.49891,0.02711
2530.57012,0.02708
2528.64133,0.02712
2526.71254,0.02720
2524.78376,0.02718
2522.85497,0.02707
2520.92618,0.02699
2518.99739,0.02690
2517.06860,0.02682
2515.13981,0.02686
2513.21103,0.02689
2511.28224,0.02692
2509.35345,0.02708
2507.42466,0.02722
2505.49587,0.02729
2503.56709,0.02733
2501.63830,0.02729
2499.70951,0.02725
2497.78072,0.02712
2495.85193,0.02688
2493.92314,0.02690
2491.99436,0.02717
2490.06557,0.02735
2488.13678,0.02731
2486.20799,0.02716
2484.27920,0.02707
2482.35042,0.02705
2480.42163,0.02697
2478.49284,0.02695
2476.56405,0.02701
2474.63526,0.02705
2472.70647,0.02707
2470.77769,0.02709
2468.84890,0.02717
2466.92011,0.02740
2464.99132,0.02764
2463.06253,0.02766
2461.13375,0.02757
2459.20496,0.02747
2457.27617,0.02739
2455.34738,0.02736
2453.41859,0.02732
2451.48980,0.02717
2449.56102,0.02704
2447.63223,0.02704
2445.70344,0.02711
2443.77465,0.02706
2441.84586,0.02688
2439.91707,0.02679
2437.98829,0.02692
2436.05950,0.02700
2434.13071,0.02686
2432.20192,0.02672
2430.27313,0.02678
2428.34435,0.02692
2426.41556,0.02704
2424.48677,0.02718
2422.55798,0.02741
2420.62919,0.02766
2418.70040,0.02767
2416.77162,0.02744
2414.84283,0.02731
2412.91404,0.02744
2410.98525,0.02764
2409.05646,0.02759
2407.12768,0.02726
2405.19889,0.02694
2403.27010,0.02692
2401.34131,0.02718
2399.41252,0.02742
2397.48373,0.02743
2395.55495,0.02721
2393.62616,0.02701
2391.69737,0.02694
2389.76858,0.02692
2387.83979,0.02693
2385.91101,0.02700
2383.98222,0.02706
2382.05343,0.02707
2380.12464,0.02713
2378.19585,0.02737
2376.26706,0.02758
2374.33828,0.02753
2372.40949,0.02749
2370.48070,0.02767
2368.55191,0.02783
2366.62312,0.02788
2364.69434,0.02803
2362.76555,0.02824
2360.83676,0.02831
2358.90797,0.02810
2356.97918,0.02763
2355.05039,0.02716
2353.12161,0.02694
2351.19282,0.02692
2349.26403,0.02694
2347.33524,0.02703
2345.40645,0.02719
2343.47766,0.02719
2341.54888,0.02688
2339.62009,0.02651
2337.69130,0.02651
2335.76251,0.02687
2333.83372,0.02730
2331.90494,0.02759
2329.97615,0.02749
2328.04736,0.02713
2326.11857,0.02702
2324.18978,0.02727
2322.26099,0.02755
2320.33221,0.02750
2318.40342,0.02708
2316.47463,0.02664
2314.54584,0.02658
2312.61705,0.02696
2310.68827,0.02727
2308.75948,0.02718
2306.83069,0.02698
2304.90190,0.02685
2302.97311,0.02670
2301.04432,0.02669
2299.11554,0.02689
2297.18675,0.02703
2295.25796,0.02698
2293.32917,0.02695
2291.40038,0.02697
2289.47160,0.02691
2287.54281,0.02680
2285.61402,0.02672
2283.68523,0.02673
2281.75644,0.02684
2279.82765,0.02693
2277.89887,0.02693
2275.97008,0.02683
2274.04129,0.02678
2272.11250,0.02697
2270.18371,0.02713
2268.25493,0.02695
2266.32614,0.02666
2264.39735,0.02655
2262.46856,0.02653
2260.53977,0.02646
2258.61098,0.02645
2256.68220,0.02660
2254.75341,0.02686
2252.82462,0.02708
2250.89583,0.02711
2248.96704,0.02702
2247.03825,0.02691
2245.10947,0.02684
2243.18068,0.02681
2241.25189,0.02677
2239.32310,0.02660
2237.39431,0.02640
2235.46553,0.02632
2233.53674,0.02636
2231.60795,0.02642
2229.67916,0.02652
2227.75037,0.02663
2225.82158,0.02666
2223.89280,0.02661
2221.96401,0.02658
2220.03522,0.02666
2218.10643,0.02681
2216.17764,0.02675
2214.24886,0.02656
2212.32007,0.02651
2210.39128,0.02658
2208.46249,0.02667
2206.53370,0.02675
2204.60491,0.02666
2202.67613,0.02650
2200.74734,0.02647
2198.81855,0.02649
2196.88976,0.02636
2194.96097,0.02607
2193.03219,0.02580
2191.10340,0.02567
2189.17461,0.02571
2187.24582,0.02597
2185.31703,0.02631
2183.38824,0.02647
2181.45946,0.02645
2179.53067,0.02647
2177.60188,0.02653
2175.67309,0.02655
2173.74430,0.02655
2171.81551,0.02651
2169.88673,0.02645
2167.95794,0.02645
2166.02915,0.02642
2164.10036,0.02631
2162.17157,0.02621
2160.24279,0.02620
2158.31400,0.02617
2156.38521,0.02613
2154.45642,0.02616
2152.52763,0.02611
2150.59884,0.02614
2148.67006,0.02641
2146.74127,0.02652
2144.81248,0.02642
2142.88369,0.02643
2140.95490,0.02647
2139.02612,0.02645
2137.09733,0.02645
2135.16854,0.02649
2133.23975,0.02646
2131.31096,0.02626
2129.38217,0.02610
2127.45339,0.02625
2125.52460,0.02648
2123.59581,0.02651
2121.66702,0.02639
2119.73823,0.02628
2117.80945,0.02622
2115.88066,0.02616
2113.95187,0.02611
2112.02308,0.02615
2110.09429,0.02623
2108.16550,0.02632
2106.23672,0.02639
2104.30793,0.02640
2102.37914,0.02626
2100.45035,0.02619
2098.52156,0.02633
2096.59278,0.02644
2094.66399,0.02632
2092.73520,0.02627
2090.80641,0.02642
2088.87762,0.02648
2086.94883,0.02636
2085.02005,0.02637
2083.09126,0.02656
2081.16247,0.02664
2079.23368,0.02650
2077.30489,0.02626
2075.37610,0.02610
2073.44732,0.02614
2071.51853,0.02627
2069.58974,0.02632
2067.66095,0.02628
2065.73216,0.02611
2063.80338,0.02600
2061.87459,0.02622
2059.94580,0.02650
2058.01701,0.02641
2056.08822,0.02615
2054.15943,0.02615
2052.23065,0.02629
2050.30186,0.02632
2048.37307,0.02630
2046.44428,0.02629
2044.51549,0.02623
2042.58671,0.02616
2040.65792,0.02618
2038.72913,0.02622
2036.80034,0.02619
2034.87155,0.02615
2032.94276,0.02611
2031.01398,0.02613
2029.08519,0.02625
2027.15640,0.02635
2025.22761,0.02630
2023.29882,0.02614
2021.37004,0.02602
2019.44125,0.02598
2017.51246,0.02597
2015.58367,0.02594
2013.65488,0.02590
2011.72609,0.02595
2009.79731,0.02605
2007.86852,0.02605
2005.93973,0.02598
2004.01094,0.02601
2002.08215,0.02609
2000.15336,0.02608
1998.22458,0.02604
1996.29579,0.02611
1994.36700,0.02620
1992.43821,0.02619
1990.50942,0.02614
1988.58064,0.02613
1986.65185,0.02612
1984.72306,0.02613
1982.79427,0.02619
1980.86548,0.02617
1978.93669,0.02602
1977.00791,0.02581
1975.07912,0.02564
1973.15033,0.02564
1971.22154,0.02572
1969.29275,0.02581
1967.36397,0.02595
1965.43518,0.02600
1963.50639,0.02586
1961.57760,0.02576
1959.64881,0.02585
1957.72002,0.02597
1955.79124,0.02591
1953.86245,0.02569
1951.93366,0.02550
1950.00487,0.02544
1948.07608,0.02555
1946.14730,0.02583
1944.21851,0.02609
1942.28972,0.02612
1940.36093,0.02598
1938.43214,0.02583
1936.50335,0.02569
1934.57457,0.02566
1932.64578,0.02580
1930.71699,0.02595
1928.78820,0.02598
1926.85941,0.02595
1924.93063,0.02595
1923.00184,0.02589
1921.07305,0.02583
1919.14426,0.02580
1917.21547,0.02565
1915.28668,0.02545
1913.35790,0.02534
1911.42911,0.02530
1909.50032,0.02529
1907.57153,0.02528
1905.64274,0.02529
1903.71395,0.02538
1901.78517,0.02548
1899.85638,0.02548
1897.92759,0.02541
1895.99880,0.02540
1894.07001,0.02549
1892.14123,0.02559
1890.21244,0.02550
1888.28365,0.02535
1886.35486,0.02544
1884.42607,0.02560
1882.49728,0.02554
1880.56850,0.02540
1878.63971,0.02537
1876.71092,0.02545
1874.78213,0.02559
1872.85334,0.02576
1870.92456,0.02594
1868.99577,0.02586
1867.06698,0.02546
1865.13819,0.02510
1863.20940,0.02495
1861.28061,0.02503
1859.35183,0.02520
1857.42304,0.02527
1855.49425,0.02522
1853.56546,0.02520
1851.63667,0.02535
1849.70789,0.02554
1847.77910,0.02546
1845.85031,0.02503
1843.92152,0.02460
1841.99273,0.02461
1840.06394,0.02488
1838.13516,0.02504
1836.20637,0.02504
1834.27758,0.02511
1832.34879,0.02526
1830.42000,0.02522
1828.49122,0.02498
1826.56243,0.02498
1824.63364,0.02510
1822.70485,0.02492
1820.77606,0.02464
1818.84727,0.02465
1816.91849,0.02485
1814.98970,0.02492
1813.06091,0.02474
1811.13212,0.02445
1809.20333,0.02431
1807.27454,0.02437
1805.34576,0.02441
1803.41697,0.02442
1801.48818,0.02438
1799.55939,0.02419
1797.63060,0.02410
1795.70182,0.02423
1793.77303,0.02421
1791.84424,0.02389
1789.91545,0.02371
1787.98666,0.02361
1786.05787,0.02348
1784.12909,0.02352
1782.20030,0.02371
1780.27151,0.02368
1778.34272,0.02344
1776.41393,0.02319
1774.48515,0.02295
1772.55636,0.02273
1770.62757,0.02268
1768.69878,0.02278
1766.76999,0.02290
1764.84120,0.02292
1762.91242,0.02280
1760.98363,0.02262
1759.05484,0.02247
1757.12605,0.02220
1755.19726,0.02186
1753.26848,0.02172
1751.33969,0.02177
1749.41090,0.02189
1747.48211,0.02206
1745.55332,0.02226
1743.62453,0.02244
1741.69575,0.02257
1739.76696,0.02276
1737.83817,0.02318
1735.90938,0.02365
1733.98059,0.02388
1732.05180,0.02403
1730.12302,0.02434
1728.19423,0.02464
1726.26544,0.02487
1724.33665,0.02502
1722.40786,0.02516
1720.47908,0.02542
1718.55029,0.02559
1716.62150,0.02497
1714.69271,0.02419
1712.76392,0.02402
1710.83513,0.02407
1708.90635,0.02414
1706.97756,0.02437
1705.04877,0.02467
1703.11998,0.02470
1701.19119,0.02448
1699.26241,0.02415
1697.33362,0.02382
1695.40483,0.02343
1693.47604,0.02318
1691.54725,0.02312
1689.61846,0.02321
1687.68968,0.02348
1685.76089,0.02354
1683.83210,0.02287
1681.90331,0.02227
1679.97452,0.02219
1678.04574,0.02237
1676.11695,0.02271
1674.18816,0.02300
1672.25937,0.02308
1670.33058,0.02292
1668.40179,0.02255
1666.47301,0.02229
1664.54422,0.02220
1662.61543,0.02217
1660.68664,0.02223
1658.75785,0.02243
1656.82907,0.02273
1654.90028,0.02303
1652.97149,0.02288
1651.04270,0.02252
1649.11391,0.02240
1647.18512,0.02217
1645.25634,0.02206
1643.32755,0.02219
1641.39876,0.02230
1639.46997,0.02255
1637.54118,0.02284
1635.61239,0.02250
1633.68361,0.02202
1631.75482,0.02212
1629.82603,0.02229
1627.89724,0.02231
1625.96845,0.02239
1624.03967,0.02243
1622.11088,0.02222
1620.18209,0.02216
1618.25330,0.02238
1616.32451,0.02265
1614.39572,0.02284
1612.46694,0.02307
1610.53815,0.02319
1608.60936,0.02296
1606.68057,0.02254
1604.75178,0.02228
1602.82300,0.02217
1600.89421,0.02212
1598.96542,0.02224
1597.03663,0.02255
1595.10784,0.02282
1593.17905,0.02281
1591.25027,0.02261
1589.32148,0.02244
1587.39269,0.02237
1585.46390,0.02224
1583.53511,0.02200
1581.60633,0.02185
1579.67754,0.02196
1577.74875,0.02200
1575.81996,0.02160
1573.89117,0.02149
1571.96238,0.02178
1570.03360,0.02205
1568.10481,0.02208
1566.17602,0.02193
1564.24723,0.02189
1562.31844,0.02213
1560.38966,0.02233
1558.46087,0.02167
1556.53208,0.02132
1554.60329,0.02170
1552.67450,0.02210
1550.74571,0.02231
1548.81693,0.02233
1546.88814,0.02219
1544.95935,0.02194
1543.03056,0.02197
1541.10177,0.02251
1539.17298,0.02269
1537.24420,0.02260
1535.31541,0.02251
1533.38662,0.02231
1531.45783,0.02232
1529.52904,0.02250
1527.60026,0.02250
1525.67147,0.02239
1523.74268,0.02231
1521.81389,0.02229
1519.88510,0.02259
1517.95631,0.02295
1516.02753,0.02285
1514.09874,0.02237
1512.16995,0.02197
1510.24116,0.02199
1508.31237,0.02252
1506.38359,0.02256
1504.45480,0.02217
1502.52601,0.02224
1500.59722,0.02237
1498.66843,0.02221
1496.73964,0.02206
1494.81086,0.02230
1492.88207,0.02254
1490.95328,0.02247
1489.02449,0.02213
1487.09570,0.02208
1485.16692,0.02228
1483.23813,0.02234
1481.30934,0.02220
1479.38055,0.02216
1477.45176,0.02228
1475.52297,0.02225
1473.59419,0.02195
1471.66540,0.02162
1469.73661,0.02150
1467.80782,0.02154
1465.87903,0.02162
1463.95024,0.02165
1462.02146,0.02178
1460.09267,0.02200
1458.16388,0.02217
1456.23509,0.02197
1454.30630,0.02172
1452.37752,0.02178
1450.44873,0.02213
1448.51994,0.02251
1446.59115,0.02258
1444.66236,0.02236
1442.73357,0.02212
1440.80479,0.02197
1438.87600,0.02187
1436.94721,0.02176
1435.01842,0.02169
1433.08963,0.02166
1431.16085,0.02164
1429.23206,0.02171
1427.30327,0.02189
1425.37448,0.02189
1423.44569,0.02161
1421.51690,0.02129
1419.58812,0.02109
1417.65933,0.02111
1415.73054,0.02123
1413.80175,0.02129
1411.87296,0.02126
1409.94418,0.02117
1408.01539,0.02116
1406.08660,0.02128
1404.15781,0.02129
1402.22902,0.02116
1400.30023,0.02102
1398.37145,0.02088
1396.44266,0.02079
1394.51387,0.02078
1392.58508,0.02089
1390.65629,0.02110
1388.72751,0.02120
1386.79872,0.02107
1384.86993,0.02098
1382.94114,0.02096
1381.01235,0.02090
1379.08356,0.02097
1377.15478,0.02122
1375.22599,0.02145
1373.29720,0.02142
1371.36841,0.02126
1369.43962,0.02113
1367.51083,0.02105
1365.58205,0.02110
1363.65326,0.02109
1361.72447,0.02085
1359.79568,0.02072
1357.86689,0.02080
1355.93811,0.02087
1354.00932,0.02093
1352.08053,0.02096
1350.15174,0.02089
1348.22295,0.02086
1346.29416,0.02085
1344.36538,0.02067
1342.43659,0.02048
1340.50780,0.02053
1338.57901,0.02055
1336.65022,0.02027
1334.72144,0.02001
1332.79265,0.02004
1330.86386,0.02027
1328.93507,0.02045
1327.00628,0.02043
1325.07749,0.02028
1323.14871,0.02011
1321.21992,0.01999
1319.29113,0.01996
1317.36234,0.02008
1315.43355,0.02026
1313.50477,0.02032
1311.57598,0.02018
1309.64719,0.02000
1307.71840,0.01998
1305.78961,0.02001
1303.86082,0.02006
1301.93204,0.02022
1300.00325,0.02052
1298.07446,0.02074
1296.14567,0.02073
1294.21688,0.02063
1292.28810,0.02058
1290.35931,0.02062
1288.43052,0.02078
1286.50173,0.02099
1284.57294,0.02121
1282.64415,0.02150
1280.71537,0.02171
1278.78658,0.02170
1276.85779,0.02159
1274.92900,0.02156
1273.00021,0.02160
1271.07142,0.02166
1269.14264,0.02171
1267.21385,0.02182
1265.28506,0.02216
1263.35627,0.02254
1261.42748,0.02270
1259.49870,0.02260
1257.56991,0.02247
1255.64112,0.02259
1253.71233,0.02293
1251.78354,0.02323
1249.85475,0.02325
1247.92597,0.02300
1245.99718,0.02276
1244.06839,0.02271
1242.13960,0.02272
1240.21081,0.02264
1238.28203,0.02245
1236.35324,0.02223
1234.42445,0.02206
1232.49566,0.02203
1230.56687,0.02218
1228.63808,0.02239
1226.70930,0.02246
1224.78051,0.02224
1222.85172,0.02197
1220.92293,0.02194
1218.99414,0.02208
1217.06536,0.02221
1215.13657,0.02221
1213.20778,0.02210
1211.27899,0.02202
1209.35020,0.02199
1207.42141,0.02191
1205.49263,0.02185
1203.56384,0.02186
1201.63505,0.02169
1199.70626,0.02137
1197.77747,0.02125
1195.84868,0.02129
1193.91990,0.02112
1191.99111,0.02090
1190.06232,0.02093
1188.13353,0.02102
1186.20474,0.02101
1184.27596,0.02091
1182.34717,0.02063
1180.41838,0.02042
1178.48959,0.02042
1176.56080,0.02042
1174.63201,0.02036
1172.70323,0.02036
1170.77444,0.02037
1168.84565,0.02032
1166.91686,0.02018
1164.98807,0.02010
1163.05929,0.02019
1161.13050,0.02028
1159.20171,0.02032
1157.27292,0.02042
1155.34413,0.02040
1153.41534,0.02018
1151.48656,0.02006
1149.55777,0.02015
1147.62898,0.02022
1145.70019,0.02035
1143.77140,0.02049
1141.84262,0.02050
1139.91383,0.02049
1137.98504,0.02067
1136.05625,0.02101
1134.12746,0.02121
1132.19867,0.02104
1130.26989,0.02078
1128.34110,0.02078
1126.41231,0.02100
1124.48352,0.02138
1122.55473,0.02186
1120.62595,0.02212
1118.69716,0.02228
1116.76837,0.02258
1114.83958,0.02273
1112.91079,0.02264
1110.98200,0.02258
1109.05322,0.02252
1107.12443,0.02234
1105.19564,0.02216
1103.26685,0.02209
1101.33806,0.02197
1099.40927,0.02188
1097.48049,0.02216
1095.55170,0.02253
1093.62291,0.02246
1091.69412,0.02212
1089.76533,0.02196
1087.83655,0.02201
1085.90776,0.02207
1083.97897,0.02205
1082.05018,0.02218
1080.12139,0.02258
1078.19260,0.02289
1076.26382,0.02310
1074.33503,0.02349
1072.40624,0.02388
1070.47745,0.02422
1068.54866,0.02448
1066.61988,0.02454
1064.69109,0.02459
1062.76230,0.02470
1060.83351,0.02463
1058.90472,0.02438
1056.97593,0.02418
1055.04715,0.02412
1053.11836,0.02409
1051.18957,0.02397
1049.26078,0.02380
1047.33199,0.02361
1045.40321,0.02355
1043.47442,0.02382
1041.54563,0.02412
1039.61684,0.02399
1037.68805,0.02359
1035.75926,0.02335
1033.83048,0.02334
1031.90169,0.02321
1029.97290,0.02285
1028.04411,0.02266
1026.11532,0.02274
1024.18654,0.02283
1022.25775,0.02296
1020.32896,0.02317
1018.40017,0.02338
1016.47138,0.02351
1014.54259,0.02343
1012.61381,0.02332
1010.68502,0.02349
1008.75623,0.02391
1006.82744,0.02423
1004.89865,0.02424
1002.96986,0.02418
1001.04108,0.02425
999.11229,0.02417
997.18350,0.02406
995.25471,0.02409
993.32592,0.02403
991.39714,0.02395
989.46835,0.02413
987.53956,0.02448
985.61077,0.02479
983.68198,0.02494
981.75319,0.02479
979.82441,0.02448
977.89562,0.02420
975.96683,0.02387
974.03804,0.02353
972.10925,0.02345
970.18047,0.02370
968.25168,0.02396
966.32289,0.02394
964.39410,0.02371
962.46531,0.02362
960.53652,0.02376
958.60774,0.02394
956.67895,0.02395
954.75016,0.02377
952.82137,0.02358
950.89258,0.02344
948.96380,0.02340
947.03501,0.02343
945.10622,0.02332
943.17743,0.02310
941.24864,0.02305
939.31985,0.02317
937.39107,0.02315
935.46228,0.02301
933.53349,0.02287
931.60470,0.02265
929.67591,0.02250
927.74712,0.02247
925.81834,0.02241
923.88955,0.02240
921.96076,0.02251
920.03197,0.02255
918.10318,0.02259
916.17440,0.02273
914.24561,0.02279
912.31682,0.02267
910.38803,0.02245
908.45924,0.02222
906.53045,0.02208
904.60167,0.02213
902.67288,0.02236
900.74409,0.02261
898.81530,0.02280
896.88651,0.02288
894.95773,0.02282
893.02894,0.02282
891.10015,0.02290
889.17136,0.02278
887.24257,0.02259
885.31378,0.02266
883.38500,0.02279
881.45621,0.02274
879.52742,0.02260
877.59863,0.02223
875.66984,0.02179
873.74106,0.02191
871.81227,0.02241
869.88348,0.02260
867.95469,0.02243
866.02590,0.02225
864.09711,0.02226
862.16833,0.02233
860.23954,0.02234
858.31075,0.02240
856.38196,0.02253
854.45317,0.02263
852.52439,0.02250
850.59560,0.02215
848.66681,0.02198
846.73802,0.02206
844.80923,0.02202
842.88044,0.02166
840.95166,0.02131
839.02287,0.02142
837.09408,0.02172
835.16529,0.02176
833.23650,0.02178
831.30771,0.02205
829.37893,0.02222
827.45014,0.02196
825.52135,0.02146
823.59256,0.02126
821.66377,0.02152
819.73499,0.02179
817.80620,0.02190
815.87741,0.02190
813.94862,0.02155
812.01983,0.02102
810.09104,0.02082
808.16226,0.02083
806.23347,0.02077
804.30468,0.02078
802.37589,0.02080
800.44710,0.02064
798.51832,0.02066
796.58953,0.02099
794.66074,0.02107
792.73195,0.02082
790.80316,0.02081
788.87437,0.02117
786.94559,0.02152
785.01680,0.02161
783.08801,0.02137
781.15922,0.02099
779.23043,0.02097
777.30165,0.02145
775.37286,0.02175
773.44407,0.02144
771.51528,0.02090
769.58649,0.02072
767.65770,0.02098
765.72892,0.02117
763.80013,0.02107
761.87134,0.02083
759.94255,0.02053
758.01376,0.02019
756.08498,0.01987
754.15619,0.01957
752.22740,0.01931
750.29861,0.01925
748.36982,0.01950
746.44103,0.01983
744.51225,0.02005
742.58346,0.02020
740.65467,0.02029
738.72588,0.01998
736.79709,0.01943
734.86830,0.01932
732.93952,0.01962
731.01073,0.01989
729.08194,0.02004
727.15315,0.02001
725.22436,0.01987
723.29558,0.01979
721.36679,0.01962
719.43800,0.01934
717.50921,0.01936
715.58042,0.01942
713.65163,0.01922
711.72285,0.01929
709.79406,0.01976
707.86527,0.01994
705.93648,0.01972
704.00769,0.01962
702.07891,0.01948
700.15012,0.01912
698.22133,0.01898
696.29254,0.01916
694.36375,0.01928
692.43496,0.01925
690.50618,0.01920
688.57739,0.01912
686.64860,0.01903
684.71981,0.01913
682.79102,0.01944
680.86224,0.01966
678.93345,0.01983
677.00466,0.01996
675.07587,0.01984
673.14708,0.01978
671.21829,0.02004
669.28951,0.02020
667.36072,0.01965
665.43193,0.01882
663.50314,0.01849
661.57435,0.01868
659.64556,0.01888
657.71678,0.01858
655.78799,0.01809
653.85920,0.01767
651.93041,0.01725
650.00162,0.01712
648.07284,0.01733
646.14405,0.01758
644.21526,0.01789
642.28647,0.01833
640.35768,0.01874
638.42889,0.01876
636.50011,0.01861
634.57132,0.01845
632.64253,0.01819
630.71374,0.01809
628.78495,0.01795
626.85617,0.01775
624.92738,0.01812
622.99859,0.01891
621.06980,0.01942
619.14101,0.01976
617.21222,0.02014
615.28344,0.02031
613.35465,0.02050
611.42586,0.02064
609.49707,0.02046
607.56828,0.02015
605.63950,0.01939
603.71071,0.01856
601.78192,0.01901
599.85313,0.02009
