7496.92628,0.08755
7494.99756,0.08386
7493.06885,0.08132
7491.14013,0.08315
7489.21141,0.08715
7487.28269,0.09268
7485.35397,0.09870
7483.42526,0.09982
7481.49654,0.09639
7479.56782,0.09625
7477.63910,0.10125
7475.71039,0.10233
7473.78167,0.09693
7471.85295,0.09526
7469.92423,0.10079
7467.99551,0.10311
7466.06680,0.09604
7464.13808,0.08945
7462.20936,0.09146
7460.28064,0.09724
7458.35192,0.10043
7456.42321,0.10004
7454.49449,0.09918
7452.56577,0.10054
7450.63705,0.10061
7448.70834,0.09611
7446.77962,0.09356
7444.85090,0.09902
7442.92218,0.10363
7440.99346,0.09935
7439.06475,0.09402
7437.13603,0.09545
7435.20731,0.09987
7433.27859,0.10511
7431.34987,0.11046
7429.42116,0.11082
7427.49244,0.10631
7425.56372,0.10130
7423.63500,0.09581
7421.70629,0.09004
7419.77757,0.08748
7417.84885,0.09078
7415.92013,0.09612
7413.99141,0.10043
7412.06270,0.10378
7410.13398,0.10383
7408.20526,0.10140
7406.27654,0.10074
7404.34782,0.10069
7402.41911,0.09840
7400.49039,0.09669
7398.56167,0.09689
7396.63295,0.09400
7394.70424,0.09066
7392.77552,0.09635
7390.84680,0.10703
7388.91808,0.10929
7386.98936,0.10250
7385.06065,0.09576
7383.13193,0.09239
7381.20321,0.08846
7379.27449,0.08539
7377.34577,0.08713
7375.41706,0.09041
7373.48834,0.09193
7371.55962,0.09467
7369.63090,0.09792
7367.70219,0.09870
7365.77347,0.09755
7363.84475,0.09675
7361.91603,0.09610
7359.98731,0.09462
7358.05860,0.09655
7356.12988,0.10486
7354.20116,0.11277
7352.27244,0.11265
7350.34372,0.10395
7348.41501,0.09213
7346.48629,0.08704
7344.55757,0.09139
7342.62885,0.09669
7340.70014,0.09854
7338.77142,0.09954
7336.84270,0.10019
7334.91398,0.09996
7332.98526,0.10006
7331.05655,0.10123
7329.12783,0.10370
7327.19911,0.10231
7325.27039,0.09474
7323.34167,0.09006
7321.41296,0.09122
7319.48424,0.09240
7317.55552,0.09318
7315.62680,0.09257
7313.69809,0.08842
7311.76937,0.08675
7309.84065,0.09141
7307.91193,0.09665
7305.98321,0.09914
7304.05450,0.09770
7302.12578,0.09334
7300.19706,0.08933
7298.26834,0.08429
7296.33963,0.07968
7294.41091,0.08323
7292.48219,0.09175
7290.55347,0.09471
7288.62475,0.09233
7286.69604,0.09140
7284.76732,0.09268
7282.83860,0.09252
7280.90988,0.09158
7278.98116,0.09337
7277.05245,0.09717
7275.12373,0.09743
7273.19501,0.09242
7271.26629,0.08889
7269.33758,0.09130
7267.40886,0.09443
7265.48014,0.09294
7263.55142,0.09052
7261.62270,0.09158
7259.69399,0.09551
7257.76527,0.10079
7255.83655,0.10451
7253.90783,0.10293
7251.97911,0.09921
7250.05040,0.09822
7248.12168,0.09862
7246.19296,0.09854
7244.26424,0.09837
7242.33553,0.09850
7240.40681,0.09933
7238.47809,0.09815
7236.54937,0.09181
7234.62065,0.08381
7232.69194,0.08179
7230.76322,0.08552
7228.83450,0.08865
7226.90578,0.09011
7224.97706,0.08939
7223.04835,0.08528
7221.11963,0.08197
7219.19091,0.08265
7217.26219,0.08568
7215.33348,0.09043
7213.40476,0.09601
7211.47604,0.09844
7209.54732,0.09721
7207.61860,0.09558
7205.68989,0.09607
7203.76117,0.09904
7201.83245,0.10143
7199.90373,0.09914
7197.97501,0.09433
7196.04630,0.09171
7194.11758,0.09219
7192.18886,0.09296
7190.26014,0.09332
7188.33143,0.09441
7186.40271,0.09253
7184.47399,0.08529
7182.54527,0.08005
7180.61655,0.08340
7178.68784,0.09045
7176.75912,0.09613
7174.83040,0.10244
7172.90168,0.10778
7170.97296,0.10633
7169.04425,0.09938
7167.11553,0.09568
7165.18681,0.09699
7163.25809,0.09640
7161.32938,0.09139
7159.40066,0.08690
7157.47194,0.08705
7155.54322,0.09144
7153.61450,0.09453
7151.68579,0.09115
7149.75707,0.08535
7147.82835,0.08526
7145.89963,0.08967
7143.97091,0.09215
7142.04220,0.09191
7140.11348,0.09257
7138.18476,0.09489
7136.25604,0.09790
7134.32733,0.09940
7132.39861,0.09757
7130.46989,0.09590
7128.54117,0.09807
7126.61245,0.09818
7124.68374,0.09021
7122.75502,0.08106
7120.82630,0.08105
7118.89758,0.08800
7116.96887,0.09267
7115.04015,0.09124
7113.11143,0.08815
7111.18271,0.08970
7109.25399,0.09227
7107.32528,0.08833
7105.39656,0.08434
7103.46784,0.08889
7101.53912,0.09555
7099.61040,0.09719
7097.68169,0.09767
7095.75297,0.09797
7093.82425,0.09562
7091.89553,0.09610
7089.96682,0.10090
7088.03810,0.10334
7086.10938,0.10180
7084.18066,0.10018
7082.25194,0.09911
7080.32323,0.09641
7078.39451,0.09390
7076.46579,0.09413
7074.53707,0.09642
7072.60835,0.09894
7070.67964,0.09819
7068.75092,0.09348
7066.82220,0.09068
7064.89348,0.09267
7062.96477,0.09661
7061.03605,0.09949
7059.10733,0.09983
7057.17861,0.09862
7055.24989,0.09751
7053.32118,0.09703
7051.39246,0.09781
7049.46374,0.09638
7047.53502,0.09093
7045.60630,0.08769
7043.67759,0.08792
7041.74887,0.08777
7039.82015,0.09122
7037.89143,0.09725
7035.96272,0.09711
7034.03400,0.09203
7032.10528,0.09143
7030.17656,0.09733
7028.24784,0.10124
7026.31913,0.09924
7024.39041,0.09744
7022.46169,0.09716
7020.53297,0.09473
7018.60425,0.09030
7016.67554,0.08860
7014.74682,0.09226
7012.81810,0.09617
7010.88938,0.09569
7008.96067,0.09379
7007.03195,0.09481
7005.10323,0.09748
7003.17451,0.09721
7001.24579,0.09272
6999.31708,0.08713
6997.38836,0.08453
6995.45964,0.08580
6993.53092,0.09017
6991.60220,0.09600
6989.67349,0.10017
6987.74477,0.10116
6985.81605,0.09935
6983.88733,0.09524
6981.95862,0.09161
6980.02990,0.09250
6978.10118,0.09700
6976.17246,0.09971
6974.24374,0.09822
6972.31503,0.09536
6970.38631,0.09461
6968.45759,0.09590
6966.52887,0.09764
6964.60015,0.09726
6962.67144,0.09423
6960.74272,0.09330
6958.81400,0.09573
6956.88528,0.09846
6954.95657,0.10037
6953.02785,0.09906
6951.09913,0.09428
6949.17041,0.09085
6947.24169,0.09115
6945.31298,0.09296
6943.38426,0.09453
6941.45554,0.09542
6939.52682,0.09509
6937.59811,0.09267
6935.66939,0.08971
6933.74067,0.08957
6931.81195,0.09131
6929.88323,0.09140
6927.95452,0.08944
6926.02580,0.08784
6924.09708,0.08973
6922.16836,0.09467
6920.23964,0.09874
6918.31093,0.09976
6916.38221,0.09820
6914.45349,0.09605
6912.52477,0.09591
6910.59606,0.09873
6908.66734,0.10151
6906.73862,0.09943
6904.80990,0.09551
6902.88118,0.09571
6900.95247,0.09774
6899.02375,0.09919
6897.09503,0.10032
6895.16631,0.09785
6893.23759,0.09279
6891.30888,0.09080
6889.38016,0.09220
6887.45144,0.09448
6885.52272,0.09750
6883.59401,0.10105
6881.66529,0.10301
6879.73657,0.10246
6877.80785,0.09999
6875.87913,0.09601
6873.95042,0.09397
6872.02170,0.09551
6870.09298,0.09479
6868.16426,0.09042
6866.23554,0.08892
6864.30683,0.09033
6862.37811,0.09016
6860.44939,0.08832
6858.52067,0.08755
6856.59196,0.09025
6854.66324,0.09580
6852.73452,0.09975
6850.80580,0.09881
6848.87708,0.09540
6846.94837,0.09318
6845.01965,0.09227
6843.09093,0.09233
6841.16221,0.09227
6839.23349,0.09094
6837.30478,0.09088
6835.37606,0.09376
6833.44734,0.09598
6831.51862,0.09487
6829.58991,0.09291
6827.66119,0.09324
6825.73247,0.09600
6823.80375,0.09872
6821.87503,0.09730
6819.94632,0.09310
6818.01760,0.09263
6816.08888,0.09577
6814.16016,0.09625
6812.23144,0.09424
6810.30273,0.09389
6808.37401,0.09487
6806.44529,0.09408
6804.51657,0.09265
6802.58786,0.09447
6800.65914,0.09862
6798.73042,0.10166
6796.80170,0.10084
6794.87298,0.09594
6792.94427,0.09389
6791.01555,0.09678
6789.08683,0.09819
6787.15811,0.09822
6785.22939,0.09890
6783.30068,0.09763
6781.37196,0.09517
6779.44324,0.09383
6777.51452,0.09347
6775.58581,0.09452
6773.65709,0.09692
6771.72837,0.09826
6769.79965,0.09732
6767.87093,0.09689
6765.94222,0.09973
6764.01350,0.10331
6762.08478,0.10472
6760.15606,0.10480
6758.22735,0.10409
6756.29863,0.10263
6754.36991,0.10176
6752.44119,0.10096
6750.51247,0.09899
6748.58376,0.09788
6746.65504,0.09933
6744.72632,0.10016
6742.79760,0.09775
6740.86888,0.09445
6738.94017,0.09207
6737.01145,0.09148
6735.08273,0.09345
6733.15401,0.09494
6731.22530,0.09487
6729.29658,0.09533
6727.36786,0.09615
6725.43914,0.09867
6723.51042,0.10236
6721.58171,0.10261
6719.65299,0.10171
6717.72427,0.10311
6715.79555,0.10283
6713.86683,0.10022
6711.93812,0.09892
6710.00940,0.09837
6708.08068,0.09701
6706.15196,0.09666
6704.22325,0.09890
6702.29453,0.10096
6700.36581,0.10013
6698.43709,0.09788
6696.50837,0.09740
6694.57966,0.09959
6692.65094,0.10184
6690.72222,0.10108
6688.79350,0.09813
6686.86478,0.09569
6684.93607,0.09452
6683.00735,0.09430
6681.07863,0.09426
6679.14991,0.09311
6677.22120,0.09119
6675.29248,0.09044
6673.36376,0.09248
6671.43504,0.09527
6669.50632,0.09621
6667.57761,0.09690
6665.64889,0.09994
6663.72017,0.10265
6661.79145,0.10033
6659.86273,0.09543
6657.93402,0.09316
6656.00530,0.09329
6654.07658,0.09475
6652.14786,0.09635
6650.21915,0.09634
6648.29043,0.09555
6646.36171,0.09535
6644.43299,0.09526
6642.50427,0.09655
6640.57556,0.10074
6638.64684,0.10319
6636.71812,0.09936
6634.78940,0.09338
6632.86068,0.09094
6630.93197,0.09113
6629.00325,0.09182
6627.07453,0.09379
6625.14581,0.09500
6623.21710,0.09319
6621.28838,0.09106
6619.35966,0.09147
6617.43094,0.09224
6615.50222,0.09009
6613.57351,0.08810
6611.64479,0.08974
6609.71607,0.09294
6607.78735,0.09652
6605.85863,0.09996
6603.92992,0.10207
6602.00120,0.10199
6600.07248,0.09860
6598.14376,0.09475
6596.21505,0.09433
6594.28633,0.09644
6592.35761,0.10046
6590.42889,0.10444
6588.50017,0.10361
6586.57146,0.09988
6584.64274,0.09819
6582.71402,0.09836
6580.78530,0.09855
6578.85659,0.09642
6576.92787,0.09188
6574.99915,0.08967
6573.07043,0.09247
6571.14171,0.09703
6569.21300,0.09886
6567.28428,0.09635
6565.35556,0.09291
6563.42684,0.09262
6561.49812,0.09394
6559.56941,0.09380
6557.64069,0.09326
6555.71197,0.09404
6553.78325,0.09625
6551.85454,0.09834
6549.92582,0.09847
6547.99710,0.09715
6546.06838,0.09638
6544.13966,0.09707
6542.21095,0.09857
6540.28223,0.10021
6538.35351,0.10139
6536.42479,0.09995
6534.49607,0.09553
6532.56736,0.09153
6530.63864,0.09041
6528.70992,0.09199
6526.78120,0.09564
6524.85249,0.09794
6522.92377,0.09643
6520.99505,0.09510
6519.06633,0.09680
6517.13761,0.09900
6515.20890,0.09954
6513.28018,0.09781
6511.35146,0.09578
6509.42274,0.09611
6507.49402,0.09768
6505.56531,0.09953
6503.63659,0.10162
6501.70787,0.10106
6499.77915,0.09825
6497.85044,0.09700
6495.92172,0.09639
6493.99300,0.09360
6492.06428,0.09065
6490.13556,0.09140
6488.20685,0.09541
6486.27813,0.09737
6484.34941,0.09566
6482.42069,0.09403
6480.49197,0.09397
6478.56326,0.09447
6476.63454,0.09481
6474.70582,0.09500
6472.77710,0.09508
6470.84839,0.09468
6468.91967,0.09454
6466.99095,0.09425
6465.06223,0.09323
6463.13351,0.09462
6461.20480,0.09970
6459.27608,0.10361
6457.34736,0.10286
6455.41864,0.10001
6453.48992,0.09742
6451.56121,0.09523
6449.63249,0.09523
6447.70377,0.09869
6445.77505,0.10210
6443.84634,0.10031
6441.91762,0.09475
6439.98890,0.09171
6438.06018,0.09272
6436.13146,0.09448
6434.20275,0.09572
6432.27403,0.09662
6430.34531,0.09714
6428.41659,0.09776
6426.48787,0.09751
6424.55916,0.09552
6422.63044,0.09386
6420.70172,0.09475
6418.77300,0.09654
6416.84429,0.09668
6414.91557,0.09749
6412.98685,0.09975
6411.05813,0.10025
6409.12941,0.09878
6407.20070,0.09675
6405.27198,0.09449
6403.34326,0.09364
6401.41454,0.09443
6399.48583,0.09368
6397.55711,0.09118
6395.62839,0.09086
6393.69967,0.09276
6391.77095,0.09489
6389.84224,0.09713
6387.91352,0.09868
6385.98480,0.09914
6384.05608,0.09954
6382.12736,0.09902
6380.19865,0.09667
6378.26993,0.09475
6376.34121,0.09507
6374.41249,0.09593
6372.48378,0.09576
6370.55506,0.09558
6368.62634,0.09635
6366.69762,0.09775
6364.76890,0.09917
6362.84019,0.09979
6360.91147,0.09881
6358.98275,0.09635
6357.05403,0.09499
6355.12531,0.09677
6353.19660,0.09872
6351.26788,0.09738
6349.33916,0.09530
6347.41044,0.09634
6345.48173,0.09899
6343.55301,0.10047
6341.62429,0.10134
6339.69557,0.10190
6337.76685,0.10006
6335.83814,0.09534
6333.90942,0.09202
6331.98070,0.09276
6330.05198,0.09532
6328.12326,0.09834
6326.19455,0.09979
6324.26583,0.09749
6322.33711,0.09526
6320.40839,0.09597
6318.47968,0.09724
6316.55096,0.09808
6314.62224,0.09794
6312.69352,0.09587
6310.76480,0.09347
6308.83609,0.09183
6306.90737,0.09098
6304.97865,0.09186
6303.04993,0.09294
6301.12121,0.09156
6299.19250,0.09068
6297.26378,0.09375
6295.33506,0.09793
6293.40634,0.09981
6291.47763,0.10032
6289.54891,0.10165
6287.62019,0.10234
6285.69147,0.09988
6283.76275,0.09673
6281.83404,0.09607
6279.90532,0.09652
6277.97660,0.09524
6276.04788,0.09320
6274.11916,0.09330
6272.19045,0.09567
6270.26173,0.09771
6268.33301,0.09741
6266.40429,0.09570
6264.47558,0.09453
6262.54686,0.09459
6260.61814,0.09546
6258.68942,0.09578
6256.76070,0.09569
6254.83199,0.09686
6252.90327,0.09870
6250.97455,0.09860
6249.04583,0.09681
6247.11711,0.09594
6245.18840,0.09659
6243.25968,0.09726
6241.33096,0.09655
6239.40224,0.09498
6237.47353,0.09423
6235.54481,0.09468
6233.61609,0.09566
6231.68737,0.09691
6229.75865,0.09804
6227.82994,0.09842
6225.90122,0.09855
6223.97250,0.09842
6222.04378,0.09780
6220.11506,0.09800
6218.18635,0.09936
6216.25763,0.10069
6214.32891,0.10115
6212.40019,0.09994
6210.47148,0.09742
6208.54276,0.09538
6206.61404,0.09422
6204.68532,0.09339
6202.75660,0.09364
6200.82789,0.09456
6198.89917,0.09506
6196.97045,0.09587
6195.04173,0.09700
6193.11302,0.09668
6191.18430,0.09524
6189.25558,0.09498
6187.32686,0.09537
6185.39814,0.09480
6183.46943,0.09410
6181.54071,0.09360
6179.61199,0.09281
6177.68327,0.09294
6175.75455,0.09541
6173.82584,0.09862
6171.89712,0.09979
6169.96840,0.09913
6168.03968,0.09823
6166.11097,0.09783
6164.18225,0.09819
6162.25353,0.09892
6160.32481,0.09863
6158.39609,0.09668
6156.46738,0.09538
6154.53866,0.09613
6152.60994,0.09677
6150.68122,0.09633
6148.75250,0.09647
6146.82379,0.09725
6144.89507,0.09766
6142.96635,0.09841
6141.03763,0.09921
6139.10892,0.09833
6137.18020,0.09668
6135.25148,0.09617
6133.32276,0.09645
6131.39404,0.09600
6129.46533,0.09453
6127.53661,0.09390
6125.60789,0.09579
6123.67917,0.09841
6121.75045,0.09906
6119.82174,0.09792
6117.89302,0.09554
6115.96430,0.09269
6114.03558,0.09272
6112.10687,0.09626
6110.17815,0.09918
6108.24943,0.09938
6106.32071,0.09813
6104.39199,0.09635
6102.46328,0.09431
6100.53456,0.09352
6098.60584,0.09540
6096.67712,0.09815
6094.74840,0.09883
6092.81969,0.09680
6090.89097,0.09364
6088.96225,0.09213
6087.03353,0.09309
6085.10482,0.09406
6083.17610,0.09417
6081.24738,0.09530
6079.31866,0.09706
6077.38994,0.09720
6075.46123,0.09661
6073.53251,0.09693
6071.60379,0.09704
6069.67507,0.09621
6067.74635,0.09566
6065.81764,0.09582
6063.88892,0.09741
6061.96020,0.10068
6060.03148,0.10252
6058.10277,0.10102
6056.17405,0.09857
6054.24533,0.09811
6052.31661,0.09949
6050.38789,0.09944
6048.45918,0.09670
6046.53046,0.09389
6044.60174,0.09348
6042.67302,0.09477
6040.74430,0.09565
6038.81559,0.09586
6036.88687,0.09610
6034.95815,0.09663
6033.02943,0.09836
6031.10072,0.10113
6029.17200,0.10199
6027.24328,0.10083
6025.31456,0.10119
6023.38584,0.10232
6021.45713,0.10117
6019.52841,0.09886
6017.59969,0.09794
6015.67097,0.09853
6013.74226,0.09904
6011.81354,0.09896
6009.88482,0.09880
6007.95610,0.09856
6006.02738,0.09877
6004.09867,0.09905
6002.16995,0.09814
6000.24123,0.09677
5998.31251,0.09639
5996.38379,0.09737
5994.45508,0.09837
5992.52636,0.09789
5990.59764,0.09703
5988.66892,0.09709
5986.74021,0.09761
5984.81149,0.09767
5982.88277,0.09686
5980.95405,0.09534
5979.02533,0.09324
5977.09662,0.09188
5975.16790,0.09318
5973.23918,0.09652
5971.31046,0.09941
5969.38174,0.10002
5967.45303,0.09906
5965.52431,0.09822
5963.59559,0.09741
5961.66687,0.09609
5959.73816,0.09472
5957.80944,0.09415
5955.88072,0.09480
5953.95200,0.09564
5952.02328,0.09542
5950.09457,0.09445
5948.16585,0.09410
5946.23713,0.09467
5944.30841,0.09530
5942.37969,0.09553
5940.45098,0.09522
5938.52226,0.09460
5936.59354,0.09481
5934.66482,0.09583
5932.73611,0.09619
5930.80739,0.09517
5928.87867,0.09369
5926.94995,0.09322
5925.02123,0.09417
5923.09252,0.09561
5921.16380,0.09559
5919.23508,0.09391
5917.30636,0.09305
5915.37764,0.09332
5913.44893,0.09376
5911.52021,0.09490
5909.59149,0.09535
5907.66277,0.09401
5905.73406,0.09368
5903.80534,0.09521
5901.87662,0.09653
5899.94790,0.09743
5898.01918,0.09751
5896.09047,0.09628
5894.16175,0.09578
5892.23303,0.09664
5890.30431,0.09764
5888.37559,0.09822
5886.44688,0.09747
5884.51816,0.09600
5882.58944,0.09561
5880.66072,0.09542
5878.73201,0.09451
5876.80329,0.09387
5874.87457,0.09401
5872.94585,0.09510
5871.01713,0.09637
5869.08842,0.09639
5867.15970,0.09590
5865.23098,0.09590
5863.30226,0.09573
5861.37354,0.09475
5859.44483,0.09281
5857.51611,0.09127
5855.58739,0.09199
5853.65867,0.09375
5851.72996,0.09470
5849.80124,0.09468
5847.87252,0.09381
5845.94380,0.09266
5844.01508,0.09226
5842.08637,0.09240
5840.15765,0.09229
5838.22893,0.09215
5836.30021,0.09253
5834.37150,0.09319
5832.44278,0.09318
5830.51406,0.09213
5828.58534,0.09130
5826.65662,0.09122
5824.72791,0.09094
5822.79919,0.09071
5820.87047,0.09118
5818.94175,0.09161
5817.01303,0.09160
5815.08432,0.09205
5813.15560,0.09208
5811.22688,0.08996
5809.29816,0.08716
5807.36945,0.08613
5805.44073,0.08696
5803.51201,0.08820
5801.58329,0.08873
5799.65457,0.08870
5797.72586,0.08812
5795.79714,0.08639
5793.86842,0.08468
5791.93970,0.08507
5790.01098,0.08712
5788.08227,0.08895
5786.15355,0.08931
5784.22483,0.08786
5782.29611,0.08614
5780.36740,0.08565
5778.43868,0.08555
5776.50996,0.08486
5774.58124,0.08445
5772.65252,0.08490
5770.72381,0.08556
5768.79509,0.08623
5766.86637,0.08737
5764.93765,0.08869
5763.00893,0.08936
5761.08022,0.08939
5759.15150,0.08924
5757.22278,0.08920
5755.29406,0.08972
5753.36535,0.09033
5751.43663,0.09070
5749.50791,0.09169
5747.57919,0.09261
5745.65047,0.09173
5743.72176,0.09047
5741.79304,0.09081
5739.86432,0.09149
5737.93560,0.09087
5736.00688,0.09001
5734.07817,0.09055
5732.14945,0.09275
5730.22073,0.09575
5728.29201,0.09717
5726.36330,0.09538
5724.43458,0.09241
5722.50586,0.09095
5720.57714,0.09190
5718.64842,0.09403
5716.71971,0.09527
5714.79099,0.09549
5712.86227,0.09532
5710.93355,0.09460
5709.00483,0.09399
5707.07612,0.09446
5705.14740,0.09528
5703.21868,0.09541
5701.28996,0.09522
5699.36125,0.09513
5697.43253,0.09451
5695.50381,0.09325
5693.57509,0.09296
5691.64637,0.09416
5689.71766,0.09514
5687.78894,0.09467
5685.86022,0.09333
5683.93150,0.09248
5682.00278,0.09214
5680.07407,0.09150
5678.14535,0.09067
5676.21663,0.08974
5674.28791,0.08931
5672.35920,0.08940
5670.43048,0.08895
5668.50176,0.08872
5666.57304,0.08941
5664.64432,0.08997
5662.71561,0.09029
5660.78689,0.09038
5658.85817,0.09034
5656.92945,0.09142
5655.00074,0.09307
5653.07202,0.09360
5651.14330,0.09308
5649.21458,0.09245
5647.28586,0.09267
5645.35715,0.09350
5643.42843,0.09370
5641.49971,0.09341
5639.57099,0.09368
5637.64227,0.09424
5635.71356,0.09410
5633.78484,0.09413
5631.85612,0.09534
5629.92740,0.09620
5627.99869,0.09584
5626.06997,0.09505
5624.14125,0.09393
5622.21253,0.09238
5620.28381,0.09139
5618.35510,0.09208
5616.42638,0.09382
5614.49766,0.09492
5612.56894,0.09497
5610.64022,0.09460
5608.71151,0.09456
5606.78279,0.09533
5604.85407,0.09625
5602.92535,0.09632
5600.99664,0.09536
5599.06792,0.09378
5597.13920,0.09283
5595.21048,0.09397
5593.28176,0.09623
5591.35305,0.09695
5589.42433,0.09593
5587.49561,0.09498
5585.56689,0.09433
5583.63817,0.09413
5581.70946,0.09534
5579.78074,0.09675
5577.85202,0.09648
5575.92330,0.09542
5573.99459,0.09501
5572.06587,0.09434
5570.13715,0.09290
5568.20843,0.09228
5566.27971,0.09320
5564.35100,0.09451
5562.42228,0.09533
5560.49356,0.09570
5558.56484,0.09582
5556.63612,0.09581
5554.70741,0.09562
5552.77869,0.09492
5550.84997,0.09393
5548.92125,0.09357
5546.99254,0.09431
5545.06382,0.09536
5543.13510,0.09534
5541.20638,0.09493
5539.27766,0.09594
5537.34895,0.09684
5535.42023,0.09557
5533.49151,0.09418
5531.56279,0.09457
5529.63407,0.09547
5527.70536,0.09570
5525.77664,0.09556
5523.84792,0.09548
5521.91920,0.09520
5519.99049,0.09481
5518.06177,0.09475
5516.13305,0.09461
5514.20433,0.09410
5512.27561,0.09404
5510.34690,0.09477
5508.41818,0.09534
5506.48946,0.09492
5504.56074,0.09431
5502.63202,0.09407
5500.70331,0.09386
5498.77459,0.09374
5496.84587,0.09410
5494.91715,0.09478
5492.98844,0.09527
5491.05972,0.09557
5489.13100,0.09599
5487.20228,0.09659
5485.27356,0.09720
5483.34485,0.09685
5481.41613,0.09541
5479.48741,0.09454
5477.55869,0.09484
5475.62998,0.09533
5473.70126,0.09598
5471.77254,0.09669
5469.84382,0.09615
5467.91510,0.09402
5465.98639,0.09204
5464.05767,0.09202
5462.12895,0.09368
5460.20023,0.09558
5458.27151,0.09648
5456.34280,0.09639
5454.41408,0.09632
5452.48536,0.09645
5450.55664,0.09654
5448.62793,0.09657
5446.69921,0.09589
5444.77049,0.09472
5442.84177,0.09432
5440.91305,0.09471
5438.98434,0.09526
5437.05562,0.09512
5435.12690,0.09385
5433.19818,0.09280
5431.26946,0.09322
5429.34075,0.09425
5427.41203,0.09495
5425.48331,0.09576
5423.55459,0.09655
5421.62588,0.09712
5419.69716,0.09787
5417.76844,0.09807
5415.83972,0.09752
5413.91100,0.09695
5411.98229,0.09671
5410.05357,0.09715
5408.12485,0.09781
5406.19613,0.09785
5404.26741,0.09745
5402.33870,0.09754
5400.40998,0.09834
5398.48126,0.09894
5396.55254,0.09840
5394.62383,0.09669
5392.69511,0.09544
5390.76639,0.09553
5388.83767,0.09563
5386.90895,0.09503
5384.98024,0.09467
5383.05152,0.09566
5381.12280,0.09701
5379.19408,0.09716
5377.26536,0.09656
5375.33665,0.09704
5373.40793,0.09843
5371.47921,0.09886
5369.55049,0.09875
5367.62178,0.09911
5365.69306,0.09877
5363.76434,0.09727
5361.83562,0.09646
5359.90690,0.09732
5357.97819,0.09796
5356.04947,0.09663
5354.12075,0.09522
5352.19203,0.09646
5350.26331,0.09882
5348.33460,0.10015
5346.40588,0.10031
5344.47716,0.09943
5342.54844,0.09825
5340.61973,0.09736
5338.69101,0.09745
5336.76229,0.09909
5334.83357,0.09985
5332.90485,0.09855
5330.97614,0.09694
5329.04742,0.09615
5327.11870,0.09622
5325.18998,0.09619
5323.26126,0.09574
5321.33255,0.09587
5319.40383,0.09646
5317.47511,0.09670
5315.54639,0.09684
5313.61768,0.09752
5311.68896,0.09848
5309.76024,0.09859
5307.83152,0.09780
5305.90280,0.09767
5303.97409,0.09837
5302.04537,0.09869
5300.11665,0.09847
5298.18793,0.09793
5296.25922,0.09737
5294.33050,0.09741
5292.40178,0.09790
5290.47306,0.09825
5288.54434,0.09835
5286.61563,0.09810
5284.68691,0.09733
5282.75819,0.09668
5280.82947,0.09685
5278.90075,0.09737
5276.97204,0.09747
5275.04332,0.09707
5273.11460,0.09696
5271.18588,0.09737
5269.25717,0.09758
5267.32845,0.09772
5265.39973,0.09775
5263.47101,0.09709
5261.54229,0.09664
5259.61358,0.09670
5257.68486,0.09642
5255.75614,0.09590
5253.82742,0.09609
5251.89870,0.09711
5249.96999,0.09785
5248.04127,0.09750
5246.11255,0.09639
5244.18383,0.09541
5242.25512,0.09529
5240.32640,0.09594
5238.39768,0.09689
5236.46896,0.09771
5234.54024,0.09802
5232.61153,0.09791
5230.68281,0.09766
5228.75409,0.09732
5226.82537,0.09718
5224.89665,0.09763
5222.96794,0.09816
5221.03922,0.09822
5219.11050,0.09804
5217.18178,0.09761
5215.25307,0.09698
5213.32435,0.09670
5211.39563,0.09691
5209.46691,0.09738
5207.53819,0.09762
5205.60948,0.09757
5203.68076,0.09802
5201.75204,0.09842
5199.82332,0.09816
5197.89460,0.09800
5195.96589,0.09821
5194.03717,0.09803
5192.10845,0.09728
5190.17973,0.09664
5188.25102,0.09655
5186.32230,0.09666
5184.39358,0.09672
5182.46486,0.09678
5180.53614,0.09695
5178.60743,0.09737
5176.67871,0.09760
5174.74999,0.09726
5172.82127,0.09681
5170.89255,0.09645
5168.96384,0.09658
5167.03512,0.09762
5165.10640,0.09869
5163.17768,0.09882
5161.24897,0.09839
5159.32025,0.09819
5157.39153,0.09838
5155.46281,0.09857
5153.53409,0.09808
5151.60538,0.09691
5149.67666,0.09631
5147.74794,0.09655
5145.81922,0.09674
5143.89050,0.09681
5141.96179,0.09733
5140.03307,0.09807
5138.10435,0.09813
5136.17563,0.09768
5134.24692,0.09763
5132.31820,0.09782
5130.38948,0.09782
5128.46076,0.09762
5126.53204,0.09735
5124.60333,0.09742
5122.67461,0.09776
5120.74589,0.09768
5118.81717,0.09737
5116.88846,0.09745
5114.95974,0.09758
5113.03102,0.09759
5111.10230,0.09780
5109.17358,0.09770
5107.24487,0.09719
5105.31615,0.09702
5103.38743,0.09696
5101.45871,0.09645
5099.52999,0.09610
5097.60128,0.09646
5095.67256,0.09697
5093.74384,0.09718
5091.81512,0.09764
5089.88641,0.09854
5087.95769,0.09864
5086.02897,0.09755
5084.10025,0.09647
5082.17153,0.09594
5080.24282,0.09580
5078.31410,0.09615
5076.38538,0.09684
5074.45666,0.09748
5072.52794,0.09792
5070.59923,0.09810
5068.67051,0.09792
5066.74179,0.09756
5064.81307,0.09745
5062.88436,0.09789
5060.95564,0.09842
5059.02692,0.09832
5057.09820,0.09799
5055.16948,0.09844
5053.24077,0.09954
5051.31205,0.10027
5049.38333,0.10029
5047.45461,0.09992
5045.52589,0.09919
5043.59718,0.09823
5041.66846,0.09751
5039.73974,0.09717
5037.81102,0.09703
5035.88231,0.09699
5033.95359,0.09692
5032.02487,0.09673
5030.09615,0.09679
5028.16743,0.09754
5026.23872,0.09858
5024.31000,0.09917
5022.38128,0.09909
5020.45256,0.09855
5018.52384,0.09821
5016.59513,0.09848
5014.66641,0.09870
5012.73769,0.09847
5010.80897,0.09839
5008.88026,0.09825
5006.95154,0.09761
5005.02282,0.09724
5003.09410,0.09760
5001.16538,0.09801
4999.23667,0.09771
4997.30795,0.09710
4995.37923,0.09738
4993.45051,0.09840
4991.52179,0.09917
4989.59308,0.09911
4987.66436,0.09818
4985.73564,0.09731
4983.80692,0.09765
4981.87821,0.09877
4979.94949,0.09949
4978.02077,0.09929
4976.09205,0.09848
4974.16333,0.09809
4972.23462,0.09834
4970.30590,0.09845
4968.37718,0.09815
4966.44846,0.09759
4964.51974,0.09726
4962.59103,0.09738
4960.66231,0.09744
4958.73359,0.09728
4956.80487,0.09713
4954.87616,0.09701
4952.94744,0.09707
4951.01872,0.09747
4949.09000,0.09823
4947.16128,0.09929
4945.23257,0.09994
4943.30385,0.09976
4941.37513,0.09923
4939.44641,0.09875
4937.51769,0.09841
4935.58898,0.09841
4933.66026,0.09856
4931.73154,0.09820
4929.80282,0.09741
4927.87411,0.09716
4925.94539,0.09742
4924.01667,0.09745
4922.08795,0.09768
4920.15923,0.09851
4918.23052,0.09898
4916.30180,0.09853
4914.37308,0.09828
4912.44436,0.09865
4910.51565,0.09860
4908.58693,0.09851
4906.65821,0.09919
4904.72949,0.09982
4902.80077,0.09953
4900.87206,0.09850
4898.94334,0.09771
4897.01462,0.09773
4895.08590,0.09809
4893.15718,0.09833
4891.22847,0.09842
4889.29975,0.09838
4887.37103,0.09842
4885.44231,0.09859
4883.51360,0.09855
4881.58488,0.09856
4879.65616,0.09918
4877.72744,0.10015
4875.79872,0.10073
4873.87001,0.10024
4871.94129,0.09883
4870.01257,0.09780
4868.08385,0.09805
4866.15513,0.09894
4864.22642,0.09907
4862.29770,0.09827
4860.36898,0.09770
4858.44026,0.09783
4856.51155,0.09820
4854.58283,0.09882
4852.65411,0.09982
4850.72539,0.10055
4848.79667,0.10024
4846.86796,0.09942
4844.93924,0.09937
4843.01052,0.10012
4841.08180,0.10068
4839.15308,0.10066
4837.22437,0.10053
4835.29565,0.10043
4833.36693,0.09959
4831.43821,0.09832
4829.50950,0.09805
4827.58078,0.09843
4825.65206,0.09835
4823.72334,0.09830
4821.79462,0.09854
4819.86591,0.09852
4817.93719,0.09860
4816.00847,0.09898
4814.07975,0.09905
4812.15103,0.09892
4810.22232,0.09907
4808.29360,0.09920
4806.36488,0.09893
4804.43616,0.09874
4802.50745,0.09905
4800.57873,0.09953
4798.65001,0.09976
4796.72129,0.09975
4794.79257,0.09981
4792.86386,0.09961
4790.93514,0.09898
4789.00642,0.09869
4787.07770,0.09898
4785.14898,0.09941
4783.22027,0.09996
4781.29155,0.10041
4779.36283,0.10034
4777.43411,0.10009
4775.50540,0.10020
4773.57668,0.10031
4771.64796,0.09995
4769.71924,0.09943
4767.79052,0.09927
4765.86181,0.09936
4763.93309,0.09914
4762.00437,0.09855
4760.07565,0.09814
4758.14693,0.09820
4756.21822,0.09860
4754.28950,0.09885
4752.36078,0.09853
4750.43206,0.09837
4748.50335,0.09910
4746.57463,0.10010
4744.64591,0.10035
4742.71719,0.09989
4740.78847,0.09973
4738.85976,0.10031
4736.93104,0.10107
4735.00232,0.10147
4733.07360,0.10142
4731.14489,0.10095
4729.21617,0.10037
4727.28745,0.10004
4725.35873,0.09968
4723.43001,0.09924
4721.50130,0.09919
4719.57258,0.09935
4717.64386,0.09943
4715.71514,0.09945
4713.78642,0.09950
4711.85771,0.09965
4709.92899,0.09981
4708.00027,0.10012
4706.07155,0.10079
4704.14284,0.10136
4702.21412,0.10138
4700.28540,0.10110
4698.35668,0.10072
4696.42796,0.10001
4694.49925,0.09927
4692.57053,0.09935
4690.64181,0.09999
4688.71309,0.10013
4686.78437,0.09970
4684.85566,0.09927
4682.92694,0.09908
4680.99822,0.09918
4679.06950,0.09948
4677.14079,0.09985
4675.21207,0.10032
4673.28335,0.10080
4671.35463,0.10095
4669.42591,0.10080
4667.49720,0.10066
4665.56848,0.10027
4663.63976,0.09967
4661.71104,0.09964
4659.78232,0.10015
4657.85361,0.10019
4655.92489,0.09976
4653.99617,0.09939
4652.06745,0.09886
4650.13874,0.09832
4648.21002,0.09843
4646.28130,0.09895
4644.35258,0.09925
4642.42386,0.09941
4640.49515,0.09975
4638.56643,0.10021
4636.63771,0.10071
4634.70899,0.10115
4632.78027,0.10142
4630.85156,0.10153
4628.92284,0.10163
4626.99412,0.10157
4625.06540,0.10114
4623.13669,0.10050
4621.20797,0.10003
4619.27925,0.09971
4617.35053,0.09935
4615.42181,0.09923
4613.49310,0.09945
4611.56438,0.09958
4609.63566,0.09952
4607.70694,0.09959
4605.77822,0.09979
4603.84951,0.09970
4601.92079,0.09966
4599.99207,0.10030
4598.06335,0.10107
4596.13464,0.10124
4594.20592,0.10097
4592.27720,0.10061
4590.34848,0.10046
4588.41976,0.10074
4586.49105,0.10092
4584.56233,0.10030
4582.63361,0.09920
4580.70489,0.09823
4578.77617,0.09796
4576.84746,0.09850
4574.91874,0.09896
4572.99002,0.09889
4571.06130,0.09884
4569.13259,0.09934
4567.20387,0.10010
4565.27515,0.10047
4563.34643,0.10047
4561.41771,0.10036
4559.48900,0.10040
4557.56028,0.10082
4555.63156,0.10108
4553.70284,0.10086
4551.77413,0.10064
4549.84541,0.10027
4547.91669,0.09953
4545.98797,0.09913
4544.05925,0.09948
4542.13054,0.10009
4540.20182,0.10018
4538.27310,0.09947
4536.34438,0.09873
4534.41566,0.09881
4532.48695,0.09958
4530.55823,0.10021
4528.62951,0.10040
4526.70079,0.10061
4524.77208,0.10095
4522.84336,0.10112
4520.91464,0.10093
4518.98592,0.10039
4517.05720,0.09961
4515.12849,0.09899
4513.19977,0.09883
4511.27105,0.09881
4509.34233,0.09846
4507.41361,0.09791
4505.48490,0.09753
4503.55618,0.09752
4501.62746,0.09796
4499.69874,0.09871
4497.77003,0.09940
4495.84131,0.09981
4493.91259,0.10015
4491.98387,0.10047
4490.05515,0.10035
4488.12644,0.09985
4486.19772,0.09961
4484.26900,0.09977
4482.34028,0.09984
4480.41156,0.09964
4478.48285,0.09939
4476.55413,0.09897
4474.62541,0.09833
4472.69669,0.09798
4470.76798,0.09818
4468.83926,0.09838
4466.91054,0.09833
4464.98182,0.09835
4463.05310,0.09852
4461.12439,0.09868
4459.19567,0.09876
4457.26695,0.09867
4455.33823,0.09860
4453.40951,0.09877
4451.48080,0.09880
4449.55208,0.09848
4447.62336,0.09817
4445.69464,0.09778
4443.76593,0.09713
4441.83721,0.09679
4439.90849,0.09703
4437.97977,0.09734
4436.05105,0.09739
4434.12234,0.09727
4432.19362,0.09736
4430.26490,0.09770
4428.33618,0.09786
4426.40746,0.09775
4424.47875,0.09748
4422.55003,0.09720
4420.62131,0.09733
4418.69259,0.09740
4416.76388,0.09678
4414.83516,0.09603
4412.90644,0.09560
4410.97772,0.09518
4409.04900,0.09454
4407.12029,0.09392
4405.19157,0.09363
4403.26285,0.09356
4401.33413,0.09340
4399.40541,0.09309
4397.47670,0.09268
4395.54798,0.09237
4393.61926,0.09210
4391.69054,0.09166
4389.76183,0.09140
4387.83311,0.09159
4385.90439,0.09174
4383.97567,0.09147
4382.04695,0.09097
4380.11824,0.09031
4378.18952,0.08968
4376.26080,0.08929
4374.33208,0.08875
4372.40337,0.08782
4370.47465,0.08718
4368.54593,0.08706
4366.61721,0.08676
4364.68849,0.08608
4362.75978,0.08558
4360.83106,0.08521
4358.90234,0.08472
4356.97362,0.08403
4355.04490,0.08326
4353.11619,0.08267
4351.18747,0.08212
4349.25875,0.08128
4347.33003,0.08011
4345.40132,0.07860
4343.47260,0.07669
4341.54388,0.07475
4339.61516,0.07342
4337.68644,0.07274
4335.75773,0.07225
4333.82901,0.07165
4331.90029,0.07067
4329.97157,0.06923
4328.04285,0.06769
4326.11414,0.06634
4324.18542,0.06534
4322.25670,0.06518
4320.32798,0.06643
4318.39927,0.06911
4316.47055,0.07232
4314.54183,0.07505
4312.61311,0.07743
4310.68439,0.08001
4308.75568,0.08223
4306.82696,0.08338
4304.89824,0.08395
4302.96952,0.08436
4301.04080,0.08430
4299.11209,0.08403
4297.18337,0.08404
4295.25465,0.08394
4293.32593,0.08360
4291.39722,0.08357
4289.46850,0.08369
4287.53978,0.08354
4285.61106,0.08349
4283.68234,0.08369
4281.75363,0.08381
4279.82491,0.08379
4277.89619,0.08373
4275.96747,0.08345
4274.03875,0.08277
4272.11004,0.08176
4270.18132,0.08075
4268.25260,0.07967
4266.32388,0.07821
4264.39517,0.07651
4262.46645,0.07498
4260.53773,0.07380
4258.60901,0.07270
4256.68029,0.07144
4254.75158,0.07040
4252.82286,0.07022
4250.89414,0.07103
4248.96542,0.07240
4247.03670,0.07405
4245.10799,0.07607
4243.17927,0.07809
4241.25055,0.07959
4239.32183,0.08057
4237.39312,0.08106
4235.46440,0.08114
4233.53568,0.08112
4231.60696,0.08092
4229.67824,0.08017
4227.74953,0.07916
4225.82081,0.07847
4223.89209,0.07807
4221.96337,0.07782
4220.03465,0.07777
4218.10594,0.07790
4216.17722,0.07841
4214.24850,0.07908
4212.31978,0.07925
4210.39107,0.07899
4208.46235,0.07901
4206.53363,0.07939
4204.60491,0.07930
4202.67619,0.07836
4200.74748,0.07723
4198.81876,0.07614
4196.89004,0.07493
4194.96132,0.07416
4193.03261,0.07411
4191.10389,0.07427
4189.17517,0.07424
4187.24645,0.07413
4185.31773,0.07429
4183.38902,0.07492
4181.46030,0.07574
4179.53158,0.07628
4177.60286,0.07640
4175.67414,0.07627
4173.74543,0.07623
4171.81671,0.07640
4169.88799,0.07658
4167.95927,0.07674
4166.03056,0.07691
4164.10184,0.07693
4162.17312,0.07670
4160.24440,0.07612
4158.31568,0.07556
4156.38697,0.07563
4154.45825,0.07599
4152.52953,0.07583
4150.60081,0.07548
4148.67209,0.07573
4146.74338,0.07643
4144.81466,0.07705
4142.88594,0.07732
4140.95722,0.07723
4139.02851,0.07711
4137.09979,0.07723
4135.17107,0.07747
4133.24235,0.07749
4131.31363,0.07724
4129.38492,0.07695
4127.45620,0.07670
4125.52748,0.07645
4123.59876,0.07626
4121.67004,0.07620
4119.74133,0.07649
4117.81261,0.07701
4115.88389,0.07715
4113.95517,0.07681
4112.02646,0.07679
4110.09774,0.07744
4108.16902,0.07801
4106.24030,0.07795
4104.31158,0.07770
4102.38287,0.07757
4100.45415,0.07736
4098.52543,0.07707
4096.59671,0.07707
4094.66799,0.07771
4092.73928,0.07863
4090.81056,0.07911
4088.88184,0.07926
4086.95312,0.07971
4085.02441,0.08052
4083.09569,0.08108
4081.16697,0.08119
4079.23825,0.08129
4077.30953,0.08172
4075.38082,0.08241
4073.45210,0.08297
4071.52338,0.08316
4069.59466,0.08314
4067.66594,0.08309
4065.73723,0.08331
4063.80851,0.08386
4061.87979,0.08424
4059.95107,0.08427
4058.02236,0.08423
4056.09364,0.08405
4054.16492,0.08363
4052.23620,0.08336
4050.30748,0.08343
4048.37877,0.08371
4046.45005,0.08405
4044.52133,0.08414
4042.59261,0.08414
4040.66389,0.08449
4038.73518,0.08513
4036.80646,0.08572
4034.87774,0.08608
4032.94902,0.08619
4031.02031,0.08621
4029.09159,0.08637
4027.16287,0.08667
4025.23415,0.08672
4023.30543,0.08636
4021.37672,0.08611
4019.44800,0.08634
4017.51928,0.08671
4015.59056,0.08694
4013.66185,0.08720
4011.73313,0.08755
4009.80441,0.08782
4007.87569,0.08810
4005.94697,0.08847
4004.01826,0.08881
4002.08954,0.08890
4000.16082,0.08875
3998.23210,0.08881
3996.30338,0.08926
3994.37467,0.08976
3992.44595,0.09020
3990.51723,0.09040
3988.58851,0.08994
3986.65980,0.08919
3984.73108,0.08878
3982.80236,0.08856
3980.87364,0.08834
3978.94492,0.08832
3977.01621,0.08843
3975.08749,0.08849
3973.15877,0.08849
3971.23005,0.08853
3969.30133,0.08879
3967.37262,0.08931
3965.44390,0.08972
3963.51518,0.08974
3961.58646,0.08969
3959.65775,0.09000
3957.72903,0.09041
3955.80031,0.09067
3953.87159,0.09075
3951.94287,0.09052
3950.01416,0.09013
3948.08544,0.08989
3946.15672,0.08956
3944.22800,0.08898
3942.29928,0.08852
3940.37057,0.08825
3938.44185,0.08808
3936.51313,0.08828
3934.58441,0.08869
3932.65570,0.08877
3930.72698,0.08879
3928.79826,0.08917
3926.86954,0.08949
3924.94082,0.08948
3923.01211,0.08950
3921.08339,0.08980
3919.15467,0.08978
3917.22595,0.08902
3915.29723,0.08837
3913.36852,0.08824
3911.43980,0.08825
3909.51108,0.08835
3907.58236,0.08828
3905.65365,0.08769
3903.72493,0.08700
3901.79621,0.08695
3899.86749,0.08729
3897.93877,0.08763
3896.01006,0.08801
3894.08134,0.08847
3892.15262,0.08922
3890.22390,0.09005
3888.29518,0.09040
3886.36647,0.09026
3884.43775,0.08986
3882.50903,0.08940
3880.58031,0.08893
3878.65160,0.08885
3876.72288,0.08907
3874.79416,0.08905
3872.86544,0.08874
3870.93672,0.08829
3869.00801,0.08802
3867.07929,0.08835
3865.15057,0.08870
3863.22185,0.08892
3861.29313,0.08952
3859.36442,0.09020
3857.43570,0.09055
3855.50698,0.09057
3853.57826,0.09032
3851.64955,0.09020
3849.72083,0.09058
3847.79211,0.09116
3845.86339,0.09139
3843.93467,0.09084
3842.00596,0.09009
3840.07724,0.08978
3838.14852,0.08933
3836.21980,0.08862
3834.29109,0.08837
3832.36237,0.08870
3830.43365,0.08936
3828.50493,0.08978
3826.57621,0.08994
3824.64750,0.09053
3822.71878,0.09142
3820.79006,0.09182
3818.86134,0.09183
3816.93262,0.09144
3815.00391,0.09087
3813.07519,0.09091
3811.14647,0.09106
3809.21775,0.09082
3807.28904,0.09035
3805.36032,0.09022
3803.43160,0.09032
3801.50288,0.09014
3799.57416,0.09012
3797.64545,0.09036
3795.71673,0.09074
3793.78801,0.09133
3791.85929,0.09177
3789.93057,0.09193
3788.00186,0.09221
3786.07314,0.09273
3784.14442,0.09318
3782.21570,0.09338
3780.28699,0.09329
3778.35827,0.09312
3776.42955,0.09319
3774.50083,0.09319
3772.57211,0.09284
3770.64340,0.09225
3768.71468,0.09173
3766.78596,0.09151
3764.85724,0.09165
3762.92852,0.09204
3760.99981,0.09253
3759.07109,0.09278
3757.14237,0.09256
3755.21365,0.09241
3753.28494,0.09269
3751.35622,0.09300
3749.42750,0.09286
3747.49878,0.09290
3745.57006,0.09334
3743.64135,0.09378
3741.71263,0.09389
3739.78391,0.09366
3737.85519,0.09325
3735.92647,0.09302
3733.99776,0.09294
3732.06904,0.09259
3730.14032,0.09210
3728.21160,0.09167
3726.28289,0.09128
3724.35417,0.09114
3722.42545,0.09154
3720.49673,0.09225
3718.56801,0.09288
3716.63930,0.09325
3714.71058,0.09345
3712.78186,0.09342
3710.85314,0.09279
3708.92442,0.09229
3706.99571,0.09269
3705.06699,0.09344
3703.13827,0.09355
3701.20955,0.09287
3699.28084,0.09221
3697.35212,0.09172
3695.42340,0.09150
3693.49468,0.09160
3691.56596,0.09144
3689.63725,0.09067
3687.70853,0.09027
3685.77981,0.09068
3683.85109,0.09126
3681.92237,0.09172
3679.99366,0.09208
3678.06494,0.09234
3676.13622,0.09235
3674.20750,0.09242
3672.27879,0.09256
3670.35007,0.09216
3668.42135,0.09146
3666.49263,0.09105
3664.56391,0.09069
3662.63520,0.09037
3660.70648,0.09043
3658.77776,0.09077
3656.84904,0.09056
3654.92033,0.08975
3652.99161,0.08937
3651.06289,0.08939
3649.13417,0.08927
3647.20545,0.08900
3645.27674,0.08886
3643.34802,0.08905
3641.41930,0.08960
3639.49058,0.09020
3637.56186,0.09072
3635.63315,0.09115
3633.70443,0.09106
3631.77571,0.09039
3629.84699,0.08949
3627.91828,0.08892
3625.98956,0.08907
3624.06084,0.08927
3622.13212,0.08918
3620.20340,0.08883
3618.27469,0.08829
3616.34597,0.08774
3614.41725,0.08713
3612.48853,0.08636
3610.55981,0.08573
3608.63110,0.08545
3606.70238,0.08532
3604.77366,0.08524
3602.84494,0.08547
3600.91623,0.08632
3598.98751,0.08770
3597.05879,0.08914
3595.13007,0.09053
3593.20135,0.09154
3591.27264,0.09185
3589.34392,0.09167
3587.41520,0.09148
3585.48648,0.09189
3583.55776,0.09242
3581.62905,0.09245
3579.70033,0.09238
3577.77161,0.09275
3575.84289,0.09336
3573.91418,0.09385
3571.98546,0.09438
3570.05674,0.09501
3568.12802,0.09531
3566.19930,0.09502
3564.27059,0.09495
3562.34187,0.09529
3560.41315,0.09552
3558.48443,0.09542
3556.55571,0.09500
3554.62700,0.09440
3552.69828,0.09397
3550.76956,0.09395
3548.84084,0.09415
3546.91213,0.09442
3544.98341,0.09470
3543.05469,0.09514
3541.12597,0.09573
3539.19725,0.09613
3537.26854,0.09633
3535.33982,0.09665
3533.41110,0.09691
3531.48238,0.09690
3529.55366,0.09666
3527.62495,0.09608
3525.69623,0.09541
3523.76751,0.09506
3521.83879,0.09514
3519.91008,0.09527
3517.98136,0.09496
3516.05264,0.09452
3514.12392,0.09445
3512.19520,0.09456
3510.26649,0.09474
3508.33777,0.09507
3506.40905,0.09529
3504.48033,0.09538
3502.55161,0.09568
3500.62290,0.09616
3498.69418,0.09642
3496.76546,0.09622
3494.83674,0.09590
3492.90803,0.09587
3490.97931,0.09601
3489.05059,0.09596
3487.12187,0.09535
3485.19315,0.09435
3483.26444,0.09356
3481.33572,0.09336
3479.40700,0.09363
3477.47828,0.09387
3475.54956,0.09392
3473.62085,0.09404
3471.69213,0.09449
3469.76341,0.09527
3467.83469,0.09594
3465.90598,0.09622
3463.97726,0.09605
3462.04854,0.09549
3460.11982,0.09484
3458.19110,0.09426
3456.26239,0.09382
3454.33367,0.09358
3452.40495,0.09341
3450.47623,0.09307
3448.54752,0.09256
3446.61880,0.09214
3444.69008,0.09207
3442.76136,0.09214
3440.83264,0.09224
3438.90393,0.09263
3436.97521,0.09324
3435.04649,0.09359
3433.11777,0.09365
3431.18905,0.09364
3429.26034,0.09373
3427.33162,0.09403
3425.40290,0.09427
3423.47418,0.09404
3421.54547,0.09331
3419.61675,0.09260
3417.68803,0.09240
3415.75931,0.09233
3413.83059,0.09207
3411.90188,0.09192
3409.97316,0.09211
3408.04444,0.09234
3406.11572,0.09239
3404.18700,0.09248
3402.25829,0.09279
3400.32957,0.09310
3398.40085,0.09327
3396.47213,0.09323
3394.54342,0.09320
3392.61470,0.09341
3390.68598,0.09364
3388.75726,0.09387
3386.82854,0.09393
3384.89983,0.09327
3382.97111,0.09220
3381.04239,0.09140
3379.11367,0.09090
3377.18495,0.09077
3375.25624,0.09093
3373.32752,0.09099
3371.39880,0.09118
3369.47008,0.09164
3367.54137,0.09199
3365.61265,0.09245
3363.68393,0.09333
3361.75521,0.09404
3359.82649,0.09413
3357.89778,0.09400
3355.96906,0.09398
3354.04034,0.09383
3352.11162,0.09342
3350.18290,0.09297
3348.25419,0.09259
3346.32547,0.09218
3344.39675,0.09192
3342.46803,0.09188
3340.53932,0.09179
3338.61060,0.09164
3336.68188,0.09183
3334.75316,0.09226
3332.82444,0.09251
3330.89573,0.09272
3328.96701,0.09327
3327.03829,0.09391
3325.10957,0.09415
3323.18085,0.09396
3321.25214,0.09387
3319.32342,0.09413
3317.39470,0.09407
3315.46598,0.09350
3313.53727,0.09317
3311.60855,0.09313
3309.67983,0.09255
3307.75111,0.09158
3305.82239,0.09124
3303.89368,0.09161
3301.96496,0.09220
3300.03624,0.09288
3298.10752,0.09344
3296.17880,0.09376
3294.25009,0.09430
3292.32137,0.09509
3290.39265,0.09540
3288.46393,0.09497
3286.53522,0.09440
3284.60650,0.09407
3282.67778,0.09369
3280.74906,0.09318
3278.82034,0.09278
3276.89163,0.09232
3274.96291,0.09177
3273.03419,0.09171
3271.10547,0.09230
3269.17676,0.09303
3267.24804,0.09342
3265.31932,0.09368
3263.39060,0.09397
3261.46188,0.09398
3259.53317,0.09374
3257.60445,0.09366
3255.67573,0.09371
3253.74701,0.09361
3251.81829,0.09345
3249.88958,0.09321
3247.96086,0.09262
3246.03214,0.09165
3244.10342,0.09084
3242.17471,0.09070
3240.24599,0.09116
3238.31727,0.09169
3236.38855,0.09188
3234.45983,0.09179
3232.53112,0.09186
3230.60240,0.09245
3228.67368,0.09319
3226.74496,0.09347
3224.81624,0.09347
3222.88753,0.09335
3220.95881,0.09278
3219.03009,0.09233
3217.10137,0.09243
3215.17266,0.09221
3213.24394,0.09159
3211.31522,0.09125
3209.38650,0.09108
3207.45778,0.09076
3205.52907,0.09028
3203.60035,0.08992
3201.67163,0.09013
3199.74291,0.09082
3197.81419,0.09149
3195.88548,0.09179
3193.95676,0.09181
3192.02804,0.09170
3190.09932,0.09147
3188.17061,0.09116
3186.24189,0.09077
3184.31317,0.09041
3182.38445,0.08991
3180.45573,0.08910
3178.52702,0.08835
3176.59830,0.08801
3174.66958,0.08817
3172.74086,0.08878
3170.81214,0.08935
3168.88343,0.08953
3166.95471,0.08959
3165.02599,0.08985
3163.09727,0.09005
3161.16856,0.08987
3159.23984,0.08957
3157.31112,0.08943
3155.38240,0.08923
3153.45368,0.08880
3151.52497,0.08819
3149.59625,0.08736
3147.66753,0.08648
3145.73881,0.08600
3143.81009,0.08599
3141.88138,0.08613
3139.95266,0.08622
3138.02394,0.08641
3136.09522,0.08667
3134.16651,0.08672
3132.23779,0.08672
3130.30907,0.08692
3128.38035,0.08701
3126.45163,0.08673
3124.52292,0.08603
3122.59420,0.08506
3120.66548,0.08427
3118.73676,0.08372
3116.80804,0.08333
3114.87933,0.08326
3112.95061,0.08318
3111.02189,0.08285
3109.09317,0.08255
3107.16446,0.08227
3105.23574,0.08196
3103.30702,0.08171
3101.37830,0.08127
3099.44958,0.08055
3097.52087,0.07962
3095.59215,0.07842
3093.66343,0.07714
3091.73471,0.07618
3089.80600,0.07545
3087.87728,0.07471
3085.94856,0.07388
3084.01984,0.07329
3082.09112,0.07321
3080.16241,0.07342
3078.23369,0.07355
3076.30497,0.07345
3074.37625,0.07313
3072.44753,0.07279
3070.51882,0.07243
3068.59010,0.07172
3066.66138,0.07072
3064.73266,0.06973
3062.80395,0.06887
3060.87523,0.06824
3058.94651,0.06785
3057.01779,0.06757
3055.08907,0.06734
3053.16036,0.06720
3051.23164,0.06719
3049.30292,0.06716
3047.37420,0.06692
3045.44548,0.06641
3043.51677,0.06563
3041.58805,0.06458
3039.65933,0.06353
3037.73061,0.06280
3035.80190,0.06229
3033.87318,0.06188
3031.94446,0.06156
3030.01574,0.06135
3028.08702,0.06127
3026.15831,0.06126
3024.22959,0.06117
3022.30087,0.06082
3020.37215,0.06019
3018.44343,0.05956
3016.51472,0.05904
3014.58600,0.05863
3012.65728,0.05846
3010.72856,0.05831
3008.79985,0.05782
3006.87113,0.05714
3004.94241,0.05649
3003.01369,0.05599
3001.08497,0.05566
2999.15626,0.05531
2997.22754,0.05489
2995.29882,0.05447
2993.37010,0.05398
2991.44138,0.05346
2989.51267,0.05295
2987.58395,0.05239
2985.65523,0.05182
2983.72651,0.05149
2981.79780,0.05126
2979.86908,0.05081
2977.94036,0.05021
2976.01164,0.04970
2974.08292,0.04927
2972.15421,0.04893
2970.22549,0.04867
2968.29677,0.04842
2966.36805,0.04816
2964.43933,0.04784
2962.51062,0.04734
2960.58190,0.04676
2958.65318,0.04635
2956.72446,0.04615
2954.79575,0.04599
2952.86703,0.04556
2950.93831,0.04480
2949.00959,0.04392
2947.08087,0.04297
2945.15216,0.04199
2943.22344,0.04097
2941.29472,0.03994
2939.36600,0.03907
2937.43728,0.03856
2935.50857,0.03850
2933.57985,0.03875
2931.65113,0.03929
2929.72241,0.04075
2927.79370,0.04373
2925.86498,0.04842
2923.93626,0.05497
2922.00754,0.06327
2920.07882,0.07269
2918.15011,0.08151
2916.22139,0.08701
2914.29267,0.08773
2912.36395,0.08513
2910.43524,0.08152
2908.50652,0.07822
2906.57780,0.07580
2904.64908,0.07405
2902.72036,0.07241
2900.79165,0.07087
2898.86293,0.06979
2896.93421,0.06928
2895.00549,0.06906
2893.07677,0.06877
2891.14806,0.06822
2889.21934,0.06754
2887.29062,0.06701
2885.36190,0.06665
2883.43319,0.06615
2881.50447,0.06529
2879.57575,0.06421
2877.64703,0.06309
2875.71831,0.06203
2873.78960,0.06114
2871.86088,0.06037
2869.93216,0.05953
2868.00344,0.05851
2866.07472,0.05743
2864.14601,0.05637
2862.21729,0.05537
2860.28857,0.05435
2858.35985,0.05355
2856.43114,0.05375
2854.50242,0.05607
2852.57370,0.06158
2850.64498,0.07020
2848.71626,0.07897
2846.78755,0.08384
2844.85883,0.08375
2842.93011,0.08103
2841.00139,0.07823
2839.07267,0.07605
2837.14396,0.07421
2835.21524,0.07269
2833.28652,0.07161
2831.35780,0.07086
2829.42909,0.07032
2827.50037,0.06974
2825.57165,0.06886
2823.64293,0.06803
2821.71421,0.06784
2819.78550,0.06793
2817.85678,0.06773
2815.92806,0.06739
2813.99934,0.06723
2812.07062,0.06713
2810.14191,0.06696
2808.21319,0.06681
2806.28447,0.06670
2804.35575,0.06668
2802.42704,0.06671
2800.49832,0.06670
2798.56960,0.06660
2796.64088,0.06657
2794.71216,0.06676
2792.78345,0.06700
2790.85473,0.06724
2788.92601,0.06754
2786.99729,0.06787
2785.06857,0.06830
2783.13986,0.06876
2781.21114,0.06908
2779.28242,0.06927
2777.35370,0.06940
2775.42499,0.06960
2773.49627,0.07025
2771.56755,0.07119
2769.63883,0.07178
2767.71011,0.07199
2765.78140,0.07218
2763.85268,0.07239
2761.92396,0.07247
2759.99524,0.07237
2758.06652,0.07230
2756.13781,0.07238
2754.20909,0.07256
2752.28037,0.07288
2750.35165,0.07326
2748.42294,0.07334
2746.49422,0.07318
2744.56550,0.07312
2742.63678,0.07315
2740.70806,0.07309
2738.77935,0.07292
2736.85063,0.07279
2734.92191,0.07274
2732.99319,0.07259
2731.06448,0.07231
2729.13576,0.07223
2727.20704,0.07265
2725.27832,0.07340
2723.34960,0.07406
2721.42089,0.07442
2719.49217,0.07456
2717.56345,0.07460
2715.63473,0.07460
2713.70601,0.07458
2711.77730,0.07458
2709.84858,0.07446
2707.91986,0.07417
2705.99114,0.07404
2704.06243,0.07434
2702.13371,0.07488
2700.20499,0.07539
2698.27627,0.07570
2696.34755,0.07569
2694.41884,0.07553
2692.49012,0.07545
2690.56140,0.07537
2688.63268,0.07521
2686.70396,0.07499
2684.77525,0.07460
2682.84653,0.07388
2680.91781,0.07315
2678.98909,0.07278
2677.06038,0.07268
2675.13166,0.07263
2673.20294,0.07249
2671.27422,0.07232
2669.34550,0.07231
2667.41679,0.07242
2665.48807,0.07258
2663.55935,0.07287
2661.63063,0.07321
2659.70191,0.07341
2657.77320,0.07342
2655.84448,0.07331
2653.91576,0.07305
2651.98704,0.07279
2650.05833,0.07276
2648.12961,0.07283
2646.20089,0.07273
2644.27217,0.07253
2642.34345,0.07237
2640.41474,0.07239
2638.48602,0.07262
2636.55730,0.07287
2634.62858,0.07315
2632.69986,0.07360
2630.77115,0.07412
2628.84243,0.07469
2626.91371,0.07535
2624.98499,0.07586
2623.05628,0.07612
2621.12756,0.07628
2619.19884,0.07631
2617.27012,0.07626
2615.34140,0.07635
2613.41269,0.07664
2611.48397,0.07713
2609.55525,0.07770
2607.62653,0.07828
2605.69781,0.07912
2603.76910,0.08012
2601.84038,0.08089
2599.91166,0.08135
2597.98294,0.08171
2596.05423,0.08196
2594.12551,0.08205
2592.19679,0.08217
2590.26807,0.08244
2588.33935,0.08265
2586.41064,0.08278
2584.48192,0.08295
2582.55320,0.08319
2580.62448,0.08350
2578.69576,0.08400
2576.76705,0.08461
2574.83833,0.08510
2572.90961,0.08559
2570.98089,0.08632
2569.05218,0.08724
2567.12346,0.08809
2565.19474,0.08868
2563.26602,0.08886
2561.33730,0.08878
2559.40859,0.08869
2557.47987,0.08855
2555.55115,0.08824
2553.62243,0.08787
2551.69372,0.08767
2549.76500,0.08765
2547.83628,0.08783
2545.90756,0.08827
2543.97884,0.08888
2542.05013,0.08950
2540.12141,0.09007
2538.19269,0.09055
2536.26397,0.09090
2534.33525,0.09115
2532.40654,0.09131
2530.47782,0.09131
2528.54910,0.09114
2526.62038,0.09097
2524.69167,0.09102
2522.76295,0.09120
2520.83423,0.09120
2518.90551,0.09116
2516.97679,0.09138
2515.04808,0.09168
2513.11936,0.09190
2511.19064,0.09218
2509.26192,0.09258
2507.33320,0.09310
2505.40449,0.09381
2503.47577,0.09458
2501.54705,0.09524
2499.61833,0.09574
2497.68962,0.09596
2495.76090,0.09580
2493.83218,0.09546
2491.90346,0.09520
2489.97474,0.09498
2488.04603,0.09468
2486.11731,0.09424
2484.18859,0.09384
2482.25987,0.09368
2480.33115,0.09379
2478.40244,0.09405
2476.47372,0.09442
2474.54500,0.09486
2472.61628,0.09534
2470.68757,0.09605
2468.75885,0.09698
2466.83013,0.09769
2464.90141,0.09805
2462.97269,0.09813
2461.04398,0.09794
2459.11526,0.09774
2457.18654,0.09765
2455.25782,0.09728
2453.32910,0.09647
2451.40039,0.09578
2449.47167,0.09552
2447.54295,0.09553
2445.61423,0.09567
2443.68552,0.09589
2441.75680,0.09630
2439.82808,0.09698
2437.89936,0.09765
2435.97064,0.09804
2434.04193,0.09824
2432.11321,0.09831
2430.18449,0.09820
2428.25577,0.09778
2426.32705,0.09711
2424.39834,0.09638
2422.46962,0.09555
2420.54090,0.09470
2418.61218,0.09410
2416.68347,0.09370
2414.75475,0.09346
2412.82603,0.09355
2410.89731,0.09393
2408.96859,0.09434
2407.03988,0.09485
2405.11116,0.09557
2403.18244,0.09632
2401.25372,0.09692
2399.32500,0.09739
2397.39629,0.09774
2395.46757,0.09776
2393.53885,0.09740
2391.61013,0.09687
2389.68142,0.09632
2387.75270,0.09576
2385.82398,0.09519
2383.89526,0.09455
2381.96654,0.09399
2380.03783,0.09379
2378.10911,0.09392
2376.18039,0.09409
2374.25167,0.09433
2372.32296,0.09472
2370.39424,0.09513
2368.46552,0.09551
2366.53680,0.09587
2364.60808,0.09603
2362.67937,0.09571
2360.75065,0.09500
2358.82193,0.09425
2356.89321,0.09330
2354.96449,0.09191
2353.03578,0.09057
2351.10706,0.08967
2349.17834,0.08898
2347.24962,0.08834
2345.32091,0.08784
2343.39219,0.08756
2341.46347,0.08757
2339.53475,0.08786
2337.60603,0.08836
2335.67732,0.08895
2333.74860,0.08942
2331.81988,0.08973
2329.89116,0.09000
2327.96244,0.09027
2326.03373,0.09054
2324.10501,0.09086
2322.17629,0.09110
2320.24757,0.09104
2318.31886,0.09074
2316.39014,0.09044
2314.46142,0.09032
2312.53270,0.09038
2310.60398,0.09054
2308.67527,0.09080
2306.74655,0.09109
2304.81783,0.09148
2302.88911,0.09212
2300.96039,0.09296
2299.03168,0.09387
2297.10296,0.09471
2295.17424,0.09536
2293.24552,0.09589
2291.31681,0.09629
2289.38809,0.09634
2287.45937,0.09600
2285.53065,0.09533
2283.60193,0.09459
2281.67322,0.09396
2279.74450,0.09347
2277.81578,0.09305
2275.88706,0.09278
2273.95834,0.09291
2272.02963,0.09344
2270.10091,0.09408
2268.17219,0.09481
2266.24347,0.09578
2264.31476,0.09683
2262.38604,0.09778
2260.45732,0.09847
2258.52860,0.09879
2256.59988,0.09886
2254.67117,0.09883
2252.74245,0.09855
2250.81373,0.09793
2248.88501,0.09714
2246.95629,0.09632
2245.02758,0.09557
2243.09886,0.09499
2241.17014,0.09470
2239.24142,0.09478
2237.31271,0.09515
2235.38399,0.09574
2233.45527,0.09653
2231.52655,0.09744
2229.59783,0.09840
2227.66912,0.09923
2225.74040,0.09980
2223.81168,0.10021
2221.88296,0.10050
2219.95424,0.10046
2218.02553,0.09999
2216.09681,0.09928
2214.16809,0.09862
2212.23937,0.09809
2210.31066,0.09743
2208.38194,0.09662
2206.45322,0.09594
2204.52450,0.09561
2202.59578,0.09562
2200.66707,0.09591
2198.73835,0.09646
2196.80963,0.09719
2194.88091,0.09797
2192.95220,0.09866
2191.02348,0.09922
2189.09476,0.09979
2187.16604,0.10035
2185.23732,0.10063
2183.30861,0.10045
2181.37989,0.09982
2179.45117,0.09881
2177.52245,0.09771
2175.59373,0.09677
2173.66502,0.09605
2171.73630,0.09558
2169.80758,0.09534
2167.87886,0.09524
2165.95015,0.09539
2164.02143,0.09586
2162.09271,0.09654
2160.16399,0.09734
2158.23527,0.09817
2156.30656,0.09886
2154.37784,0.09929
2152.44912,0.09942
2150.52040,0.09939
2148.59168,0.09929
2146.66297,0.09890
2144.73425,0.09823
2142.80553,0.09753
2140.87681,0.09685
2138.94810,0.09614
2137.01938,0.09545
2135.09066,0.09511
2133.16194,0.09525
2131.23322,0.09563
2129.30451,0.09621
2127.37579,0.09713
2125.44707,0.09828
2123.51835,0.09945
2121.58963,0.10049
2119.66092,0.10140
2117.73220,0.10211
2115.80348,0.10244
2113.87476,0.10234
2111.94605,0.10186
2110.01733,0.10097
2108.08861,0.09980
2106.15989,0.09863
2104.23117,0.09758
2102.30246,0.09673
2100.37374,0.09611
2098.44502,0.09577
2096.51630,0.09586
2094.58758,0.09632
2092.65887,0.09694
2090.73015,0.09773
2088.80143,0.09881
2086.87271,0.10007
2084.94400,0.10111
2083.01528,0.10176
2081.08656,0.10203
2079.15784,0.10191
2077.22912,0.10139
2075.30041,0.10048
2073.37169,0.09928
2071.44297,0.09790
2069.51425,0.09654
2067.58553,0.09529
2065.65682,0.09428
2063.72810,0.09370
2061.79938,0.09359
2059.87066,0.09389
2057.94195,0.09459
2056.01323,0.09556
2054.08451,0.09664
2052.15579,0.09775
2050.22707,0.09875
2048.29836,0.09953
2046.36964,0.09992
2044.44092,0.09981
2042.51220,0.09925
2040.58348,0.09833
2038.65477,0.09705
2036.72605,0.09553
2034.79733,0.09402
2032.86861,0.09262
2030.93990,0.09141
2029.01118,0.09044
2027.08246,0.08976
2025.15374,0.08943
2023.22502,0.08951
2021.29631,0.08994
2019.36759,0.09076
2017.43887,0.09213
2015.51015,0.09400
2013.58143,0.09613
2011.65272,0.09814
2009.72400,0.09958
2007.79528,0.10040
2005.86656,0.10067
2003.93785,0.10042
2002.00913,0.09965
2000.08041,0.09850
1998.15169,0.09721
1996.22297,0.09596
1994.29426,0.09494
1992.36554,0.09429
1990.43682,0.09415
1988.50810,0.09466
1986.57939,0.09575
1984.65067,0.09721
1982.72195,0.09888
1980.79323,0.10048
1978.86451,0.10170
1976.93580,0.10271
1975.00708,0.10357
1973.07836,0.10392
1971.14964,0.10347
1969.22092,0.10232
1967.29221,0.10080
1965.36349,0.09920
1963.43477,0.09764
1961.50605,0.09617
1959.57734,0.09496
1957.64862,0.09421
1955.71990,0.09394
1953.79118,0.09413
1951.86246,0.09474
1949.93375,0.09580
1948.00503,0.09733
1946.07631,0.09901
1944.14759,0.10048
1942.21887,0.10182
1940.29016,0.10298
1938.36144,0.10353
1936.43272,0.10328
1934.50400,0.10239
1932.57529,0.10113
1930.64657,0.09962
1928.71785,0.09790
1926.78913,0.09609
1924.86041,0.09444
1922.93170,0.09319
1921.00298,0.09259
1919.07426,0.09265
1917.14554,0.09317
1915.21682,0.09404
1913.28811,0.09528
1911.35939,0.09681
1909.43067,0.09841
1907.50195,0.09979
1905.57324,0.10073
1903.64452,0.10100
1901.71580,0.10052
1899.78708,0.09965
1897.85836,0.09860
1895.92965,0.09725
1894.00093,0.09572
1892.07221,0.09435
1890.14349,0.09323
1888.21477,0.09232
1886.28606,0.09182
1884.35734,0.09190
1882.42862,0.09260
1880.49990,0.09388
1878.57119,0.09573
1876.64247,0.09785
1874.71375,0.09989
1872.78503,0.10172
1870.85631,0.10322
1868.92760,0.10425
1866.99888,0.10466
1865.07016,0.10456
1863.14144,0.10396
1861.21272,0.10271
1859.28401,0.10084
1857.35529,0.09865
1855.42657,0.09656
1853.49785,0.09488
1851.56914,0.09369
1849.64042,0.09305
1847.71170,0.09309
1845.78298,0.09393
1843.85426,0.09562
1841.92555,0.09763
1839.99683,0.09959
1838.06811,0.10169
1836.13939,0.10367
1834.21067,0.10505
1832.28196,0.10554
1830.35324,0.10503
1828.42452,0.10386
1826.49580,0.10236
1824.56709,0.10021
1822.63837,0.09773
1820.70965,0.09539
1818.78093,0.09327
1816.85221,0.09169
1814.92350,0.09086
1812.99478,0.09075
1811.06606,0.09142
1809.13734,0.09282
1807.20863,0.09466
1805.27991,0.09681
1803.35119,0.09916
1801.42247,0.10142
1799.49375,0.10335
1797.56504,0.10473
1795.63632,0.10525
1793.70760,0.10463
1791.77888,0.10274
1789.85016,0.10042
1787.92145,0.09825
1785.99273,0.09596
1784.06401,0.09366
1782.13529,0.09172
1780.20658,0.09032
1778.27786,0.08977
1776.34914,0.08995
1774.42042,0.09059
1772.49170,0.09208
1770.56299,0.09449
1768.63427,0.09700
1766.70555,0.09929
1764.77683,0.10115
1762.84811,0.10224
1760.91940,0.10229
1758.99068,0.10150
1757.06196,0.09981
1755.13324,0.09732
1753.20453,0.09461
1751.27581,0.09133
1749.34709,0.08767
1747.41837,0.08509
1745.48965,0.08363
1743.56094,0.08286
1741.63222,0.08292
1739.70350,0.08421
1737.77478,0.08647
1735.84606,0.08916
1733.91735,0.09265
1731.98863,0.09622
1730.05991,0.09886
1728.13119,0.10052
1726.20248,0.10103
1724.27376,0.10072
1722.34504,0.09989
1720.41632,0.09857
1718.48760,0.09615
1716.55889,0.09269
1714.63017,0.09001
1712.70145,0.08811
1710.77273,0.08668
1708.84401,0.08578
1706.91530,0.08560
1704.98658,0.08648
1703.05786,0.08812
1701.12914,0.09032
1699.20043,0.09302
1697.27171,0.09571
1695.34299,0.09885
1693.41427,0.10143
1691.48555,0.10295
1689.55684,0.10366
1687.62812,0.10349
1685.69940,0.10217
1683.77068,0.09886
1681.84196,0.09544
1679.91325,0.09293
1677.98453,0.09053
1676.05581,0.08789
1674.12709,0.08560
1672.19838,0.08480
1670.26966,0.08534
1668.34094,0.08698
1666.41222,0.08910
1664.48350,0.09161
1662.55479,0.09504
1660.62607,0.09853
1658.69735,0.10089
1656.76863,0.10201
1654.83991,0.10190
1652.91120,0.10089
1650.98248,0.10029
1649.05376,0.09918
1647.12504,0.09588
1645.19633,0.09132
1643.26761,0.08811
1641.33889,0.08568
1639.41017,0.08383
1637.48145,0.08281
1635.55274,0.08319
1633.62402,0.08499
1631.69530,0.08711
1629.76658,0.08965
1627.83787,0.09273
1625.90915,0.09566
1623.98043,0.09833
1622.05171,0.10065
1620.12299,0.10176
1618.19428,0.10145
1616.26556,0.09968
1614.33684,0.09740
1612.40812,0.09498
1610.47940,0.09177
1608.55069,0.08803
1606.62197,0.08480
1604.69325,0.08258
1602.76453,0.08147
1600.83582,0.08169
1598.90710,0.08310
1596.97838,0.08537
1595.04966,0.08844
1593.12094,0.09188
1591.19223,0.09503
1589.26351,0.09757
1587.33479,0.09937
1585.40607,0.10045
1583.47735,0.10062
1581.54864,0.09954
1579.61992,0.09745
1577.69120,0.09427
1575.76248,0.08961
1573.83377,0.08594
1571.90505,0.08369
1569.97633,0.08153
1568.04761,0.08037
1566.11889,0.08086
1564.19018,0.08216
1562.26146,0.08364
1560.33274,0.08563
1558.40402,0.09005
1556.47530,0.09408
1554.54659,0.09661
1552.61787,0.09850
1550.68915,0.09918
1548.76043,0.09850
1546.83172,0.09686
1544.90300,0.09430
1542.97428,0.09070
1541.04556,0.08551
1539.11684,0.07972
1537.18813,0.07736
1535.25941,0.07682
1533.33069,0.07714
1531.40197,0.07832
1529.47325,0.08010
1527.54454,0.08276
1525.61582,0.08604
1523.68710,0.08882
1521.75838,0.09124
1519.82967,0.09322
1517.90095,0.09369
1515.97223,0.09238
1514.04351,0.08980
1512.11479,0.08648
1510.18608,0.08282
1508.25736,0.07814
1506.32864,0.07197
1504.39992,0.06981
1502.47120,0.07039
1500.54249,0.07168
1498.61377,0.07354
1496.68505,0.07628
1494.75633,0.07909
1492.82762,0.08060
1490.89890,0.07989
1488.97018,0.07567
1487.04146,0.06928
1485.11274,0.06352
1483.18403,0.05950
1481.25531,0.05749
1479.32659,0.05648
1477.39787,0.05474
1475.46915,0.05246
1473.54044,0.05217
1471.61172,0.05418
1469.68300,0.05558
1467.75428,0.05618
1465.82557,0.05680
1463.89685,0.05817
1461.96813,0.05986
1460.03941,0.06084
1458.11069,0.06082
1456.18198,0.06057
1454.25326,0.06082
1452.32454,0.06109
1450.39582,0.06108
1448.46711,0.06068
1446.53839,0.05995
1444.60967,0.05916
1442.68095,0.05845
1440.75223,0.05811
1438.82352,0.05832
1436.89480,0.05926
1434.96608,0.06123
1433.03736,0.06418
1431.10864,0.06866
1429.17993,0.07461
1427.25121,0.07992
1425.32249,0.08336
1423.39377,0.08465
1421.46506,0.08374
1419.53634,0.08051
1417.60762,0.07625
1415.67890,0.07373
1413.75018,0.07275
1411.82147,0.07308
1409.89275,0.07505
1407.96403,0.07855
1406.03531,0.08330
1404.10659,0.08850
1402.17788,0.09243
1400.24916,0.09480
1398.32044,0.09578
1396.39172,0.09500
1394.46301,0.09211
1392.53429,0.08790
1390.60557,0.08344
1388.67685,0.07826
1386.74813,0.07242
1384.81942,0.06764
1382.89070,0.06414
1380.96198,0.06132
1379.03326,0.05981
1377.10454,0.06025
1375.17583,0.06245
1373.24711,0.06522
1371.31839,0.06691
1369.38967,0.06775
1367.46096,0.06893
1365.53224,0.07083
1363.60352,0.07305
1361.67480,0.07471
1359.74608,0.07491
1357.81737,0.07371
1355.88865,0.07143
1353.95993,0.06868
1352.03121,0.06630
1350.10249,0.06459
1348.17378,0.06352
1346.24506,0.06316
1344.31634,0.06365
1342.38762,0.06523
1340.45891,0.06824
1338.53019,0.07262
1336.60147,0.07767
1334.67275,0.08280
1332.74403,0.08742
1330.81532,0.09066
1328.88660,0.09198
1326.95788,0.09139
1325.02916,0.08911
1323.10044,0.08541
1321.17173,0.08083
1319.24301,0.07600
1317.31429,0.07148
1315.38557,0.06768
1313.45686,0.06491
1311.52814,0.06352
1309.59942,0.06354
1307.67070,0.06476
1305.74198,0.06692
1303.81327,0.06972
1301.88455,0.07285
1299.95583,0.07607
1298.02711,0.07935
1296.09839,0.08244
1294.16968,0.08476
1292.24096,0.08621
1290.31224,0.08671
1288.38352,0.08576
1286.45481,0.08329
1284.52609,0.07990
1282.59737,0.07639
1280.66865,0.07330
1278.73993,0.07086
1276.81122,0.06937
1274.88250,0.06916
1272.95378,0.07027
1271.02506,0.07265
1269.09635,0.07616
1267.16763,0.08027
1265.23891,0.08451
1263.31019,0.08869
1261.38147,0.09251
1259.45276,0.09535
1257.52404,0.09666
1255.59532,0.09625
1253.66660,0.09414
1251.73788,0.09071
1249.80917,0.08663
1247.88045,0.08247
1245.95173,0.07857
1244.02301,0.07541
1242.09430,0.07355
1240.16558,0.07338
1238.23686,0.07481
1236.30814,0.07739
1234.37942,0.08075
1232.45071,0.08487
1230.52199,0.08952
1228.59327,0.09408
1226.66455,0.09797
1224.73583,0.10066
1222.80712,0.10172
1220.87840,0.10094
1218.94968,0.09843
1217.02096,0.09455
1215.09225,0.08995
1213.16353,0.08518
1211.23481,0.08073
1209.30609,0.07715
1207.37737,0.07487
1205.44866,0.07424
1203.51994,0.07532
1201.59122,0.07778
1199.66250,0.08140
1197.73378,0.08592
1195.80507,0.09069
1193.87635,0.09514
1191.94763,0.09874
1190.01891,0.10072
1188.09020,0.10103
1186.16148,0.10021
1184.23276,0.09820
1182.30404,0.09471
1180.37532,0.09013
1178.44661,0.08513
1176.51789,0.08052
1174.58917,0.07703
1172.66045,0.07481
1170.73173,0.07390
1168.80302,0.07450
1166.87430,0.07661
1164.94558,0.08009
1163.01686,0.08453
1161.08815,0.08909
1159.15943,0.09328
1157.23071,0.09703
1155.30199,0.09987
1153.37327,0.10109
1151.44456,0.10051
1149.51584,0.09835
1147.58712,0.09495
1145.65840,0.09075
1143.72968,0.08626
1141.80097,0.08194
1139.87225,0.07828
1137.94353,0.07568
1136.01481,0.07449
1134.08610,0.07511
1132.15738,0.07751
1130.22866,0.08113
1128.29994,0.08543
1126.37122,0.09014
1124.44251,0.09492
1122.51379,0.09917
1120.58507,0.10249
1118.65635,0.10458
1116.72763,0.10475
1114.79892,0.10262
1112.87020,0.09875
1110.94148,0.09407
1109.01276,0.08931
1107.08405,0.08486
1105.15533,0.08092
1103.22661,0.07776
1101.29789,0.07598
1099.36917,0.07600
1097.44046,0.07753
1095.51174,0.08032
1093.58302,0.08427
1091.65430,0.08879
1089.72559,0.09316
1087.79687,0.09699
1085.86815,0.09965
1083.93943,0.10060
1082.01071,0.10029
1080.08200,0.09932
1078.15328,0.09759
1076.22456,0.09472
1074.29584,0.09070
1072.36712,0.08604
1070.43841,0.08164
1068.50969,0.07839
1066.58097,0.07660
1064.65225,0.07640
1062.72354,0.07807
1060.79482,0.08132
1058.86610,0.08534
1056.93738,0.08987
1055.00866,0.09493
1053.07995,0.09976
1051.15123,0.10341
1049.22251,0.10590
1047.29379,0.10724
1045.36507,0.10681
1043.43636,0.10427
1041.50764,0.09999
1039.57892,0.09497
1037.65020,0.08994
1035.72149,0.08532
1033.79277,0.08172
1031.86405,0.07958
1029.93533,0.07900
1028.00661,0.07995
1026.07790,0.08219
1024.14918,0.08551
1022.22046,0.08972
1020.29174,0.09420
1018.36302,0.09863
1016.43431,0.10316
1014.50559,0.10722
1012.57687,0.10976
1010.64815,0.11028
1008.71944,0.10890
1006.79072,0.10578
1004.86200,0.10125
1002.93328,0.09577
1001.00456,0.08991
999.07585,0.08466
997.14713,0.08102
995.21841,0.07923
993.28969,0.07933
991.36097,0.08165
989.43226,0.08602
987.50354,0.09163
985.57482,0.09768
983.64610,0.10347
981.71739,0.10836
979.78867,0.11185
977.85995,0.11326
975.93123,0.11228
974.00251,0.10933
972.07380,0.10493
970.14508,0.09935
968.21636,0.09301
966.28764,0.08663
964.35892,0.08115
962.43021,0.07730
960.50149,0.07537
958.57277,0.07555
956.64405,0.07800
954.71534,0.08245
952.78662,0.08826
950.85790,0.09466
948.92918,0.10104
947.00046,0.10673
945.07175,0.11096
943.14303,0.11329
941.21431,0.11352
939.28559,0.11138
937.35687,0.10703
935.42816,0.10122
933.49944,0.09462
931.57072,0.08790
929.64200,0.08193
927.71329,0.07728
925.78457,0.07447
923.85585,0.07412
921.92713,0.07653
919.99841,0.08120
918.06970,0.08734
916.14098,0.09423
914.21226,0.10097
912.28354,0.10669
910.35483,0.11078
908.42611,0.11303
906.49739,0.11340
904.56867,0.11182
902.63995,0.10811
900.71124,0.10222
898.78252,0.09481
896.85380,0.08703
894.92508,0.08005
892.99636,0.07493
891.06765,0.07210
889.13893,0.07159
887.21021,0.07371
885.28149,0.07848
883.35278,0.08502
881.42406,0.09240
879.49534,0.10004
877.56662,0.10698
875.63790,0.11228
873.70919,0.11545
871.78047,0.11623
869.85175,0.11443
867.92303,0.11006
865.99431,0.10353
864.06560,0.09578
862.13688,0.08795
860.20816,0.08079
858.27944,0.07503
856.35073,0.07170
854.42201,0.07104
852.49329,0.07272
850.56457,0.07689
848.63585,0.08344
846.70714,0.09145
844.77842,0.09983
842.84970,0.10745
840.92098,0.11325
838.99226,0.11664
837.06355,0.11731
835.13483,0.11520
833.20611,0.11047
831.27739,0.10376
829.34868,0.09612
827.41996,0.08823
825.49124,0.08033
823.56252,0.07342
821.63380,0.06899
819.70509,0.06778
817.77637,0.06989
815.84765,0.07499
813.91893,0.08222
811.99021,0.09052
810.06150,0.09892
808.13278,0.10628
806.20406,0.11163
804.27534,0.11480
802.34663,0.11541
800.41791,0.11272
798.48919,0.10686
796.56047,0.09888
794.63175,0.08999
792.70304,0.08103
790.77432,0.07283
788.84560,0.06655
786.91688,0.06312
784.98816,0.06260
783.05945,0.06487
781.13073,0.06985
779.20201,0.07681
777.27329,0.08435
775.34458,0.09155
773.41586,0.09798
771.48714,0.10305
769.55842,0.10575
767.62970,0.10533
765.70099,0.10180
763.77227,0.09591
761.84355,0.08843
759.91483,0.07974
757.98611,0.07052
756.05740,0.06241
754.12868,0.05730
752.19996,0.05627
750.27124,0.05897
748.34253,0.06476
746.41381,0.07284
744.48509,0.08108
742.55637,0.08655
740.62765,0.08699
738.69894,0.08112
736.77022,0.06983
734.84150,0.05800
732.91278,0.05184
730.98407,0.05256
729.05535,0.05564
727.12663,0.05669
725.19791,0.05537
723.26919,0.05417
721.34048,0.05541
719.41176,0.05892
717.48304,0.06317
715.55432,0.06803
713.62560,0.07282
711.69689,0.07455
709.76817,0.07165
707.83945,0.06571
705.91073,0.05927
703.98202,0.05552
702.05330,0.05735
700.12458,0.06523
698.19586,0.07772
696.26714,0.09221
694.33843,0.10566
692.40971,0.11637
690.48099,0.12348
688.55227,0.12564
686.62355,0.12238
684.69484,0.11509
682.76612,0.10507
680.83740,0.09315
678.90868,0.08047
676.97997,0.06907
675.05125,0.06154
673.12253,0.05904
671.19381,0.06099
669.26509,0.06739
667.33638,0.07898
665.40766,0.09249
663.47894,0.10537
661.55022,0.11732
659.62150,0.12698
657.69279,0.13328
655.76407,0.13534
653.83535,0.13260
651.90663,0.12560
649.97792,0.11528
648.04920,0.10244
646.12048,0.08862
644.19176,0.07587
642.26304,0.06544
640.33433,0.05878
638.40561,0.05773
636.47689,0.06253
634.54817,0.07181
632.61945,0.08387
630.69074,0.09726
628.76202,0.11101
626.83330,0.12382
624.90458,0.13394
622.97587,0.13982
621.04715,0.14053
619.11843,0.13618
617.18971,0.12750
615.26099,0.11551
613.33228,0.10206
611.40356,0.08872
609.47484,0.07619
607.54612,0.06526
605.61740,0.05771
603.68869,0.05552
601.75997,0.05979
599.83125,0.06988
