7496.90619,0.01899
7494.97747,0.02150
7493.04876,0.02524
7491.12005,0.02744
7489.19134,0.03051
7487.26262,0.03507
7485.33391,0.02597
7483.40520,0.00784
7481.47648,-0.00272
7479.54777,0.01534
7477.61906,0.02500
7475.69035,0.03371
7473.76163,0.02906
7471.83292,0.02852
7469.90421,0.02993
7467.97550,0.03136
7466.04678,0.02424
7464.11807,0.03219
7462.18936,0.03900
7460.26065,0.04235
7458.33193,0.03691
7456.40322,0.02150
7454.47451,0.01580
7452.54579,0.03066
7450.61708,0.02169
7448.68837,0.00464
7446.75966,0.01338
7444.83094,0.02589
7442.90223,0.01073
7440.97352,0.01094
7439.04481,0.02217
7437.11609,0.02916
7435.18738,0.02378
7433.25867,0.01777
7431.32996,0.02110
7429.40124,0.02422
7427.47253,0.01979
7425.54382,0.01187
7423.61510,0.03125
7421.68639,0.05846
7419.75768,0.04320
7417.82897,0.01756
7415.90025,0.02440
7413.97154,0.02987
7412.04283,0.03847
7410.11412,0.03835
7408.18540,0.01554
7406.25669,-0.00680
7404.32798,0.00603
7402.39927,0.02092
7400.47055,0.02570
7398.54184,0.02260
7396.61313,0.01360
7394.68441,0.01563
7392.75570,0.03351
7390.82699,0.04829
7388.89828,0.03966
7386.96956,0.02134
7385.04085,0.01973
7383.11214,0.03741
7381.18343,0.04713
7379.25471,0.04674
7377.32600,0.03079
7375.39729,0.00960
7373.46857,0.00773
7371.53986,0.02303
7369.61115,0.02619
7367.68244,0.03112
7365.75372,0.03331
7363.82501,0.03489
7361.89630,0.03621
7359.96759,0.02703
7358.03887,0.01478
7356.11016,0.01862
7354.18145,0.03341
7352.25274,0.04871
7350.32402,0.03709
7348.39531,0.01640
7346.46660,0.01981
7344.53788,0.02611
7342.60917,0.02864
7340.68046,0.02513
7338.75175,0.02018
7336.82303,0.02415
7334.89432,0.00846
7332.96561,0.00308
7331.03690,0.02012
7329.10818,0.02645
7327.17947,0.02037
7325.25076,0.01181
7323.32205,-0.00065
7321.39333,0.01067
7319.46462,0.02983
7317.53591,0.03294
7315.60719,0.01592
7313.67848,0.02203
7311.74977,0.03468
7309.82106,0.04474
7307.89234,0.03597
7305.96363,0.00754
7304.03492,-0.00529
7302.10621,0.00412
7300.17749,0.01444
7298.24878,0.02523
7296.32007,0.01849
7294.39136,0.00325
7292.46264,0.00982
7290.53393,0.02906
7288.60522,0.02607
7286.67650,0.01446
7284.74779,0.00955
7282.81908,0.03537
7280.89037,0.04708
7278.96165,0.03379
7277.03294,0.01563
7275.10423,0.02107
7273.17552,0.03693
7271.24680,0.04646
7269.31809,0.03451
7267.38938,0.01068
7265.46066,0.00656
7263.53195,0.03024
7261.60324,0.02148
7259.67453,0.00750
7257.74581,-0.00416
7255.81710,-0.00189
7253.88839,0.01304
7251.95968,0.03607
7250.03096,0.04221
7248.10225,0.03205
7246.17354,0.02625
7244.24483,0.03990
7242.31611,0.03761
7240.38740,0.02782
7238.45869,0.02135
7236.52997,0.01594
7234.60126,0.00795
7232.67255,0.02386
7230.74384,0.03658
7228.81512,0.04040
7226.88641,0.04163
7224.95770,0.03986
7223.02899,0.03549
7221.10027,0.03611
7219.17156,0.03900
7217.24285,0.03222
7215.31414,0.01996
7213.38542,0.02173
7211.45671,0.01933
7209.52800,0.02098
7207.59928,0.02298
7205.67057,0.02446
7203.74186,0.02030
7201.81315,0.01172
7199.88443,0.00268
7197.95572,0.00991
7196.02701,0.02052
7194.09830,0.02395
7192.16958,0.02845
7190.24087,0.03457
7188.31216,0.02764
7186.38344,0.02046
7184.45473,0.01606
7182.52602,0.03286
7180.59731,0.02488
7178.66859,0.01407
7176.73988,0.01506
7174.81117,0.02176
7172.88246,0.01838
7170.95374,0.00979
7169.02503,0.01100
7167.09632,0.02512
7165.16761,0.01452
7163.23889,0.01320
7161.31018,0.02510
7159.38147,0.02394
7157.45275,0.01524
7155.52404,0.01486
7153.59533,0.01891
7151.66662,0.02113
7149.73790,0.02161
7147.80919,0.01846
7145.88048,0.01068
7143.95177,0.00820
7142.02305,0.01448
7140.09434,0.02089
7138.16563,0.02052
7136.23692,0.02068
7134.30820,0.01529
7132.37949,0.01156
7130.45078,0.01402
7128.52206,0.02681
7126.59335,0.02922
7124.66464,0.02311
7122.73593,0.01626
7120.80721,0.01269
7118.87850,0.01186
7116.94979,0.01347
7115.02108,0.01847
7113.09236,0.02954
7111.16365,0.02831
7109.23494,0.01548
7107.30623,0.01374
7105.37751,0.03181
7103.44880,0.03815
7101.52009,0.03043
7099.59137,0.02036
7097.66266,0.02653
7095.73395,0.02862
7093.80524,0.02129
7091.87652,0.00994
7089.94781,0.00974
7088.01910,0.01515
7086.09039,0.01629
7084.16167,0.01121
7082.23296,0.00415
7080.30425,0.01302
7078.37553,0.02182
7076.44682,0.01703
7074.51811,0.01048
7072.58940,0.00973
7070.66068,0.01912
7068.73197,0.02211
7066.80326,0.02304
7064.87455,0.02976
7062.94583,0.03127
7061.01712,0.02550
7059.08841,0.01670
7057.15970,0.00891
7055.23098,0.01468
7053.30227,0.00556
7051.37356,-0.00080
7049.44484,0.00981
7047.51613,0.02421
7045.58742,0.02588
7043.65871,0.02395
7041.72999,0.02800
7039.80128,0.01890
7037.87257,0.01018
7035.94386,0.00971
7034.01514,0.00826
7032.08643,0.00591
7030.15772,0.01287
7028.22901,0.02637
7026.30029,0.03043
7024.37158,0.02367
7022.44287,0.01510
7020.51415,0.01289
7018.58544,0.02091
7016.65673,0.02269
7014.72802,0.01789
7012.79930,0.01952
7010.87059,0.02324
7008.94188,0.02604
7007.01317,0.02124
7005.08445,0.01594
7003.15574,0.01503
7001.22703,0.02022
6999.29832,0.01351
6997.36960,0.01003
6995.44089,0.01095
6993.51218,0.00693
6991.58346,0.00188
6989.65475,0.01042
6987.72604,0.02728
6985.79733,0.03204
6983.86861,0.02654
6981.93990,0.02001
6980.01119,0.01141
6978.08248,0.00639
6976.15376,0.00955
6974.22505,0.01052
6972.29634,0.00185
6970.36762,-0.00006
6968.43891,0.00208
6966.51020,0.00534
6964.58149,0.00778
6962.65277,0.01228
6960.72406,0.01665
6958.79535,0.01623
6956.86664,0.01362
6954.93792,0.01211
6953.00921,0.01089
6951.08050,0.00379
6949.15179,0.00969
6947.22307,0.02490
6945.29436,0.02671
6943.36565,0.01391
6941.43693,0.00335
6939.50822,0.01023
6937.57951,0.01293
6935.65080,0.01473
6933.72208,0.01430
6931.79337,0.01548
6929.86466,0.02052
6927.93595,0.02970
6926.00723,0.03663
6924.07852,0.03363
6922.14981,0.02208
6920.22110,0.01056
6918.29238,0.00225
6916.36367,0.01073
6914.43496,0.01922
6912.50624,0.01829
6910.57753,0.02121
6908.64882,0.02679
6906.72011,0.02354
6904.79139,0.01392
6902.86268,0.00810
6900.93397,0.01056
6899.00526,0.00987
6897.07654,0.01988
6895.14783,0.03172
6893.21912,0.02705
6891.29040,0.01283
6889.36169,0.00382
6887.43298,0.00556
6885.50427,0.00768
6883.57555,0.01003
6881.64684,0.01041
6879.71813,0.01212
6877.78942,0.01767
6875.86070,0.01958
6873.93199,0.01441
6872.00328,0.01135
6870.07457,0.01835
6868.14585,0.01514
6866.21714,0.00656
6864.28843,0.00461
6862.35971,0.00801
6860.43100,0.00107
6858.50229,0.00015
6856.57358,0.00894
6854.64486,0.01560
6852.71615,0.01654
6850.78744,0.02004
6848.85873,0.02396
6846.93001,0.01976
6845.00130,0.01424
6843.07259,0.01801
6841.14388,0.01962
6839.21516,0.02578
6837.28645,0.02858
6835.35774,0.01989
6833.42902,0.01193
6831.50031,0.01644
6829.57160,0.02176
6827.64289,0.02243
6825.71417,0.01360
6823.78546,0.00205
6821.85675,0.00675
6819.92804,0.01972
6817.99932,0.02792
6816.07061,0.02712
6814.14190,0.01665
6812.21319,0.00755
6810.28447,0.00818
6808.35576,0.01468
6806.42705,0.01737
6804.49833,0.01434
6802.56962,0.01348
6800.64091,0.01024
6798.71220,0.00342
6796.78348,0.00903
6794.85477,0.01470
6792.92606,0.01361
6790.99735,0.01149
6789.06863,0.00934
6787.13992,0.00313
6785.21121,0.00453
6783.28249,0.01075
6781.35378,0.01388
6779.42507,0.01181
6777.49636,0.01294
6775.56764,0.01204
6773.63893,0.00903
6771.71022,0.00838
6769.78151,0.01276
6767.85279,0.01961
6765.92408,0.02662
6763.99537,0.01685
6762.06666,0.00038
6760.13794,0.00540
6758.20923,0.01825
6756.28052,0.02795
6754.35180,0.02981
6752.42309,0.01938
6750.49438,0.00881
6748.56567,0.00552
6746.63695,0.00594
6744.70824,-0.00084
6742.77953,0.00115
6740.85082,0.01027
6738.92210,0.02177
6736.99339,0.01290
6735.06468,0.01132
6733.13597,0.01921
6731.20725,0.02046
6729.27854,0.01682
6727.34983,0.01375
6725.42111,0.00865
6723.49240,0.00667
6721.56369,0.00433
6719.63498,0.00839
6717.70626,0.01254
6715.77755,0.01342
6713.84884,0.00839
6711.92013,0.00938
6709.99141,0.01251
6708.06270,0.01155
6706.13399,0.00896
6704.20528,0.01023
6702.27656,0.00945
6700.34785,0.01238
6698.41914,0.01809
6696.49042,0.01528
6694.56171,0.00873
6692.63300,0.01036
6690.70429,0.01096
6688.77557,0.01175
6686.84686,0.01301
6684.91815,0.01472
6682.98944,0.01899
6681.06072,0.01315
6679.13201,0.00231
6677.20330,0.00199
6675.27458,0.00616
6673.34587,0.01210
6671.41716,0.01590
6669.48845,0.01442
6667.55973,0.01000
6665.63102,0.00535
6663.70231,0.00570
6661.77360,0.01227
6659.84488,0.01219
6657.91617,0.00915
6655.98746,0.01116
6654.05875,0.01387
6652.13003,0.01422
6650.20132,0.01350
6648.27261,0.01336
6646.34389,0.01566
6644.41518,0.01259
6642.48647,0.00373
6640.55776,0.00481
6638.62904,0.01102
6636.70033,0.00174
6634.77162,0.00497
6632.84291,0.01409
6630.91419,0.01756
6628.98548,0.01287
6627.05677,0.01155
6625.12806,0.01332
6623.19934,0.00866
6621.27063,0.00113
6619.34192,0.00630
6617.41320,0.01002
6615.48449,0.01431
6613.55578,0.01436
6611.62707,0.01360
6609.69835,0.01418
6607.76964,0.01637
6605.84093,0.01984
6603.91222,0.01622
6601.98350,0.00683
6600.05479,0.00788
6598.12608,0.00638
6596.19736,0.00346
6594.26865,0.00582
6592.33994,0.01477
6590.41123,0.02046
6588.48251,0.01996
6586.55380,0.01925
6584.62509,0.01364
6582.69638,0.00206
6580.76766,0.00722
6578.83895,0.01132
6576.91024,0.00661
6574.98153,-0.00040
6573.05281,0.00826
6571.12410,0.01781
6569.19539,0.01733
6567.26667,0.01184
6565.33796,0.01584
6563.40925,0.01536
6561.48054,0.01290
6559.55182,0.01407
6557.62311,0.01812
6555.69440,0.01807
6553.76569,0.01006
6551.83697,0.00343
6549.90826,0.00997
6547.97955,0.01276
6546.05084,0.00813
6544.12212,0.00446
6542.19341,0.00891
6540.26470,0.01017
6538.33598,0.01290
6536.40727,0.00882
6534.47856,0.00581
6532.54985,0.00764
6530.62113,0.01261
6528.69242,0.01500
6526.76371,0.01149
6524.83500,0.01162
6522.90628,0.01458
6520.97757,0.00756
6519.04886,-0.00174
6517.12015,0.00009
6515.19143,0.00938
6513.26272,0.01387
6511.33401,0.01535
6509.40529,0.01823
6507.47658,0.02002
6505.54787,0.01561
6503.61916,0.00550
6501.69044,-0.00489
6499.76173,0.00770
6497.83302,0.00855
6495.90431,0.01353
6493.97559,0.01912
6492.04688,0.01782
6490.11817,0.01149
6488.18945,0.00638
6486.26074,0.00286
6484.33203,0.00200
6482.40332,0.00161
6480.47460,0.00478
6478.54589,0.00806
6476.61718,0.01294
6474.68847,0.00991
6472.75975,0.00743
6470.83104,0.01229
6468.90233,0.01622
6466.97362,0.01270
6465.04490,0.01137
6463.11619,0.00476
6461.18748,-0.00017
6459.25876,0.00438
6457.33005,0.01661
6455.40134,0.01511
6453.47263,0.01448
6451.54391,0.01618
6449.61520,0.01559
6447.68649,0.01015
6445.75778,0.00742
6443.82906,0.01200
6441.90035,0.00918
6439.97164,0.00839
6438.04293,0.01656
6436.11421,0.01391
6434.18550,0.00746
6432.25679,0.00755
6430.32807,0.01053
6428.39936,0.01186
6426.47065,0.01169
6424.54194,0.00667
6422.61322,0.00556
6420.68451,0.01106
6418.75580,0.01508
6416.82709,0.01746
6414.89837,0.01939
6412.96966,0.01470
6411.04095,0.01024
6409.11224,0.00789
6407.18352,0.00216
6405.25481,0.00498
6403.32610,0.01371
6401.39738,0.01870
6399.46867,0.01842
6397.53996,0.00854
6395.61125,0.00235
6393.68253,0.00694
6391.75382,0.01055
6389.82511,0.00781
6387.89640,0.00564
6385.96768,0.00921
6384.03897,0.01231
6382.11026,0.00768
6380.18154,0.00638
6378.25283,0.01006
6376.32412,0.01203
6374.39541,0.01074
6372.46669,0.01054
6370.53798,0.01058
6368.60927,0.01504
6366.68056,0.01461
6364.75184,0.00835
6362.82313,0.00769
6360.89442,0.01213
6358.96571,0.01167
6357.03699,0.01167
6355.10828,0.01354
6353.17957,0.01689
6351.25085,0.01966
6349.32214,0.01651
6347.39343,0.01131
6345.46472,0.00729
6343.53600,0.00645
6341.60729,0.00424
6339.67858,0.01077
6337.74987,0.01739
6335.82115,0.02123
6333.89244,0.02244
6331.96373,0.01617
6330.03502,0.01375
6328.10630,0.01595
6326.17759,0.01449
6324.24888,0.01160
6322.32016,0.01693
6320.39145,0.01516
6318.46274,0.00575
6316.53403,-0.00152
6314.60531,0.00360
6312.67660,0.00847
6310.74789,0.01238
6308.81918,0.01467
6306.89046,0.01506
6304.96175,0.01276
6303.03304,0.00999
6301.10432,0.00827
6299.17561,0.01342
6297.24690,0.01558
6295.31819,0.01260
6293.38947,0.00726
6291.46076,0.00121
6289.53205,0.00258
6287.60334,0.00832
6285.67462,0.00507
6283.74591,0.00338
6281.81720,0.00380
6279.88849,0.00888
6277.95977,0.01652
6276.03106,0.01796
6274.10235,0.01012
6272.17363,0.00417
6270.24492,0.00802
6268.31621,0.01436
6266.38750,0.01324
6264.45878,0.01063
6262.53007,0.00950
6260.60136,0.00978
6258.67265,0.00581
6256.74393,0.00823
6254.81522,0.01117
6252.88651,0.00990
6250.95780,0.00718
6249.02908,0.00534
6247.10037,0.00643
6245.17166,0.00913
6243.24294,0.01076
6241.31423,0.01142
6239.38552,0.00916
6237.45681,0.00835
6235.52809,0.00864
6233.59938,0.00778
6231.67067,0.00606
6229.74196,0.00721
6227.81324,0.00970
6225.88453,0.01152
6223.95582,0.00949
6222.02711,0.00556
6220.09839,0.00213
6218.16968,0.00198
6216.24097,0.00281
6214.31225,0.00761
6212.38354,0.01290
6210.45483,0.01587
6208.52612,0.01419
6206.59740,0.01265
6204.66869,0.01130
6202.73998,0.00789
6200.81127,0.00503
6198.88255,0.00296
6196.95384,0.00503
6195.02513,0.01013
6193.09641,0.00941
6191.16770,0.00456
6189.23899,0.00207
6187.31028,0.00242
6185.38156,0.00213
6183.45285,0.00582
6181.52414,0.00759
6179.59543,0.00457
6177.66671,0.00626
6175.73800,0.00851
6173.80929,0.00838
6171.88058,0.00805
6169.95186,0.00901
6168.02315,0.01060
6166.09444,0.01117
6164.16572,0.01153
6162.23701,0.00933
6160.30830,0.00569
6158.37959,0.00526
6156.45087,0.01083
6154.52216,0.01381
6152.59345,0.01193
6150.66474,0.01038
6148.73602,0.01332
6146.80731,0.01310
6144.87860,0.01200
6142.94989,0.00767
6141.02117,0.00534
6139.09246,0.00804
6137.16375,0.00979
6135.23503,0.00795
6133.30632,0.00533
6131.37761,0.00335
6129.44890,0.00138
6127.52018,0.00263
6125.59147,0.00658
6123.66276,0.00821
6121.73405,0.00832
6119.80533,0.00670
6117.87662,0.00841
6115.94791,0.00923
6114.01919,0.01080
6112.09048,0.01373
6110.16177,0.01432
6108.23306,0.01153
6106.30434,0.00941
6104.37563,0.01234
6102.44692,0.01695
6100.51821,0.01102
6098.58949,0.00712
6096.66078,0.00332
6094.73207,0.00725
6092.80336,0.01012
6090.87464,0.01058
6088.94593,0.01120
6087.01722,0.01415
6085.08850,0.01411
6083.15979,0.01133
6081.23108,0.01069
6079.30237,0.00771
6077.37365,0.00409
6075.44494,0.00755
6073.51623,0.00955
6071.58752,0.00857
6069.65880,0.00616
6067.73009,0.00363
6065.80138,0.00444
6063.87267,0.00802
6061.94395,0.00898
6060.01524,0.00828
6058.08653,0.00645
6056.15781,0.00956
6054.22910,0.00656
6052.30039,0.00667
6050.37168,0.01202
6048.44296,0.01217
6046.51425,0.00733
6044.58554,0.00465
6042.65683,0.00377
6040.72811,0.00105
6038.79940,0.00016
6036.87069,0.00295
6034.94198,0.00399
6033.01326,0.00441
6031.08455,0.00436
6029.15584,0.00851
6027.22712,0.01343
6025.29841,0.01155
6023.36970,0.00854
6021.44099,0.00860
6019.51227,0.00837
6017.58356,0.00727
6015.65485,0.00694
6013.72614,0.00943
6011.79742,0.00386
6009.86871,0.00042
6007.94000,0.00472
6006.01128,0.01136
6004.08257,0.01291
6002.15386,0.00898
6000.22515,0.00710
5998.29643,0.01014
5996.36772,0.00989
5994.43901,0.00961
5992.51030,0.00758
5990.58158,0.00441
5988.65287,0.00412
5986.72416,0.00473
5984.79545,0.00682
5982.86673,0.00824
5980.93802,0.00826
5979.00931,0.00675
5977.08059,0.00121
5975.15188,0.00625
5973.22317,0.00814
5971.29446,0.00650
5969.36574,0.00468
5967.43703,0.00572
5965.50832,0.00719
5963.57961,0.00694
5961.65089,0.00761
5959.72218,0.01114
5957.79347,0.01199
5955.86476,0.00940
5953.93604,0.00461
5952.00733,0.00012
5950.07862,0.00281
5948.14990,0.00646
5946.22119,0.00705
5944.29248,0.00660
5942.36377,0.00358
5940.43505,0.00405
5938.50634,0.00781
5936.57763,0.00825
5934.64892,0.00390
5932.72020,0.00028
5930.79149,0.00180
5928.86278,0.00565
5926.93407,0.00833
5925.00535,0.00978
5923.07664,0.01027
5921.14793,0.01176
5919.21921,0.01303
5917.29050,0.01203
5915.36179,0.01115
5913.43308,0.01097
5911.50436,0.00814
5909.57565,0.00330
5907.64694,0.00246
5905.71823,0.00555
5903.78951,0.00693
5901.86080,0.00726
5899.93209,0.00593
5898.00337,0.00325
5896.07466,0.00065
5894.14595,0.00424
5892.21724,0.00801
5890.28852,0.00663
5888.35981,0.00327
5886.43110,0.00728
5884.50239,0.01028
5882.57367,0.00975
5880.64496,0.00376
5878.71625,-0.00024
5876.78754,0.00282
5874.85882,0.00718
5872.93011,0.00821
5871.00140,0.00610
5869.07268,0.00628
5867.14397,0.00924
5865.21526,0.00712
5863.28655,0.00420
5861.35783,0.00640
5859.42912,0.01073
5857.50041,0.01108
5855.57170,0.00714
5853.64298,0.00561
5851.71427,0.00776
5849.78556,0.00835
5847.85685,0.00935
5845.92813,0.00825
5843.99942,0.00382
5842.07071,-0.00128
5840.14199,0.00461
5838.21328,0.00624
5836.28457,0.00696
5834.35586,0.00814
5832.42714,0.00786
5830.49843,0.00265
5828.56972,0.00435
5826.64101,0.00756
5824.71229,0.00928
5822.78358,0.00668
5820.85487,0.00448
5818.92615,0.00731
5816.99744,0.00992
5815.06873,0.00774
5813.14002,0.00416
5811.21130,0.00239
5809.28259,0.00297
5807.35388,0.00542
5805.42517,0.00759
5803.49645,0.00784
5801.56774,0.00707
5799.63903,0.00605
5797.71032,0.00604
5795.78160,0.00682
5793.85289,0.00553
5791.92418,0.00440
5789.99546,0.00545
5788.06675,0.00594
5786.13804,0.00521
5784.20933,0.00467
5782.28061,0.00490
5780.35190,0.00404
5778.42319,0.00328
5776.49448,0.00397
5774.56576,0.00730
5772.63705,0.00889
5770.70834,0.00716
5768.77963,0.00550
5766.85091,0.00613
5764.92220,0.00575
5762.99349,0.00464
5761.06477,0.00408
5759.13606,0.00376
5757.20735,0.00286
5755.27864,0.00383
5753.34992,0.00391
5751.42121,0.00249
5749.49250,0.00083
5747.56379,0.00543
5745.63507,0.00719
5743.70636,0.00677
5741.77765,0.00655
5739.84894,0.00624
5737.92022,0.00475
5735.99151,0.00400
5734.06280,0.00486
5732.13408,0.00479
5730.20537,0.00452
5728.27666,0.00716
5726.34795,0.00656
5724.41923,0.00586
5722.49052,0.00461
5720.56181,0.00512
5718.63310,0.00604
5716.70438,0.00569
5714.77567,0.00272
5712.84696,0.00291
5710.91824,0.00605
5708.98953,0.00743
5707.06082,0.00861
5705.13211,0.00977
5703.20339,0.00792
5701.27468,0.00575
5699.34597,0.00563
5697.41726,0.00545
5695.48854,0.00435
5693.55983,0.00535
5691.63112,0.00572
5689.70241,0.00336
5687.77369,0.00314
5685.84498,0.00653
5683.91627,0.00555
5681.98755,0.00425
5680.05884,0.00636
5678.13013,0.01062
5676.20142,0.01033
5674.27270,0.00678
5672.34399,0.00414
5670.41528,0.00279
5668.48657,0.00281
5666.55785,0.00377
5664.62914,0.00159
5662.70043,0.00314
5660.77172,0.00466
5658.84300,0.00385
5656.91429,0.00295
5654.98558,0.00298
5653.05686,0.00360
5651.12815,0.00479
5649.19944,0.00237
5647.27073,0.00177
5645.34201,0.00354
5643.41330,0.00487
5641.48459,0.00496
5639.55588,0.00306
5637.62716,0.00212
5635.69845,0.00391
5633.76974,0.00231
5631.84103,0.00096
5629.91231,0.00554
5627.98360,0.00908
5626.05489,0.00893
5624.12617,0.00542
5622.19746,0.00010
5620.26875,0.00102
5618.34004,0.00589
5616.41132,0.01004
5614.48261,0.01034
5612.55390,0.00804
5610.62519,0.00567
5608.69647,0.00644
5606.76776,0.00498
5604.83905,0.00263
5602.91033,0.00412
5600.98162,0.00599
5599.05291,0.00540
5597.12420,0.00518
5595.19548,0.00556
5593.26677,0.00768
5591.33806,0.00755
5589.40935,0.00629
5587.48063,0.00464
5585.55192,0.00227
5583.62321,0.00365
5581.69450,0.00577
5579.76578,0.00572
5577.83707,0.00527
5575.90836,0.00520
5573.97964,0.00490
5572.05093,0.00470
5570.12222,0.00633
5568.19351,0.00622
5566.26479,0.00327
5564.33608,0.00021
5562.40737,0.00245
5560.47866,0.00392
5558.54994,0.00321
5556.62123,0.00096
5554.69252,0.00274
5552.76381,0.00381
5550.83509,0.00216
5548.90638,0.00417
5546.97767,0.00651
5545.04895,0.00658
5543.12024,0.00551
5541.19153,0.00398
5539.26282,0.00313
5537.33410,0.00395
5535.40539,0.00450
5533.47668,0.00179
5531.54797,0.00151
5529.61925,0.00326
5527.69054,0.00807
5525.76183,0.00878
5523.83311,0.00518
5521.90440,0.00262
5519.97569,0.00359
5518.04698,0.00553
5516.11826,0.00730
5514.18955,0.00671
5512.26084,0.00487
5510.33213,0.00414
5508.40341,0.00536
5506.47470,0.00513
5504.54599,0.00535
5502.61728,0.00733
5500.68856,0.01018
5498.75985,0.01043
5496.83114,0.00648
5494.90242,0.00297
5492.97371,0.00373
5491.04500,0.00496
5489.11629,0.00371
5487.18757,0.00367
5485.25886,0.00385
5483.33015,0.00274
5481.40144,0.00221
5479.47272,0.00180
5477.54401,0.00054
5475.61530,0.00043
5473.68659,0.00260
5471.75787,0.00377
5469.82916,0.00424
5467.90045,0.00397
5465.97173,0.00303
5464.04302,0.00016
5462.11431,-0.00073
5460.18560,0.00133
5458.25688,0.00390
5456.32817,0.00420
5454.39946,0.00182
5452.47075,0.00072
5450.54203,0.00125
5448.61332,0.00375
5446.68461,0.00735
5444.75590,0.00428
5442.82718,0.00108
5440.89847,0.00418
5438.96976,0.00618
5437.04104,0.00773
5435.11233,0.00857
5433.18362,0.00681
5431.25491,0.00362
5429.32619,0.00222
5427.39748,0.00355
5425.46877,0.00252
5423.54006,0.00184
5421.61134,0.00514
5419.68263,0.00654
5417.75392,0.00481
5415.82520,0.00407
5413.89649,0.00374
5411.96778,0.00381
5410.03907,0.00454
5408.11035,0.00432
5406.18164,0.00150
5404.25293,0.00351
5402.32422,0.00766
5400.39550,0.00810
5398.46679,0.00579
5396.53808,0.00284
5394.60937,-0.00051
5392.68065,-0.00132
5390.75194,0.00138
5388.82323,0.00509
5386.89451,0.00732
5384.96580,0.00691
5383.03709,0.00580
5381.10838,0.00544
5379.17966,0.00551
5377.25095,0.00531
5375.32224,0.00383
5373.39353,0.00309
5371.46481,0.00253
5369.53610,0.00122
5367.60739,0.00382
5365.67868,0.00607
5363.74996,0.00495
5361.82125,0.00455
5359.89254,0.00587
5357.96382,0.00469
5356.03511,0.00155
5354.10640,0.00501
5352.17769,0.00667
5350.24897,0.00626
5348.32026,0.00457
5346.39155,0.00287
5344.46284,0.00256
5342.53412,0.00286
5340.60541,0.00286
5338.67670,0.00373
5336.74799,0.00534
5334.81927,0.00678
5332.89056,0.00427
5330.96185,0.00200
5329.03313,0.00329
5327.10442,0.00591
5325.17571,0.00501
5323.24700,0.00284
5321.31828,0.00281
5319.38957,0.00282
5317.46086,0.00227
5315.53215,0.00288
5313.60343,0.00331
5311.67472,0.00405
5309.74601,0.00518
5307.81729,0.00574
5305.88858,0.00456
5303.95987,0.00399
5302.03116,0.00458
5300.10244,0.00558
5298.17373,0.00491
5296.24502,0.00408
5294.31631,0.00521
5292.38759,0.00645
5290.45888,0.00507
5288.53017,0.00276
5286.60146,0.00171
5284.67274,0.00266
5282.74403,0.00368
5280.81532,0.00484
5278.88660,0.00483
5276.95789,0.00438
5275.02918,0.00447
5273.10047,0.00453
5271.17175,0.00315
5269.24304,0.00294
5267.31433,0.00371
5265.38562,0.00406
5263.45690,0.00523
5261.52819,0.00572
5259.59948,0.00302
5257.67077,0.00141
5255.74205,0.00319
5253.81334,0.00362
5251.88463,0.00310
5249.95591,0.00420
5248.02720,0.00376
5246.09849,0.00254
5244.16978,0.00351
5242.24106,0.00550
5240.31235,0.00581
5238.38364,0.00426
5236.45493,0.00203
5234.52621,0.00365
5232.59750,0.00487
5230.66879,0.00416
5228.74007,0.00278
5226.81136,0.00252
5224.88265,0.00259
5222.95394,0.00364
5221.02522,0.00234
5219.09651,0.00315
5217.16780,0.00348
5215.23909,0.00478
5213.31037,0.00677
5211.38166,0.00497
5209.45295,0.00142
5207.52424,0.00375
5205.59552,0.00572
5203.66681,0.00727
5201.73810,0.00688
5199.80938,0.00394
5197.88067,-0.00001
5195.95196,-0.00161
5194.02325,0.00065
5192.09453,0.00359
5190.16582,0.00406
5188.23711,0.00448
5186.30840,0.00395
5184.37968,0.00301
5182.45097,0.00272
5180.52226,0.00244
5178.59355,0.00154
5176.66483,0.00158
5174.73612,0.00305
5172.80741,0.00415
5170.87869,0.00365
5168.94998,0.00221
5167.02127,0.00160
5165.09256,0.00465
5163.16384,0.00727
5161.23513,0.00675
5159.30642,0.00439
5157.37771,0.00410
5155.44899,0.00463
5153.52028,0.00441
5151.59157,0.00357
5149.66286,0.00322
5147.73414,0.00303
5145.80543,0.00353
5143.87672,0.00332
5141.94800,0.00280
5140.01929,0.00205
5138.09058,0.00090
5136.16187,0.00036
5134.23315,0.00187
5132.30444,0.00454
5130.37573,0.00501
5128.44702,0.00292
5126.51830,0.00163
5124.58959,0.00164
5122.66088,0.00193
5120.73216,0.00191
5118.80345,0.00187
5116.87474,0.00152
5114.94603,0.00160
5113.01731,0.00200
5111.08860,0.00243
5109.15989,0.00275
5107.23118,0.00235
5105.30246,0.00224
5103.37375,0.00280
5101.44504,0.00257
5099.51633,0.00259
5097.58761,0.00250
5095.65890,0.00352
5093.73019,0.00395
5091.80147,0.00376
5089.87276,0.00494
5087.94405,0.00530
5086.01534,0.00330
5084.08662,0.00143
5082.15791,0.00171
5080.22920,0.00171
5078.30049,0.00149
5076.37177,0.00200
5074.44306,0.00138
5072.51435,0.00191
5070.58564,0.00289
5068.65692,0.00264
5066.72821,0.00062
5064.79950,-0.00047
5062.87078,0.00079
5060.94207,0.00347
5059.01336,0.00435
5057.08465,0.00358
5055.15593,0.00378
5053.22722,0.00465
5051.29851,0.00468
5049.36980,0.00456
5047.44108,0.00387
5045.51237,0.00371
5043.58366,0.00362
5041.65495,0.00339
5039.72623,0.00352
5037.79752,0.00365
5035.86881,0.00268
5033.94009,0.00249
5032.01138,0.00265
5030.08267,0.00105
5028.15396,0.00085
5026.22524,0.00227
5024.29653,0.00194
5022.36782,0.00206
5020.43911,0.00116
5018.51039,0.00309
5016.58168,0.00271
5014.65297,0.00176
5012.72425,0.00139
5010.79554,0.00061
5008.86683,0.00020
5006.93812,0.00196
5005.00940,0.00350
5003.08069,0.00311
5001.15198,0.00061
4999.22327,0.00289
4997.29455,0.00339
4995.36584,0.00248
4993.43713,0.00323
4991.50842,0.00327
4989.57970,0.00161
4987.65099,0.00198
4985.72228,0.00261
4983.79356,0.00273
4981.86485,0.00125
4979.93614,0.00273
4978.00743,0.00412
4976.07871,0.00300
4974.15000,0.00130
4972.22129,0.00187
4970.29258,0.00407
4968.36386,0.00476
4966.43515,0.00340
4964.50644,0.00272
4962.57773,0.00351
4960.64901,0.00331
4958.72030,0.00218
4956.79159,0.00216
4954.86287,0.00096
4952.93416,0.00128
4951.00545,0.00199
4949.07674,0.00258
4947.14802,0.00270
4945.21931,0.00174
4943.29060,0.00199
4941.36189,0.00359
4939.43317,0.00358
4937.50446,0.00165
4935.57575,0.00168
4933.64703,0.00370
4931.71832,0.00383
4929.78961,0.00258
4927.86090,0.00099
4925.93218,0.00034
4924.00347,0.00074
4922.07476,0.00084
4920.14605,0.00052
4918.21733,0.00116
4916.28862,0.00130
4914.35991,0.00076
4912.43120,0.00178
4910.50248,0.00343
4908.57377,0.00355
4906.64506,0.00306
4904.71634,0.00282
4902.78763,0.00253
4900.85892,0.00179
4898.93021,0.00165
4897.00149,0.00133
4895.07278,0.00115
4893.14407,0.00119
4891.21536,0.00050
4889.28664,-0.00012
4887.35793,0.00079
4885.42922,0.00214
4883.50051,0.00370
4881.57179,0.00403
4879.64308,0.00195
4877.71437,0.00184
4875.78565,0.00362
4873.85694,0.00187
4871.92823,-0.00018
4869.99952,0.00012
4868.07080,0.00182
4866.14209,0.00235
4864.21338,0.00158
4862.28467,0.00022
4860.35595,0.00052
4858.42724,0.00150
4856.49853,0.00232
4854.56982,0.00163
4852.64110,0.00187
4850.71239,0.00264
4848.78368,0.00383
4846.85496,0.00387
4844.92625,0.00232
4842.99754,0.00160
4841.06883,0.00174
4839.14011,0.00209
4837.21140,0.00266
4835.28269,0.00265
4833.35398,0.00186
4831.42526,0.00148
4829.49655,0.00219
4827.56784,0.00178
4825.63912,0.00128
4823.71041,0.00188
4821.78170,0.00099
4819.85299,-0.00006
4817.92427,0.00195
4815.99556,0.00431
4814.06685,0.00354
4812.13814,0.00107
4810.20942,-0.00011
4808.28071,0.00088
4806.35200,0.00321
4804.42329,0.00258
4802.49457,0.00128
4800.56586,0.00184
4798.63715,0.00247
4796.70843,0.00300
4794.77972,0.00348
4792.85101,0.00241
4790.92230,0.00156
4788.99358,0.00185
4787.06487,0.00356
4785.13616,0.00481
4783.20745,0.00340
4781.27873,-0.00041
4779.35002,-0.00124
4777.42131,0.00155
4775.49260,0.00200
4773.56388,0.00087
4771.63517,0.00048
4769.70646,0.00090
4767.77774,0.00154
4765.84903,-0.00003
4763.92032,0.00012
4761.99161,0.00198
4760.06289,0.00320
4758.13418,0.00390
4756.20547,0.00331
4754.27676,0.00185
4752.34804,0.00175
4750.41933,0.00298
4748.49062,0.00482
4746.56191,0.00533
4744.63319,0.00379
4742.70448,0.00253
4740.77577,0.00235
4738.84705,0.00168
4736.91834,0.00161
4734.98963,0.00256
4733.06092,0.00249
4731.13220,0.00046
4729.20349,0.00061
4727.27478,0.00179
4725.34607,0.00359
4723.41735,0.00451
4721.48864,0.00263
4719.55993,0.00072
4717.63121,0.00148
4715.70250,0.00361
4713.77379,0.00467
4711.84508,0.00302
4709.91636,0.00175
4707.98765,0.00160
4706.05894,0.00140
4704.13023,0.00065
4702.20151,0.00176
4700.27280,0.00234
4698.34409,0.00177
4696.41538,0.00075
4694.48666,0.00197
4692.55795,0.00197
4690.62924,0.00172
4688.70052,0.00181
4686.77181,0.00250
4684.84310,0.00353
4682.91439,0.00350
4680.98567,0.00202
4679.05696,0.00144
4677.12825,0.00187
4675.19954,0.00149
4673.27082,0.00129
4671.34211,0.00240
4669.41340,0.00309
4667.48469,0.00269
4665.55597,0.00230
4663.62726,0.00233
4661.69855,0.00155
4659.76983,0.00019
4657.84112,-0.00049
4655.91241,0.00163
4653.98370,0.00248
4652.05498,0.00148
4650.12627,0.00029
4648.19756,0.00049
4646.26885,0.00108
4644.34013,0.00199
4642.41142,0.00262
4640.48271,0.00282
4638.55399,0.00250
4636.62528,0.00172
4634.69657,0.00094
4632.76786,0.00177
4630.83914,0.00205
4628.91043,0.00177
4626.98172,0.00144
4625.05301,0.00152
4623.12429,0.00038
4621.19558,0.00191
4619.26687,0.00313
4617.33816,0.00377
4615.40944,0.00238
4613.48073,0.00260
4611.55202,0.00189
4609.62330,0.00082
4607.69459,0.00074
4605.76588,0.00188
4603.83717,0.00131
4601.90845,0.00115
4599.97974,0.00198
4598.05103,0.00339
4596.12232,0.00352
4594.19360,0.00168
4592.26489,-0.00067
4590.33618,-0.00088
4588.40747,0.00026
4586.47875,0.00169
4584.55004,0.00154
4582.62133,0.00217
4580.69261,0.00304
4578.76390,0.00249
4576.83519,0.00120
4574.90648,0.00173
4572.97776,0.00239
4571.04905,0.00181
4569.12034,0.00064
4567.19163,0.00019
4565.26291,-0.00048
4563.33420,0.00152
4561.40549,0.00221
4559.47678,0.00175
4557.54806,0.00048
4555.61935,0.00112
4553.69064,0.00204
4551.76192,0.00225
4549.83321,0.00162
4547.90450,0.00116
4545.97579,0.00108
4544.04707,0.00103
4542.11836,0.00099
4540.18965,0.00186
4538.26094,0.00296
4536.33222,0.00342
4534.40351,0.00305
4532.47480,0.00217
4530.54608,0.00117
4528.61737,0.00095
4526.68866,0.00069
4524.75995,0.00087
4522.83123,0.00139
4520.90252,0.00220
4518.97381,0.00263
4517.04510,0.00223
4515.11638,0.00204
4513.18767,0.00256
4511.25896,0.00272
4509.33025,0.00279
4507.40153,0.00241
4505.47282,0.00211
4503.54411,0.00206
4501.61539,0.00217
4499.68668,0.00189
4497.75797,0.00151
4495.82926,0.00163
4493.90054,0.00182
4491.97183,0.00147
4490.04312,0.00149
4488.11441,0.00134
4486.18569,0.00167
4484.25698,0.00157
4482.32827,0.00153
4480.39956,0.00173
4478.47084,0.00204
4476.54213,0.00189
4474.61342,0.00169
4472.68470,0.00155
4470.75599,0.00167
4468.82728,0.00150
4466.89857,0.00236
4464.96985,0.00139
4463.04114,0.00181
4461.11243,0.00318
4459.18372,0.00344
4457.25500,0.00269
4455.32629,0.00170
4453.39758,0.00079
4451.46886,0.00182
4449.54015,0.00310
4447.61144,0.00226
4445.68273,0.00123
4443.75401,0.00114
4441.82530,0.00215
4439.89659,0.00293
4437.96788,0.00196
4436.03916,0.00135
4434.11045,0.00115
4432.18174,0.00208
4430.25303,0.00230
4428.32431,0.00196
4426.39560,0.00191
4424.46689,0.00261
4422.53817,0.00238
4420.60946,0.00109
4418.68075,0.00060
4416.75204,0.00118
4414.82332,0.00143
4412.89461,0.00126
4410.96590,0.00164
4409.03719,0.00243
4407.10847,0.00281
4405.17976,0.00220
4403.25105,0.00079
4401.32234,0.00198
4399.39362,0.00290
4397.46491,0.00322
4395.53620,0.00177
4393.60748,0.00167
4391.67877,0.00197
4389.75006,0.00186
4387.82135,0.00100
4385.89263,0.00111
4383.96392,0.00120
4382.03521,0.00296
4380.10650,0.00311
4378.17778,0.00235
4376.24907,0.00181
4374.32036,0.00137
4372.39165,0.00158
4370.46293,0.00208
4368.53422,0.00164
4366.60551,0.00082
4364.67679,0.00094
4362.74808,0.00175
4360.81937,0.00164
4358.89066,0.00132
4356.96194,0.00106
4355.03323,0.00066
4353.10452,0.00124
4351.17581,0.00214
4349.24709,0.00287
4347.31838,0.00266
4345.38967,0.00181
4343.46095,0.00242
4341.53224,0.00326
4339.60353,0.00294
4337.67482,0.00080
4335.74610,0.00176
4333.81739,0.00220
4331.88868,0.00152
4329.95997,0.00127
4328.03125,0.00209
4326.10254,0.00236
4324.17383,0.00155
4322.24512,0.00072
4320.31640,0.00084
4318.38769,0.00091
4316.45898,0.00154
4314.53026,0.00170
4312.60155,0.00147
4310.67284,0.00081
4308.74413,0.00072
4306.81541,0.00125
4304.88670,0.00134
4302.95799,0.00088
4301.02928,0.00058
4299.10056,0.00057
4297.17185,0.00074
4295.24314,0.00058
4293.31443,0.00110
4291.38571,0.00201
4289.45700,0.00181
4287.52829,0.00117
4285.59957,0.00167
4283.67086,0.00174
4281.74215,0.00108
4279.81344,0.00049
4277.88472,0.00030
4275.95601,0.00004
4274.02730,0.00138
4272.09859,0.00229
4270.16987,0.00263
4268.24116,0.00144
4266.31245,0.00051
4264.38374,0.00088
4262.45502,0.00141
4260.52631,0.00175
4258.59760,0.00208
4256.66888,0.00186
4254.74017,0.00112
4252.81146,0.00060
4250.88275,0.00036
4248.95403,0.00008
4247.02532,0.00159
4245.09661,0.00225
4243.16790,0.00200
4241.23918,0.00139
4239.31047,0.00153
4237.38176,0.00174
4235.45304,0.00132
4233.52433,0.00127
4231.59562,0.00173
4229.66691,0.00180
4227.73819,0.00187
4225.80948,0.00171
4223.88077,0.00119
4221.95206,0.00057
4220.02334,0.00104
4218.09463,0.00170
4216.16592,0.00238
4214.23721,0.00253
4212.30849,0.00229
4210.37978,0.00224
4208.45107,0.00193
4206.52235,0.00104
4204.59364,0.00081
4202.66493,0.00045
4200.73622,0.00127
4198.80750,0.00165
4196.87879,0.00138
4194.95008,0.00014
4193.02137,-0.00001
4191.09265,0.00109
4189.16394,0.00177
4187.23523,0.00182
4185.30652,0.00183
4183.37780,0.00166
4181.44909,0.00155
4179.52038,0.00122
4177.59166,0.00134
4175.66295,0.00225
4173.73424,0.00309
4171.80553,0.00308
4169.87681,0.00272
4167.94810,0.00220
4166.01939,0.00160
4164.09068,0.00126
4162.16196,0.00233
4160.23325,0.00232
4158.30454,0.00182
4156.37582,0.00113
4154.44711,0.00116
4152.51840,0.00164
4150.58969,0.00138
4148.66097,0.00060
4146.73226,0.00019
4144.80355,0.00016
4142.87484,0.00116
4140.94612,0.00113
4139.01741,0.00160
4137.08870,0.00217
4135.15999,0.00224
4133.23127,0.00231
4131.30256,0.00193
4129.37385,0.00143
4127.44513,0.00091
4125.51642,0.00059
4123.58771,0.00113
4121.65900,0.00146
4119.73028,0.00103
4117.80157,0.00015
4115.87286,0.00038
4113.94415,0.00141
4112.01543,0.00225
4110.08672,0.00233
4108.15801,0.00115
4106.22930,0.00032
4104.30058,0.00140
4102.37187,0.00195
4100.44316,0.00179
4098.51444,0.00065
4096.58573,-0.00026
4094.65702,0.00030
4092.72831,0.00136
4090.79959,0.00150
4088.87088,0.00087
4086.94217,0.00103
4085.01346,0.00187
4083.08474,0.00201
4081.15603,0.00170
4079.22732,0.00175
4077.29861,0.00180
4075.36989,0.00119
4073.44118,0.00131
4071.51247,0.00202
4069.58375,0.00188
4067.65504,0.00156
4065.72633,0.00168
4063.79762,0.00151
4061.86890,0.00147
4059.94019,0.00199
4058.01148,0.00240
4056.08277,0.00242
4054.15405,0.00216
4052.22534,0.00200
4050.29663,0.00216
4048.36791,0.00185
4046.43920,0.00126
4044.51049,0.00150
4042.58178,0.00217
4040.65306,0.00212
4038.72435,0.00150
4036.79564,0.00090
4034.86693,0.00090
4032.93821,0.00138
4031.00950,0.00137
4029.08079,0.00198
4027.15208,0.00224
4025.22336,0.00230
4023.29465,0.00275
4021.36594,0.00268
4019.43722,0.00233
4017.50851,0.00194
4015.57980,0.00119
4013.65109,0.00148
4011.72237,0.00234
4009.79366,0.00213
4007.86495,0.00104
4005.93624,0.00026
4004.00752,0.00062
4002.07881,0.00126
4000.15010,0.00165
3998.22139,0.00154
3996.29267,0.00146
3994.36396,0.00134
3992.43525,0.00121
3990.50653,0.00123
3988.57782,0.00170
3986.64911,0.00199
3984.72040,0.00144
3982.79168,0.00074
3980.86297,0.00073
3978.93426,-0.00012
3977.00555,0.00025
3975.07683,0.00115
3973.14812,0.00149
3971.21941,0.00099
3969.29070,0.00088
3967.36198,0.00151
3965.43327,0.00111
3963.50456,0.00027
3961.57584,0.00083
3959.64713,0.00173
3957.71842,0.00137
3955.78971,0.00038
3953.86099,-0.00024
3951.93228,0.00039
3950.00357,0.00158
3948.07486,0.00124
3946.14614,0.00062
3944.21743,0.00192
3942.28872,0.00311
3940.36000,0.00245
3938.43129,0.00160
3936.50258,0.00089
3934.57387,0.00118
3932.64515,0.00152
3930.71644,0.00172
3928.78773,0.00188
3926.85902,0.00145
3924.93030,0.00116
3923.00159,0.00213
3921.07288,0.00297
3919.14417,0.00222
3917.21545,0.00112
3915.28674,0.00170
3913.35803,0.00172
3911.42931,0.00164
3909.50060,0.00159
3907.57189,0.00128
3905.64318,0.00175
3903.71446,0.00225
3901.78575,0.00001
3899.85704,0.00031
3897.92833,0.00025
3895.99961,0.00114
3894.07090,0.00115
3892.14219,0.00127
3890.21348,0.00087
3888.28476,0.00057
3886.35605,0.00130
3884.42734,0.00236
3882.49862,0.00094
3880.56991,-0.00056
3878.64120,0.00043
3876.71249,0.00190
3874.78377,0.00232
3872.85506,0.00225
3870.92635,0.00240
3868.99764,0.00263
3867.06892,0.00277
3865.14021,0.00316
3863.21150,0.00315
3861.28278,0.00310
3859.35407,0.00277
3857.42536,0.00243
3855.49665,0.00222
3853.56793,0.00250
3851.63922,0.00208
3849.71051,0.00136
3847.78180,0.00089
3845.85308,0.00103
3843.92437,0.00211
3841.99566,0.00334
3840.06695,0.00416
3838.13823,0.00364
3836.20952,0.00138
3834.28081,0.00136
3832.35209,0.00177
3830.42338,0.00192
3828.49467,0.00069
3826.56596,0.00057
3824.63724,0.00116
3822.70853,0.00197
3820.77982,0.00338
3818.85111,0.00390
3816.92239,0.00256
3814.99368,0.00119
3813.06497,0.00039
3811.13626,0.00145
3809.20754,0.00204
3807.27883,0.00252
3805.35012,0.00164
3803.42140,0.00055
3801.49269,0.00013
3799.56398,-0.00004
3797.63527,0.00021
3795.70655,0.00128
3793.77784,0.00141
3791.84913,0.00132
3789.92042,0.00104
3787.99170,0.00043
3786.06299,-0.00007
3784.13428,0.00063
3782.20557,0.00184
3780.27685,0.00201
3778.34814,0.00097
3776.41943,0.00093
3774.49071,0.00145
3772.56200,0.00200
3770.63329,0.00230
3768.70458,0.00240
3766.77586,0.00244
3764.84715,0.00272
3762.91844,0.00306
3760.98973,0.00291
3759.06101,0.00180
3757.13230,0.00096
3755.20359,0.00149
3753.27487,0.00249
3751.34616,0.00231
3749.41745,0.00116
3747.48874,0.00092
3745.56002,0.00232
3743.63131,0.00218
3741.70260,0.00071
3739.77389,0.00013
3737.84517,0.00116
3735.91646,0.00221
3733.98775,0.00172
3732.05904,0.00164
3730.13032,0.00197
3728.20161,0.00188
3726.27290,0.00172
3724.34418,0.00043
3722.41547,-0.00030
3720.48676,0.00138
3718.55805,0.00208
3716.62933,0.00075
3714.70062,0.00029
3712.77191,0.00201
3710.84320,0.00361
3708.91448,0.00284
3706.98577,0.00152
3705.05706,0.00086
3703.12835,0.00176
3701.19963,0.00233
3699.27092,0.00234
3697.34221,0.00175
3695.41349,0.00099
3693.48478,0.00078
3691.55607,0.00104
3689.62736,0.00021
3687.69864,0.00152
3685.76993,0.00230
3683.84122,0.00168
3681.91251,0.00099
3679.98379,0.00173
3678.05508,0.00207
3676.12637,0.00124
3674.19766,0.00161
3672.26894,0.00191
3670.34023,0.00117
3668.41152,0.00128
3666.48280,0.00133
3664.55409,0.00093
3662.62538,0.00074
3660.69667,0.00081
3658.76795,0.00062
3656.83924,0.00178
3654.91053,0.00279
3652.98182,0.00325
3651.05310,0.00260
3649.12439,0.00199
3647.19568,0.00189
3645.26696,0.00168
3643.33825,0.00126
3641.40954,0.00180
3639.48083,0.00169
3637.55211,0.00119
3635.62340,0.00064
3633.69469,0.00037
3631.76598,0.00037
3629.83726,0.00100
3627.90855,0.00148
3625.97984,0.00169
3624.05113,0.00120
3622.12241,0.00091
3620.19370,0.00144
3618.26499,0.00141
3616.33627,0.00069
3614.40756,0.00142
3612.47885,0.00202
3610.55014,0.00151
3608.62142,0.00130
3606.69271,0.00130
3604.76400,0.00075
3602.83529,0.00075
3600.90657,0.00121
3598.97786,0.00109
3597.04915,0.00118
3595.12044,0.00199
3593.19172,0.00199
3591.26301,0.00125
3589.33430,0.00067
3587.40558,0.00119
3585.47687,0.00198
3583.54816,0.00209
3581.61945,0.00135
3579.69073,0.00072
3577.76202,0.00108
3575.83331,0.00119
3573.90460,0.00115
3571.97588,0.00208
3570.04717,0.00247
3568.11846,0.00099
3566.18974,0.00020
3564.26103,0.00132
3562.33232,0.00198
3560.40361,0.00113
3558.47489,0.00055
3556.54618,0.00166
3554.61747,0.00187
3552.68876,0.00101
3550.76004,0.00106
3548.83133,0.00233
3546.90262,0.00282
3544.97391,0.00181
3543.04519,0.00077
3541.11648,0.00088
3539.18777,0.00099
3537.25905,0.00072
3535.33034,0.00111
3533.40163,0.00138
3531.47292,0.00120
3529.54420,0.00143
3527.61549,0.00153
3525.68678,0.00098
3523.75807,0.00135
3521.82935,0.00230
3519.90064,0.00135
3517.97193,0.00084
3516.04322,0.00127
3514.11450,0.00168
3512.18579,0.00063
3510.25708,0.00103
3508.32836,0.00234
3506.39965,0.00255
3504.47094,0.00188
3502.54223,0.00097
3500.61351,-0.00009
3498.68480,0.00049
3496.75609,0.00092
3494.82738,0.00185
3492.89866,0.00297
3490.96995,0.00319
3489.04124,0.00297
3487.11253,0.00254
3485.18381,0.00180
3483.25510,0.00138
3481.32639,0.00142
3479.39767,0.00158
3477.46896,0.00158
3475.54025,0.00143
3473.61154,0.00058
3471.68282,0.00109
3469.75411,0.00200
3467.82540,0.00173
3465.89669,0.00015
3463.96797,0.00072
3462.03926,0.00100
3460.11055,0.00150
3458.18183,0.00165
3456.25312,0.00157
3454.32441,0.00111
3452.39570,0.00175
3450.46698,0.00226
3448.53827,0.00223
3446.60956,0.00201
3444.68085,0.00163
3442.75213,0.00108
3440.82342,0.00090
3438.89471,0.00069
3436.96600,0.00174
3435.03728,0.00260
3433.10857,0.00233
3431.17986,0.00130
3429.25114,0.00139
3427.32243,0.00245
3425.39372,0.00259
3423.46501,0.00123
3421.53629,0.00069
3419.60758,0.00050
3417.67887,0.00182
3415.75016,0.00266
3413.82144,0.00235
3411.89273,0.00188
3409.96402,0.00187
3408.03531,0.00124
3406.10659,0.00036
3404.17788,0.00133
3402.24917,0.00298
3400.32045,0.00211
3398.39174,0.00094
3396.46303,0.00188
3394.53432,0.00354
3392.60560,0.00331
3390.67689,0.00235
3388.74818,0.00159
3386.81947,0.00110
3384.89075,0.00081
3382.96204,0.00180
3381.03333,0.00135
3379.10462,0.00117
3377.17590,0.00220
3375.24719,0.00273
3373.31848,0.00155
3371.38976,-0.00000
3369.46105,0.00048
3367.53234,0.00206
3365.60363,0.00151
3363.67491,0.00065
3361.74620,0.00052
3359.81749,0.00159
3357.88878,0.00238
3355.96006,0.00261
3354.03135,0.00237
3352.10264,0.00223
3350.17392,0.00273
3348.24521,0.00261
3346.31650,0.00264
3344.38779,0.00194
3342.45907,0.00074
3340.53036,0.00109
3338.60165,0.00095
3336.67294,0.00118
3334.74422,0.00183
3332.81551,0.00182
3330.88680,0.00135
3328.95809,0.00114
3327.02937,0.00119
3325.10066,0.00171
3323.17195,0.00157
3321.24323,0.00104
3319.31452,0.00118
3317.38581,0.00158
3315.45710,0.00142
3313.52838,0.00074
3311.59967,0.00030
3309.67096,0.00095
3307.74225,0.00159
3305.81353,0.00186
3303.88482,0.00186
3301.95611,0.00186
3300.02740,0.00187
3298.09868,0.00274
3296.16997,0.00355
3294.24126,0.00298
3292.31254,0.00190
3290.38383,0.00199
3288.45512,0.00234
3286.52641,0.00233
3284.59769,0.00312
3282.66898,0.00291
3280.74027,0.00211
3278.81156,0.00179
3276.88284,0.00173
3274.95413,0.00166
3273.02542,0.00117
3271.09670,0.00160
3269.16799,0.00288
3267.23928,0.00325
3265.31057,0.00136
3263.38185,0.00081
3261.45314,0.00123
3259.52443,0.00215
3257.59572,0.00245
3255.66700,0.00217
3253.73829,0.00244
3251.80958,0.00300
3249.88087,0.00228
3247.95215,0.00093
3246.02344,0.00055
3244.09473,0.00133
3242.16601,0.00209
3240.23730,0.00322
3238.30859,0.00313
3236.37988,0.00179
3234.45116,0.00155
3232.52245,0.00145
3230.59374,0.00278
3228.66503,0.00293
3226.73631,0.00363
3224.80760,0.00434
3222.87889,0.00399
3220.95018,0.00332
3219.02146,0.00259
3217.09275,0.00112
3215.16404,-0.00015
3213.23532,0.00042
3211.30661,0.00148
3209.37790,0.00111
3207.44919,0.00066
3205.52047,0.00115
3203.59176,0.00174
3201.66305,0.00190
3199.73434,0.00126
3197.80562,0.00188
3195.87691,0.00324
3193.94820,0.00357
3192.01949,0.00264
3190.09077,0.00218
3188.16206,0.00237
3186.23335,0.00274
3184.30463,0.00251
3182.37592,0.00181
3180.44721,0.00100
3178.51850,0.00131
3176.58978,0.00145
3174.66107,0.00269
3172.73236,0.00396
3170.80365,0.00360
3168.87493,0.00260
3166.94622,0.00243
3165.01751,0.00202
3163.08879,0.00110
3161.16008,0.00080
3159.23137,0.00142
3157.30266,0.00109
3155.37394,0.00163
3153.44523,0.00254
3151.51652,0.00250
3149.58781,0.00175
3147.65909,0.00082
3145.73038,-0.00038
3143.80167,0.00103
3141.87296,0.00163
3139.94424,0.00152
3138.01553,0.00116
3136.08682,0.00072
3134.15810,0.00156
3132.22939,0.00261
3130.30068,0.00281
3128.37197,0.00227
3126.44325,0.00159
3124.51454,0.00119
3122.58583,0.00049
3120.65712,0.00094
3118.72840,0.00115
3116.79969,0.00102
3114.87098,0.00046
3112.94227,0.00103
3111.01355,0.00145
3109.08484,0.00121
3107.15613,0.00082
3105.22741,0.00073
3103.29870,0.00114
3101.36999,0.00152
3099.44128,0.00083
3097.51256,0.00079
3095.58385,0.00137
3093.65514,0.00105
3091.72643,0.00095
3089.79771,0.00061
3087.86900,0.00047
3085.94029,0.00095
3084.01158,0.00150
3082.08286,0.00200
3080.15415,0.00135
3078.22544,0.00094
3076.29672,0.00127
3074.36801,0.00135
3072.43930,0.00142
3070.51059,0.00171
3068.58187,0.00126
3066.65316,0.00121
3064.72445,0.00154
3062.79574,0.00165
3060.86702,0.00188
3058.93831,0.00129
3057.00960,0.00023
3055.08088,0.00121
3053.15217,0.00173
3051.22346,0.00152
3049.29475,0.00070
3047.36603,0.00045
3045.43732,0.00107
3043.50861,0.00152
3041.57990,0.00122
3039.65118,0.00096
3037.72247,0.00112
3035.79376,0.00111
3033.86505,0.00060
3031.93633,0.00075
3030.00762,0.00129
3028.07891,0.00131
3026.15019,0.00100
3024.22148,0.00085
3022.29277,0.00059
3020.36406,0.00066
3018.43534,0.00105
3016.50663,0.00113
3014.57792,0.00104
3012.64921,0.00069
3010.72049,0.00115
3008.79178,0.00138
3006.86307,0.00168
3004.93436,0.00151
3003.00564,0.00093
3001.07693,0.00089
2999.14822,0.00109
2997.21950,0.00105
2995.29079,0.00113
2993.36208,0.00139
2991.43337,0.00145
2989.50465,0.00134
2987.57594,0.00125
2985.64723,0.00131
2983.71852,0.00113
2981.78980,0.00100
2979.86109,0.00105
2977.93238,0.00147
2976.00366,0.00142
2974.07495,0.00104
2972.14624,0.00114
2970.21753,0.00131
2968.28881,0.00114
2966.36010,0.00105
2964.43139,0.00157
2962.50268,0.00217
2960.57396,0.00221
2958.64525,0.00185
2956.71654,0.00133
2954.78783,0.00138
2952.85911,0.00169
2950.93040,0.00135
2949.00169,0.00049
2947.07297,0.00039
2945.14426,0.00087
2943.21555,0.00103
2941.28684,0.00117
2939.35812,0.00133
2937.42941,0.00105
2935.50070,0.00107
2933.57199,0.00138
2931.64327,0.00107
2929.71456,0.00032
2927.78585,0.00073
2925.85714,0.00134
2923.92842,0.00180
2921.99971,0.00182
2920.07100,0.00159
2918.14228,0.00151
2916.21357,0.00211
2914.28486,0.00179
2912.35615,0.00097
2910.42743,0.00025
2908.49872,0.00039
2906.57001,0.00079
2904.64130,0.00110
2902.71258,0.00080
2900.78387,0.00074
2898.85516,0.00057
2896.92645,0.00075
2894.99773,0.00107
2893.06902,0.00155
2891.14031,0.00154
2889.21159,0.00096
2887.28288,0.00035
2885.35417,0.00064
2883.42546,0.00050
2881.49674,0.00043
2879.56803,0.00077
2877.63932,0.00124
2875.71061,0.00141
2873.78189,0.00136
2871.85318,0.00128
2869.92447,0.00093
2867.99575,0.00130
2866.06704,0.00163
2864.13833,0.00113
2862.20962,0.00080
2860.28090,0.00053
2858.35219,0.00094
2856.42348,0.00102
2854.49477,0.00046
2852.56605,0.00068
2850.63734,0.00110
2848.70863,0.00081
2846.77992,0.00068
2844.85120,0.00047
2842.92249,0.00034
2840.99378,0.00061
2839.06506,0.00090
2837.13635,0.00092
2835.20764,0.00067
2833.27893,0.00058
2831.35021,0.00093
2829.42150,0.00104
2827.49279,0.00103
2825.56408,0.00084
2823.63536,0.00081
2821.70665,0.00082
2819.77794,0.00061
2817.84923,0.00030
2815.92051,0.00033
2813.99180,0.00058
2812.06309,0.00121
2810.13437,0.00181
2808.20566,0.00146
2806.27695,0.00036
2804.34824,0.00003
2802.41952,0.00063
2800.49081,0.00078
2798.56210,0.00078
2796.63339,0.00080
2794.70467,0.00066
2792.77596,0.00078
2790.84725,0.00112
2788.91854,0.00126
2786.98982,0.00112
2785.06111,0.00079
2783.13240,0.00055
2781.20368,0.00076
2779.27497,0.00071
2777.34626,0.00084
2775.41755,0.00129
2773.48883,0.00155
2771.56012,0.00116
2769.63141,0.00069
2767.70270,0.00073
2765.77398,0.00107
2763.84527,0.00098
2761.91656,0.00074
2759.98784,0.00053
2758.05913,0.00075
2756.13042,0.00062
2754.20171,0.00057
2752.27299,0.00065
2750.34428,0.00100
2748.41557,0.00126
2746.48686,0.00146
2744.55814,0.00141
2742.62943,0.00140
2740.70072,0.00134
2738.77201,0.00063
2736.84329,0.00018
2734.91458,0.00097
2732.98587,0.00145
2731.05715,0.00148
2729.12844,0.00162
2727.19973,0.00186
2725.27102,0.00175
2723.34230,0.00153
2721.41359,0.00119
2719.48488,0.00113
2717.55617,0.00092
2715.62745,0.00074
2713.69874,0.00068
2711.77003,0.00129
2709.84132,0.00112
2707.91260,0.00052
2705.98389,0.00028
2704.05518,0.00040
2702.12646,0.00083
2700.19775,0.00110
2698.26904,0.00084
2696.34033,0.00041
2694.41161,0.00038
2692.48290,0.00053
2690.55419,0.00030
2688.62548,0.00069
2686.69676,0.00103
2684.76805,0.00100
2682.83934,0.00083
2680.91062,0.00076
2678.98191,0.00071
2677.05320,0.00066
2675.12449,0.00025
2673.19577,-0.00005
2671.26706,0.00030
2669.33835,0.00074
2667.40964,0.00056
2665.48092,0.00041
2663.55221,0.00042
2661.62350,0.00034
2659.69479,0.00038
2657.76607,0.00054
2655.83736,0.00067
2653.90865,0.00093
2651.97993,0.00074
2650.05122,0.00042
2648.12251,0.00039
2646.19380,0.00058
2644.26508,0.00069
2642.33637,0.00058
2640.40766,0.00018
2638.47895,0.00024
2636.55023,0.00069
2634.62152,0.00115
2632.69281,0.00131
2630.76410,0.00101
2628.83538,0.00052
2626.90667,0.00019
2624.97796,0.00005
2623.04924,0.00038
2621.12053,0.00075
2619.19182,0.00099
2617.26311,0.00116
2615.33439,0.00144
2613.40568,0.00163
2611.47697,0.00125
2609.54826,0.00049
2607.61954,-0.00008
2605.69083,0.00008
2603.76212,0.00052
2601.83341,0.00077
2599.90469,0.00083
2597.97598,0.00054
2596.04727,0.00059
2594.11855,0.00036
2592.18984,0.00056
2590.26113,0.00100
2588.33242,0.00158
2586.40370,0.00102
2584.47499,0.00017
2582.54628,0.00010
2580.61757,0.00099
2578.68885,0.00092
2576.76014,0.00084
2574.83143,0.00055
2572.90271,0.00031
2570.97400,0.00027
2569.04529,0.00032
2567.11658,0.00009
2565.18786,0.00079
2563.25915,0.00133
2561.33044,0.00124
2559.40173,0.00071
2557.47301,0.00036
2555.54430,-0.00020
2553.61559,0.00048
2551.68688,0.00118
2549.75816,0.00136
2547.82945,0.00039
2545.90074,0.00112
2543.97202,0.00112
2542.04331,0.00090
2540.11460,0.00115
2538.18589,0.00168
2536.25717,0.00184
2534.32846,0.00161
2532.39975,0.00128
2530.47104,0.00113
2528.54232,0.00101
2526.61361,0.00098
2524.68490,0.00108
2522.75619,0.00095
2520.82747,0.00077
2518.89876,0.00074
2516.97005,0.00071
2515.04133,0.00091
2513.11262,0.00098
2511.18391,0.00095
2509.25520,0.00103
2507.32648,0.00106
2505.39777,0.00082
2503.46906,0.00077
2501.54035,0.00092
2499.61163,0.00102
2497.68292,0.00096
2495.75421,0.00111
2493.82549,0.00091
2491.89678,0.00008
2489.96807,-0.00008
2488.03936,0.00022
2486.11064,0.00014
2484.18193,0.00040
2482.25322,0.00059
2480.32451,0.00096
2478.39579,0.00092
2476.46708,0.00058
2474.53837,0.00056
2472.60966,0.00071
2470.68094,0.00083
2468.75223,0.00054
2466.82352,0.00037
2464.89480,0.00069
2462.96609,0.00067
2461.03738,0.00040
2459.10867,0.00047
2457.17995,0.00069
2455.25124,0.00043
2453.32253,0.00005
2451.39382,0.00073
2449.46510,0.00115
2447.53639,0.00099
2445.60768,0.00070
2443.67897,0.00034
2441.75025,0.00027
2439.82154,0.00030
2437.89283,0.00086
2435.96411,0.00154
2434.03540,0.00161
2432.10669,0.00136
2430.17798,0.00115
2428.24926,0.00095
2426.32055,0.00093
2424.39184,0.00089
2422.46313,0.00070
2420.53441,0.00073
2418.60570,0.00104
2416.67699,0.00110
2414.74828,0.00095
2412.81956,0.00090
2410.89085,0.00121
2408.96214,0.00135
2407.03342,0.00094
2405.10471,-0.00007
2403.17600,0.00031
2401.24729,0.00075
2399.31857,0.00079
2397.38986,0.00027
2395.46115,0.00031
2393.53244,0.00040
2391.60372,0.00075
2389.67501,-0.00000
2387.74630,0.00025
2385.81758,0.00109
2383.88887,0.00153
2381.96016,0.00133
2380.03145,0.00094
2378.10273,0.00092
2376.17402,0.00118
2374.24531,0.00077
2372.31660,0.00049
2370.38788,0.00101
2368.45917,0.00134
2366.53046,0.00109
2364.60175,0.00158
2362.67303,0.00235
2360.74432,0.00202
2358.81561,0.00109
2356.88689,0.00093
2354.95818,0.00085
2353.02947,0.00081
2351.10076,0.00115
2349.17204,0.00131
2347.24333,0.00129
2345.31462,0.00139
2343.38591,0.00106
2341.45719,0.00122
2339.52848,0.00197
2337.59977,0.00208
2335.67106,0.00176
2333.74234,0.00199
2331.81363,0.00115
2329.88492,0.00081
2327.95620,0.00130
2326.02749,0.00136
2324.09878,0.00032
2322.17007,0.00028
2320.24135,0.00172
2318.31264,0.00215
2316.38393,0.00137
2314.45522,0.00122
2312.52650,0.00121
2310.59779,0.00083
2308.66908,0.00114
2306.74037,0.00139
2304.81165,0.00120
2302.88294,0.00090
2300.95423,0.00034
2299.02551,0.00055
2297.09680,0.00075
2295.16809,0.00055
2293.23938,0.00071
2291.31066,0.00076
2289.38195,0.00031
2287.45324,0.00005
2285.52453,0.00019
2283.59581,0.00027
2281.66710,-0.00019
2279.73839,0.00017
2277.80967,0.00081
2275.88096,0.00106
2273.95225,0.00065
2272.02354,0.00023
2270.09482,0.00019
2268.16611,0.00063
2266.23740,0.00072
2264.30869,0.00106
2262.37997,0.00143
2260.45126,0.00145
2258.52255,0.00104
2256.59384,0.00078
2254.66512,0.00076
2252.73641,0.00101
2250.80770,0.00083
2248.87898,0.00044
2246.95027,0.00070
2245.02156,0.00109
2243.09285,0.00117
2241.16413,0.00112
2239.23542,0.00092
2237.30671,0.00068
2235.37800,0.00058
2233.44928,0.00088
2231.52057,0.00117
2229.59186,0.00110
2227.66315,0.00091
2225.73443,0.00094
2223.80572,0.00103
2221.87701,0.00115
2219.94829,0.00102
2218.01958,0.00070
2216.09087,0.00039
2214.16216,0.00030
2212.23344,0.00046
2210.30473,0.00091
2208.37602,0.00087
2206.44731,0.00046
2204.51859,0.00016
2202.58988,0.00045
2200.66117,0.00068
2198.73245,0.00095
2196.80374,0.00080
2194.87503,0.00044
2192.94632,0.00039
2191.01760,0.00072
2189.08889,0.00068
2187.16018,0.00060
2185.23147,0.00085
2183.30275,0.00075
2181.37404,0.00050
2179.44533,0.00029
2177.51662,0.00023
2175.58790,0.00057
2173.65919,0.00089
2171.73048,0.00085
2169.80176,0.00075
2167.87305,0.00076
2165.94434,0.00072
2164.01563,0.00072
2162.08691,0.00080
2160.15820,0.00069
2158.22949,0.00078
2156.30078,0.00113
2154.37206,0.00131
2152.44335,0.00133
2150.51464,0.00114
2148.58593,0.00068
2146.65721,0.00044
2144.72850,0.00060
2142.79979,0.00060
2140.87107,0.00059
2138.94236,0.00063
2137.01365,0.00057
2135.08494,0.00046
2133.15622,0.00058
2131.22751,0.00087
2129.29880,0.00104
2127.37009,0.00131
2125.44137,0.00147
2123.51266,0.00092
2121.58395,0.00025
2119.65524,0.00019
2117.72652,0.00029
2115.79781,0.00069
2113.86910,0.00105
2111.94038,0.00087
2110.01167,0.00039
2108.08296,0.00021
2106.15425,0.00057
2104.22553,0.00029
2102.29682,0.00027
2100.36811,0.00051
2098.43940,0.00062
2096.51068,0.00059
2094.58197,0.00076
2092.65326,0.00090
2090.72454,0.00101
2088.79583,0.00085
2086.86712,0.00042
2084.93841,0.00025
2083.00969,0.00069
2081.08098,0.00083
2079.15227,0.00087
2077.22356,0.00066
2075.29484,0.00055
2073.36613,0.00065
2071.43742,0.00100
2069.50871,0.00125
2067.57999,0.00130
2065.65128,0.00081
2063.72257,0.00028
2061.79385,0.00012
2059.86514,0.00060
2057.93643,0.00087
2056.00772,0.00098
2054.07900,0.00099
2052.15029,0.00117
2050.22158,0.00100
2048.29287,0.00060
2046.36415,0.00035
2044.43544,0.00054
2042.50673,0.00069
2040.57802,0.00076
2038.64930,0.00052
2036.72059,0.00054
2034.79188,0.00076
2032.86316,0.00086
2030.93445,0.00049
2029.00574,-0.00016
2027.07703,-0.00013
2025.14831,0.00038
2023.21960,0.00060
2021.29089,0.00083
2019.36218,0.00068
2017.43346,0.00053
2015.50475,0.00076
2013.57604,0.00092
2011.64733,0.00054
2009.71861,0.00026
2007.78990,0.00066
2005.86119,0.00102
2003.93247,0.00073
2002.00376,0.00014
2000.07505,0.00014
1998.14634,0.00046
1996.21762,0.00023
1994.28891,0.00021
1992.36020,0.00048
1990.43149,0.00044
1988.50277,0.00055
1986.57406,0.00092
1984.64535,0.00096
1982.71663,0.00068
1980.78792,0.00036
1978.85921,0.00063
1976.93050,0.00091
1975.00178,0.00112
1973.07307,0.00129
1971.14436,0.00114
1969.21565,0.00054
1967.28693,0.00009
1965.35822,0.00033
1963.42951,0.00071
1961.50080,0.00074
1959.57208,0.00070
1957.64337,0.00054
1955.71466,0.00062
1953.78594,-0.00011
1951.85723,-0.00005
1949.92852,0.00043
1947.99981,0.00075
1946.07109,0.00063
1944.14238,0.00057
1942.21367,0.00071
1940.28496,0.00083
1938.35624,0.00087
1936.42753,0.00089
1934.49882,0.00064
1932.57011,0.00046
1930.64139,0.00059
1928.71268,0.00038
1926.78397,0.00029
1924.85525,0.00063
1922.92654,0.00075
1920.99783,0.00039
1919.06912,0.00005
1917.14040,0.00071
1915.21169,0.00037
1913.28298,0.00083
1911.35427,0.00094
1909.42555,0.00099
1907.49684,0.00112
1905.56813,0.00085
1903.63941,0.00034
1901.71070,0.00022
1899.78199,0.00053
1897.85328,0.00107
1895.92456,0.00126
1893.99585,0.00111
1892.06714,0.00056
1890.13843,0.00009
1888.20971,0.00015
1886.28100,0.00056
1884.35229,0.00055
1882.42358,0.00067
1880.49486,0.00074
1878.56615,0.00073
1876.63744,0.00088
1874.70872,0.00086
1872.78001,0.00061
1870.85130,0.00053
1868.92259,0.00089
1866.99387,0.00102
1865.06516,0.00067
1863.13645,0.00045
1861.20774,0.00040
1859.27902,0.00036
1857.35031,0.00051
1855.42160,0.00084
1853.49289,0.00082
1851.56417,0.00061
1849.63546,0.00057
1847.70675,0.00055
1845.77803,0.00037
1843.84932,0.00052
1841.92061,0.00073
1839.99190,0.00082
1838.06318,0.00073
1836.13447,0.00048
1834.20576,0.00026
1832.27705,0.00026
1830.34833,0.00045
1828.41962,0.00073
1826.49091,0.00087
1824.56220,0.00097
1822.63348,0.00083
1820.70477,0.00072
1818.77606,0.00081
1816.84734,0.00067
1814.91863,0.00026
1812.98992,0.00022
1811.06121,0.00045
1809.13249,0.00066
1807.20378,0.00088
1805.27507,0.00092
1803.34636,0.00076
1801.41764,0.00066
1799.48893,0.00069
1797.56022,0.00079
1795.63150,0.00071
1793.70279,0.00059
1791.77408,0.00049
1789.84537,0.00042
1787.91665,0.00053
1785.98794,0.00105
1784.05923,0.00145
1782.13052,0.00115
1780.20180,0.00076
1778.27309,0.00066
1776.34438,0.00011
1774.41567,0.00037
1772.48695,0.00133
1770.55824,0.00150
1768.62953,0.00073
1766.70081,-0.00010
1764.77210,-0.00024
1762.84339,0.00033
1760.91468,0.00061
1758.98596,0.00077
1757.05725,0.00099
1755.12854,0.00098
1753.19983,0.00085
1751.27111,0.00096
1749.34240,0.00106
1747.41369,0.00107
1745.48498,0.00103
1743.55626,0.00099
1741.62755,0.00045
1739.69884,0.00005
1737.77012,0.00043
1735.84141,0.00106
1733.91270,0.00092
1731.98399,0.00090
1730.05527,0.00125
1728.12656,0.00137
1726.19785,0.00087
1724.26914,0.00040
1722.34042,0.00061
1720.41171,0.00069
1718.48300,0.00069
1716.55429,0.00124
1714.62557,0.00136
1712.69686,0.00084
1710.76815,0.00053
1708.83943,0.00108
1706.91072,0.00058
1704.98201,0.00001
1703.05330,0.00055
1701.12458,0.00117
1699.19587,0.00094
1697.26716,0.00100
1695.33845,0.00096
1693.40973,0.00032
1691.48102,0.00012
1689.55231,0.00090
1687.62359,0.00116
1685.69488,0.00098
1683.76617,0.00047
1681.83746,0.00062
1679.90874,0.00072
1677.98003,0.00087
1676.05132,0.00115
1674.12261,0.00131
1672.19389,0.00073
1670.26518,0.00102
1668.33647,0.00120
1666.40776,0.00093
1664.47904,0.00088
1662.55033,0.00117
1660.62162,0.00102
1658.69290,0.00058
1656.76419,0.00091
1654.83548,0.00239
1652.90677,0.00285
1650.97805,0.00165
1649.04934,0.00119
1647.12063,0.00077
1645.19192,0.00038
1643.26320,0.00049
1641.33449,0.00077
1639.40578,0.00096
1637.47707,0.00127
1635.54835,0.00131
1633.61964,0.00058
1631.69093,0.00019
1629.76221,-0.00002
1627.83350,0.00050
1625.90479,0.00070
1623.97608,0.00058
1622.04736,0.00067
1620.11865,0.00122
1618.18994,0.00155
1616.26123,0.00149
1614.33251,0.00146
1612.40380,0.00142
1610.47509,0.00111
1608.54637,0.00109
1606.61766,0.00126
1604.68895,0.00117
1602.76024,0.00115
1600.83152,0.00124
1598.90281,0.00091
1596.97410,0.00068
1595.04539,0.00077
1593.11667,0.00099
1591.18796,0.00071
1589.25925,0.00004
1587.33054,-0.00002
1585.40182,0.00056
1583.47311,0.00025
1581.54440,0.00044
1579.61568,0.00063
1577.68697,0.00083
1575.75826,0.00081
1573.82955,0.00104
1571.90083,0.00154
1569.97212,0.00146
1568.04341,0.00052
1566.11470,0.00008
1564.18598,0.00056
1562.25727,0.00103
1560.32856,0.00205
1558.39985,0.00360
1556.47113,0.00264
1554.54242,0.00121
1552.61371,0.00072
1550.68499,0.00104
1548.75628,0.00119
1546.82757,0.00126
1544.89886,0.00154
1542.97014,0.00191
1541.04143,0.00164
1539.11272,0.00107
1537.18401,0.00064
1535.25529,0.00065
1533.32658,0.00013
1531.39787,0.00027
1529.46916,0.00076
1527.54044,0.00110
1525.61173,0.00097
1523.68302,0.00085
1521.75430,0.00070
1519.82559,0.00094
1517.89688,0.00102
1515.96817,0.00103
1514.03945,0.00137
1512.11074,0.00139
1510.18203,0.00091
1508.25332,0.00097
1506.32460,0.00115
1504.39589,0.00069
1502.46718,-0.00009
1500.53846,0.00015
1498.60975,0.00064
1496.68104,0.00074
1494.75233,0.00086
1492.82361,0.00115
1490.89490,0.00139
1488.96619,0.00109
1487.03748,0.00053
1485.10876,0.00048
1483.18005,0.00082
1481.25134,0.00096
1479.32263,0.00063
1477.39391,0.00017
1475.46520,0.00021
1473.53649,0.00052
1471.60777,0.00010
1469.67906,0.00056
1467.75035,0.00048
1465.82164,0.00036
1463.89292,0.00089
1461.96421,0.00139
1460.03550,0.00130
1458.10679,0.00110
1456.17807,0.00048
1454.24936,0.00026
1452.32065,0.00088
1450.39194,0.00148
1448.46322,0.00152
1446.53451,0.00077
1444.60580,0.00032
1442.67708,0.00074
1440.74837,0.00043
1438.81966,0.00075
1436.89095,0.00073
1434.96223,0.00059
1433.03352,0.00055
1431.10481,0.00082
1429.17610,0.00107
1427.24738,0.00088
1425.31867,0.00070
1423.38996,0.00065
1421.46125,0.00090
1419.53253,0.00097
1417.60382,0.00135
1415.67511,0.00147
1413.74639,0.00107
1411.81768,0.00067
1409.88897,0.00052
1407.96026,0.00087
1406.03154,0.00098
1404.10283,0.00080
1402.17412,0.00091
1400.24541,0.00091
1398.31669,0.00087
1396.38798,0.00111
1394.45927,0.00014
1392.53055,0.00033
1390.60184,0.00062
1388.67313,0.00100
1386.74442,0.00093
1384.81570,0.00034
1382.88699,-0.00002
1380.95828,0.00043
1379.02957,0.00099
1377.10085,0.00135
1375.17214,0.00115
1373.24343,0.00031
1371.31472,0.00019
1369.38600,0.00057
1367.45729,0.00027
1365.52858,0.00015
1363.59986,0.00046
1361.67115,0.00088
1359.74244,0.00060
1357.81373,0.00044
1355.88501,0.00057
1353.95630,0.00079
1352.02759,0.00087
1350.09888,0.00076
1348.17016,0.00079
1346.24145,0.00096
1344.31274,0.00088
1342.38403,0.00079
1340.45531,0.00082
1338.52660,0.00095
1336.59789,0.00082
1334.66917,0.00041
1332.74046,0.00031
1330.81175,0.00060
1328.88304,0.00086
1326.95432,0.00087
1325.02561,0.00056
1323.09690,0.00037
1321.16819,0.00035
1319.23947,0.00081
1317.31076,0.00101
1315.38205,0.00080
1313.45333,0.00085
1311.52462,0.00121
1309.59591,0.00139
1307.66720,0.00090
1305.73848,-0.00021
1303.80977,0.00040
1301.88106,0.00072
1299.95235,0.00075
1298.02363,0.00071
1296.09492,0.00081
1294.16621,0.00085
1292.23750,0.00067
1290.30878,0.00053
1288.38007,0.00075
1286.45136,0.00057
1284.52264,0.00077
1282.59393,0.00105
1280.66522,0.00076
1278.73651,0.00066
1276.80779,0.00101
1274.87908,0.00107
1272.95037,0.00046
1271.02166,0.00048
1269.09294,0.00068
1267.16423,0.00084
1265.23552,0.00088
1263.30681,0.00022
1261.37809,0.00051
1259.44938,0.00125
1257.52067,0.00173
1255.59195,0.00145
1253.66324,0.00070
1251.73453,0.00027
1249.80582,0.00049
1247.87710,0.00031
1245.94839,0.00068
1244.01968,0.00040
1242.09097,0.00058
1240.16225,0.00066
1238.23354,0.00074
1236.30483,0.00084
1234.37612,0.00084
1232.44740,0.00067
1230.51869,0.00046
1228.58998,0.00043
1226.66126,0.00045
1224.73255,0.00062
1222.80384,0.00127
1220.87513,0.00147
1218.94641,0.00109
1217.01770,0.00051
1215.08899,0.00016
1213.16028,0.00037
1211.23156,0.00070
1209.30285,0.00060
1207.37414,0.00048
1205.44542,0.00064
1203.51671,0.00090
1201.58800,0.00086
1199.65929,0.00062
1197.73057,0.00041
1195.80186,0.00040
1193.87315,0.00075
1191.94444,0.00122
1190.01572,0.00116
1188.08701,0.00067
1186.15830,0.00084
1184.22959,0.00119
1182.30087,0.00047
1180.37216,0.00045
1178.44345,0.00052
1176.51473,0.00108
1174.58602,0.00112
1172.65731,0.00081
1170.72860,0.00036
1168.79988,0.00035
1166.87117,0.00002
1164.94246,0.00054
1163.01375,0.00105
1161.08503,0.00135
1159.15632,0.00087
1157.22761,0.00073
1155.29890,0.00142
1153.37018,0.00188
1151.44147,0.00142
1149.51276,0.00076
1147.58404,0.00095
1145.65533,0.00170
1143.72662,0.00154
1141.79791,0.00115
1139.86919,0.00123
1137.94048,0.00128
1136.01177,0.00082
1134.08306,0.00060
1132.15434,0.00063
1130.22563,0.00064
1128.29692,0.00068
1126.36821,0.00085
1124.43949,0.00051
1122.51078,0.00049
1120.58207,0.00071
1118.65335,0.00107
1116.72464,0.00107
1114.79593,0.00126
1112.86722,0.00083
1110.93850,0.00079
1109.00979,0.00161
1107.08108,0.00226
1105.15237,0.00225
1103.22365,0.00150
1101.29494,0.00047
1099.36623,0.00001
1097.43751,0.00004
1095.50880,0.00111
1093.58009,0.00166
1091.65138,0.00175
1089.72266,0.00192
1087.79395,0.00164
1085.86524,0.00140
1083.93653,0.00188
1082.00781,0.00165
1080.07910,0.00071
1078.15039,0.00051
1076.22168,0.00112
1074.29296,0.00167
1072.36425,0.00199
1070.43554,0.00182
1068.50682,0.00121
1066.57811,0.00071
1064.64940,0.00097
1062.72069,0.00136
1060.79197,0.00128
1058.86326,0.00076
1056.93455,0.00058
1055.00584,0.00038
1053.07712,0.00030
1051.14841,0.00057
1049.21970,0.00079
1047.29099,0.00083
1045.36227,0.00086
1043.43356,0.00058
1041.50485,0.00150
1039.57613,0.00136
1037.64742,0.00155
1035.71871,0.00222
1033.79000,0.00169
1031.86128,0.00069
1029.93257,0.00116
1028.00386,0.00075
1026.07515,0.00095
1024.14643,0.00165
1022.21772,0.00229
1020.28901,0.00210
1018.36029,0.00125
1016.43158,0.00038
1014.50287,-0.00012
1012.57416,0.00052
1010.64544,0.00204
1008.71673,0.00216
1006.78802,0.00145
1004.85931,0.00141
1002.93059,0.00127
1001.00188,0.00069
999.07317,0.00032
997.14446,0.00034
995.21574,0.00115
993.28703,0.00159
991.35832,0.00140
989.42960,0.00130
987.50089,0.00151
985.57218,0.00185
983.64347,0.00199
981.71475,0.00200
979.78604,0.00186
977.85733,0.00135
975.92862,0.00072
973.99990,0.00027
972.07119,0.00035
970.14248,0.00040
968.21377,0.00040
966.28505,0.00056
964.35634,0.00100
962.42763,0.00127
960.49891,0.00104
958.57020,0.00095
956.64149,0.00113
954.71278,0.00133
952.78406,0.00143
950.85535,0.00108
948.92664,0.00094
946.99793,0.00121
945.06921,0.00112
943.14050,0.00041
941.21179,0.00026
939.28308,0.00076
937.35436,0.00131
935.42565,0.00148
933.49694,0.00141
931.56822,0.00120
929.63951,0.00145
927.71080,0.00179
925.78209,0.00138
923.85337,0.00084
921.92466,0.00099
919.99595,0.00104
918.06724,0.00063
916.13852,0.00064
914.20981,0.00147
912.28110,0.00137
910.35238,0.00080
908.42367,0.00091
906.49496,0.00122
904.56625,0.00083
902.63753,0.00042
900.70882,0.00058
898.78011,0.00045
896.85140,0.00013
894.92268,0.00075
892.99397,0.00163
891.06526,0.00190
889.13655,0.00162
887.20783,0.00169
885.27912,0.00184
883.35041,0.00141
881.42169,0.00073
879.49298,0.00105
877.56427,0.00110
875.63556,0.00072
873.70684,0.00029
871.77813,0.00046
869.84942,0.00076
867.92071,0.00111
865.99199,0.00119
864.06328,0.00137
862.13457,0.00153
860.20586,0.00195
858.27714,0.00190
856.34843,0.00177
854.41972,0.00164
852.49100,0.00131
850.56229,0.00130
848.63358,0.00136
846.70487,0.00188
844.77615,0.00253
842.84744,0.00191
840.91873,0.00086
838.99002,0.00096
837.06130,0.00137
835.13259,0.00136
833.20388,0.00131
831.27516,0.00102
829.34645,0.00079
827.41774,0.00154
825.48903,0.00239
823.56031,0.00188
821.63160,0.00118
819.70289,0.00020
817.77418,0.00163
815.84546,0.00210
813.91675,0.00195
811.98804,0.00184
810.05933,0.00223
808.13061,0.00218
806.20190,0.00205
804.27319,0.00232
802.34447,0.00234
800.41576,0.00166
798.48705,0.00070
796.55834,0.00057
794.62962,0.00104
792.70091,0.00106
790.77220,0.00078
788.84349,0.00074
786.91477,0.00125
784.98606,0.00098
783.05735,0.00073
781.12864,0.00090
779.19992,0.00159
777.27121,0.00186
775.34250,0.00189
773.41378,0.00102
771.48507,0.00128
769.55636,0.00102
767.62765,0.00066
765.69893,0.00061
763.77022,0.00178
761.84151,0.00239
759.91280,0.00180
757.98408,0.00125
756.05537,0.00118
754.12666,0.00113
752.19795,0.00242
750.26923,0.00231
748.34052,0.00191
746.41181,0.00163
744.48309,0.00183
742.55438,0.00158
740.62567,0.00060
738.69696,-0.00019
736.76824,0.00069
734.83953,0.00210
732.91082,0.00286
730.98211,0.00203
729.05339,0.00172
727.12468,0.00166
725.19597,0.00126
723.26725,0.00115
721.33854,0.00154
719.40983,0.00136
717.48112,0.00083
715.55240,0.00139
713.62369,0.00140
711.69498,0.00109
709.76627,0.00216
707.83755,0.00244
705.90884,0.00143
703.98013,0.00075
702.05142,0.00116
700.12270,0.00080
698.19399,0.00109
696.26528,0.00099
694.33656,0.00137
692.40785,0.00249
690.47914,0.00309
688.55043,0.00262
686.62171,0.00236
684.69300,0.00243
682.76429,0.00323
680.83558,0.00305
678.90686,0.00192
676.97815,0.00153
675.04944,0.00245
673.12073,0.00274
671.19201,0.00247
669.26330,0.00238
667.33459,0.00194
665.40587,0.00034
663.47716,0.00091
661.54845,0.00240
659.61974,0.00272
657.69102,0.00303
655.76231,0.00415
653.83360,0.00441
651.90489,0.00349
649.97617,0.00265
648.04746,0.00251
646.11875,0.00239
644.19004,0.00177
642.26132,0.00170
640.33261,0.00323
638.40390,0.00308
636.47518,0.00138
634.54647,0.00058
632.61776,0.00163
630.68905,0.00300
628.76033,0.00420
626.83162,0.00413
624.90291,0.00339
622.97420,0.00388
621.04548,0.00446
619.11677,0.00336
617.18806,0.00355
615.25934,0.00539
613.33063,0.00437
611.40192,0.00194
609.47321,0.00432
607.54449,0.00578
605.61578,0.00742
603.68707,0.00234
601.75836,0.00342
599.82964,0.00744
