7496.90619,0.93712
7494.97747,0.94757
7493.04876,0.95569
7491.12005,0.95613
7489.19134,0.95247
7487.26262,0.94731
7485.33391,0.94319
7483.40520,0.94551
7481.47648,0.95233
7479.54777,0.95443
7477.61906,0.95139
7475.69035,0.95015
7473.76163,0.94876
7471.83292,0.94091
7469.90421,0.93446
7467.97550,0.93995
7466.04678,0.94917
7464.11807,0.94955
7462.18936,0.94427
7460.26065,0.94165
7458.33193,0.94202
7456.40322,0.94066
7454.47451,0.93430
7452.54579,0.92502
7450.61708,0.92194
7448.68837,0.93171
7446.75966,0.94390
7444.83094,0.94512
7442.90223,0.94214
7440.97352,0.94302
7439.04481,0.94307
7437.11609,0.94075
7435.18738,0.93972
7433.25867,0.94148
7431.32996,0.94569
7429.40124,0.94843
7427.47253,0.94584
7425.54382,0.94546
7423.61510,0.95217
7421.68639,0.95736
7419.75768,0.95705
7417.82897,0.95255
7415.90025,0.94602
7413.97154,0.94362
7412.04283,0.94582
7410.11412,0.94331
7408.18540,0.93024
7406.25669,0.91761
7404.32798,0.91929
7402.39927,0.92976
7400.47055,0.93493
7398.54184,0.93481
7396.61313,0.93733
7394.68441,0.93994
7392.75570,0.93610
7390.82699,0.93050
7388.89828,0.92838
7386.96956,0.92494
7385.04085,0.91906
7383.11214,0.91591
7381.18343,0.91976
7379.25471,0.93050
7377.32600,0.93556
7375.39729,0.92847
7373.46857,0.92274
7371.53986,0.92437
7369.61115,0.92834
7367.68244,0.93367
7365.75372,0.93939
7363.82501,0.94149
7361.89630,0.93810
7359.96759,0.93255
7358.03887,0.92867
7356.11016,0.92932
7354.18145,0.93745
7352.25274,0.94734
7350.32402,0.94843
7348.39531,0.94162
7346.46660,0.93523
7344.53788,0.92856
7342.60917,0.91735
7340.68046,0.90677
7338.75175,0.90884
7336.82303,0.92218
7334.89432,0.93167
7332.96561,0.92941
7331.03690,0.92280
7329.10818,0.92375
7327.17947,0.93008
7325.25076,0.93057
7323.32205,0.93021
7321.39333,0.93417
7319.46462,0.93244
7317.53591,0.92531
7315.60719,0.92302
7313.67848,0.92405
7311.74977,0.92499
7309.82106,0.92394
7307.89234,0.91790
7305.96363,0.91646
7304.03492,0.92400
7302.10621,0.92772
7300.17749,0.92569
7298.24878,0.92636
7296.32007,0.92480
7294.39136,0.91836
7292.46264,0.91776
7290.53393,0.92101
7288.60522,0.92043
7286.67650,0.92005
7284.74779,0.92183
7282.81908,0.92319
7280.89037,0.92884
7278.96165,0.93940
7277.03294,0.94619
7275.10423,0.94613
7273.17552,0.94344
7271.24680,0.94174
7269.31809,0.93893
7267.38938,0.93325
7265.46066,0.92951
7263.53195,0.93136
7261.60324,0.93747
7259.67453,0.94162
7257.74581,0.93898
7255.81710,0.93219
7253.88839,0.92896
7251.95968,0.93363
7250.03096,0.93774
7248.10225,0.93404
7246.17354,0.92431
7244.24483,0.91341
7242.31611,0.91312
7240.38740,0.92356
7238.45869,0.92555
7236.52997,0.91614
7234.60126,0.90724
7232.67255,0.90408
7230.74384,0.90583
7228.81512,0.90988
7226.88641,0.91398
7224.95770,0.91688
7223.02899,0.91435
7221.10027,0.90929
7219.17156,0.91146
7217.24285,0.91637
7215.31414,0.91586
7213.38542,0.91851
7211.45671,0.92894
7209.52800,0.93554
7207.59928,0.93147
7205.67057,0.91927
7203.74186,0.90820
7201.81315,0.91074
7199.88443,0.92100
7197.95572,0.92334
7196.02701,0.91615
7194.09830,0.90914
7192.16958,0.91027
7190.24087,0.91850
7188.31216,0.92512
7186.38344,0.92404
7184.45473,0.92050
7182.52602,0.92165
7180.59731,0.92512
7178.66859,0.92893
7176.73988,0.93545
7174.81117,0.93851
7172.88246,0.93001
7170.95374,0.91379
7169.02503,0.90017
7167.09632,0.89661
7165.16761,0.90203
7163.23889,0.90812
7161.31018,0.90975
7159.38147,0.90887
7157.45275,0.91080
7155.52404,0.91874
7153.59533,0.92943
7151.66662,0.93439
7149.73790,0.93166
7147.80919,0.92994
7145.88048,0.93340
7143.95177,0.93544
7142.02305,0.92965
7140.09434,0.91867
7138.16563,0.91198
7136.23692,0.91397
7134.30820,0.92263
7132.37949,0.93302
7130.45078,0.93682
7128.52206,0.93290
7126.59335,0.92953
7124.66464,0.93178
7122.73593,0.93342
7120.80721,0.92832
7118.87850,0.92297
7116.94979,0.92476
7115.02108,0.92932
7113.09236,0.93185
7111.16365,0.93498
7109.23494,0.93710
7107.30623,0.93218
7105.37751,0.92557
7103.44880,0.92530
7101.52009,0.92745
7099.59137,0.92834
7097.66266,0.92687
7095.73395,0.92175
7093.80524,0.92060
7091.87652,0.92703
7089.94781,0.93271
7088.01910,0.93404
7086.09039,0.93217
7084.16167,0.92850
7082.23296,0.92527
7080.30425,0.92222
7078.37553,0.91936
7076.44682,0.91962
7074.51811,0.92305
7072.58940,0.92549
7070.66068,0.92562
7068.73197,0.92491
7066.80326,0.92486
7064.87455,0.92280
7062.94583,0.91530
7061.01712,0.90931
7059.08841,0.91069
7057.15970,0.91578
7055.23098,0.92148
7053.30227,0.92670
7051.37356,0.93079
7049.44484,0.93071
7047.51613,0.92723
7045.58742,0.93008
7043.65871,0.93727
7041.72999,0.93582
7039.80128,0.92960
7037.87257,0.92828
7035.94386,0.92726
7034.01514,0.92389
7032.08643,0.92366
7030.15772,0.92853
7028.22901,0.93316
7026.30029,0.93309
7024.37158,0.93195
7022.44287,0.93119
7020.51415,0.92899
7018.58544,0.92670
7016.65673,0.92531
7014.72802,0.92708
7012.79930,0.93184
7010.87059,0.93288
7008.94188,0.92841
7007.01317,0.92609
7005.08445,0.92821
7003.15574,0.92854
7001.22703,0.92561
6999.29832,0.92355
6997.36960,0.92671
6995.44089,0.93326
6993.51218,0.93568
6991.58346,0.93392
6989.65475,0.93095
6987.72604,0.92490
6985.79733,0.91907
6983.86861,0.92072
6981.93990,0.92924
6980.01119,0.93709
6978.08248,0.93887
6976.15376,0.93671
6974.22505,0.93626
6972.29634,0.93649
6970.36762,0.93387
6968.43891,0.93304
6966.51020,0.93513
6964.58149,0.93292
6962.65277,0.92708
6960.72406,0.92518
6958.79535,0.92856
6956.86664,0.93196
6954.93792,0.93214
6953.00921,0.93176
6951.08050,0.93419
6949.15179,0.93652
6947.22307,0.93182
6945.29436,0.92310
6943.36565,0.91979
6941.43693,0.92180
6939.50822,0.92529
6937.57951,0.92938
6935.65080,0.93363
6933.72208,0.93709
6931.79337,0.93771
6929.86466,0.93758
6927.93595,0.93863
6926.00723,0.93633
6924.07852,0.93133
6922.14981,0.92896
6920.22110,0.92763
6918.29238,0.92473
6916.36367,0.92374
6914.43496,0.92823
6912.50624,0.93488
6910.57753,0.93667
6908.64882,0.93275
6906.72011,0.92893
6904.79139,0.92921
6902.86268,0.93328
6900.93397,0.93735
6899.00526,0.93751
6897.07654,0.93451
6895.14783,0.93046
6893.21912,0.92625
6891.29040,0.92530
6889.36169,0.92824
6887.43298,0.92907
6885.50427,0.92651
6883.57555,0.92527
6881.64684,0.92480
6879.71813,0.92327
6877.78942,0.92419
6875.86070,0.92880
6873.93199,0.93290
6872.00328,0.93340
6870.07457,0.93230
6868.14585,0.93335
6866.21714,0.93585
6864.28843,0.93639
6862.35971,0.93393
6860.43100,0.92953
6858.50229,0.92635
6856.57358,0.92717
6854.64486,0.93109
6852.71615,0.93587
6850.78744,0.93858
6848.85873,0.93770
6846.93001,0.93624
6845.00130,0.93614
6843.07259,0.93495
6841.14388,0.93263
6839.21516,0.93198
6837.28645,0.93142
6835.35774,0.93046
6833.42902,0.93359
6831.50031,0.93808
6829.57160,0.93754
6827.64289,0.93310
6825.71417,0.92812
6823.78546,0.92711
6821.85675,0.93334
6819.92804,0.93888
6817.99932,0.93539
6816.07061,0.92986
6814.14190,0.92961
6812.21319,0.93018
6810.28447,0.93035
6808.35576,0.93431
6806.42705,0.93990
6804.49833,0.94231
6802.56962,0.93970
6800.64091,0.93482
6798.71220,0.93286
6796.78348,0.93276
6794.85477,0.93097
6792.92606,0.92881
6790.99735,0.92911
6789.06863,0.93269
6787.13992,0.93625
6785.21121,0.93808
6783.28249,0.93985
6781.35378,0.93969
6779.42507,0.93692
6777.49636,0.93401
6775.56764,0.93133
6773.63893,0.92882
6771.71022,0.92786
6769.78151,0.92921
6767.85279,0.93171
6765.92408,0.93499
6763.99537,0.93893
6762.06666,0.94016
6760.13794,0.93772
6758.20923,0.93602
6756.28052,0.93617
6754.35180,0.93715
6752.42309,0.94137
6750.49438,0.94597
6748.56567,0.94556
6746.63695,0.94145
6744.70824,0.93627
6742.77953,0.93250
6740.85082,0.93147
6738.92210,0.93143
6736.99339,0.93399
6735.06468,0.93994
6733.13597,0.94309
6731.20725,0.94051
6729.27854,0.93684
6727.34983,0.93517
6725.42111,0.93539
6723.49240,0.93605
6721.56369,0.93476
6719.63498,0.93382
6717.70626,0.93684
6715.77755,0.94013
6713.84884,0.93994
6711.92013,0.93785
6709.99141,0.93485
6708.06270,0.93258
6706.13399,0.93343
6704.20528,0.93462
6702.27656,0.93381
6700.34785,0.93385
6698.41914,0.93685
6696.49042,0.94132
6694.56171,0.94438
6692.63300,0.94555
6690.70429,0.94498
6688.77557,0.94387
6686.84686,0.94549
6684.91815,0.94708
6682.98944,0.94365
6681.06072,0.93786
6679.13201,0.93501
6677.20330,0.93638
6675.27458,0.94064
6673.34587,0.94640
6671.41716,0.94893
6669.48845,0.94497
6667.55973,0.93956
6665.63102,0.93803
6663.70231,0.93947
6661.77360,0.93931
6659.84488,0.93781
6657.91617,0.93852
6655.98746,0.93775
6654.05875,0.93374
6652.13003,0.93391
6650.20132,0.94059
6648.27261,0.94607
6646.34389,0.94715
6644.41518,0.94842
6642.48647,0.94875
6640.55776,0.94453
6638.62904,0.93819
6636.70033,0.93355
6634.77162,0.93431
6632.84291,0.93877
6630.91419,0.94002
6628.98548,0.93844
6627.05677,0.93779
6625.12806,0.93721
6623.19934,0.93714
6621.27063,0.93769
6619.34192,0.93470
6617.41320,0.93017
6615.48449,0.93271
6613.55578,0.94066
6611.62707,0.94476
6609.69835,0.94364
6607.76964,0.93963
6605.84093,0.93461
6603.91222,0.93344
6601.98350,0.93708
6600.05479,0.94178
6598.12608,0.94598
6596.19736,0.94874
6594.26865,0.94911
6592.33994,0.94760
6590.41123,0.94466
6588.48251,0.94171
6586.55380,0.94066
6584.62509,0.94048
6582.69638,0.93936
6580.76766,0.93753
6578.83895,0.93577
6576.91024,0.93615
6574.98153,0.93918
6573.05281,0.94106
6571.12410,0.94118
6569.19539,0.94120
6567.26667,0.94026
6565.33796,0.93961
6563.40925,0.93986
6561.48054,0.93874
6559.55182,0.93700
6557.62311,0.93773
6555.69440,0.93958
6553.76569,0.93791
6551.83697,0.93462
6549.90826,0.93541
6547.97955,0.93822
6546.05084,0.93899
6544.12212,0.93922
6542.19341,0.93946
6540.26470,0.93818
6538.33598,0.93686
6536.40727,0.93795
6534.47856,0.94060
6532.54985,0.94296
6530.62113,0.94525
6528.69242,0.94664
6526.76371,0.94581
6524.83500,0.94384
6522.90628,0.94151
6520.97757,0.93949
6519.04886,0.93922
6517.12015,0.94043
6515.19143,0.94091
6513.26272,0.93976
6511.33401,0.93882
6509.40529,0.93861
6507.47658,0.93781
6505.54787,0.93738
6503.61916,0.93866
6501.69044,0.93928
6499.76173,0.93734
6497.83302,0.93612
6495.90431,0.93833
6493.97559,0.94186
6492.04688,0.94456
6490.11817,0.94571
6488.18945,0.94648
6486.26074,0.94821
6484.33203,0.94714
6482.40332,0.94253
6480.47460,0.94019
6478.54589,0.93912
6476.61718,0.93573
6474.68847,0.93381
6472.75975,0.93557
6470.83104,0.93809
6468.90233,0.93939
6466.97362,0.94007
6465.04490,0.94122
6463.11619,0.94351
6461.18748,0.94580
6459.25876,0.94426
6457.33005,0.93812
6455.40134,0.93402
6453.47263,0.93770
6451.54391,0.94420
6449.61520,0.94585
6447.68649,0.94382
6445.75778,0.94022
6443.82906,0.93566
6441.90035,0.93527
6439.97164,0.93999
6438.04293,0.94474
6436.11421,0.94680
6434.18550,0.94678
6432.25679,0.94630
6430.32807,0.94492
6428.39936,0.94296
6426.47065,0.94351
6424.54194,0.94581
6422.61322,0.94654
6420.68451,0.94540
6418.75580,0.94403
6416.82709,0.94410
6414.89837,0.94511
6412.96966,0.94439
6411.04095,0.94063
6409.11224,0.93594
6407.18352,0.93419
6405.25481,0.93620
6403.32610,0.93883
6401.39738,0.94028
6399.46867,0.94136
6397.53996,0.94115
6395.61125,0.93818
6393.68253,0.93510
6391.75382,0.93469
6389.82511,0.93548
6387.89640,0.93673
6385.96768,0.93884
6384.03897,0.94111
6382.11026,0.94422
6380.18154,0.94706
6378.25283,0.94625
6376.32412,0.94295
6374.39541,0.94072
6372.46669,0.93958
6370.53798,0.93858
6368.60927,0.93808
6366.68056,0.93785
6364.75184,0.93851
6362.82313,0.94004
6360.89442,0.94078
6358.96571,0.94197
6357.03699,0.94407
6355.10828,0.94399
6353.17957,0.94204
6351.25085,0.94111
6349.32214,0.94159
6347.39343,0.94223
6345.46472,0.94110
6343.53600,0.93806
6341.60729,0.93642
6339.67858,0.93679
6337.74987,0.93716
6335.82115,0.93870
6333.89244,0.94136
6331.96373,0.94197
6330.03502,0.94039
6328.10630,0.94028
6326.17759,0.94374
6324.24888,0.94902
6322.32016,0.95279
6320.39145,0.95232
6318.46274,0.94955
6316.53403,0.94790
6314.60531,0.94557
6312.67660,0.94192
6310.74789,0.94003
6308.81918,0.94020
6306.89046,0.93982
6304.96175,0.93889
6303.03304,0.93957
6301.10432,0.94074
6299.17561,0.94110
6297.24690,0.94038
6295.31819,0.93827
6293.38947,0.93743
6291.46076,0.93852
6289.53205,0.93982
6287.60334,0.94183
6285.67462,0.94371
6283.74591,0.94379
6281.81720,0.94193
6279.88849,0.93972
6277.95977,0.93991
6276.03106,0.94134
6274.10235,0.94075
6272.17363,0.93862
6270.24492,0.93706
6268.31621,0.93773
6266.38750,0.93992
6264.45878,0.94060
6262.53007,0.93931
6260.60136,0.93783
6258.67265,0.93756
6256.74393,0.93906
6254.81522,0.94172
6252.88651,0.94384
6250.95780,0.94404
6249.02908,0.94338
6247.10037,0.94466
6245.17166,0.94779
6243.24294,0.94848
6241.31423,0.94490
6239.38552,0.94038
6237.45681,0.93813
6235.52809,0.93894
6233.59938,0.94104
6231.67067,0.94263
6229.74196,0.94349
6227.81324,0.94198
6225.88453,0.93825
6223.95582,0.93742
6222.02711,0.94114
6220.09839,0.94367
6218.16968,0.94278
6216.24097,0.94180
6214.31225,0.94024
6212.38354,0.93722
6210.45483,0.93639
6208.52612,0.93856
6206.59740,0.94006
6204.66869,0.94008
6202.73998,0.93989
6200.81127,0.93928
6198.88255,0.93826
6196.95384,0.93682
6195.02513,0.93524
6193.09641,0.93507
6191.16770,0.93643
6189.23899,0.93870
6187.31028,0.94189
6185.38156,0.94394
6183.45285,0.94375
6181.52414,0.94414
6179.59543,0.94552
6177.66671,0.94510
6175.73800,0.94235
6173.80929,0.93910
6171.88058,0.93656
6169.95186,0.93484
6168.02315,0.93407
6166.09444,0.93437
6164.16572,0.93556
6162.23701,0.93710
6160.30830,0.93807
6158.37959,0.93817
6156.45087,0.93815
6154.52216,0.93879
6152.59345,0.94033
6150.66474,0.94252
6148.73602,0.94382
6146.80731,0.94254
6144.87860,0.93976
6142.94989,0.93836
6141.02117,0.93916
6139.09246,0.94079
6137.16375,0.94183
6135.23503,0.93983
6133.30632,0.93579
6131.37761,0.93503
6129.44890,0.93670
6127.52018,0.93668
6125.59147,0.93718
6123.66276,0.94001
6121.73405,0.94076
6119.80533,0.93767
6117.87662,0.93483
6115.94791,0.93512
6114.01919,0.93865
6112.09048,0.94174
6110.16177,0.94102
6108.23306,0.94077
6106.30434,0.94287
6104.37563,0.94250
6102.44692,0.93960
6100.51821,0.93660
6098.58949,0.93386
6096.66078,0.93373
6094.73207,0.93633
6092.80336,0.93797
6090.87464,0.93748
6088.94593,0.93759
6087.01722,0.93958
6085.08850,0.94013
6083.15979,0.93894
6081.23108,0.93913
6079.30237,0.93922
6077.37365,0.93754
6075.44494,0.93605
6073.51623,0.93565
6071.58752,0.93574
6069.65880,0.93613
6067.73009,0.93587
6065.80138,0.93466
6063.87267,0.93457
6061.94395,0.93520
6060.01524,0.93429
6058.08653,0.93210
6056.15781,0.92945
6054.22910,0.92753
6052.30039,0.92761
6050.37168,0.92885
6048.44296,0.93019
6046.51425,0.93184
6044.58554,0.93368
6042.65683,0.93535
6040.72811,0.93655
6038.79940,0.93648
6036.87069,0.93531
6034.94198,0.93415
6033.01326,0.93318
6031.08455,0.93232
6029.15584,0.93177
6027.22712,0.93173
6025.29841,0.93206
6023.36970,0.93227
6021.44099,0.93276
6019.51227,0.93413
6017.58356,0.93515
6015.65485,0.93428
6013.72614,0.93267
6011.79742,0.93171
6009.86871,0.93151
6007.94000,0.93362
6006.01128,0.93797
6004.08257,0.94066
6002.15386,0.93946
6000.22515,0.93660
5998.29643,0.93507
5996.36772,0.93384
5994.43901,0.93075
5992.51030,0.92779
5990.58158,0.92797
5988.65287,0.93084
5986.72416,0.93345
5984.79545,0.93436
5982.86673,0.93447
5980.93802,0.93418
5979.00931,0.93249
5977.08059,0.93081
5975.15188,0.93191
5973.22317,0.93298
5971.29446,0.93111
5969.36574,0.92959
5967.43703,0.93072
5965.50832,0.93347
5963.57961,0.93538
5961.65089,0.93371
5959.72218,0.92984
5957.79347,0.92788
5955.86476,0.92905
5953.93604,0.93056
5952.00733,0.92963
5950.07862,0.92780
5948.14990,0.92771
5946.22119,0.92826
5944.29248,0.92831
5942.36377,0.92791
5940.43505,0.92687
5938.50634,0.92748
5936.57763,0.93113
5934.64892,0.93402
5932.72020,0.93217
5930.79149,0.92743
5928.86278,0.92501
5926.93407,0.92601
5925.00535,0.92722
5923.07664,0.92657
5921.14793,0.92458
5919.21921,0.92256
5917.29050,0.92105
5915.36179,0.92022
5913.43308,0.92081
5911.50436,0.92257
5909.57565,0.92360
5907.64694,0.92284
5905.71823,0.92169
5903.78951,0.92176
5901.86080,0.92224
5899.93209,0.92211
5898.00337,0.92153
5896.07466,0.92058
5894.14595,0.92050
5892.21724,0.92092
5890.28852,0.91944
5888.35981,0.91730
5886.43110,0.91695
5884.50239,0.91804
5882.57367,0.91844
5880.64496,0.91656
5878.71625,0.91457
5876.78754,0.91475
5874.85882,0.91512
5872.93011,0.91461
5871.00140,0.91487
5869.07268,0.91493
5867.14397,0.91234
5865.21526,0.90780
5863.28655,0.90353
5861.35783,0.90085
5859.42912,0.89973
5857.50041,0.89846
5855.57170,0.89663
5853.64298,0.89556
5851.71427,0.89448
5849.78556,0.89221
5847.85685,0.88926
5845.92813,0.88589
5843.99942,0.88268
5842.07071,0.88084
5840.14199,0.88024
5838.21328,0.87940
5836.28457,0.87763
5834.35586,0.87587
5832.42714,0.87456
5830.49843,0.87258
5828.56972,0.86947
5826.64101,0.86564
5824.71229,0.86169
5822.78358,0.85975
5820.85487,0.86016
5818.92615,0.85929
5816.99744,0.85572
5815.06873,0.85159
5813.14002,0.84839
5811.21130,0.84677
5809.28259,0.84700
5807.35388,0.84705
5805.42517,0.84448
5803.49645,0.83993
5801.56774,0.83530
5799.63903,0.83219
5797.71032,0.83062
5795.78160,0.82799
5793.85289,0.82351
5791.92418,0.81956
5789.99546,0.81653
5788.06675,0.81214
5786.13804,0.80554
5784.20933,0.79707
5782.28061,0.78749
5780.35190,0.77934
5778.42319,0.77470
5776.49448,0.77293
5774.56576,0.77245
5772.63705,0.77357
5770.70834,0.77869
5768.77963,0.78823
5766.85091,0.79947
5764.92220,0.80992
5762.99349,0.81888
5761.06477,0.82726
5759.13606,0.83666
5757.20735,0.84637
5755.27864,0.85343
5753.34992,0.85723
5751.42121,0.86011
5749.49250,0.86334
5747.56379,0.86586
5745.63507,0.86745
5743.70636,0.87001
5741.77765,0.87327
5739.84894,0.87548
5737.92022,0.87672
5735.99151,0.87733
5734.06280,0.87829
5732.13408,0.88101
5730.20537,0.88502
5728.27666,0.88864
5726.34795,0.89041
5724.41923,0.89103
5722.49052,0.89205
5720.56181,0.89309
5718.63310,0.89365
5716.70438,0.89352
5714.77567,0.89196
5712.84696,0.88969
5710.91824,0.88789
5708.98953,0.88622
5707.06082,0.88431
5705.13211,0.88298
5703.20339,0.88323
5701.27468,0.88386
5699.34597,0.88261
5697.41726,0.88047
5695.48854,0.88004
5693.55983,0.88115
5691.63112,0.88159
5689.70241,0.88038
5687.77369,0.87883
5685.84498,0.87793
5683.91627,0.87590
5681.98755,0.87197
5680.05884,0.86869
5678.13013,0.86654
5676.20142,0.86391
5674.27270,0.86171
5672.34399,0.86075
5670.41528,0.85989
5668.48657,0.85796
5666.55785,0.85515
5664.62914,0.85318
5662.70043,0.85304
5660.77172,0.85475
5658.84300,0.85834
5656.91429,0.86313
5654.98558,0.86866
5653.05686,0.87422
5651.12815,0.87761
5649.19944,0.87860
5647.27073,0.87986
5645.34201,0.88259
5643.41330,0.88542
5641.48459,0.88705
5639.55588,0.88791
5637.62716,0.88958
5635.69845,0.89225
5633.76974,0.89419
5631.84103,0.89481
5629.91231,0.89537
5627.98360,0.89579
5626.05489,0.89498
5624.12617,0.89461
5622.19746,0.89656
5620.26875,0.89919
5618.34004,0.89987
5616.41132,0.89798
5614.48261,0.89580
5612.55390,0.89591
5610.62519,0.89728
5608.69647,0.89854
5606.76776,0.89998
5604.83905,0.90077
5602.91033,0.90110
5600.98162,0.90234
5599.05291,0.90330
5597.12420,0.90242
5595.19548,0.90134
5593.26677,0.90227
5591.33806,0.90427
5589.40935,0.90518
5587.48063,0.90520
5585.55192,0.90531
5583.62321,0.90477
5581.69450,0.90310
5579.76578,0.90157
5577.83707,0.90071
5575.90836,0.90023
5573.97964,0.90058
5572.05093,0.90106
5570.12222,0.90038
5568.19351,0.89900
5566.26479,0.89804
5564.33608,0.89790
5562.40737,0.89800
5560.47866,0.89805
5558.54994,0.89879
5556.62123,0.90015
5554.69252,0.90063
5552.76381,0.90005
5550.83509,0.89957
5548.90638,0.89896
5546.97767,0.89810
5545.04895,0.89765
5543.12024,0.89769
5541.19153,0.89802
5539.26282,0.89765
5537.33410,0.89640
5535.40539,0.89549
5533.47668,0.89486
5531.54797,0.89430
5529.61925,0.89479
5527.69054,0.89644
5525.76183,0.89715
5523.83311,0.89547
5521.90440,0.89414
5519.97569,0.89520
5518.04698,0.89615
5516.11826,0.89622
5514.18955,0.89756
5512.26084,0.89944
5510.33213,0.89875
5508.40341,0.89501
5506.47470,0.89173
5504.54599,0.89164
5502.61728,0.89384
5500.68856,0.89614
5498.75985,0.89766
5496.83114,0.89698
5494.90242,0.89128
5492.97371,0.88431
5491.04500,0.88331
5489.11629,0.88671
5487.18757,0.89093
5485.25886,0.89550
5483.33015,0.89948
5481.40144,0.90169
5479.47272,0.90017
5477.54401,0.89319
5475.61530,0.88645
5473.68659,0.88889
5471.75787,0.89449
5469.82916,0.89483
5467.90045,0.89259
5465.97173,0.89112
5464.04302,0.88943
5462.11431,0.88818
5460.18560,0.88966
5458.25688,0.89244
5456.32817,0.89494
5454.39946,0.89768
5452.47075,0.89779
5450.54203,0.89403
5448.61332,0.88992
5446.68461,0.88722
5444.75590,0.88511
5442.82718,0.88373
5440.89847,0.88662
5438.96976,0.89326
5437.04104,0.89494
5435.11233,0.89175
5433.18362,0.89103
5431.25491,0.88889
5429.32619,0.88358
5427.39748,0.88550
5425.46877,0.89404
5423.54006,0.89984
5421.61134,0.90217
5419.68263,0.90399
5417.75392,0.90367
5415.82520,0.89765
5413.89649,0.88778
5411.96778,0.88261
5410.03907,0.88736
5408.11035,0.89743
5406.18164,0.90441
5404.25293,0.90669
5402.32422,0.90887
5400.39550,0.91122
5398.46679,0.90951
5396.53808,0.90326
5394.60937,0.89770
5392.68065,0.89902
5390.75194,0.90493
5388.82323,0.90713
5386.89451,0.90377
5384.96580,0.90205
5383.03709,0.90618
5381.10838,0.91003
5379.17966,0.90747
5377.25095,0.90095
5375.32224,0.90031
5373.39353,0.90760
5371.46481,0.91405
5369.53610,0.91501
5367.60739,0.91262
5365.67868,0.90924
5363.74996,0.90772
5361.82125,0.91004
5359.89254,0.91225
5357.96382,0.90983
5356.03511,0.90097
5354.10640,0.89147
5352.17769,0.89286
5350.24897,0.89988
5348.32026,0.90070
5346.39155,0.89528
5344.46284,0.89251
5342.53412,0.89708
5340.60541,0.89802
5338.67670,0.89245
5336.74799,0.89411
5334.81927,0.90313
5332.89056,0.90832
5330.96185,0.90765
5329.03313,0.90397
5327.10442,0.90329
5325.17571,0.90899
5323.24700,0.91406
5321.31828,0.91436
5319.38957,0.91332
5317.46086,0.91358
5315.53215,0.91583
5313.60343,0.91926
5311.67472,0.91980
5309.74601,0.91402
5307.81729,0.90686
5305.88858,0.90663
5303.95987,0.91078
5302.03116,0.91324
5300.10244,0.91439
5298.17373,0.91614
5296.24502,0.91781
5294.31631,0.91632
5292.38759,0.91024
5290.45888,0.90560
5288.53017,0.90751
5286.60146,0.91043
5284.67274,0.91125
5282.74403,0.91201
5280.81532,0.91278
5278.88660,0.91439
5276.95789,0.91706
5275.02918,0.91906
5273.10047,0.91921
5271.17175,0.91686
5269.24304,0.91318
5267.31433,0.90812
5265.38562,0.90065
5263.45690,0.89653
5261.52819,0.90143
5259.59948,0.90860
5257.67077,0.90931
5255.74205,0.90574
5253.81334,0.90736
5251.88463,0.91079
5249.95591,0.90596
5248.02720,0.89776
5246.09849,0.89590
5244.16978,0.90083
5242.24106,0.90915
5240.31235,0.91545
5238.38364,0.91705
5236.45493,0.91565
5234.52621,0.91256
5232.59750,0.90888
5230.66879,0.90715
5228.74007,0.90636
5226.81136,0.90339
5224.88265,0.90250
5222.95394,0.90696
5221.02522,0.91019
5219.09651,0.91026
5217.16780,0.91196
5215.23909,0.91560
5213.31037,0.91706
5211.38166,0.91389
5209.45295,0.90576
5207.52424,0.89852
5205.59552,0.90181
5203.66681,0.91202
5201.73810,0.91806
5199.80938,0.91683
5197.88067,0.91295
5195.95196,0.91313
5194.02325,0.91631
5192.09453,0.91667
5190.16582,0.91435
5188.23711,0.91195
5186.30840,0.91028
5184.37968,0.91134
5182.45097,0.91435
5180.52226,0.91597
5178.59355,0.91670
5176.66483,0.91729
5174.73612,0.91681
5172.80741,0.91561
5170.87869,0.91541
5168.94998,0.91738
5167.02127,0.91857
5165.09256,0.91654
5163.16384,0.91457
5161.23513,0.91440
5159.30642,0.91331
5157.37771,0.91162
5155.44899,0.91243
5153.52028,0.91538
5151.59157,0.91788
5149.66286,0.91918
5147.73414,0.92001
5145.80543,0.91999
5143.87672,0.91859
5141.94800,0.91759
5140.01929,0.91875
5138.09058,0.92076
5136.16187,0.92147
5134.23315,0.92072
5132.30444,0.91981
5130.37573,0.91994
5128.44702,0.92109
5126.51830,0.92203
5124.58959,0.92227
5122.66088,0.92182
5120.73216,0.92055
5118.80345,0.91899
5116.87474,0.91820
5114.94603,0.91883
5113.01731,0.92012
5111.08860,0.92087
5109.15989,0.92124
5107.23118,0.92151
5105.30246,0.92182
5103.37375,0.92260
5101.44504,0.92319
5099.51633,0.92258
5097.58761,0.92135
5095.65890,0.92058
5093.73019,0.92041
5091.80147,0.92077
5089.87276,0.92161
5087.94405,0.92231
5086.01534,0.92228
5084.08662,0.92187
5082.15791,0.92173
5080.22920,0.92176
5078.30049,0.92178
5076.37177,0.92136
5074.44306,0.92057
5072.51435,0.92069
5070.58564,0.92160
5068.65692,0.92207
5066.72821,0.92234
5064.79950,0.92268
5062.87078,0.92253
5060.94207,0.92237
5059.01336,0.92271
5057.08465,0.92279
5055.15593,0.92252
5053.22722,0.92230
5051.29851,0.92177
5049.36980,0.92138
5047.44108,0.92182
5045.51237,0.92230
5043.58366,0.92224
5041.65495,0.92223
5039.72623,0.92259
5037.79752,0.92290
5035.86881,0.92291
5033.94009,0.92299
5032.01138,0.92340
5030.08267,0.92349
5028.15396,0.92316
5026.22524,0.92312
5024.29653,0.92297
5022.36782,0.92247
5020.43911,0.92239
5018.51039,0.92290
5016.58168,0.92360
5014.65297,0.92401
5012.72425,0.92383
5010.79554,0.92330
5008.86683,0.92289
5006.93812,0.92271
5005.00940,0.92261
5003.08069,0.92250
5001.15198,0.92196
4999.22327,0.92125
4997.29455,0.92128
4995.36584,0.92179
4993.43713,0.92187
4991.50842,0.92163
4989.57970,0.92155
4987.65099,0.92125
4985.72228,0.92040
4983.79356,0.91957
4981.86485,0.91929
4979.93614,0.91933
4978.00743,0.91932
4976.07871,0.91934
4974.15000,0.91962
4972.22129,0.91977
4970.29258,0.91938
4968.36386,0.91908
4966.43515,0.91935
4964.50644,0.91968
4962.57773,0.92000
4960.64901,0.92074
4958.72030,0.92181
4956.79159,0.92244
4954.86287,0.92209
4952.93416,0.92173
4951.00545,0.92201
4949.07674,0.92202
4947.14802,0.92196
4945.21931,0.92248
4943.29060,0.92248
4941.36189,0.92148
4939.43317,0.92086
4937.50446,0.92102
4935.57575,0.92131
4933.64703,0.92178
4931.71832,0.92236
4929.78961,0.92259
4927.86090,0.92262
4925.93218,0.92309
4924.00347,0.92398
4922.07476,0.92423
4920.14605,0.92366
4918.21733,0.92317
4916.28862,0.92307
4914.35991,0.92324
4912.43120,0.92347
4910.50248,0.92337
4908.57377,0.92286
4906.64506,0.92250
4904.71634,0.92307
4902.78763,0.92434
4900.85892,0.92496
4898.93021,0.92448
4897.00149,0.92405
4895.07278,0.92425
4893.14407,0.92430
4891.21536,0.92403
4889.28664,0.92403
4887.35793,0.92389
4885.42922,0.92288
4883.50051,0.92162
4881.57179,0.92100
4879.64308,0.92125
4877.71437,0.92207
4875.78565,0.92269
4873.85694,0.92252
4871.92823,0.92189
4869.99952,0.92179
4868.07080,0.92235
4866.14209,0.92277
4864.21338,0.92282
4862.28467,0.92292
4860.35595,0.92329
4858.42724,0.92381
4856.49853,0.92421
4854.56982,0.92424
4852.64110,0.92411
4850.71239,0.92421
4848.78368,0.92411
4846.85496,0.92378
4844.92625,0.92402
4842.99754,0.92447
4841.06883,0.92436
4839.14011,0.92409
4837.21140,0.92435
4835.28269,0.92499
4833.35398,0.92550
4831.42526,0.92592
4829.49655,0.92623
4827.56784,0.92648
4825.63912,0.92709
4823.71041,0.92788
4821.78170,0.92819
4819.85299,0.92782
4817.92427,0.92717
4815.99556,0.92698
4814.06685,0.92729
4812.13814,0.92721
4810.20942,0.92655
4808.28071,0.92610
4806.35200,0.92615
4804.42329,0.92674
4802.49457,0.92792
4800.56586,0.92903
4798.63715,0.92926
4796.70843,0.92881
4794.77972,0.92869
4792.85101,0.92923
4790.92230,0.92960
4788.99358,0.92972
4787.06487,0.93002
4785.13616,0.92976
4783.20745,0.92866
4781.27873,0.92807
4779.35002,0.92851
4777.42131,0.92908
4775.49260,0.92914
4773.56388,0.92882
4771.63517,0.92837
4769.70646,0.92789
4767.77774,0.92790
4765.84903,0.92880
4763.92032,0.92985
4761.99161,0.93006
4760.06289,0.92986
4758.13418,0.92992
4756.20547,0.92986
4754.27676,0.92955
4752.34804,0.92929
4750.41933,0.92901
4748.49062,0.92878
4746.56191,0.92878
4744.63319,0.92887
4742.70448,0.92873
4740.77577,0.92827
4738.84705,0.92808
4736.91834,0.92843
4734.98963,0.92884
4733.06092,0.92913
4731.13220,0.92928
4729.20349,0.92946
4727.27478,0.92994
4725.34607,0.93064
4723.41735,0.93126
4721.48864,0.93172
4719.55993,0.93201
4717.63121,0.93172
4715.70250,0.93103
4713.77379,0.93073
4711.84508,0.93060
4709.91636,0.93013
4707.98765,0.92982
4706.05894,0.93010
4704.13023,0.93030
4702.20151,0.92970
4700.27280,0.92884
4698.34409,0.92880
4696.41538,0.92930
4694.48666,0.92967
4692.55795,0.93029
4690.62924,0.93129
4688.70052,0.93190
4686.77181,0.93170
4684.84310,0.93123
4682.91439,0.93101
4680.98567,0.93089
4679.05696,0.93059
4677.12825,0.92986
4675.19954,0.92894
4673.27082,0.92874
4671.34211,0.92938
4669.41340,0.92963
4667.48469,0.92937
4665.55597,0.92961
4663.62726,0.92988
4661.69855,0.92955
4659.76983,0.92944
4657.84112,0.92975
4655.91241,0.92974
4653.98370,0.92952
4652.05498,0.92964
4650.12627,0.92996
4648.19756,0.93029
4646.26885,0.93061
4644.34013,0.93067
4642.41142,0.93051
4640.48271,0.93037
4638.55399,0.92995
4636.62528,0.92930
4634.69657,0.92894
4632.76786,0.92907
4630.83914,0.92945
4628.91043,0.92963
4626.98172,0.92935
4625.05301,0.92889
4623.12429,0.92865
4621.19558,0.92901
4619.26687,0.92977
4617.33816,0.93011
4615.40944,0.92989
4613.48073,0.92978
4611.55202,0.93000
4609.62330,0.93013
4607.69459,0.93011
4605.76588,0.93002
4603.83717,0.92971
4601.90845,0.92944
4599.97974,0.92943
4598.05103,0.92941
4596.12232,0.92940
4594.19360,0.92959
4592.26489,0.92995
4590.33618,0.93017
4588.40747,0.92984
4586.47875,0.92953
4584.55004,0.93010
4582.62133,0.93064
4580.69261,0.93018
4578.76390,0.92951
4576.83519,0.92918
4574.90648,0.92897
4572.97776,0.92858
4571.04905,0.92806
4569.12034,0.92789
4567.19163,0.92768
4565.26291,0.92677
4563.33420,0.92566
4561.40549,0.92526
4559.47678,0.92593
4557.54806,0.92704
4555.61935,0.92726
4553.69064,0.92646
4551.76192,0.92620
4549.83321,0.92690
4547.90450,0.92730
4545.97579,0.92704
4544.04707,0.92678
4542.11836,0.92669
4540.18965,0.92662
4538.26094,0.92637
4536.33222,0.92569
4534.40351,0.92485
4532.47480,0.92422
4530.54608,0.92381
4528.61737,0.92369
4526.68866,0.92358
4524.75995,0.92341
4522.83123,0.92372
4520.90252,0.92436
4518.97381,0.92469
4517.04510,0.92448
4515.11638,0.92367
4513.18767,0.92272
4511.25896,0.92231
4509.33025,0.92222
4507.40153,0.92191
4505.47282,0.92141
4503.54411,0.92110
4501.61539,0.92082
4499.68668,0.92008
4497.75797,0.91920
4495.82926,0.91863
4493.90054,0.91822
4491.97183,0.91792
4490.04312,0.91775
4488.11441,0.91775
4486.18569,0.91797
4484.25698,0.91793
4482.32827,0.91706
4480.39956,0.91590
4478.47084,0.91542
4476.54213,0.91548
4474.61342,0.91536
4472.68470,0.91501
4470.75599,0.91437
4468.82728,0.91322
4466.89857,0.91204
4464.96985,0.91125
4463.04114,0.91078
4461.11243,0.91027
4459.18372,0.90943
4457.25500,0.90863
4455.32629,0.90816
4453.39758,0.90763
4451.46886,0.90687
4449.54015,0.90610
4447.61144,0.90537
4445.68273,0.90449
4443.75401,0.90320
4441.82530,0.90185
4439.89659,0.90067
4437.96788,0.89943
4436.03916,0.89819
4434.11045,0.89702
4432.18174,0.89575
4430.25303,0.89447
4428.32431,0.89329
4426.39560,0.89195
4424.46689,0.89012
4422.53817,0.88795
4420.60946,0.88562
4418.68075,0.88303
4416.75204,0.88034
4414.82332,0.87765
4412.89461,0.87463
4410.96590,0.87149
4409.03719,0.86874
4407.10847,0.86609
4405.17976,0.86269
4403.25105,0.85817
4401.32234,0.85316
4399.39362,0.84841
4397.46491,0.84421
4395.53620,0.84036
4393.60748,0.83651
4391.67877,0.83241
4389.75006,0.82793
4387.82135,0.82347
4385.89263,0.81917
4383.96392,0.81449
4382.03521,0.80958
4380.10650,0.80512
4378.17778,0.80098
4376.24907,0.79648
4374.32036,0.79145
4372.39165,0.78631
4370.46293,0.78116
4368.53422,0.77580
4366.60551,0.77012
4364.67679,0.76403
4362.74808,0.75771
4360.81937,0.75097
4358.89066,0.74250
4356.96194,0.73159
4355.03323,0.71903
4353.10452,0.70544
4351.17581,0.69013
4349.24709,0.67257
4347.31838,0.65300
4345.38967,0.63175
4343.46095,0.60979
4341.53224,0.58888
4339.60353,0.57031
4337.67482,0.55374
4335.74610,0.53717
4333.81739,0.51850
4331.88868,0.49668
4329.95997,0.47067
4328.03125,0.43890
4326.10254,0.40269
4324.17383,0.37116
4322.24512,0.36012
4320.31640,0.38168
4318.38769,0.43307
4316.45898,0.49818
4314.53026,0.56035
4312.60155,0.61141
4310.67284,0.65022
4308.74413,0.67835
4306.81541,0.69843
4304.88670,0.71286
4302.95799,0.72295
4301.02928,0.72977
4299.10056,0.73435
4297.17185,0.73700
4295.24314,0.73774
4293.31443,0.73659
4291.38571,0.73391
4289.45700,0.73061
4287.52829,0.72722
4285.59957,0.72370
4283.67086,0.72015
4281.74215,0.71654
4279.81344,0.71285
4277.88472,0.70911
4275.95601,0.70470
4274.02730,0.69863
4272.09859,0.69027
4270.16987,0.67980
4268.24116,0.66732
4266.31245,0.65207
4264.38374,0.63343
4262.45502,0.61150
4260.52631,0.58627
4258.59760,0.55849
4256.66888,0.53042
4254.74017,0.50515
4252.81146,0.48785
4250.88275,0.48661
4248.95403,0.50678
4247.02532,0.54346
4245.09661,0.58395
4243.16790,0.61803
4241.23918,0.64277
4239.31047,0.65941
4237.38176,0.66937
4235.45304,0.67373
4233.52433,0.67377
4231.59562,0.67062
4229.66691,0.66503
4227.73819,0.65792
4225.80948,0.65025
4223.88077,0.64312
4221.95206,0.63795
4220.02334,0.63561
4218.09463,0.63598
4216.16592,0.63809
4214.23721,0.64058
4212.30849,0.64237
4210.37978,0.64268
4208.45107,0.64091
4206.52235,0.63702
4204.59364,0.63145
4202.66493,0.62403
4200.73622,0.61432
4198.80750,0.60352
4196.87879,0.59405
4194.95008,0.58774
4193.02137,0.58483
4191.09265,0.58438
4189.16394,0.58531
4187.23523,0.58683
4185.30652,0.58836
4183.37780,0.58951
4181.44909,0.59027
4179.52038,0.59092
4177.59166,0.59167
4175.66295,0.59250
4173.73424,0.59315
4171.80553,0.59374
4169.87681,0.59474
4167.94810,0.59580
4166.01939,0.59622
4164.09068,0.59639
4162.16196,0.59712
4160.23325,0.59824
4158.30454,0.59901
4156.37582,0.59927
4154.44711,0.59939
4152.51840,0.59954
4150.58969,0.59976
4148.66097,0.60033
4146.73226,0.60131
4144.80355,0.60257
4142.87484,0.60415
4140.94612,0.60589
4139.01741,0.60770
4137.08870,0.60955
4135.15999,0.61131
4133.23127,0.61284
4131.30256,0.61410
4129.37385,0.61496
4127.44513,0.61559
4125.51642,0.61662
4123.58771,0.61797
4121.65900,0.61893
4119.73028,0.61923
4117.80157,0.61907
4115.87286,0.61883
4113.94415,0.61894
4112.01543,0.61933
4110.08672,0.61915
4108.15801,0.61818
4106.22930,0.61733
4104.30058,0.61718
4102.37187,0.61737
4100.44316,0.61757
4098.51444,0.61819
4096.58573,0.62007
4094.65702,0.62369
4092.72831,0.62921
4090.79959,0.63648
4088.87088,0.64525
4086.94217,0.65467
4085.01346,0.66340
4083.08474,0.67070
4081.15603,0.67665
4079.22732,0.68176
4077.29861,0.68655
4075.36989,0.69102
4073.44118,0.69506
4071.51247,0.69878
4069.58375,0.70215
4067.65504,0.70534
4065.72633,0.70866
4063.79762,0.71186
4061.86890,0.71447
4059.94019,0.71686
4058.01148,0.71951
4056.08277,0.72208
4054.15405,0.72439
4052.22534,0.72665
4050.29663,0.72884
4048.36791,0.73072
4046.43920,0.73204
4044.51049,0.73371
4042.58178,0.73693
4040.65306,0.74071
4038.72435,0.74351
4036.79564,0.74543
4034.86693,0.74695
4032.93821,0.74774
4031.00950,0.74769
4029.08079,0.74698
4027.15208,0.74556
4025.22336,0.74419
4023.29465,0.74393
4021.36594,0.74500
4019.43722,0.74837
4017.50851,0.75481
4015.57980,0.76268
4013.65109,0.76974
4011.72237,0.77466
4009.79366,0.77756
4007.86495,0.78035
4005.93624,0.78379
4004.00752,0.78660
4002.07881,0.78849
4000.15010,0.78960
3998.22139,0.78944
3996.29267,0.78847
3994.36396,0.78771
3992.43525,0.78715
3990.50653,0.78677
3988.57782,0.78696
3986.64911,0.78709
3984.72040,0.78640
3982.79168,0.78553
3980.86297,0.78515
3978.93426,0.78458
3977.00555,0.78312
3975.07683,0.78220
3973.14812,0.78351
3971.21941,0.78621
3969.29070,0.78940
3967.36198,0.79282
3965.43327,0.79459
3963.50456,0.79370
3961.57584,0.79288
3959.64713,0.79395
3957.71842,0.79499
3955.78971,0.79480
3953.86099,0.79313
3951.93228,0.78904
3950.00357,0.78383
3948.07486,0.78205
3946.14614,0.78311
3944.21743,0.78216
3942.28872,0.78217
3940.36000,0.78638
3938.43129,0.78973
3936.50258,0.78793
3934.57387,0.78029
3932.64515,0.77037
3930.71644,0.76661
3928.78773,0.76951
3926.85902,0.76978
3924.93030,0.76626
3923.00159,0.76628
3921.07288,0.76762
3919.14417,0.76460
3917.21545,0.76246
3915.28674,0.76723
3913.35803,0.77381
3911.42931,0.77734
3909.50060,0.77681
3907.57189,0.76895
3905.64318,0.75274
3903.71446,0.73865
3901.78575,0.73770
3899.85704,0.74652
3897.92833,0.75928
3895.99961,0.76718
3894.07090,0.76459
3892.14219,0.75889
3890.21348,0.76218
3888.28476,0.76593
3886.35605,0.76106
3884.42734,0.75484
3882.49862,0.75287
3880.56991,0.75590
3878.64120,0.76516
3876.71249,0.76860
3874.78377,0.76068
3872.85506,0.74912
3870.92635,0.74317
3868.99764,0.74822
3867.06892,0.75492
3865.14021,0.75436
3863.21150,0.75809
3861.28278,0.77089
3859.35407,0.77740
3857.42536,0.77079
3855.49665,0.75343
3853.56793,0.73727
3851.63922,0.74931
3849.71051,0.77148
3847.78180,0.78397
3845.85308,0.78355
3843.92437,0.77298
3841.99566,0.75834
3840.06695,0.74421
3838.13823,0.73979
3836.20952,0.75030
3834.28081,0.76305
3832.35209,0.77239
3830.42338,0.77857
3828.49467,0.77944
3826.56596,0.77615
3824.63724,0.77043
3822.70853,0.75875
3820.77982,0.74835
3818.85111,0.75180
3816.92239,0.76003
3814.99368,0.77358
3813.06497,0.78864
3811.13626,0.79465
3809.20754,0.78945
3807.27883,0.77951
3805.35012,0.77403
3803.42140,0.76790
3801.49269,0.76355
3799.56398,0.77232
3797.63527,0.78491
3795.70655,0.79913
3793.77784,0.81359
3791.84913,0.82152
3789.92042,0.82288
3787.99170,0.81955
3786.06299,0.81381
3784.13428,0.81163
3782.20557,0.81151
3780.27685,0.80846
3778.34814,0.81062
3776.41943,0.81989
3774.49071,0.82421
3772.56200,0.81841
3770.63329,0.80789
3768.70458,0.80359
3766.77586,0.80624
3764.84715,0.81100
3762.91844,0.81353
3760.98973,0.80808
3759.06101,0.79979
3757.13230,0.79867
3755.20359,0.79646
3753.27487,0.78146
3751.34616,0.75874
3749.41745,0.75513
3747.48874,0.76411
3745.56002,0.77012
3743.63131,0.77882
3741.70260,0.78681
3739.77389,0.78587
3737.84517,0.77360
3735.91646,0.75671
3733.98775,0.75858
3732.05904,0.77996
3730.13032,0.79707
3728.20161,0.80075
3726.27290,0.79552
3724.34418,0.79209
3722.41547,0.79605
3720.48676,0.80489
3718.55805,0.81400
3716.62933,0.81731
3714.70062,0.80880
3712.77191,0.78794
3710.84320,0.77532
3708.91448,0.78824
3706.98577,0.80403
3705.05706,0.80899
3703.12835,0.80582
3701.19963,0.80518
3699.27092,0.81048
3697.34221,0.81327
3695.41349,0.81029
3693.48478,0.80045
3691.55607,0.78256
3689.62736,0.77079
3687.69864,0.78464
3685.76993,0.80414
3683.84122,0.81356
3681.91251,0.81185
3679.98379,0.79970
3678.05508,0.78022
3676.12637,0.76259
3674.19766,0.76386
3672.26894,0.76940
3670.34023,0.77015
3668.41152,0.78351
3666.48280,0.80220
3664.55409,0.81183
3662.62538,0.81292
3660.69667,0.80867
3658.76795,0.79997
3656.83924,0.78945
3654.91053,0.78302
3652.98182,0.77379
3651.05310,0.74947
3649.12439,0.72439
3647.19568,0.73740
3645.26696,0.76207
3643.33825,0.77612
3641.40954,0.78299
3639.48083,0.78795
3637.55211,0.79154
3635.62340,0.79175
3633.69469,0.78777
3631.76598,0.77889
3629.83726,0.76619
3627.90855,0.76743
3625.97984,0.78358
3624.05113,0.79148
3622.12241,0.78498
3620.19370,0.76917
3618.26499,0.75878
3616.33627,0.75579
3614.40756,0.74999
3612.47885,0.74343
3610.55014,0.73719
3608.62142,0.72924
3606.69271,0.72682
3604.76400,0.72968
3602.83529,0.73093
3600.90657,0.73480
3598.97786,0.74785
3597.04915,0.76513
3595.12044,0.78290
3593.19172,0.80217
3591.26301,0.81510
3589.33430,0.81478
3587.40558,0.81313
3585.47687,0.82726
3583.54816,0.84441
3581.61945,0.85362
3579.69073,0.85715
3577.76202,0.85895
3575.83331,0.86098
3573.90460,0.86357
3571.97588,0.86338
3570.04717,0.85417
3568.11846,0.83656
3566.18974,0.83044
3564.26103,0.84410
3562.33232,0.85904
3560.40361,0.86939
3558.47489,0.87734
3556.54618,0.88130
3554.61747,0.87919
3552.68876,0.87585
3550.76004,0.87688
3548.83133,0.87653
3546.90262,0.87084
3544.97391,0.86975
3543.04519,0.87860
3541.11648,0.88792
3539.18777,0.89027
3537.25905,0.88775
3535.33034,0.88680
3533.40163,0.88695
3531.47292,0.88276
3529.54420,0.87531
3527.61549,0.87113
3525.68678,0.87172
3523.75807,0.87526
3521.82935,0.88208
3519.90064,0.88926
3517.97193,0.89359
3516.04322,0.89559
3514.11450,0.89513
3512.18579,0.89142
3510.25708,0.88749
3508.32836,0.88724
3506.39965,0.88659
3504.47094,0.88121
3502.54223,0.87805
3500.61351,0.88216
3498.68480,0.88629
3496.75609,0.88680
3494.82738,0.88740
3492.89866,0.88913
3490.96995,0.88903
3489.04124,0.88706
3487.11253,0.88643
3485.18381,0.88654
3483.25510,0.88446
3481.32639,0.88303
3479.39767,0.88547
3477.46896,0.88783
3475.54025,0.88737
3473.61154,0.88634
3471.68282,0.88562
3469.75411,0.88402
3467.82540,0.88173
3465.89669,0.87973
3463.96797,0.87782
3462.03926,0.87654
3460.11055,0.87726
3458.18183,0.87867
3456.25312,0.87908
3454.32441,0.87909
3452.39570,0.87887
3450.46698,0.87661
3448.53827,0.87208
3446.60956,0.86967
3444.68085,0.87119
3442.75213,0.87297
3440.82342,0.87396
3438.89471,0.87491
3436.96600,0.87518
3435.03728,0.87426
3433.10857,0.87246
3431.17986,0.87114
3429.25114,0.87117
3427.32243,0.87196
3425.39372,0.87218
3423.46501,0.87068
3421.53629,0.86884
3419.60758,0.87004
3417.67887,0.87402
3415.75016,0.87731
3413.82144,0.87856
3411.89273,0.87861
3409.96402,0.87816
3408.03531,0.87748
3406.10659,0.87658
3404.17788,0.87524
3402.24917,0.87367
3400.32045,0.87203
3398.39174,0.87024
3396.46303,0.86876
3394.53432,0.86778
3392.60560,0.86768
3390.67689,0.86900
3388.74818,0.87012
3386.81947,0.86956
3384.89075,0.86878
3382.96204,0.86907
3381.03333,0.86932
3379.10462,0.86887
3377.17590,0.86829
3375.24719,0.86745
3373.31848,0.86619
3371.38976,0.86465
3369.46105,0.86277
3367.53234,0.86116
3365.60363,0.86088
3363.67491,0.86183
3361.74620,0.86312
3359.81749,0.86427
3357.88878,0.86514
3355.96006,0.86630
3354.03135,0.86818
3352.10264,0.87018
3350.17392,0.87195
3348.24521,0.87348
3346.31650,0.87465
3344.38779,0.87559
3342.45907,0.87621
3340.53036,0.87628
3338.60165,0.87576
3336.67294,0.87511
3334.74422,0.87503
3332.81551,0.87530
3330.88680,0.87509
3328.95809,0.87454
3327.02937,0.87479
3325.10066,0.87616
3323.17195,0.87771
3321.24323,0.87853
3319.31452,0.87882
3317.38581,0.87920
3315.45710,0.87945
3313.52838,0.87925
3311.59967,0.87889
3309.67096,0.87885
3307.74225,0.87966
3305.81353,0.88089
3303.88482,0.88152
3301.95611,0.88146
3300.02740,0.88063
3298.09868,0.87902
3296.16997,0.87750
3294.24126,0.87654
3292.31254,0.87608
3290.38383,0.87667
3288.45512,0.87819
3286.52641,0.87915
3284.59769,0.87919
3282.66898,0.87933
3280.74027,0.87971
3278.81156,0.87952
3276.88284,0.87843
3274.95413,0.87703
3273.02542,0.87645
3271.09670,0.87702
3269.16799,0.87746
3267.23928,0.87681
3265.31057,0.87572
3263.38185,0.87512
3261.45314,0.87494
3259.52443,0.87466
3257.59572,0.87422
3255.66700,0.87420
3253.73829,0.87519
3251.80958,0.87665
3249.88087,0.87739
3247.95215,0.87678
3246.02344,0.87542
3244.09473,0.87508
3242.16601,0.87577
3240.23730,0.87546
3238.30859,0.87391
3236.37988,0.87228
3234.45116,0.87089
3232.52245,0.86966
3230.59374,0.86860
3228.66503,0.86767
3226.73631,0.86713
3224.80760,0.86705
3222.87889,0.86675
3220.95018,0.86576
3219.02146,0.86466
3217.09275,0.86357
3215.16404,0.86248
3213.23532,0.86226
3211.30661,0.86231
3209.37790,0.86166
3207.44919,0.86116
3205.52047,0.86042
3203.59176,0.85844
3201.66305,0.85600
3199.73434,0.85374
3197.80562,0.85179
3195.87691,0.85052
3193.94820,0.84985
3192.01949,0.84958
3190.09077,0.84954
3188.16206,0.84928
3186.23335,0.84873
3184.30463,0.84856
3182.37592,0.84853
3180.44721,0.84735
3178.51850,0.84537
3176.58978,0.84428
3174.66107,0.84398
3172.73236,0.84305
3170.80365,0.84110
3168.87493,0.83894
3166.94622,0.83736
3165.01751,0.83610
3163.08879,0.83483
3161.16008,0.83391
3159.23137,0.83340
3157.30266,0.83273
3155.37394,0.83169
3153.44523,0.83062
3151.51652,0.82956
3149.58781,0.82842
3147.65909,0.82701
3145.73038,0.82515
3143.80167,0.82296
3141.87296,0.82058
3139.94424,0.81811
3138.01553,0.81573
3136.08682,0.81307
3134.15810,0.81014
3132.22939,0.80807
3130.30068,0.80667
3128.37197,0.80465
3126.44325,0.80207
3124.51454,0.79904
3122.58583,0.79561
3120.65712,0.79222
3118.72840,0.78825
3116.79969,0.78350
3114.87098,0.77904
3112.94227,0.77470
3111.01355,0.76951
3109.08484,0.76375
3107.15613,0.75783
3105.22741,0.75095
3103.29870,0.74220
3101.36999,0.73231
3099.44128,0.72246
3097.51256,0.71191
3095.58385,0.70010
3093.65514,0.68820
3091.72643,0.67661
3089.79771,0.66525
3087.86900,0.65502
3085.94029,0.64647
3084.01158,0.63884
3082.08286,0.63149
3080.15415,0.62516
3078.22544,0.62050
3076.29672,0.61675
3074.36801,0.61276
3072.43930,0.60817
3070.51059,0.60305
3068.58187,0.59739
3066.65316,0.59151
3064.72445,0.58575
3062.79574,0.57975
3060.86702,0.57304
3058.93831,0.56553
3057.00960,0.55756
3055.08088,0.54977
3053.15217,0.54202
3051.22346,0.53346
3049.29475,0.52426
3047.36603,0.51511
3045.43732,0.50578
3043.50861,0.49569
3041.57990,0.48492
3039.65118,0.47388
3037.72247,0.46268
3035.79376,0.45140
3033.86505,0.44057
3031.93633,0.43073
3030.00762,0.42197
3028.07891,0.41384
3026.15019,0.40588
3024.22148,0.39803
3022.29277,0.39011
3020.36406,0.38202
3018.43534,0.37371
3016.50663,0.36497
3014.57792,0.35585
3012.64921,0.34666
3010.72049,0.33753
3008.79178,0.32833
3006.86307,0.31863
3004.93436,0.30820
3003.00564,0.29726
3001.07693,0.28582
2999.14822,0.27356
2997.21950,0.26045
2995.29079,0.24655
2993.36208,0.23170
2991.43337,0.21605
2989.50465,0.19947
2987.57594,0.18138
2985.64723,0.16178
2983.71852,0.14118
2981.78980,0.12008
2979.86109,0.09911
2977.93238,0.07878
2976.00366,0.05959
2974.07495,0.04235
2972.14624,0.02817
2970.21753,0.01760
2968.28881,0.01030
2966.36010,0.00577
2964.43139,0.00325
2962.50268,0.00167
2960.57396,0.00092
2958.64525,0.00095
2956.71654,0.00106
2954.78783,0.00109
2952.85911,0.00118
2950.93040,0.00110
2949.00169,0.00093
2947.07297,0.00094
2945.14426,0.00099
2943.21555,0.00094
2941.28684,0.00086
2939.35812,0.00083
2937.42941,0.00075
2935.50070,0.00071
2933.57199,0.00086
2931.64327,0.00094
2929.71456,0.00093
2927.78585,0.00111
2925.85714,0.00130
2923.92842,0.00120
2921.99971,0.00096
2920.07100,0.00088
2918.14228,0.00101
2916.21357,0.00113
2914.28486,0.00119
2912.35615,0.00127
2910.42743,0.00132
2908.49872,0.00140
2906.57001,0.00152
2904.64130,0.00147
2902.71258,0.00120
2900.78387,0.00092
2898.85516,0.00075
2896.92645,0.00072
2894.99773,0.00074
2893.06902,0.00072
2891.14031,0.00075
2889.21159,0.00093
2887.28288,0.00112
2885.35417,0.00102
2883.42546,0.00070
2881.49674,0.00054
2879.56803,0.00067
2877.63932,0.00093
2875.71061,0.00101
2873.78189,0.00100
2871.85318,0.00105
2869.92447,0.00112
2867.99575,0.00112
2866.06704,0.00108
2864.13833,0.00085
2862.20962,0.00060
2860.28090,0.00063
2858.35219,0.00085
2856.42348,0.00082
2854.49477,0.00056
2852.56605,0.00045
2850.63734,0.00061
2848.70863,0.00070
2846.77992,0.00073
2844.85120,0.00084
2842.92249,0.00091
2840.99378,0.00083
2839.06506,0.00071
2837.13635,0.00082
2835.20764,0.00179
2833.27893,0.00398
2831.35021,0.00713
2829.42150,0.01132
2827.49279,0.01679
2825.56408,0.02341
2823.63536,0.03099
2821.70665,0.03945
2819.77794,0.04871
2817.84923,0.05867
2815.92051,0.06923
2813.99180,0.08004
2812.06309,0.09085
2810.13437,0.10194
2808.20566,0.11356
2806.27695,0.12541
2804.34824,0.13738
2802.41952,0.14966
2800.49081,0.16240
2798.56210,0.17576
2796.63339,0.18974
2794.70467,0.20425
2792.77596,0.21945
2790.84725,0.23530
2788.91854,0.25146
2786.98982,0.26778
2785.06111,0.28405
2783.13240,0.29979
2781.20368,0.31475
2779.27497,0.32891
2777.34626,0.34207
2775.41755,0.35418
2773.48883,0.36544
2771.56012,0.37584
2769.63141,0.38522
2767.70270,0.39366
2765.77398,0.40130
2763.84527,0.40822
2761.91656,0.41456
2759.98784,0.42050
2758.05913,0.42606
2756.13042,0.43109
2754.20171,0.43548
2752.27299,0.43916
2750.34428,0.44191
2748.41557,0.44326
2746.48686,0.44312
2744.55814,0.44229
2742.62943,0.44156
2740.70072,0.44109
2738.77201,0.44103
2736.84329,0.44179
2734.91458,0.44350
2732.98587,0.44583
2731.05715,0.44857
2729.12844,0.45206
2727.19973,0.45667
2725.27102,0.46203
2723.34230,0.46749
2721.41359,0.47271
2719.48488,0.47773
2717.55617,0.48249
2715.62745,0.48674
2713.69874,0.49044
2711.77003,0.49384
2709.84132,0.49704
2707.91260,0.50012
2705.98389,0.50318
2704.05518,0.50611
2702.12646,0.50864
2700.19775,0.51044
2698.26904,0.51123
2696.34033,0.51078
2694.41161,0.50885
2692.48290,0.50561
2690.55419,0.50179
2688.62548,0.49793
2686.69676,0.49417
2684.76805,0.49057
2682.83934,0.48717
2680.91062,0.48390
2678.98191,0.48077
2677.05320,0.47752
2675.12449,0.47385
2673.19577,0.47001
2671.26706,0.46663
2669.33835,0.46406
2667.40964,0.46237
2665.48092,0.46171
2663.55221,0.46213
2661.62350,0.46339
2659.69479,0.46513
2657.76607,0.46723
2655.83736,0.46984
2653.90865,0.47281
2651.97993,0.47573
2650.05122,0.47824
2648.12251,0.47995
2646.19380,0.48057
2644.26508,0.48007
2642.33637,0.47876
2640.40766,0.47726
2638.47895,0.47626
2636.55023,0.47645
2634.62152,0.47873
2632.69281,0.48360
2630.76410,0.49081
2628.83538,0.49963
2626.90667,0.50899
2624.97796,0.51816
2623.04924,0.52718
2621.12053,0.53608
2619.19182,0.54453
2617.26311,0.55256
2615.33439,0.56051
2613.40568,0.56820
2611.47697,0.57541
2609.54826,0.58233
2607.61954,0.58916
2605.69083,0.59591
2603.76212,0.60239
2601.83341,0.60841
2599.90469,0.61405
2597.97598,0.61964
2596.04727,0.62547
2594.11855,0.63171
2592.18984,0.63841
2590.26113,0.64546
2588.33242,0.65255
2586.40370,0.65938
2584.47499,0.66580
2582.54628,0.67186
2580.61757,0.67747
2578.68885,0.68277
2576.76014,0.68819
2574.83143,0.69368
2572.90271,0.69889
2570.97400,0.70396
2569.04529,0.70913
2567.11658,0.71409
2565.18786,0.71862
2563.25915,0.72290
2561.33044,0.72696
2559.40173,0.73046
2557.47301,0.73322
2555.54430,0.73524
2553.61559,0.73655
2551.68688,0.73750
2549.75816,0.73883
2547.82945,0.74149
2545.90074,0.74595
2543.97202,0.75171
2542.04331,0.75754
2540.11460,0.76204
2538.18589,0.76437
2536.25717,0.76457
2534.32846,0.76342
2532.39975,0.76212
2530.47104,0.76160
2528.54232,0.76206
2526.61361,0.76375
2524.68490,0.76722
2522.75619,0.77240
2520.82747,0.77830
2518.89876,0.78381
2516.97005,0.78839
2515.04133,0.79218
2513.11262,0.79554
2511.18391,0.79858
2509.25520,0.80137
2507.32648,0.80403
2505.39777,0.80655
2503.46906,0.80890
2501.54035,0.81127
2499.61163,0.81370
2497.68292,0.81601
2495.75421,0.81818
2493.82549,0.82021
2491.89678,0.82194
2489.96807,0.82332
2488.03936,0.82436
2486.11064,0.82499
2484.18193,0.82518
2482.25322,0.82502
2480.32451,0.82464
2478.39579,0.82420
2476.46708,0.82374
2474.53837,0.82389
2472.60966,0.82619
2470.68094,0.83114
2468.75223,0.83697
2466.82352,0.84167
2464.89480,0.84502
2462.96609,0.84763
2461.03738,0.84962
2459.10867,0.85088
2457.17995,0.85147
2455.25124,0.85160
2453.32253,0.85158
2451.39382,0.85150
2449.46510,0.85120
2447.53639,0.85057
2445.60768,0.84981
2443.67897,0.84911
2441.75025,0.84848
2439.82154,0.84787
2437.89283,0.84740
2435.96411,0.84704
2434.03540,0.84660
2432.10669,0.84603
2430.17798,0.84526
2428.24926,0.84414
2426.32055,0.84257
2424.39184,0.84035
2422.46313,0.83739
2420.53441,0.83402
2418.60570,0.83114
2416.67699,0.82970
2414.74828,0.82968
2412.81956,0.83046
2410.89085,0.83173
2408.96214,0.83333
2407.03342,0.83483
2405.10471,0.83601
2403.17600,0.83707
2401.24729,0.83830
2399.31857,0.83969
2397.38986,0.84103
2395.46115,0.84222
2393.53244,0.84323
2391.60372,0.84380
2389.67501,0.84361
2387.74630,0.84215
2385.81758,0.83856
2383.88887,0.83179
2381.96016,0.82104
2380.03145,0.80666
2378.10273,0.79033
2376.17402,0.77375
2374.24531,0.75767
2372.31660,0.74225
2370.38788,0.72753
2368.45917,0.71373
2366.53046,0.70117
2364.60175,0.69060
2362.67303,0.68267
2360.74432,0.67744
2358.81561,0.67492
2356.88689,0.67532
2354.95818,0.67928
2353.02947,0.68797
2351.10076,0.69905
2349.17204,0.70334
2347.24333,0.69419
2345.31462,0.67730
2343.38591,0.66526
2341.45719,0.66114
2339.52848,0.66084
2337.59977,0.66229
2335.67106,0.66431
2333.74234,0.66562
2331.81363,0.66644
2329.88492,0.66919
2327.95620,0.67487
2326.02749,0.68135
2324.09878,0.68767
2322.17007,0.69576
2320.24135,0.70672
2318.31264,0.71894
2316.38393,0.73001
2314.45522,0.73888
2312.52650,0.74658
2310.59779,0.75449
2308.66908,0.76295
2306.74037,0.77128
2304.81165,0.77857
2302.88294,0.78481
2300.95423,0.79055
2299.02551,0.79599
2297.09680,0.80113
2295.16809,0.80600
2293.23938,0.81059
2291.31066,0.81490
2289.38195,0.81906
2287.45324,0.82290
2285.52453,0.82599
2283.59581,0.82798
2281.66710,0.82867
2279.73839,0.82838
2277.80967,0.82801
2275.88096,0.82835
2273.95225,0.82974
2272.02354,0.83208
2270.09482,0.83516
2268.16611,0.83865
2266.23740,0.84189
2264.30869,0.84454
2262.37997,0.84689
2260.45126,0.84912
2258.52255,0.85109
2256.59384,0.85278
2254.66512,0.85424
2252.73641,0.85539
2250.80770,0.85596
2248.87898,0.85587
2246.95027,0.85539
2245.02156,0.85483
2243.09285,0.85472
2241.16413,0.85580
2239.23542,0.85823
2237.30671,0.86138
2235.37800,0.86450
2233.44928,0.86698
2231.52057,0.86854
2229.59186,0.86937
2227.66315,0.86972
2225.73443,0.86977
2223.80572,0.86986
2221.87701,0.87049
2219.94829,0.87181
2218.01958,0.87352
2216.09087,0.87515
2214.16216,0.87642
2212.23344,0.87733
2210.30473,0.87774
2208.37602,0.87749
2206.44731,0.87673
2204.51859,0.87571
2202.58988,0.87454
2200.66117,0.87327
2198.73245,0.87206
2196.80374,0.87117
2194.87503,0.87072
2192.94632,0.87054
2191.01760,0.87053
2189.08889,0.87085
2187.16018,0.87162
2185.23147,0.87264
2183.30275,0.87370
2181.37404,0.87473
2179.44533,0.87548
2177.51662,0.87581
2175.58790,0.87582
2173.65919,0.87541
2171.73048,0.87438
2169.80176,0.87294
2167.87305,0.87131
2165.94434,0.86936
2164.01563,0.86700
2162.08691,0.86462
2160.15820,0.86274
2158.22949,0.86144
2156.30078,0.86058
2154.37206,0.86030
2152.44335,0.86066
2150.51464,0.86143
2148.58593,0.86264
2146.65721,0.86460
2144.72850,0.86720
2142.79979,0.86993
2140.87107,0.87240
2138.94236,0.87459
2137.01365,0.87654
2135.08494,0.87821
2133.15622,0.87943
2131.22751,0.88018
2129.29880,0.88078
2127.37009,0.88150
2125.44137,0.88243
2123.51266,0.88359
2121.58395,0.88507
2119.65524,0.88669
2117.72652,0.88813
2115.79781,0.88942
2113.86910,0.89093
2111.94038,0.89260
2110.01167,0.89392
2108.08296,0.89445
2106.15425,0.89413
2104.22553,0.89323
2102.29682,0.89198
2100.36811,0.89045
2098.43940,0.88869
2096.51068,0.88690
2094.58197,0.88518
2092.65326,0.88328
2090.72454,0.88149
2088.79583,0.88082
2086.86712,0.88139
2084.93841,0.88243
2083.00969,0.88349
2081.08098,0.88442
2079.15227,0.88509
2077.22356,0.88544
2075.29484,0.88542
2073.36613,0.88507
2071.43742,0.88429
2069.50871,0.88249
2067.57999,0.87903
2065.65128,0.87502
2063.72257,0.87241
2061.79385,0.87066
2059.86514,0.86840
2057.93643,0.86596
2056.00772,0.86387
2054.07900,0.86229
2052.15029,0.86118
2050.22158,0.86035
2048.29287,0.85955
2046.36415,0.85843
2044.43544,0.85647
2042.50673,0.85390
2040.57802,0.85207
2038.64930,0.85099
2036.72059,0.84891
2034.79188,0.84515
2032.86316,0.84025
2030.93445,0.83465
2029.00574,0.82839
2027.07703,0.82161
2025.14831,0.81464
2023.21960,0.80791
2021.29089,0.80175
2019.36218,0.79706
2017.43346,0.79767
2015.50475,0.80726
2013.57604,0.82289
2011.64733,0.83885
2009.71861,0.85250
2007.78990,0.86375
2005.86119,0.87291
2003.93247,0.87981
2002.00376,0.88435
2000.07505,0.88686
1998.14634,0.88802
1996.21762,0.88721
1994.28891,0.88300
1992.36020,0.87828
1990.43149,0.87767
1988.50277,0.87977
1986.57406,0.88196
1984.64535,0.88377
1982.71663,0.88512
1980.78792,0.88664
1978.85921,0.88860
1976.93050,0.89073
1975.00178,0.89288
1973.07307,0.89468
1971.14436,0.89475
1969.21565,0.89149
1967.28693,0.88791
1965.35822,0.88851
1963.42951,0.89043
1961.50080,0.88963
1959.57208,0.88710
1957.64337,0.88408
1955.71466,0.88116
1953.78594,0.87961
1951.85723,0.87929
1949.92852,0.87863
1947.99981,0.87650
1946.07109,0.87289
1944.14238,0.86935
1942.21367,0.87100
1940.28496,0.87931
1938.35624,0.88695
1936.42753,0.89006
1934.49882,0.89053
1932.57011,0.89041
1930.64139,0.89000
1928.71268,0.88830
1926.78397,0.88339
1924.85525,0.87391
1922.92654,0.86457
1920.99783,0.86057
1919.06912,0.85831
1917.14040,0.85788
1915.21169,0.86095
1913.28298,0.86141
1911.35427,0.85676
1909.42555,0.85257
1907.49684,0.85369
1905.56813,0.85686
1903.63941,0.85769
1901.71070,0.85644
1899.78199,0.85407
1897.85328,0.85019
1895.92456,0.84669
1893.99585,0.84741
1892.06714,0.84992
1890.13843,0.85226
1888.20971,0.85895
1886.28100,0.86730
1884.35229,0.87232
1882.42358,0.87538
1880.49486,0.87780
1878.56615,0.88021
1876.63744,0.88333
1874.70872,0.88604
1872.78001,0.88445
1870.85130,0.87524
1868.92259,0.86653
1866.99387,0.87481
1865.06516,0.89200
1863.13645,0.90232
1861.20774,0.90462
1859.27902,0.90408
1857.35031,0.90352
1855.42160,0.90239
1853.49289,0.89987
1851.56417,0.89543
1849.63546,0.88756
1847.70675,0.87616
1845.77803,0.86447
1843.84932,0.86285
1841.92061,0.87510
1839.99190,0.88594
1838.06318,0.88964
1836.13447,0.89233
1834.20576,0.89486
1832.27705,0.88975
1830.34833,0.87895
1828.41962,0.87609
1826.49091,0.87874
1824.56220,0.87985
1822.63348,0.88247
1820.70477,0.88396
1818.77606,0.88138
1816.84734,0.87794
1814.91863,0.87406
1812.98992,0.86693
1811.06121,0.86091
1809.13249,0.86340
1807.20378,0.87049
1805.27507,0.87417
1803.34636,0.87156
1801.41764,0.86707
1799.48893,0.86848
1797.56022,0.87268
1795.63150,0.87140
1793.70279,0.86387
1791.77408,0.86243
1789.84537,0.87513
1787.91665,0.88510
1785.98794,0.88419
1784.05923,0.87739
1782.13052,0.86934
1780.20180,0.86338
1778.27309,0.86117
1776.34438,0.85528
1774.41567,0.84018
1772.48695,0.82577
1770.55824,0.83110
1768.62953,0.84812
1766.70081,0.86161
1764.77210,0.86480
1762.84339,0.85753
1760.91468,0.84913
1758.98596,0.84337
1757.05725,0.83449
1755.12854,0.82336
1753.19983,0.80614
1751.27111,0.77641
1749.34240,0.74772
1747.41369,0.73859
1745.48498,0.73900
1743.55626,0.73864
1741.62755,0.73816
1739.69884,0.74296
1737.77012,0.75236
1735.84141,0.75763
1733.91270,0.76381
1731.98399,0.78306
1730.05527,0.80421
1728.12656,0.81895
1726.19785,0.82190
1724.26914,0.81483
1722.34042,0.80539
1720.41171,0.79142
1718.48300,0.76271
1716.55429,0.73502
1714.62557,0.74016
1712.69686,0.75691
1710.76815,0.76849
1708.83943,0.77193
1706.91072,0.76968
1704.98201,0.77077
1703.05330,0.77504
1701.12458,0.77202
1699.19587,0.76464
1697.26716,0.77307
1695.33845,0.80406
1693.40973,0.83372
1691.48102,0.84417
1689.55231,0.84137
1687.62359,0.83285
1685.69488,0.81799
1683.76617,0.80661
1681.83746,0.81727
1679.90874,0.83018
1677.98003,0.83405
1676.05132,0.82802
1674.12261,0.81853
1672.19389,0.80977
1670.26518,0.80371
1668.33647,0.81562
1666.40776,0.83278
1664.47904,0.83687
1662.55033,0.83678
1660.62162,0.84566
1658.69290,0.85211
1656.76419,0.84451
1654.83548,0.82168
1652.90677,0.80205
1650.97805,0.80682
1649.04934,0.80238
1647.12063,0.79211
1645.19192,0.80281
1643.26320,0.81734
1641.33449,0.81834
1639.40578,0.80678
1637.47707,0.78709
1635.54835,0.78145
1633.61964,0.80258
1631.69093,0.81821
1629.76221,0.82107
1627.83350,0.81905
1625.90479,0.81717
1623.97608,0.81569
1622.04736,0.82117
1620.11865,0.82671
1618.18994,0.82088
1616.26123,0.81583
1614.33251,0.82477
1612.40380,0.82997
1610.47509,0.82457
1608.54637,0.81710
1606.61766,0.81481
1604.68895,0.81396
1602.76024,0.81244
1600.83152,0.81391
1598.90281,0.81693
1596.97410,0.81723
1595.04539,0.81733
1593.11667,0.82109
1591.18796,0.82664
1589.25925,0.83163
1587.33054,0.83556
1585.40182,0.83729
1583.47311,0.83627
1581.54440,0.83188
1579.61568,0.82054
1577.68697,0.80074
1575.75826,0.78795
1573.82955,0.79247
1571.90083,0.79165
1569.97212,0.78271
1568.04341,0.78228
1566.11470,0.78753
1564.18598,0.78827
1562.25727,0.78200
1560.32856,0.76234
1558.39985,0.74369
1556.47113,0.75993
1554.54242,0.77880
1552.61371,0.78958
1550.68499,0.79238
1548.75628,0.79085
1546.82757,0.78112
1544.89886,0.75529
1542.97014,0.71919
1541.04143,0.69502
1539.11272,0.70997
1537.18401,0.73129
1535.25529,0.73480
1533.32658,0.73373
1531.39787,0.74087
1529.46916,0.74374
1527.54044,0.73547
1525.61173,0.72402
1523.68302,0.71357
1521.75430,0.70578
1519.82559,0.70828
1517.89688,0.71111
1515.96817,0.71297
1514.03945,0.71491
1512.11074,0.70623
1510.18203,0.68294
1508.25332,0.64937
1506.32460,0.63707
1504.39589,0.65357
1502.46718,0.65893
1500.53846,0.65000
1498.60975,0.63213
1496.68104,0.61832
1494.75233,0.61355
1492.82361,0.60273
1490.89490,0.57386
1488.96619,0.53486
1487.03748,0.50705
1485.10876,0.48043
1483.18005,0.43770
1481.25134,0.36936
1479.32263,0.28098
1477.39391,0.18120
1475.46520,0.08386
1473.53649,0.02075
1471.60777,0.00222
1469.67906,0.00056
1467.75035,0.00041
1465.82164,0.00033
1463.89292,0.00030
1461.96421,0.00060
1460.03550,0.00181
1458.10679,0.00648
1456.17807,0.01938
1454.24936,0.03632
1452.32065,0.05615
1450.39194,0.07840
1448.46322,0.10042
1446.53451,0.12037
1444.60580,0.13691
1442.67708,0.15238
1440.74837,0.16831
1438.81966,0.18583
1436.89095,0.21534
1434.96223,0.25956
1433.03352,0.30568
1431.10481,0.36207
1429.17610,0.43380
1427.24738,0.49892
1425.31867,0.54750
1423.38996,0.58454
1421.46125,0.60753
1419.53253,0.62026
1417.60382,0.63784
1415.67511,0.65906
1413.74639,0.67488
1411.81768,0.68648
1409.88897,0.69802
1407.96026,0.70774
1406.03154,0.71413
1404.10283,0.72181
1402.17412,0.72765
1400.24541,0.72438
1398.31669,0.71485
1396.38798,0.70729
1394.45927,0.70520
1392.53055,0.70547
1390.60184,0.69819
1388.67313,0.67715
1386.74442,0.64437
1384.81570,0.59959
1382.88699,0.53008
1380.95828,0.44191
1379.02957,0.37724
1377.10085,0.36418
1375.17214,0.38226
1373.24343,0.39349
1371.31472,0.38495
1369.38600,0.37266
1367.45729,0.37292
1365.52858,0.38662
1363.59986,0.40764
1361.67115,0.43402
1359.74244,0.45634
1357.81373,0.46657
1355.88501,0.46625
1353.95630,0.46284
1352.02759,0.46472
1350.09888,0.47625
1348.17016,0.49722
1346.24145,0.52273
1344.31274,0.54641
1342.38403,0.56407
1340.45531,0.57983
1338.52660,0.60489
1336.59789,0.63755
1334.66917,0.66537
1332.74046,0.68283
1330.81175,0.69036
1328.88304,0.69025
1326.95432,0.68440
1325.02561,0.67388
1323.09690,0.65895
1321.16819,0.63959
1319.23947,0.61830
1317.31076,0.59977
1315.38205,0.58453
1313.45333,0.57087
1311.52462,0.56017
1309.59591,0.55315
1307.66720,0.54925
1305.73848,0.54870
1303.80977,0.55094
1301.88106,0.55518
1299.95235,0.56135
1298.02363,0.56972
1296.09492,0.58047
1294.16621,0.59280
1292.23750,0.60446
1290.30878,0.61346
1288.38007,0.62007
1286.45136,0.62570
1284.52264,0.63068
1282.59393,0.63455
1280.66522,0.63760
1278.73651,0.64093
1276.80779,0.64511
1274.87908,0.64959
1272.95037,0.65422
1271.02166,0.66049
1269.09294,0.66949
1267.16423,0.68010
1265.23552,0.69053
1263.30681,0.69928
1261.37809,0.70573
1259.44938,0.71038
1257.52067,0.71331
1255.59195,0.71389
1253.66324,0.71244
1251.73453,0.71006
1249.80582,0.70801
1247.87710,0.70744
1245.94839,0.70894
1244.01968,0.71262
1242.09097,0.71814
1240.16225,0.72463
1238.23354,0.73149
1236.30483,0.73866
1234.37612,0.74587
1232.44740,0.75250
1230.51869,0.75789
1228.58998,0.76129
1226.66126,0.76265
1224.73255,0.76276
1222.80384,0.76162
1220.87513,0.75866
1218.94641,0.75445
1217.01770,0.75009
1215.08899,0.74588
1213.16028,0.74213
1211.23156,0.73972
1209.30285,0.73950
1207.37414,0.74176
1205.44542,0.74640
1203.51671,0.75281
1201.58800,0.75989
1199.65929,0.76631
1197.73057,0.77102
1195.80186,0.77357
1193.87315,0.77400
1191.94444,0.77245
1190.01572,0.76903
1188.08701,0.76424
1186.15830,0.75899
1184.22959,0.75342
1182.30087,0.74694
1180.37216,0.73934
1178.44345,0.73238
1176.51473,0.72928
1174.58602,0.73070
1172.65731,0.73404
1170.72860,0.73755
1168.79988,0.74167
1166.87117,0.74671
1164.94246,0.75212
1163.01375,0.75697
1161.08503,0.76043
1159.15632,0.76203
1157.22761,0.76178
1155.29890,0.75987
1153.37018,0.75645
1151.44147,0.75187
1149.51276,0.74695
1147.58404,0.74271
1145.65533,0.73985
1143.72662,0.73877
1141.79791,0.73989
1139.86919,0.74337
1137.94048,0.74882
1136.01177,0.75577
1134.08306,0.76355
1132.15434,0.77122
1130.22563,0.77863
1128.29692,0.78548
1126.36821,0.79064
1124.43949,0.79315
1122.51078,0.79247
1120.58207,0.78883
1118.65335,0.78304
1116.72464,0.77582
1114.79593,0.76816
1112.86722,0.76137
1110.93850,0.75612
1109.00979,0.75231
1107.08108,0.74988
1105.15237,0.74893
1103.22365,0.74950
1101.29494,0.75156
1099.36623,0.75462
1097.43751,0.75770
1095.50880,0.75991
1093.58009,0.76052
1091.65138,0.75900
1089.72266,0.75522
1087.79395,0.74934
1085.86524,0.74137
1083.93653,0.73198
1082.00781,0.72356
1080.07910,0.71851
1078.15039,0.71737
1076.22168,0.71920
1074.29296,0.72296
1072.36425,0.72790
1070.43554,0.73312
1068.50682,0.73773
1066.57811,0.74196
1064.64940,0.74728
1062.72069,0.75476
1060.79197,0.76392
1058.86326,0.77339
1056.93455,0.78135
1055.00584,0.78541
1053.07712,0.78422
1051.14841,0.78034
1049.21970,0.77804
1047.29099,0.77709
1045.36227,0.77442
1043.43356,0.76970
1041.50485,0.76455
1039.57613,0.76004
1037.64742,0.75650
1035.71871,0.75413
1033.79000,0.75301
1031.86128,0.75278
1029.93257,0.75262
1028.00386,0.75166
1026.07515,0.74929
1024.14643,0.74496
1022.21772,0.73875
1020.28901,0.73244
1018.36029,0.72939
1016.43158,0.73223
1014.50287,0.74051
1012.57416,0.75131
1010.64544,0.76146
1008.71673,0.76909
1006.78802,0.77404
1004.85931,0.77731
1002.93059,0.78014
1001.00188,0.78373
999.07317,0.78908
997.14446,0.79643
995.21574,0.80532
993.28703,0.81525
991.35832,0.82570
989.42960,0.83587
987.50089,0.84457
985.57218,0.85052
983.64347,0.85280
981.71475,0.85080
979.78604,0.84474
977.85733,0.83564
975.92862,0.82459
973.99990,0.81280
972.07119,0.80178
970.14248,0.79289
968.21377,0.78696
966.28505,0.78462
964.35634,0.78620
962.42763,0.79134
960.49891,0.79936
958.57020,0.80980
956.64149,0.82178
954.71278,0.83391
952.78406,0.84466
950.85535,0.85281
948.92664,0.85745
946.99793,0.85804
945.06921,0.85471
943.14050,0.84838
941.21179,0.84033
939.28308,0.83182
937.35436,0.82396
935.42565,0.81763
933.49694,0.81349
931.56822,0.81202
929.63951,0.81370
927.71080,0.81869
925.78209,0.82636
923.85337,0.83573
921.92466,0.84570
919.99595,0.85485
918.06724,0.86217
916.13852,0.86680
914.20981,0.86691
912.28110,0.86159
910.35238,0.85292
908.42367,0.84460
906.49496,0.83834
904.56625,0.83281
902.63753,0.82658
900.70882,0.82011
898.78011,0.81457
896.85140,0.81099
894.92268,0.81048
892.99397,0.81338
891.06526,0.81899
889.13655,0.82681
887.20783,0.83703
885.27912,0.84909
883.35041,0.86088
881.42169,0.87001
879.49298,0.87511
877.56427,0.87543
875.63556,0.87123
873.70684,0.86383
871.77813,0.85432
869.84942,0.84384
867.92071,0.83400
865.99199,0.82584
864.06328,0.82015
862.13457,0.81803
860.20586,0.81991
858.27714,0.82510
856.34843,0.83277
854.41972,0.84236
852.49100,0.85289
850.56229,0.86292
848.63358,0.87128
846.70487,0.87698
844.77615,0.87917
842.84744,0.87726
840.91873,0.87115
838.99002,0.86145
837.06130,0.84959
835.13259,0.83766
833.20388,0.82731
831.27516,0.81907
829.34645,0.81342
827.41774,0.81119
825.48903,0.81281
823.56031,0.81803
821.63160,0.82585
819.70289,0.83506
817.77418,0.84451
815.84546,0.85244
813.91675,0.85745
811.98804,0.85945
810.05933,0.85816
808.13061,0.85274
806.20190,0.84346
804.27319,0.83131
802.34447,0.81738
800.41576,0.80308
798.48705,0.78983
796.55834,0.77885
794.62962,0.77091
792.70091,0.76611
790.77220,0.76446
788.84349,0.76573
786.91477,0.76876
784.98606,0.77183
783.05735,0.77340
781.12864,0.77231
779.19992,0.76799
777.27121,0.76082
775.34250,0.75167
773.41378,0.74159
771.48507,0.73204
769.55636,0.72423
767.62765,0.71834
765.69893,0.71385
763.77022,0.71026
761.84151,0.70746
759.91280,0.70577
757.98408,0.70540
756.05537,0.70580
754.12666,0.70601
752.19795,0.70503
750.26923,0.70152
748.34052,0.69365
746.41181,0.67924
744.48309,0.65598
742.55438,0.62163
740.62567,0.57445
738.69696,0.51137
736.76824,0.42361
734.83953,0.30253
732.91082,0.16660
730.98211,0.06734
729.05339,0.03629
727.12468,0.04726
725.19597,0.05442
723.26725,0.04072
721.33854,0.02098
719.40983,0.01990
717.48112,0.05637
715.55240,0.13287
713.62369,0.23223
711.69498,0.33160
709.76627,0.41950
707.83755,0.49634
705.90884,0.56549
703.98013,0.62884
702.05142,0.68557
700.12270,0.73351
698.19399,0.77124
696.26528,0.79808
694.33656,0.81346
692.40785,0.81787
690.47914,0.81410
688.55043,0.80636
686.62171,0.79858
684.69300,0.79281
682.76429,0.79024
680.83558,0.79239
678.90686,0.80001
676.97815,0.81222
675.04944,0.82679
673.12073,0.83860
671.19201,0.83788
669.26330,0.83086
667.33459,0.85253
665.40587,0.89224
663.47716,0.91018
661.54845,0.90791
659.61974,0.89807
657.69102,0.88608
655.76231,0.87345
653.83360,0.86146
651.90489,0.85185
649.97617,0.84602
648.04746,0.84501
646.11875,0.84996
644.19004,0.86125
642.26132,0.87713
640.33261,0.89458
638.40390,0.91170
636.47518,0.92772
634.54647,0.94219
632.61776,0.95332
630.68905,0.95826
628.76033,0.95465
626.83162,0.94340
624.90291,0.92927
622.97420,0.91541
621.04548,0.90046
619.11677,0.88417
617.18806,0.87129
615.25934,0.86614
613.33063,0.86789
611.40192,0.87427
609.47321,0.88405
607.54449,0.89620
605.61578,0.90954
603.68707,0.92270
601.75836,0.93546
599.82964,0.94758
