7496.90619,0.97809
7494.97747,0.97530
7493.04876,0.97814
7491.12005,0.97946
7489.19134,0.97473
7487.26262,0.96920
7485.33391,0.96331
7483.40520,0.95854
7481.47648,0.96789
7479.54777,0.99009
7477.61906,1.00554
7475.69035,1.00355
7473.76163,0.99026
7471.83292,0.97871
7469.90421,0.97462
7467.97550,0.97231
7466.04678,0.96966
7464.11807,0.97107
7462.18936,0.97358
7460.26065,0.97382
7458.33193,0.97978
7456.40322,0.99301
7454.47451,0.99965
7452.54579,0.99371
7450.61708,0.98577
7448.68837,0.98457
7446.75966,0.98653
7444.83094,0.98438
7442.90223,0.98222
7440.97352,0.98899
7439.04481,0.99641
7437.11609,0.98982
7435.18738,0.97937
7433.25867,0.98076
7431.32996,0.98562
7429.40124,0.98402
7427.47253,0.98315
7425.54382,0.98866
7423.61510,0.99579
7421.68639,0.99860
7419.75768,0.99412
7417.82897,0.98421
7415.90025,0.97837
7413.97154,0.97980
7412.04283,0.98296
7410.11412,0.98696
7408.18540,0.98764
7406.25669,0.98008
7404.32798,0.97447
7402.39927,0.97718
7400.47055,0.97922
7398.54184,0.97728
7396.61313,0.97649
7394.68441,0.98062
7392.75570,0.98959
7390.82699,0.99334
7388.89828,0.98614
7386.96956,0.97864
7385.04085,0.97596
7383.11214,0.97214
7381.18343,0.96663
7379.25471,0.96705
7377.32600,0.97360
7375.39729,0.97725
7373.46857,0.97832
7371.53986,0.98125
7369.61115,0.97955
7367.68244,0.97140
7365.75372,0.96470
7363.82501,0.96275
7361.89630,0.96485
7359.96759,0.96852
7358.03887,0.97016
7356.11016,0.97111
7354.18145,0.97533
7352.25274,0.97891
7350.32402,0.97895
7348.39531,0.97902
7346.46660,0.97211
7344.53788,0.95531
7342.60917,0.94843
7340.68046,0.96186
7338.75175,0.97839
7336.82303,0.98385
7334.89432,0.97875
7332.96561,0.96825
7331.03690,0.96080
7329.10818,0.96007
7327.17947,0.96340
7325.25076,0.96563
7323.32205,0.96645
7321.39333,0.97195
7319.46462,0.97999
7317.53591,0.98190
7315.60719,0.97765
7313.67848,0.97409
7311.74977,0.97240
7309.82106,0.96934
7307.89234,0.96704
7305.96363,0.97049
7304.03492,0.98014
7302.10621,0.98775
7300.17749,0.98581
7298.24878,0.97719
7296.32007,0.96483
7294.39136,0.95375
7292.46264,0.95392
7290.53393,0.96000
7288.60522,0.96265
7286.67650,0.96273
7284.74779,0.96226
7282.81908,0.96395
7280.89037,0.97056
7278.96165,0.97655
7277.03294,0.97475
7275.10423,0.96909
7273.17552,0.96584
7271.24680,0.96205
7269.31809,0.95818
7267.38938,0.96306
7265.46066,0.97367
7263.53195,0.97578
7261.60324,0.97019
7259.67453,0.96911
7257.74581,0.97183
7255.81710,0.96931
7253.88839,0.96054
7251.95968,0.95411
7250.03096,0.95618
7248.10225,0.95980
7246.17354,0.95630
7244.24483,0.95106
7242.31611,0.95338
7240.38740,0.96074
7238.45869,0.96928
7236.52997,0.97528
7234.60126,0.96950
7232.67255,0.95433
7230.74384,0.94953
7228.81512,0.95908
7226.88641,0.96521
7224.95770,0.95972
7223.02899,0.95309
7221.10027,0.95230
7219.17156,0.95443
7217.24285,0.95592
7215.31414,0.95543
7213.38542,0.95467
7211.45671,0.95831
7209.52800,0.96820
7207.59928,0.97476
7205.67057,0.97119
7203.74186,0.96773
7201.81315,0.96770
7199.88443,0.96279
7197.95572,0.95667
7196.02701,0.95904
7194.09830,0.96845
7192.16958,0.97533
7190.24087,0.97424
7188.31216,0.96630
7186.38344,0.95819
7184.45473,0.95336
7182.52602,0.95022
7180.59731,0.95171
7178.66859,0.95680
7176.73988,0.96060
7174.81117,0.96394
7172.88246,0.96483
7170.95374,0.96235
7169.02503,0.96252
7167.09632,0.96312
7165.16761,0.95803
7163.23889,0.95454
7161.31018,0.95792
7159.38147,0.96269
7157.45275,0.96756
7155.52404,0.97369
7153.59533,0.97414
7151.66662,0.96350
7149.73790,0.95200
7147.80919,0.95127
7145.88048,0.95669
7143.95177,0.95780
7142.02305,0.95417
7140.09434,0.95583
7138.16563,0.96614
7136.23692,0.97176
7134.30820,0.96715
7132.37949,0.96420
7130.45078,0.96688
7128.52206,0.96518
7126.59335,0.95889
7124.66464,0.95870
7122.73593,0.96188
7120.80721,0.95892
7118.87850,0.95276
7116.94979,0.95156
7115.02108,0.95517
7113.09236,0.95721
7111.16365,0.95667
7109.23494,0.95636
7107.30623,0.95557
7105.37751,0.95533
7103.44880,0.95735
7101.52009,0.95841
7099.59137,0.95766
7097.66266,0.95913
7095.73395,0.96186
7093.80524,0.95982
7091.87652,0.95621
7089.94781,0.95453
7088.01910,0.95159
7086.09039,0.95029
7084.16167,0.95488
7082.23296,0.96384
7080.30425,0.97097
7078.37553,0.97035
7076.44682,0.96405
7074.51811,0.95642
7072.58940,0.95046
7070.66068,0.94828
7068.73197,0.95092
7066.80326,0.95729
7064.87455,0.96048
7062.94583,0.95757
7061.01712,0.95450
7059.08841,0.95334
7057.15970,0.95408
7055.23098,0.95838
7053.30227,0.95929
7051.37356,0.95353
7049.44484,0.95243
7047.51613,0.95900
7045.58742,0.96398
7043.65871,0.96545
7041.72999,0.96625
7039.80128,0.96499
7037.87257,0.96221
7035.94386,0.96198
7034.01514,0.96393
7032.08643,0.96453
7030.15772,0.96385
7028.22901,0.96360
7026.30029,0.96180
7024.37158,0.95738
7022.44287,0.95459
7020.51415,0.95479
7018.58544,0.95585
7016.65673,0.95801
7014.72802,0.96086
7012.79930,0.96162
7010.87059,0.95990
7008.94188,0.95942
7007.01317,0.96130
7005.08445,0.96206
7003.15574,0.96057
7001.22703,0.96021
6999.29832,0.96297
6997.36960,0.96589
6995.44089,0.96589
6993.51218,0.96392
6991.58346,0.96232
6989.65475,0.96143
6987.72604,0.96008
6985.79733,0.95861
6983.86861,0.96015
6981.93990,0.96451
6980.01119,0.96516
6978.08248,0.96184
6976.15376,0.96188
6974.22505,0.96358
6972.29634,0.96044
6970.36762,0.95659
6968.43891,0.95649
6966.51020,0.95628
6964.58149,0.95678
6962.65277,0.96216
6960.72406,0.96841
6958.79535,0.97115
6956.86664,0.97142
6954.93792,0.96804
6953.00921,0.96133
6951.08050,0.95848
6949.15179,0.96243
6947.22307,0.96755
6945.29436,0.97056
6943.36565,0.97335
6941.43693,0.97473
6939.50822,0.97175
6937.57951,0.96743
6935.65080,0.96697
6933.72208,0.96862
6931.79337,0.96748
6929.86466,0.96512
6927.93595,0.96417
6926.00723,0.96382
6924.07852,0.96627
6922.14981,0.97029
6920.22110,0.96793
6918.29238,0.96033
6916.36367,0.95773
6914.43496,0.96037
6912.50624,0.96119
6910.57753,0.96188
6908.64882,0.96544
6906.72011,0.96796
6904.79139,0.96694
6902.86268,0.96520
6900.93397,0.96704
6899.00526,0.97186
6897.07654,0.97457
6895.14783,0.97417
6893.21912,0.97284
6891.29040,0.97087
6889.36169,0.97140
6887.43298,0.97639
6885.50427,0.97966
6883.57555,0.97656
6881.64684,0.96919
6879.71813,0.96261
6877.78942,0.96110
6875.86070,0.96281
6873.93199,0.96340
6872.00328,0.96411
6870.07457,0.96751
6868.14585,0.96828
6866.21714,0.96308
6864.28843,0.95946
6862.35971,0.95957
6860.43100,0.95897
6858.50229,0.96066
6856.57358,0.96604
6854.64486,0.96905
6852.71615,0.96896
6850.78744,0.96944
6848.85873,0.97165
6846.93001,0.97639
6845.00130,0.98114
6843.07259,0.98340
6841.14388,0.98301
6839.21516,0.97748
6837.28645,0.97026
6835.35774,0.96861
6833.42902,0.97225
6831.50031,0.97687
6829.57160,0.97764
6827.64289,0.97286
6825.71417,0.96852
6823.78546,0.96833
6821.85675,0.96684
6819.92804,0.96279
6817.99932,0.96237
6816.07061,0.96671
6814.14190,0.97328
6812.21319,0.97780
6810.28447,0.97679
6808.35576,0.97515
6806.42705,0.97473
6804.49833,0.97035
6802.56962,0.96560
6800.64091,0.96750
6798.71220,0.97300
6796.78348,0.97786
6794.85477,0.98132
6792.92606,0.98091
6790.99735,0.97753
6789.06863,0.97507
6787.13992,0.97301
6785.21121,0.96963
6783.28249,0.96841
6781.35378,0.97165
6779.42507,0.97463
6777.49636,0.97452
6775.56764,0.97196
6773.63893,0.96786
6771.71022,0.96511
6769.78151,0.96497
6767.85279,0.96781
6765.92408,0.97236
6763.99537,0.97383
6762.06666,0.97320
6760.13794,0.97489
6758.20923,0.97662
6756.28052,0.97607
6754.35180,0.97568
6752.42309,0.97398
6750.49438,0.96922
6748.56567,0.96589
6746.63695,0.96700
6744.70824,0.97122
6742.77953,0.97470
6740.85082,0.97341
6738.92210,0.97075
6736.99339,0.97238
6735.06468,0.97477
6733.13597,0.97272
6731.20725,0.96976
6729.27854,0.97070
6727.34983,0.97459
6725.42111,0.97783
6723.49240,0.97792
6721.56369,0.97585
6719.63498,0.97502
6717.70626,0.97688
6715.77755,0.97920
6713.84884,0.98011
6711.92013,0.98009
6709.99141,0.97966
6708.06270,0.97863
6706.13399,0.97688
6704.20528,0.97640
6702.27656,0.97889
6700.34785,0.98233
6698.41914,0.98363
6696.49042,0.98080
6694.56171,0.97542
6692.63300,0.97244
6690.70429,0.97359
6688.77557,0.97589
6686.84686,0.97724
6684.91815,0.97882
6682.98944,0.98068
6681.06072,0.97983
6679.13201,0.97660
6677.20330,0.97531
6675.27458,0.97591
6673.34587,0.97629
6671.41716,0.97811
6669.48845,0.97967
6667.55973,0.97773
6665.63102,0.97500
6663.70231,0.97415
6661.77360,0.97519
6659.84488,0.97632
6657.91617,0.97458
6655.98746,0.97109
6654.05875,0.96918
6652.13003,0.97001
6650.20132,0.97247
6648.27261,0.97656
6646.34389,0.98248
6644.41518,0.98621
6642.48647,0.98498
6640.55776,0.98009
6638.62904,0.97554
6636.70033,0.97667
6634.77162,0.98027
6632.84291,0.97882
6630.91419,0.97448
6628.98548,0.97275
6627.05677,0.97459
6625.12806,0.97874
6623.19934,0.98072
6621.27063,0.97801
6619.34192,0.97521
6617.41320,0.97569
6615.48449,0.97703
6613.55578,0.97666
6611.62707,0.97570
6609.69835,0.97519
6607.76964,0.97435
6605.84093,0.97374
6603.91222,0.97233
6601.98350,0.96979
6600.05479,0.96998
6598.12608,0.97289
6596.19736,0.97561
6594.26865,0.97802
6592.33994,0.97932
6590.41123,0.97760
6588.48251,0.97382
6586.55380,0.97142
6584.62509,0.97129
6582.69638,0.97143
6580.76766,0.97129
6578.83895,0.97252
6576.91024,0.97800
6574.98153,0.98563
6573.05281,0.98727
6571.12410,0.98321
6569.19539,0.98137
6567.26667,0.98127
6565.33796,0.97745
6563.40925,0.97192
6561.48054,0.97184
6559.55182,0.97603
6557.62311,0.97639
6555.69440,0.97326
6553.76569,0.97155
6551.83697,0.97229
6549.90826,0.97595
6547.97955,0.98077
6546.05084,0.98269
6544.12212,0.98265
6542.19341,0.98455
6540.26470,0.98747
6538.33598,0.98859
6536.40727,0.98705
6534.47856,0.98286
6532.54985,0.97848
6530.62113,0.97651
6528.69242,0.97655
6526.76371,0.97770
6524.83500,0.98002
6522.90628,0.98218
6520.97757,0.98184
6519.04886,0.98037
6517.12015,0.97996
6515.19143,0.97986
6513.26272,0.97934
6511.33401,0.97769
6509.40529,0.97611
6507.47658,0.97764
6505.54787,0.98088
6503.61916,0.98278
6501.69044,0.98392
6499.76173,0.98411
6497.83302,0.98148
6495.90431,0.97780
6493.97559,0.97648
6492.04688,0.97827
6490.11817,0.98255
6488.18945,0.98537
6486.26074,0.98267
6484.33203,0.97869
6482.40332,0.97765
6480.47460,0.97795
6478.54589,0.97865
6476.61718,0.97866
6474.68847,0.97836
6472.75975,0.98018
6470.83104,0.98166
6468.90233,0.98018
6466.97362,0.97919
6465.04490,0.98048
6463.11619,0.98127
6461.18748,0.98064
6459.25876,0.97986
6457.33005,0.97959
6455.40134,0.98083
6453.47263,0.98306
6451.54391,0.98242
6449.61520,0.97831
6447.68649,0.97587
6445.75778,0.97747
6443.82906,0.98174
6441.90035,0.98698
6439.97164,0.98958
6438.04293,0.98677
6436.11421,0.98174
6434.18550,0.98047
6432.25679,0.98275
6430.32807,0.98380
6428.39936,0.98374
6426.47065,0.98568
6424.54194,0.98796
6422.61322,0.98595
6420.68451,0.98178
6418.75580,0.98194
6416.82709,0.98585
6414.89837,0.98836
6412.96966,0.98761
6411.04095,0.98508
6409.11224,0.98339
6407.18352,0.98326
6405.25481,0.98275
6403.32610,0.98238
6401.39738,0.98377
6399.46867,0.98303
6397.53996,0.97942
6395.61125,0.97983
6393.68253,0.98480
6391.75382,0.98718
6389.82511,0.98404
6387.89640,0.97995
6385.96768,0.97998
6384.03897,0.98281
6382.11026,0.98442
6380.18154,0.98338
6378.25283,0.97990
6376.32412,0.97610
6374.39541,0.97452
6372.46669,0.97541
6370.53798,0.97669
6368.60927,0.97564
6366.68056,0.97293
6364.75184,0.97221
6362.82313,0.97397
6360.89442,0.97537
6358.96571,0.97597
6357.03699,0.97679
6355.10828,0.97766
6353.17957,0.97850
6351.25085,0.97831
6349.32214,0.97708
6347.39343,0.97700
6345.46472,0.97802
6343.53600,0.97849
6341.60729,0.97861
6339.67858,0.97955
6337.74987,0.98106
6335.82115,0.98135
6333.89244,0.97947
6331.96373,0.97703
6330.03502,0.97559
6328.10630,0.97619
6326.17759,0.98026
6324.24888,0.98470
6322.32016,0.98602
6320.39145,0.98653
6318.46274,0.98790
6316.53403,0.98820
6314.60531,0.98540
6312.67660,0.98107
6310.74789,0.97897
6308.81918,0.97911
6306.89046,0.97987
6304.96175,0.98086
6303.03304,0.98091
6301.10432,0.98030
6299.17561,0.98114
6297.24690,0.98295
6295.31819,0.98403
6293.38947,0.98472
6291.46076,0.98452
6289.53205,0.98290
6287.60334,0.98191
6285.67462,0.98190
6283.74591,0.98157
6281.81720,0.98118
6279.88849,0.98088
6277.95977,0.98094
6276.03106,0.98208
6274.10235,0.98307
6272.17363,0.98224
6270.24492,0.98074
6268.31621,0.98037
6266.38750,0.97967
6264.45878,0.97728
6262.53007,0.97537
6260.60136,0.97499
6258.67265,0.97500
6256.74393,0.97598
6254.81522,0.97883
6252.88651,0.98198
6250.95780,0.98487
6249.02908,0.98737
6247.10037,0.98531
6245.17166,0.97819
6243.24294,0.97285
6241.31423,0.97362
6239.38552,0.97817
6237.45681,0.98173
6235.52809,0.98205
6233.59938,0.98052
6231.67067,0.97918
6229.74196,0.97847
6227.81324,0.97743
6225.88453,0.97609
6223.95582,0.97659
6222.02711,0.98012
6220.09839,0.98425
6218.16968,0.98606
6216.24097,0.98541
6214.31225,0.98359
6212.38354,0.98170
6210.45483,0.98034
6208.52612,0.98030
6206.59740,0.98093
6204.66869,0.98020
6202.73998,0.97912
6200.81127,0.98012
6198.88255,0.98208
6196.95384,0.98344
6195.02513,0.98376
6193.09641,0.98220
6191.16770,0.97907
6189.23899,0.97574
6187.31028,0.97453
6185.38156,0.97622
6183.45285,0.97742
6181.52414,0.97715
6179.59543,0.97730
6177.66671,0.97736
6175.73800,0.97620
6173.80929,0.97416
6171.88058,0.97419
6169.95186,0.97785
6168.02315,0.97973
6166.09444,0.97735
6164.16572,0.97637
6162.23701,0.97760
6160.30830,0.97701
6158.37959,0.97534
6156.45087,0.97435
6154.52216,0.97457
6152.59345,0.97660
6150.66474,0.97799
6148.73602,0.97714
6146.80731,0.97619
6144.87860,0.97586
6142.94989,0.97442
6141.02117,0.97218
6139.09246,0.97189
6137.16375,0.97355
6135.23503,0.97358
6133.30632,0.97134
6131.37761,0.97019
6129.44890,0.97148
6127.52018,0.97321
6125.59147,0.97396
6123.66276,0.97388
6121.73405,0.97317
6119.80533,0.97209
6117.87662,0.97175
6115.94791,0.97288
6114.01919,0.97360
6112.09048,0.97214
6110.16177,0.97017
6108.23306,0.96870
6106.30434,0.96672
6104.37563,0.96578
6102.44692,0.96752
6100.51821,0.96879
6098.58949,0.96693
6096.66078,0.96505
6094.73207,0.96639
6092.80336,0.96873
6090.87464,0.96821
6088.94593,0.96478
6087.01722,0.96176
6085.08850,0.96126
6083.15979,0.96173
6081.23108,0.96063
6079.30237,0.95823
6077.37365,0.95742
6075.44494,0.95987
6073.51623,0.96378
6071.58752,0.96522
6069.65880,0.96170
6067.73009,0.95627
6065.80138,0.95360
6063.87267,0.95353
6061.94395,0.95330
6060.01524,0.95121
6058.08653,0.94794
6056.15781,0.94607
6054.22910,0.94671
6052.30039,0.94788
6050.37168,0.94680
6048.44296,0.94382
6046.51425,0.94124
6044.58554,0.94010
6042.65683,0.94042
6040.72811,0.94083
6038.79940,0.93994
6036.87069,0.93886
6034.94198,0.93835
6033.01326,0.93674
6031.08455,0.93396
6029.15584,0.93218
6027.22712,0.93186
6025.29841,0.93151
6023.36970,0.93016
6021.44099,0.92827
6019.51227,0.92711
6017.58356,0.92756
6015.65485,0.92877
6013.72614,0.92894
6011.79742,0.92784
6009.86871,0.92718
6007.94000,0.92818
6006.01128,0.93024
6004.08257,0.93208
6002.15386,0.93317
6000.22515,0.93504
5998.29643,0.93863
5996.36772,0.94162
5994.43901,0.94204
5992.51030,0.94076
5990.58158,0.93975
5988.65287,0.94028
5986.72416,0.94164
5984.79545,0.94318
5982.86673,0.94443
5980.93802,0.94451
5979.00931,0.94544
5977.08059,0.94881
5975.15188,0.95123
5973.22317,0.95053
5971.29446,0.94894
5969.36574,0.94794
5967.43703,0.94630
5965.50832,0.94388
5963.57961,0.94251
5961.65089,0.94331
5959.72218,0.94607
5957.79347,0.94896
5955.86476,0.94974
5953.93604,0.94747
5952.00733,0.94286
5950.07862,0.93854
5948.14990,0.93635
5946.22119,0.93582
5944.29248,0.93582
5942.36377,0.93512
5940.43505,0.93322
5938.50634,0.93117
5936.57763,0.93034
5934.64892,0.92979
5932.72020,0.92753
5930.79149,0.92395
5928.86278,0.92074
5926.93407,0.91868
5925.00535,0.91769
5923.07664,0.91718
5921.14793,0.91601
5919.21921,0.91435
5917.29050,0.91246
5915.36179,0.90950
5913.43308,0.90654
5911.50436,0.90459
5909.57565,0.90264
5907.64694,0.90004
5905.71823,0.89734
5903.78951,0.89542
5901.86080,0.89383
5899.93209,0.89114
5898.00337,0.88682
5896.07466,0.88298
5894.14595,0.88131
5892.21724,0.87958
5890.28852,0.87617
5888.35981,0.87179
5886.43110,0.86707
5884.50239,0.86258
5882.57367,0.85874
5880.64496,0.85583
5878.71625,0.85306
5876.78754,0.84983
5874.85882,0.84791
5872.93011,0.84773
5871.00140,0.84642
5869.07268,0.84330
5867.14397,0.84081
5865.21526,0.83932
5863.28655,0.83675
5861.35783,0.83193
5859.42912,0.82658
5857.50041,0.82265
5855.57170,0.81882
5853.64298,0.81391
5851.71427,0.80887
5849.78556,0.80439
5847.85685,0.80049
5845.92813,0.79632
5843.99942,0.79096
5842.07071,0.78590
5840.14199,0.78209
5838.21328,0.77777
5836.28457,0.77250
5834.35586,0.76786
5832.42714,0.76457
5830.49843,0.76212
5828.56972,0.75997
5826.64101,0.75874
5824.71229,0.76008
5822.78358,0.76335
5820.85487,0.76566
5818.92615,0.76723
5816.99744,0.77109
5815.06873,0.77707
5813.14002,0.78253
5811.21130,0.78669
5809.28259,0.79108
5807.35388,0.79677
5805.42517,0.80245
5803.49645,0.80733
5801.56774,0.81205
5799.63903,0.81618
5797.71032,0.81986
5795.78160,0.82358
5793.85289,0.82638
5791.92418,0.82882
5789.99546,0.83257
5788.06675,0.83666
5786.13804,0.83931
5784.20933,0.84195
5782.28061,0.84683
5780.35190,0.85207
5778.42319,0.85471
5776.49448,0.85548
5774.56576,0.85721
5772.63705,0.86081
5770.70834,0.86399
5768.77963,0.86509
5766.85091,0.86467
5764.92220,0.86373
5762.99349,0.86366
5761.06477,0.86404
5759.13606,0.86331
5757.20735,0.86258
5755.27864,0.86337
5753.34992,0.86468
5751.42121,0.86496
5749.49250,0.86457
5747.56379,0.86437
5745.63507,0.86328
5743.70636,0.86065
5741.77765,0.85844
5739.84894,0.85775
5737.92022,0.85765
5735.99151,0.85776
5734.06280,0.85753
5732.13408,0.85625
5730.20537,0.85471
5728.27666,0.85406
5726.34795,0.85507
5724.41923,0.85789
5722.49052,0.86065
5720.56181,0.86150
5718.63310,0.86130
5716.70438,0.86071
5714.77567,0.85905
5712.84696,0.85823
5710.91824,0.85977
5708.98953,0.86070
5707.06082,0.85931
5705.13211,0.85814
5703.20339,0.85804
5701.27468,0.85715
5699.34597,0.85645
5697.41726,0.85852
5695.48854,0.86269
5693.55983,0.86604
5691.63112,0.86659
5689.70241,0.86582
5687.77369,0.86667
5685.84498,0.86875
5683.91627,0.87012
5681.98755,0.87150
5680.05884,0.87407
5678.13013,0.87630
5676.20142,0.87712
5674.27270,0.87839
5672.34399,0.88069
5670.41528,0.88224
5668.48657,0.88250
5666.55785,0.88260
5664.62914,0.88314
5662.70043,0.88386
5660.77172,0.88482
5658.84300,0.88561
5656.91429,0.88551
5654.98558,0.88535
5653.05686,0.88616
5651.12815,0.88767
5649.19944,0.88874
5647.27073,0.88933
5645.34201,0.89057
5643.41330,0.89180
5641.48459,0.89202
5639.55588,0.89270
5637.62716,0.89452
5635.69845,0.89574
5633.76974,0.89555
5631.84103,0.89539
5629.91231,0.89655
5627.98360,0.89807
5626.05489,0.89866
5624.12617,0.89950
5622.19746,0.90178
5620.26875,0.90389
5618.34004,0.90467
5616.41132,0.90535
5614.48261,0.90669
5612.55390,0.90758
5610.62519,0.90715
5608.69647,0.90608
5606.76776,0.90530
5604.83905,0.90577
5602.91033,0.90730
5600.98162,0.90865
5599.05291,0.91004
5597.12420,0.91164
5595.19548,0.91243
5593.26677,0.91267
5591.33806,0.91268
5589.40935,0.91216
5587.48063,0.91191
5585.55192,0.91310
5583.62321,0.91526
5581.69450,0.91635
5579.76578,0.91558
5577.83707,0.91469
5575.90836,0.91543
5573.97964,0.91715
5572.05093,0.91784
5570.12222,0.91728
5568.19351,0.91653
5566.26479,0.91663
5564.33608,0.91847
5562.40737,0.92092
5560.47866,0.92185
5558.54994,0.92117
5556.62123,0.92103
5554.69252,0.92239
5552.76381,0.92305
5550.83509,0.92193
5548.90638,0.92082
5546.97767,0.92127
5545.04895,0.92288
5543.12024,0.92395
5541.19153,0.92411
5539.26282,0.92394
5537.33410,0.92336
5535.40539,0.92286
5533.47668,0.92305
5531.54797,0.92307
5529.61925,0.92246
5527.69054,0.92277
5525.76183,0.92434
5523.83311,0.92473
5521.90440,0.92331
5519.97569,0.92254
5518.04698,0.92322
5516.11826,0.92404
5514.18955,0.92417
5512.26084,0.92354
5510.33213,0.92259
5508.40341,0.92234
5506.47470,0.92354
5504.54599,0.92493
5502.61728,0.92471
5500.68856,0.92339
5498.75985,0.92275
5496.83114,0.92288
5494.90242,0.92202
5492.97371,0.92029
5491.04500,0.92039
5489.11629,0.92208
5487.18757,0.92267
5485.25886,0.92194
5483.33015,0.92161
5481.40144,0.92180
5479.47272,0.92123
5477.54401,0.91963
5475.61530,0.91827
5473.68659,0.91886
5471.75787,0.92005
5469.82916,0.92008
5467.90045,0.92039
5465.97173,0.92149
5464.04302,0.92125
5462.11431,0.91942
5460.18560,0.91872
5458.25688,0.92039
5456.32817,0.92268
5454.39946,0.92446
5452.47075,0.92513
5450.54203,0.92409
5448.61332,0.92185
5446.68461,0.92015
5444.75590,0.92028
5442.82718,0.92119
5440.89847,0.92312
5438.96976,0.92667
5437.04104,0.92825
5435.11233,0.92649
5433.18362,0.92443
5431.25491,0.92283
5429.32619,0.92185
5427.39748,0.92473
5425.46877,0.92982
5423.54006,0.93242
5421.61134,0.93272
5419.68263,0.93292
5417.75392,0.93260
5415.82520,0.93026
5413.89649,0.92663
5411.96778,0.92456
5410.03907,0.92536
5408.11035,0.92839
5406.18164,0.93118
5404.25293,0.93260
5402.32422,0.93449
5400.39550,0.93606
5398.46679,0.93502
5396.53808,0.93223
5394.60937,0.93022
5392.68065,0.93136
5390.75194,0.93463
5388.82323,0.93572
5386.89451,0.93328
5384.96580,0.93135
5383.03709,0.93358
5381.10838,0.93673
5379.17966,0.93569
5377.25095,0.93165
5375.32224,0.93161
5373.39353,0.93681
5371.46481,0.94113
5369.53610,0.94156
5367.60739,0.94047
5365.67868,0.93984
5363.74996,0.93982
5361.82125,0.94097
5359.89254,0.94252
5357.96382,0.94247
5356.03511,0.93978
5354.10640,0.93636
5352.17769,0.93561
5350.24897,0.93669
5348.32026,0.93674
5346.39155,0.93481
5344.46284,0.93395
5342.53412,0.93627
5340.60541,0.93655
5338.67670,0.93387
5336.74799,0.93477
5334.81927,0.93853
5332.89056,0.93978
5330.96185,0.93921
5329.03313,0.93893
5327.10442,0.93977
5325.17571,0.94221
5323.24700,0.94427
5321.31828,0.94442
5319.38957,0.94377
5317.46086,0.94395
5315.53215,0.94511
5313.60343,0.94604
5311.67472,0.94613
5309.74601,0.94607
5307.81729,0.94649
5305.88858,0.94701
5303.95987,0.94714
5302.03116,0.94686
5300.10244,0.94646
5298.17373,0.94639
5296.24502,0.94670
5294.31631,0.94723
5292.38759,0.94703
5290.45888,0.94607
5288.53017,0.94598
5286.60146,0.94617
5284.67274,0.94560
5282.74403,0.94472
5280.81532,0.94395
5278.88660,0.94402
5276.95789,0.94463
5275.02918,0.94518
5273.10047,0.94596
5271.17175,0.94563
5269.24304,0.94342
5267.31433,0.94063
5265.38562,0.93790
5263.45690,0.93697
5261.52819,0.93946
5259.59948,0.94232
5257.67077,0.94219
5255.74205,0.94008
5253.81334,0.93974
5251.88463,0.94063
5249.95591,0.93956
5248.02720,0.93806
5246.09849,0.93931
5244.16978,0.94243
5242.24106,0.94497
5240.31235,0.94587
5238.38364,0.94574
5236.45493,0.94555
5234.52621,0.94509
5232.59750,0.94389
5230.66879,0.94293
5228.74007,0.94241
5226.81136,0.94152
5224.88265,0.94192
5222.95394,0.94431
5221.02522,0.94548
5219.09651,0.94466
5217.16780,0.94449
5215.23909,0.94590
5213.31037,0.94725
5211.38166,0.94695
5209.45295,0.94449
5207.52424,0.94121
5205.59552,0.94080
5203.66681,0.94430
5201.73810,0.94757
5199.80938,0.94713
5197.88067,0.94447
5195.95196,0.94422
5194.02325,0.94699
5192.09453,0.94897
5190.16582,0.94851
5188.23711,0.94693
5186.30840,0.94578
5184.37968,0.94595
5182.45097,0.94691
5180.52226,0.94735
5178.59355,0.94672
5176.66483,0.94610
5174.73612,0.94655
5172.80741,0.94690
5170.87869,0.94646
5168.94998,0.94622
5167.02127,0.94620
5165.09256,0.94611
5163.16384,0.94614
5161.23513,0.94631
5159.30642,0.94639
5157.37771,0.94626
5155.44899,0.94636
5153.52028,0.94682
5151.59157,0.94710
5149.66286,0.94697
5147.73414,0.94669
5145.80543,0.94658
5143.87672,0.94661
5141.94800,0.94693
5140.01929,0.94788
5138.09058,0.94955
5136.16187,0.95116
5134.23315,0.95106
5132.30444,0.94921
5130.37573,0.94731
5128.44702,0.94643
5126.51830,0.94662
5124.58959,0.94677
5122.66088,0.94600
5120.73216,0.94518
5118.80345,0.94541
5116.87474,0.94634
5114.94603,0.94706
5113.01731,0.94737
5111.08860,0.94720
5109.15989,0.94670
5107.23118,0.94669
5105.30246,0.94723
5103.37375,0.94740
5101.44504,0.94707
5099.51633,0.94683
5097.58761,0.94691
5095.65890,0.94730
5093.73019,0.94781
5091.80147,0.94815
5089.87276,0.94865
5087.94405,0.94951
5086.01534,0.95029
5084.08662,0.95084
5082.15791,0.95104
5080.22920,0.95051
5078.30049,0.94951
5076.37177,0.94902
5074.44306,0.94916
5072.51435,0.94902
5070.58564,0.94847
5068.65692,0.94858
5066.72821,0.94982
5064.79950,0.95105
5062.87078,0.95104
5060.94207,0.95040
5059.01336,0.95039
5057.08465,0.95115
5055.15593,0.95194
5053.22722,0.95171
5051.29851,0.95061
5049.36980,0.95021
5047.44108,0.95120
5045.51237,0.95247
5043.58366,0.95309
5041.65495,0.95316
5039.72623,0.95269
5037.79752,0.95163
5035.86881,0.95090
5033.94009,0.95127
5032.01138,0.95208
5030.08267,0.95231
5028.15396,0.95206
5026.22524,0.95187
5024.29653,0.95196
5022.36782,0.95245
5020.43911,0.95316
5018.51039,0.95379
5016.58168,0.95417
5014.65297,0.95428
5012.72425,0.95438
5010.79554,0.95446
5008.86683,0.95414
5006.93812,0.95361
5005.00940,0.95327
5003.08069,0.95301
5001.15198,0.95254
4999.22327,0.95212
4997.29455,0.95214
4995.36584,0.95263
4993.43713,0.95326
4991.50842,0.95368
4989.57970,0.95371
4987.65099,0.95345
4985.72228,0.95340
4983.79356,0.95388
4981.86485,0.95414
4979.93614,0.95357
4978.00743,0.95300
4976.07871,0.95327
4974.15000,0.95389
4972.22129,0.95443
4970.29258,0.95463
4968.36386,0.95366
4966.43515,0.95266
4964.50644,0.95341
4962.57773,0.95463
4960.64901,0.95450
4958.72030,0.95411
4956.79159,0.95442
4954.86287,0.95430
4952.93416,0.95374
4951.00545,0.95391
4949.07674,0.95403
4947.14802,0.95351
4945.21931,0.95355
4943.29060,0.95456
4941.36189,0.95569
4939.43317,0.95620
4937.50446,0.95607
4935.57575,0.95567
4933.64703,0.95510
4931.71832,0.95455
4929.78961,0.95426
4927.86090,0.95434
4925.93218,0.95494
4924.00347,0.95546
4922.07476,0.95486
4920.14605,0.95345
4918.21733,0.95264
4916.28862,0.95291
4914.35991,0.95335
4912.43120,0.95335
4910.50248,0.95331
4908.57377,0.95341
4906.64506,0.95364
4904.71634,0.95412
4902.78763,0.95447
4900.85892,0.95440
4898.93021,0.95423
4897.00149,0.95385
4895.07278,0.95318
4893.14407,0.95274
4891.21536,0.95246
4889.28664,0.95215
4887.35793,0.95262
4885.42922,0.95364
4883.50051,0.95382
4881.57179,0.95362
4879.64308,0.95427
4877.71437,0.95509
4875.78565,0.95523
4873.85694,0.95483
4871.92823,0.95406
4869.99952,0.95326
4868.07080,0.95290
4866.14209,0.95294
4864.21338,0.95338
4862.28467,0.95412
4860.35595,0.95438
4858.42724,0.95414
4856.49853,0.95404
4854.56982,0.95397
4852.64110,0.95381
4850.71239,0.95402
4848.78368,0.95423
4846.85496,0.95384
4844.92625,0.95325
4842.99754,0.95315
4841.06883,0.95375
4839.14011,0.95450
4837.21140,0.95468
4835.28269,0.95444
4833.35398,0.95393
4831.42526,0.95338
4829.49655,0.95332
4827.56784,0.95341
4825.63912,0.95319
4823.71041,0.95305
4821.78170,0.95318
4819.85299,0.95320
4817.92427,0.95315
4815.99556,0.95318
4814.06685,0.95331
4812.13814,0.95358
4810.20942,0.95375
4808.28071,0.95344
4806.35200,0.95252
4804.42329,0.95176
4802.49457,0.95157
4800.56586,0.95136
4798.63715,0.95141
4796.70843,0.95154
4794.77972,0.95075
4792.85101,0.94974
4790.92230,0.94946
4788.99358,0.94973
4787.06487,0.94999
4785.13616,0.95000
4783.20745,0.95042
4781.27873,0.95114
4779.35002,0.95122
4777.42131,0.95116
4775.49260,0.95153
4773.56388,0.95174
4771.63517,0.95158
4769.70646,0.95110
4767.77774,0.95015
4765.84903,0.94979
4763.92032,0.95101
4761.99161,0.95253
4760.06289,0.95286
4758.13418,0.95253
4756.20547,0.95248
4754.27676,0.95238
4752.34804,0.95175
4750.41933,0.95087
4748.49062,0.95014
4746.56191,0.94978
4744.63319,0.94987
4742.70448,0.94980
4740.77577,0.94918
4738.84705,0.94851
4736.91834,0.94835
4734.98963,0.94850
4733.06092,0.94808
4731.13220,0.94684
4729.20349,0.94552
4727.27478,0.94442
4725.34607,0.94315
4723.41735,0.94115
4721.48864,0.93864
4719.55993,0.93672
4717.63121,0.93580
4715.70250,0.93522
4713.77379,0.93458
4711.84508,0.93406
4709.91636,0.93348
4707.98765,0.93277
4706.05894,0.93229
4704.13023,0.93169
4702.20151,0.93034
4700.27280,0.92834
4698.34409,0.92594
4696.41538,0.92314
4694.48666,0.91975
4692.55795,0.91583
4690.62924,0.91243
4688.70052,0.91068
4686.77181,0.91047
4684.84310,0.91087
4682.91439,0.91177
4680.98567,0.91356
4679.05696,0.91544
4677.12825,0.91653
4675.19954,0.91752
4673.27082,0.91925
4671.34211,0.92120
4669.41340,0.92279
4667.48469,0.92421
4665.55597,0.92536
4663.62726,0.92569
4661.69855,0.92550
4659.76983,0.92570
4657.84112,0.92640
4655.91241,0.92704
4653.98370,0.92717
4652.05498,0.92678
4650.12627,0.92635
4648.19756,0.92597
4646.26885,0.92509
4644.34013,0.92365
4642.41142,0.92193
4640.48271,0.91985
4638.55399,0.91736
4636.62528,0.91482
4634.69657,0.91269
4632.76786,0.91115
4630.83914,0.91080
4628.91043,0.91193
4626.98172,0.91368
4625.05301,0.91585
4623.12429,0.91894
4621.19558,0.92235
4619.26687,0.92542
4617.33816,0.92825
4615.40944,0.93052
4613.48073,0.93174
4611.55202,0.93230
4609.62330,0.93324
4607.69459,0.93509
4605.76588,0.93684
4603.83717,0.93719
4601.90845,0.93654
4599.97974,0.93580
4598.05103,0.93511
4596.12232,0.93452
4594.19360,0.93408
4592.26489,0.93366
4590.33618,0.93320
4588.40747,0.93225
4586.47875,0.93086
4584.55004,0.93013
4582.62133,0.93013
4580.69261,0.92979
4578.76390,0.92934
4576.83519,0.92922
4574.90648,0.92887
4572.97776,0.92855
4571.04905,0.92929
4569.12034,0.93100
4567.19163,0.93306
4565.26291,0.93518
4563.33420,0.93685
4561.40549,0.93763
4559.47678,0.93775
4557.54806,0.93797
4555.61935,0.93853
4553.69064,0.93877
4551.76192,0.93852
4549.83321,0.93801
4547.90450,0.93706
4545.97579,0.93618
4544.04707,0.93601
4542.11836,0.93620
4540.18965,0.93637
4538.26094,0.93642
4536.33222,0.93621
4534.40351,0.93584
4532.47480,0.93536
4530.54608,0.93472
4528.61737,0.93440
4526.68866,0.93469
4524.75995,0.93469
4522.83123,0.93388
4520.90252,0.93300
4518.97381,0.93213
4517.04510,0.93080
4515.11638,0.92966
4513.18767,0.92914
4511.25896,0.92844
4509.33025,0.92706
4507.40153,0.92570
4505.47282,0.92483
4503.54411,0.92393
4501.61539,0.92256
4499.68668,0.92057
4497.75797,0.91800
4495.82926,0.91532
4493.90054,0.91300
4491.97183,0.91101
4490.04312,0.90880
4488.11441,0.90633
4486.18569,0.90411
4484.25698,0.90236
4482.32827,0.90137
4480.39956,0.90108
4478.47084,0.90080
4476.54213,0.90004
4474.61342,0.89866
4472.68470,0.89701
4470.75599,0.89545
4468.82728,0.89364
4466.89857,0.89137
4464.96985,0.88928
4463.04114,0.88740
4461.11243,0.88506
4459.18372,0.88193
4457.25500,0.87792
4455.32629,0.87366
4453.39758,0.86974
4451.46886,0.86554
4449.54015,0.86061
4447.61144,0.85545
4445.68273,0.85005
4443.75401,0.84411
4441.82530,0.83795
4439.89659,0.83147
4437.96788,0.82428
4436.03916,0.81650
4434.11045,0.80810
4432.18174,0.79916
4430.25303,0.79025
4428.32431,0.78151
4426.39560,0.77265
4424.46689,0.76362
4422.53817,0.75415
4420.60946,0.74403
4418.68075,0.73375
4416.75204,0.72377
4414.82332,0.71408
4412.89461,0.70463
4410.96590,0.69540
4409.03719,0.68656
4407.10847,0.67835
4405.17976,0.67095
4403.25105,0.66460
4401.32234,0.65930
4399.39362,0.65515
4397.46491,0.65248
4395.53620,0.65093
4393.60748,0.64949
4391.67877,0.64747
4389.75006,0.64480
4387.82135,0.64093
4385.89263,0.63519
4383.96392,0.62791
4382.03521,0.61969
4380.10650,0.61067
4378.17778,0.60102
4376.24907,0.59086
4374.32036,0.58014
4372.39165,0.56895
4370.46293,0.55738
4368.53422,0.54557
4366.60551,0.53349
4364.67679,0.52088
4362.74808,0.50790
4360.81937,0.49534
4358.89066,0.48358
4356.96194,0.47251
4355.03323,0.46219
4353.10452,0.45260
4351.17581,0.44321
4349.24709,0.43360
4347.31838,0.42376
4345.38967,0.41376
4343.46095,0.40375
4341.53224,0.39403
4339.60353,0.38496
4337.67482,0.37710
4335.74610,0.37140
4333.81739,0.36877
4331.88868,0.36993
4329.95997,0.37518
4328.03125,0.38380
4326.10254,0.39447
4324.17383,0.40624
4322.24512,0.41864
4320.31640,0.43170
4318.38769,0.44527
4316.45898,0.45827
4314.53026,0.46965
4312.60155,0.47910
4310.67284,0.48668
4308.74413,0.49264
4306.81541,0.49704
4304.88670,0.49997
4302.95799,0.50217
4301.02928,0.50415
4299.10056,0.50569
4297.17185,0.50666
4295.24314,0.50728
4293.31443,0.50777
4291.38571,0.50772
4289.45700,0.50647
4287.52829,0.50414
4285.59957,0.50157
4283.67086,0.49951
4281.74215,0.49813
4279.81344,0.49711
4277.88472,0.49649
4275.95601,0.49673
4274.02730,0.49775
4272.09859,0.49898
4270.16987,0.50025
4268.24116,0.50194
4266.31245,0.50426
4264.38374,0.50689
4262.45502,0.50942
4260.52631,0.51164
4258.59760,0.51333
4256.66888,0.51429
4254.74017,0.51473
4252.81146,0.51497
4250.88275,0.51494
4248.95403,0.51470
4247.02532,0.51452
4245.09661,0.51435
4243.16790,0.51392
4241.23918,0.51316
4239.31047,0.51199
4237.38176,0.51012
4235.45304,0.50780
4233.52433,0.50552
4231.59562,0.50326
4229.66691,0.50099
4227.73819,0.49890
4225.80948,0.49693
4223.88077,0.49489
4221.95206,0.49299
4220.02334,0.49151
4218.09463,0.49048
4216.16592,0.48983
4214.23721,0.48949
4212.30849,0.48962
4210.37978,0.49088
4208.45107,0.49354
4206.52235,0.49700
4204.59364,0.50067
4202.66493,0.50474
4200.73622,0.50911
4198.80750,0.51332
4196.87879,0.51760
4194.95008,0.52227
4193.02137,0.52687
4191.09265,0.53051
4189.16394,0.53257
4187.23523,0.53333
4185.30652,0.53309
4183.37780,0.53156
4181.44909,0.52875
4179.52038,0.52533
4177.59166,0.52198
4175.66295,0.51903
4173.73424,0.51661
4171.80553,0.51506
4169.87681,0.51472
4167.94810,0.51613
4166.01939,0.51976
4164.09068,0.52530
4162.16196,0.53191
4160.23325,0.53879
4158.30454,0.54547
4156.37582,0.55192
4154.44711,0.55811
4152.51840,0.56376
4150.58969,0.56867
4148.66097,0.57303
4146.73226,0.57720
4144.80355,0.58130
4142.87484,0.58543
4140.94612,0.59014
4139.01741,0.59568
4137.08870,0.60125
4135.15999,0.60586
4133.23127,0.60957
4131.30256,0.61297
4129.37385,0.61603
4127.44513,0.61834
4125.51642,0.61963
4123.58771,0.61980
4121.65900,0.61901
4119.73028,0.61751
4117.80157,0.61569
4115.87286,0.61394
4113.94415,0.61209
4112.01543,0.60985
4110.08672,0.60744
4108.15801,0.60516
4106.22930,0.60323
4104.30058,0.60140
4102.37187,0.59874
4100.44316,0.59483
4098.51444,0.58968
4096.58573,0.58319
4094.65702,0.57544
4092.72831,0.56662
4090.79959,0.55646
4088.87088,0.54512
4086.94217,0.53442
4085.01346,0.52661
4083.08474,0.52292
4081.15603,0.52404
4079.22732,0.53003
4077.29861,0.53931
4075.36989,0.54973
4073.44118,0.55984
4071.51247,0.56896
4069.58375,0.57739
4067.65504,0.58595
4065.72633,0.59479
4063.79762,0.60361
4061.86890,0.61200
4059.94019,0.61958
4058.01148,0.62651
4056.08277,0.63303
4054.15405,0.63879
4052.22534,0.64360
4050.29663,0.64747
4048.36791,0.65034
4046.43920,0.65246
4044.51049,0.65457
4042.58178,0.65715
4040.65306,0.65963
4038.72435,0.66123
4036.79564,0.66211
4034.86693,0.66293
4032.93821,0.66384
4031.00950,0.66454
4029.08079,0.66457
4027.15208,0.66380
4025.22336,0.66321
4023.29465,0.66362
4021.36594,0.66443
4019.43722,0.66520
4017.50851,0.66616
4015.57980,0.66757
4013.65109,0.66972
4011.72237,0.67229
4009.79366,0.67479
4007.86495,0.67752
4005.93624,0.68094
4004.00752,0.68481
4002.07881,0.68870
4000.15010,0.69250
3998.22139,0.69601
3996.29267,0.69911
3994.36396,0.70217
3992.43525,0.70527
3990.50653,0.70844
3988.57782,0.71197
3986.64911,0.71558
3984.72040,0.71862
3982.79168,0.72109
3980.86297,0.72341
3978.93426,0.72563
3977.00555,0.72750
3975.07683,0.72913
3973.14812,0.73081
3971.21941,0.73266
3969.29070,0.73499
3967.36198,0.73765
3965.43327,0.73932
3963.50456,0.73959
3961.57584,0.74000
3959.64713,0.74119
3957.71842,0.74200
3955.78971,0.74212
3953.86099,0.74178
3951.93228,0.74083
3950.00357,0.73983
3948.07486,0.74015
3946.14614,0.74101
3944.21743,0.74064
3942.28872,0.74051
3940.36000,0.74231
3938.43129,0.74439
3936.50258,0.74491
3934.57387,0.74306
3932.64515,0.74010
3930.71644,0.73930
3928.78773,0.74072
3926.85902,0.74073
3924.93030,0.73886
3923.00159,0.73827
3921.07288,0.73874
3919.14417,0.73826
3917.21545,0.73836
3915.28674,0.74077
3913.35803,0.74386
3911.42931,0.74604
3909.50060,0.74637
3907.57189,0.74350
3905.64318,0.73770
3903.71446,0.73340
3901.78575,0.73448
3899.85704,0.73907
3897.92833,0.74485
3895.99961,0.74888
3894.07090,0.74911
3892.14219,0.74784
3890.21348,0.74931
3888.28476,0.75093
3886.35605,0.74987
3884.42734,0.74868
3882.49862,0.74877
3880.56991,0.75038
3878.64120,0.75414
3876.71249,0.75555
3874.78377,0.75273
3872.85506,0.74857
3870.92635,0.74612
3868.99764,0.74718
3867.06892,0.74869
3865.14021,0.74767
3863.21150,0.74863
3861.28278,0.75329
3859.35407,0.75563
3857.42536,0.75306
3855.49665,0.74643
3853.56793,0.74028
3851.63922,0.74531
3849.71051,0.75434
3847.78180,0.75970
3845.85308,0.76035
3843.92437,0.75717
3841.99566,0.75220
3840.06695,0.74770
3838.13823,0.74745
3836.20952,0.75210
3834.28081,0.75679
3832.35209,0.76055
3830.42338,0.76359
3828.49467,0.76471
3826.56596,0.76447
3824.63724,0.76358
3822.70853,0.76039
3820.77982,0.75742
3818.85111,0.75967
3816.92239,0.76431
3814.99368,0.77126
3813.06497,0.77806
3811.13626,0.78087
3809.20754,0.77884
3807.27883,0.77419
3805.35012,0.77154
3803.42140,0.76958
3801.49269,0.76843
3799.56398,0.77215
3797.63527,0.77795
3795.70655,0.78507
3793.77784,0.79220
3791.84913,0.79664
3789.92042,0.79857
3787.99170,0.79837
3786.06299,0.79719
3784.13428,0.79789
3782.20557,0.79933
3780.27685,0.79895
3778.34814,0.79962
3776.41943,0.80260
3774.49071,0.80394
3772.56200,0.80184
3770.63329,0.79790
3768.70458,0.79563
3766.77586,0.79570
3764.84715,0.79667
3762.91844,0.79670
3760.98973,0.79334
3759.06101,0.78886
3757.13230,0.78802
3755.20359,0.78752
3753.27487,0.78271
3751.34616,0.77620
3749.41745,0.77793
3747.48874,0.78370
3745.56002,0.78781
3743.63131,0.79294
3741.70260,0.79703
3739.77389,0.79720
3737.84517,0.79313
3735.91646,0.78714
3733.98775,0.78800
3732.05904,0.79705
3730.13032,0.80519
3728.20161,0.80817
3726.27290,0.80799
3724.34418,0.80899
3722.41547,0.81273
3720.48676,0.81781
3718.55805,0.82182
3716.62933,0.82236
3714.70062,0.81775
3712.77191,0.80786
3710.84320,0.79997
3708.91448,0.80212
3706.98577,0.80593
3705.05706,0.80483
3703.12835,0.79912
3701.19963,0.79280
3699.27092,0.78833
3697.34221,0.78256
3695.41349,0.77381
3693.48478,0.76200
3691.55607,0.74582
3689.62736,0.72855
3687.69864,0.72056
3685.76993,0.71934
3683.84122,0.71795
3681.91251,0.71482
3679.98379,0.70990
3678.05508,0.70382
3676.12637,0.69960
3674.19766,0.70215
3672.26894,0.70505
3670.34023,0.70625
3668.41152,0.71269
3666.48280,0.72110
3664.55409,0.72621
3662.62538,0.72855
3660.69667,0.72951
3658.76795,0.72916
3656.83924,0.72865
3654.91053,0.72993
3652.98182,0.72917
3651.05310,0.72226
3649.12439,0.71551
3647.19568,0.72201
3645.26696,0.73169
3643.33825,0.73708
3641.40954,0.73906
3639.48083,0.73923
3637.55211,0.73805
3635.62340,0.73514
3633.69469,0.73065
3631.76598,0.72437
3629.83726,0.71511
3627.90855,0.70914
3625.97984,0.71098
3624.05113,0.71164
3622.12241,0.70750
3620.19370,0.69995
3618.26499,0.69442
3616.33627,0.69265
3614.40756,0.69121
3612.47885,0.69030
3610.55014,0.68931
3608.62142,0.68750
3606.69271,0.68747
3604.76400,0.68799
3602.83529,0.68574
3600.90657,0.68165
3598.97786,0.67838
3597.04915,0.67554
3595.12044,0.67265
3593.19172,0.67097
3591.26301,0.66911
3589.33430,0.66422
3587.40558,0.65851
3585.47687,0.65772
3583.54816,0.65903
3581.61945,0.65840
3579.69073,0.65549
3577.76202,0.65148
3575.83331,0.64730
3573.90460,0.64329
3571.97588,0.63901
3570.04717,0.63230
3568.11846,0.62203
3566.18974,0.61398
3564.26103,0.61268
3562.33232,0.61232
3560.40361,0.61009
3558.47489,0.60703
3556.54618,0.60355
3554.61747,0.59931
3552.68876,0.59510
3550.76004,0.59214
3548.83133,0.58922
3546.90262,0.58555
3544.97391,0.58351
3543.04519,0.58403
3541.11648,0.58471
3539.18777,0.58383
3537.25905,0.58225
3535.33034,0.58163
3533.40163,0.58106
3531.47292,0.57866
3529.54420,0.57503
3527.61549,0.57245
3525.68678,0.57144
3523.75807,0.57109
3521.82935,0.57061
3519.90064,0.56956
3517.97193,0.56813
3516.04322,0.56657
3514.11450,0.56430
3512.18579,0.56041
3510.25708,0.55541
3508.32836,0.55132
3506.39965,0.54831
3504.47094,0.54459
3502.54223,0.54037
3500.61351,0.53684
3498.68480,0.53319
3496.75609,0.52868
3494.82738,0.52375
3492.89866,0.51869
3490.96995,0.51315
3489.04124,0.50706
3487.11253,0.50080
3485.18381,0.49437
3483.25510,0.48802
3481.32639,0.48253
3479.39767,0.47782
3477.46896,0.47283
3475.54025,0.46739
3473.61154,0.46211
3471.68282,0.45722
3469.75411,0.45259
3467.82540,0.44801
3465.89669,0.44340
3463.96797,0.43859
3462.03926,0.43383
3460.11055,0.42963
3458.18183,0.42565
3456.25312,0.42125
3454.32441,0.41636
3452.39570,0.41113
3450.46698,0.40515
3448.53827,0.39800
3446.60956,0.38996
3444.68085,0.38128
3442.75213,0.37187
3440.82342,0.36224
3438.89471,0.35280
3436.96600,0.34317
3435.03728,0.33359
3433.10857,0.32504
3431.17986,0.31802
3429.25114,0.31274
3427.32243,0.30937
3425.39372,0.30760
3423.46501,0.30720
3421.53629,0.30851
3419.60758,0.31186
3417.67887,0.31716
3415.75016,0.32417
3413.82144,0.33252
3411.89273,0.34167
3409.96402,0.35126
3408.03531,0.36150
3406.10659,0.37263
3404.17788,0.38428
3402.24917,0.39579
3400.32045,0.40664
3398.39174,0.41677
3396.46303,0.42638
3394.53432,0.43520
3392.60560,0.44305
3390.67689,0.45037
3388.74818,0.45762
3386.81947,0.46467
3384.89075,0.47105
3382.96204,0.47706
3381.03333,0.48319
3379.10462,0.48884
3377.17590,0.49340
3375.24719,0.49766
3373.31848,0.50232
3371.38976,0.50676
3369.46105,0.51037
3367.53234,0.51325
3365.60363,0.51593
3363.67491,0.51895
3361.74620,0.52221
3359.81749,0.52511
3357.88878,0.52738
3355.96006,0.52919
3354.03135,0.53071
3352.10264,0.53194
3350.17392,0.53286
3348.24521,0.53312
3346.31650,0.53225
3344.38779,0.53050
3342.45907,0.52851
3340.53036,0.52624
3338.60165,0.52351
3336.67294,0.52089
3334.74422,0.51879
3332.81551,0.51681
3330.88680,0.51470
3328.95809,0.51288
3327.02937,0.51147
3325.10066,0.50961
3323.17195,0.50630
3321.24323,0.50117
3319.31452,0.49399
3317.38581,0.48400
3315.45710,0.46995
3313.52838,0.45095
3311.59967,0.42685
3309.67096,0.39830
3307.74225,0.36749
3305.81353,0.33875
3303.88482,0.31715
3301.95611,0.30674
3300.02740,0.30901
3298.09868,0.32224
3296.16997,0.34295
3294.24126,0.36732
3292.31254,0.39250
3290.38383,0.41676
3288.45512,0.43911
3286.52641,0.45934
3284.59769,0.47761
3282.66898,0.49398
3280.74027,0.50846
3278.81156,0.52078
3276.88284,0.53113
3274.95413,0.54045
3273.02542,0.54957
3271.09670,0.55842
3269.16799,0.56635
3267.23928,0.57282
3265.31057,0.57781
3263.38185,0.58191
3261.45314,0.58579
3259.52443,0.58938
3257.59572,0.59207
3255.66700,0.59393
3253.73829,0.59559
3251.80958,0.59735
3249.88087,0.59888
3247.95215,0.59954
3246.02344,0.59949
3244.09473,0.59951
3242.16601,0.59939
3240.23730,0.59871
3238.30859,0.59779
3236.37988,0.59677
3234.45116,0.59540
3232.52245,0.59362
3230.59374,0.59159
3228.66503,0.58956
3226.73631,0.58795
3224.80760,0.58680
3222.87889,0.58574
3220.95018,0.58497
3219.02146,0.58476
3217.09275,0.58436
3215.16404,0.58292
3213.23532,0.58104
3211.30661,0.57974
3209.37790,0.57898
3207.44919,0.57813
3205.52047,0.57664
3203.59176,0.57461
3201.66305,0.57256
3199.73434,0.57095
3197.80562,0.56990
3195.87691,0.56918
3193.94820,0.56869
3192.01949,0.56856
3190.09077,0.56883
3188.16206,0.56920
3186.23335,0.56945
3184.30463,0.56995
3182.37592,0.57078
3180.44721,0.57159
3178.51850,0.57238
3176.58978,0.57294
3174.66107,0.57280
3172.73236,0.57242
3170.80365,0.57243
3168.87493,0.57254
3166.94622,0.57264
3165.01751,0.57263
3163.08879,0.57200
3161.16008,0.57104
3159.23137,0.57062
3157.30266,0.57067
3155.37394,0.57027
3153.44523,0.56888
3151.51652,0.56694
3149.58781,0.56522
3147.65909,0.56372
3145.73038,0.56170
3143.80167,0.55898
3141.87296,0.55612
3139.94424,0.55298
3138.01553,0.54916
3136.08682,0.54484
3134.15810,0.54010
3132.22939,0.53516
3130.30068,0.53024
3128.37197,0.52528
3126.44325,0.52116
3124.51454,0.51894
3122.58583,0.51819
3120.65712,0.51764
3118.72840,0.51626
3116.79969,0.51348
3114.87098,0.50937
3112.94227,0.50410
3111.01355,0.49788
3109.08484,0.49076
3107.15613,0.48229
3105.22741,0.47225
3103.29870,0.46131
3101.36999,0.45012
3099.44128,0.43965
3097.51256,0.43105
3095.58385,0.42461
3093.65514,0.41917
3091.72643,0.41261
3089.79771,0.40363
3087.86900,0.39266
3085.94029,0.38072
3084.01158,0.36905
3082.08286,0.35949
3080.15415,0.35369
3078.22544,0.35183
3076.29672,0.35179
3074.36801,0.35033
3072.43930,0.34527
3070.51059,0.33644
3068.58187,0.32551
3066.65316,0.31517
3064.72445,0.30793
3062.79574,0.30463
3060.86702,0.30337
3058.93831,0.30101
3057.00960,0.29583
3055.08088,0.28932
3053.15217,0.28529
3051.22346,0.28626
3049.29475,0.29147
3047.36603,0.29819
3045.43732,0.30356
3043.50861,0.30550
3041.57990,0.30349
3039.65118,0.29855
3037.72247,0.29180
3035.79376,0.28349
3033.86505,0.27389
3031.93633,0.26385
3030.00762,0.25393
3028.07891,0.24383
3026.15019,0.23290
3024.22148,0.22092
3022.29277,0.20818
3020.36406,0.19478
3018.43534,0.18073
3016.50663,0.16611
3014.57792,0.15098
3012.64921,0.13539
3010.72049,0.11943
3008.79178,0.10352
3006.86307,0.08799
3004.93436,0.07302
3003.00564,0.05901
3001.07693,0.04631
2999.14822,0.03503
2997.21950,0.02530
2995.29079,0.01725
2993.36208,0.01101
2991.43337,0.00663
2989.50465,0.00382
2987.57594,0.00211
2985.64723,0.00120
2983.71852,0.00074
2981.78980,0.00053
2979.86109,0.00053
2977.93238,0.00050
2976.00366,0.00022
2974.07495,0.00010
2972.14624,0.00039
2970.21753,0.00073
2968.28881,0.00096
2966.36010,0.00110
2964.43139,0.00099
2962.50268,0.00049
2960.57396,0.00003
2958.64525,0.00042
2956.71654,0.00046
2954.78783,0.00042
2952.85911,0.00039
2950.93040,0.00043
2949.00169,0.00051
2947.07297,0.00059
2945.14426,0.00064
2943.21555,0.00069
2941.28684,0.00062
2939.35812,0.00067
2937.42941,0.00076
2935.50070,0.00076
2933.57199,0.00069
2931.64327,0.00053
2929.71456,0.00039
2927.78585,0.00046
2925.85714,0.00061
2923.92842,0.00068
2921.99971,0.00059
2920.07100,0.00042
2918.14228,0.00027
2916.21357,0.00027
2914.28486,0.00038
2912.35615,0.00047
2910.42743,0.00048
2908.49872,0.00050
2906.57001,0.00049
2904.64130,0.00042
2902.71258,0.00035
2900.78387,0.00042
2898.85516,0.00058
2896.92645,0.00067
2894.99773,0.00069
2893.06902,0.00084
2891.14031,0.00095
2889.21159,0.00084
2887.28288,0.00057
2885.35417,0.00044
2883.42546,0.00052
2881.49674,0.00066
2879.56803,0.00067
2877.63932,0.00061
2875.71061,0.00048
2873.78189,0.00044
2871.85318,0.00055
2869.92447,0.00072
2867.99575,0.00076
2866.06704,0.00058
2864.13833,0.00034
2862.20962,0.00035
2860.28090,0.00050
2858.35219,0.00043
2856.42348,0.00031
2854.49477,0.00033
2852.56605,0.00036
2850.63734,0.00052
2848.70863,0.00053
2846.77992,0.00046
2844.85120,0.00128
2842.92249,0.00292
2840.99378,0.00534
2839.06506,0.00909
2837.13635,0.01456
2835.20764,0.02134
2833.27893,0.02895
2831.35021,0.03700
2829.42150,0.04492
2827.49279,0.05194
2825.56408,0.05754
2823.63536,0.06157
2821.70665,0.06433
2819.77794,0.06634
2817.84923,0.06884
2815.92051,0.07434
2813.99180,0.08515
2812.06309,0.10125
2810.13437,0.12064
2808.20566,0.14106
2806.27695,0.16077
2804.34824,0.17896
2802.41952,0.19595
2800.49081,0.21217
2798.56210,0.22768
2796.63339,0.24250
2794.70467,0.25671
2792.77596,0.27035
2790.84725,0.28328
2788.91854,0.29521
2786.98982,0.30634
2785.06111,0.31712
2783.13240,0.32764
2781.20368,0.33778
2779.27497,0.34737
2777.34626,0.35605
2775.41755,0.36354
2773.48883,0.36993
2771.56012,0.37529
2769.63141,0.37960
2767.70270,0.38312
2765.77398,0.38599
2763.84527,0.38809
2761.91656,0.38938
2759.98784,0.38986
2758.05913,0.38946
2756.13042,0.38810
2754.20171,0.38566
2752.27299,0.38230
2750.34428,0.37833
2748.41557,0.37390
2746.48686,0.36909
2744.55814,0.36404
2742.62943,0.35882
2740.70072,0.35352
2738.77201,0.34856
2736.84329,0.34463
2734.91458,0.34264
2732.98587,0.34357
2731.05715,0.34805
2729.12844,0.35640
2727.19973,0.36834
2725.27102,0.38234
2723.34230,0.39640
2721.41359,0.40920
2719.48488,0.42019
2717.55617,0.42925
2715.62745,0.43676
2713.69874,0.44350
2711.77003,0.44999
2709.84132,0.45618
2707.91260,0.46199
2705.98389,0.46733
2704.05518,0.47198
2702.12646,0.47599
2700.19775,0.47952
2698.26904,0.48268
2696.34033,0.48556
2694.41161,0.48792
2692.48290,0.48939
2690.55419,0.49010
2688.62548,0.49033
2686.69676,0.48980
2684.76805,0.48826
2682.83934,0.48590
2680.91062,0.48298
2678.98191,0.47994
2677.05320,0.47744
2675.12449,0.47605
2673.19577,0.47609
2671.26706,0.47740
2669.33835,0.47965
2667.40964,0.48310
2665.48092,0.48812
2663.55221,0.49444
2661.62350,0.50151
2659.69479,0.50876
2657.76607,0.51558
2655.83736,0.52156
2653.90865,0.52665
2651.97993,0.53089
2650.05122,0.53429
2648.12251,0.53673
2646.19380,0.53805
2644.26508,0.53802
2642.33637,0.53654
2640.40766,0.53414
2638.47895,0.53135
2636.55023,0.52784
2634.62152,0.52351
2632.69281,0.51923
2630.76410,0.51620
2628.83538,0.51471
2626.90667,0.51408
2624.97796,0.51389
2623.04924,0.51391
2621.12053,0.51378
2619.19182,0.51340
2617.26311,0.51292
2615.33439,0.51253
2613.40568,0.51226
2611.47697,0.51205
2609.54826,0.51177
2607.61954,0.51142
2605.69083,0.51128
2603.76212,0.51156
2601.83341,0.51211
2599.90469,0.51287
2597.97598,0.51384
2596.04727,0.51454
2594.11855,0.51441
2592.18984,0.51362
2590.26113,0.51259
2588.33242,0.51143
2586.40370,0.51016
2584.47499,0.50892
2582.54628,0.50769
2580.61757,0.50668
2578.68885,0.50663
2576.76014,0.50790
2574.83143,0.51016
2572.90271,0.51297
2570.97400,0.51598
2569.04529,0.51888
2567.11658,0.52160
2565.18786,0.52405
2563.25915,0.52601
2561.33044,0.52738
2559.40173,0.52826
2557.47301,0.52894
2555.54430,0.52972
2553.61559,0.53084
2551.68688,0.53258
2549.75816,0.53505
2547.82945,0.53808
2545.90074,0.54136
2543.97202,0.54460
2542.04331,0.54743
2540.11460,0.54994
2538.18589,0.55232
2536.25717,0.55425
2534.32846,0.55559
2532.39975,0.55661
2530.47104,0.55769
2528.54232,0.55930
2526.61361,0.56172
2524.68490,0.56482
2522.75619,0.56857
2520.82747,0.57299
2518.89876,0.57763
2516.97005,0.58210
2515.04133,0.58673
2513.11262,0.59195
2511.18391,0.59741
2509.25520,0.60256
2507.32648,0.60715
2505.39777,0.61104
2503.46906,0.61433
2501.54035,0.61738
2499.61163,0.62034
2497.68292,0.62308
2495.75421,0.62536
2493.82549,0.62703
2491.89678,0.62804
2489.96807,0.62884
2488.03936,0.63008
2486.11064,0.63193
2484.18193,0.63403
2482.25322,0.63595
2480.32451,0.63751
2478.39579,0.63896
2476.46708,0.64079
2474.53837,0.64317
2472.60966,0.64573
2470.68094,0.64805
2468.75223,0.64990
2466.82352,0.65113
2464.89480,0.65178
2462.96609,0.65229
2461.03738,0.65285
2459.10867,0.65314
2457.17995,0.65297
2455.25124,0.65253
2453.32253,0.65184
2451.39382,0.65080
2449.46510,0.64951
2447.53639,0.64807
2445.60768,0.64640
2443.67897,0.64431
2441.75025,0.64180
2439.82154,0.63903
2437.89283,0.63620
2435.96411,0.63353
2434.03540,0.63092
2432.10669,0.62787
2430.17798,0.62408
2428.24926,0.61955
2426.32055,0.61448
2424.39184,0.60935
2422.46313,0.60469
2420.53441,0.60062
2418.60570,0.59700
2416.67699,0.59355
2414.74828,0.59014
2412.81956,0.58696
2410.89085,0.58411
2408.96214,0.58132
2407.03342,0.57830
2405.10471,0.57493
2403.17600,0.57140
2401.24729,0.56799
2399.31857,0.56470
2397.38986,0.56143
2395.46115,0.55828
2393.53244,0.55510
2391.60372,0.55175
2389.67501,0.54854
2387.74630,0.54576
2385.81758,0.54326
2383.88887,0.54070
2381.96016,0.53785
2380.03145,0.53473
2378.10273,0.53168
2376.17402,0.52912
2374.24531,0.52732
2372.31660,0.52643
2370.38788,0.52653
2368.45917,0.52739
2366.53046,0.52844
2364.60175,0.52993
2362.67303,0.53282
2360.74432,0.53735
2358.81561,0.54340
2356.88689,0.55114
2354.95818,0.56088
2353.02947,0.57270
2351.10076,0.58480
2349.17204,0.59350
2347.24333,0.59729
2345.31462,0.59894
2343.38591,0.60244
2341.45719,0.60798
2339.52848,0.61363
2337.59977,0.61904
2335.67106,0.62465
2333.74234,0.62989
2331.81363,0.63418
2329.88492,0.63781
2327.95620,0.64028
2326.02749,0.64084
2324.09878,0.64061
2322.17007,0.64272
2320.24135,0.64910
2318.31264,0.65764
2316.38393,0.66482
2314.45522,0.66958
2312.52650,0.67287
2310.59779,0.67556
2308.66908,0.67785
2306.74037,0.67943
2304.81165,0.67990
2302.88294,0.67913
2300.95423,0.67744
2299.02551,0.67530
2297.09680,0.67286
2295.16809,0.67002
2293.23938,0.66648
2291.31066,0.66201
2289.38195,0.65675
2287.45324,0.65113
2285.52453,0.64540
2283.59581,0.63974
2281.66710,0.63457
2279.73839,0.63047
2277.80967,0.62820
2275.88096,0.62850
2273.95225,0.63153
2272.02354,0.63657
2270.09482,0.64246
2268.16611,0.64814
2266.23740,0.65302
2264.30869,0.65662
2262.37997,0.65877
2260.45126,0.66007
2258.52255,0.66105
2256.59384,0.66169
2254.66512,0.66185
2252.73641,0.66163
2250.80770,0.66121
2248.87898,0.66067
2246.95027,0.66005
2245.02156,0.65942
2243.09285,0.65874
2241.16413,0.65790
2239.23542,0.65685
2237.30671,0.65594
2235.37800,0.65559
2233.44928,0.65581
2231.52057,0.65650
2229.59186,0.65766
2227.66315,0.65916
2225.73443,0.66086
2223.80572,0.66279
2221.87701,0.66507
2219.94829,0.66750
2218.01958,0.66957
2216.09087,0.67092
2214.16216,0.67159
2212.23344,0.67183
2210.30473,0.67238
2208.37602,0.67455
2206.44731,0.67902
2204.51859,0.68509
2202.58988,0.69152
2200.66117,0.69731
2198.73245,0.70204
2196.80374,0.70592
2194.87503,0.70930
2192.94632,0.71220
2191.01760,0.71468
2189.08889,0.71704
2187.16018,0.71966
2185.23147,0.72249
2183.30275,0.72535
2181.37404,0.72812
2179.44533,0.73041
2177.51662,0.73194
2175.58790,0.73286
2173.65919,0.73345
2171.73048,0.73398
2169.80176,0.73445
2167.87305,0.73450
2165.94434,0.73375
2164.01563,0.73230
2162.08691,0.73059
2160.15820,0.72909
2158.22949,0.72807
2156.30078,0.72756
2154.37206,0.72722
2152.44335,0.72665
2150.51464,0.72580
2148.58593,0.72487
2146.65721,0.72409
2144.72850,0.72351
2142.79979,0.72295
2140.87107,0.72217
2138.94236,0.72104
2137.01365,0.71986
2135.08494,0.71922
2133.15622,0.71926
2131.22751,0.71950
2129.29880,0.71948
2127.37009,0.71889
2125.44137,0.71786
2123.51266,0.71679
2121.58395,0.71591
2119.65524,0.71523
2117.72652,0.71458
2115.79781,0.71372
2113.86910,0.71273
2111.94038,0.71183
2110.01167,0.71113
2108.08296,0.71073
2106.15425,0.71067
2104.22553,0.71062
2102.29682,0.71028
2100.36811,0.70957
2098.43940,0.70860
2096.51068,0.70762
2094.58197,0.70676
2092.65326,0.70566
2090.72454,0.70405
2088.79583,0.70216
2086.86712,0.70023
2084.93841,0.69835
2083.00969,0.69686
2081.08098,0.69581
2079.15227,0.69493
2077.22356,0.69397
2075.29484,0.69295
2073.36613,0.69215
2071.43742,0.69182
2069.50871,0.69189
2067.57999,0.69198
2065.65128,0.69217
2063.72257,0.69303
2061.79385,0.69456
2059.86514,0.69643
2057.93643,0.69860
2056.00772,0.70092
2054.07900,0.70322
2052.15029,0.70543
2050.22158,0.70753
2048.29287,0.70953
2046.36415,0.71147
2044.43544,0.71328
2042.50673,0.71478
2040.57802,0.71589
2038.64930,0.71672
2036.72059,0.71732
2034.79188,0.71793
2032.86316,0.71878
2030.93445,0.71969
2029.00574,0.72067
2027.07703,0.72186
2025.14831,0.72327
2023.21960,0.72507
2021.29089,0.72724
2019.36218,0.72935
2017.43346,0.73144
2015.50475,0.73384
2013.57604,0.73590
2011.64733,0.73713
2009.71861,0.73779
2007.78990,0.73810
2005.86119,0.73817
2003.93247,0.73773
2002.00376,0.73623
2000.07505,0.73356
1998.14634,0.72988
1996.21762,0.72483
1994.28891,0.71798
1992.36020,0.71062
1990.43149,0.70532
1988.50277,0.70262
1986.57406,0.70129
1984.64535,0.70033
1982.71663,0.69904
1980.78792,0.69725
1978.85921,0.69499
1976.93050,0.69184
1975.00178,0.68744
1973.07307,0.68163
1971.14436,0.67434
1969.21565,0.66531
1967.28693,0.65498
1965.35822,0.64446
1963.42951,0.63278
1961.50080,0.61814
1959.57208,0.60049
1957.64337,0.58039
1955.71466,0.55854
1953.78594,0.53761
1951.85723,0.52123
1949.92852,0.51212
1947.99981,0.51149
1946.07109,0.51844
1944.14238,0.53114
1942.21367,0.54841
1940.28496,0.56663
1938.35624,0.58243
1936.42753,0.59667
1934.49882,0.61063
1932.57011,0.62408
1930.64139,0.63613
1928.71268,0.64615
1926.78397,0.65354
1924.85525,0.65804
1922.92654,0.66122
1920.99783,0.66452
1919.06912,0.66740
1917.14040,0.67046
1915.21169,0.67380
1913.28298,0.67569
1911.35427,0.67601
1909.42555,0.67655
1907.49684,0.67879
1905.56813,0.68171
1903.63941,0.68393
1901.71070,0.68542
1899.78199,0.68631
1897.85328,0.68635
1895.92456,0.68591
1893.99585,0.68630
1892.06714,0.68684
1890.13843,0.68690
1888.20971,0.68813
1886.28100,0.69032
1884.35229,0.69230
1882.42358,0.69409
1880.49486,0.69545
1878.56615,0.69594
1876.63744,0.69585
1874.70872,0.69517
1872.78001,0.69305
1870.85130,0.68843
1868.92259,0.68272
1866.99387,0.68129
1865.06516,0.68263
1863.13645,0.68184
1861.20774,0.67826
1859.27902,0.67320
1857.35031,0.66741
1855.42160,0.66057
1853.49289,0.65238
1851.56417,0.64254
1849.63546,0.63080
1847.70675,0.61759
1845.77803,0.60355
1843.84932,0.59054
1841.92061,0.58162
1839.99190,0.57322
1838.06318,0.56061
1836.13447,0.54420
1834.20576,0.52623
1832.27705,0.50577
1830.34833,0.48067
1828.41962,0.45721
1826.49091,0.44160
1824.56220,0.43112
1822.63348,0.42687
1820.70477,0.42859
1818.77606,0.43362
1816.84734,0.44051
1814.91863,0.44719
1812.98992,0.45206
1811.06121,0.45533
1809.13249,0.45764
1807.20378,0.45838
1805.27507,0.45676
1803.34636,0.45253
1801.41764,0.44591
1799.48893,0.43851
1797.56022,0.43072
1795.63150,0.42136
1793.70279,0.40905
1791.77408,0.39439
1789.84537,0.38263
1787.91665,0.37284
1785.98794,0.36075
1784.05923,0.34647
1782.13052,0.33212
1780.20180,0.31784
1778.27309,0.30449
1776.34438,0.29224
1774.41567,0.27841
1772.48695,0.26053
1770.55824,0.24260
1768.62953,0.22723
1766.70081,0.21075
1764.77210,0.19313
1762.84339,0.17114
1760.91468,0.14354
1758.98596,0.11754
1757.05725,0.09160
1755.12854,0.06731
1753.19983,0.04905
1751.27111,0.03338
1749.34240,0.01960
1747.41369,0.01113
1745.48498,0.00658
1743.55626,0.00370
1741.62755,0.00194
1739.69884,0.00078
1737.77012,0.00031
1735.84141,0.00015
1733.91270,0.00011
1731.98399,0.00010
1730.05527,0.00010
1728.12656,0.00013
1726.19785,0.00031
1724.26914,0.00056
1722.34042,0.00073
1720.41171,0.00073
1718.48300,0.00057
1716.55429,0.00028
1714.62557,0.00008
1712.69686,0.00025
1710.76815,0.00044
1708.83943,0.00059
1706.91072,0.00059
1704.98201,0.00048
1703.05330,0.00008
1701.12458,0.00042
1699.19587,0.00222
1697.26716,0.00731
1695.33845,0.01678
1693.40973,0.02670
1691.48102,0.03544
1689.55231,0.04470
1687.62359,0.05244
1685.69488,0.05761
1683.76617,0.06335
1681.83746,0.06862
1679.90874,0.07238
1677.98003,0.07568
1676.05132,0.07962
1674.12261,0.08531
1672.19389,0.09313
1670.26518,0.10991
1668.33647,0.13988
1666.40776,0.16852
1664.47904,0.19526
1662.55033,0.22744
1660.62162,0.25713
1658.69290,0.27635
1656.76419,0.28785
1654.83548,0.29433
1652.90677,0.29984
1650.97805,0.30319
1649.04934,0.29983
1647.12063,0.28582
1645.19192,0.26310
1643.26320,0.23896
1641.33449,0.20999
1639.40578,0.18069
1637.47707,0.16488
1635.54835,0.18547
1633.61964,0.22979
1631.69093,0.26418
1629.76221,0.29188
1627.83350,0.31458
1625.90479,0.32883
1623.97608,0.33630
1622.04736,0.33926
1620.11865,0.33565
1618.18994,0.32010
1616.26123,0.29220
1614.33251,0.27584
1612.40380,0.27590
1610.47509,0.28236
1608.54637,0.29310
1606.61766,0.30798
1604.68895,0.32512
1602.76024,0.34318
1600.83152,0.36016
1598.90281,0.37202
1596.97410,0.37539
1595.04539,0.37088
1593.11667,0.36411
1591.18796,0.35958
1589.25925,0.35381
1587.33054,0.33683
1585.40182,0.29923
1583.47311,0.24063
1581.54440,0.17599
1579.61568,0.12695
1577.68697,0.10501
1575.75826,0.11851
1573.82955,0.14921
1571.90083,0.17513
1569.97212,0.20012
1568.04341,0.21901
1566.11470,0.22800
1564.18598,0.23547
1562.25727,0.24352
1560.32856,0.25226
1558.39985,0.26710
1556.47113,0.27689
1554.54242,0.27967
1552.61371,0.28137
1550.68499,0.28321
1548.75628,0.28422
1546.82757,0.28066
1544.89886,0.26879
1542.97014,0.24893
1541.04143,0.22839
1539.11272,0.22445
1537.18401,0.23437
1535.25529,0.24530
1533.32658,0.25557
1531.39787,0.26040
1529.46916,0.26039
1527.54044,0.26141
1525.61173,0.26731
1523.68302,0.27566
1521.75430,0.28382
1519.82559,0.28848
1517.89688,0.28440
1515.96817,0.27183
1514.03945,0.25408
1512.11074,0.22912
1510.18203,0.19431
1508.25332,0.13961
1506.32460,0.06611
1504.39589,0.05248
1502.46718,0.08156
1500.53846,0.12562
1498.60975,0.17162
1496.68104,0.20539
1494.75233,0.21911
1492.82361,0.21753
1490.89490,0.20335
1488.96619,0.17626
1487.03748,0.14630
1485.10876,0.11869
1483.18005,0.09135
1481.25134,0.06394
1479.32263,0.04097
1477.39391,0.02451
1475.46520,0.01262
1473.53649,0.00480
1471.60777,0.00095
1469.67906,-0.00003
1467.75035,0.00017
1465.82164,0.00059
1463.89292,0.00062
1461.96421,0.00069
1460.03550,0.00084
1458.10679,0.00094
1456.17807,0.00067
1454.24936,0.00038
1452.32065,0.00028
1450.39194,0.00040
1448.46322,0.00063
1446.53451,0.00088
1444.60580,0.00087
1442.67708,0.00074
1440.74837,0.00061
1438.81966,0.00055
1436.89095,0.00052
1434.96223,0.00043
1433.03352,0.00031
1431.10481,0.00024
1429.17610,0.00015
1427.24738,0.00015
1425.31867,0.00023
1423.38996,0.00022
1421.46125,0.00025
1419.53253,0.00040
1417.60382,0.00014
1415.67511,-0.00002
1413.74639,0.00009
1411.81768,0.00021
1409.88897,0.00016
1407.96026,0.00006
1406.03154,0.00037
1404.10283,0.00145
1402.17412,0.00311
1400.24541,0.00459
1398.31669,0.00531
1396.38798,0.00482
1394.45927,0.00334
1392.53055,0.00189
1390.60184,0.00102
1388.67313,0.00048
1386.74442,0.00010
1384.81570,0.00009
1382.88699,0.00032
1380.95828,0.00044
1379.02957,0.00026
1377.10085,0.00026
1375.17214,0.00035
1373.24343,0.00049
1371.31472,0.00083
1369.38600,0.00126
1367.45729,0.00166
1365.52858,0.00181
1363.59986,0.00162
1361.67115,0.00122
1359.74244,0.00084
1357.81373,0.00064
1355.88501,0.00058
1353.95630,0.00055
1352.02759,0.00044
1350.09888,0.00046
1348.17016,0.00061
1346.24145,0.00056
1344.31274,0.00044
1342.38403,0.00041
1340.45531,0.00030
1338.52660,0.00019
1336.59789,0.00012
1334.66917,0.00021
1332.74046,0.00035
1330.81175,0.00030
1328.88304,0.00029
1326.95432,0.00034
1325.02561,0.00037
1323.09690,0.00035
1321.16819,0.00031
1319.23947,0.00029
1317.31076,0.00035
1315.38205,0.00045
1313.45333,0.00046
1311.52462,0.00041
1309.59591,0.00034
1307.66720,0.00027
1305.73848,0.00026
1303.80977,0.00031
1301.88106,0.00027
1299.95235,0.00023
1298.02363,0.00030
1296.09492,0.00053
1294.16621,0.00078
1292.23750,0.00081
1290.30878,0.00056
1288.38007,0.00028
1286.45136,0.00020
1284.52264,0.00026
1282.59393,0.00029
1280.66522,0.00029
1278.73651,0.00024
1276.80779,0.00019
1274.87908,0.00004
1272.95037,0.00001
1271.02166,0.00014
1269.09294,0.00020
1267.16423,0.00015
1265.23552,0.00027
1263.30681,0.00047
1261.37809,0.00063
1259.44938,0.00061
1257.52067,0.00046
1255.59195,0.00031
1253.66324,0.00019
1251.73453,0.00005
1249.80582,0.00007
1247.87710,0.00027
1245.94839,0.00034
1244.01968,0.00018
1242.09097,0.00015
1240.16225,0.00026
1238.23354,0.00031
1236.30483,0.00027
1234.37612,0.00037
1232.44740,0.00055
1230.51869,0.00058
1228.58998,0.00035
1226.66126,0.00036
1224.73255,0.00036
1222.80384,0.00076
1220.87513,0.00154
1218.94641,0.00240
1217.01770,0.00303
1215.08899,0.00318
1213.16028,0.00283
1211.23156,0.00249
1209.30285,0.00248
1207.37414,0.00247
1205.44542,0.00214
1203.51671,0.00176
1201.58800,0.00157
1199.65929,0.00155
1197.73057,0.00182
1195.80186,0.00249
1193.87315,0.00335
1191.94444,0.00439
1190.01572,0.00577
1188.08701,0.00768
1186.15830,0.01008
1184.22959,0.01254
1182.30087,0.01429
1180.37216,0.01446
1178.44345,0.01271
1176.51473,0.00972
1174.58602,0.00684
1172.65731,0.00522
1170.72860,0.00521
1168.79988,0.00623
1166.87117,0.00744
1164.94246,0.00825
1163.01375,0.00841
1161.08503,0.00803
1159.15632,0.00743
1157.22761,0.00683
1155.29890,0.00627
1153.37018,0.00577
1151.44147,0.00527
1149.51276,0.00474
1147.58404,0.00436
1145.65533,0.00431
1143.72662,0.00429
1141.79791,0.00386
1139.86919,0.00294
1137.94048,0.00192
1136.01177,0.00117
1134.08306,0.00067
1132.15434,0.00030
1130.22563,0.00029
1128.29692,0.00054
1126.36821,0.00065
1124.43949,0.00047
1122.51078,0.00062
1120.58207,0.00115
1118.65335,0.00132
1116.72464,0.00089
1114.79593,0.00061
1112.86722,0.00064
1110.93850,0.00061
1109.00979,0.00055
1107.08108,0.00044
1105.15237,-0.00006
1103.22365,0.00003
1101.29494,0.00051
1099.36623,0.00090
1097.43751,0.00096
1095.50880,0.00088
1093.58009,0.00092
1091.65138,0.00095
1089.72266,0.00092
1087.79395,0.00097
1085.86524,0.00089
1083.93653,0.00071
1082.00781,0.00076
1080.07910,0.00112
1078.15039,0.00152
1076.22168,0.00222
1074.29296,0.00391
1072.36425,0.00626
1070.43554,0.00826
1068.50682,0.00974
1066.57811,0.01135
1064.64940,0.01318
1062.72069,0.01496
1060.79197,0.01686
1058.86326,0.01893
1056.93455,0.02092
1055.00584,0.02281
1053.07712,0.02456
1051.14841,0.02608
1049.21970,0.02709
1047.29099,0.02740
1045.36227,0.02720
1043.43356,0.02666
1041.50485,0.02568
1039.57613,0.02425
1037.64742,0.02252
1035.71871,0.02047
1033.79000,0.01811
1031.86128,0.01533
1029.93257,0.01222
1028.00386,0.00910
1026.07515,0.00600
1024.14643,0.00309
1022.21772,0.00109
1020.28901,0.00035
1018.36029,0.00031
1016.43158,0.00058
1014.50287,0.00195
1012.57416,0.00470
1010.64544,0.00772
1008.71673,0.00953
1006.78802,0.00958
1004.85931,0.00855
1002.93059,0.00719
1001.00188,0.00577
999.07317,0.00450
997.14446,0.00353
995.21574,0.00278
993.28703,0.00219
991.35832,0.00174
989.42960,0.00131
987.50089,0.00089
985.57218,0.00052
983.64347,0.00038
981.71475,0.00056
979.78604,0.00055
977.85733,0.00023
975.92862,0.00008
973.99990,0.00024
972.07119,0.00063
970.14248,0.00092
968.21377,0.00089
966.28505,0.00059
964.35634,0.00021
962.42763,0.00002
960.49891,0.00023
958.57020,0.00010
956.64149,0.00021
954.71278,0.00032
952.78406,0.00050
950.85535,0.00053
948.92664,0.00044
946.99793,0.00040
945.06921,0.00047
943.14050,0.00050
941.21179,0.00063
939.28308,0.00099
937.35436,0.00148
935.42565,0.00184
933.49694,0.00210
931.56822,0.00256
929.63951,0.00318
927.71080,0.00355
925.78209,0.00360
923.85337,0.00366
921.92466,0.00420
919.99595,0.00561
918.06724,0.00772
916.13852,0.00980
914.20981,0.01143
912.28110,0.01293
910.35238,0.01457
908.42367,0.01624
906.49496,0.01812
904.56625,0.02079
902.63753,0.02434
900.70882,0.02785
898.78011,0.03064
896.85140,0.03327
894.92268,0.03662
892.99397,0.04092
891.06526,0.04556
889.13655,0.04891
887.20783,0.04900
885.27912,0.04448
883.35041,0.03524
881.42169,0.02327
879.49298,0.01215
877.56427,0.00482
875.63556,0.00180
873.70684,0.00200
871.77813,0.00513
869.84942,0.01154
867.92071,0.02005
865.99199,0.02810
864.06328,0.03415
862.13457,0.03822
860.20586,0.04082
858.27714,0.04213
856.34843,0.04225
854.41972,0.04169
852.49100,0.04110
850.56229,0.04092
848.63358,0.04106
846.70487,0.04100
844.77615,0.04057
842.84744,0.03981
840.91873,0.03821
838.99002,0.03540
837.06130,0.03200
835.13259,0.02923
833.20388,0.02849
831.27516,0.03138
829.34645,0.03959
827.41774,0.05426
825.48903,0.07485
823.56031,0.09869
821.63160,0.12198
819.70289,0.14142
817.77418,0.15556
815.84546,0.16461
813.91675,0.16948
811.98804,0.17140
810.05933,0.17176
808.13061,0.17189
806.20190,0.17313
804.27319,0.17652
802.34447,0.18045
800.41576,0.17643
798.48705,0.15527
796.55834,0.12728
794.62962,0.11712
792.70091,0.12828
790.77220,0.13947
788.84349,0.13642
786.91477,0.12314
784.98606,0.10901
783.05735,0.09955
781.12864,0.09539
779.19992,0.09350
777.27121,0.08967
775.34250,0.08168
773.41378,0.07128
771.48507,0.06277
769.55636,0.05939
767.62765,0.06177
765.69893,0.07004
763.77022,0.08570
761.84151,0.10872
759.91280,0.13462
757.98408,0.15701
756.05537,0.17131
754.12666,0.17560
752.19795,0.16977
750.26923,0.15459
748.34052,0.13111
746.41181,0.10108
744.48309,0.06829
742.55438,0.03854
740.62567,0.01705
738.69696,0.00531
736.76824,0.00093
734.83953,0.00013
732.91082,0.00021
730.98211,0.00039
729.05339,0.00051
727.12468,0.00020
725.19597,0.00118
723.26725,0.00536
721.33854,0.01255
719.40983,0.02002
717.48112,0.02401
715.55240,0.02317
713.62369,0.01918
711.69498,0.01433
709.76627,0.00979
707.83755,0.00612
705.90884,0.00372
703.98013,0.00257
702.05142,0.00200
700.12270,0.00142
698.19399,0.00115
696.26528,0.00141
694.33656,0.00160
692.40785,0.00130
690.47914,0.00075
688.55043,0.00056
686.62171,0.00122
684.69300,0.00185
682.76429,0.00169
680.83558,0.00154
678.90686,0.00219
676.97815,0.00348
675.04944,0.00518
673.12073,0.00719
671.19201,0.00930
669.26330,0.01273
667.33459,0.01877
665.40587,0.02355
663.47716,0.02481
661.54845,0.02317
659.61974,0.01917
657.69102,0.01381
655.76231,0.00871
653.83360,0.00527
651.90489,0.00357
649.97617,0.00248
648.04746,0.00149
646.11875,0.00096
644.19004,0.00108
642.26132,0.00130
640.33261,0.00195
638.40390,0.00243
636.47518,0.00220
634.54647,0.00155
632.61776,0.00130
630.68905,0.00099
628.76033,0.00136
626.83162,0.00187
624.90291,0.00194
622.97420,0.00148
621.04548,0.00105
619.11677,0.00067
617.18806,0.00153
615.25934,0.00237
613.33063,0.00246
611.40192,0.00214
609.47321,0.00215
607.54449,0.00241
605.61578,0.00213
603.68707,0.00014
601.75836,-0.00025
599.82964,0.00447
