7497.19974,0.08715
7495.27095,0.09514
7493.34216,0.10992
7491.41337,0.11569
7489.48459,0.10884
7487.55580,0.10043
7485.62701,0.09611
7483.69822,0.09286
7481.76943,0.09048
7479.84065,0.09105
7477.91186,0.09201
7475.98307,0.09259
7474.05428,0.09506
7472.12549,0.10187
7470.19670,0.10869
7468.26792,0.10712
7466.33913,0.10016
7464.41034,0.09685
7462.48155,0.09770
7460.55276,0.09899
7458.62398,0.10159
7456.69519,0.10512
7454.76640,0.10337
7452.83761,0.09612
7450.90882,0.08986
7448.98003,0.08904
7447.05125,0.09444
7445.12246,0.10226
7443.19367,0.10705
7441.26488,0.10732
7439.33609,0.10428
7437.40731,0.10177
7435.47852,0.10438
7433.54973,0.10878
7431.62094,0.10842
7429.69215,0.10565
7427.76336,0.10323
7425.83458,0.10130
7423.90579,0.10353
7421.97700,0.10784
7420.04821,0.10848
7418.11942,0.10705
7416.19063,0.10658
7414.26185,0.10924
7412.33306,0.11323
7410.40427,0.11349
7408.47548,0.11024
7406.54669,0.10642
7404.61791,0.10256
7402.68912,0.09792
7400.76033,0.09271
7398.83154,0.09045
7396.90275,0.09022
7394.97396,0.09126
7393.04518,0.09748
7391.11639,0.10451
7389.18760,0.10600
7387.25881,0.10306
7385.33002,0.09888
7383.40124,0.09757
7381.47245,0.09937
7379.54366,0.10087
7377.61487,0.10140
7375.68608,0.10283
7373.75729,0.10446
7371.82851,0.10231
7369.89972,0.09940
7367.97093,0.10220
7366.04214,0.10637
7364.11335,0.10706
7362.18457,0.10587
7360.25578,0.10439
7358.32699,0.10362
7356.39820,0.10208
7354.46941,0.09889
7352.54062,0.09571
7350.61184,0.09275
7348.68305,0.09310
7346.75426,0.09954
7344.82547,0.10735
7342.89668,0.11046
7340.96790,0.10945
7339.03911,0.10783
7337.11032,0.10617
7335.18153,0.10597
7333.25274,0.10821
7331.32395,0.11001
7329.39517,0.11068
7327.46638,0.10934
7325.53759,0.10424
7323.60880,0.09821
7321.68001,0.09245
7319.75122,0.08737
7317.82244,0.08837
7315.89365,0.09345
7313.96486,0.09373
7312.03607,0.09068
7310.10728,0.09214
7308.17850,0.09854
7306.24971,0.10420
7304.32092,0.10259
7302.39213,0.09742
7300.46334,0.09502
7298.53455,0.09559
7296.60577,0.09665
7294.67698,0.09500
7292.74819,0.09177
7290.81940,0.09116
7288.89061,0.09059
7286.96183,0.08901
7285.03304,0.08825
7283.10425,0.08808
7281.17546,0.08933
7279.24667,0.09760
7277.31788,0.11147
7275.38910,0.11847
7273.46031,0.11303
7271.53152,0.10540
7269.60273,0.10391
7267.67394,0.10430
7265.74516,0.10290
7263.81637,0.10154
7261.88758,0.09878
7259.95879,0.09470
7258.03000,0.09161
7256.10121,0.09124
7254.17243,0.09356
7252.24364,0.09539
7250.31485,0.09699
7248.38606,0.09902
7246.45727,0.09714
7244.52848,0.09492
7242.59970,0.09919
7240.67091,0.10509
7238.74212,0.10557
7236.81333,0.10322
7234.88454,0.09970
7232.95576,0.09586
7231.02697,0.09561
7229.09818,0.09658
7227.16939,0.09562
7225.24060,0.09564
7223.31181,0.09878
7221.38303,0.10350
7219.45424,0.10471
7217.52545,0.10017
7215.59666,0.09341
7213.66787,0.08649
7211.73909,0.08255
7209.81030,0.08679
7207.88151,0.09605
7205.95272,0.10221
7204.02393,0.10219
7202.09514,0.09865
7200.16636,0.09604
7198.23757,0.09536
7196.30878,0.09441
7194.37999,0.09367
7192.45120,0.09512
7190.52242,0.09986
7188.59363,0.10662
7186.66484,0.11127
7184.73605,0.11198
7182.80726,0.11001
7180.87847,0.10537
7178.94969,0.09896
7177.02090,0.09394
7175.09211,0.09235
7173.16332,0.09298
7171.23453,0.09478
7169.30575,0.09779
7167.37696,0.09998
7165.44817,0.10219
7163.51938,0.10633
7161.59059,0.10804
7159.66180,0.10546
7157.73302,0.10129
7155.80423,0.09840
7153.87544,0.09999
7151.94665,0.10262
7150.01786,0.09997
7148.08907,0.09508
7146.16029,0.09511
7144.23150,0.09852
7142.30271,0.09961
7140.37392,0.09823
7138.44513,0.09565
7136.51635,0.09639
7134.58756,0.10211
7132.65877,0.10403
7130.72998,0.09992
7128.80119,0.09689
7126.87240,0.09514
7124.94362,0.09314
7123.01483,0.09342
7121.08604,0.09518
7119.15725,0.09747
7117.22846,0.10007
7115.29968,0.09856
7113.37089,0.09555
7111.44210,0.09699
7109.51331,0.09951
7107.58452,0.09706
7105.65573,0.09363
7103.72695,0.09530
7101.79816,0.09841
7099.86937,0.09783
7097.94058,0.09395
7096.01179,0.08986
7094.08301,0.09176
7092.15422,0.10036
7090.22543,0.10700
7088.29664,0.10645
7086.36785,0.10247
7084.43906,0.10100
7082.51028,0.10579
7080.58149,0.11128
7078.65270,0.10843
7076.72391,0.10235
7074.79512,0.10060
7072.86634,0.09877
7070.93755,0.09501
7069.00876,0.09313
7067.07997,0.09281
7065.15118,0.09499
7063.22239,0.09982
7061.29361,0.10132
7059.36482,0.09958
7057.43603,0.10050
7055.50724,0.10363
7053.57845,0.10597
7051.64966,0.10702
7049.72088,0.10582
7047.79209,0.10246
7045.86330,0.09878
7043.93451,0.09505
7042.00572,0.09274
7040.07694,0.09598
7038.14815,0.10230
7036.21936,0.10449
7034.29057,0.10313
7032.36178,0.10270
7030.43299,0.10196
7028.50421,0.09851
7026.57542,0.09349
7024.64663,0.09125
7022.71784,0.09369
7020.78905,0.09726
7018.86027,0.10067
7016.93148,0.10344
7015.00269,0.10329
7013.07390,0.10228
7011.14511,0.10310
7009.21632,0.10481
7007.28754,0.10483
7005.35875,0.10333
7003.42996,0.10278
7001.50117,0.10305
6999.57238,0.10383
6997.64360,0.10559
6995.71481,0.10541
6993.78602,0.10361
6991.85723,0.10308
6989.92844,0.10337
6987.99965,0.10394
6986.07087,0.10540
6984.14208,0.10681
6982.21329,0.10789
6980.28450,0.10724
6978.35571,0.10297
6976.42692,0.09877
6974.49814,0.09883
6972.56935,0.10201
6970.64056,0.10689
6968.71177,0.11091
6966.78298,0.10972
6964.85420,0.10414
6962.92541,0.09968
6960.99662,0.09866
6959.06783,0.10010
6957.13904,0.10337
6955.21025,0.10569
6953.28147,0.10295
6951.35268,0.09801
6949.42389,0.09579
6947.49510,0.09576
6945.56631,0.09621
6943.63753,0.09730
6941.70874,0.09958
6939.77995,0.10141
6937.85116,0.09947
6935.92237,0.09639
6933.99358,0.09733
6932.06480,0.09904
6930.13601,0.09658
6928.20722,0.09283
6926.27843,0.09274
6924.34964,0.09596
6922.42086,0.09715
6920.49207,0.09533
6918.56328,0.09578
6916.63449,0.09956
6914.70570,0.10267
6912.77691,0.10312
6910.84813,0.10069
6908.91934,0.09644
6906.99055,0.09334
6905.06176,0.09364
6903.13297,0.09698
6901.20419,0.10056
6899.27540,0.10223
6897.34661,0.10316
6895.41782,0.10416
6893.48903,0.10434
6891.56024,0.10425
6889.63146,0.10388
6887.70267,0.10143
6885.77388,0.09844
6883.84509,0.09863
6881.91630,0.10026
6879.98751,0.09943
6878.05873,0.09689
6876.12994,0.09338
6874.20115,0.08922
6872.27236,0.08981
6870.34357,0.09680
6868.41479,0.10303
6866.48600,0.10535
6864.55721,0.10554
6862.62842,0.10317
6860.69963,0.09970
6858.77084,0.09904
6856.84206,0.10094
6854.91327,0.10082
6852.98448,0.09819
6851.05569,0.09801
6849.12690,0.10116
6847.19812,0.10506
6845.26933,0.10728
6843.34054,0.10639
6841.41175,0.10578
6839.48296,0.10654
6837.55417,0.10510
6835.62539,0.10324
6833.69660,0.10283
6831.76781,0.10167
6829.83902,0.10004
6827.91023,0.09923
6825.98145,0.09985
6824.05266,0.10280
6822.12387,0.10614
6820.19508,0.10624
6818.26629,0.10344
6816.33750,0.10118
6814.40872,0.09919
6812.47993,0.09624
6810.55114,0.09549
6808.62235,0.09901
6806.69356,0.10303
6804.76478,0.10280
6802.83599,0.09819
6800.90720,0.09427
6798.97841,0.09440
6797.04962,0.09657
6795.12083,0.09754
6793.19205,0.09666
6791.26326,0.09645
6789.33447,0.09735
6787.40568,0.09743
6785.47689,0.10010
6783.54810,0.10556
6781.61932,0.10707
6779.69053,0.10506
6777.76174,0.10531
6775.83295,0.10733
6773.90416,0.10627
6771.97538,0.10192
6770.04659,0.09940
6768.11780,0.10014
6766.18901,0.10048
6764.26022,0.09906
6762.33143,0.09742
6760.40265,0.09703
6758.47386,0.09919
6756.54507,0.10270
6754.61628,0.10482
6752.68749,0.10506
6750.75871,0.10552
6748.82992,0.10814
6746.90113,0.11167
6744.97234,0.11264
6743.04355,0.11096
6741.11476,0.10835
6739.18598,0.10423
6737.25719,0.09984
6735.32840,0.09886
6733.39961,0.10055
6731.47082,0.10045
6729.54204,0.09792
6727.61325,0.09639
6725.68446,0.09633
6723.75567,0.09606
6721.82688,0.09526
6719.89809,0.09484
6717.96931,0.09631
6716.04052,0.09907
6714.11173,0.10110
6712.18294,0.10160
6710.25415,0.10155
6708.32536,0.10260
6706.39658,0.10299
6704.46779,0.10202
6702.53900,0.10250
6700.61021,0.10272
6698.68142,0.10050
6696.75264,0.09906
6694.82385,0.09877
6692.89506,0.09825
6690.96627,0.10018
6689.03748,0.10379
6687.10869,0.10412
6685.17991,0.10176
6683.25112,0.10045
6681.32233,0.10029
6679.39354,0.10013
6677.46475,0.10051
6675.53597,0.10184
6673.60718,0.10346
6671.67839,0.10362
6669.74960,0.10133
6667.82081,0.09907
6665.89202,0.09962
6663.96324,0.10141
6662.03445,0.10308
6660.10566,0.10604
6658.17687,0.10781
6656.24808,0.10570
6654.31930,0.10348
6652.39051,0.10221
6650.46172,0.10039
6648.53293,0.10000
6646.60414,0.10064
6644.67535,0.10104
6642.74657,0.10190
6640.81778,0.10113
6638.88899,0.09873
6636.96020,0.09842
6635.03141,0.10107
6633.10263,0.10381
6631.17384,0.10393
6629.24505,0.10148
6627.31626,0.09954
6625.38747,0.09941
6623.45868,0.09971
6621.52990,0.10047
6619.60111,0.10088
6617.67232,0.09905
6615.74353,0.09739
6613.81474,0.09681
6611.88595,0.09655
6609.95717,0.09876
6608.02838,0.10209
6606.09959,0.10339
6604.17080,0.10413
6602.24201,0.10523
6600.31323,0.10491
6598.38444,0.10282
6596.45565,0.10141
6594.52686,0.10219
6592.59807,0.10399
6590.66928,0.10512
6588.74050,0.10522
6586.81171,0.10390
6584.88292,0.10092
6582.95413,0.09917
6581.02534,0.10099
6579.09656,0.10337
6577.16777,0.10315
6575.23898,0.10185
6573.31019,0.10182
6571.38140,0.10215
6569.45261,0.10212
6567.52383,0.10310
6565.59504,0.10509
6563.66625,0.10585
6561.73746,0.10549
6559.80867,0.10654
6557.87989,0.10806
6555.95110,0.10721
6554.02231,0.10560
6552.09352,0.10456
6550.16473,0.10134
6548.23594,0.09649
6546.30716,0.09472
6544.37837,0.09614
6542.44958,0.09698
6540.52079,0.09721
6538.59200,0.09895
6536.66322,0.10118
6534.73443,0.10269
6532.80564,0.10443
6530.87685,0.10534
6528.94806,0.10432
6527.01927,0.10364
6525.09049,0.10360
6523.16170,0.10293
6521.23291,0.10262
6519.30412,0.10259
6517.37533,0.10169
6515.44654,0.10009
6513.51776,0.09862
6511.58897,0.09819
6509.66018,0.09866
6507.73139,0.09997
6505.80260,0.10240
6503.87382,0.10501
6501.94503,0.10737
6500.01624,0.10896
6498.08745,0.10848
6496.15866,0.10580
6494.22987,0.10324
6492.30109,0.10325
6490.37230,0.10356
6488.44351,0.10145
6486.51472,0.09951
6484.58593,0.10004
6482.65715,0.10184
6480.72836,0.10380
6478.79957,0.10586
6476.87078,0.10728
6474.94199,0.10646
6473.01320,0.10319
6471.08442,0.09977
6469.15563,0.09755
6467.22684,0.09604
6465.29805,0.09609
6463.36926,0.09807
6461.44048,0.10014
6459.51169,0.10093
6457.58290,0.10075
6455.65411,0.09938
6453.72532,0.09688
6451.79653,0.09558
6449.86775,0.09666
6447.93896,0.09944
6446.01017,0.10280
6444.08138,0.10404
6442.15259,0.10280
6440.22380,0.10161
6438.29502,0.10167
6436.36623,0.10296
6434.43744,0.10416
6432.50865,0.10466
6430.57986,0.10580
6428.65108,0.10573
6426.72229,0.10201
6424.79350,0.09697
6422.86471,0.09502
6420.93592,0.09720
6419.00713,0.10044
6417.07835,0.10237
6415.14956,0.10302
6413.22077,0.10273
6411.29198,0.10248
6409.36319,0.10322
6407.43441,0.10440
6405.50562,0.10493
6403.57683,0.10475
6401.64804,0.10411
6399.71925,0.10304
6397.79046,0.10171
6395.86168,0.10110
6393.93289,0.10121
6392.00410,0.10041
6390.07531,0.09930
6388.14652,0.10005
6386.21774,0.10273
6384.28895,0.10620
6382.36016,0.10849
6380.43137,0.10857
6378.50258,0.10771
6376.57379,0.10739
6374.64501,0.10815
6372.71622,0.10952
6370.78743,0.10881
6368.85864,0.10506
6366.92985,0.10185
6365.00107,0.10098
6363.07228,0.10152
6361.14349,0.10215
6359.21470,0.10009
6357.28591,0.09686
6355.35712,0.09741
6353.42834,0.10073
6351.49955,0.10141
6349.57076,0.09896
6347.64197,0.09793
6345.71318,0.09939
6343.78439,0.10021
6341.85561,0.10016
6339.92682,0.10077
6337.99803,0.10135
6336.06924,0.10158
6334.14045,0.10202
6332.21167,0.10130
6330.28288,0.09917
6328.35409,0.09833
6326.42530,0.10011
6324.49651,0.10270
6322.56772,0.10341
6320.63894,0.10201
6318.71015,0.10173
6316.78136,0.10343
6314.85257,0.10445
6312.92378,0.10400
6310.99500,0.10220
6309.06621,0.09978
6307.13742,0.09929
6305.20863,0.10076
6303.27984,0.10234
6301.35105,0.10387
6299.42227,0.10509
6297.49348,0.10489
6295.56469,0.10312
6293.63590,0.10084
6291.70711,0.09993
6289.77833,0.10101
6287.84954,0.10248
6285.92075,0.10267
6283.99196,0.10080
6282.06317,0.09870
6280.13438,0.09954
6278.20560,0.10194
6276.27681,0.10253
6274.34802,0.10165
6272.41923,0.10118
6270.49044,0.10224
6268.56165,0.10437
6266.63287,0.10562
6264.70408,0.10482
6262.77529,0.10306
6260.84650,0.10258
6258.91771,0.10335
6256.98893,0.10352
6255.06014,0.10289
6253.13135,0.10179
6251.20256,0.09995
6249.27377,0.09834
6247.34498,0.09851
6245.41620,0.10068
6243.48741,0.10342
6241.55862,0.10473
6239.62983,0.10356
6237.70104,0.10156
6235.77226,0.10066
6233.84347,0.10091
6231.91468,0.10188
6229.98589,0.10214
6228.05710,0.10168
6226.12831,0.10234
6224.19953,0.10275
6222.27074,0.10093
6220.34195,0.09869
6218.41316,0.09919
6216.48437,0.10254
6214.55559,0.10495
6212.62680,0.10409
6210.69801,0.10235
6208.76922,0.10228
6206.84043,0.10329
6204.91164,0.10296
6202.98286,0.10104
6201.05407,0.10013
6199.12528,0.10090
6197.19649,0.10217
6195.26770,0.10307
6193.33892,0.10214
6191.41013,0.10049
6189.48134,0.10080
6187.55255,0.10185
6185.62376,0.10151
6183.69497,0.10074
6181.76619,0.10001
6179.83740,0.09903
6177.90861,0.09950
6175.97982,0.10167
6174.05103,0.10301
6172.12224,0.10325
6170.19346,0.10344
6168.26467,0.10167
6166.33588,0.09783
6164.40709,0.09660
6162.47830,0.09899
6160.54952,0.10112
6158.62073,0.10158
6156.69194,0.10164
6154.76315,0.10170
6152.83436,0.10192
6150.90557,0.10318
6148.97679,0.10414
6147.04800,0.10273
6145.11921,0.10034
6143.19042,0.09997
6141.26163,0.10184
6139.33285,0.10275
6137.40406,0.10109
6135.47527,0.09899
6133.54648,0.09894
6131.61769,0.10127
6129.68890,0.10356
6127.76012,0.10314
6125.83133,0.10034
6123.90254,0.09787
6121.97375,0.09808
6120.04496,0.10012
6118.11618,0.10140
6116.18739,0.10166
6114.25860,0.10288
6112.32981,0.10450
6110.40102,0.10472
6108.47223,0.10433
6106.54345,0.10420
6104.61466,0.10402
6102.68587,0.10304
6100.75708,0.10129
6098.82829,0.10046
6096.89951,0.10039
6094.97072,0.09993
6093.04193,0.09975
6091.11314,0.10052
6089.18435,0.10112
6087.25556,0.10075
6085.32678,0.10116
6083.39799,0.10233
6081.46920,0.10242
6079.54041,0.10224
6077.61162,0.10176
6075.68283,0.09993
6073.75405,0.09887
6071.82526,0.10049
6069.89647,0.10263
6067.96768,0.10207
6066.03889,0.09922
6064.11011,0.09790
6062.18132,0.09973
6060.25253,0.10206
6058.32374,0.10278
6056.39495,0.10275
6054.46616,0.10276
6052.53738,0.10233
6050.60859,0.10145
6048.67980,0.10143
6046.75101,0.10205
6044.82222,0.10140
6042.89344,0.09961
6040.96465,0.09802
6039.03586,0.09788
6037.10707,0.09940
6035.17828,0.10042
6033.24949,0.10025
6031.32071,0.09984
6029.39192,0.09937
6027.46313,0.09903
6025.53434,0.09803
6023.60555,0.09621
6021.67677,0.09547
6019.74798,0.09579
6017.81919,0.09578
6015.89040,0.09640
6013.96161,0.09900
6012.03282,0.10148
6010.10404,0.10171
6008.17525,0.10137
6006.24646,0.10174
6004.31767,0.10157
6002.38888,0.09996
6000.46009,0.09749
5998.53131,0.09647
5996.60252,0.09857
5994.67373,0.10115
5992.74494,0.10076
5990.81615,0.09872
5988.88737,0.09850
5986.95858,0.10021
5985.02979,0.10133
5983.10100,0.10071
5981.17221,0.09963
5979.24342,0.09903
5977.31464,0.09795
5975.38585,0.09666
5973.45706,0.09761
5971.52827,0.10075
5969.59948,0.10294
5967.67070,0.10260
5965.74191,0.10092
5963.81312,0.09917
5961.88433,0.09798
5959.95554,0.09829
5958.02675,0.09944
5956.09797,0.09999
5954.16918,0.10100
5952.24039,0.10231
5950.31160,0.10180
5948.38281,0.10042
5946.45403,0.09946
5944.52524,0.09801
5942.59645,0.09643
5940.66766,0.09642
5938.73887,0.09753
5936.81008,0.09814
5934.88130,0.09840
5932.95251,0.09843
5931.02372,0.09750
5929.09493,0.09659
5927.16614,0.09692
5925.23736,0.09783
5923.30857,0.09844
5921.37978,0.09829
5919.45099,0.09693
5917.52220,0.09542
5915.59341,0.09550
5913.66463,0.09664
5911.73584,0.09734
5909.80705,0.09794
5907.87826,0.09858
5905.94947,0.09801
5904.02068,0.09648
5902.09190,0.09537
5900.16311,0.09465
5898.23432,0.09388
5896.30553,0.09295
5894.37674,0.09187
5892.44796,0.09125
5890.51917,0.09159
5888.59038,0.09205
5886.66159,0.09181
5884.73280,0.09146
5882.80401,0.09172
5880.87523,0.09209
5878.94644,0.09168
5877.01765,0.09146
5875.08886,0.09233
5873.16007,0.09241
5871.23129,0.09052
5869.30250,0.08848
5867.37371,0.08826
5865.44492,0.08984
5863.51613,0.09108
5861.58734,0.08990
5859.65856,0.08745
5857.72977,0.08700
5855.80098,0.08891
5853.87219,0.09008
5851.94340,0.08940
5850.01462,0.08891
5848.08583,0.08942
5846.15704,0.08995
5844.22825,0.08963
5842.29946,0.08829
5840.37067,0.08664
5838.44189,0.08513
5836.51310,0.08405
5834.58431,0.08320
5832.65552,0.08270
5830.72673,0.08381
5828.79795,0.08509
5826.86916,0.08454
5824.94037,0.08349
5823.01158,0.08340
5821.08279,0.08469
5819.15400,0.08682
5817.22522,0.08807
5815.29643,0.08814
5813.36764,0.08822
5811.43885,0.08838
5809.51006,0.08825
5807.58127,0.08836
5805.65249,0.08925
5803.72370,0.08995
5801.79491,0.08971
5799.86612,0.08953
5797.93733,0.08948
5796.00855,0.08849
5794.07976,0.08694
5792.15097,0.08595
5790.22218,0.08668
5788.29339,0.08931
5786.36460,0.09165
5784.43582,0.09211
5782.50703,0.09174
5780.57824,0.09170
5778.64945,0.09189
5776.72066,0.09184
5774.79188,0.09186
5772.86309,0.09253
5770.93430,0.09338
5769.00551,0.09376
5767.07672,0.09384
5765.14793,0.09444
5763.21915,0.09575
5761.29036,0.09611
5759.36157,0.09502
5757.43278,0.09401
5755.50399,0.09334
5753.57521,0.09209
5751.64642,0.09150
5749.71763,0.09286
5747.78884,0.09367
5745.86005,0.09231
5743.93126,0.09094
5742.00248,0.09022
5740.07369,0.08949
5738.14490,0.08978
5736.21611,0.09132
5734.28732,0.09217
5732.35853,0.09158
5730.42975,0.09160
5728.50096,0.09246
5726.57217,0.09205
5724.64338,0.09165
5722.71459,0.09329
5720.78581,0.09515
5718.85702,0.09576
5716.92823,0.09606
5714.99944,0.09662
5713.07065,0.09666
5711.14186,0.09548
5709.21308,0.09415
5707.28429,0.09340
5705.35550,0.09273
5703.42671,0.09243
5701.49792,0.09251
5699.56914,0.09242
5697.64035,0.09242
5695.71156,0.09296
5693.78277,0.09407
5691.85398,0.09534
5689.92519,0.09602
5687.99641,0.09553
5686.06762,0.09441
5684.13883,0.09358
5682.21004,0.09362
5680.28125,0.09444
5678.35247,0.09521
5676.42368,0.09575
5674.49489,0.09642
5672.56610,0.09710
5670.63731,0.09735
5668.70852,0.09695
5666.77974,0.09654
5664.85095,0.09631
5662.92216,0.09583
5660.99337,0.09555
5659.06458,0.09586
5657.13580,0.09640
5655.20701,0.09678
5653.27822,0.09739
5651.34943,0.09884
5649.42064,0.10002
5647.49185,0.09953
5645.56307,0.09827
5643.63428,0.09769
5641.70549,0.09793
5639.77670,0.09827
5637.84791,0.09816
5635.91912,0.09820
5633.99034,0.09810
5632.06155,0.09707
5630.13276,0.09669
5628.20397,0.09746
5626.27518,0.09770
5624.34640,0.09783
5622.41761,0.09859
5620.48882,0.09896
5618.56003,0.09854
5616.63124,0.09772
5614.70245,0.09656
5612.77367,0.09551
5610.84488,0.09548
5608.91609,0.09665
5606.98730,0.09824
5605.05851,0.09954
5603.12973,0.10010
5601.20094,0.09928
5599.27215,0.09721
5597.34336,0.09551
5595.41457,0.09531
5593.48578,0.09615
5591.55700,0.09701
5589.62821,0.09763
5587.69942,0.09844
5585.77063,0.09897
5583.84184,0.09872
5581.91306,0.09860
5579.98427,0.09898
5578.05548,0.09927
5576.12669,0.09906
5574.19790,0.09837
5572.26911,0.09757
5570.34033,0.09697
5568.41154,0.09686
5566.48275,0.09761
5564.55396,0.09873
5562.62517,0.09918
5560.69639,0.09814
5558.76760,0.09632
5556.83881,0.09592
5554.91002,0.09712
5552.98123,0.09837
5551.05244,0.09929
5549.12366,0.09976
5547.19487,0.09986
5545.26608,0.09985
5543.33729,0.09907
5541.40850,0.09799
5539.47971,0.09814
5537.55093,0.09929
5535.62214,0.09948
5533.69335,0.09831
5531.76456,0.09793
5529.83577,0.09890
5527.90699,0.09959
5525.97820,0.09981
5524.04941,0.10022
5522.12062,0.10045
5520.19183,0.09976
5518.26304,0.09866
5516.33426,0.09876
5514.40547,0.09997
5512.47668,0.10073
5510.54789,0.10071
5508.61910,0.10011
5506.69032,0.09941
5504.76153,0.09913
5502.83274,0.09869
5500.90395,0.09842
5498.97516,0.09882
5497.04637,0.09904
5495.11759,0.09934
5493.18880,0.09971
5491.26001,0.09928
5489.33122,0.09884
5487.40243,0.09879
5485.47365,0.09842
5483.54486,0.09785
5481.61607,0.09768
5479.68728,0.09797
5477.75849,0.09841
5475.82970,0.09878
5473.90092,0.09905
5471.97213,0.09933
5470.04334,0.10009
5468.11455,0.10096
5466.18576,0.10077
5464.25697,0.09996
5462.32819,0.09957
5460.39940,0.09918
5458.47061,0.09897
5456.54182,0.09954
5454.61303,0.10030
5452.68425,0.10027
5450.75546,0.09906
5448.82667,0.09736
5446.89788,0.09645
5444.96909,0.09692
5443.04030,0.09843
5441.11152,0.09964
5439.18273,0.09958
5437.25394,0.09879
5435.32515,0.09807
5433.39636,0.09775
5431.46758,0.09764
5429.53879,0.09738
5427.61000,0.09753
5425.68121,0.09844
5423.75242,0.09891
5421.82363,0.09821
5419.89485,0.09773
5417.96606,0.09861
5416.03727,0.09965
5414.10848,0.09940
5412.17969,0.09886
5410.25091,0.09932
5408.32212,0.09986
5406.39333,0.09991
5404.46454,0.09991
5402.53575,0.10000
5400.60696,0.10042
5398.67818,0.10088
5396.74939,0.10068
5394.82060,0.10015
5392.89181,0.10034
5390.96302,0.10099
5389.03424,0.10085
5387.10545,0.09999
5385.17666,0.09942
5383.24787,0.09954
5381.31908,0.10049
5379.39029,0.10190
5377.46151,0.10248
5375.53272,0.10183
5373.60393,0.10092
5371.67514,0.10020
5369.74635,0.09994
5367.81756,0.10072
5365.88878,0.10181
5363.95999,0.10207
5362.03120,0.10202
5360.10241,0.10212
5358.17362,0.10176
5356.24484,0.10121
5354.31605,0.10149
5352.38726,0.10231
5350.45847,0.10259
5348.52968,0.10205
5346.60089,0.10106
5344.67211,0.10061
5342.74332,0.10123
5340.81453,0.10171
5338.88574,0.10137
5336.95695,0.10091
5335.02817,0.10054
5333.09938,0.10007
5331.17059,0.09996
5329.24180,0.10059
5327.31301,0.10160
5325.38422,0.10229
5323.45544,0.10248
5321.52665,0.10238
5319.59786,0.10190
5317.66907,0.10110
5315.74028,0.10096
5313.81150,0.10187
5311.88271,0.10280
5309.95392,0.10305
5308.02513,0.10264
5306.09634,0.10218
5304.16755,0.10237
5302.23877,0.10261
5300.30998,0.10210
5298.38119,0.10111
5296.45240,0.10036
5294.52361,0.09971
5292.59483,0.09879
5290.66604,0.09856
5288.73725,0.09927
5286.80846,0.09940
5284.87967,0.09902
5282.95088,0.09942
5281.02210,0.10012
5279.09331,0.10025
5277.16452,0.10049
5275.23573,0.10078
5273.30694,0.10013
5271.37815,0.09914
5269.44937,0.09927
5267.52058,0.10053
5265.59179,0.10170
5263.66300,0.10188
5261.73421,0.10147
5259.80543,0.10130
5257.87664,0.10102
5255.94785,0.09999
5254.01906,0.09906
5252.09027,0.09944
5250.16148,0.10032
5248.23270,0.10058
5246.30391,0.10098
5244.37512,0.10180
5242.44633,0.10169
5240.51754,0.10074
5238.58876,0.10014
5236.65997,0.10017
5234.73118,0.10065
5232.80239,0.10156
5230.87360,0.10224
5228.94481,0.10195
5227.01603,0.10143
5225.08724,0.10158
5223.15845,0.10188
5221.22966,0.10220
5219.30087,0.10234
5217.37209,0.10197
5215.44330,0.10185
5213.51451,0.10194
5211.58572,0.10133
5209.65693,0.10043
5207.72814,0.10017
5205.79936,0.10070
5203.87057,0.10184
5201.94178,0.10305
5200.01299,0.10307
5198.08420,0.10211
5196.15541,0.10186
5194.22663,0.10234
5192.29784,0.10251
5190.36905,0.10204
5188.44026,0.10152
5186.51147,0.10168
5184.58269,0.10198
5182.65390,0.10167
5180.72511,0.10174
5178.79632,0.10263
5176.86753,0.10258
5174.93874,0.10139
5173.00996,0.10115
5171.08117,0.10196
5169.15238,0.10217
5167.22359,0.10192
5165.29480,0.10224
5163.36602,0.10279
5161.43723,0.10295
5159.50844,0.10292
5157.57965,0.10298
5155.65086,0.10297
5153.72207,0.10297
5151.79329,0.10336
5149.86450,0.10356
5147.93571,0.10280
5146.00692,0.10179
5144.07813,0.10129
5142.14935,0.10142
5140.22056,0.10209
5138.29177,0.10217
5136.36298,0.10143
5134.43419,0.10129
5132.50540,0.10174
5130.57662,0.10169
5128.64783,0.10151
5126.71904,0.10171
5124.79025,0.10205
5122.86146,0.10240
5120.93268,0.10232
5119.00389,0.10179
5117.07510,0.10147
5115.14631,0.10166
5113.21752,0.10228
5111.28873,0.10254
5109.35995,0.10181
5107.43116,0.10127
5105.50237,0.10181
5103.57358,0.10264
5101.64479,0.10289
5099.71600,0.10252
5097.78722,0.10212
5095.85843,0.10210
5093.92964,0.10190
5092.00085,0.10116
5090.07206,0.10075
5088.14328,0.10113
5086.21449,0.10153
5084.28570,0.10176
5082.35691,0.10199
5080.42812,0.10185
5078.49933,0.10173
5076.57055,0.10231
5074.64176,0.10299
5072.71297,0.10322
5070.78418,0.10311
5068.85539,0.10281
5066.92661,0.10249
5064.99782,0.10229
5063.06903,0.10224
5061.14024,0.10242
5059.21145,0.10241
5057.28266,0.10164
5055.35388,0.10074
5053.42509,0.10054
5051.49630,0.10069
5049.56751,0.10094
5047.63872,0.10152
5045.70994,0.10224
5043.78115,0.10256
5041.85236,0.10227
5039.92357,0.10190
5037.99478,0.10166
5036.06599,0.10125
5034.13721,0.10071
5032.20842,0.10037
5030.27963,0.10069
5028.35084,0.10142
5026.42205,0.10170
5024.49327,0.10170
5022.56448,0.10205
5020.63569,0.10249
5018.70690,0.10257
5016.77811,0.10267
5014.84932,0.10311
5012.92054,0.10311
5010.99175,0.10218
5009.06296,0.10118
5007.13417,0.10122
5005.20538,0.10198
5003.27659,0.10229
5001.34781,0.10224
4999.41902,0.10215
4997.49023,0.10168
4995.56144,0.10116
4993.63265,0.10116
4991.70387,0.10159
4989.77508,0.10200
4987.84629,0.10220
4985.91750,0.10238
4983.98871,0.10272
4982.05992,0.10291
4980.13114,0.10268
4978.20235,0.10257
4976.27356,0.10286
4974.34477,0.10310
4972.41598,0.10321
4970.48720,0.10344
4968.55841,0.10367
4966.62962,0.10347
4964.70083,0.10276
4962.77204,0.10232
4960.84325,0.10255
4958.91447,0.10260
4956.98568,0.10201
4955.05689,0.10153
4953.12810,0.10151
4951.19931,0.10173
4949.27053,0.10226
4947.34174,0.10291
4945.41295,0.10329
4943.48416,0.10345
4941.55537,0.10327
4939.62658,0.10272
4937.69780,0.10241
4935.76901,0.10242
4933.84022,0.10254
4931.91143,0.10316
4929.98264,0.10429
4928.05385,0.10486
4926.12507,0.10427
4924.19628,0.10337
4922.26749,0.10277
4920.33870,0.10227
4918.40991,0.10197
4916.48113,0.10211
4914.55234,0.10242
4912.62355,0.10250
4910.69476,0.10263
4908.76597,0.10299
4906.83718,0.10308
4904.90840,0.10268
4902.97961,0.10222
4901.05082,0.10203
4899.12203,0.10209
4897.19324,0.10244
4895.26446,0.10296
4893.33567,0.10341
4891.40688,0.10363
4889.47809,0.10322
4887.54930,0.10249
4885.62051,0.10255
4883.69173,0.10342
4881.76294,0.10405
4879.83415,0.10380
4877.90536,0.10305
4875.97657,0.10253
4874.04779,0.10248
4872.11900,0.10263
4870.19021,0.10295
4868.26142,0.10320
4866.33263,0.10302
4864.40384,0.10280
4862.47506,0.10297
4860.54627,0.10320
4858.61748,0.10314
4856.68869,0.10280
4854.75990,0.10215
4852.83112,0.10155
4850.90233,0.10156
4848.97354,0.10203
4847.04475,0.10239
4845.11596,0.10257
4843.18717,0.10232
4841.25839,0.10152
4839.32960,0.10129
4837.40081,0.10194
4835.47202,0.10246
4833.54323,0.10261
4831.61444,0.10258
4829.68566,0.10262
4827.75687,0.10295
4825.82808,0.10330
4823.89929,0.10319
4821.97050,0.10288
4820.04172,0.10303
4818.11293,0.10353
4816.18414,0.10396
4814.25535,0.10403
4812.32656,0.10361
4810.39777,0.10281
4808.46899,0.10206
4806.54020,0.10223
4804.61141,0.10331
4802.68262,0.10404
4800.75383,0.10380
4798.82505,0.10328
4796.89626,0.10299
4794.96747,0.10260
4793.03868,0.10214
4791.10989,0.10215
4789.18110,0.10250
4787.25232,0.10272
4785.32353,0.10266
4783.39474,0.10256
4781.46595,0.10274
4779.53716,0.10302
4777.60838,0.10312
4775.67959,0.10318
4773.75080,0.10298
4771.82201,0.10249
4769.89322,0.10235
4767.96443,0.10267
4766.03565,0.10284
4764.10686,0.10252
4762.17807,0.10229
4760.24928,0.10266
4758.32049,0.10310
4756.39170,0.10295
4754.46292,0.10248
4752.53413,0.10241
4750.60534,0.10275
4748.67655,0.10313
4746.74776,0.10337
4744.81898,0.10348
4742.89019,0.10349
4740.96140,0.10342
4739.03261,0.10345
4737.10382,0.10338
4735.17503,0.10285
4733.24625,0.10235
4731.31746,0.10238
4729.38867,0.10260
4727.45988,0.10264
4725.53109,0.10245
4723.60231,0.10191
4721.67352,0.10137
4719.74473,0.10117
4717.81594,0.10108
4715.88715,0.10115
4713.95836,0.10129
4712.02958,0.10117
4710.10079,0.10096
4708.17200,0.10075
4706.24321,0.10064
4704.31442,0.10084
4702.38564,0.10087
4700.45685,0.10049
4698.52806,0.10013
4696.59927,0.10008
4694.67048,0.10044
4692.74169,0.10082
4690.81291,0.10071
4688.88412,0.10041
4686.95533,0.10025
4685.02654,0.10003
4683.09775,0.09955
4681.16897,0.09907
4679.24018,0.09902
4677.31139,0.09946
4675.38260,0.10016
4673.45381,0.10099
4671.52502,0.10142
4669.59624,0.10104
4667.66745,0.10085
4665.73866,0.10158
4663.80987,0.10220
4661.88108,0.10200
4659.95229,0.10165
4658.02351,0.10170
4656.09472,0.10186
4654.16593,0.10174
4652.23714,0.10140
4650.30835,0.10103
4648.37957,0.10055
4646.45078,0.10003
4644.52199,0.09992
4642.59320,0.10034
4640.66441,0.10077
4638.73562,0.10080
4636.80684,0.10065
4634.87805,0.10042
4632.94926,0.09998
4631.02047,0.09954
4629.09168,0.09948
4627.16290,0.10004
4625.23411,0.10086
4623.30532,0.10116
4621.37653,0.10098
4619.44774,0.10094
4617.51895,0.10120
4615.59017,0.10146
4613.66138,0.10150
4611.73259,0.10152
4609.80380,0.10173
4607.87501,0.10178
4605.94623,0.10138
4604.01744,0.10081
4602.08865,0.10071
4600.15986,0.10122
4598.23107,0.10188
4596.30228,0.10234
4594.37350,0.10264
4592.44471,0.10271
4590.51592,0.10222
4588.58713,0.10140
4586.65834,0.10131
4584.72956,0.10217
4582.80077,0.10291
4580.87198,0.10283
4578.94319,0.10209
4577.01440,0.10116
4575.08561,0.10072
4573.15683,0.10080
4571.22804,0.10081
4569.29925,0.10078
4567.37046,0.10101
4565.44167,0.10139
4563.51288,0.10172
4561.58410,0.10174
4559.65531,0.10156
4557.72652,0.10170
4555.79773,0.10204
4553.86894,0.10209
4551.94016,0.10209
4550.01137,0.10213
4548.08258,0.10172
4546.15379,0.10130
4544.22500,0.10166
4542.29621,0.10217
4540.36743,0.10214
4538.43864,0.10181
4536.50985,0.10160
4534.58106,0.10164
4532.65227,0.10183
4530.72349,0.10197
4528.79470,0.10192
4526.86591,0.10179
4524.93712,0.10195
4523.00833,0.10228
4521.07954,0.10219
4519.15076,0.10169
4517.22197,0.10139
4515.29318,0.10125
4513.36439,0.10102
4511.43560,0.10097
4509.50682,0.10126
4507.57803,0.10139
4505.64924,0.10120
4503.72045,0.10098
4501.79166,0.10073
4499.86287,0.10025
4497.93409,0.09989
4496.00530,0.10010
4494.07651,0.10044
4492.14772,0.10030
4490.21893,0.09977
4488.29014,0.09930
4486.36136,0.09923
4484.43257,0.09951
4482.50378,0.09971
4480.57499,0.09950
4478.64620,0.09881
4476.71742,0.09801
4474.78863,0.09756
4472.85984,0.09754
4470.93105,0.09770
4469.00226,0.09808
4467.07347,0.09865
4465.14469,0.09878
4463.21590,0.09822
4461.28711,0.09756
4459.35832,0.09710
4457.42953,0.09684
4455.50075,0.09658
4453.57196,0.09610
4451.64317,0.09557
4449.71438,0.09504
4447.78559,0.09445
4445.85680,0.09418
4443.92802,0.09428
4441.99923,0.09399
4440.07044,0.09321
4438.14165,0.09277
4436.21286,0.09262
4434.28408,0.09201
4432.35529,0.09115
4430.42650,0.09041
4428.49771,0.08976
4426.56892,0.08917
4424.64013,0.08834
4422.71135,0.08722
4420.78256,0.08636
4418.85377,0.08597
4416.92498,0.08562
4414.99619,0.08493
4413.06741,0.08409
4411.13862,0.08368
4409.20983,0.08368
4407.28104,0.08348
4405.35225,0.08289
4403.42346,0.08229
4401.49468,0.08199
4399.56589,0.08171
4397.63710,0.08107
4395.70831,0.08047
4393.77952,0.08040
4391.85073,0.08052
4389.92195,0.08038
4387.99316,0.08019
4386.06437,0.08003
4384.13558,0.07971
4382.20679,0.07936
4380.27801,0.07880
4378.34922,0.07787
4376.42043,0.07704
4374.49164,0.07652
4372.56285,0.07607
4370.63406,0.07574
4368.70528,0.07537
4366.77649,0.07459
4364.84770,0.07373
4362.91891,0.07297
4360.99012,0.07218
4359.06134,0.07157
4357.13255,0.07114
4355.20376,0.07093
4353.27497,0.07104
4351.34618,0.07101
4349.41739,0.07050
4347.48861,0.06980
4345.55982,0.06939
4343.63103,0.06932
4341.70224,0.06914
4339.77345,0.06871
4337.84467,0.06844
4335.91588,0.06850
4333.98709,0.06835
4332.05830,0.06781
4330.12951,0.06756
4328.20072,0.06781
4326.27194,0.06823
4324.34315,0.06871
4322.41436,0.06920
4320.48557,0.06968
4318.55678,0.07042
4316.62800,0.07165
4314.69921,0.07299
4312.77042,0.07347
4310.84163,0.07294
4308.91284,0.07263
4306.98405,0.07327
4305.05527,0.07400
4303.12648,0.07410
4301.19769,0.07399
4299.26890,0.07410
4297.34011,0.07433
4295.41132,0.07437
4293.48254,0.07417
4291.55375,0.07388
4289.62496,0.07382
4287.69617,0.07404
4285.76738,0.07413
4283.83860,0.07383
4281.90981,0.07330
4279.98102,0.07294
4278.05223,0.07286
4276.12344,0.07274
4274.19465,0.07265
4272.26587,0.07284
4270.33708,0.07337
4268.40829,0.07391
4266.47950,0.07407
4264.55071,0.07398
4262.62193,0.07396
4260.69314,0.07416
4258.76435,0.07452
4256.83556,0.07471
4254.90677,0.07453
4252.97798,0.07412
4251.04920,0.07393
4249.12041,0.07400
4247.19162,0.07404
4245.26283,0.07414
4243.33404,0.07428
4241.40526,0.07424
4239.47647,0.07411
4237.54768,0.07405
4235.61889,0.07409
4233.69010,0.07429
4231.76131,0.07463
4229.83253,0.07489
4227.90374,0.07474
4225.97495,0.07405
4224.04616,0.07326
4222.11737,0.07284
4220.18858,0.07275
4218.25980,0.07280
4216.33101,0.07303
4214.40222,0.07322
4212.47343,0.07312
4210.54464,0.07308
4208.61586,0.07328
4206.68707,0.07341
4204.75828,0.07342
4202.82949,0.07376
4200.90070,0.07457
4198.97191,0.07508
4197.04313,0.07500
4195.11434,0.07505
4193.18555,0.07536
4191.25676,0.07533
4189.32797,0.07489
4187.39919,0.07465
4185.47040,0.07501
4183.54161,0.07553
4181.61282,0.07558
4179.68403,0.07522
4177.75524,0.07487
4175.82646,0.07452
4173.89767,0.07423
4171.96888,0.07412
4170.04009,0.07418
4168.11130,0.07435
4166.18252,0.07460
4164.25373,0.07504
4162.32494,0.07560
4160.39615,0.07599
4158.46736,0.07613
4156.53857,0.07624
4154.60979,0.07661
4152.68100,0.07709
4150.75221,0.07719
4148.82342,0.07705
4146.89463,0.07712
4144.96585,0.07739
4143.03706,0.07777
4141.10827,0.07825
4139.17948,0.07847
4137.25069,0.07843
4135.32190,0.07862
4133.39312,0.07910
4131.46433,0.07967
4129.53554,0.08015
4127.60675,0.08045
4125.67796,0.08070
4123.74917,0.08072
4121.82039,0.08009
4119.89160,0.07920
4117.96281,0.07873
4116.03402,0.07876
4114.10523,0.07900
4112.17645,0.07910
4110.24766,0.07898
4108.31887,0.07883
4106.39008,0.07865
4104.46129,0.07849
4102.53250,0.07858
4100.60372,0.07858
4098.67493,0.07821
4096.74614,0.07793
4094.81735,0.07774
4092.88856,0.07720
4090.95978,0.07637
4089.03099,0.07556
4087.10220,0.07499
4085.17341,0.07481
4083.24462,0.07496
4081.31583,0.07536
4079.38705,0.07584
4077.45826,0.07620
4075.52947,0.07654
4073.60068,0.07704
4071.67189,0.07751
4069.74311,0.07769
4067.81432,0.07781
4065.88553,0.07821
4063.95674,0.07880
4062.02795,0.07935
4060.09916,0.07968
4058.17038,0.07997
4056.24159,0.08034
4054.31280,0.08067
4052.38401,0.08101
4050.45522,0.08136
4048.52644,0.08154
4046.59765,0.08167
4044.66886,0.08212
4042.74007,0.08261
4040.81128,0.08255
4038.88249,0.08205
4036.95371,0.08182
4035.02492,0.08206
4033.09613,0.08221
4031.16734,0.08210
4029.23855,0.08213
4027.30976,0.08228
4025.38098,0.08240
4023.45219,0.08257
4021.52340,0.08275
4019.59461,0.08302
4017.66582,0.08337
4015.73704,0.08334
4013.80825,0.08290
4011.87946,0.08266
4009.95067,0.08298
4008.02188,0.08373
4006.09309,0.08442
4004.16431,0.08463
4002.23552,0.08461
4000.30673,0.08459
3998.37794,0.08443
3996.44915,0.08441
3994.52037,0.08469
3992.59158,0.08498
3990.66279,0.08547
3988.73400,0.08603
3986.80521,0.08604
3984.87642,0.08593
3982.94764,0.08634
3981.01885,0.08693
3979.09006,0.08750
3977.16127,0.08786
3975.23248,0.08763
3973.30370,0.08695
3971.37491,0.08656
3969.44612,0.08674
3967.51733,0.08724
3965.58854,0.08763
3963.65975,0.08765
3961.73097,0.08751
3959.80218,0.08757
3957.87339,0.08784
3955.94460,0.08813
3954.01581,0.08833
3952.08702,0.08830
3950.15824,0.08799
3948.22945,0.08774
3946.30066,0.08776
3944.37187,0.08785
3942.44308,0.08793
3940.51430,0.08800
3938.58551,0.08787
3936.65672,0.08763
3934.72793,0.08762
3932.79914,0.08781
3930.87035,0.08779
3928.94157,0.08747
3927.01278,0.08716
3925.08399,0.08710
3923.15520,0.08722
3921.22641,0.08758
3919.29763,0.08808
3917.36884,0.08822
3915.44005,0.08823
3913.51126,0.08855
3911.58247,0.08875
3909.65368,0.08858
3907.72490,0.08839
3905.79611,0.08843
3903.86732,0.08854
3901.93853,0.08874
3900.00974,0.08900
3898.08096,0.08897
3896.15217,0.08889
3894.22338,0.08900
3892.29459,0.08906
3890.36580,0.08894
3888.43701,0.08880
3886.50823,0.08871
3884.57944,0.08882
3882.65065,0.08903
3880.72186,0.08896
3878.79307,0.08890
3876.86429,0.08905
3874.93550,0.08912
3873.00671,0.08916
3871.07792,0.08914
3869.14913,0.08917
3867.22034,0.08941
3865.29156,0.08948
3863.36277,0.08946
3861.43398,0.08957
3859.50519,0.08947
3857.57640,0.08889
3855.64761,0.08767
3853.71883,0.08677
3851.79004,0.08793
3849.86125,0.08910
3847.93246,0.08952
3846.00367,0.08955
3844.07489,0.08922
3842.14610,0.08881
3840.21731,0.08863
3838.28852,0.08863
3836.35973,0.08877
3834.43094,0.08900
3832.50216,0.08924
3830.57337,0.08957
3828.64458,0.08994
3826.71579,0.09021
3824.78700,0.09037
3822.85822,0.09020
3820.92943,0.08973
3819.00064,0.08979
3817.07185,0.09011
3815.14306,0.09003
3813.21427,0.08996
3811.28549,0.09022
3809.35670,0.09050
3807.42791,0.09062
3805.49912,0.09053
3803.57033,0.08999
3801.64155,0.08951
3799.71276,0.09015
3797.78397,0.09108
3795.85518,0.09153
3793.92639,0.09173
3791.99760,0.09176
3790.06882,0.09167
3788.14003,0.09168
3786.21124,0.09175
3784.28245,0.09183
3782.35366,0.09206
3780.42488,0.09238
3778.49609,0.09247
3776.56730,0.09231
3774.63851,0.09236
3772.70972,0.09267
3770.78093,0.09279
3768.85215,0.09245
3766.92336,0.09194
3764.99457,0.09152
3763.06578,0.09137
3761.13699,0.09137
3759.20820,0.09143
3757.27942,0.09169
3755.35063,0.09188
3753.42184,0.09174
3751.49305,0.09143
3749.56426,0.09154
3747.63548,0.09206
3745.70669,0.09235
3743.77790,0.09237
3741.84911,0.09267
3739.92032,0.09306
3737.99153,0.09322
3736.06275,0.09300
3734.13396,0.09254
3732.20517,0.09248
3730.27638,0.09296
3728.34759,0.09357
3726.41881,0.09403
3724.49002,0.09406
3722.56123,0.09356
3720.63244,0.09338
3718.70365,0.09397
3716.77486,0.09454
3714.84608,0.09439
3712.91729,0.09355
3710.98850,0.09285
3709.05971,0.09285
3707.13092,0.09273
3705.20214,0.09233
3703.27335,0.09196
3701.34456,0.09164
3699.41577,0.09116
3697.48698,0.09037
3695.55819,0.08953
3693.62941,0.08893
3691.70062,0.08803
3689.77183,0.08648
3687.84304,0.08548
3685.91425,0.08547
3683.98546,0.08576
3682.05668,0.08603
3680.12789,0.08598
3678.19910,0.08563
3676.27031,0.08523
3674.34152,0.08522
3672.41274,0.08563
3670.48395,0.08582
3668.55516,0.08580
3666.62637,0.08602
3664.69758,0.08628
3662.76879,0.08639
3660.84001,0.08655
3658.91122,0.08675
3656.98243,0.08658
3655.05364,0.08613
3653.12485,0.08580
3651.19607,0.08561
3649.26728,0.08599
3647.33849,0.08684
3645.40970,0.08710
3643.48091,0.08688
3641.55212,0.08662
3639.62334,0.08656
3637.69455,0.08660
3635.76576,0.08651
3633.83697,0.08649
3631.90818,0.08661
3629.97940,0.08628
3628.05061,0.08564
3626.12182,0.08566
3624.19303,0.08580
3622.26424,0.08542
3620.33545,0.08472
3618.40667,0.08434
3616.47788,0.08411
3614.54909,0.08370
3612.62030,0.08334
3610.69151,0.08297
3608.76273,0.08266
3606.83394,0.08264
3604.90515,0.08259
3602.97636,0.08231
3601.04757,0.08228
3599.11878,0.08266
3597.19000,0.08286
3595.26121,0.08255
3593.33242,0.08208
3591.40363,0.08193
3589.47484,0.08195
3587.54605,0.08162
3585.61727,0.08138
3583.68848,0.08134
3581.75969,0.08083
3579.83090,0.08015
3577.90211,0.07989
3575.97333,0.07984
3574.04454,0.07985
3572.11575,0.08008
3570.18696,0.08011
3568.25817,0.07956
3566.32938,0.07888
3564.40060,0.07840
3562.47181,0.07783
3560.54302,0.07720
3558.61423,0.07686
3556.68544,0.07703
3554.75666,0.07736
3552.82787,0.07732
3550.89908,0.07703
3548.97029,0.07676
3547.04150,0.07639
3545.11271,0.07607
3543.18393,0.07595
3541.25514,0.07577
3539.32635,0.07556
3537.39756,0.07567
3535.46877,0.07609
3533.53999,0.07622
3531.61120,0.07595
3529.68241,0.07580
3527.75362,0.07581
3525.82483,0.07600
3523.89604,0.07634
3521.96726,0.07615
3520.03847,0.07528
3518.10968,0.07453
3516.18089,0.07448
3514.25210,0.07480
3512.32332,0.07495
3510.39453,0.07489
3508.46574,0.07467
3506.53695,0.07453
3504.60816,0.07455
3502.67937,0.07437
3500.75059,0.07415
3498.82180,0.07408
3496.89301,0.07388
3494.96422,0.07351
3493.03543,0.07325
3491.10664,0.07309
3489.17786,0.07276
3487.24907,0.07220
3485.32028,0.07181
3483.39149,0.07186
3481.46270,0.07192
3479.53392,0.07145
3477.60513,0.07086
3475.67634,0.07085
3473.74755,0.07130
3471.81876,0.07141
3469.88997,0.07063
3467.96119,0.06943
3466.03240,0.06889
3464.10361,0.06918
3462.17482,0.06936
3460.24603,0.06893
3458.31725,0.06837
3456.38846,0.06818
3454.45967,0.06826
3452.53088,0.06835
3450.60209,0.06836
3448.67330,0.06802
3446.74452,0.06717
3444.81573,0.06630
3442.88694,0.06582
3440.95815,0.06554
3439.02936,0.06527
3437.10058,0.06499
3435.17179,0.06473
3433.24300,0.06459
3431.31421,0.06462
3429.38542,0.06456
3427.45663,0.06427
3425.52785,0.06414
3423.59906,0.06446
3421.67027,0.06480
3419.74148,0.06460
3417.81269,0.06441
3415.88390,0.06484
3413.95512,0.06530
3412.02633,0.06538
3410.09754,0.06557
3408.16875,0.06621
3406.23996,0.06705
3404.31118,0.06761
3402.38239,0.06776
3400.45360,0.06764
3398.52481,0.06770
3396.59602,0.06823
3394.66723,0.06885
3392.73845,0.06921
3390.80966,0.06959
3388.88087,0.06994
3386.95208,0.07002
3385.02329,0.07012
3383.09451,0.07022
3381.16572,0.07019
3379.23693,0.07047
3377.30814,0.07092
3375.37935,0.07098
3373.45056,0.07086
3371.52178,0.07110
3369.59299,0.07158
3367.66420,0.07172
3365.73541,0.07154
3363.80662,0.07154
3361.87784,0.07198
3359.94905,0.07272
3358.02026,0.07320
3356.09147,0.07301
3354.16268,0.07264
3352.23389,0.07273
3350.30511,0.07304
3348.37632,0.07311
3346.44753,0.07286
3344.51874,0.07239
3342.58995,0.07200
3340.66117,0.07201
3338.73238,0.07230
3336.80359,0.07237
3334.87480,0.07204
3332.94601,0.07175
3331.01722,0.07178
3329.08844,0.07182
3327.15965,0.07160
3325.23086,0.07132
3323.30207,0.07111
3321.37328,0.07083
3319.44449,0.07035
3317.51571,0.06977
3315.58692,0.06927
3313.65813,0.06870
3311.72934,0.06791
3309.80055,0.06694
3307.87177,0.06588
3305.94298,0.06478
3304.01419,0.06379
3302.08540,0.06326
3300.15661,0.06340
3298.22782,0.06401
3296.29904,0.06469
3294.37025,0.06534
3292.44146,0.06618
3290.51267,0.06723
3288.58388,0.06833
3286.65510,0.06926
3284.72631,0.07007
3282.79752,0.07100
3280.86873,0.07182
3278.93994,0.07225
3277.01115,0.07257
3275.08237,0.07314
3273.15358,0.07391
3271.22479,0.07454
3269.29600,0.07489
3267.36721,0.07513
3265.43843,0.07541
3263.50964,0.07576
3261.58085,0.07611
3259.65206,0.07624
3257.72327,0.07604
3255.79448,0.07571
3253.86570,0.07565
3251.93691,0.07586
3250.00812,0.07602
3248.07933,0.07599
3246.15054,0.07604
3244.22175,0.07630
3242.29297,0.07636
3240.36418,0.07611
3238.43539,0.07615
3236.50660,0.07669
3234.57781,0.07728
3232.64903,0.07719
3230.72024,0.07628
3228.79145,0.07552
3226.86266,0.07549
3224.93387,0.07572
3223.00508,0.07568
3221.07630,0.07555
3219.14751,0.07575
3217.21872,0.07605
3215.28993,0.07608
3213.36114,0.07595
3211.43236,0.07561
3209.50357,0.07506
3207.57478,0.07467
3205.64599,0.07457
3203.71720,0.07455
3201.78841,0.07450
3199.85963,0.07444
3197.93084,0.07451
3196.00205,0.07497
3194.07326,0.07549
3192.14447,0.07538
3190.21569,0.07486
3188.28690,0.07449
3186.35811,0.07427
3184.42932,0.07434
3182.50053,0.07469
3180.57174,0.07488
3178.64296,0.07482
3176.71417,0.07483
3174.78538,0.07489
3172.85659,0.07466
3170.92780,0.07426
3168.99902,0.07422
3167.07023,0.07459
3165.14144,0.07503
3163.21265,0.07530
3161.28386,0.07530
3159.35507,0.07512
3157.42629,0.07492
3155.49750,0.07480
3153.56871,0.07469
3151.63992,0.07453
3149.71113,0.07429
3147.78234,0.07401
3145.85356,0.07374
3143.92477,0.07368
3141.99598,0.07381
3140.06719,0.07376
3138.13840,0.07339
3136.20962,0.07306
3134.28083,0.07292
3132.35204,0.07278
3130.42325,0.07251
3128.49446,0.07218
3126.56567,0.07195
3124.63689,0.07181
3122.70810,0.07175
3120.77931,0.07193
3118.85052,0.07206
3116.92173,0.07187
3114.99295,0.07170
3113.06416,0.07160
3111.13537,0.07127
3109.20658,0.07080
3107.27779,0.07047
3105.34900,0.07015
3103.42022,0.06957
3101.49143,0.06884
3099.56264,0.06837
3097.63385,0.06812
3095.70506,0.06770
3093.77628,0.06727
3091.84749,0.06720
3089.91870,0.06718
3087.98991,0.06686
3086.06112,0.06640
3084.13233,0.06600
3082.20355,0.06567
3080.27476,0.06525
3078.34597,0.06479
3076.41718,0.06458
3074.48839,0.06459
3072.55961,0.06467
3070.63082,0.06467
3068.70203,0.06432
3066.77324,0.06393
3064.84445,0.06374
3062.91566,0.06360
3060.98688,0.06357
3059.05809,0.06367
3057.12930,0.06368
3055.20051,0.06352
3053.27172,0.06319
3051.34293,0.06277
3049.41415,0.06258
3047.48536,0.06270
3045.55657,0.06280
3043.62778,0.06288
3041.69899,0.06306
3039.77021,0.06310
3037.84142,0.06287
3035.91263,0.06256
3033.98384,0.06226
3032.05505,0.06195
3030.12626,0.06165
3028.19748,0.06143
3026.26869,0.06130
3024.33990,0.06108
3022.41111,0.06076
3020.48232,0.06051
3018.55354,0.06043
3016.62475,0.06025
3014.69596,0.05974
3012.76717,0.05932
3010.83838,0.05916
3008.90959,0.05888
3006.98081,0.05846
3005.05202,0.05815
3003.12323,0.05811
3001.19444,0.05825
2999.26565,0.05825
2997.33687,0.05796
2995.40808,0.05745
2993.47929,0.05697
2991.55050,0.05678
2989.62171,0.05674
2987.69292,0.05667
2985.76414,0.05655
2983.83535,0.05636
2981.90656,0.05618
2979.97777,0.05619
2978.04898,0.05633
2976.12019,0.05629
2974.19141,0.05605
2972.26262,0.05601
2970.33383,0.05632
2968.40504,0.05652
2966.47625,0.05656
2964.54747,0.05694
2962.61868,0.05781
2960.68989,0.05879
2958.76110,0.05944
2956.83231,0.05965
2954.90352,0.05968
2952.97474,0.05979
2951.04595,0.06001
2949.11716,0.06031
2947.18837,0.06022
2945.25958,0.05962
2943.33080,0.05923
2941.40201,0.05930
2939.47322,0.05938
2937.54443,0.05939
2935.61564,0.05962
2933.68685,0.06011
2931.75807,0.06063
2929.82928,0.06105
2927.90049,0.06128
2925.97170,0.06136
2924.04291,0.06151
2922.11413,0.06179
2920.18534,0.06205
2918.25655,0.06220
2916.32776,0.06220
2914.39897,0.06214
2912.47018,0.06211
2910.54140,0.06214
2908.61261,0.06225
2906.68382,0.06247
2904.75503,0.06276
2902.82624,0.06299
2900.89746,0.06304
2898.96867,0.06297
2897.03988,0.06300
2895.11109,0.06303
2893.18230,0.06278
2891.25351,0.06245
2889.32473,0.06223
2887.39594,0.06198
2885.46715,0.06170
2883.53836,0.06149
2881.60957,0.06139
2879.68078,0.06138
2877.75200,0.06135
2875.82321,0.06142
2873.89442,0.06172
2871.96563,0.06203
2870.03684,0.06211
2868.10806,0.06200
2866.17927,0.06185
2864.25048,0.06183
2862.32169,0.06197
2860.39290,0.06235
2858.46411,0.06293
2856.53533,0.06336
2854.60654,0.06345
2852.67775,0.06332
2850.74896,0.06330
2848.82017,0.06358
2846.89139,0.06383
2844.96260,0.06365
2843.03381,0.06329
2841.10502,0.06326
2839.17623,0.06346
2837.24744,0.06351
2835.31866,0.06332
2833.38987,0.06297
2831.46108,0.06263
2829.53229,0.06237
2827.60350,0.06212
2825.67472,0.06202
2823.74593,0.06214
2821.81714,0.06227
2819.88835,0.06236
2817.95956,0.06244
2816.03077,0.06251
2814.10199,0.06267
2812.17320,0.06293
2810.24441,0.06314
2808.31562,0.06328
2806.38683,0.06344
2804.45805,0.06371
2802.52926,0.06408
2800.60047,0.06446
2798.67168,0.06480
2796.74289,0.06500
2794.81410,0.06525
2792.88532,0.06573
2790.95653,0.06615
2789.02774,0.06625
2787.09895,0.06614
2785.17016,0.06615
2783.24137,0.06636
2781.31259,0.06675
2779.38380,0.06740
2777.45501,0.06804
2775.52622,0.06834
2773.59743,0.06840
2771.66865,0.06848
2769.73986,0.06858
2767.81107,0.06866
2765.88228,0.06874
2763.95349,0.06883
2762.02470,0.06904
2760.09592,0.06917
2758.16713,0.06889
2756.23834,0.06855
2754.30955,0.06867
2752.38076,0.06890
2750.45198,0.06864
2748.52319,0.06815
2746.59440,0.06797
2744.66561,0.06797
2742.73682,0.06772
2740.80803,0.06723
2738.87925,0.06689
2736.95046,0.06677
2735.02167,0.06672
2733.09288,0.06693
2731.16409,0.06755
2729.23531,0.06819
2727.30652,0.06847
2725.37773,0.06854
2723.44894,0.06872
2721.52015,0.06911
2719.59136,0.06959
2717.66258,0.07003
2715.73379,0.07038
2713.80500,0.07066
2711.87621,0.07093
2709.94742,0.07121
2708.01863,0.07150
2706.08985,0.07186
2704.16106,0.07218
2702.23227,0.07239
2700.30348,0.07242
2698.37469,0.07223
2696.44591,0.07217
2694.51712,0.07253
2692.58833,0.07287
2690.65954,0.07278
2688.73075,0.07255
2686.80196,0.07245
2684.87318,0.07244
2682.94439,0.07247
2681.01560,0.07242
2679.08681,0.07214
2677.15802,0.07180
2675.22924,0.07162
2673.30045,0.07161
2671.37166,0.07181
2669.44287,0.07218
2667.51408,0.07251
2665.58529,0.07275
2663.65651,0.07298
2661.72772,0.07318
2659.79893,0.07342
2657.87014,0.07387
2655.94135,0.07440
2654.01257,0.07465
2652.08378,0.07465
2650.15499,0.07456
2648.22620,0.07443
2646.29741,0.07453
2644.36862,0.07479
2642.43984,0.07481
2640.51105,0.07454
2638.58226,0.07419
2636.65347,0.07394
2634.72468,0.07389
2632.79590,0.07397
2630.86711,0.07402
2628.93832,0.07400
2627.00953,0.07383
2625.08074,0.07353
2623.15195,0.07337
2621.22317,0.07350
2619.29438,0.07366
2617.36559,0.07367
2615.43680,0.07361
2613.50801,0.07349
2611.57922,0.07330
2609.65044,0.07318
2607.72165,0.07320
2605.79286,0.07328
2603.86407,0.07345
2601.93528,0.07357
2600.00650,0.07348
2598.07771,0.07326
2596.14892,0.07318
2594.22013,0.07337
2592.29134,0.07356
2590.36255,0.07352
2588.43377,0.07337
2586.50498,0.07335
2584.57619,0.07341
2582.64740,0.07337
2580.71861,0.07330
2578.78983,0.07325
2576.86104,0.07309
2574.93225,0.07290
2573.00346,0.07295
2571.07467,0.07321
2569.14588,0.07353
2567.21710,0.07389
2565.28831,0.07424
2563.35952,0.07434
2561.43073,0.07415
2559.50194,0.07399
2557.57316,0.07397
2555.64437,0.07396
2553.71558,0.07396
2551.78679,0.07404
2549.85800,0.07423
2547.92921,0.07448
2546.00043,0.07481
2544.07164,0.07518
2542.14285,0.07537
2540.21406,0.07529
2538.28527,0.07513
2536.35649,0.07506
2534.42770,0.07509
2532.49891,0.07526
2530.57012,0.07557
2528.64133,0.07578
2526.71254,0.07577
2524.78376,0.07573
2522.85497,0.07576
2520.92618,0.07591
2518.99739,0.07622
2517.06860,0.07659
2515.13981,0.07687
2513.21103,0.07699
2511.28224,0.07697
2509.35345,0.07713
2507.42466,0.07766
2505.49587,0.07826
2503.56709,0.07872
2501.63830,0.07902
2499.70951,0.07908
2497.78072,0.07897
2495.85193,0.07901
2493.92314,0.07923
2491.99436,0.07953
2490.06557,0.07974
2488.13678,0.07970
2486.20799,0.07949
2484.27920,0.07932
2482.35042,0.07937
2480.42163,0.07972
2478.49284,0.08015
2476.56405,0.08039
2474.63526,0.08044
2472.70647,0.08046
2470.77769,0.08047
2468.84890,0.08047
2466.92011,0.08059
2464.99132,0.08075
2463.06253,0.08081
2461.13375,0.08077
2459.20496,0.08067
2457.27617,0.08058
2455.34738,0.08062
2453.41859,0.08081
2451.48980,0.08100
2449.56102,0.08096
2447.63223,0.08056
2445.70344,0.08014
2443.77465,0.08000
2441.84586,0.08009
2439.91707,0.08009
2437.98829,0.07984
2436.05950,0.07950
2434.13071,0.07927
2432.20192,0.07909
2430.27313,0.07897
2428.34435,0.07887
2426.41556,0.07870
2424.48677,0.07848
2422.55798,0.07805
2420.62919,0.07741
2418.70040,0.07701
2416.77162,0.07703
2414.84283,0.07714
2412.91404,0.07707
2410.98525,0.07687
2409.05646,0.07661
2407.12768,0.07631
2405.19889,0.07601
2403.27010,0.07591
2401.34131,0.07599
2399.41252,0.07599
2397.48373,0.07586
2395.55495,0.07566
2393.62616,0.07540
2391.69737,0.07518
2389.76858,0.07501
2387.83979,0.07475
2385.91101,0.07449
2383.98222,0.07432
2382.05343,0.07423
2380.12464,0.07432
2378.19585,0.07449
2376.26706,0.07462
2374.33828,0.07474
2372.40949,0.07482
2370.48070,0.07487
2368.55191,0.07494
2366.62312,0.07499
2364.69434,0.07525
2362.76555,0.07582
2360.83676,0.07632
2358.90797,0.07659
2356.97918,0.07694
2355.05039,0.07743
2353.12161,0.07780
2351.19282,0.07809
2349.26403,0.07851
2347.33524,0.07884
2345.40645,0.07888
2343.47766,0.07888
2341.54888,0.07905
2339.62009,0.07943
2337.69130,0.07997
2335.76251,0.08054
2333.83372,0.08102
2331.90494,0.08129
2329.97615,0.08135
2328.04736,0.08141
2326.11857,0.08152
2324.18978,0.08156
2322.26099,0.08162
2320.33221,0.08185
2318.40342,0.08207
2316.47463,0.08217
2314.54584,0.08229
2312.61705,0.08249
2310.68827,0.08270
2308.75948,0.08283
2306.83069,0.08272
2304.90190,0.08243
2302.97311,0.08223
2301.04432,0.08208
2299.11554,0.08195
2297.18675,0.08191
2295.25796,0.08178
2293.32917,0.08142
2291.40038,0.08102
2289.47160,0.08066
2287.54281,0.08024
2285.61402,0.07979
2283.68523,0.07940
2281.75644,0.07907
2279.82765,0.07876
2277.89887,0.07863
2275.97008,0.07882
2274.04129,0.07911
2272.11250,0.07935
2270.18371,0.07971
2268.25493,0.08007
2266.32614,0.08028
2264.39735,0.08044
2262.46856,0.08062
2260.53977,0.08078
2258.61098,0.08090
2256.68220,0.08086
2254.75341,0.08076
2252.82462,0.08069
2250.89583,0.08062
2248.96704,0.08067
2247.03825,0.08075
2245.10947,0.08063
2243.18068,0.08033
2241.25189,0.08006
2239.32310,0.07997
2237.39431,0.08009
2235.46553,0.08021
2233.53674,0.08015
2231.60795,0.08002
2229.67916,0.07997
2227.75037,0.07999
2225.82158,0.08013
2223.89280,0.08042
2221.96401,0.08076
2220.03522,0.08099
2218.10643,0.08098
2216.17764,0.08086
2214.24886,0.08084
2212.32007,0.08094
2210.39128,0.08118
2208.46249,0.08149
2206.53370,0.08175
2204.60491,0.08203
2202.67613,0.08238
2200.74734,0.08280
2198.81855,0.08331
2196.88976,0.08376
2194.96097,0.08395
2193.03219,0.08386
2191.10340,0.08365
2189.17461,0.08352
2187.24582,0.08374
2185.31703,0.08428
2183.38824,0.08478
2181.45946,0.08498
2179.53067,0.08494
2177.60188,0.08481
2175.67309,0.08477
2173.74430,0.08495
2171.81551,0.08523
2169.88673,0.08529
2167.95794,0.08507
2166.02915,0.08479
2164.10036,0.08456
2162.17157,0.08439
2160.24279,0.08436
2158.31400,0.08443
2156.38521,0.08443
2154.45642,0.08428
2152.52763,0.08409
2150.59884,0.08406
2148.67006,0.08418
2146.74127,0.08430
2144.81248,0.08434
2142.88369,0.08434
2140.95490,0.08427
2139.02612,0.08407
2137.09733,0.08385
2135.16854,0.08381
2133.23975,0.08394
2131.31096,0.08402
2129.38217,0.08394
2127.45339,0.08371
2125.52460,0.08347
2123.59581,0.08344
2121.66702,0.08361
2119.73823,0.08369
2117.80945,0.08360
2115.88066,0.08350
2113.95187,0.08343
2112.02308,0.08335
2110.09429,0.08328
2108.16550,0.08329
2106.23672,0.08329
2104.30793,0.08312
2102.37914,0.08279
2100.45035,0.08255
2098.52156,0.08259
2096.59278,0.08280
2094.66399,0.08292
2092.73520,0.08286
2090.80641,0.08268
2088.87762,0.08238
2086.94883,0.08208
2085.02005,0.08196
2083.09126,0.08193
2081.16247,0.08180
2079.23368,0.08167
2077.30489,0.08161
2075.37610,0.08158
2073.44732,0.08161
2071.51853,0.08170
2069.58974,0.08186
2067.66095,0.08200
2065.73216,0.08197
2063.80338,0.08175
2061.87459,0.08158
2059.94580,0.08168
2058.01701,0.08199
2056.08822,0.08232
2054.15943,0.08246
2052.23065,0.08254
2050.30186,0.08264
2048.37307,0.08271
2046.44428,0.08284
2044.51549,0.08302
2042.58671,0.08309
2040.65792,0.08304
2038.72913,0.08294
2036.80034,0.08295
2034.87155,0.08312
2032.94276,0.08331
2031.01398,0.08336
2029.08519,0.08333
2027.15640,0.08337
2025.22761,0.08345
2023.29882,0.08355
2021.37004,0.08362
2019.44125,0.08374
2017.51246,0.08406
2015.58367,0.08442
2013.65488,0.08444
2011.72609,0.08426
2009.79731,0.08423
2007.86852,0.08439
2005.93973,0.08452
2004.01094,0.08440
2002.08215,0.08417
2000.15336,0.08393
1998.22458,0.08375
1996.29579,0.08365
1994.36700,0.08341
1992.43821,0.08284
1990.50942,0.08218
1988.58064,0.08177
1986.65185,0.08167
1984.72306,0.08177
1982.79427,0.08188
1980.86548,0.08190
1978.93669,0.08182
1977.00791,0.08158
1975.07912,0.08113
1973.15033,0.08061
1971.22154,0.08019
1969.29275,0.07981
1967.36397,0.07914
1965.43518,0.07814
1963.50639,0.07713
1961.57760,0.07630
1959.64881,0.07552
1957.72002,0.07459
1955.79124,0.07351
1953.86245,0.07251
1951.93366,0.07173
1950.00487,0.07124
1948.07608,0.07116
1946.14730,0.07156
1944.21851,0.07225
1942.28972,0.07306
1940.36093,0.07386
1938.43214,0.07466
1936.50335,0.07547
1934.57457,0.07630
1932.64578,0.07716
1930.71699,0.07790
1928.78820,0.07847
1926.85941,0.07892
1924.93063,0.07905
1923.00184,0.07905
1921.07305,0.07931
1919.14426,0.07960
1917.21547,0.07969
1915.28668,0.07978
1913.35790,0.07984
1911.42911,0.07979
1909.50032,0.07976
1907.57153,0.07982
1905.64274,0.07995
1903.71395,0.08011
1901.78517,0.08020
1899.85638,0.08023
1897.92759,0.08036
1895.99880,0.08045
1894.07001,0.08037
1892.14123,0.08034
1890.21244,0.08045
1888.28365,0.08059
1886.35486,0.08066
1884.42607,0.08061
1882.49728,0.08049
1880.56850,0.08042
1878.63971,0.08041
1876.71092,0.08037
1874.78213,0.08030
1872.85334,0.08026
1870.92456,0.08021
1868.99577,0.08000
1867.06698,0.07964
1865.13819,0.07939
1863.20940,0.07928
1861.28061,0.07915
1859.35183,0.07886
1857.42304,0.07842
1855.49425,0.07791
1853.56546,0.07737
1851.63667,0.07680
1849.70789,0.07621
1847.77910,0.07559
1845.85031,0.07490
1843.92152,0.07399
1841.99273,0.07315
1840.06394,0.07259
1838.13516,0.07202
1836.20637,0.07125
1834.27758,0.07037
1832.34879,0.06942
1830.42000,0.06831
1828.49122,0.06731
1826.56243,0.06659
1824.63364,0.06596
1822.70485,0.06558
1820.77606,0.06559
1818.84727,0.06589
1816.91849,0.06632
1814.98970,0.06663
1813.06091,0.06674
1811.13212,0.06682
1809.20333,0.06699
1807.27454,0.06708
1805.34576,0.06699
1803.41697,0.06672
1801.48818,0.06625
1799.55939,0.06568
1797.63060,0.06522
1795.70182,0.06493
1793.77303,0.06445
1791.84424,0.06361
1789.91545,0.06307
1787.98666,0.06280
1786.05787,0.06239
1784.12909,0.06190
1782.20030,0.06147
1780.27151,0.06094
1778.34272,0.06032
1776.41393,0.05980
1774.48515,0.05936
1772.55636,0.05889
1770.62757,0.05847
1768.69878,0.05801
1766.76999,0.05743
1764.84120,0.05692
1762.91242,0.05644
1760.98363,0.05594
1759.05484,0.05554
1757.12605,0.05512
1755.19726,0.05468
1753.26848,0.05432
1751.33969,0.05390
1749.41090,0.05336
1747.48211,0.05306
1745.55332,0.05290
1743.62453,0.05247
1741.69575,0.05187
1739.76696,0.05136
1737.83817,0.05101
1735.90938,0.05063
1733.98059,0.04995
1732.05180,0.04973
1730.12302,0.05043
1728.19423,0.05159
1726.26544,0.05314
1724.33665,0.05531
1722.40786,0.05793
1720.47908,0.06047
1718.55029,0.06305
1716.62150,0.06580
1714.69271,0.06781
1712.76392,0.06893
1710.83513,0.06936
1708.90635,0.06920
1706.97756,0.06849
1705.04877,0.06730
1703.11998,0.06608
1701.19119,0.06482
1699.26241,0.06368
1697.33362,0.06302
1695.40483,0.06228
1693.47604,0.06173
1691.54725,0.06141
1689.61846,0.06114
1687.68968,0.06116
1685.76089,0.06121
1683.83210,0.06056
1681.90331,0.05998
1679.97452,0.06004
1678.04574,0.06013
1676.11695,0.05999
1674.18816,0.05979
1672.25937,0.05973
1670.33058,0.05980
1668.40179,0.06011
1666.47301,0.06052
1664.54422,0.06086
1662.61543,0.06129
1660.68664,0.06207
1658.75785,0.06292
1656.82907,0.06352
1654.90028,0.06377
1652.97149,0.06342
1651.04270,0.06305
1649.11391,0.06280
1647.18512,0.06214
1645.25634,0.06146
1643.32755,0.06104
1641.39876,0.06057
1639.46997,0.06026
1637.54118,0.06014
1635.61239,0.05993
1633.68361,0.06014
1631.75482,0.06097
1629.82603,0.06197
1627.89724,0.06289
1625.96845,0.06348
1624.03967,0.06353
1622.11088,0.06330
1620.18209,0.06329
1618.25330,0.06319
1616.32451,0.06246
1614.39572,0.06166
1612.46694,0.06138
1610.53815,0.06155
1608.60936,0.06199
1606.68057,0.06233
1604.75178,0.06267
1602.82300,0.06331
1600.89421,0.06396
1598.96542,0.06424
1597.03663,0.06425
1595.10784,0.06411
1593.17905,0.06373
1591.25027,0.06333
1589.32148,0.06308
1587.39269,0.06270
1585.46390,0.06180
1583.53511,0.06041
1581.60633,0.05910
1579.67754,0.05830
1577.74875,0.05784
1575.81996,0.05771
1573.89117,0.05811
1571.96238,0.05875
1570.03360,0.05932
1568.10481,0.05963
1566.17602,0.05979
1564.24723,0.05991
1562.31844,0.06004
1560.38966,0.05998
1558.46087,0.05976
1556.53208,0.06026
1554.60329,0.06069
1552.67450,0.06066
1550.74571,0.06053
1548.81693,0.06044
1546.88814,0.06027
1544.95935,0.06004
1543.03056,0.05979
1541.10177,0.05913
1539.17298,0.05858
1537.24420,0.05888
1535.31541,0.05920
1533.38662,0.05913
1531.45783,0.05894
1529.52904,0.05891
1527.60026,0.05892
1525.67147,0.05911
1523.74268,0.05947
1521.81389,0.05951
1519.88510,0.05917
1517.95631,0.05890
1516.02753,0.05878
1514.09874,0.05867
1512.16995,0.05833
1510.24116,0.05773
1508.31237,0.05689
1506.38359,0.05603
1504.45480,0.05616
1502.52601,0.05674
1500.59722,0.05725
1498.66843,0.05763
1496.73964,0.05807
1494.81086,0.05837
1492.88207,0.05829
1490.95328,0.05779
1489.02449,0.05691
1487.09570,0.05617
1485.16692,0.05569
1483.23813,0.05522
1481.30934,0.05475
1479.38055,0.05445
1477.45176,0.05436
1475.52297,0.05435
1473.59419,0.05416
1471.66540,0.05383
1469.73661,0.05382
1467.80782,0.05403
1465.87903,0.05438
1463.95024,0.05492
1462.02146,0.05543
1460.09267,0.05588
1458.16388,0.05635
1456.23509,0.05668
1454.30630,0.05678
1452.37752,0.05668
1450.44873,0.05643
1448.51994,0.05612
1446.59115,0.05580
1444.66236,0.05549
1442.73357,0.05529
1440.80479,0.05526
1438.87600,0.05527
1436.94721,0.05526
1435.01842,0.05540
1433.08963,0.05555
1431.16085,0.05551
1429.23206,0.05561
1427.30327,0.05617
1425.37448,0.05695
1423.44569,0.05745
1421.51690,0.05730
1419.58812,0.05665
1417.65933,0.05610
1415.73054,0.05577
1413.80175,0.05547
1411.87296,0.05551
1409.94418,0.05617
1408.01539,0.05707
1406.08660,0.05751
1404.15781,0.05727
1402.22902,0.05684
1400.30023,0.05638
1398.37145,0.05579
1396.44266,0.05529
1394.51387,0.05490
1392.58508,0.05460
1390.65629,0.05444
1388.72751,0.05438
1386.79872,0.05448
1384.86993,0.05478
1382.94114,0.05506
1381.01235,0.05536
1379.08356,0.05581
1377.15478,0.05626
1375.22599,0.05632
1373.29720,0.05602
1371.36841,0.05569
1369.43962,0.05540
1367.51083,0.05503
1365.58205,0.05469
1363.65326,0.05453
1361.72447,0.05453
1359.79568,0.05455
1357.86689,0.05445
1355.93811,0.05421
1354.00932,0.05409
1352.08053,0.05413
1350.15174,0.05408
1348.22295,0.05381
1346.29416,0.05346
1344.36538,0.05326
1342.43659,0.05301
1340.50780,0.05249
1338.57901,0.05218
1336.65022,0.05244
1334.72144,0.05286
1332.79265,0.05316
1330.86386,0.05332
1328.93507,0.05335
1327.00628,0.05325
1325.07749,0.05307
1323.14871,0.05291
1321.21992,0.05278
1319.29113,0.05269
1317.36234,0.05263
1315.43355,0.05248
1313.50477,0.05220
1311.57598,0.05185
1309.64719,0.05151
1307.71840,0.05121
1305.78961,0.05092
1303.86082,0.05064
1301.93204,0.05025
1300.00325,0.04976
1298.07446,0.04916
1296.14567,0.04834
1294.21688,0.04756
1292.28810,0.04711
1290.35931,0.04685
1288.43052,0.04668
1286.50173,0.04671
1284.57294,0.04696
1282.64415,0.04747
1280.71537,0.04855
1278.78658,0.05060
1276.85779,0.05357
1274.92900,0.05709
1273.00021,0.06096
1271.07142,0.06507
1269.14264,0.06889
1267.21385,0.07166
1265.28506,0.07287
1263.35627,0.07256
1261.42748,0.07122
1259.49870,0.06957
1257.56991,0.06846
1255.64112,0.06827
1253.71233,0.06880
1251.78354,0.06970
1249.85475,0.07081
1247.92597,0.07190
1245.99718,0.07266
1244.06839,0.07302
1242.13960,0.07305
1240.21081,0.07270
1238.28203,0.07200
1236.35324,0.07121
1234.42445,0.07060
1232.49566,0.07007
1230.56687,0.06944
1228.63808,0.06874
1226.70930,0.06821
1224.78051,0.06783
1222.85172,0.06727
1220.92293,0.06652
1218.99414,0.06585
1217.06536,0.06533
1215.13657,0.06492
1213.20778,0.06464
1211.27899,0.06443
1209.35020,0.06411
1207.42141,0.06367
1205.49263,0.06335
1203.56384,0.06321
1201.63505,0.06305
1199.70626,0.06290
1197.77747,0.06286
1195.84868,0.06292
1193.91990,0.06305
1191.99111,0.06300
1190.06232,0.06260
1188.13353,0.06203
1186.20474,0.06166
1184.27596,0.06141
1182.34717,0.06103
1180.41838,0.06064
1178.48959,0.06047
1176.56080,0.06048
1174.63201,0.06046
1172.70323,0.06038
1170.77444,0.06035
1168.84565,0.06037
1166.91686,0.06031
1164.98807,0.05996
1163.05929,0.05934
1161.13050,0.05887
1159.20171,0.05878
1157.27292,0.05880
1155.34413,0.05863
1153.41534,0.05835
1151.48656,0.05824
1149.55777,0.05812
1147.62898,0.05755
1145.70019,0.05686
1143.77140,0.05657
1141.84262,0.05634
1139.91383,0.05589
1137.98504,0.05551
1136.05625,0.05525
1134.12746,0.05482
1132.19867,0.05424
1130.26989,0.05366
1128.34110,0.05325
1126.41231,0.05327
1124.48352,0.05404
1122.55473,0.05565
1120.62595,0.05800
1118.69716,0.06072
1116.76837,0.06317
1114.83958,0.06473
1112.91079,0.06523
1110.98200,0.06484
1109.05322,0.06401
1107.12443,0.06373
1105.19564,0.06492
1103.26685,0.06749
1101.33806,0.07012
1099.40927,0.07133
1097.48049,0.07091
1095.55170,0.06990
1093.62291,0.06907
1091.69412,0.06852
1089.76533,0.06803
1087.83655,0.06736
1085.90776,0.06662
1083.97897,0.06625
1082.05018,0.06617
1080.12139,0.06599
1078.19260,0.06585
1076.26382,0.06590
1074.33503,0.06585
1072.40624,0.06551
1070.47745,0.06496
1068.54866,0.06457
1066.61988,0.06463
1064.69109,0.06473
1062.76230,0.06449
1060.83351,0.06425
1058.90472,0.06426
1056.97593,0.06426
1055.04715,0.06418
1053.11836,0.06403
1051.18957,0.06369
1049.26078,0.06315
1047.33199,0.06266
1045.40321,0.06261
1043.47442,0.06296
1041.54563,0.06307
1039.61684,0.06261
1037.68805,0.06197
1035.75926,0.06159
1033.83048,0.06158
1031.90169,0.06171
1029.97290,0.06156
1028.04411,0.06097
1026.11532,0.06024
1024.18654,0.05961
1022.25775,0.05973
1020.32896,0.06150
1018.40017,0.06397
1016.47138,0.06514
1014.54259,0.06490
1012.61381,0.06438
1010.68502,0.06391
1008.75623,0.06336
1006.82744,0.06289
1004.89865,0.06262
1002.96986,0.06230
1001.04108,0.06174
999.11229,0.06117
997.18350,0.06086
995.25471,0.06080
993.32592,0.06094
991.39714,0.06118
989.46835,0.06136
987.53956,0.06134
985.61077,0.06103
983.68198,0.06059
981.75319,0.06039
979.82441,0.06046
977.89562,0.06057
975.96683,0.06059
974.03804,0.06054
972.10925,0.06052
970.18047,0.06055
968.25168,0.06086
966.32289,0.06152
964.39410,0.06219
962.46531,0.06271
960.53652,0.06319
958.60774,0.06350
956.67895,0.06362
954.75016,0.06370
952.82137,0.06390
950.89258,0.06418
948.96380,0.06431
947.03501,0.06413
945.10622,0.06379
943.17743,0.06356
941.24864,0.06360
939.31985,0.06362
937.39107,0.06338
935.46228,0.06312
933.53349,0.06301
931.60470,0.06303
929.67591,0.06311
927.74712,0.06313
925.81834,0.06293
923.88955,0.06269
921.96076,0.06258
920.03197,0.06268
918.10318,0.06301
916.17440,0.06321
914.24561,0.06296
912.31682,0.06258
910.38803,0.06241
908.45924,0.06240
906.53045,0.06237
904.60167,0.06220
902.67288,0.06176
900.74409,0.06141
898.81530,0.06163
896.88651,0.06196
894.95773,0.06190
893.02894,0.06172
891.10015,0.06150
889.17136,0.06120
887.24257,0.06108
885.31378,0.06113
883.38500,0.06108
881.45621,0.06091
879.52742,0.06095
877.59863,0.06149
875.66984,0.06206
873.74106,0.06230
871.81227,0.06252
869.88348,0.06279
867.95469,0.06286
866.02590,0.06274
864.09711,0.06260
862.16833,0.06253
860.23954,0.06242
858.31075,0.06235
856.38196,0.06230
854.45317,0.06205
852.52439,0.06178
850.59560,0.06178
848.66681,0.06166
846.73802,0.06129
844.80923,0.06111
842.88044,0.06117
840.95166,0.06128
839.02287,0.06147
837.09408,0.06165
835.16529,0.06167
833.23650,0.06161
831.30771,0.06156
829.37893,0.06144
827.45014,0.06139
825.52135,0.06175
823.59256,0.06240
821.66377,0.06298
819.73499,0.06302
817.80620,0.06246
815.87741,0.06202
813.94862,0.06229
812.01983,0.06280
810.09104,0.06268
808.16226,0.06179
806.23347,0.06095
804.30468,0.06095
802.37589,0.06175
800.44710,0.06257
798.51832,0.06253
796.58953,0.06172
794.66074,0.06099
792.73195,0.06067
790.80316,0.06060
788.87437,0.06073
786.94559,0.06090
785.01680,0.06059
783.08801,0.05996
781.15922,0.05971
779.23043,0.05997
777.30165,0.06044
775.37286,0.06061
773.44407,0.06011
771.51528,0.05928
769.58649,0.05866
767.65770,0.05841
765.72892,0.05847
763.80013,0.05867
761.87134,0.05861
759.94255,0.05836
758.01376,0.05855
756.08498,0.05900
754.15619,0.05872
752.22740,0.05773
750.29861,0.05710
748.36982,0.05687
746.44103,0.05610
744.51225,0.05466
742.58346,0.05324
740.65467,0.05224
738.72588,0.05162
736.79709,0.05182
734.86830,0.05419
732.93952,0.05933
731.01073,0.06511
729.08194,0.06834
727.15315,0.06830
725.22436,0.06651
723.29558,0.06466
721.36679,0.06337
719.43800,0.06232
717.50921,0.06139
715.58042,0.06049
713.65163,0.05967
711.72285,0.05926
709.79406,0.05902
707.86527,0.05871
705.93648,0.05868
704.00769,0.05895
702.07891,0.05917
700.15012,0.05922
698.22133,0.05883
696.29254,0.05814
694.36375,0.05803
692.43496,0.05846
690.50618,0.05876
688.57739,0.05885
686.64860,0.05880
684.71981,0.05869
682.79102,0.05848
680.86224,0.05841
678.93345,0.05876
677.00466,0.05901
675.07587,0.05898
673.14708,0.05916
671.21829,0.05944
669.28951,0.05948
667.36072,0.05930
665.43193,0.05892
663.50314,0.05832
661.57435,0.05751
659.64556,0.05677
657.71678,0.05635
655.78799,0.05590
653.85920,0.05529
651.93041,0.05526
650.00162,0.05579
648.07284,0.05615
646.14405,0.05656
644.21526,0.05707
642.28647,0.05704
640.35768,0.05712
638.42889,0.05818
636.50011,0.05936
634.57132,0.05929
632.64253,0.05868
630.71374,0.05917
628.78495,0.06046
626.85617,0.06131
624.92738,0.06158
622.99859,0.06168
621.06980,0.06210
619.14101,0.06283
617.21222,0.06346
615.28344,0.06361
613.35465,0.06278
611.42586,0.06158
609.49707,0.06145
607.56828,0.06231
605.63950,0.06299
603.71071,0.06372
601.78192,0.06555
599.85313,0.06700
