7497.19974,0.04589
7495.27095,0.05009
7493.34216,0.04882
7491.41337,0.04332
7489.48459,0.03607
7487.55580,0.03359
7485.62701,0.03666
7483.69822,0.03706
7481.76943,0.03035
7479.84065,0.02462
7477.91186,0.02503
7475.98307,0.02766
7474.05428,0.03164
7472.12549,0.03732
7470.19670,0.03879
7468.26792,0.03385
7466.33913,0.02897
7464.41034,0.02970
7462.48155,0.03311
7460.55276,0.03833
7458.62398,0.04706
7456.69519,0.05115
7454.76640,0.03993
7452.83761,0.02596
7450.90882,0.02241
7448.98003,0.02688
7447.05125,0.03548
7445.12246,0.04352
7443.19367,0.04533
7441.26488,0.04259
7439.33609,0.03828
7437.40731,0.03562
7435.47852,0.03436
7433.54973,0.03246
7431.62094,0.03203
7429.69215,0.03464
7427.76336,0.03299
7425.83458,0.02758
7423.90579,0.02484
7421.97700,0.02678
7420.04821,0.02889
7418.11942,0.03169
7416.19063,0.03432
7414.26185,0.03638
7412.33306,0.03599
7410.40427,0.03620
7408.47548,0.03606
7406.54669,0.03556
7404.61791,0.03557
7402.68912,0.03591
7400.76033,0.03509
7398.83154,0.03192
7396.90275,0.02650
7394.97396,0.02416
7393.04518,0.02923
7391.11639,0.03519
7389.18760,0.03420
7387.25881,0.03216
7385.33002,0.03191
7383.40124,0.03120
7381.47245,0.03043
7379.54366,0.03046
7377.61487,0.03055
7375.68608,0.03262
7373.75729,0.03875
7371.82851,0.04319
7369.89972,0.03830
7367.97093,0.03191
7366.04214,0.03435
7364.11335,0.04248
7362.18457,0.04436
7360.25578,0.03830
7358.32699,0.03407
7356.39820,0.03670
7354.46941,0.03914
7352.54062,0.03677
7350.61184,0.03134
7348.68305,0.02872
7346.75426,0.03118
7344.82547,0.03315
7342.89668,0.03389
7340.96790,0.03739
7339.03911,0.03824
7337.11032,0.03530
7335.18153,0.03339
7333.25274,0.03347
7331.32395,0.03239
7329.39517,0.02943
7327.46638,0.02638
7325.53759,0.03025
7323.60880,0.03754
7321.68001,0.04034
7319.75122,0.03779
7317.82244,0.03287
7315.89365,0.02796
7313.96486,0.02371
7312.03607,0.02104
7310.10728,0.02419
7308.17850,0.03230
7306.24971,0.03881
7304.32092,0.04102
7302.39213,0.03882
7300.46334,0.03198
7298.53455,0.02741
7296.60577,0.03091
7294.67698,0.04027
7292.74819,0.04713
7290.81940,0.04460
7288.89061,0.03608
7286.96183,0.03031
7285.03304,0.02762
7283.10425,0.02424
7281.17546,0.02419
7279.24667,0.03155
7277.31788,0.03952
7275.38910,0.03904
7273.46031,0.03377
7271.53152,0.03363
7269.60273,0.03725
7267.67394,0.03699
7265.74516,0.03220
7263.81637,0.03002
7261.88758,0.03469
7259.95879,0.04117
7258.03000,0.04388
7256.10121,0.04507
7254.17243,0.04576
7252.24364,0.04174
7250.31485,0.03480
7248.38606,0.03215
7246.45727,0.03508
7244.52848,0.03851
7242.59970,0.03830
7240.67091,0.03709
7238.74212,0.03775
7236.81333,0.03759
7234.88454,0.03403
7232.95576,0.03118
7231.02697,0.03387
7229.09818,0.03655
7227.16939,0.03535
7225.24060,0.03363
7223.31181,0.03363
7221.38303,0.03644
7219.45424,0.03838
7217.52545,0.03507
7215.59666,0.02886
7213.66787,0.02551
7211.73909,0.02906
7209.81030,0.03731
7207.88151,0.04280
7205.95272,0.04253
7204.02393,0.03816
7202.09514,0.03312
7200.16636,0.03133
7198.23757,0.03212
7196.30878,0.03340
7194.37999,0.03686
7192.45120,0.03853
7190.52242,0.03455
7188.59363,0.03061
7186.66484,0.03087
7184.73605,0.03150
7182.80726,0.02914
7180.87847,0.02840
7178.94969,0.03412
7177.02090,0.03883
7175.09211,0.03668
7173.16332,0.03322
7171.23453,0.03442
7169.30575,0.03763
7167.37696,0.03591
7165.44817,0.02982
7163.51938,0.02643
7161.59059,0.02666
7159.66180,0.02818
7157.73302,0.02916
7155.80423,0.03090
7153.87544,0.03523
7151.94665,0.03923
7150.01786,0.03895
7148.08907,0.03841
7146.16029,0.03878
7144.23150,0.03541
7142.30271,0.03225
7140.37392,0.03536
7138.44513,0.03781
7136.51635,0.03277
7134.58756,0.02755
7132.65877,0.02893
7130.72998,0.03175
7128.80119,0.03176
7126.87240,0.03226
7124.94362,0.03585
7123.01483,0.03852
7121.08604,0.03938
7119.15725,0.04049
7117.22846,0.04190
7115.29968,0.04303
7113.37089,0.04253
7111.44210,0.03811
7109.51331,0.03132
7107.58452,0.02689
7105.65573,0.02886
7103.72695,0.03416
7101.79816,0.03842
7099.86937,0.03812
7097.94058,0.03567
7096.01179,0.03360
7094.08301,0.03449
7092.15422,0.03541
7090.22543,0.02995
7088.29664,0.02532
7086.36785,0.03073
7084.43906,0.03826
7082.51028,0.03949
7080.58149,0.03508
7078.65270,0.03126
7076.72391,0.03085
7074.79512,0.02973
7072.86634,0.02908
7070.93755,0.03356
7069.00876,0.03773
7067.07997,0.03628
7065.15118,0.03287
7063.22239,0.03050
7061.29361,0.02757
7059.36482,0.02393
7057.43603,0.02242
7055.50724,0.02588
7053.57845,0.02967
7051.64966,0.02871
7049.72088,0.02798
7047.79209,0.03128
7045.86330,0.03312
7043.93451,0.02986
7042.00572,0.02604
7040.07694,0.02680
7038.14815,0.03115
7036.21936,0.03406
7034.29057,0.03160
7032.36178,0.02742
7030.43299,0.02826
7028.50421,0.03319
7026.57542,0.03714
7024.64663,0.03846
7022.71784,0.03756
7020.78905,0.03580
7018.86027,0.03355
7016.93148,0.03060
7015.00269,0.02990
7013.07390,0.03148
7011.14511,0.02979
7009.21632,0.02712
7007.28754,0.02994
7005.35875,0.03553
7003.42996,0.03856
7001.50117,0.03919
6999.57238,0.03873
6997.64360,0.03722
6995.71481,0.03429
6993.78602,0.03076
6991.85723,0.02684
6989.92844,0.02402
6987.99965,0.02484
6986.07087,0.02800
6984.14208,0.03121
6982.21329,0.03271
6980.28450,0.03064
6978.35571,0.02757
6976.42692,0.02723
6974.49814,0.02718
6972.56935,0.02433
6970.64056,0.02434
6968.71177,0.03019
6966.78298,0.03483
6964.85420,0.03315
6962.92541,0.02997
6960.99662,0.03098
6959.06783,0.03517
6957.13904,0.03838
6955.21025,0.03872
6953.28147,0.03573
6951.35268,0.03151
6949.42389,0.03070
6947.49510,0.03424
6945.56631,0.03728
6943.63753,0.03783
6941.70874,0.03798
6939.77995,0.04010
6937.85116,0.04083
6935.92237,0.03656
6933.99358,0.03217
6932.06480,0.03237
6930.13601,0.03436
6928.20722,0.03485
6926.27843,0.03388
6924.34964,0.03216
6922.42086,0.02941
6920.49207,0.02854
6918.56328,0.03199
6916.63449,0.03594
6914.70570,0.03566
6912.77691,0.03252
6910.84813,0.03129
6908.91934,0.03335
6906.99055,0.03457
6905.06176,0.03113
6903.13297,0.02658
6901.20419,0.02795
6899.27540,0.03216
6897.34661,0.03286
6895.41782,0.03132
6893.48903,0.03052
6891.56024,0.03086
6889.63146,0.03278
6887.70267,0.03390
6885.77388,0.03389
6883.84509,0.03577
6881.91630,0.03846
6879.98751,0.03851
6878.05873,0.03626
6876.12994,0.03437
6874.20115,0.03277
6872.27236,0.02913
6870.34357,0.02624
6868.41479,0.02676
6866.48600,0.02733
6864.55721,0.02646
6862.62842,0.02753
6860.69963,0.03041
6858.77084,0.03159
6856.84206,0.02972
6854.91327,0.02670
6852.98448,0.02692
6851.05569,0.03138
6849.12690,0.03397
6847.19812,0.03179
6845.26933,0.02845
6843.34054,0.02898
6841.41175,0.03239
6839.48296,0.03504
6837.55417,0.03742
6835.62539,0.03961
6833.69660,0.03982
6831.76781,0.04039
6829.83902,0.04188
6827.91023,0.03949
6825.98145,0.03399
6824.05266,0.03271
6822.12387,0.03467
6820.19508,0.03352
6818.26629,0.02953
6816.33750,0.02810
6814.40872,0.03060
6812.47993,0.03310
6810.55114,0.03353
6808.62235,0.03446
6806.69356,0.03614
6804.76478,0.03649
6802.83599,0.03656
6800.90720,0.03861
6798.97841,0.03968
6797.04962,0.03709
6795.12083,0.03425
6793.19205,0.03384
6791.26326,0.03203
6789.33447,0.02785
6787.40568,0.02665
6785.47689,0.02871
6783.54810,0.02972
6781.61932,0.02977
6779.69053,0.03080
6777.76174,0.03142
6775.83295,0.03096
6773.90416,0.03165
6771.97538,0.03291
6770.04659,0.03321
6768.11780,0.03314
6766.18901,0.03323
6764.26022,0.03304
6762.33143,0.03220
6760.40265,0.03230
6758.47386,0.03551
6756.54507,0.03841
6754.61628,0.03821
6752.68749,0.03718
6750.75871,0.03499
6748.82992,0.03245
6746.90113,0.03369
6744.97234,0.03482
6743.04355,0.03418
6741.11476,0.03456
6739.18598,0.03544
6737.25719,0.03541
6735.32840,0.03631
6733.39961,0.03758
6731.47082,0.03720
6729.54204,0.03630
6727.61325,0.03564
6725.68446,0.03370
6723.75567,0.03253
6721.82688,0.03483
6719.89809,0.03784
6717.96931,0.03721
6716.04052,0.03351
6714.11173,0.02991
6712.18294,0.02910
6710.25415,0.03142
6708.32536,0.03443
6706.39658,0.03472
6704.46779,0.03295
6702.53900,0.03046
6700.61021,0.02784
6698.68142,0.02808
6696.75264,0.03150
6694.82385,0.03371
6692.89506,0.03344
6690.96627,0.03114
6689.03748,0.02779
6687.10869,0.02496
6685.17991,0.02558
6683.25112,0.03006
6681.32233,0.03366
6679.39354,0.03318
6677.46475,0.03214
6675.53597,0.03444
6673.60718,0.03811
6671.67839,0.03957
6669.74960,0.03981
6667.82081,0.03887
6665.89202,0.03548
6663.96324,0.03346
6662.03445,0.03530
6660.10566,0.03672
6658.17687,0.03603
6656.24808,0.03623
6654.31930,0.03782
6652.39051,0.03783
6650.46172,0.03611
6648.53293,0.03607
6646.60414,0.03794
6644.67535,0.03739
6642.74657,0.03336
6640.81778,0.03050
6638.88899,0.03221
6636.96020,0.03574
6635.03141,0.03710
6633.10263,0.03508
6631.17384,0.03254
6629.24505,0.03192
6627.31626,0.03113
6625.38747,0.02948
6623.45868,0.02907
6621.52990,0.03109
6619.60111,0.03470
6617.67232,0.03610
6615.74353,0.03501
6613.81474,0.03368
6611.88595,0.03177
6609.95717,0.02973
6608.02838,0.02812
6606.09959,0.02702
6604.17080,0.02781
6602.24201,0.02864
6600.31323,0.02804
6598.38444,0.02682
6596.45565,0.02663
6594.52686,0.02845
6592.59807,0.03046
6590.66928,0.03042
6588.74050,0.03049
6586.81171,0.03238
6584.88292,0.03253
6582.95413,0.02967
6581.02534,0.02872
6579.09656,0.03081
6577.16777,0.03334
6575.23898,0.03587
6573.31019,0.03680
6571.38140,0.03356
6569.45261,0.03044
6567.52383,0.03194
6565.59504,0.03383
6563.66625,0.03343
6561.73746,0.03350
6559.80867,0.03230
6557.87989,0.02798
6555.95110,0.02339
6554.02231,0.02024
6552.09352,0.01947
6550.16473,0.02217
6548.23594,0.02656
6546.30716,0.02976
6544.37837,0.03018
6542.44958,0.02961
6540.52079,0.03046
6538.59200,0.03209
6536.66322,0.03283
6534.73443,0.03249
6532.80564,0.03202
6530.87685,0.03311
6528.94806,0.03565
6527.01927,0.03645
6525.09049,0.03233
6523.16170,0.02723
6521.23291,0.02829
6519.30412,0.03309
6517.37533,0.03433
6515.44654,0.03316
6513.51776,0.03364
6511.58897,0.03339
6509.66018,0.03077
6507.73139,0.02933
6505.80260,0.03019
6503.87382,0.03083
6501.94503,0.02969
6500.01624,0.02835
6498.08745,0.02868
6496.15866,0.02950
6494.22987,0.02970
6492.30109,0.03112
6490.37230,0.03292
6488.44351,0.03242
6486.51472,0.03123
6484.58593,0.03160
6482.65715,0.03215
6480.72836,0.03166
6478.79957,0.03151
6476.87078,0.03290
6474.94199,0.03443
6473.01320,0.03400
6471.08442,0.03219
6469.15563,0.03154
6467.22684,0.03307
6465.29805,0.03627
6463.36926,0.03816
6461.44048,0.03634
6459.51169,0.03283
6457.58290,0.03049
6455.65411,0.02958
6453.72532,0.02877
6451.79653,0.02847
6449.86775,0.03010
6447.93896,0.03166
6446.01017,0.03114
6444.08138,0.02940
6442.15259,0.02788
6440.22380,0.02632
6438.29502,0.02477
6436.36623,0.02511
6434.43744,0.02757
6432.50865,0.03033
6430.57986,0.03253
6428.65108,0.03244
6426.72229,0.03117
6424.79350,0.03135
6422.86471,0.03265
6420.93592,0.03445
6419.00713,0.03544
6417.07835,0.03430
6415.14956,0.03260
6413.22077,0.03206
6411.29198,0.03363
6409.36319,0.03503
6407.43441,0.03321
6405.50562,0.03066
6403.57683,0.03006
6401.64804,0.03091
6399.71925,0.03283
6397.79046,0.03315
6395.86168,0.03171
6393.93289,0.03128
6392.00410,0.03144
6390.07531,0.03108
6388.14652,0.03133
6386.21774,0.03090
6384.28895,0.02827
6382.36016,0.02572
6380.43137,0.02649
6378.50258,0.02950
6376.57379,0.03176
6374.64501,0.03313
6372.71622,0.03410
6370.78743,0.03381
6368.85864,0.03193
6366.92985,0.02942
6365.00107,0.02835
6363.07228,0.02788
6361.14349,0.02670
6359.21470,0.02682
6357.28591,0.02901
6355.35712,0.03019
6353.42834,0.02897
6351.49955,0.02819
6349.57076,0.03012
6347.64197,0.03292
6345.71318,0.03398
6343.78439,0.03295
6341.85561,0.03089
6339.92682,0.02896
6337.99803,0.02813
6336.06924,0.02813
6334.14045,0.02785
6332.21167,0.02705
6330.28288,0.02772
6328.35409,0.03016
6326.42530,0.03077
6324.49651,0.02960
6322.56772,0.02979
6320.63894,0.03042
6318.71015,0.03037
6316.78136,0.03048
6314.85257,0.03110
6312.92378,0.03188
6310.99500,0.03234
6309.06621,0.03240
6307.13742,0.03298
6305.20863,0.03421
6303.27984,0.03417
6301.35105,0.03255
6299.42227,0.03146
6297.49348,0.03034
6295.56469,0.02966
6293.63590,0.03084
6291.70711,0.03164
6289.77833,0.03117
6287.84954,0.03103
6285.92075,0.03022
6283.99196,0.02783
6282.06317,0.02639
6280.13438,0.02834
6278.20560,0.03165
6276.27681,0.03390
6274.34802,0.03445
6272.41923,0.03274
6270.49044,0.03015
6268.56165,0.02913
6266.63287,0.02855
6264.70408,0.02688
6262.77529,0.02624
6260.84650,0.02802
6258.91771,0.02964
6256.98893,0.03034
6255.06014,0.03173
6253.13135,0.03271
6251.20256,0.03157
6249.27377,0.02975
6247.34498,0.02880
6245.41620,0.02877
6243.48741,0.02931
6241.55862,0.03004
6239.62983,0.03048
6237.70104,0.03158
6235.77226,0.03365
6233.84347,0.03365
6231.91468,0.03051
6229.98589,0.02871
6228.05710,0.03075
6226.12831,0.03373
6224.19953,0.03456
6222.27074,0.03298
6220.34195,0.03098
6218.41316,0.02977
6216.48437,0.02917
6214.55559,0.03023
6212.62680,0.03181
6210.69801,0.03184
6208.76922,0.03105
6206.84043,0.03007
6204.91164,0.02916
6202.98286,0.02857
6201.05407,0.02793
6199.12528,0.02903
6197.19649,0.03267
6195.26770,0.03555
6193.33892,0.03421
6191.41013,0.03009
6189.48134,0.02728
6187.55255,0.02726
6185.62376,0.02865
6183.69497,0.03022
6181.76619,0.03227
6179.83740,0.03395
6177.90861,0.03323
6175.97982,0.03078
6174.05103,0.02891
6172.12224,0.02919
6170.19346,0.03102
6168.26467,0.03244
6166.33588,0.03273
6164.40709,0.03256
6162.47830,0.03231
6160.54952,0.03224
6158.62073,0.03270
6156.69194,0.03363
6154.76315,0.03333
6152.83436,0.03134
6150.90557,0.02975
6148.97679,0.02986
6147.04800,0.03011
6145.11921,0.02942
6143.19042,0.02895
6141.26163,0.02935
6139.33285,0.02903
6137.40406,0.02763
6135.47527,0.02705
6133.54648,0.02777
6131.61769,0.02858
6129.68890,0.02923
6127.76012,0.03052
6125.83133,0.03264
6123.90254,0.03443
6121.97375,0.03427
6120.04496,0.03180
6118.11618,0.02957
6116.18739,0.02936
6114.25860,0.02988
6112.32981,0.02997
6110.40102,0.02952
6108.47223,0.02810
6106.54345,0.02613
6104.61466,0.02489
6102.68587,0.02639
6100.75708,0.03082
6098.82829,0.03428
6096.89951,0.03343
6094.97072,0.03054
6093.04193,0.02914
6091.11314,0.02906
6089.18435,0.03001
6087.25556,0.03286
6085.32678,0.03491
6083.39799,0.03327
6081.46920,0.03068
6079.54041,0.03098
6077.61162,0.03307
6075.68283,0.03360
6073.75405,0.03145
6071.82526,0.02987
6069.89647,0.03029
6067.96768,0.02985
6066.03889,0.02878
6064.11011,0.02937
6062.18132,0.03053
6060.25253,0.03109
6058.32374,0.03114
6056.39495,0.03136
6054.46616,0.03248
6052.53738,0.03379
6050.60859,0.03357
6048.67980,0.03173
6046.75101,0.02991
6044.82222,0.02910
6042.89344,0.02875
6040.96465,0.02894
6039.03586,0.03065
6037.10707,0.03299
6035.17828,0.03415
6033.24949,0.03391
6031.32071,0.03280
6029.39192,0.03159
6027.46313,0.03068
6025.53434,0.03012
6023.60555,0.02980
6021.67677,0.02914
6019.74798,0.02849
6017.81919,0.02862
6015.89040,0.02920
6013.96161,0.02999
6012.03282,0.03016
6010.10404,0.03033
6008.17525,0.03138
6006.24646,0.03176
6004.31767,0.03053
6002.38888,0.02933
6000.46009,0.03000
5998.53131,0.03168
5996.60252,0.03211
5994.67373,0.03181
5992.74494,0.03157
5990.81615,0.03059
5988.88737,0.02912
5986.95858,0.02883
5985.02979,0.02974
5983.10100,0.02970
5981.17221,0.02846
5979.24342,0.02864
5977.31464,0.03008
5975.38585,0.03083
5973.45706,0.03066
5971.52827,0.02962
5969.59948,0.02816
5967.67070,0.02847
5965.74191,0.03004
5963.81312,0.03036
5961.88433,0.02970
5959.95554,0.02904
5958.02675,0.02864
5956.09797,0.02919
5954.16918,0.03063
5952.24039,0.03130
5950.31160,0.03090
5948.38281,0.03106
5946.45403,0.03083
5944.52524,0.02883
5942.59645,0.02716
5940.66766,0.02747
5938.73887,0.02861
5936.81008,0.03040
5934.88130,0.03253
5932.95251,0.03310
5931.02372,0.03165
5929.09493,0.02990
5927.16614,0.02936
5925.23736,0.02949
5923.30857,0.02994
5921.37978,0.03166
5919.45099,0.03261
5917.52220,0.03151
5915.59341,0.03043
5913.66463,0.03102
5911.73584,0.03322
5909.80705,0.03502
5907.87826,0.03446
5905.94947,0.03295
5904.02068,0.03268
5902.09190,0.03241
5900.16311,0.03060
5898.23432,0.02914
5896.30553,0.02925
5894.37674,0.03003
5892.44796,0.03097
5890.51917,0.03208
5888.59038,0.03283
5886.66159,0.03264
5884.73280,0.03152
5882.80401,0.03058
5880.87523,0.03118
5878.94644,0.03293
5877.01765,0.03319
5875.08886,0.03068
5873.16007,0.02787
5871.23129,0.02752
5869.30250,0.02911
5867.37371,0.03070
5865.44492,0.03121
5863.51613,0.03095
5861.58734,0.03047
5859.65856,0.03008
5857.72977,0.03019
5855.80098,0.03063
5853.87219,0.03188
5851.94340,0.03414
5850.01462,0.03499
5848.08583,0.03394
5846.15704,0.03316
5844.22825,0.03264
5842.29946,0.03192
5840.37067,0.03203
5838.44189,0.03332
5836.51310,0.03432
5834.58431,0.03329
5832.65552,0.03149
5830.72673,0.03167
5828.79795,0.03248
5826.86916,0.03116
5824.94037,0.02933
5823.01158,0.02915
5821.08279,0.03009
5819.15400,0.03110
5817.22522,0.03152
5815.29643,0.03121
5813.36764,0.03027
5811.43885,0.02885
5809.51006,0.02829
5807.58127,0.02943
5805.65249,0.03100
5803.72370,0.03181
5801.79491,0.03210
5799.86612,0.03145
5797.93733,0.03050
5796.00855,0.03027
5794.07976,0.02981
5792.15097,0.02932
5790.22218,0.03001
5788.29339,0.03104
5786.36460,0.03110
5784.43582,0.03027
5782.50703,0.03002
5780.57824,0.03074
5778.64945,0.03137
5776.72066,0.03175
5774.79188,0.03196
5772.86309,0.03158
5770.93430,0.03149
5769.00551,0.03213
5767.07672,0.03189
5765.14793,0.03013
5763.21915,0.02865
5761.29036,0.02884
5759.36157,0.03005
5757.43278,0.03076
5755.50399,0.03121
5753.57521,0.03200
5751.64642,0.03174
5749.71763,0.03043
5747.78884,0.03004
5745.86005,0.02984
5743.93126,0.02915
5742.00248,0.02935
5740.07369,0.02984
5738.14490,0.02988
5736.21611,0.03018
5734.28732,0.03087
5732.35853,0.03192
5730.42975,0.03252
5728.50096,0.03182
5726.57217,0.03044
5724.64338,0.02933
5722.71459,0.02913
5720.78581,0.03005
5718.85702,0.03135
5716.92823,0.03175
5714.99944,0.03170
5713.07065,0.03253
5711.14186,0.03319
5709.21308,0.03234
5707.28429,0.03083
5705.35550,0.03004
5703.42671,0.03037
5701.49792,0.03079
5699.56914,0.03073
5697.64035,0.03073
5695.71156,0.03039
5693.78277,0.02950
5691.85398,0.02876
5689.92519,0.02839
5687.99641,0.02850
5686.06762,0.02875
5684.13883,0.02842
5682.21004,0.02805
5680.28125,0.02853
5678.35247,0.02941
5676.42368,0.03017
5674.49489,0.03112
5672.56610,0.03195
5670.63731,0.03195
5668.70852,0.03114
5666.77974,0.03014
5664.85095,0.03003
5662.92216,0.03105
5660.99337,0.03156
5659.06458,0.03083
5657.13580,0.02950
5655.20701,0.02823
5653.27822,0.02809
5651.34943,0.02901
5649.42064,0.02912
5647.49185,0.02857
5645.56307,0.02915
5643.63428,0.03023
5641.70549,0.02987
5639.77670,0.02903
5637.84791,0.02930
5635.91912,0.02994
5633.99034,0.03017
5632.06155,0.03036
5630.13276,0.03064
5628.20397,0.03114
5626.27518,0.03114
5624.34640,0.02986
5622.41761,0.02883
5620.48882,0.02934
5618.56003,0.03006
5616.63124,0.03015
5614.70245,0.03016
5612.77367,0.03047
5610.84488,0.03073
5608.91609,0.03034
5606.98730,0.02969
5605.05851,0.02957
5603.12973,0.03004
5601.20094,0.03097
5599.27215,0.03168
5597.34336,0.03110
5595.41457,0.02993
5593.48578,0.03017
5591.55700,0.03162
5589.62821,0.03213
5587.69942,0.03112
5585.77063,0.03024
5583.84184,0.03034
5581.91306,0.03024
5579.98427,0.02970
5578.05548,0.02955
5576.12669,0.02937
5574.19790,0.02907
5572.26911,0.02946
5570.34033,0.03033
5568.41154,0.03100
5566.48275,0.03173
5564.55396,0.03251
5562.62517,0.03228
5560.69639,0.03080
5558.76760,0.02975
5556.83881,0.02999
5554.91002,0.03025
5552.98123,0.02999
5551.05244,0.03039
5549.12366,0.03197
5547.19487,0.03308
5545.26608,0.03228
5543.33729,0.03127
5541.40850,0.03153
5539.47971,0.03210
5537.55093,0.03213
5535.62214,0.03122
5533.69335,0.02988
5531.76456,0.02991
5529.83577,0.03125
5527.90699,0.03200
5525.97820,0.03154
5524.04941,0.03072
5522.12062,0.03021
5520.19183,0.03028
5518.26304,0.03045
5516.33426,0.03061
5514.40547,0.03126
5512.47668,0.03174
5510.54789,0.03123
5508.61910,0.02994
5506.69032,0.02842
5504.76153,0.02795
5502.83274,0.02873
5500.90395,0.02933
5498.97516,0.02969
5497.04637,0.03049
5495.11759,0.03123
5493.18880,0.03095
5491.26001,0.02939
5489.33122,0.02824
5487.40243,0.02931
5485.47365,0.03159
5483.54486,0.03278
5481.61607,0.03215
5479.68728,0.03071
5477.75849,0.03020
5475.82970,0.03089
5473.90092,0.03126
5471.97213,0.03033
5470.04334,0.02876
5468.11455,0.02808
5466.18576,0.02902
5464.25697,0.03007
5462.32819,0.02985
5460.39940,0.02921
5458.47061,0.02916
5456.54182,0.02963
5454.61303,0.03053
5452.68425,0.03097
5450.75546,0.03030
5448.82667,0.02969
5446.89788,0.03000
5444.96909,0.03050
5443.04030,0.03051
5441.11152,0.03046
5439.18273,0.03139
5437.25394,0.03273
5435.32515,0.03294
5433.39636,0.03166
5431.46758,0.03034
5429.53879,0.03046
5427.61000,0.03187
5425.68121,0.03295
5423.75242,0.03327
5421.82363,0.03301
5419.89485,0.03247
5417.96606,0.03253
5416.03727,0.03283
5414.10848,0.03184
5412.17969,0.03016
5410.25091,0.02944
5408.32212,0.02982
5406.39333,0.03091
5404.46454,0.03167
5402.53575,0.03118
5400.60696,0.03033
5398.67818,0.03027
5396.74939,0.03080
5394.82060,0.03104
5392.89181,0.03031
5390.96302,0.02928
5389.03424,0.02921
5387.10545,0.02995
5385.17666,0.03075
5383.24787,0.03151
5381.31908,0.03213
5379.39029,0.03221
5377.46151,0.03169
5375.53272,0.03054
5373.60393,0.02904
5371.67514,0.02831
5369.74635,0.02902
5367.81756,0.03038
5365.88878,0.03176
5363.95999,0.03272
5362.03120,0.03271
5360.10241,0.03238
5358.17362,0.03213
5356.24484,0.03163
5354.31605,0.03127
5352.38726,0.03117
5350.45847,0.03116
5348.52968,0.03131
5346.60089,0.03090
5344.67211,0.03000
5342.74332,0.03033
5340.81453,0.03171
5338.88574,0.03294
5336.95695,0.03320
5335.02817,0.03225
5333.09938,0.03097
5331.17059,0.03050
5329.24180,0.03080
5327.31301,0.03140
5325.38422,0.03193
5323.45544,0.03167
5321.52665,0.03076
5319.59786,0.03068
5317.66907,0.03153
5315.74028,0.03157
5313.81150,0.03063
5311.88271,0.02986
5309.95392,0.02956
5308.02513,0.03005
5306.09634,0.03110
5304.16755,0.03137
5302.23877,0.03067
5300.30998,0.02971
5298.38119,0.02895
5296.45240,0.02869
5294.52361,0.02894
5292.59483,0.02949
5290.66604,0.03005
5288.73725,0.03049
5286.80846,0.03079
5284.87967,0.03039
5282.95088,0.02974
5281.02210,0.03029
5279.09331,0.03125
5277.16452,0.03137
5275.23573,0.03109
5273.30694,0.03039
5271.37815,0.02972
5269.44937,0.03052
5267.52058,0.03209
5265.59179,0.03238
5263.66300,0.03110
5261.73421,0.02965
5259.80543,0.02914
5257.87664,0.02986
5255.94785,0.03136
5254.01906,0.03204
5252.09027,0.03122
5250.16148,0.03016
5248.23270,0.02981
5246.30391,0.03028
5244.37512,0.03041
5242.44633,0.02965
5240.51754,0.02936
5238.58876,0.03005
5236.65997,0.03050
5234.73118,0.03010
5232.80239,0.02983
5230.87360,0.03026
5228.94481,0.03035
5227.01603,0.02919
5225.08724,0.02770
5223.15845,0.02789
5221.22966,0.02934
5219.30087,0.02983
5217.37209,0.02924
5215.44330,0.02936
5213.51451,0.03007
5211.58572,0.03049
5209.65693,0.03100
5207.72814,0.03137
5205.79936,0.03074
5203.87057,0.02979
5201.94178,0.02928
5200.01299,0.02908
5198.08420,0.02915
5196.15541,0.02972
5194.22663,0.03051
5192.29784,0.03075
5190.36905,0.03053
5188.44026,0.03078
5186.51147,0.03152
5184.58269,0.03178
5182.65390,0.03136
5180.72511,0.03092
5178.79632,0.03052
5176.86753,0.02978
5174.93874,0.02946
5173.00996,0.03005
5171.08117,0.03043
5169.15238,0.03028
5167.22359,0.03035
5165.29480,0.03096
5163.36602,0.03184
5161.43723,0.03216
5159.50844,0.03154
5157.57965,0.03081
5155.65086,0.03065
5153.72207,0.03060
5151.79329,0.03035
5149.86450,0.03036
5147.93571,0.03064
5146.00692,0.03094
5144.07813,0.03154
5142.14935,0.03236
5140.22056,0.03230
5138.29177,0.03138
5136.36298,0.03070
5134.43419,0.03048
5132.50540,0.02997
5130.57662,0.02932
5128.64783,0.02935
5126.71904,0.02997
5124.79025,0.03027
5122.86146,0.03015
5120.93268,0.03058
5119.00389,0.03119
5117.07510,0.03032
5115.14631,0.02872
5113.21752,0.02840
5111.28873,0.02931
5109.35995,0.03048
5107.43116,0.03137
5105.50237,0.03151
5103.57358,0.03084
5101.64479,0.02985
5099.71600,0.02919
5097.78722,0.02888
5095.85843,0.02875
5093.92964,0.02886
5092.00085,0.02902
5090.07206,0.02926
5088.14328,0.03006
5086.21449,0.03127
5084.28570,0.03179
5082.35691,0.03106
5080.42812,0.03004
5078.49933,0.02936
5076.57055,0.02879
5074.64176,0.02867
5072.71297,0.02931
5070.78418,0.03012
5068.85539,0.03073
5066.92661,0.03136
5064.99782,0.03174
5063.06903,0.03112
5061.14024,0.02976
5059.21145,0.02889
5057.28266,0.02877
5055.35388,0.02883
5053.42509,0.02888
5051.49630,0.02921
5049.56751,0.03007
5047.63872,0.03091
5045.70994,0.03101
5043.78115,0.03085
5041.85236,0.03100
5039.92357,0.03085
5037.99478,0.03016
5036.06599,0.02967
5034.13721,0.02977
5032.20842,0.03059
5030.27963,0.03156
5028.35084,0.03132
5026.42205,0.03012
5024.49327,0.02942
5022.56448,0.02959
5020.63569,0.03019
5018.70690,0.03092
5016.77811,0.03164
5014.84932,0.03216
5012.92054,0.03218
5010.99175,0.03150
5009.06296,0.03078
5007.13417,0.03072
5005.20538,0.03085
5003.27659,0.03081
5001.34781,0.03091
4999.41902,0.03121
4997.49023,0.03124
4995.56144,0.03106
4993.63265,0.03130
4991.70387,0.03155
4989.77508,0.03101
4987.84629,0.03006
4985.91750,0.02975
4983.98871,0.03027
4982.05992,0.03068
4980.13114,0.03033
4978.20235,0.02986
4976.27356,0.03025
4974.34477,0.03110
4972.41598,0.03116
4970.48720,0.03040
4968.55841,0.03003
4966.62962,0.03051
4964.70083,0.03073
4962.77204,0.03022
4960.84325,0.03029
4958.91447,0.03105
4956.98568,0.03111
4955.05689,0.03045
4953.12810,0.03002
4951.19931,0.02989
4949.27053,0.02975
4947.34174,0.02975
4945.41295,0.03020
4943.48416,0.03078
4941.55537,0.03105
4939.62658,0.03117
4937.69780,0.03120
4935.76901,0.03109
4933.84022,0.03113
4931.91143,0.03124
4929.98264,0.03123
4928.05385,0.03117
4926.12507,0.03088
4924.19628,0.03018
4922.26749,0.02955
4920.33870,0.02970
4918.40991,0.03066
4916.48113,0.03151
4914.55234,0.03183
4912.62355,0.03167
4910.69476,0.03100
4908.76597,0.03026
4906.83718,0.03010
4904.90840,0.03025
4902.97961,0.03008
4901.05082,0.02971
4899.12203,0.02956
4897.19324,0.02999
4895.26446,0.03101
4893.33567,0.03167
4891.40688,0.03163
4889.47809,0.03171
4887.54930,0.03167
4885.62051,0.03097
4883.69173,0.03043
4881.76294,0.03042
4879.83415,0.03033
4877.90536,0.03025
4875.97657,0.03060
4874.04779,0.03113
4872.11900,0.03140
4870.19021,0.03118
4868.26142,0.03068
4866.33263,0.03030
4864.40384,0.03019
4862.47506,0.03042
4860.54627,0.03062
4858.61748,0.03035
4856.68869,0.03016
4854.75990,0.03052
4852.83112,0.03117
4850.90233,0.03164
4848.97354,0.03137
4847.04475,0.03085
4845.11596,0.03070
4843.18717,0.03038
4841.25839,0.03013
4839.32960,0.03039
4837.40081,0.03068
4835.47202,0.03056
4833.54323,0.02996
4831.61444,0.02943
4829.68566,0.02964
4827.75687,0.03011
4825.82808,0.02996
4823.89929,0.02945
4821.97050,0.02975
4820.04172,0.03067
4818.11293,0.03091
4816.18414,0.03055
4814.25535,0.03025
4812.32656,0.02993
4810.39777,0.02988
4808.46899,0.03021
4806.54020,0.03050
4804.61141,0.03093
4802.68262,0.03142
4800.75383,0.03118
4798.82505,0.03070
4796.89626,0.03091
4794.96747,0.03104
4793.03868,0.03020
4791.10989,0.02953
4789.18110,0.03031
4787.25232,0.03165
4785.32353,0.03211
4783.39474,0.03153
4781.46595,0.03055
4779.53716,0.02992
4777.60838,0.02998
4775.67959,0.03036
4773.75080,0.03060
4771.82201,0.03058
4769.89322,0.03036
4767.96443,0.03020
4766.03565,0.03037
4764.10686,0.03059
4762.17807,0.03071
4760.24928,0.03085
4758.32049,0.03072
4756.39170,0.03035
4754.46292,0.03029
4752.53413,0.03068
4750.60534,0.03129
4748.67655,0.03170
4746.74776,0.03146
4744.81898,0.03088
4742.89019,0.03080
4740.96140,0.03130
4739.03261,0.03165
4737.10382,0.03120
4735.17503,0.03037
4733.24625,0.03014
4731.31746,0.03062
4729.38867,0.03124
4727.45988,0.03150
4725.53109,0.03134
4723.60231,0.03098
4721.67352,0.03035
4719.74473,0.02955
4717.81594,0.02952
4715.88715,0.03043
4713.95836,0.03132
4712.02958,0.03159
4710.10079,0.03136
4708.17200,0.03134
4706.24321,0.03185
4704.31442,0.03196
4702.38564,0.03113
4700.45685,0.03033
4698.52806,0.03037
4696.59927,0.03079
4694.67048,0.03093
4692.74169,0.03084
4690.81291,0.03081
4688.88412,0.03096
4686.95533,0.03117
4685.02654,0.03091
4683.09775,0.03024
4681.16897,0.03020
4679.24018,0.03073
4677.31139,0.03086
4675.38260,0.03064
4673.45381,0.03036
4671.52502,0.03019
4669.59624,0.03041
4667.66745,0.03077
4665.73866,0.03104
4663.80987,0.03130
4661.88108,0.03137
4659.95229,0.03099
4658.02351,0.03031
4656.09472,0.02998
4654.16593,0.03031
4652.23714,0.03062
4650.30835,0.03029
4648.37957,0.02964
4646.45078,0.02943
4644.52199,0.02985
4642.59320,0.03057
4640.66441,0.03130
4638.73562,0.03150
4636.80684,0.03104
4634.87805,0.03075
4632.94926,0.03087
4631.02047,0.03089
4629.09168,0.03072
4627.16290,0.03034
4625.23411,0.02980
4623.30532,0.02934
4621.37653,0.02904
4619.44774,0.02895
4617.51895,0.02933
4615.59017,0.03019
4613.66138,0.03118
4611.73259,0.03137
4609.80380,0.03041
4607.87501,0.02946
4605.94623,0.02955
4604.01744,0.03024
4602.08865,0.03070
4600.15986,0.03096
4598.23107,0.03114
4596.30228,0.03086
4594.37350,0.03044
4592.44471,0.03049
4590.51592,0.03072
4588.58713,0.03064
4586.65834,0.03048
4584.72956,0.03051
4582.80077,0.03060
4580.87198,0.03069
4578.94319,0.03047
4577.01440,0.03016
4575.08561,0.03027
4573.15683,0.03037
4571.22804,0.03013
4569.29925,0.02984
4567.37046,0.02999
4565.44167,0.03049
4563.51288,0.03068
4561.58410,0.03068
4559.65531,0.03077
4557.72652,0.03046
4555.79773,0.02980
4553.86894,0.02941
4551.94016,0.02956
4550.01137,0.03005
4548.08258,0.03035
4546.15379,0.03029
4544.22500,0.03034
4542.29621,0.03043
4540.36743,0.03002
4538.43864,0.02940
4536.50985,0.02944
4534.58106,0.03016
4532.65227,0.03098
4530.72349,0.03146
4528.79470,0.03130
4526.86591,0.03072
4524.93712,0.03038
4523.00833,0.03034
4521.07954,0.03032
4519.15076,0.03056
4517.22197,0.03116
4515.29318,0.03159
4513.36439,0.03170
4511.43560,0.03145
4509.50682,0.03092
4507.57803,0.03055
4505.64924,0.03033
4503.72045,0.03022
4501.79166,0.03019
4499.86287,0.02995
4497.93409,0.02996
4496.00530,0.03049
4494.07651,0.03065
4492.14772,0.03019
4490.21893,0.02980
4488.29014,0.02965
4486.36136,0.02967
4484.43257,0.02991
4482.50378,0.03008
4480.57499,0.03003
4478.64620,0.03017
4476.71742,0.03049
4474.78863,0.03052
4472.85984,0.02999
4470.93105,0.02932
4469.00226,0.02936
4467.07347,0.02996
4465.14469,0.03034
4463.21590,0.03054
4461.28711,0.03061
4459.35832,0.03028
4457.42953,0.02994
4455.50075,0.02997
4453.57196,0.02984
4451.64317,0.02949
4449.71438,0.02969
4447.78559,0.03050
4445.85680,0.03112
4443.92802,0.03105
4441.99923,0.03055
4440.07044,0.03011
4438.14165,0.02995
4436.21286,0.03015
4434.28408,0.03052
4432.35529,0.03058
4430.42650,0.03026
4428.49771,0.02994
4426.56892,0.02983
4424.64013,0.02980
4422.71135,0.02978
4420.78256,0.02980
4418.85377,0.02986
4416.92498,0.02994
4414.99619,0.02994
4413.06741,0.02996
4411.13862,0.03012
4409.20983,0.03028
4407.28104,0.03040
4405.35225,0.03061
4403.42346,0.03075
4401.49468,0.03078
4399.56589,0.03100
4397.63710,0.03131
4395.70831,0.03120
4393.77952,0.03060
4391.85073,0.03034
4389.92195,0.03089
4387.99316,0.03147
4386.06437,0.03135
4384.13558,0.03094
4382.20679,0.03081
4380.27801,0.03084
4378.34922,0.03082
4376.42043,0.03090
4374.49164,0.03106
4372.56285,0.03102
4370.63406,0.03093
4368.70528,0.03089
4366.77649,0.03059
4364.84770,0.03008
4362.91891,0.02993
4360.99012,0.03024
4359.06134,0.03067
4357.13255,0.03104
4355.20376,0.03144
4353.27497,0.03183
4351.34618,0.03192
4349.41739,0.03172
4347.48861,0.03136
4345.55982,0.03080
4343.63103,0.03021
4341.70224,0.02987
4339.77345,0.02994
4337.84467,0.03025
4335.91588,0.03043
4333.98709,0.03022
4332.05830,0.02986
4330.12951,0.02982
4328.20072,0.03001
4326.27194,0.03023
4324.34315,0.03049
4322.41436,0.03049
4320.48557,0.03035
4318.55678,0.03030
4316.62800,0.03012
4314.69921,0.03004
4312.77042,0.03026
4310.84163,0.03054
4308.91284,0.03050
4306.98405,0.03014
4305.05527,0.02998
4303.12648,0.03021
4301.19769,0.03052
4299.26890,0.03078
4297.34011,0.03105
4295.41132,0.03109
4293.48254,0.03057
4291.55375,0.02989
4289.62496,0.02954
4287.69617,0.02927
4285.76738,0.02911
4283.83860,0.02948
4281.90981,0.03008
4279.98102,0.03037
4278.05223,0.03037
4276.12344,0.03030
4274.19465,0.03017
4272.26587,0.02975
4270.33708,0.02931
4268.40829,0.02965
4266.47950,0.03043
4264.55071,0.03067
4262.62193,0.03068
4260.69314,0.03100
4258.76435,0.03117
4256.83556,0.03087
4254.90677,0.03034
4252.97798,0.03004
4251.04920,0.03019
4249.12041,0.03036
4247.19162,0.03030
4245.26283,0.03021
4243.33404,0.03039
4241.40526,0.03083
4239.47647,0.03114
4237.54768,0.03107
4235.61889,0.03083
4233.69010,0.03068
4231.76131,0.03046
4229.83253,0.03015
4227.90374,0.03013
4225.97495,0.03031
4224.04616,0.03042
4222.11737,0.03028
4220.18858,0.03000
4218.25980,0.03023
4216.33101,0.03087
4214.40222,0.03110
4212.47343,0.03074
4210.54464,0.03016
4208.61586,0.02990
4206.68707,0.02997
4204.75828,0.02990
4202.82949,0.02983
4200.90070,0.03005
4198.97191,0.03027
4197.04313,0.03025
4195.11434,0.03005
4193.18555,0.02994
4191.25676,0.03003
4189.32797,0.03022
4187.39919,0.03026
4185.47040,0.03017
4183.54161,0.03031
4181.61282,0.03064
4179.68403,0.03062
4177.75524,0.03026
4175.82646,0.03018
4173.89767,0.03042
4171.96888,0.03044
4170.04009,0.03014
4168.11130,0.02975
4166.18252,0.02966
4164.25373,0.03012
4162.32494,0.03058
4160.39615,0.03047
4158.46736,0.03019
4156.53857,0.03018
4154.60979,0.03029
4152.68100,0.03039
4150.75221,0.03021
4148.82342,0.02971
4146.89463,0.02957
4144.96585,0.02990
4143.03706,0.03022
4141.10827,0.03054
4139.17948,0.03075
4137.25069,0.03065
4135.32190,0.03044
4133.39312,0.03017
4131.46433,0.02995
4129.53554,0.02982
4127.60675,0.02956
4125.67796,0.02933
4123.74917,0.02940
4121.82039,0.02966
4119.89160,0.03000
4117.96281,0.03028
4116.03402,0.03036
4114.10523,0.03029
4112.17645,0.03014
4110.24766,0.03004
4108.31887,0.03014
4106.39008,0.03010
4104.46129,0.02978
4102.53250,0.02963
4100.60372,0.02994
4098.67493,0.03048
4096.74614,0.03090
4094.81735,0.03096
4092.88856,0.03068
4090.95978,0.03032
4089.03099,0.03022
4087.10220,0.03034
4085.17341,0.03046
4083.24462,0.03039
4081.31583,0.03014
4079.38705,0.02995
4077.45826,0.02986
4075.52947,0.02984
4073.60068,0.02985
4071.67189,0.02994
4069.74311,0.03023
4067.81432,0.03065
4065.88553,0.03076
4063.95674,0.03039
4062.02795,0.03001
4060.09916,0.03000
4058.17038,0.03016
4056.24159,0.03018
4054.31280,0.03011
4052.38401,0.03010
4050.45522,0.03012
4048.52644,0.03002
4046.59765,0.02985
4044.66886,0.02978
4042.74007,0.02992
4040.81128,0.03012
4038.88249,0.03025
4036.95371,0.03048
4035.02492,0.03063
4033.09613,0.03048
4031.16734,0.03028
4029.23855,0.03030
4027.30976,0.03050
4025.38098,0.03053
4023.45219,0.03041
4021.52340,0.03060
4019.59461,0.03094
4017.66582,0.03103
4015.73704,0.03099
4013.80825,0.03106
4011.87946,0.03117
4009.95067,0.03111
4008.02188,0.03084
4006.09309,0.03056
4004.16431,0.03046
4002.23552,0.03033
4000.30673,0.03022
3998.37794,0.03055
3996.44915,0.03101
3994.52037,0.03091
3992.59158,0.03043
3990.66279,0.03017
3988.73400,0.03018
3986.80521,0.03016
3984.87642,0.03002
3982.94764,0.03002
3981.01885,0.03026
3979.09006,0.03030
3977.16127,0.03002
3975.23248,0.02979
3973.30370,0.02988
3971.37491,0.03025
3969.44612,0.03037
3967.51733,0.03012
3965.58854,0.02997
3963.65975,0.02989
3961.73097,0.02969
3959.80218,0.02963
3957.87339,0.02981
3955.94460,0.02984
3954.01581,0.02970
3952.08702,0.02989
3950.15824,0.03035
3948.22945,0.03061
3946.30066,0.03067
3944.37187,0.03068
3942.44308,0.03053
3940.51430,0.03038
3938.58551,0.03044
3936.65672,0.03043
3934.72793,0.03010
3932.79914,0.02982
3930.87035,0.02997
3928.94157,0.03009
3927.01278,0.02992
3925.08399,0.03004
3923.15520,0.03057
3921.22641,0.03080
3919.29763,0.03045
3917.36884,0.02989
3915.44005,0.02976
3913.51126,0.03004
3911.58247,0.03011
3909.65368,0.02995
3907.72490,0.03012
3905.79611,0.03071
3903.86732,0.03112
3901.93853,0.03088
3900.00974,0.03048
3898.08096,0.03051
3896.15217,0.03071
3894.22338,0.03053
3892.29459,0.03000
3890.36580,0.02988
3888.43701,0.03011
3886.50823,0.03003
3884.57944,0.02998
3882.65065,0.03029
3880.72186,0.03027
3878.79307,0.03007
3876.86429,0.03036
3874.93550,0.03084
3873.00671,0.03097
3871.07792,0.03076
3869.14913,0.03087
3867.22034,0.03135
3865.29156,0.03130
3863.36277,0.03064
3861.43398,0.03036
3859.50519,0.03047
3857.57640,0.03053
3855.64761,0.03035
3853.71883,0.02977
3851.79004,0.02960
3849.86125,0.02993
3847.93246,0.03004
3846.00367,0.03008
3844.07489,0.03054
3842.14610,0.03120
3840.21731,0.03141
3838.28852,0.03098
3836.35973,0.03052
3834.43094,0.03047
3832.50216,0.03028
3830.57337,0.03003
3828.64458,0.03019
3826.71579,0.03040
3824.78700,0.03040
3822.85822,0.03031
3820.92943,0.03009
3819.00064,0.03013
3817.07185,0.03038
3815.14306,0.03055
3813.21427,0.03061
3811.28549,0.03053
3809.35670,0.03031
3807.42791,0.03001
3805.49912,0.03014
3803.57033,0.03059
3801.64155,0.03041
3799.71276,0.02995
3797.78397,0.02981
3795.85518,0.02981
3793.92639,0.02999
3791.99760,0.03011
3790.06882,0.03017
3788.14003,0.03033
3786.21124,0.03050
3784.28245,0.03058
3782.35366,0.03050
3780.42488,0.03025
3778.49609,0.03008
3776.56730,0.03012
3774.63851,0.03017
3772.70972,0.03033
3770.78093,0.03073
3768.85215,0.03105
3766.92336,0.03072
3764.99457,0.02972
3763.06578,0.02898
3761.13699,0.02914
3759.20820,0.02982
3757.27942,0.03034
3755.35063,0.03061
3753.42184,0.03057
3751.49305,0.03005
3749.56426,0.03005
3747.63548,0.03095
3745.70669,0.03166
3743.77790,0.03182
3741.84911,0.03160
3739.92032,0.03102
3737.99153,0.03029
3736.06275,0.03005
3734.13396,0.03031
3732.20517,0.03009
3730.27638,0.02956
3728.34759,0.02932
3726.41881,0.02947
3724.49002,0.02981
3722.56123,0.03000
3720.63244,0.03009
3718.70365,0.03049
3716.77486,0.03100
3714.84608,0.03111
3712.91729,0.03055
3710.98850,0.02977
3709.05971,0.02963
3707.13092,0.02973
3705.20214,0.02969
3703.27335,0.02949
3701.34456,0.02922
3699.41577,0.02912
3697.48698,0.02926
3695.55819,0.02949
3693.62941,0.02973
3691.70062,0.03006
3689.77183,0.03015
3687.84304,0.02983
3685.91425,0.02961
3683.98546,0.02938
3682.05668,0.02925
3680.12789,0.02937
3678.19910,0.02956
3676.27031,0.02974
3674.34152,0.02984
3672.41274,0.02983
3670.48395,0.02949
3668.55516,0.02902
3666.62637,0.02909
3664.69758,0.02928
3662.76879,0.02924
3660.84001,0.02918
3658.91122,0.02911
3656.98243,0.02885
3655.05364,0.02886
3653.12485,0.02941
3651.19607,0.02995
3649.26728,0.02967
3647.33849,0.02888
3645.40970,0.02853
3643.48091,0.02842
3641.55212,0.02846
3639.62334,0.02854
3637.69455,0.02855
3635.76576,0.02881
3633.83697,0.02940
3631.90818,0.02980
3629.97940,0.02949
3628.05061,0.02854
3626.12182,0.02781
3624.19303,0.02768
3622.26424,0.02833
3620.33545,0.02911
3618.40667,0.02867
3616.47788,0.02768
3614.54909,0.02733
3612.62030,0.02754
3610.69151,0.02797
3608.76273,0.02820
3606.83394,0.02803
3604.90515,0.02784
3602.97636,0.02774
3601.04757,0.02771
3599.11878,0.02780
3597.19000,0.02782
3595.26121,0.02759
3593.33242,0.02726
3591.40363,0.02709
3589.47484,0.02727
3587.54605,0.02777
3585.61727,0.02789
3583.68848,0.02752
3581.75969,0.02727
3579.83090,0.02735
3577.90211,0.02767
3575.97333,0.02789
3574.04454,0.02774
3572.11575,0.02776
3570.18696,0.02810
3568.25817,0.02796
3566.32938,0.02732
3564.40060,0.02710
3562.47181,0.02703
3560.54302,0.02702
3558.61423,0.02724
3556.68544,0.02753
3554.75666,0.02758
3552.82787,0.02728
3550.89908,0.02716
3548.97029,0.02749
3547.04150,0.02763
3545.11271,0.02729
3543.18393,0.02707
3541.25514,0.02710
3539.32635,0.02697
3537.39756,0.02688
3535.46877,0.02711
3533.53999,0.02732
3531.61120,0.02737
3529.68241,0.02725
3527.75362,0.02682
3525.82483,0.02623
3523.89604,0.02581
3521.96726,0.02581
3520.03847,0.02605
3518.10968,0.02624
3516.18089,0.02648
3514.25210,0.02678
3512.32332,0.02711
3510.39453,0.02744
3508.46574,0.02753
3506.53695,0.02741
3504.60816,0.02719
3502.67937,0.02683
3500.75059,0.02643
3498.82180,0.02630
3496.89301,0.02657
3494.96422,0.02688
3493.03543,0.02696
3491.10664,0.02704
3489.17786,0.02709
3487.24907,0.02693
3485.32028,0.02680
3483.39149,0.02681
3481.46270,0.02674
3479.53392,0.02649
3477.60513,0.02627
3475.67634,0.02632
3473.74755,0.02664
3471.81876,0.02693
3469.88997,0.02686
3467.96119,0.02660
3466.03240,0.02654
3464.10361,0.02672
3462.17482,0.02695
3460.24603,0.02704
3458.31725,0.02675
3456.38846,0.02616
3454.45967,0.02582
3452.53088,0.02610
3450.60209,0.02657
3448.67330,0.02658
3446.74452,0.02613
3444.81573,0.02592
3442.88694,0.02605
3440.95815,0.02627
3439.02936,0.02659
3437.10058,0.02675
3435.17179,0.02692
3433.24300,0.02739
3431.31421,0.02758
3429.38542,0.02718
3427.45663,0.02680
3425.52785,0.02688
3423.59906,0.02719
3421.67027,0.02725
3419.74148,0.02708
3417.81269,0.02683
3415.88390,0.02637
3413.95512,0.02605
3412.02633,0.02635
3410.09754,0.02677
3408.16875,0.02665
3406.23996,0.02637
3404.31118,0.02658
3402.38239,0.02702
3400.45360,0.02710
3398.52481,0.02698
3396.59602,0.02698
3394.66723,0.02692
3392.73845,0.02678
3390.80966,0.02664
3388.88087,0.02633
3386.95208,0.02601
3385.02329,0.02600
3383.09451,0.02632
3381.16572,0.02660
3379.23693,0.02655
3377.30814,0.02663
3375.37935,0.02690
3373.45056,0.02679
3371.52178,0.02648
3369.59299,0.02655
3367.66420,0.02673
3365.73541,0.02674
3363.80662,0.02684
3361.87784,0.02696
3359.94905,0.02680
3358.02026,0.02659
3356.09147,0.02655
3354.16268,0.02661
3352.23389,0.02663
3350.30511,0.02644
3348.37632,0.02611
3346.44753,0.02604
3344.51874,0.02630
3342.58995,0.02645
3340.66117,0.02645
3338.73238,0.02649
3336.80359,0.02631
3334.87480,0.02591
3332.94601,0.02584
3331.01722,0.02603
3329.08844,0.02609
3327.15965,0.02605
3325.23086,0.02606
3323.30207,0.02603
3321.37328,0.02593
3319.44449,0.02588
3317.51571,0.02612
3315.58692,0.02655
3313.65813,0.02674
3311.72934,0.02674
3309.80055,0.02692
3307.87177,0.02708
3305.94298,0.02702
3304.01419,0.02682
3302.08540,0.02655
3300.15661,0.02642
3298.22782,0.02637
3296.29904,0.02622
3294.37025,0.02620
3292.44146,0.02632
3290.51267,0.02628
3288.58388,0.02613
3286.65510,0.02605
3284.72631,0.02596
3282.79752,0.02591
3280.86873,0.02597
3278.93994,0.02609
3277.01115,0.02618
3275.08237,0.02627
3273.15358,0.02635
3271.22479,0.02639
3269.29600,0.02643
3267.36721,0.02645
3265.43843,0.02624
3263.50964,0.02599
3261.58085,0.02597
3259.65206,0.02605
3257.72327,0.02616
3255.79448,0.02640
3253.86570,0.02647
3251.93691,0.02628
3250.00812,0.02617
3248.07933,0.02618
3246.15054,0.02636
3244.22175,0.02695
3242.29297,0.02755
3240.36418,0.02781
3238.43539,0.02767
3236.50660,0.02715
3234.57781,0.02681
3232.64903,0.02692
3230.72024,0.02697
3228.79145,0.02704
3226.86266,0.02735
3224.93387,0.02768
3223.00508,0.02764
3221.07630,0.02720
3219.14751,0.02689
3217.21872,0.02677
3215.28993,0.02661
3213.36114,0.02669
3211.43236,0.02705
3209.50357,0.02749
3207.57478,0.02779
3205.64599,0.02763
3203.71720,0.02712
3201.78841,0.02673
3199.85963,0.02658
3197.93084,0.02677
3196.00205,0.02706
3194.07326,0.02711
3192.14447,0.02711
3190.21569,0.02722
3188.28690,0.02728
3186.35811,0.02715
3184.42932,0.02678
3182.50053,0.02645
3180.57174,0.02660
3178.64296,0.02697
3176.71417,0.02695
3174.78538,0.02669
3172.85659,0.02672
3170.92780,0.02692
3168.99902,0.02700
3167.07023,0.02719
3165.14144,0.02744
3163.21265,0.02760
3161.28386,0.02774
3159.35507,0.02777
3157.42629,0.02758
3155.49750,0.02739
3153.56871,0.02714
3151.63992,0.02684
3149.71113,0.02684
3147.78234,0.02708
3145.85356,0.02701
3143.92477,0.02677
3141.99598,0.02682
3140.06719,0.02724
3138.13840,0.02758
3136.20962,0.02744
3134.28083,0.02717
3132.35204,0.02719
3130.42325,0.02727
3128.49446,0.02713
3126.56567,0.02683
3124.63689,0.02661
3122.70810,0.02668
3120.77931,0.02703
3118.85052,0.02729
3116.92173,0.02715
3114.99295,0.02686
3113.06416,0.02685
3111.13537,0.02716
3109.20658,0.02742
3107.27779,0.02723
3105.34900,0.02666
3103.42022,0.02631
3101.49143,0.02641
3099.56264,0.02666
3097.63385,0.02689
3095.70506,0.02704
3093.77628,0.02720
3091.84749,0.02738
3089.91870,0.02739
3087.98991,0.02730
3086.06112,0.02732
3084.13233,0.02740
3082.20355,0.02736
3080.27476,0.02725
3078.34597,0.02718
3076.41718,0.02715
3074.48839,0.02708
3072.55961,0.02700
3070.63082,0.02696
3068.70203,0.02681
3066.77324,0.02665
3064.84445,0.02671
3062.91566,0.02684
3060.98688,0.02688
3059.05809,0.02695
3057.12930,0.02719
3055.20051,0.02747
3053.27172,0.02748
3051.34293,0.02713
3049.41415,0.02683
3047.48536,0.02693
3045.55657,0.02715
3043.62778,0.02720
3041.69899,0.02719
3039.77021,0.02718
3037.84142,0.02707
3035.91263,0.02678
3033.98384,0.02649
3032.05505,0.02658
3030.12626,0.02685
3028.19748,0.02687
3026.26869,0.02681
3024.33990,0.02692
3022.41111,0.02696
3020.48232,0.02680
3018.55354,0.02662
3016.62475,0.02663
3014.69596,0.02679
3012.76717,0.02686
3010.83838,0.02688
3008.90959,0.02693
3006.98081,0.02690
3005.05202,0.02693
3003.12323,0.02711
3001.19444,0.02728
2999.26565,0.02730
2997.33687,0.02706
2995.40808,0.02665
2993.47929,0.02646
2991.55050,0.02644
2989.62171,0.02628
2987.69292,0.02611
2985.76414,0.02607
2983.83535,0.02597
2981.90656,0.02587
2979.97777,0.02602
2978.04898,0.02627
2976.12019,0.02627
2974.19141,0.02599
2972.26262,0.02572
2970.33383,0.02560
2968.40504,0.02553
2966.47625,0.02560
2964.54747,0.02578
2962.61868,0.02568
2960.68989,0.02537
2958.76110,0.02531
2956.83231,0.02544
2954.90352,0.02554
2952.97474,0.02564
2951.04595,0.02575
2949.11716,0.02568
2947.18837,0.02550
2945.25958,0.02539
2943.33080,0.02536
2941.40201,0.02548
2939.47322,0.02563
2937.54443,0.02568
2935.61564,0.02564
2933.68685,0.02556
2931.75807,0.02560
2929.82928,0.02592
2927.90049,0.02633
2925.97170,0.02641
2924.04291,0.02608
2922.11413,0.02587
2920.18534,0.02606
2918.25655,0.02622
2916.32776,0.02623
2914.39897,0.02644
2912.47018,0.02662
2910.54140,0.02651
2908.61261,0.02642
2906.68382,0.02635
2904.75503,0.02622
2902.82624,0.02620
2900.89746,0.02632
2898.96867,0.02645
2897.03988,0.02656
2895.11109,0.02653
2893.18230,0.02650
2891.25351,0.02669
2889.32473,0.02683
2887.39594,0.02664
2885.46715,0.02632
2883.53836,0.02611
2881.60957,0.02609
2879.68078,0.02618
2877.75200,0.02629
2875.82321,0.02648
2873.89442,0.02658
2871.96563,0.02640
2870.03684,0.02627
2868.10806,0.02634
2866.17927,0.02645
2864.25048,0.02659
2862.32169,0.02678
2860.39290,0.02689
2858.46411,0.02688
2856.53533,0.02681
2854.60654,0.02677
2852.67775,0.02675
2850.74896,0.02680
2848.82017,0.02690
2846.89139,0.02702
2844.96260,0.02712
2843.03381,0.02709
2841.10502,0.02690
2839.17623,0.02673
2837.24744,0.02671
2835.31866,0.02680
2833.38987,0.02696
2831.46108,0.02720
2829.53229,0.02735
2827.60350,0.02734
2825.67472,0.02726
2823.74593,0.02717
2821.81714,0.02714
2819.88835,0.02714
2817.95956,0.02714
2816.03077,0.02722
2814.10199,0.02740
2812.17320,0.02740
2810.24441,0.02696
2808.31562,0.02659
2806.38683,0.02685
2804.45805,0.02732
2802.52926,0.02744
2800.60047,0.02727
2798.67168,0.02717
2796.74289,0.02727
2794.81410,0.02731
2792.88532,0.02716
2790.95653,0.02701
2789.02774,0.02705
2787.09895,0.02727
2785.17016,0.02750
2783.24137,0.02757
2781.31259,0.02737
2779.38380,0.02705
2777.45501,0.02698
2775.52622,0.02721
2773.59743,0.02744
2771.66865,0.02743
2769.73986,0.02730
2767.81107,0.02739
2765.88228,0.02775
2763.95349,0.02800
2762.02470,0.02792
2760.09592,0.02757
2758.16713,0.02718
2756.23834,0.02701
2754.30955,0.02711
2752.38076,0.02727
2750.45198,0.02734
2748.52319,0.02729
2746.59440,0.02705
2744.66561,0.02686
2742.73682,0.02702
2740.80803,0.02744
2738.87925,0.02767
2736.95046,0.02763
2735.02167,0.02768
2733.09288,0.02785
2731.16409,0.02777
2729.23531,0.02746
2727.30652,0.02723
2725.37773,0.02726
2723.44894,0.02746
2721.52015,0.02764
2719.59136,0.02769
2717.66258,0.02767
2715.73379,0.02768
2713.80500,0.02769
2711.87621,0.02763
2709.94742,0.02750
2708.01863,0.02730
2706.08985,0.02705
2704.16106,0.02692
2702.23227,0.02702
2700.30348,0.02722
2698.37469,0.02739
2696.44591,0.02752
2694.51712,0.02756
2692.58833,0.02748
2690.65954,0.02745
2688.73075,0.02746
2686.80196,0.02743
2684.87318,0.02742
2682.94439,0.02750
2681.01560,0.02754
2679.08681,0.02729
2677.15802,0.02683
2675.22924,0.02674
2673.30045,0.02717
2671.37166,0.02751
2669.44287,0.02742
2667.51408,0.02728
2665.58529,0.02734
2663.65651,0.02749
2661.72772,0.02752
2659.79893,0.02737
2657.87014,0.02726
2655.94135,0.02729
2654.01257,0.02730
2652.08378,0.02736
2650.15499,0.02750
2648.22620,0.02758
2646.29741,0.02757
2644.36862,0.02758
2642.43984,0.02754
2640.51105,0.02730
2638.58226,0.02692
2636.65347,0.02677
2634.72468,0.02702
2632.79590,0.02727
2630.86711,0.02726
2628.93832,0.02727
2627.00953,0.02743
2625.08074,0.02759
2623.15195,0.02755
2621.22317,0.02737
2619.29438,0.02727
2617.36559,0.02717
2615.43680,0.02695
2613.50801,0.02689
2611.57922,0.02717
2609.65044,0.02745
2607.72165,0.02735
2605.79286,0.02712
2603.86407,0.02709
2601.93528,0.02723
2600.00650,0.02738
2598.07771,0.02737
2596.14892,0.02715
2594.22013,0.02693
2592.29134,0.02679
2590.36255,0.02682
2588.43377,0.02706
2586.50498,0.02718
2584.57619,0.02708
2582.64740,0.02706
2580.71861,0.02724
2578.78983,0.02734
2576.86104,0.02731
2574.93225,0.02728
2573.00346,0.02727
2571.07467,0.02722
2569.14588,0.02714
2567.21710,0.02709
2565.28831,0.02717
2563.35952,0.02726
2561.43073,0.02715
2559.50194,0.02688
2557.57316,0.02675
2555.64437,0.02703
2553.71558,0.02744
2551.78679,0.02744
2549.85800,0.02713
2547.92921,0.02694
2546.00043,0.02691
2544.07164,0.02693
2542.14285,0.02707
2540.21406,0.02714
2538.28527,0.02706
2536.35649,0.02702
2534.42770,0.02702
2532.49891,0.02704
2530.57012,0.02720
2528.64133,0.02737
2526.71254,0.02742
2524.78376,0.02741
2522.85497,0.02730
2520.92618,0.02702
2518.99739,0.02689
2517.06860,0.02706
2515.13981,0.02728
2513.21103,0.02733
2511.28224,0.02731
2509.35345,0.02735
2507.42466,0.02740
2505.49587,0.02737
2503.56709,0.02722
2501.63830,0.02706
2499.70951,0.02704
2497.78072,0.02704
2495.85193,0.02702
2493.92314,0.02714
2491.99436,0.02728
2490.06557,0.02731
2488.13678,0.02733
2486.20799,0.02742
2484.27920,0.02745
2482.35042,0.02734
2480.42163,0.02723
2478.49284,0.02722
2476.56405,0.02729
2474.63526,0.02735
2472.70647,0.02727
2470.77769,0.02706
2468.84890,0.02694
2466.92011,0.02694
2464.99132,0.02697
2463.06253,0.02704
2461.13375,0.02700
2459.20496,0.02684
2457.27617,0.02677
2455.34738,0.02685
2453.41859,0.02693
2451.48980,0.02692
2449.56102,0.02683
2447.63223,0.02679
2445.70344,0.02688
2443.77465,0.02703
2441.84586,0.02717
2439.91707,0.02720
2437.98829,0.02711
2436.05950,0.02701
2434.13071,0.02690
2432.20192,0.02679
2430.27313,0.02684
2428.34435,0.02699
2426.41556,0.02707
2424.48677,0.02714
2422.55798,0.02723
2420.62919,0.02732
2418.70040,0.02735
2416.77162,0.02720
2414.84283,0.02694
2412.91404,0.02671
2410.98525,0.02661
2409.05646,0.02670
2407.12768,0.02690
2405.19889,0.02697
2403.27010,0.02695
2401.34131,0.02694
2399.41252,0.02691
2397.48373,0.02689
2395.55495,0.02690
2393.62616,0.02685
2391.69737,0.02678
2389.76858,0.02678
2387.83979,0.02689
2385.91101,0.02708
2383.98222,0.02717
2382.05343,0.02701
2380.12464,0.02691
2378.19585,0.02718
2376.26706,0.02745
2374.33828,0.02728
2372.40949,0.02696
2370.48070,0.02689
2368.55191,0.02719
2366.62312,0.02772
2364.69434,0.02799
2362.76555,0.02780
2360.83676,0.02761
2358.90797,0.02765
2356.97918,0.02754
2355.05039,0.02728
2353.12161,0.02719
2351.19282,0.02718
2349.26403,0.02715
2347.33524,0.02725
2345.40645,0.02727
2343.47766,0.02707
2341.54888,0.02709
2339.62009,0.02739
2337.69130,0.02756
2335.76251,0.02755
2333.83372,0.02774
2331.90494,0.02797
2329.97615,0.02783
2328.04736,0.02733
2326.11857,0.02689
2324.18978,0.02693
2322.26099,0.02726
2320.33221,0.02739
2318.40342,0.02722
2316.47463,0.02704
2314.54584,0.02712
2312.61705,0.02736
2310.68827,0.02738
2308.75948,0.02713
2306.83069,0.02698
2304.90190,0.02701
2302.97311,0.02697
2301.04432,0.02687
2299.11554,0.02686
2297.18675,0.02675
2295.25796,0.02651
2293.32917,0.02642
2291.40038,0.02652
2289.47160,0.02655
2287.54281,0.02646
2285.61402,0.02643
2283.68523,0.02648
2281.75644,0.02660
2279.82765,0.02665
2277.89887,0.02660
2275.97008,0.02658
2274.04129,0.02661
2272.11250,0.02657
2270.18371,0.02653
2268.25493,0.02659
2266.32614,0.02668
2264.39735,0.02663
2262.46856,0.02641
2260.53977,0.02626
2258.61098,0.02635
2256.68220,0.02654
2254.75341,0.02659
2252.82462,0.02646
2250.89583,0.02639
2248.96704,0.02649
2247.03825,0.02649
2245.10947,0.02638
2243.18068,0.02647
2241.25189,0.02673
2239.32310,0.02686
2237.39431,0.02683
2235.46553,0.02685
2233.53674,0.02693
2231.60795,0.02691
2229.67916,0.02678
2227.75037,0.02673
2225.82158,0.02672
2223.89280,0.02665
2221.96401,0.02659
2220.03522,0.02663
2218.10643,0.02667
2216.17764,0.02662
2214.24886,0.02655
2212.32007,0.02651
2210.39128,0.02638
2208.46249,0.02619
2206.53370,0.02613
2204.60491,0.02629
2202.67613,0.02659
2200.74734,0.02676
2198.81855,0.02662
2196.88976,0.02641
2194.96097,0.02646
2193.03219,0.02656
2191.10340,0.02640
2189.17461,0.02614
2187.24582,0.02608
2185.31703,0.02629
2183.38824,0.02656
2181.45946,0.02661
2179.53067,0.02649
2177.60188,0.02645
2175.67309,0.02647
2173.74430,0.02639
2171.81551,0.02622
2169.88673,0.02617
2167.95794,0.02631
2166.02915,0.02647
2164.10036,0.02645
2162.17157,0.02633
2160.24279,0.02629
2158.31400,0.02634
2156.38521,0.02640
2154.45642,0.02637
2152.52763,0.02620
2150.59884,0.02611
2148.67006,0.02623
2146.74127,0.02645
2144.81248,0.02658
2142.88369,0.02663
2140.95490,0.02657
2139.02612,0.02637
2137.09733,0.02614
2135.16854,0.02600
2133.23975,0.02597
2131.31096,0.02602
2129.38217,0.02610
2127.45339,0.02624
2125.52460,0.02642
2123.59581,0.02637
2121.66702,0.02614
2119.73823,0.02600
2117.80945,0.02593
2115.88066,0.02584
2113.95187,0.02575
2112.02308,0.02568
2110.09429,0.02575
2108.16550,0.02596
2106.23672,0.02607
2104.30793,0.02597
2102.37914,0.02584
2100.45035,0.02583
2098.52156,0.02584
2096.59278,0.02587
2094.66399,0.02601
2092.73520,0.02613
2090.80641,0.02609
2088.87762,0.02602
2086.94883,0.02591
2085.02005,0.02572
2083.09126,0.02562
2081.16247,0.02569
2079.23368,0.02580
2077.30489,0.02589
2075.37610,0.02599
2073.44732,0.02605
2071.51853,0.02605
2069.58974,0.02601
2067.66095,0.02595
2065.73216,0.02599
2063.80338,0.02610
2061.87459,0.02611
2059.94580,0.02599
2058.01701,0.02594
2056.08822,0.02597
2054.15943,0.02593
2052.23065,0.02579
2050.30186,0.02569
2048.37307,0.02570
2046.44428,0.02578
2044.51549,0.02588
2042.58671,0.02602
2040.65792,0.02616
2038.72913,0.02624
2036.80034,0.02622
2034.87155,0.02614
2032.94276,0.02602
2031.01398,0.02585
2029.08519,0.02574
2027.15640,0.02583
2025.22761,0.02597
2023.29882,0.02597
2021.37004,0.02594
2019.44125,0.02605
2017.51246,0.02623
2015.58367,0.02635
2013.65488,0.02630
2011.72609,0.02611
2009.79731,0.02594
2007.86852,0.02590
2005.93973,0.02595
2004.01094,0.02602
2002.08215,0.02607
2000.15336,0.02610
1998.22458,0.02605
1996.29579,0.02598
1994.36700,0.02606
1992.43821,0.02616
1990.50942,0.02611
1988.58064,0.02590
1986.65185,0.02565
1984.72306,0.02567
1982.79427,0.02600
1980.86548,0.02624
1978.93669,0.02623
1977.00791,0.02619
1975.07912,0.02615
1973.15033,0.02601
1971.22154,0.02581
1969.29275,0.02570
1967.36397,0.02564
1965.43518,0.02563
1963.50639,0.02577
1961.57760,0.02596
1959.64881,0.02605
1957.72002,0.02602
1955.79124,0.02593
1953.86245,0.02584
1951.93366,0.02574
1950.00487,0.02566
1948.07608,0.02571
1946.14730,0.02590
1944.21851,0.02599
1942.28972,0.02583
1940.36093,0.02567
1938.43214,0.02561
1936.50335,0.02557
1934.57457,0.02555
1932.64578,0.02560
1930.71699,0.02573
1928.78820,0.02587
1926.85941,0.02593
1924.93063,0.02588
1923.00184,0.02562
1921.07305,0.02532
1919.14426,0.02516
1917.21547,0.02508
1915.28668,0.02506
1913.35790,0.02520
1911.42911,0.02549
1909.50032,0.02572
1907.57153,0.02568
1905.64274,0.02550
1903.71395,0.02538
1901.78517,0.02539
1899.85638,0.02536
1897.92759,0.02528
1895.99880,0.02530
1894.07001,0.02544
1892.14123,0.02557
1890.21244,0.02561
1888.28365,0.02551
1886.35486,0.02534
1884.42607,0.02511
1882.49728,0.02499
1880.56850,0.02515
1878.63971,0.02534
1876.71092,0.02534
1874.78213,0.02523
1872.85334,0.02519
1870.92456,0.02533
1868.99577,0.02550
1867.06698,0.02537
1865.13819,0.02511
1863.20940,0.02496
1861.28061,0.02494
1859.35183,0.02487
1857.42304,0.02465
1855.49425,0.02451
1853.56546,0.02462
1851.63667,0.02487
1849.70789,0.02507
1847.77910,0.02513
1845.85031,0.02500
1843.92152,0.02471
1841.99273,0.02449
1840.06394,0.02456
1838.13516,0.02476
1836.20637,0.02478
1834.27758,0.02454
1832.34879,0.02443
1830.42000,0.02454
1828.49122,0.02463
1826.56243,0.02467
1824.63364,0.02461
1822.70485,0.02443
1820.77606,0.02430
1818.84727,0.02429
1816.91849,0.02430
1814.98970,0.02433
1813.06091,0.02447
1811.13212,0.02455
1809.20333,0.02438
1807.27454,0.02417
1805.34576,0.02412
1803.41697,0.02420
1801.48818,0.02426
1799.55939,0.02418
1797.63060,0.02414
1795.70182,0.02424
1793.77303,0.02441
1791.84424,0.02443
1789.91545,0.02417
1787.98666,0.02388
1786.05787,0.02368
1784.12909,0.02363
1782.20030,0.02366
1780.27151,0.02362
1778.34272,0.02354
1776.41393,0.02351
1774.48515,0.02341
1772.55636,0.02312
1770.62757,0.02290
1768.69878,0.02287
1766.76999,0.02287
1764.84120,0.02290
1762.91242,0.02280
1760.98363,0.02244
1759.05484,0.02217
1757.12605,0.02203
1755.19726,0.02184
1753.26848,0.02172
1751.33969,0.02172
1749.41090,0.02173
1747.48211,0.02174
1745.55332,0.02193
1743.62453,0.02230
1741.69575,0.02256
1739.76696,0.02258
1737.83817,0.02276
1735.90938,0.02331
1733.98059,0.02383
1732.05180,0.02384
1730.12302,0.02382
1728.19423,0.02394
1726.26544,0.02408
1724.33665,0.02421
1722.40786,0.02436
1720.47908,0.02457
1718.55029,0.02474
1716.62150,0.02461
1714.69271,0.02431
1712.76392,0.02411
1710.83513,0.02405
1708.90635,0.02403
1706.97756,0.02380
1705.04877,0.02357
1703.11998,0.02376
1701.19119,0.02420
1699.26241,0.02421
1697.33362,0.02366
1695.40483,0.02322
1693.47604,0.02329
1691.54725,0.02345
1689.61846,0.02345
1687.68968,0.02354
1685.76089,0.02366
1683.83210,0.02313
1681.90331,0.02257
1679.97452,0.02251
1678.04574,0.02255
1676.11695,0.02245
1674.18816,0.02224
1672.25937,0.02209
1670.33058,0.02182
1668.40179,0.02145
1666.47301,0.02151
1664.54422,0.02180
1662.61543,0.02197
1660.68664,0.02200
1658.75785,0.02217
1656.82907,0.02250
1654.90028,0.02260
1652.97149,0.02188
1651.04270,0.02175
1649.11391,0.02227
1647.18512,0.02224
1645.25634,0.02162
1643.32755,0.02151
1641.39876,0.02178
1639.46997,0.02214
1637.54118,0.02236
1635.61239,0.02219
1633.68361,0.02202
1631.75482,0.02196
1629.82603,0.02177
1627.89724,0.02176
1625.96845,0.02218
1624.03967,0.02254
1622.11088,0.02256
1620.18209,0.02259
1618.25330,0.02267
1616.32451,0.02242
1614.39572,0.02214
1612.46694,0.02214
1610.53815,0.02230
1608.60936,0.02255
1606.68057,0.02274
1604.75178,0.02274
1602.82300,0.02261
1600.89421,0.02243
1598.96542,0.02229
1597.03663,0.02237
1595.10784,0.02255
1593.17905,0.02253
1591.25027,0.02239
1589.32148,0.02233
1587.39269,0.02231
1585.46390,0.02225
1583.53511,0.02208
1581.60633,0.02187
1579.67754,0.02183
1577.74875,0.02187
1575.81996,0.02185
1573.89117,0.02187
1571.96238,0.02176
1570.03360,0.02152
1568.10481,0.02150
1566.17602,0.02170
1564.24723,0.02195
1562.31844,0.02230
1560.38966,0.02259
1558.46087,0.02211
1556.53208,0.02171
1554.60329,0.02177
1552.67450,0.02186
1550.74571,0.02189
1548.81693,0.02178
1546.88814,0.02169
1544.95935,0.02183
1543.03056,0.02212
1541.10177,0.02209
1539.17298,0.02160
1537.24420,0.02163
1535.31541,0.02205
1533.38662,0.02253
1531.45783,0.02273
1529.52904,0.02279
1527.60026,0.02295
1525.67147,0.02308
1523.74268,0.02296
1521.81389,0.02266
1519.88510,0.02261
1517.95631,0.02267
1516.02753,0.02236
1514.09874,0.02196
1512.16995,0.02183
1510.24116,0.02199
1508.31237,0.02239
1506.38359,0.02249
1504.45480,0.02239
1502.52601,0.02252
1500.59722,0.02267
1498.66843,0.02269
1496.73964,0.02254
1494.81086,0.02234
1492.88207,0.02226
1490.95328,0.02224
1489.02449,0.02208
1487.09570,0.02188
1485.16692,0.02193
1483.23813,0.02216
1481.30934,0.02225
1479.38055,0.02216
1477.45176,0.02205
1475.52297,0.02191
1473.59419,0.02159
1471.66540,0.02126
1469.73661,0.02127
1467.80782,0.02145
1465.87903,0.02158
1463.95024,0.02162
1462.02146,0.02171
1460.09267,0.02194
1458.16388,0.02221
1456.23509,0.02212
1454.30630,0.02183
1452.37752,0.02161
1450.44873,0.02146
1448.51994,0.02145
1446.59115,0.02161
1444.66236,0.02181
1442.73357,0.02195
1440.80479,0.02204
1438.87600,0.02204
1436.94721,0.02172
1435.01842,0.02149
1433.08963,0.02172
1431.16085,0.02198
1429.23206,0.02196
1427.30327,0.02187
1425.37448,0.02180
1423.44569,0.02166
1421.51690,0.02158
1419.58812,0.02153
1417.65933,0.02131
1415.73054,0.02130
1413.80175,0.02144
1411.87296,0.02143
1409.94418,0.02126
1408.01539,0.02106
1406.08660,0.02090
1404.15781,0.02080
1402.22902,0.02083
1400.30023,0.02097
1398.37145,0.02098
1396.44266,0.02080
1394.51387,0.02067
1392.58508,0.02076
1390.65629,0.02101
1388.72751,0.02113
1386.79872,0.02097
1384.86993,0.02079
1382.94114,0.02077
1381.01235,0.02074
1379.08356,0.02077
1377.15478,0.02095
1375.22599,0.02101
1373.29720,0.02087
1371.36841,0.02079
1369.43962,0.02075
1367.51083,0.02073
1365.58205,0.02087
1363.65326,0.02099
1361.72447,0.02097
1359.79568,0.02100
1357.86689,0.02111
1355.93811,0.02115
1354.00932,0.02108
1352.08053,0.02087
1350.15174,0.02063
1348.22295,0.02056
1346.29416,0.02060
1344.36538,0.02060
1342.43659,0.02048
1340.50780,0.02030
1338.57901,0.02032
1336.65022,0.02047
1334.72144,0.02048
1332.79265,0.02046
1330.86386,0.02048
1328.93507,0.02036
1327.00628,0.02021
1325.07749,0.02024
1323.14871,0.02029
1321.21992,0.02020
1319.29113,0.02007
1317.36234,0.01996
1315.43355,0.01990
1313.50477,0.01984
1311.57598,0.01971
1309.64719,0.01954
1307.71840,0.01942
1305.78961,0.01952
1303.86082,0.01987
1301.93204,0.02022
1300.00325,0.02034
1298.07446,0.02027
1296.14567,0.02028
1294.21688,0.02042
1292.28810,0.02051
1290.35931,0.02055
1288.43052,0.02060
1286.50173,0.02076
1284.57294,0.02115
1282.64415,0.02134
1280.71537,0.02108
1278.78658,0.02091
1276.85779,0.02113
1274.92900,0.02150
1273.00021,0.02181
1271.07142,0.02195
1269.14264,0.02196
1267.21385,0.02197
1265.28506,0.02202
1263.35627,0.02212
1261.42748,0.02227
1259.49870,0.02242
1257.56991,0.02258
1255.64112,0.02273
1253.71233,0.02276
1251.78354,0.02275
1249.85475,0.02278
1247.92597,0.02278
1245.99718,0.02267
1244.06839,0.02253
1242.13960,0.02257
1240.21081,0.02273
1238.28203,0.02273
1236.35324,0.02253
1234.42445,0.02242
1232.49566,0.02241
1230.56687,0.02231
1228.63808,0.02216
1226.70930,0.02213
1224.78051,0.02225
1222.85172,0.02233
1220.92293,0.02224
1218.99414,0.02205
1217.06536,0.02189
1215.13657,0.02182
1213.20778,0.02184
1211.27899,0.02181
1209.35020,0.02176
1207.42141,0.02188
1205.49263,0.02207
1203.56384,0.02199
1201.63505,0.02165
1199.70626,0.02135
1197.77747,0.02125
1195.84868,0.02117
1193.91990,0.02100
1191.99111,0.02090
1190.06232,0.02085
1188.13353,0.02075
1186.20474,0.02076
1184.27596,0.02089
1182.34717,0.02094
1180.41838,0.02099
1178.48959,0.02112
1176.56080,0.02113
1174.63201,0.02088
1172.70323,0.02052
1170.77444,0.02034
1168.84565,0.02051
1166.91686,0.02070
1164.98807,0.02071
1163.05929,0.02067
1161.13050,0.02055
1159.20171,0.02033
1157.27292,0.02021
1155.34413,0.02023
1153.41534,0.02035
1151.48656,0.02051
1149.55777,0.02056
1147.62898,0.02043
1145.70019,0.02030
1143.77140,0.02034
1141.84262,0.02044
1139.91383,0.02063
1137.98504,0.02092
1136.05625,0.02108
1134.12746,0.02109
1132.19867,0.02116
1130.26989,0.02123
1128.34110,0.02118
1126.41231,0.02135
1124.48352,0.02186
1122.55473,0.02227
1120.62595,0.02236
1118.69716,0.02241
1116.76837,0.02240
1114.83958,0.02209
1112.91079,0.02175
1110.98200,0.02186
1109.05322,0.02236
1107.12443,0.02271
1105.19564,0.02254
1103.26685,0.02211
1101.33806,0.02169
1099.40927,0.02128
1097.48049,0.02118
1095.55170,0.02153
1093.62291,0.02195
1091.69412,0.02205
1089.76533,0.02182
1087.83655,0.02163
1085.90776,0.02178
1083.97897,0.02216
1082.05018,0.02256
1080.12139,0.02294
1078.19260,0.02324
1076.26382,0.02338
1074.33503,0.02343
1072.40624,0.02345
1070.47745,0.02349
1068.54866,0.02377
1066.61988,0.02432
1064.69109,0.02467
1062.76230,0.02440
1060.83351,0.02399
1058.90472,0.02403
1056.97593,0.02427
1055.04715,0.02426
1053.11836,0.02415
1051.18957,0.02409
1049.26078,0.02407
1047.33199,0.02393
1045.40321,0.02358
1043.47442,0.02338
1041.54563,0.02343
1039.61684,0.02335
1037.68805,0.02316
1035.75926,0.02302
1033.83048,0.02290
1031.90169,0.02287
1029.97290,0.02303
1028.04411,0.02324
1026.11532,0.02325
1024.18654,0.02312
1022.25775,0.02304
1020.32896,0.02297
1018.40017,0.02286
1016.47138,0.02287
1014.54259,0.02307
1012.61381,0.02329
1010.68502,0.02345
1008.75623,0.02361
1006.82744,0.02393
1004.89865,0.02437
1002.96986,0.02455
1001.04108,0.02438
999.11229,0.02421
997.18350,0.02422
995.25471,0.02440
993.32592,0.02465
991.39714,0.02470
989.46835,0.02454
987.53956,0.02444
985.61077,0.02437
983.68198,0.02427
981.75319,0.02430
979.82441,0.02444
977.89562,0.02449
975.96683,0.02444
974.03804,0.02429
972.10925,0.02398
970.18047,0.02362
968.25168,0.02349
966.32289,0.02365
964.39410,0.02377
962.46531,0.02386
960.53652,0.02409
958.60774,0.02418
956.67895,0.02401
954.75016,0.02380
952.82137,0.02368
950.89258,0.02362
948.96380,0.02359
947.03501,0.02344
945.10622,0.02311
943.17743,0.02283
941.24864,0.02274
939.31985,0.02263
937.39107,0.02248
935.46228,0.02246
933.53349,0.02254
931.60470,0.02259
929.67591,0.02273
927.74712,0.02292
925.81834,0.02301
923.88955,0.02303
921.96076,0.02310
920.03197,0.02300
918.10318,0.02256
916.17440,0.02230
914.24561,0.02250
912.31682,0.02279
910.38803,0.02296
908.45924,0.02289
906.53045,0.02259
904.60167,0.02238
902.67288,0.02245
900.74409,0.02264
898.81530,0.02291
896.88651,0.02310
894.95773,0.02281
893.02894,0.02224
891.10015,0.02222
889.17136,0.02273
887.24257,0.02284
885.31378,0.02244
883.38500,0.02217
881.45621,0.02230
879.52742,0.02268
877.59863,0.02293
875.66984,0.02281
873.74106,0.02261
871.81227,0.02254
869.88348,0.02243
867.95469,0.02213
866.02590,0.02189
864.09711,0.02218
862.16833,0.02266
860.23954,0.02261
858.31075,0.02196
856.38196,0.02141
854.45317,0.02154
852.52439,0.02197
850.59560,0.02212
848.66681,0.02213
846.73802,0.02219
844.80923,0.02219
842.88044,0.02201
840.95166,0.02178
839.02287,0.02156
837.09408,0.02144
835.16529,0.02161
833.23650,0.02199
831.30771,0.02229
829.37893,0.02236
827.45014,0.02227
825.52135,0.02209
823.59256,0.02182
821.66377,0.02156
819.73499,0.02140
817.80620,0.02162
815.87741,0.02226
813.94862,0.02260
812.01983,0.02232
810.09104,0.02184
808.16226,0.02143
806.23347,0.02126
804.30468,0.02144
802.37589,0.02159
800.44710,0.02144
798.51832,0.02135
796.58953,0.02145
794.66074,0.02148
792.73195,0.02136
790.80316,0.02087
788.87437,0.02029
786.94559,0.02050
785.01680,0.02103
783.08801,0.02082
781.15922,0.02038
779.23043,0.02048
777.30165,0.02091
775.37286,0.02140
773.44407,0.02143
771.51528,0.02081
769.58649,0.02028
767.65770,0.02016
765.72892,0.02023
763.80013,0.02036
761.87134,0.02013
759.94255,0.01978
758.01376,0.01989
756.08498,0.02020
754.15619,0.02013
752.22740,0.01973
750.29861,0.01951
748.36982,0.01988
746.44103,0.02053
744.51225,0.02070
742.58346,0.02040
740.65467,0.02032
738.72588,0.02048
736.79709,0.02057
734.86830,0.02075
732.93952,0.02079
731.01073,0.02014
729.08194,0.01934
727.15315,0.01917
725.22436,0.01916
723.29558,0.01906
721.36679,0.01932
719.43800,0.01971
717.50921,0.01960
715.58042,0.01913
713.65163,0.01888
711.72285,0.01898
709.79406,0.01913
707.86527,0.01908
705.93648,0.01899
704.00769,0.01898
702.07891,0.01903
700.15012,0.01909
698.22133,0.01901
696.29254,0.01906
694.36375,0.01938
692.43496,0.01931
690.50618,0.01907
688.57739,0.01949
686.64860,0.02001
684.71981,0.01954
682.79102,0.01837
680.86224,0.01781
678.93345,0.01830
677.00466,0.01907
675.07587,0.01922
673.14708,0.01867
671.21829,0.01828
669.28951,0.01864
667.36072,0.01908
665.43193,0.01889
663.50314,0.01851
661.57435,0.01826
659.64556,0.01817
657.71678,0.01839
655.78799,0.01889
653.85920,0.01908
651.93041,0.01874
650.00162,0.01818
648.07284,0.01785
646.14405,0.01782
644.21526,0.01819
642.28647,0.01894
640.35768,0.01934
638.42889,0.01907
636.50011,0.01880
634.57132,0.01887
632.64253,0.01907
630.71374,0.01912
628.78495,0.01911
626.85617,0.01906
624.92738,0.01883
622.99859,0.01892
621.06980,0.01924
619.14101,0.01940
617.21222,0.02001
615.28344,0.02071
613.35465,0.02030
611.42586,0.01903
609.49707,0.01808
607.56828,0.01821
605.63950,0.01906
603.71071,0.01892
601.78192,0.01695
599.85313,0.01505
