7496.90619,0.93050
7494.97747,0.93145
7493.04876,0.93225
7491.12005,0.92924
7489.19134,0.92294
7487.26262,0.91993
7485.33391,0.92475
7483.40520,0.92942
7481.47648,0.92613
7479.54777,0.92213
7477.61906,0.92946
7475.69035,0.94242
7473.76163,0.94542
7471.83292,0.94600
7469.90421,0.95359
7467.97550,0.95300
7466.04678,0.93919
7464.11807,0.92933
7462.18936,0.93258
7460.26065,0.93758
7458.33193,0.93469
7456.40322,0.93350
7454.47451,0.94008
7452.54579,0.94430
7450.61708,0.94011
7448.68837,0.93006
7446.75966,0.91833
7444.83094,0.91328
7442.90223,0.91949
7440.97352,0.93012
7439.04481,0.93610
7437.11609,0.93675
7435.18738,0.94056
7433.25867,0.95037
7431.32996,0.95725
7429.40124,0.95406
7427.47253,0.94367
7425.54382,0.93665
7423.61510,0.93912
7421.68639,0.94835
7419.75768,0.95545
7417.82897,0.94833
7415.90025,0.93461
7413.97154,0.93122
7412.04283,0.93547
7410.11412,0.93633
7408.18540,0.92921
7406.25669,0.92178
7404.32798,0.92728
7402.39927,0.94062
7400.47055,0.94204
7398.54184,0.93236
7396.61313,0.92828
7394.68441,0.93105
7392.75570,0.93369
7390.82699,0.93429
7388.89828,0.93432
7386.96956,0.93722
7385.04085,0.93872
7383.11214,0.93116
7381.18343,0.92116
7379.25471,0.92135
7377.32600,0.93126
7375.39729,0.94465
7373.46857,0.95483
7371.53986,0.95825
7369.61115,0.95687
7367.68244,0.95075
7365.75372,0.93921
7363.82501,0.92574
7361.89630,0.91840
7359.96759,0.91799
7358.03887,0.91697
7356.11016,0.91771
7354.18145,0.92240
7352.25274,0.92515
7350.32402,0.92479
7348.39531,0.92239
7346.46660,0.92195
7344.53788,0.92597
7342.60917,0.92850
7340.68046,0.92529
7338.75175,0.91802
7336.82303,0.91147
7334.89432,0.91356
7332.96561,0.92604
7331.03690,0.93847
7329.10818,0.93988
7327.17947,0.93219
7325.25076,0.92830
7323.32205,0.93308
7321.39333,0.93904
7319.46462,0.93986
7317.53591,0.93708
7315.60719,0.93086
7313.67848,0.92086
7311.74977,0.91689
7309.82106,0.92273
7307.89234,0.92830
7305.96363,0.93039
7304.03492,0.93140
7302.10621,0.93146
7300.17749,0.93229
7298.24878,0.93526
7296.32007,0.93780
7294.39136,0.93594
7292.46264,0.93009
7290.53393,0.92783
7288.60522,0.93232
7286.67650,0.93373
7284.74779,0.92735
7282.81908,0.92325
7280.89037,0.92498
7278.96165,0.92718
7277.03294,0.92812
7275.10423,0.92968
7273.17552,0.93401
7271.24680,0.93897
7269.31809,0.94006
7267.38938,0.94062
7265.46066,0.94623
7263.53195,0.95134
7261.60324,0.94754
7259.67453,0.93881
7257.74581,0.93568
7255.81710,0.94024
7253.88839,0.94221
7251.95968,0.93361
7250.03096,0.92422
7248.10225,0.92529
7246.17354,0.93363
7244.24483,0.93865
7242.31611,0.93538
7240.38740,0.93135
7238.45869,0.93278
7236.52997,0.93461
7234.60126,0.93050
7232.67255,0.92362
7230.74384,0.92436
7228.81512,0.93167
7226.88641,0.93676
7224.95770,0.93634
7223.02899,0.93313
7221.10027,0.93144
7219.17156,0.93187
7217.24285,0.93148
7215.31414,0.92752
7213.38542,0.92220
7211.45671,0.92002
7209.52800,0.91693
7207.59928,0.90870
7205.67057,0.90320
7203.74186,0.90860
7201.81315,0.91952
7199.88443,0.92808
7197.95572,0.93272
7196.02701,0.93311
7194.09830,0.93202
7192.16958,0.93262
7190.24087,0.93350
7188.31216,0.93330
7186.38344,0.92892
7184.45473,0.91824
7182.52602,0.91020
7180.59731,0.91252
7178.66859,0.91828
7176.73988,0.92126
7174.81117,0.92167
7172.88246,0.92302
7170.95374,0.92708
7169.02503,0.92686
7167.09632,0.92074
7165.16761,0.91809
7163.23889,0.91967
7161.31018,0.92246
7159.38147,0.92983
7157.45275,0.93602
7155.52404,0.93110
7153.59533,0.92315
7151.66662,0.92296
7149.73790,0.92502
7147.80919,0.92511
7145.88048,0.92583
7143.95177,0.92302
7142.02305,0.91642
7140.09434,0.91617
7138.16563,0.92273
7136.23692,0.92891
7134.30820,0.93325
7132.37949,0.93299
7130.45078,0.92844
7128.52206,0.92721
7126.59335,0.92926
7124.66464,0.92652
7122.73593,0.91905
7120.80721,0.91550
7118.87850,0.92092
7116.94979,0.92689
7115.02108,0.92335
7113.09236,0.92182
7111.16365,0.93183
7109.23494,0.94025
7107.30623,0.93596
7105.37751,0.92889
7103.44880,0.92844
7101.52009,0.92926
7099.59137,0.92899
7097.66266,0.92921
7095.73395,0.92864
7093.80524,0.92982
7091.87652,0.93147
7089.94781,0.92998
7088.01910,0.92876
7086.09039,0.93013
7084.16167,0.93160
7082.23296,0.93113
7080.30425,0.93003
7078.37553,0.92826
7076.44682,0.92426
7074.51811,0.92040
7072.58940,0.91894
7070.66068,0.91859
7068.73197,0.91919
7066.80326,0.92306
7064.87455,0.92899
7062.94583,0.93111
7061.01712,0.92829
7059.08841,0.92581
7057.15970,0.92400
7055.23098,0.92186
7053.30227,0.92322
7051.37356,0.92550
7049.44484,0.92302
7047.51613,0.91864
7045.58742,0.91887
7043.65871,0.92455
7041.72999,0.93129
7039.80128,0.93593
7037.87257,0.93666
7035.94386,0.93267
7034.01514,0.92753
7032.08643,0.92715
7030.15772,0.93131
7028.22901,0.93214
7026.30029,0.92704
7024.37158,0.92308
7022.44287,0.92476
7020.51415,0.92821
7018.58544,0.92975
7016.65673,0.92919
7014.72802,0.92514
7012.79930,0.91971
7010.87059,0.91928
7008.94188,0.92569
7007.01317,0.93310
7005.08445,0.93369
7003.15574,0.92837
7001.22703,0.92396
6999.29832,0.92282
6997.36960,0.92404
6995.44089,0.92538
6993.51218,0.92551
6991.58346,0.92529
6989.65475,0.92463
6987.72604,0.92387
6985.79733,0.92285
6983.86861,0.92108
6981.93990,0.92192
6980.01119,0.92518
6978.08248,0.92534
6976.15376,0.92166
6974.22505,0.91740
6972.29634,0.91559
6970.36762,0.91834
6968.43891,0.92487
6966.51020,0.93045
6964.58149,0.92975
6962.65277,0.92589
6960.72406,0.92798
6958.79535,0.93369
6956.86664,0.93170
6954.93792,0.92312
6953.00921,0.91812
6951.08050,0.91919
6949.15179,0.92202
6947.22307,0.92223
6945.29436,0.92065
6943.36565,0.92162
6941.43693,0.92392
6939.50822,0.92227
6937.57951,0.91695
6935.65080,0.91286
6933.72208,0.91353
6931.79337,0.91897
6929.86466,0.92466
6927.93595,0.92721
6926.00723,0.92741
6924.07852,0.92556
6922.14981,0.92294
6920.22110,0.92214
6918.29238,0.92382
6916.36367,0.92741
6914.43496,0.93043
6912.50624,0.92976
6910.57753,0.92715
6908.64882,0.92633
6906.72011,0.92735
6904.79139,0.92827
6902.86268,0.92656
6900.93397,0.92326
6899.00526,0.92378
6897.07654,0.92716
6895.14783,0.92868
6893.21912,0.93094
6891.29040,0.93537
6889.36169,0.93549
6887.43298,0.92985
6885.50427,0.92629
6883.57555,0.92907
6881.64684,0.93328
6879.71813,0.93608
6877.78942,0.93892
6875.86070,0.93767
6873.93199,0.93309
6872.00328,0.93395
6870.07457,0.93784
6868.14585,0.93741
6866.21714,0.93406
6864.28843,0.93090
6862.35971,0.92919
6860.43100,0.92917
6858.50229,0.93048
6856.57358,0.93305
6854.64486,0.93547
6852.71615,0.93490
6850.78744,0.93140
6848.85873,0.93081
6846.93001,0.93557
6845.00130,0.93823
6843.07259,0.93417
6841.14388,0.92954
6839.21516,0.92750
6837.28645,0.92485
6835.35774,0.92218
6833.42902,0.92206
6831.50031,0.92489
6829.57160,0.92850
6827.64289,0.92930
6825.71417,0.92892
6823.78546,0.93186
6821.85675,0.93668
6819.92804,0.93704
6817.99932,0.93140
6816.07061,0.92717
6814.14190,0.92879
6812.21319,0.93294
6810.28447,0.93760
6808.35576,0.94051
6806.42705,0.93790
6804.49833,0.93273
6802.56962,0.93012
6800.64091,0.93021
6798.71220,0.93231
6796.78348,0.93565
6794.85477,0.93779
6792.92606,0.93758
6790.99735,0.93706
6789.06863,0.93751
6787.13992,0.93663
6785.21121,0.93422
6783.28249,0.93325
6781.35378,0.93310
6779.42507,0.93121
6777.49636,0.92811
6775.56764,0.92668
6773.63893,0.92932
6771.71022,0.93433
6769.78151,0.93688
6767.85279,0.93614
6765.92408,0.93468
6763.99537,0.93333
6762.06666,0.93405
6760.13794,0.93863
6758.20923,0.94406
6756.28052,0.94542
6754.35180,0.94015
6752.42309,0.93290
6750.49438,0.93147
6748.56567,0.93618
6746.63695,0.94168
6744.70824,0.94357
6742.77953,0.94206
6740.85082,0.94073
6738.92210,0.93984
6736.99339,0.93745
6735.06468,0.93388
6733.13597,0.93133
6731.20725,0.93050
6729.27854,0.93047
6727.34983,0.93152
6725.42111,0.93132
6723.49240,0.92814
6721.56369,0.92781
6719.63498,0.93332
6717.70626,0.93771
6715.77755,0.93565
6713.84884,0.93207
6711.92013,0.93228
6709.99141,0.93355
6708.06270,0.93373
6706.13399,0.93375
6704.20528,0.93312
6702.27656,0.93358
6700.34785,0.93552
6698.41914,0.93499
6696.49042,0.93338
6694.56171,0.93496
6692.63300,0.93835
6690.70429,0.94008
6688.77557,0.93902
6686.84686,0.93695
6684.91815,0.93456
6682.98944,0.93271
6681.06072,0.93381
6679.13201,0.93584
6677.20330,0.93710
6675.27458,0.93959
6673.34587,0.94254
6671.41716,0.94296
6669.48845,0.94044
6667.55973,0.93706
6665.63102,0.93423
6663.70231,0.93429
6661.77360,0.93809
6659.84488,0.94126
6657.91617,0.94055
6655.98746,0.93739
6654.05875,0.93446
6652.13003,0.93309
6650.20132,0.93606
6648.27261,0.94395
6646.34389,0.94830
6644.41518,0.94413
6642.48647,0.93857
6640.55776,0.93759
6638.62904,0.93867
6636.70033,0.93917
6634.77162,0.93994
6632.84291,0.94077
6630.91419,0.94123
6628.98548,0.93997
6627.05677,0.93601
6625.12806,0.93283
6623.19934,0.93309
6621.27063,0.93590
6619.34192,0.93890
6617.41320,0.93968
6615.48449,0.93803
6613.55578,0.93678
6611.62707,0.93825
6609.69835,0.93991
6607.76964,0.93972
6605.84093,0.93913
6603.91222,0.93860
6601.98350,0.93826
6600.05479,0.93776
6598.12608,0.93684
6596.19736,0.93593
6594.26865,0.93397
6592.33994,0.93241
6590.41123,0.93471
6588.48251,0.93890
6586.55380,0.94027
6584.62509,0.93721
6582.69638,0.93255
6580.76766,0.93193
6578.83895,0.93683
6576.91024,0.94245
6574.98153,0.94390
6573.05281,0.94116
6571.12410,0.93826
6569.19539,0.93746
6567.26667,0.93734
6565.33796,0.93605
6563.40925,0.93384
6561.48054,0.93345
6559.55182,0.93554
6557.62311,0.93792
6555.69440,0.93835
6553.76569,0.93530
6551.83697,0.93258
6549.90826,0.93485
6547.97955,0.93842
6546.05084,0.93801
6544.12212,0.93568
6542.19341,0.93484
6540.26470,0.93496
6538.33598,0.93681
6536.40727,0.94157
6534.47856,0.94518
6532.54985,0.94518
6530.62113,0.94498
6528.69242,0.94464
6526.76371,0.94070
6524.83500,0.93395
6522.90628,0.92935
6520.97757,0.92997
6519.04886,0.93397
6517.12015,0.93862
6515.19143,0.94105
6513.26272,0.93767
6511.33401,0.93238
6509.40529,0.93225
6507.47658,0.93523
6505.54787,0.93693
6503.61916,0.93820
6501.69044,0.93861
6499.76173,0.93705
6497.83302,0.93534
6495.90431,0.93427
6493.97559,0.93345
6492.04688,0.93275
6490.11817,0.93246
6488.18945,0.93273
6486.26074,0.93141
6484.33203,0.92907
6482.40332,0.92985
6480.47460,0.93405
6478.54589,0.93888
6476.61718,0.94105
6474.68847,0.93832
6472.75975,0.93424
6470.83104,0.93466
6468.90233,0.93861
6466.97362,0.94106
6465.04490,0.94203
6463.11619,0.94224
6461.18748,0.93944
6459.25876,0.93591
6457.33005,0.93517
6455.40134,0.93664
6453.47263,0.93870
6451.54391,0.93845
6449.61520,0.93593
6447.68649,0.93488
6445.75778,0.93503
6443.82906,0.93430
6441.90035,0.93268
6439.97164,0.93177
6438.04293,0.93443
6436.11421,0.93903
6434.18550,0.93993
6432.25679,0.93723
6430.32807,0.93591
6428.39936,0.93692
6426.47065,0.93697
6424.54194,0.93518
6422.61322,0.93410
6420.68451,0.93417
6418.75580,0.93417
6416.82709,0.93510
6414.89837,0.93627
6412.96966,0.93424
6411.04095,0.92988
6409.11224,0.92836
6407.18352,0.93074
6405.25481,0.93236
6403.32610,0.93267
6401.39738,0.93675
6399.46867,0.94351
6397.53996,0.94593
6395.61125,0.94321
6393.68253,0.94071
6391.75382,0.94080
6389.82511,0.94215
6387.89640,0.94239
6385.96768,0.93978
6384.03897,0.93652
6382.11026,0.93538
6380.18154,0.93538
6378.25283,0.93449
6376.32412,0.93258
6374.39541,0.93161
6372.46669,0.93168
6370.53798,0.93073
6368.60927,0.92970
6366.68056,0.93141
6364.75184,0.93580
6362.82313,0.93979
6360.89442,0.94105
6358.96571,0.93974
6357.03699,0.93785
6355.10828,0.93715
6353.17957,0.93649
6351.25085,0.93600
6349.32214,0.93786
6347.39343,0.94014
6345.46472,0.94045
6343.53600,0.93986
6341.60729,0.93923
6339.67858,0.93914
6337.74987,0.93947
6335.82115,0.93826
6333.89244,0.93564
6331.96373,0.93510
6330.03502,0.93722
6328.10630,0.93827
6326.17759,0.93775
6324.24888,0.93819
6322.32016,0.93907
6320.39145,0.93906
6318.46274,0.93894
6316.53403,0.93898
6314.60531,0.93791
6312.67660,0.93569
6310.74789,0.93369
6308.81918,0.93245
6306.89046,0.93290
6304.96175,0.93425
6303.03304,0.93413
6301.10432,0.93415
6299.17561,0.93646
6297.24690,0.93881
6295.31819,0.93951
6293.38947,0.94054
6291.46076,0.94182
6289.53205,0.94112
6287.60334,0.93908
6285.67462,0.93748
6283.74591,0.93708
6281.81720,0.93761
6279.88849,0.93782
6277.95977,0.93700
6276.03106,0.93526
6274.10235,0.93406
6272.17363,0.93501
6270.24492,0.93713
6268.31621,0.93796
6266.38750,0.93763
6264.45878,0.93816
6262.53007,0.94073
6260.60136,0.94464
6258.67265,0.94539
6256.74393,0.94064
6254.81522,0.93661
6252.88651,0.93737
6250.95780,0.93814
6249.02908,0.93688
6247.10037,0.93663
6245.17166,0.93682
6243.24294,0.93653
6241.31423,0.93638
6239.38552,0.93577
6237.45681,0.93574
6235.52809,0.93670
6233.59938,0.93710
6231.67067,0.93704
6229.74196,0.93691
6227.81324,0.93728
6225.88453,0.93947
6223.95582,0.94117
6222.02711,0.93922
6220.09839,0.93668
6218.16968,0.93669
6216.24097,0.93684
6214.31225,0.93615
6212.38354,0.93670
6210.45483,0.93809
6208.52612,0.93833
6206.59740,0.93844
6204.66869,0.93928
6202.73998,0.93911
6200.81127,0.93692
6198.88255,0.93364
6196.95384,0.93226
6195.02513,0.93389
6193.09641,0.93512
6191.16770,0.93458
6189.23899,0.93460
6187.31028,0.93586
6185.38156,0.93667
6183.45285,0.93608
6181.52414,0.93667
6179.59543,0.93938
6177.66671,0.94018
6175.73800,0.93947
6173.80929,0.93977
6171.88058,0.93856
6169.95186,0.93607
6168.02315,0.93492
6166.09444,0.93431
6164.16572,0.93348
6162.23701,0.93277
6160.30830,0.93181
6158.37959,0.93067
6156.45087,0.93162
6154.52216,0.93563
6152.59345,0.93922
6150.66474,0.93989
6148.73602,0.93942
6146.80731,0.93955
6144.87860,0.93994
6142.94989,0.93966
6141.02117,0.93783
6139.09246,0.93536
6137.16375,0.93406
6135.23503,0.93324
6133.30632,0.93207
6131.37761,0.93144
6129.44890,0.93146
6127.52018,0.93233
6125.59147,0.93507
6123.66276,0.93817
6121.73405,0.93811
6119.80533,0.93471
6117.87662,0.93165
6115.94791,0.93108
6114.01919,0.93158
6112.09048,0.93224
6110.16177,0.93474
6108.23306,0.93855
6106.30434,0.93934
6104.37563,0.93626
6102.44692,0.93341
6100.51821,0.93193
6098.58949,0.93062
6096.66078,0.93072
6094.73207,0.93130
6092.80336,0.93013
6090.87464,0.92989
6088.94593,0.93195
6087.01722,0.93342
6085.08850,0.93365
6083.15979,0.93357
6081.23108,0.93311
6079.30237,0.93265
6077.37365,0.93258
6075.44494,0.93323
6073.51623,0.93461
6071.58752,0.93549
6069.65880,0.93559
6067.73009,0.93591
6065.80138,0.93611
6063.87267,0.93486
6061.94395,0.93287
6060.01524,0.93202
6058.08653,0.93175
6056.15781,0.93112
6054.22910,0.93128
6052.30039,0.93212
6050.37168,0.93223
6048.44296,0.93169
6046.51425,0.93107
6044.58554,0.93118
6042.65683,0.93228
6040.72811,0.93297
6038.79940,0.93297
6036.87069,0.93343
6034.94198,0.93423
6033.01326,0.93400
6031.08455,0.93210
6029.15584,0.92998
6027.22712,0.92868
6025.29841,0.92778
6023.36970,0.92727
6021.44099,0.92655
6019.51227,0.92568
6017.58356,0.92600
6015.65485,0.92726
6013.72614,0.92867
6011.79742,0.93048
6009.86871,0.93240
6007.94000,0.93261
6006.01128,0.93095
6004.08257,0.92972
6002.15386,0.92965
6000.22515,0.92982
5998.29643,0.92913
5996.36772,0.92716
5994.43901,0.92588
5992.51030,0.92634
5990.58158,0.92621
5988.65287,0.92398
5986.72416,0.92136
5984.79545,0.92019
5982.86673,0.92064
5980.93802,0.92251
5979.00931,0.92524
5977.08059,0.92749
5975.15188,0.92816
5973.22317,0.92702
5971.29446,0.92572
5969.36574,0.92639
5967.43703,0.92801
5965.50832,0.92795
5963.57961,0.92631
5961.65089,0.92491
5959.72218,0.92448
5957.79347,0.92430
5955.86476,0.92337
5953.93604,0.92208
5952.00733,0.92198
5950.07862,0.92276
5948.14990,0.92251
5946.22119,0.92134
5944.29248,0.92060
5942.36377,0.92080
5940.43505,0.92100
5938.50634,0.92030
5936.57763,0.91994
5934.64892,0.92115
5932.72020,0.92335
5930.79149,0.92496
5928.86278,0.92489
5926.93407,0.92372
5925.00535,0.92148
5923.07664,0.91785
5921.14793,0.91441
5919.21921,0.91349
5917.29050,0.91591
5915.36179,0.91871
5913.43308,0.91886
5911.50436,0.91774
5909.57565,0.91745
5907.64694,0.91777
5905.71823,0.91799
5903.78951,0.91736
5901.86080,0.91572
5899.93209,0.91497
5898.00337,0.91587
5896.07466,0.91665
5894.14595,0.91681
5892.21724,0.91659
5890.28852,0.91496
5888.35981,0.91187
5886.43110,0.90932
5884.50239,0.90839
5882.57367,0.90781
5880.64496,0.90620
5878.71625,0.90401
5876.78754,0.90298
5874.85882,0.90362
5872.93011,0.90400
5871.00140,0.90283
5869.07268,0.90132
5867.14397,0.90058
5865.21526,0.89993
5863.28655,0.89813
5861.35783,0.89540
5859.42912,0.89282
5857.50041,0.89058
5855.57170,0.88840
5853.64298,0.88678
5851.71427,0.88530
5849.78556,0.88301
5847.85685,0.88125
5845.92813,0.88080
5843.99942,0.87959
5842.07071,0.87735
5840.14199,0.87676
5838.21328,0.87751
5836.28457,0.87566
5834.35586,0.87109
5832.42714,0.86819
5830.49843,0.86799
5828.56972,0.86746
5826.64101,0.86535
5824.71229,0.86238
5822.78358,0.85901
5820.85487,0.85641
5818.92615,0.85508
5816.99744,0.85332
5815.06873,0.85059
5813.14002,0.84853
5811.21130,0.84705
5809.28259,0.84472
5807.35388,0.84150
5805.42517,0.83793
5803.49645,0.83425
5801.56774,0.83053
5799.63903,0.82713
5797.71032,0.82484
5795.78160,0.82283
5793.85289,0.81919
5791.92418,0.81458
5789.99546,0.81052
5788.06675,0.80508
5786.13804,0.79676
5784.20933,0.78803
5782.28061,0.78086
5780.35190,0.77581
5778.42319,0.77213
5776.49448,0.76816
5774.56576,0.76565
5772.63705,0.76784
5770.70834,0.77460
5768.77963,0.78398
5766.85091,0.79430
5764.92220,0.80406
5762.99349,0.81267
5761.06477,0.82049
5759.13606,0.82842
5757.20735,0.83728
5755.27864,0.84571
5753.34992,0.85104
5751.42121,0.85390
5749.49250,0.85669
5747.56379,0.85948
5745.63507,0.86232
5743.70636,0.86588
5741.77765,0.86908
5739.84894,0.87103
5737.92022,0.87265
5735.99151,0.87464
5734.06280,0.87582
5732.13408,0.87586
5730.20537,0.87688
5728.27666,0.87920
5726.34795,0.88125
5724.41923,0.88330
5722.49052,0.88534
5720.56181,0.88568
5718.63310,0.88489
5716.70438,0.88534
5714.77567,0.88653
5712.84696,0.88623
5710.91824,0.88422
5708.98953,0.88214
5707.06082,0.88117
5705.13211,0.88106
5703.20339,0.88101
5701.27468,0.88022
5699.34597,0.87827
5697.41726,0.87667
5695.48854,0.87679
5693.55983,0.87729
5691.63112,0.87651
5689.70241,0.87428
5687.77369,0.87154
5685.84498,0.86987
5683.91627,0.86935
5681.98755,0.86852
5680.05884,0.86690
5678.13013,0.86454
5676.20142,0.86108
5674.27270,0.85718
5672.34399,0.85399
5670.41528,0.85158
5668.48657,0.84955
5666.55785,0.84795
5664.62914,0.84708
5662.70043,0.84719
5660.77172,0.84859
5658.84300,0.85175
5656.91429,0.85665
5654.98558,0.86232
5653.05686,0.86765
5651.12815,0.87213
5649.19944,0.87603
5647.27073,0.87930
5645.34201,0.88092
5643.41330,0.88078
5641.48459,0.88043
5639.55588,0.88099
5637.62716,0.88258
5635.69845,0.88457
5633.76974,0.88570
5631.84103,0.88601
5629.91231,0.88695
5627.98360,0.88873
5626.05489,0.88993
5624.12617,0.89014
5622.19746,0.89017
5620.26875,0.89072
5618.34004,0.89189
5616.41132,0.89323
5614.48261,0.89488
5612.55390,0.89669
5610.62519,0.89691
5608.69647,0.89514
5606.76776,0.89328
5604.83905,0.89314
5602.91033,0.89477
5600.98162,0.89623
5599.05291,0.89590
5597.12420,0.89495
5595.19548,0.89546
5593.26677,0.89710
5591.33806,0.89871
5589.40935,0.90020
5587.48063,0.90093
5585.55192,0.89962
5583.62321,0.89660
5581.69450,0.89423
5579.76578,0.89444
5577.83707,0.89575
5575.90836,0.89593
5573.97964,0.89585
5572.05093,0.89671
5570.12222,0.89693
5568.19351,0.89496
5566.26479,0.89269
5564.33608,0.89262
5562.40737,0.89341
5560.47866,0.89303
5558.54994,0.89249
5556.62123,0.89275
5554.69252,0.89272
5552.76381,0.89201
5550.83509,0.89200
5548.90638,0.89251
5546.97767,0.89209
5545.04895,0.89216
5543.12024,0.89413
5541.19153,0.89601
5539.26282,0.89631
5537.33410,0.89537
5535.40539,0.89456
5533.47668,0.89467
5531.54797,0.89488
5529.61925,0.89544
5527.69054,0.89606
5525.76183,0.89519
5523.83311,0.89359
5521.90440,0.89305
5519.97569,0.89355
5518.04698,0.89378
5516.11826,0.89336
5514.18955,0.89345
5512.26084,0.89414
5510.33213,0.89384
5508.40341,0.89285
5506.47470,0.89334
5504.54599,0.89502
5502.61728,0.89625
5500.68856,0.89625
5498.75985,0.89562
5496.83114,0.89534
5494.90242,0.89403
5492.97371,0.89169
5491.04500,0.89097
5489.11629,0.89173
5487.18757,0.89273
5485.25886,0.89349
5483.33015,0.89347
5481.40144,0.89399
5479.47272,0.89546
5477.54401,0.89509
5475.61530,0.89310
5473.68659,0.89386
5471.75787,0.89621
5469.82916,0.89603
5467.90045,0.89405
5465.97173,0.89345
5464.04302,0.89410
5462.11431,0.89426
5460.18560,0.89449
5458.25688,0.89519
5456.32817,0.89596
5454.39946,0.89733
5452.47075,0.89802
5450.54203,0.89698
5448.61332,0.89617
5446.68461,0.89649
5444.75590,0.89682
5442.82718,0.89658
5440.89847,0.89667
5438.96976,0.89796
5437.04104,0.89841
5435.11233,0.89744
5433.18362,0.89747
5431.25491,0.89788
5429.32619,0.89748
5427.39748,0.89802
5425.46877,0.89930
5423.54006,0.89963
5421.61134,0.89980
5419.68263,0.90114
5417.75392,0.90190
5415.82520,0.90000
5413.89649,0.89717
5411.96778,0.89660
5410.03907,0.89867
5408.11035,0.90158
5406.18164,0.90366
5404.25293,0.90510
5402.32422,0.90600
5400.39550,0.90491
5398.46679,0.90253
5396.53808,0.90111
5394.60937,0.90089
5392.68065,0.90224
5390.75194,0.90533
5388.82323,0.90705
5386.89451,0.90552
5384.96580,0.90403
5383.03709,0.90530
5381.10838,0.90707
5379.17966,0.90664
5377.25095,0.90431
5375.32224,0.90395
5373.39353,0.90685
5371.46481,0.90990
5369.53610,0.91143
5367.60739,0.91117
5365.67868,0.90971
5363.74996,0.90899
5361.82125,0.91011
5359.89254,0.91160
5357.96382,0.91143
5356.03511,0.90866
5354.10640,0.90519
5352.17769,0.90482
5350.24897,0.90632
5348.32026,0.90660
5346.39155,0.90555
5344.46284,0.90472
5342.53412,0.90568
5340.60541,0.90578
5338.67670,0.90391
5336.74799,0.90446
5334.81927,0.90744
5332.89056,0.90923
5330.96185,0.90957
5329.03313,0.90963
5327.10442,0.91056
5325.17571,0.91202
5323.24700,0.91226
5321.31828,0.91165
5319.38957,0.91143
5317.46086,0.91154
5315.53215,0.91168
5313.60343,0.91099
5311.67472,0.90912
5309.74601,0.90768
5307.81729,0.90824
5305.88858,0.91026
5303.95987,0.91145
5302.03116,0.91134
5300.10244,0.91174
5298.17373,0.91322
5296.24502,0.91427
5294.31631,0.91348
5292.38759,0.91100
5290.45888,0.90900
5288.53017,0.90903
5286.60146,0.90966
5284.67274,0.90994
5282.74403,0.91031
5280.81532,0.91064
5278.88660,0.91089
5276.95789,0.91114
5275.02918,0.91140
5273.10047,0.91133
5271.17175,0.91044
5269.24304,0.90940
5267.31433,0.90862
5265.38562,0.90711
5263.45690,0.90578
5261.52819,0.90707
5259.59948,0.90972
5257.67077,0.91074
5255.74205,0.91023
5253.81334,0.91069
5251.88463,0.91193
5249.95591,0.91187
5248.02720,0.91089
5246.09849,0.90986
5244.16978,0.90981
5242.24106,0.91144
5240.31235,0.91261
5238.38364,0.91276
5236.45493,0.91322
5234.52621,0.91293
5232.59750,0.91155
5230.66879,0.91165
5228.74007,0.91267
5226.81136,0.91163
5224.88265,0.91034
5222.95394,0.91177
5221.02522,0.91362
5219.09651,0.91362
5217.16780,0.91325
5215.23909,0.91390
5213.31037,0.91441
5211.38166,0.91372
5209.45295,0.91079
5207.52424,0.90630
5205.59552,0.90562
5203.66681,0.90963
5201.73810,0.91279
5199.80938,0.91291
5197.88067,0.91198
5195.95196,0.91231
5194.02325,0.91364
5192.09453,0.91402
5190.16582,0.91324
5188.23711,0.91251
5186.30840,0.91230
5184.37968,0.91297
5182.45097,0.91402
5180.52226,0.91376
5178.59355,0.91224
5176.66483,0.91149
5174.73612,0.91270
5172.80741,0.91406
5170.87869,0.91400
5168.94998,0.91396
5167.02127,0.91386
5165.09256,0.91259
5163.16384,0.91160
5161.23513,0.91188
5159.30642,0.91218
5157.37771,0.91197
5155.44899,0.91238
5153.52028,0.91394
5151.59157,0.91537
5149.66286,0.91566
5147.73414,0.91565
5145.80543,0.91604
5143.87672,0.91606
5141.94800,0.91571
5140.01929,0.91597
5138.09058,0.91664
5136.16187,0.91661
5134.23315,0.91544
5132.30444,0.91458
5130.37573,0.91514
5128.44702,0.91609
5126.51830,0.91663
5124.58959,0.91666
5122.66088,0.91598
5120.73216,0.91565
5118.80345,0.91632
5116.87474,0.91670
5114.94603,0.91663
5113.01731,0.91688
5111.08860,0.91708
5109.15989,0.91713
5107.23118,0.91715
5105.30246,0.91699
5103.37375,0.91663
5101.44504,0.91617
5099.51633,0.91586
5097.58761,0.91575
5095.65890,0.91574
5093.73019,0.91573
5091.80147,0.91560
5089.87276,0.91554
5087.94405,0.91574
5086.01534,0.91618
5084.08662,0.91655
5082.15791,0.91677
5080.22920,0.91692
5078.30049,0.91679
5076.37177,0.91686
5074.44306,0.91763
5072.51435,0.91835
5070.58564,0.91824
5068.65692,0.91727
5066.72821,0.91619
5064.79950,0.91627
5062.87078,0.91725
5060.94207,0.91785
5059.01336,0.91814
5057.08465,0.91839
5055.15593,0.91839
5053.22722,0.91800
5051.29851,0.91746
5049.36980,0.91741
5047.44108,0.91783
5045.51237,0.91842
5043.58366,0.91905
5041.65495,0.91915
5039.72623,0.91818
5037.79752,0.91715
5035.86881,0.91721
5033.94009,0.91776
5032.01138,0.91796
5030.08267,0.91791
5028.15396,0.91810
5026.22524,0.91830
5024.29653,0.91788
5022.36782,0.91742
5020.43911,0.91756
5018.51039,0.91785
5016.58168,0.91762
5014.65297,0.91730
5012.72425,0.91781
5010.79554,0.91881
5008.86683,0.91912
5006.93812,0.91818
5005.00940,0.91693
5003.08069,0.91659
5001.15198,0.91677
4999.22327,0.91670
4997.29455,0.91633
4995.36584,0.91569
4993.43713,0.91516
4991.50842,0.91530
4989.57970,0.91595
4987.65099,0.91619
4985.72228,0.91535
4983.79356,0.91450
4981.86485,0.91483
4979.93614,0.91544
4978.00743,0.91571
4976.07871,0.91583
4974.15000,0.91523
4972.22129,0.91429
4970.29258,0.91410
4968.36386,0.91425
4966.43515,0.91416
4964.50644,0.91436
4962.57773,0.91470
4960.64901,0.91476
4958.72030,0.91474
4956.79159,0.91468
4954.86287,0.91452
4952.93416,0.91425
4951.00545,0.91413
4949.07674,0.91481
4947.14802,0.91596
4945.21931,0.91678
4943.29060,0.91765
4941.36189,0.91851
4939.43317,0.91881
4937.50446,0.91900
4935.57575,0.91923
4933.64703,0.91937
4931.71832,0.91976
4929.78961,0.91986
4927.86090,0.91923
4925.93218,0.91860
4924.00347,0.91839
4922.07476,0.91879
4920.14605,0.91941
4918.21733,0.91906
4916.28862,0.91805
4914.35991,0.91791
4912.43120,0.91847
4910.50248,0.91846
4908.57377,0.91821
4906.64506,0.91857
4904.71634,0.91927
4902.78763,0.91993
4900.85892,0.92050
4898.93021,0.92046
4897.00149,0.91960
4895.07278,0.91875
4893.14407,0.91837
4891.21536,0.91808
4889.28664,0.91798
4887.35793,0.91851
4885.42922,0.91935
4883.50051,0.91970
4881.57179,0.91929
4879.64308,0.91854
4877.71437,0.91762
4875.78565,0.91708
4873.85694,0.91774
4871.92823,0.91869
4869.99952,0.91905
4868.07080,0.91936
4866.14209,0.91955
4864.21338,0.91964
4862.28467,0.92014
4860.35595,0.92015
4858.42724,0.91900
4856.49853,0.91780
4854.56982,0.91760
4852.64110,0.91843
4850.71239,0.91919
4848.78368,0.91889
4846.85496,0.91841
4844.92625,0.91883
4842.99754,0.91976
4841.06883,0.92045
4839.14011,0.92071
4837.21140,0.92085
4835.28269,0.92132
4833.35398,0.92173
4831.42526,0.92153
4829.49655,0.92109
4827.56784,0.92074
4825.63912,0.92017
4823.71041,0.91935
4821.78170,0.91917
4819.85299,0.91999
4817.92427,0.92065
4815.99556,0.92092
4814.06685,0.92174
4812.13814,0.92288
4810.20942,0.92339
4808.28071,0.92314
4806.35200,0.92270
4804.42329,0.92283
4802.49457,0.92371
4800.56586,0.92441
4798.63715,0.92405
4796.70843,0.92341
4794.77972,0.92336
4792.85101,0.92321
4790.92230,0.92273
4788.99358,0.92249
4787.06487,0.92224
4785.13616,0.92194
4783.20745,0.92197
4781.27873,0.92216
4779.35002,0.92242
4777.42131,0.92270
4775.49260,0.92259
4773.56388,0.92246
4771.63517,0.92372
4769.70646,0.92593
4767.77774,0.92684
4765.84903,0.92600
4763.92032,0.92485
4761.99161,0.92446
4760.06289,0.92475
4758.13418,0.92529
4756.20547,0.92569
4754.27676,0.92540
4752.34804,0.92461
4750.41933,0.92382
4748.49062,0.92313
4746.56191,0.92303
4744.63319,0.92340
4742.70448,0.92361
4740.77577,0.92403
4738.84705,0.92475
4736.91834,0.92496
4734.98963,0.92471
4733.06092,0.92464
4731.13220,0.92498
4729.20349,0.92567
4727.27478,0.92606
4725.34607,0.92588
4723.41735,0.92570
4721.48864,0.92537
4719.55993,0.92482
4717.63121,0.92455
4715.70250,0.92447
4713.77379,0.92413
4711.84508,0.92351
4709.91636,0.92341
4707.98765,0.92400
4706.05894,0.92455
4704.13023,0.92495
4702.20151,0.92553
4700.27280,0.92632
4698.34409,0.92706
4696.41538,0.92738
4694.48666,0.92719
4692.55795,0.92677
4690.62924,0.92636
4688.70052,0.92594
4686.77181,0.92539
4684.84310,0.92477
4682.91439,0.92433
4680.98567,0.92400
4679.05696,0.92365
4677.12825,0.92317
4675.19954,0.92239
4673.27082,0.92163
4671.34211,0.92163
4669.41340,0.92265
4667.48469,0.92402
4665.55597,0.92500
4663.62726,0.92537
4661.69855,0.92540
4659.76983,0.92560
4657.84112,0.92596
4655.91241,0.92624
4653.98370,0.92627
4652.05498,0.92579
4650.12627,0.92493
4648.19756,0.92418
4646.26885,0.92402
4644.34013,0.92421
4642.41142,0.92411
4640.48271,0.92371
4638.55399,0.92342
4636.62528,0.92340
4634.69657,0.92352
4632.76786,0.92375
4630.83914,0.92445
4628.91043,0.92551
4626.98172,0.92614
4625.05301,0.92599
4623.12429,0.92598
4621.19558,0.92650
4619.26687,0.92666
4617.33816,0.92631
4615.40944,0.92571
4613.48073,0.92458
4611.55202,0.92331
4609.62330,0.92281
4607.69459,0.92297
4605.76588,0.92287
4603.83717,0.92253
4601.90845,0.92274
4599.97974,0.92353
4598.05103,0.92430
4596.12232,0.92476
4594.19360,0.92521
4592.26489,0.92593
4590.33618,0.92654
4588.40747,0.92663
4586.47875,0.92626
4584.55004,0.92552
4582.62133,0.92458
4580.69261,0.92396
4578.76390,0.92392
4576.83519,0.92418
4574.90648,0.92436
4572.97776,0.92412
4571.04905,0.92336
4569.12034,0.92247
4567.19163,0.92162
4565.26291,0.92101
4563.33420,0.92130
4561.40549,0.92204
4559.47678,0.92226
4557.54806,0.92247
4555.61935,0.92298
4553.69064,0.92307
4551.76192,0.92271
4549.83321,0.92250
4547.90450,0.92225
4545.97579,0.92139
4544.04707,0.92018
4542.11836,0.91933
4540.18965,0.91902
4538.26094,0.91905
4536.33222,0.91893
4534.40351,0.91861
4532.47480,0.91872
4530.54608,0.91909
4528.61737,0.91916
4526.68866,0.91886
4524.75995,0.91843
4522.83123,0.91842
4520.90252,0.91865
4518.97381,0.91845
4517.04510,0.91822
4515.11638,0.91841
4513.18767,0.91842
4511.25896,0.91793
4509.33025,0.91741
4507.40153,0.91691
4505.47282,0.91602
4503.54411,0.91507
4501.61539,0.91446
4499.68668,0.91369
4497.75797,0.91265
4495.82926,0.91219
4493.90054,0.91246
4491.97183,0.91290
4490.04312,0.91309
4488.11441,0.91294
4486.18569,0.91305
4484.25698,0.91362
4482.32827,0.91359
4480.39956,0.91243
4478.47084,0.91124
4476.54213,0.91076
4474.61342,0.91009
4472.68470,0.90882
4470.75599,0.90771
4468.82728,0.90692
4466.89857,0.90627
4464.96985,0.90592
4463.04114,0.90559
4461.11243,0.90476
4459.18372,0.90374
4457.25500,0.90336
4455.32629,0.90364
4453.39758,0.90366
4451.46886,0.90289
4449.54015,0.90181
4447.61144,0.90108
4445.68273,0.90027
4443.75401,0.89892
4441.82530,0.89754
4439.89659,0.89643
4437.96788,0.89517
4436.03916,0.89365
4434.11045,0.89211
4432.18174,0.89032
4430.25303,0.88843
4428.32431,0.88705
4426.39560,0.88604
4424.46689,0.88491
4422.53817,0.88325
4420.60946,0.88114
4418.68075,0.87909
4416.75204,0.87709
4414.82332,0.87492
4412.89461,0.87239
4410.96590,0.86921
4409.03719,0.86544
4407.10847,0.86126
4405.17976,0.85683
4403.25105,0.85231
4401.32234,0.84782
4399.39362,0.84341
4397.46491,0.83908
4395.53620,0.83487
4393.60748,0.83090
4391.67877,0.82735
4389.75006,0.82379
4387.82135,0.81962
4385.89263,0.81525
4383.96392,0.81131
4382.03521,0.80733
4380.10650,0.80260
4378.17778,0.79747
4376.24907,0.79258
4374.32036,0.78784
4372.39165,0.78305
4370.46293,0.77819
4368.53422,0.77267
4366.60551,0.76623
4364.67679,0.75959
4362.74808,0.75294
4360.81937,0.74566
4358.89066,0.73737
4356.96194,0.72787
4355.03323,0.71682
4353.10452,0.70386
4351.17581,0.68841
4349.24709,0.67026
4347.31838,0.65009
4345.38967,0.62875
4343.46095,0.60722
4341.53224,0.58672
4339.60353,0.56822
4337.67482,0.55177
4335.74610,0.53562
4333.81739,0.51721
4331.88868,0.49520
4329.95997,0.46877
4328.03125,0.43683
4326.10254,0.40086
4324.17383,0.36939
4322.24512,0.35808
4320.31640,0.37977
4318.38769,0.43167
4316.45898,0.49688
4314.53026,0.55861
4312.60155,0.60894
4310.67284,0.64705
4308.74413,0.67484
4306.81541,0.69479
4304.88670,0.70952
4302.95799,0.72071
4301.02928,0.72872
4299.10056,0.73333
4297.17185,0.73484
4295.24314,0.73450
4293.31443,0.73314
4291.38571,0.73076
4289.45700,0.72725
4287.52829,0.72291
4285.59957,0.71884
4283.67086,0.71561
4281.74215,0.71258
4279.81344,0.70916
4277.88472,0.70518
4275.95601,0.70041
4274.02730,0.69443
4272.09859,0.68680
4270.16987,0.67708
4268.24116,0.66480
4266.31245,0.64947
4264.38374,0.63084
4262.45502,0.60883
4260.52631,0.58360
4258.59760,0.55628
4256.66888,0.52855
4254.74017,0.50309
4252.81146,0.48574
4250.88275,0.48473
4248.95403,0.50468
4247.02532,0.54083
4245.09661,0.58127
4243.16790,0.61556
4241.23918,0.64019
4239.31047,0.65643
4237.38176,0.66612
4235.45304,0.67053
4233.52433,0.67081
4231.59562,0.66774
4229.66691,0.66210
4227.73819,0.65476
4225.80948,0.64677
4223.88077,0.63930
4221.95206,0.63372
4220.02334,0.63119
4218.09463,0.63190
4216.16592,0.63470
4214.23721,0.63763
4212.30849,0.63937
4210.37978,0.63948
4208.45107,0.63778
4206.52235,0.63437
4204.59364,0.62907
4202.66493,0.62128
4200.73622,0.61123
4198.80750,0.60086
4196.87879,0.59253
4194.95008,0.58699
4193.02137,0.58372
4191.09265,0.58234
4189.16394,0.58252
4187.23523,0.58333
4185.30652,0.58414
4183.37780,0.58525
4181.44909,0.58681
4179.52038,0.58839
4177.59166,0.58967
4175.66295,0.59070
4173.73424,0.59150
4171.80553,0.59208
4169.87681,0.59271
4167.94810,0.59361
4166.01939,0.59475
4164.09068,0.59597
4162.16196,0.59701
4160.23325,0.59764
4158.30454,0.59772
4156.37582,0.59733
4154.44711,0.59695
4152.51840,0.59691
4150.58969,0.59712
4148.66097,0.59760
4146.73226,0.59860
4144.80355,0.60011
4142.87484,0.60167
4140.94612,0.60314
4139.01741,0.60476
4137.08870,0.60661
4135.15999,0.60854
4133.23127,0.61052
4131.30256,0.61257
4129.37385,0.61412
4127.44513,0.61483
4125.51642,0.61503
4123.58771,0.61500
4121.65900,0.61510
4119.73028,0.61553
4117.80157,0.61588
4115.87286,0.61599
4113.94415,0.61606
4112.01543,0.61585
4110.08672,0.61517
4108.15801,0.61452
4106.22930,0.61422
4104.30058,0.61406
4102.37187,0.61411
4100.44316,0.61476
4098.51444,0.61610
4096.58573,0.61811
4094.65702,0.62140
4092.72831,0.62690
4090.79959,0.63451
4088.87088,0.64328
4086.94217,0.65225
4085.01346,0.66054
4083.08474,0.66755
4081.15603,0.67332
4079.22732,0.67818
4077.29861,0.68267
4075.36989,0.68709
4073.44118,0.69123
4071.51247,0.69510
4069.58375,0.69884
4067.65504,0.70235
4065.72633,0.70563
4063.79762,0.70897
4061.86890,0.71236
4059.94019,0.71543
4058.01148,0.71819
4056.08277,0.72075
4054.15405,0.72287
4052.22534,0.72473
4050.29663,0.72680
4048.36791,0.72882
4046.43920,0.73042
4044.51049,0.73220
4042.58178,0.73470
4040.65306,0.73722
4038.72435,0.73916
4036.79564,0.74078
4034.86693,0.74219
4032.93821,0.74335
4031.00950,0.74426
4029.08079,0.74438
4027.15208,0.74364
4025.22336,0.74281
4023.29465,0.74265
4021.36594,0.74375
4019.43722,0.74715
4017.50851,0.75339
4015.57980,0.76133
4013.65109,0.76875
4011.72237,0.77401
4009.79366,0.77719
4007.86495,0.77955
4005.93624,0.78153
4004.00752,0.78283
4002.07881,0.78381
4000.15010,0.78482
3998.22139,0.78550
3996.29267,0.78575
3994.36396,0.78570
3992.43525,0.78532
3990.50653,0.78504
3988.57782,0.78532
3986.64911,0.78565
3984.72040,0.78523
3982.79168,0.78418
3980.86297,0.78331
3978.93426,0.78296
3977.00555,0.78279
3975.07683,0.78302
3973.14812,0.78422
3971.21941,0.78598
3969.29070,0.78803
3967.36198,0.79046
3965.43327,0.79236
3963.50456,0.79297
3961.57584,0.79319
3959.64713,0.79414
3957.71842,0.79562
3955.78971,0.79664
3953.86099,0.79625
3951.93228,0.79415
3950.00357,0.79154
3948.07486,0.79025
3946.14614,0.78972
3944.21743,0.78832
3942.28872,0.78752
3940.36000,0.78843
3938.43129,0.78855
3936.50258,0.78626
3934.57387,0.78188
3932.64515,0.77710
3930.71644,0.77500
3928.78773,0.77560
3926.85902,0.77541
3924.93030,0.77398
3923.00159,0.77385
3921.07288,0.77414
3919.14417,0.77287
3917.21545,0.77178
3915.28674,0.77303
3913.35803,0.77533
3911.42931,0.77695
3909.50060,0.77715
3907.57189,0.77497
3905.64318,0.77022
3903.71446,0.76608
3901.78575,0.76590
3899.85704,0.76887
3897.92833,0.77342
3895.99961,0.77629
3894.07090,0.77532
3892.14219,0.77327
3890.21348,0.77477
3888.28476,0.77668
3886.35605,0.77561
3884.42734,0.77398
3882.49862,0.77366
3880.56991,0.77484
3878.64120,0.77796
3876.71249,0.77928
3874.78377,0.77683
3872.85506,0.77307
3870.92635,0.77152
3868.99764,0.77411
3867.06892,0.77743
3865.14021,0.77847
3863.21150,0.78093
3861.28278,0.78634
3859.35407,0.78942
3857.42536,0.78770
3855.49665,0.78236
3853.56793,0.77814
3851.63922,0.78357
3849.71051,0.79187
3847.78180,0.79660
3845.85308,0.79655
3843.92437,0.79267
3841.99566,0.78750
3840.06695,0.78289
3838.13823,0.78141
3836.20952,0.78432
3834.28081,0.78778
3832.35209,0.79038
3830.42338,0.79235
3828.49467,0.79273
3826.56596,0.79201
3824.63724,0.79079
3822.70853,0.78719
3820.77982,0.78344
3818.85111,0.78470
3816.92239,0.78800
3814.99368,0.79323
3813.06497,0.79904
3811.13626,0.80176
3809.20754,0.80082
3807.27883,0.79905
3805.35012,0.79919
3803.42140,0.79825
3801.49269,0.79722
3799.56398,0.80076
3797.63527,0.80575
3795.70655,0.81108
3793.77784,0.81635
3791.84913,0.81959
3789.92042,0.82100
3787.99170,0.82104
3786.06299,0.82023
3784.13428,0.82042
3782.20557,0.82094
3780.27685,0.82063
3778.34814,0.82265
3776.41943,0.82676
3774.49071,0.82845
3772.56200,0.82655
3770.63329,0.82338
3768.70458,0.82239
3766.77586,0.82342
3764.84715,0.82487
3762.91844,0.82535
3760.98973,0.82319
3759.06101,0.82066
3757.13230,0.82110
3755.20359,0.82113
3753.27487,0.81688
3751.34616,0.81019
3749.41745,0.80958
3747.48874,0.81316
3745.56002,0.81634
3743.63131,0.81986
3741.70260,0.82188
3739.77389,0.82095
3737.84517,0.81650
3735.91646,0.81048
3733.98775,0.81069
3732.05904,0.81777
3730.13032,0.82348
3728.20161,0.82414
3726.27290,0.82130
3724.34418,0.81944
3722.41547,0.82091
3720.48676,0.82433
3718.55805,0.82764
3716.62933,0.82871
3714.70062,0.82569
3712.77191,0.81862
3710.84320,0.81430
3708.91448,0.81840
3706.98577,0.82345
3705.05706,0.82478
3703.12835,0.82311
3701.19963,0.82199
3699.27092,0.82308
3697.34221,0.82358
3695.41349,0.82199
3693.48478,0.81782
3691.55607,0.81079
3689.62736,0.80602
3687.69864,0.81054
3685.76993,0.81743
3683.84122,0.82088
3681.91251,0.82021
3679.98379,0.81574
3678.05508,0.80900
3676.12637,0.80288
3674.19766,0.80264
3672.26894,0.80391
3670.34023,0.80362
3668.41152,0.80757
3666.48280,0.81348
3664.55409,0.81606
3662.62538,0.81512
3660.69667,0.81196
3658.76795,0.80727
3656.83924,0.80183
3654.91053,0.79778
3652.98182,0.79300
3651.05310,0.78269
3649.12439,0.77142
3647.19568,0.77422
3645.26696,0.78255
3643.33825,0.78820
3641.40954,0.79240
3639.48083,0.79698
3637.55211,0.80162
3635.62340,0.80495
3633.69469,0.80626
3631.76598,0.80516
3629.83726,0.80174
3627.90855,0.80134
3625.97984,0.80532
3624.05113,0.80677
3622.12241,0.80294
3620.19370,0.79479
3618.26499,0.78750
3616.33627,0.78248
3614.40756,0.77560
3612.47885,0.76742
3610.55014,0.75951
3608.62142,0.75103
3606.69271,0.74495
3604.76400,0.74326
3602.83529,0.74484
3600.90657,0.75251
3598.97786,0.76789
3597.04915,0.78593
3595.12044,0.80322
3593.19172,0.81891
3591.26301,0.82968
3589.33430,0.83392
3587.40558,0.83689
3585.47687,0.84473
3583.54816,0.85285
3581.61945,0.85790
3579.69073,0.86121
3577.76202,0.86417
3575.83331,0.86699
3573.90460,0.86950
3571.97588,0.87073
3570.04717,0.86884
3568.11846,0.86437
3566.18974,0.86419
3564.26103,0.87030
3562.33232,0.87635
3560.40361,0.88060
3558.47489,0.88379
3556.54618,0.88558
3554.61747,0.88518
3552.68876,0.88402
3550.76004,0.88410
3548.83133,0.88369
3546.90262,0.88162
3544.97391,0.88152
3543.04519,0.88528
3541.11648,0.88942
3539.18777,0.89097
3537.25905,0.89028
3535.33034,0.89004
3533.40163,0.89089
3531.47292,0.89050
3529.54420,0.88855
3527.61549,0.88745
3525.68678,0.88762
3523.75807,0.88822
3521.82935,0.88987
3519.90064,0.89188
3517.97193,0.89288
3516.04322,0.89292
3514.11450,0.89215
3512.18579,0.89049
3510.25708,0.88895
3508.32836,0.88879
3506.39965,0.88869
3504.47094,0.88736
3502.54223,0.88693
3500.61351,0.88865
3498.68480,0.89021
3496.75609,0.89076
3494.82738,0.89142
3492.89866,0.89192
3490.96995,0.89107
3489.04124,0.88942
3487.11253,0.88849
3485.18381,0.88778
3483.25510,0.88595
3481.32639,0.88439
3479.39767,0.88480
3477.46896,0.88559
3475.54025,0.88531
3473.61154,0.88465
3471.68282,0.88420
3469.75411,0.88346
3467.82540,0.88237
3465.89669,0.88163
3463.96797,0.88121
3462.03926,0.88079
3460.11055,0.88051
3458.18183,0.88003
3456.25312,0.87894
3454.32441,0.87779
3452.39570,0.87680
3450.46698,0.87511
3448.53827,0.87252
3446.60956,0.87096
3444.68085,0.87136
3442.75213,0.87201
3440.82342,0.87209
3438.89471,0.87198
3436.96600,0.87210
3435.03728,0.87250
3433.10857,0.87252
3431.17986,0.87234
3429.25114,0.87267
3427.32243,0.87336
3425.39372,0.87379
3423.46501,0.87348
3421.53629,0.87260
3419.60758,0.87222
3417.67887,0.87287
3415.75016,0.87355
3413.82144,0.87344
3411.89273,0.87291
3409.96402,0.87241
3408.03531,0.87213
3406.10659,0.87218
3404.17788,0.87214
3402.24917,0.87168
3400.32045,0.87134
3398.39174,0.87141
3396.46303,0.87162
3394.53432,0.87156
3392.60560,0.87089
3390.67689,0.87014
3388.74818,0.86975
3386.81947,0.86885
3384.89075,0.86710
3382.96204,0.86553
3381.03333,0.86456
3379.10462,0.86327
3377.17590,0.86149
3375.24719,0.86012
3373.31848,0.85941
3371.38976,0.85930
3369.46105,0.85994
3367.53234,0.86088
3365.60363,0.86155
3363.67491,0.86231
3361.74620,0.86361
3359.81749,0.86530
3357.88878,0.86668
3355.96006,0.86741
3354.03135,0.86801
3352.10264,0.86886
3350.17392,0.86962
3348.24521,0.87013
3346.31650,0.87061
3344.38779,0.87088
3342.45907,0.87084
3340.53036,0.87063
3338.60165,0.87056
3336.67294,0.87125
3334.74422,0.87264
3332.81551,0.87401
3330.88680,0.87499
3328.95809,0.87545
3327.02937,0.87559
3325.10066,0.87586
3323.17195,0.87639
3321.24323,0.87674
3319.31452,0.87669
3317.38581,0.87677
3315.45710,0.87690
3313.52838,0.87637
3311.59967,0.87541
3309.67096,0.87472
3307.74225,0.87435
3305.81353,0.87417
3303.88482,0.87465
3301.95611,0.87568
3300.02740,0.87630
3298.09868,0.87654
3296.16997,0.87706
3294.24126,0.87768
3292.31254,0.87827
3290.38383,0.87878
3288.45512,0.87865
3286.52641,0.87816
3284.59769,0.87782
3282.66898,0.87732
3280.74027,0.87657
3278.81156,0.87548
3276.88284,0.87400
3274.95413,0.87284
3273.02542,0.87238
3271.09670,0.87229
3269.16799,0.87260
3267.23928,0.87347
3265.31057,0.87461
3263.38185,0.87557
3261.45314,0.87623
3259.52443,0.87679
3257.59572,0.87700
3255.66700,0.87646
3253.73829,0.87572
3251.80958,0.87515
3249.88087,0.87400
3247.95215,0.87224
3246.02344,0.87109
3244.09473,0.87077
3242.16601,0.87025
3240.23730,0.86929
3238.30859,0.86855
3236.37988,0.86821
3234.45116,0.86770
3232.52245,0.86687
3230.59374,0.86656
3228.66503,0.86732
3226.73631,0.86859
3224.80760,0.86911
3222.87889,0.86846
3220.95018,0.86717
3219.02146,0.86550
3217.09275,0.86353
3215.16404,0.86164
3213.23532,0.86014
3211.30661,0.85891
3209.37790,0.85795
3207.44919,0.85715
3205.52047,0.85599
3203.59176,0.85472
3201.66305,0.85405
3199.73434,0.85384
3197.80562,0.85360
3195.87691,0.85277
3193.94820,0.85148
3192.01949,0.85063
3190.09077,0.85025
3188.16206,0.84948
3186.23335,0.84807
3184.30463,0.84617
3182.37592,0.84396
3180.44721,0.84186
3178.51850,0.84024
3176.58978,0.83914
3174.66107,0.83816
3172.73236,0.83718
3170.80365,0.83660
3168.87493,0.83637
3166.94622,0.83620
3165.01751,0.83608
3163.08879,0.83584
3161.16008,0.83507
3159.23137,0.83376
3157.30266,0.83219
3155.37394,0.83027
3153.44523,0.82780
3151.51652,0.82534
3149.58781,0.82349
3147.65909,0.82190
3145.73038,0.82001
3143.80167,0.81797
3141.87296,0.81620
3139.94424,0.81476
3138.01553,0.81356
3136.08682,0.81261
3134.15810,0.81172
3132.22939,0.81040
3130.30068,0.80836
3128.37197,0.80574
3126.44325,0.80275
3124.51454,0.79917
3122.58583,0.79501
3120.65712,0.79043
3118.72840,0.78541
3116.79969,0.78053
3114.87098,0.77625
3112.94227,0.77194
3111.01355,0.76729
3109.08484,0.76257
3107.15613,0.75735
3105.22741,0.75094
3103.29870,0.74323
3101.36999,0.73429
3099.44128,0.72402
3097.51256,0.71235
3095.58385,0.69949
3093.65514,0.68620
3091.72643,0.67353
3089.79771,0.66198
3087.86900,0.65175
3085.94029,0.64320
3084.01158,0.63630
3082.08286,0.63046
3080.15415,0.62551
3078.22544,0.62144
3076.29672,0.61770
3074.36801,0.61366
3072.43930,0.60916
3070.51059,0.60390
3068.58187,0.59769
3066.65316,0.59108
3064.72445,0.58451
3062.79574,0.57793
3060.86702,0.57127
3058.93831,0.56424
3057.00960,0.55676
3055.08088,0.54913
3053.15217,0.54143
3051.22346,0.53347
3049.29475,0.52498
3047.36603,0.51572
3045.43732,0.50581
3043.50861,0.49531
3041.57990,0.48435
3039.65118,0.47325
3037.72247,0.46212
3035.79376,0.45109
3033.86505,0.44062
3031.93633,0.43102
3030.00762,0.42232
3028.07891,0.41433
3026.15019,0.40642
3024.22148,0.39837
3022.29277,0.39039
3020.36406,0.38231
3018.43534,0.37391
3016.50663,0.36526
3014.57792,0.35649
3012.64921,0.34762
3010.72049,0.33870
3008.79178,0.32963
3006.86307,0.31995
3004.93436,0.30957
3003.00564,0.29863
3001.07693,0.28678
2999.14822,0.27400
2997.21950,0.26080
2995.29079,0.24705
2993.36208,0.23224
2991.43337,0.21645
2989.50465,0.19983
2987.57594,0.18209
2985.64723,0.16294
2983.71852,0.14244
2981.78980,0.12107
2979.86109,0.09976
2977.93238,0.07930
2976.00366,0.06017
2974.07495,0.04300
2972.14624,0.02873
2970.21753,0.01810
2968.28881,0.01099
2966.36010,0.00643
2964.43139,0.00362
2962.50268,0.00212
2960.57396,0.00153
2958.64525,0.00138
2956.71654,0.00135
2954.78783,0.00133
2952.85911,0.00120
2950.93040,0.00101
2949.00169,0.00089
2947.07297,0.00099
2945.14426,0.00108
2943.21555,0.00102
2941.28684,0.00093
2939.35812,0.00078
2937.42941,0.00050
2935.50070,0.00036
2933.57199,0.00051
2931.64327,0.00078
2929.71456,0.00079
2927.78585,0.00061
2925.85714,0.00055
2923.92842,0.00085
2921.99971,0.00111
2920.07100,0.00117
2918.14228,0.00108
2916.21357,0.00083
2914.28486,0.00061
2912.35615,0.00064
2910.42743,0.00073
2908.49872,0.00065
2906.57001,0.00050
2904.64130,0.00050
2902.71258,0.00056
2900.78387,0.00059
2898.85516,0.00062
2896.92645,0.00072
2894.99773,0.00082
2893.06902,0.00090
2891.14031,0.00101
2889.21159,0.00104
2887.28288,0.00093
2885.35417,0.00097
2883.42546,0.00117
2881.49674,0.00121
2879.56803,0.00103
2877.63932,0.00085
2875.71061,0.00067
2873.78189,0.00058
2871.85318,0.00061
2869.92447,0.00078
2867.99575,0.00080
2866.06704,0.00065
2864.13833,0.00056
2862.20962,0.00059
2860.28090,0.00064
2858.35219,0.00076
2856.42348,0.00092
2854.49477,0.00106
2852.56605,0.00107
2850.63734,0.00106
2848.70863,0.00114
2846.77992,0.00126
2844.85120,0.00130
2842.92249,0.00119
2840.99378,0.00096
2839.06506,0.00086
2837.13635,0.00123
2835.20764,0.00237
2833.27893,0.00466
2831.35021,0.00814
2829.42150,0.01257
2827.49279,0.01790
2825.56408,0.02436
2823.63536,0.03198
2821.70665,0.04057
2819.77794,0.04992
2817.84923,0.05988
2815.92051,0.07018
2813.99180,0.08066
2812.06309,0.09135
2810.13437,0.10230
2808.20566,0.11360
2806.27695,0.12527
2804.34824,0.13730
2802.41952,0.14966
2800.49081,0.16224
2798.56210,0.17527
2796.63339,0.18923
2794.70467,0.20411
2792.77596,0.21958
2790.84725,0.23540
2788.91854,0.25144
2786.98982,0.26749
2785.06111,0.28334
2783.13240,0.29888
2781.20368,0.31396
2779.27497,0.32827
2777.34626,0.34157
2775.41755,0.35389
2773.48883,0.36541
2771.56012,0.37607
2769.63141,0.38557
2767.70270,0.39368
2765.77398,0.40047
2763.84527,0.40659
2761.91656,0.41272
2759.98784,0.41878
2758.05913,0.42445
2756.13042,0.42975
2754.20171,0.43463
2752.27299,0.43863
2750.34428,0.44133
2748.41557,0.44252
2746.48686,0.44240
2744.55814,0.44153
2742.62943,0.44037
2740.70072,0.43932
2738.77201,0.43893
2736.84329,0.43956
2734.91458,0.44119
2732.98587,0.44357
2731.05715,0.44654
2729.12844,0.45040
2727.19973,0.45548
2725.27102,0.46150
2723.34230,0.46758
2721.41359,0.47290
2719.48488,0.47740
2717.55617,0.48144
2715.62745,0.48519
2713.69874,0.48863
2711.77003,0.49185
2709.84132,0.49493
2707.91260,0.49789
2705.98389,0.50086
2704.05518,0.50408
2702.12646,0.50724
2700.19775,0.50957
2698.26904,0.51073
2696.34033,0.51052
2694.41161,0.50879
2692.48290,0.50569
2690.55419,0.50157
2688.62548,0.49697
2686.69676,0.49248
2684.76805,0.48841
2682.83934,0.48472
2680.91062,0.48132
2678.98191,0.47822
2677.05320,0.47517
2675.12449,0.47198
2673.19577,0.46881
2671.26706,0.46593
2669.33835,0.46364
2667.40964,0.46215
2665.48092,0.46151
2663.55221,0.46161
2661.62350,0.46245
2659.69479,0.46400
2657.76607,0.46609
2655.83736,0.46849
2653.90865,0.47108
2651.97993,0.47378
2650.05122,0.47624
2648.12251,0.47787
2646.19380,0.47846
2644.26508,0.47810
2642.33637,0.47708
2640.40766,0.47591
2638.47895,0.47521
2636.55023,0.47573
2634.62152,0.47835
2632.69281,0.48352
2630.76410,0.49086
2628.83538,0.49936
2626.90667,0.50824
2624.97796,0.51709
2623.04924,0.52555
2621.12053,0.53354
2619.19182,0.54130
2617.26311,0.54921
2615.33439,0.55732
2613.40568,0.56532
2611.47697,0.57301
2609.54826,0.58033
2607.61954,0.58740
2605.69083,0.59437
2603.76212,0.60115
2601.83341,0.60747
2599.90469,0.61335
2597.97598,0.61900
2596.04727,0.62458
2594.11855,0.63041
2592.18984,0.63654
2590.26113,0.64271
2588.33242,0.64893
2586.40370,0.65520
2584.47499,0.66121
2582.54628,0.66697
2580.61757,0.67281
2578.68885,0.67882
2576.76014,0.68496
2574.83143,0.69111
2572.90271,0.69717
2570.97400,0.70313
2569.04529,0.70875
2567.11658,0.71388
2565.18786,0.71837
2563.25915,0.72202
2561.33044,0.72493
2559.40173,0.72731
2557.47301,0.72917
2555.54430,0.73038
2553.61559,0.73106
2551.68688,0.73174
2549.75816,0.73326
2547.82945,0.73646
2545.90074,0.74169
2543.97202,0.74839
2542.04331,0.75537
2540.11460,0.76106
2538.18589,0.76420
2536.25717,0.76463
2534.32846,0.76327
2532.39975,0.76135
2530.47104,0.75981
2528.54232,0.75916
2526.61361,0.75995
2524.68490,0.76266
2522.75619,0.76709
2520.82747,0.77235
2518.89876,0.77743
2516.97005,0.78209
2515.04133,0.78652
2513.11262,0.79067
2511.18391,0.79455
2509.25520,0.79843
2507.32648,0.80227
2505.39777,0.80577
2503.46906,0.80880
2501.54035,0.81127
2499.61163,0.81309
2497.68292,0.81449
2495.75421,0.81562
2493.82549,0.81625
2491.89678,0.81642
2489.96807,0.81660
2488.03936,0.81690
2486.11064,0.81717
2484.18193,0.81755
2482.25322,0.81826
2480.32451,0.81924
2478.39579,0.82006
2476.46708,0.82065
2474.53837,0.82186
2472.60966,0.82500
2470.68094,0.83043
2468.75223,0.83655
2466.82352,0.84134
2464.89480,0.84431
2462.96609,0.84590
2461.03738,0.84647
2459.10867,0.84635
2457.17995,0.84582
2455.25124,0.84505
2453.32253,0.84438
2451.39382,0.84410
2449.46510,0.84397
2447.53639,0.84401
2445.60768,0.84454
2443.67897,0.84538
2441.75025,0.84605
2439.82154,0.84650
2437.89283,0.84683
2435.96411,0.84692
2434.03540,0.84651
2432.10669,0.84558
2430.17798,0.84406
2428.24926,0.84172
2426.32055,0.83859
2424.39184,0.83488
2422.46313,0.83088
2420.53441,0.82709
2418.60570,0.82407
2416.67699,0.82233
2414.74828,0.82237
2412.81956,0.82415
2410.89085,0.82694
2408.96214,0.82996
2407.03342,0.83278
2405.10471,0.83536
2403.17600,0.83769
2401.24729,0.83929
2399.31857,0.83997
2397.38986,0.84023
2395.46115,0.84049
2393.53244,0.84050
2391.60372,0.83994
2389.67501,0.83878
2387.74630,0.83708
2385.81758,0.83489
2383.88887,0.83217
2381.96016,0.82872
2380.03145,0.82433
2378.10273,0.81918
2376.17402,0.81388
2374.24531,0.80892
2372.31660,0.80424
2370.38788,0.79944
2368.45917,0.79465
2366.53046,0.78998
2364.60175,0.78521
2362.67303,0.78034
2360.74432,0.77536
2358.81561,0.77006
2356.88689,0.76471
2354.95818,0.76003
2353.02947,0.75682
2351.10076,0.75494
2349.17204,0.75198
2347.24333,0.74570
2345.31462,0.73769
2343.38591,0.73196
2341.45719,0.72972
2339.52848,0.72984
2337.59977,0.73121
2335.67106,0.73277
2333.74234,0.73387
2331.81363,0.73461
2329.88492,0.73579
2327.95620,0.73792
2326.02749,0.74067
2324.09878,0.74374
2322.17007,0.74762
2320.24135,0.75294
2318.31264,0.75920
2316.38393,0.76514
2314.45522,0.77019
2312.52650,0.77490
2310.59779,0.77996
2308.66908,0.78532
2306.74037,0.79074
2304.81165,0.79599
2302.88294,0.80071
2300.95423,0.80491
2299.02551,0.80887
2297.09680,0.81255
2295.16809,0.81584
2293.23938,0.81854
2291.31066,0.82049
2289.38195,0.82189
2287.45324,0.82292
2285.52453,0.82352
2283.59581,0.82364
2281.66710,0.82335
2279.73839,0.82306
2277.80967,0.82327
2275.88096,0.82441
2273.95225,0.82694
2272.02354,0.83092
2270.09482,0.83558
2268.16611,0.84010
2266.23740,0.84417
2264.30869,0.84763
2262.37997,0.85031
2260.45126,0.85221
2258.52255,0.85344
2256.59384,0.85400
2254.66512,0.85379
2252.73641,0.85291
2250.80770,0.85166
2248.87898,0.85017
2246.95027,0.84852
2245.02156,0.84729
2243.09285,0.84738
2241.16413,0.84908
2239.23542,0.85221
2237.30671,0.85645
2235.37800,0.86102
2233.44928,0.86505
2231.52057,0.86804
2229.59186,0.86981
2227.66315,0.87055
2225.73443,0.87058
2223.80572,0.87019
2221.87701,0.86981
2219.94829,0.86959
2218.01958,0.86949
2216.09087,0.86950
2214.16216,0.86945
2212.23344,0.86929
2210.30473,0.86905
2208.37602,0.86876
2206.44731,0.86851
2204.51859,0.86864
2202.58988,0.86921
2200.66117,0.86982
2198.73245,0.87025
2196.80374,0.87067
2194.87503,0.87122
2192.94632,0.87165
2191.01760,0.87168
2189.08889,0.87144
2187.16018,0.87104
2185.23147,0.87033
2183.30275,0.86938
2181.37404,0.86849
2179.44533,0.86781
2177.51662,0.86726
2175.58790,0.86670
2173.65919,0.86623
2171.73048,0.86597
2169.80176,0.86580
2167.87305,0.86564
2165.94434,0.86538
2164.01563,0.86499
2162.08691,0.86456
2160.15820,0.86403
2158.22949,0.86330
2156.30078,0.86243
2154.37206,0.86154
2152.44335,0.86068
2150.51464,0.85975
2148.58593,0.85890
2146.65721,0.85870
2144.72850,0.85953
2142.79979,0.86119
2140.87107,0.86329
2138.94236,0.86558
2137.01365,0.86809
2135.08494,0.87078
2133.15622,0.87335
2131.22751,0.87587
2129.29880,0.87862
2127.37009,0.88124
2125.44137,0.88332
2123.51266,0.88508
2121.58395,0.88663
2119.65524,0.88777
2117.72652,0.88831
2115.79781,0.88830
2113.86910,0.88797
2111.94038,0.88735
2110.01167,0.88637
2108.08296,0.88520
2106.15425,0.88414
2104.22553,0.88325
2102.29682,0.88251
2100.36811,0.88196
2098.43940,0.88188
2096.51068,0.88244
2094.58197,0.88311
2092.65326,0.88332
2090.72454,0.88330
2088.79583,0.88360
2086.86712,0.88418
2084.93841,0.88447
2083.00969,0.88409
2081.08098,0.88314
2079.15227,0.88195
2077.22356,0.88060
2075.29484,0.87890
2073.36613,0.87690
2071.43742,0.87480
2069.50871,0.87277
2067.57999,0.87077
2065.65128,0.86886
2063.72257,0.86755
2061.79385,0.86677
2059.86514,0.86614
2057.93643,0.86577
2056.00772,0.86547
2054.07900,0.86476
2052.15029,0.86355
2050.22158,0.86195
2048.29287,0.85990
2046.36415,0.85736
2044.43544,0.85420
2042.50673,0.85038
2040.57802,0.84643
2038.64930,0.84279
2036.72059,0.83912
2034.79188,0.83512
2032.86316,0.83092
2030.93445,0.82665
2029.00574,0.82218
2027.07703,0.81734
2025.14831,0.81224
2023.21960,0.80738
2021.29089,0.80348
2019.36218,0.80158
2017.43346,0.80400
2015.50475,0.81263
2013.57604,0.82558
2011.64733,0.83913
2009.71861,0.85081
2007.78990,0.85989
2005.86119,0.86652
2003.93247,0.87114
2002.00376,0.87425
2000.07505,0.87626
1998.14634,0.87762
1996.21762,0.87839
1994.28891,0.87831
1992.36020,0.87841
1990.43149,0.88011
1988.50277,0.88271
1986.57406,0.88526
1984.64535,0.88757
1982.71663,0.88941
1980.78792,0.89062
1978.85921,0.89118
1976.93050,0.89133
1975.00178,0.89130
1973.07307,0.89089
1971.14436,0.88950
1969.21565,0.88658
1967.28693,0.88330
1965.35822,0.88159
1963.42951,0.88079
1961.50080,0.87972
1959.57208,0.87893
1957.64337,0.87862
1955.71466,0.87862
1953.78594,0.87940
1951.85723,0.88093
1949.92852,0.88236
1947.99981,0.88292
1946.07109,0.88232
1944.14238,0.88108
1942.21367,0.88114
1940.28496,0.88320
1938.35624,0.88473
1936.42753,0.88427
1934.49882,0.88261
1932.57011,0.88074
1930.64139,0.87893
1928.71268,0.87702
1926.78397,0.87438
1924.85525,0.87053
1922.92654,0.86726
1920.99783,0.86632
1919.06912,0.86602
1917.14040,0.86625
1915.21169,0.86757
1913.28298,0.86766
1911.35427,0.86548
1909.42555,0.86270
1907.49684,0.86093
1905.56813,0.85907
1903.63941,0.85563
1901.71070,0.85104
1899.78199,0.84632
1897.85328,0.84213
1895.92456,0.83987
1893.99585,0.84126
1892.06714,0.84523
1890.13843,0.85093
1888.20971,0.85913
1886.28100,0.86728
1884.35229,0.87333
1882.42358,0.87797
1880.49486,0.88187
1878.56615,0.88545
1876.63744,0.88887
1874.70872,0.89159
1872.78001,0.89216
1870.85130,0.88928
1868.92259,0.88563
1866.99387,0.88742
1865.06516,0.89243
1863.13645,0.89510
1861.20774,0.89488
1859.27902,0.89361
1857.35031,0.89273
1855.42160,0.89251
1853.49289,0.89259
1851.56417,0.89227
1849.63546,0.89081
1847.70675,0.88831
1845.77803,0.88605
1843.84932,0.88763
1841.92061,0.89346
1839.99190,0.89788
1838.06318,0.89924
1836.13447,0.89956
1834.20576,0.89908
1832.27705,0.89523
1830.34833,0.88842
1828.41962,0.88409
1826.49091,0.88212
1824.56220,0.87942
1822.63348,0.87744
1820.70477,0.87609
1818.77606,0.87464
1816.84734,0.87438
1814.91863,0.87495
1812.98992,0.87477
1811.06121,0.87529
1809.13249,0.87892
1807.20378,0.88370
1805.27507,0.88651
1803.34636,0.88655
1801.41764,0.88543
1799.48893,0.88556
1797.56022,0.88589
1795.63150,0.88398
1793.70279,0.87953
1791.77408,0.87668
1789.84537,0.87931
1787.91665,0.88192
1785.98794,0.88104
1784.05923,0.87829
1782.13052,0.87571
1780.20180,0.87457
1778.27309,0.87499
1776.34438,0.87396
1774.41567,0.86956
1772.48695,0.86517
1770.55824,0.86702
1768.62953,0.87225
1766.70081,0.87563
1764.77210,0.87466
1762.84339,0.86854
1760.91468,0.86015
1758.98596,0.85173
1757.05725,0.84056
1755.12854,0.82787
1753.19983,0.81412
1751.27111,0.79582
1749.34240,0.77838
1747.41369,0.77118
1745.48498,0.76988
1743.55626,0.76933
1741.62755,0.76996
1739.69884,0.77557
1737.77012,0.78570
1735.84141,0.79551
1733.91270,0.80715
1731.98399,0.81985
1730.05527,0.82760
1728.12656,0.83002
1726.19785,0.82597
1724.26914,0.81740
1722.34042,0.80952
1720.41171,0.80214
1718.48300,0.78902
1716.55429,0.77407
1714.62557,0.77308
1712.69686,0.78052
1710.76815,0.78940
1708.83943,0.79745
1706.91072,0.80472
1704.98201,0.81312
1703.05330,0.82000
1701.12458,0.82204
1699.19587,0.82140
1697.26716,0.82633
1695.33845,0.84082
1693.40973,0.85423
1691.48102,0.85897
1689.55231,0.85788
1687.62359,0.85411
1685.69488,0.84727
1683.76617,0.84029
1681.83746,0.84216
1679.90874,0.84632
1677.98003,0.84776
1676.05132,0.84646
1674.12261,0.84469
1672.19389,0.84332
1670.26518,0.84353
1668.33647,0.85056
1666.40776,0.85842
1664.47904,0.86082
1662.55033,0.86104
1660.62162,0.86321
1658.69290,0.86371
1656.76419,0.85911
1654.83548,0.84846
1652.90677,0.83578
1650.97805,0.83299
1649.04934,0.82936
1647.12063,0.82230
1645.19192,0.82231
1643.26320,0.82593
1641.33449,0.82615
1639.40578,0.82295
1637.47707,0.81801
1635.54835,0.81963
1633.61964,0.83025
1631.69093,0.83734
1629.76221,0.83924
1627.83350,0.83899
1625.90479,0.83836
1623.97608,0.83694
1622.04736,0.83678
1620.11865,0.83649
1618.18994,0.83198
1616.26123,0.82665
1614.33251,0.82676
1612.40380,0.82688
1610.47509,0.82389
1608.54637,0.82078
1606.61766,0.82017
1604.68895,0.82095
1602.76024,0.82247
1600.83152,0.82531
1598.90281,0.82808
1596.97410,0.82933
1595.04539,0.83028
1593.11667,0.83196
1591.18796,0.83329
1589.25925,0.83341
1587.33054,0.83241
1585.40182,0.83022
1583.47311,0.82702
1581.54440,0.82322
1579.61568,0.81779
1577.68697,0.80974
1575.75826,0.80451
1573.82955,0.80673
1571.90083,0.80798
1569.97212,0.80710
1568.04341,0.80940
1566.11470,0.81326
1564.18598,0.81558
1562.25727,0.81494
1560.32856,0.80874
1558.39985,0.80152
1556.47113,0.80493
1554.54242,0.80862
1552.61371,0.80870
1550.68499,0.80520
1548.75628,0.79976
1546.82757,0.79246
1544.89886,0.78016
1542.97014,0.76378
1541.04143,0.75171
1539.11272,0.75588
1537.18401,0.76452
1535.25529,0.76741
1533.32658,0.76960
1531.39787,0.77417
1529.46916,0.77563
1527.54044,0.77205
1525.61173,0.76631
1523.68302,0.76018
1521.75430,0.75290
1519.82559,0.74797
1517.89688,0.74328
1515.96817,0.73751
1514.03945,0.73255
1512.11074,0.72483
1510.18203,0.71229
1508.25332,0.69495
1506.32460,0.68265
1504.39589,0.68348
1502.46718,0.68202
1500.53846,0.67411
1498.60975,0.65986
1496.68104,0.64293
1494.75233,0.62875
1492.82361,0.61446
1490.89490,0.59059
1488.96619,0.55481
1487.03748,0.52025
1485.10876,0.48665
1483.18005,0.44148
1481.25134,0.37272
1479.32263,0.28326
1477.39391,0.18244
1475.46520,0.08498
1473.53649,0.02179
1471.60777,0.00276
1469.67906,0.00071
1467.75035,0.00036
1465.82164,0.00025
1463.89292,0.00040
1461.96421,0.00110
1460.03550,0.00267
1458.10679,0.00760
1456.17807,0.02074
1454.24936,0.03779
1452.32065,0.05759
1450.39194,0.08001
1448.46322,0.10248
1446.53451,0.12243
1444.60580,0.13846
1442.67708,0.15376
1440.74837,0.17036
1438.81966,0.18975
1436.89095,0.22152
1434.96223,0.26588
1433.03352,0.31149
1431.10481,0.36805
1429.17610,0.43837
1427.24738,0.50121
1425.31867,0.54981
1423.38996,0.58850
1421.46125,0.61493
1419.53253,0.63448
1417.60382,0.65497
1415.67511,0.67262
1413.74639,0.68641
1411.81768,0.69861
1409.88897,0.71023
1407.96026,0.71947
1406.03154,0.72560
1404.10283,0.73038
1402.17412,0.73259
1400.24541,0.72995
1398.31669,0.72371
1396.38798,0.71723
1394.45927,0.71149
1392.53055,0.70615
1390.60184,0.69810
1388.67313,0.68228
1386.74442,0.65400
1384.81570,0.60806
1382.88699,0.53600
1380.95828,0.44663
1379.02957,0.38201
1377.10085,0.37074
1375.17214,0.39119
1373.24343,0.40151
1371.31472,0.38968
1369.38600,0.37530
1367.45729,0.37457
1365.52858,0.38863
1363.59986,0.41147
1361.67115,0.43736
1359.74244,0.45634
1357.81373,0.46462
1355.88501,0.46447
1353.95630,0.46157
1352.02759,0.46410
1350.09888,0.47695
1348.17016,0.49931
1346.24145,0.52596
1344.31274,0.55134
1342.38403,0.57286
1340.45531,0.59390
1338.52660,0.61970
1336.59789,0.64668
1334.66917,0.66802
1332.74046,0.68106
1330.81175,0.68557
1328.88304,0.68318
1326.95432,0.67606
1325.02561,0.66564
1323.09690,0.65243
1321.16819,0.63667
1319.23947,0.61961
1317.31076,0.60380
1315.38205,0.59008
1313.45333,0.57744
1311.52462,0.56665
1309.59591,0.55901
1307.66720,0.55461
1305.73848,0.55323
1303.80977,0.55420
1301.88106,0.55688
1299.95235,0.56130
1298.02363,0.56807
1296.09492,0.57738
1294.16621,0.58821
1292.23750,0.59866
1290.30878,0.60737
1288.38007,0.61444
1286.45136,0.62069
1284.52264,0.62655
1282.59393,0.63229
1280.66522,0.63823
1278.73651,0.64433
1276.80779,0.65039
1274.87908,0.65630
1272.95037,0.66220
1271.02166,0.66872
1269.09294,0.67616
1267.16423,0.68394
1265.23552,0.69125
1263.30681,0.69727
1261.37809,0.70127
1259.44938,0.70329
1257.52067,0.70390
1255.59195,0.70346
1253.66324,0.70240
1251.73453,0.70137
1249.80582,0.70151
1247.87710,0.70405
1245.94839,0.70908
1244.01968,0.71597
1242.09097,0.72408
1240.16225,0.73263
1238.23354,0.74077
1236.30483,0.74781
1234.37612,0.75336
1232.44740,0.75727
1230.51869,0.75939
1228.58998,0.75957
1226.66126,0.75802
1224.73255,0.75535
1222.80384,0.75183
1220.87513,0.74761
1218.94641,0.74353
1217.01770,0.74038
1215.08899,0.73832
1213.16028,0.73746
1211.23156,0.73834
1209.30285,0.74143
1207.37414,0.74678
1205.44542,0.75396
1203.51671,0.76174
1201.58800,0.76853
1199.65929,0.77350
1197.73057,0.77624
1195.80186,0.77628
1193.87315,0.77352
1191.94444,0.76853
1190.01572,0.76217
1188.08701,0.75542
1186.15830,0.74930
1184.22959,0.74405
1182.30087,0.73884
1180.37216,0.73306
1178.44345,0.72836
1176.51473,0.72814
1174.58602,0.73273
1172.65731,0.73890
1170.72860,0.74463
1168.79988,0.75005
1166.87117,0.75518
1164.94246,0.75939
1163.01375,0.76217
1161.08503,0.76326
1159.15632,0.76226
1157.22761,0.75903
1155.29890,0.75401
1153.37018,0.74792
1151.44147,0.74187
1149.51276,0.73693
1147.58404,0.73373
1145.65533,0.73269
1143.72662,0.73409
1141.79791,0.73795
1139.86919,0.74418
1137.94048,0.75249
1136.01177,0.76189
1134.08306,0.77085
1132.15434,0.77839
1130.22563,0.78467
1128.29692,0.78963
1126.36821,0.79197
1124.43949,0.79073
1122.51078,0.78632
1120.58207,0.77996
1118.65335,0.77265
1116.72464,0.76499
1114.79593,0.75778
1112.86722,0.75188
1110.93850,0.74786
1109.00979,0.74626
1107.08108,0.74701
1105.15237,0.74943
1103.22365,0.75304
1101.29494,0.75765
1099.36623,0.76239
1097.43751,0.76569
1095.50880,0.76658
1093.58009,0.76491
1091.65138,0.76068
1089.72266,0.75400
1087.79395,0.74505
1085.86524,0.73426
1083.93653,0.72310
1082.00781,0.71394
1080.07910,0.70876
1078.15039,0.70788
1076.22168,0.71041
1074.29296,0.71558
1072.36425,0.72300
1070.43554,0.73154
1068.50682,0.73963
1066.57811,0.74687
1064.64940,0.75410
1062.72069,0.76231
1060.79197,0.77141
1058.86326,0.77974
1056.93455,0.78511
1055.00584,0.78599
1053.07712,0.78181
1051.14841,0.77522
1049.21970,0.77056
1047.29099,0.76759
1045.36227,0.76350
1043.43356,0.75849
1041.50485,0.75430
1039.57613,0.75180
1037.64742,0.75117
1035.71871,0.75212
1033.79000,0.75400
1031.86128,0.75623
1029.93257,0.75816
1028.00386,0.75853
1026.07515,0.75583
1024.14643,0.74958
1022.21772,0.74102
1020.28901,0.73260
1018.36029,0.72752
1016.43158,0.72812
1014.50287,0.73385
1012.57416,0.74216
1010.64544,0.75048
1008.71673,0.75737
1006.78802,0.76287
1004.85931,0.76797
1002.93059,0.77376
1001.00188,0.78092
999.07317,0.78967
997.14446,0.79985
995.21574,0.81101
993.28703,0.82242
991.35832,0.83310
989.42960,0.84217
987.50089,0.84870
985.57218,0.85160
983.64347,0.85036
981.71475,0.84506
979.78604,0.83616
977.85733,0.82468
975.92862,0.81220
973.99990,0.80034
972.07119,0.79033
970.14248,0.78323
968.21377,0.78015
966.28505,0.78131
964.35634,0.78603
962.42763,0.79394
960.49891,0.80492
958.57020,0.81778
956.64149,0.83073
954.71278,0.84228
952.78406,0.85099
950.85535,0.85584
948.92664,0.85672
946.99793,0.85378
945.06921,0.84727
943.14050,0.83826
941.21179,0.82834
939.28308,0.81887
937.35436,0.81105
935.42565,0.80597
933.49694,0.80435
931.56822,0.80672
929.63951,0.81296
927.71080,0.82204
925.78209,0.83279
923.85337,0.84432
921.92466,0.85524
919.99595,0.86397
918.06724,0.86941
916.13852,0.87082
914.20981,0.86731
912.28110,0.85861
910.35238,0.84671
908.42367,0.83538
906.49496,0.82688
904.56625,0.82042
902.63753,0.81470
900.70882,0.80976
898.78011,0.80641
896.85140,0.80580
894.92268,0.80879
892.99397,0.81507
891.06526,0.82334
889.13655,0.83282
887.20783,0.84381
885.27912,0.85584
883.35041,0.86656
881.42169,0.87346
879.49298,0.87526
877.56427,0.87196
875.63556,0.86459
873.70684,0.85448
871.77813,0.84316
869.84942,0.83223
867.92071,0.82314
865.99199,0.81709
864.06328,0.81465
862.13457,0.81562
860.20586,0.81979
858.27714,0.82726
856.34843,0.83767
854.41972,0.84971
852.49100,0.86150
850.56229,0.87132
848.63358,0.87791
846.70487,0.88038
844.77615,0.87848
842.84744,0.87279
840.91873,0.86394
838.99002,0.85239
837.06130,0.83966
835.13259,0.82772
833.20388,0.81773
831.27516,0.81061
829.34645,0.80717
827.41774,0.80757
825.48903,0.81197
823.56031,0.82020
821.63160,0.83095
819.70289,0.84219
817.77418,0.85201
815.84546,0.85941
813.91675,0.86380
811.98804,0.86414
810.05933,0.85963
808.13061,0.85054
806.20190,0.83798
804.27319,0.82324
802.34447,0.80764
800.41576,0.79271
798.48705,0.78001
796.55834,0.77069
794.62962,0.76527
792.70091,0.76363
790.77220,0.76530
788.84349,0.76954
786.91477,0.77481
784.98606,0.77894
783.05735,0.78023
781.12864,0.77788
779.19992,0.77177
777.27121,0.76246
775.34250,0.75107
773.41378,0.73892
771.48507,0.72733
769.55636,0.71781
767.62765,0.71119
765.69893,0.70666
763.77022,0.70322
761.84151,0.70140
759.91280,0.70174
757.98408,0.70350
756.05537,0.70567
754.12666,0.70790
752.19795,0.70918
750.26923,0.70711
748.34052,0.69904
746.41181,0.68291
744.48309,0.65721
742.55438,0.62085
740.62567,0.57263
738.69696,0.50917
736.76824,0.42160
734.83953,0.30123
732.91082,0.16593
730.98211,0.06711
729.05339,0.03665
727.12468,0.04825
725.19597,0.05589
723.26725,0.04257
721.33854,0.02295
719.40983,0.02150
717.48112,0.05711
715.55240,0.13258
713.62369,0.23114
711.69498,0.33049
709.76627,0.41955
707.83755,0.49830
705.90884,0.56932
703.98013,0.63423
702.05142,0.69230
700.12270,0.74127
698.19399,0.77925
696.26528,0.80489
694.33656,0.81812
692.40785,0.82107
690.47914,0.81734
688.55043,0.81067
686.62171,0.80406
684.69300,0.79955
682.76429,0.79877
680.83558,0.80311
678.90686,0.81307
676.97815,0.82762
675.04944,0.84435
673.12073,0.85925
671.19201,0.86773
669.26330,0.87435
667.33459,0.89249
665.40587,0.91280
663.47716,0.91964
661.54845,0.91459
659.61974,0.90326
657.69102,0.89008
655.76231,0.87706
653.83360,0.86536
651.90489,0.85667
649.97617,0.85225
648.04746,0.85309
646.11875,0.86008
644.19004,0.87274
642.26132,0.88903
640.33261,0.90726
638.40390,0.92597
636.47518,0.94250
634.54647,0.95471
632.61776,0.96146
630.68905,0.96162
628.76033,0.95491
626.83162,0.94229
624.90291,0.92603
622.97420,0.90921
621.04548,0.89337
619.11677,0.87942
617.18806,0.86953
615.25934,0.86541
613.33063,0.86673
611.40192,0.87234
609.47321,0.88189
607.54449,0.89480
605.61578,0.91046
603.68707,0.92767
601.75836,0.94345
599.82964,0.95529
