7496.90619,0.94615
7494.97747,0.95139
7493.04876,0.95391
7491.12005,0.95454
7489.19134,0.94821
7487.26262,0.93343
7485.33391,0.92335
7483.40520,0.92356
7481.47648,0.92588
7479.54777,0.92248
7477.61906,0.91465
7475.69035,0.91189
7473.76163,0.91964
7471.83292,0.93097
7469.90421,0.93658
7467.97550,0.93494
7466.04678,0.93079
7464.11807,0.93016
7462.18936,0.93402
7460.26065,0.93596
7458.33193,0.92898
7456.40322,0.91872
7454.47451,0.91854
7452.54579,0.92818
7450.61708,0.93448
7448.68837,0.93123
7446.75966,0.92814
7444.83094,0.93329
7442.90223,0.93846
7440.97352,0.93992
7439.04481,0.94466
7437.11609,0.95024
7435.18738,0.95015
7433.25867,0.94708
7431.32996,0.94264
7429.40124,0.93345
7427.47253,0.92395
7425.54382,0.92594
7423.61510,0.93854
7421.68639,0.94342
7419.75768,0.93314
7417.82897,0.92324
7415.90025,0.92621
7413.97154,0.93845
7412.04283,0.94993
7410.11412,0.95403
7408.18540,0.94843
7406.25669,0.93853
7404.32798,0.93727
7402.39927,0.94483
7400.47055,0.94914
7398.54184,0.94699
7396.61313,0.94255
7394.68441,0.93577
7392.75570,0.92720
7390.82699,0.92360
7388.89828,0.92613
7386.96956,0.93079
7385.04085,0.93458
7383.11214,0.93120
7381.18343,0.92241
7379.25471,0.91836
7377.32600,0.91843
7375.39729,0.91776
7373.46857,0.91796
7371.53986,0.92177
7369.61115,0.92825
7367.68244,0.93351
7365.75372,0.93577
7363.82501,0.93528
7361.89630,0.93079
7359.96759,0.92424
7358.03887,0.92060
7356.11016,0.92174
7354.18145,0.92425
7352.25274,0.92411
7350.32402,0.92357
7348.39531,0.92489
7346.46660,0.92342
7344.53788,0.91817
7342.60917,0.91510
7340.68046,0.91441
7338.75175,0.91583
7336.82303,0.92179
7334.89432,0.92597
7332.96561,0.92516
7331.03690,0.92300
7329.10818,0.91954
7327.17947,0.91761
7325.25076,0.92051
7323.32205,0.92305
7321.39333,0.92245
7319.46462,0.92245
7317.53591,0.92551
7315.60719,0.92867
7313.67848,0.92789
7311.74977,0.92433
7309.82106,0.92288
7307.89234,0.92391
7305.96363,0.92556
7304.03492,0.92838
7302.10621,0.92853
7300.17749,0.92495
7298.24878,0.92462
7296.32007,0.92376
7294.39136,0.91582
7292.46264,0.91140
7290.53393,0.91795
7288.60522,0.92802
7286.67650,0.93306
7284.74779,0.92897
7282.81908,0.91925
7280.89037,0.91432
7278.96165,0.92033
7277.03294,0.93100
7275.10423,0.93501
7273.17552,0.92985
7271.24680,0.92677
7269.31809,0.93175
7267.38938,0.93223
7265.46066,0.91980
7263.53195,0.90757
7261.60324,0.90865
7259.67453,0.91906
7257.74581,0.92805
7255.81710,0.92794
7253.88839,0.91901
7251.95968,0.91201
7250.03096,0.91185
7248.10225,0.91220
7246.17354,0.90912
7244.24483,0.90574
7242.31611,0.90611
7240.38740,0.90648
7238.45869,0.90416
7236.52997,0.90197
7234.60126,0.89783
7232.67255,0.89098
7230.74384,0.89032
7228.81512,0.89816
7226.88641,0.90673
7224.95770,0.90912
7223.02899,0.90615
7221.10027,0.90661
7219.17156,0.91240
7217.24285,0.91678
7215.31414,0.92028
7213.38542,0.92538
7211.45671,0.92597
7209.52800,0.91946
7207.59928,0.91395
7205.67057,0.91428
7203.74186,0.91641
7201.81315,0.91731
7199.88443,0.91468
7197.95572,0.90768
7196.02701,0.90275
7194.09830,0.90379
7192.16958,0.90708
7190.24087,0.90922
7188.31216,0.90933
7186.38344,0.90743
7184.45473,0.90486
7182.52602,0.90465
7180.59731,0.90888
7178.66859,0.91403
7176.73988,0.91574
7174.81117,0.91350
7172.88246,0.90959
7170.95374,0.90600
7169.02503,0.90461
7167.09632,0.90882
7165.16761,0.91669
7163.23889,0.92263
7161.31018,0.92310
7159.38147,0.91605
7157.45275,0.90905
7155.52404,0.90971
7153.59533,0.91261
7151.66662,0.91283
7149.73790,0.91127
7147.80919,0.90705
7145.88048,0.90451
7143.95177,0.90680
7142.02305,0.90665
7140.09434,0.90297
7138.16563,0.90269
7136.23692,0.90723
7134.30820,0.91388
7132.37949,0.91989
7130.45078,0.92358
7128.52206,0.92505
7126.59335,0.92298
7124.66464,0.91883
7122.73593,0.91733
7120.80721,0.91692
7118.87850,0.91765
7116.94979,0.92336
7115.02108,0.92822
7113.09236,0.92790
7111.16365,0.92289
7109.23494,0.91260
7107.30623,0.90303
7105.37751,0.90230
7103.44880,0.90858
7101.52009,0.91436
7099.59137,0.91696
7097.66266,0.91642
7095.73395,0.91340
7093.80524,0.91266
7091.87652,0.91612
7089.94781,0.91923
7088.01910,0.91991
7086.09039,0.92018
7084.16167,0.91801
7082.23296,0.91107
7080.30425,0.90627
7078.37553,0.90822
7076.44682,0.91176
7074.51811,0.91187
7072.58940,0.90671
7070.66068,0.90105
7068.73197,0.90430
7066.80326,0.91415
7064.87455,0.91995
7062.94583,0.91854
7061.01712,0.91434
7059.08841,0.91278
7057.15970,0.91399
7055.23098,0.91169
7053.30227,0.90404
7051.37356,0.89871
7049.44484,0.90064
7047.51613,0.90805
7045.58742,0.91779
7043.65871,0.92502
7041.72999,0.92614
7039.80128,0.92265
7037.87257,0.92056
7035.94386,0.92322
7034.01514,0.92497
7032.08643,0.92222
7030.15772,0.91971
7028.22901,0.91916
7026.30029,0.91538
7024.37158,0.90813
7022.44287,0.90432
7020.51415,0.90565
7018.58544,0.90925
7016.65673,0.91157
7014.72802,0.90958
7012.79930,0.90855
7010.87059,0.91370
7008.94188,0.91859
7007.01317,0.91529
7005.08445,0.90908
7003.15574,0.91133
7001.22703,0.92051
6999.29832,0.92633
6997.36960,0.92498
6995.44089,0.91946
6993.51218,0.91513
6991.58346,0.91410
6989.65475,0.91478
6987.72604,0.91756
6985.79733,0.92375
6983.86861,0.93049
6981.93990,0.93140
6980.01119,0.92826
6978.08248,0.92873
6976.15376,0.93070
6974.22505,0.92946
6972.29634,0.92624
6970.36762,0.92266
6968.43891,0.92006
6966.51020,0.92083
6964.58149,0.92499
6962.65277,0.92742
6960.72406,0.92441
6958.79535,0.91888
6956.86664,0.91494
6954.93792,0.91470
6953.00921,0.91744
6951.08050,0.91961
6949.15179,0.91827
6947.22307,0.91421
6945.29436,0.91311
6943.36565,0.91732
6941.43693,0.92093
6939.50822,0.92174
6937.57951,0.92265
6935.65080,0.92334
6933.72208,0.92276
6931.79337,0.92013
6929.86466,0.91721
6927.93595,0.91747
6926.00723,0.91839
6924.07852,0.91774
6922.14981,0.91912
6920.22110,0.92280
6918.29238,0.92404
6916.36367,0.92176
6914.43496,0.91929
6912.50624,0.91841
6910.57753,0.91844
6908.64882,0.91892
6906.72011,0.92056
6904.79139,0.92175
6902.86268,0.92112
6900.93397,0.92071
6899.00526,0.92113
6897.07654,0.92357
6895.14783,0.92736
6893.21912,0.92734
6891.29040,0.92680
6889.36169,0.93060
6887.43298,0.93044
6885.50427,0.92384
6883.57555,0.92217
6881.64684,0.92701
6879.71813,0.92957
6877.78942,0.92796
6875.86070,0.92539
6873.93199,0.92398
6872.00328,0.92375
6870.07457,0.92250
6868.14585,0.92114
6866.21714,0.92149
6864.28843,0.92057
6862.35971,0.91795
6860.43100,0.91747
6858.50229,0.91869
6856.57358,0.91927
6854.64486,0.91959
6852.71615,0.91987
6850.78744,0.92053
6848.85873,0.92411
6846.93001,0.92983
6845.00130,0.93138
6843.07259,0.92638
6841.14388,0.92177
6839.21516,0.92303
6837.28645,0.92711
6835.35774,0.92984
6833.42902,0.92820
6831.50031,0.92157
6829.57160,0.91608
6827.64289,0.91665
6825.71417,0.92105
6823.78546,0.92479
6821.85675,0.92613
6819.92804,0.92595
6817.99932,0.92430
6816.07061,0.92191
6814.14190,0.92089
6812.21319,0.92118
6810.28447,0.92171
6808.35576,0.92220
6806.42705,0.92135
6804.49833,0.91982
6802.56962,0.92167
6800.64091,0.92782
6798.71220,0.93399
6796.78348,0.93593
6794.85477,0.93390
6792.92606,0.93168
6790.99735,0.93137
6789.06863,0.93117
6787.13992,0.92975
6785.21121,0.92918
6783.28249,0.93059
6781.35378,0.93200
6779.42507,0.93232
6777.49636,0.93212
6775.56764,0.93006
6773.63893,0.92551
6771.71022,0.92231
6769.78151,0.92304
6767.85279,0.92654
6765.92408,0.92891
6763.99537,0.92520
6762.06666,0.91851
6760.13794,0.91715
6758.20923,0.92165
6756.28052,0.92592
6754.35180,0.92849
6752.42309,0.93117
6750.49438,0.93166
6748.56567,0.92982
6746.63695,0.92824
6744.70824,0.92660
6742.77953,0.92731
6740.85082,0.93112
6738.92210,0.93145
6736.99339,0.92783
6735.06468,0.92692
6733.13597,0.92907
6731.20725,0.93193
6729.27854,0.93359
6727.34983,0.93011
6725.42111,0.92449
6723.49240,0.92461
6721.56369,0.93042
6719.63498,0.93461
6717.70626,0.93394
6715.77755,0.93243
6713.84884,0.93154
6711.92013,0.92938
6709.99141,0.92633
6708.06270,0.92349
6706.13399,0.92185
6704.20528,0.92230
6702.27656,0.92521
6700.34785,0.92970
6698.41914,0.93426
6696.49042,0.93789
6694.56171,0.93943
6692.63300,0.93952
6690.70429,0.93838
6688.77557,0.93423
6686.84686,0.92951
6684.91815,0.92946
6682.98944,0.93365
6681.06072,0.93559
6679.13201,0.93365
6677.20330,0.93346
6675.27458,0.93559
6673.34587,0.93413
6671.41716,0.92881
6669.48845,0.92556
6667.55973,0.92598
6665.63102,0.92706
6663.70231,0.92892
6661.77360,0.93189
6659.84488,0.93303
6657.91617,0.93287
6655.98746,0.93359
6654.05875,0.93461
6652.13003,0.93607
6650.20132,0.93646
6648.27261,0.93432
6646.34389,0.93233
6644.41518,0.93184
6642.48647,0.93263
6640.55776,0.93511
6638.62904,0.93898
6636.70033,0.94171
6634.77162,0.93915
6632.84291,0.93284
6630.91419,0.92960
6628.98548,0.93101
6627.05677,0.93385
6625.12806,0.93616
6623.19934,0.93669
6621.27063,0.93594
6619.34192,0.93577
6617.41320,0.93447
6615.48449,0.93041
6613.55578,0.92662
6611.62707,0.92530
6609.69835,0.92598
6607.76964,0.92710
6605.84093,0.92525
6603.91222,0.92183
6601.98350,0.92316
6600.05479,0.92883
6598.12608,0.93225
6596.19736,0.93130
6594.26865,0.92966
6592.33994,0.93072
6590.41123,0.93421
6588.48251,0.93726
6586.55380,0.93799
6584.62509,0.93693
6582.69638,0.93479
6580.76766,0.93222
6578.83895,0.93107
6576.91024,0.93302
6574.98153,0.93707
6573.05281,0.93984
6571.12410,0.93943
6569.19539,0.93757
6567.26667,0.93749
6565.33796,0.93850
6563.40925,0.93850
6561.48054,0.93872
6559.55182,0.93871
6557.62311,0.93776
6555.69440,0.93802
6553.76569,0.93865
6551.83697,0.93838
6549.90826,0.93971
6547.97955,0.94064
6546.05084,0.93663
6544.12212,0.93280
6542.19341,0.93631
6540.26470,0.94269
6538.33598,0.94334
6536.40727,0.93923
6534.47856,0.93668
6532.54985,0.93762
6530.62113,0.93800
6528.69242,0.93386
6526.76371,0.93002
6524.83500,0.93201
6522.90628,0.93546
6520.97757,0.93614
6519.04886,0.93748
6517.12015,0.94144
6515.19143,0.94232
6513.26272,0.93702
6511.33401,0.93220
6509.40529,0.93358
6507.47658,0.93824
6505.54787,0.93890
6503.61916,0.93532
6501.69044,0.93391
6499.76173,0.93518
6497.83302,0.93548
6495.90431,0.93455
6493.97559,0.93399
6492.04688,0.93563
6490.11817,0.93937
6488.18945,0.94201
6486.26074,0.94155
6484.33203,0.93893
6482.40332,0.93447
6480.47460,0.92933
6478.54589,0.92810
6476.61718,0.93184
6474.68847,0.93503
6472.75975,0.93524
6470.83104,0.93502
6468.90233,0.93622
6466.97362,0.93911
6465.04490,0.94096
6463.11619,0.93941
6461.18748,0.93706
6459.25876,0.93575
6457.33005,0.93492
6455.40134,0.93518
6453.47263,0.93531
6451.54391,0.93358
6449.61520,0.93146
6447.68649,0.93076
6445.75778,0.93150
6443.82906,0.93178
6441.90035,0.93009
6439.97164,0.92786
6438.04293,0.92745
6436.11421,0.93123
6434.18550,0.93784
6432.25679,0.94166
6430.32807,0.94194
6428.39936,0.94165
6426.47065,0.94047
6424.54194,0.93871
6422.61322,0.93840
6420.68451,0.93795
6418.75580,0.93601
6416.82709,0.93501
6414.89837,0.93536
6412.96966,0.93503
6411.04095,0.93399
6409.11224,0.93258
6407.18352,0.93092
6405.25481,0.93095
6403.32610,0.93357
6401.39738,0.93660
6399.46867,0.93745
6397.53996,0.93502
6395.61125,0.93145
6393.68253,0.93007
6391.75382,0.93072
6389.82511,0.93219
6387.89640,0.93334
6385.96768,0.93185
6384.03897,0.92859
6382.11026,0.92736
6380.18154,0.93036
6378.25283,0.93615
6376.32412,0.94055
6374.39541,0.94074
6372.46669,0.93619
6370.53798,0.92994
6368.60927,0.92962
6366.68056,0.93756
6364.75184,0.94457
6362.82313,0.94333
6360.89442,0.93926
6358.96571,0.93809
6357.03699,0.93678
6355.10828,0.93394
6353.17957,0.93357
6351.25085,0.93628
6349.32214,0.93742
6347.39343,0.93539
6345.46472,0.93405
6343.53600,0.93500
6341.60729,0.93528
6339.67858,0.93231
6337.74987,0.92818
6335.82115,0.92832
6333.89244,0.93272
6331.96373,0.93531
6330.03502,0.93493
6328.10630,0.93495
6326.17759,0.93488
6324.24888,0.93353
6322.32016,0.93312
6320.39145,0.93503
6318.46274,0.93739
6316.53403,0.93796
6314.60531,0.93772
6312.67660,0.93955
6310.74789,0.94196
6308.81918,0.94066
6306.89046,0.93712
6304.96175,0.93539
6303.03304,0.93522
6301.10432,0.93497
6299.17561,0.93369
6297.24690,0.93227
6295.31819,0.93366
6293.38947,0.93666
6291.46076,0.93749
6289.53205,0.93619
6287.60334,0.93439
6285.67462,0.93355
6283.74591,0.93466
6281.81720,0.93623
6279.88849,0.93710
6277.95977,0.93812
6276.03106,0.93891
6274.10235,0.93809
6272.17363,0.93610
6270.24492,0.93507
6268.31621,0.93559
6266.38750,0.93548
6264.45878,0.93360
6262.53007,0.93222
6260.60136,0.93317
6258.67265,0.93505
6256.74393,0.93644
6254.81522,0.93642
6252.88651,0.93435
6250.95780,0.93314
6249.02908,0.93450
6247.10037,0.93594
6245.17166,0.93643
6243.24294,0.93653
6241.31423,0.93609
6239.38552,0.93534
6237.45681,0.93522
6235.52809,0.93543
6233.59938,0.93447
6231.67067,0.93335
6229.74196,0.93313
6227.81324,0.93208
6225.88453,0.93063
6223.95582,0.93113
6222.02711,0.93286
6220.09839,0.93391
6218.16968,0.93450
6216.24097,0.93424
6214.31225,0.93223
6212.38354,0.93079
6210.45483,0.93179
6208.52612,0.93327
6206.59740,0.93375
6204.66869,0.93443
6202.73998,0.93545
6200.81127,0.93408
6198.88255,0.93063
6196.95384,0.92917
6195.02513,0.92946
6193.09641,0.92886
6191.16770,0.92825
6189.23899,0.92825
6187.31028,0.92832
6185.38156,0.92885
6183.45285,0.92910
6181.52414,0.92831
6179.59543,0.92823
6177.66671,0.92969
6175.73800,0.93122
6173.80929,0.93266
6171.88058,0.93411
6169.95186,0.93371
6168.02315,0.93188
6166.09444,0.93133
6164.16572,0.93163
6162.23701,0.93195
6160.30830,0.93269
6158.37959,0.93241
6156.45087,0.93140
6154.52216,0.93114
6152.59345,0.93040
6150.66474,0.92914
6148.73602,0.92993
6146.80731,0.93264
6144.87860,0.93352
6142.94989,0.93186
6141.02117,0.93041
6139.09246,0.92936
6137.16375,0.92776
6135.23503,0.92643
6133.30632,0.92692
6131.37761,0.92907
6129.44890,0.92879
6127.52018,0.92451
6125.59147,0.92124
6123.66276,0.92236
6121.73405,0.92562
6119.80533,0.92781
6117.87662,0.92725
6115.94791,0.92462
6114.01919,0.92321
6112.09048,0.92480
6110.16177,0.92698
6108.23306,0.92718
6106.30434,0.92573
6104.37563,0.92486
6102.44692,0.92493
6100.51821,0.92390
6098.58949,0.92192
6096.66078,0.92068
6094.73207,0.91973
6092.80336,0.91770
6090.87464,0.91592
6088.94593,0.91727
6087.01722,0.92065
6085.08850,0.92195
6083.15979,0.92108
6081.23108,0.92089
6079.30237,0.92057
6077.37365,0.91819
6075.44494,0.91439
6073.51623,0.91064
6071.58752,0.90953
6069.65880,0.91085
6067.73009,0.91104
6065.80138,0.91015
6063.87267,0.90937
6061.94395,0.90733
6060.01524,0.90466
6058.08653,0.90315
6056.15781,0.90194
6054.22910,0.90133
6052.30039,0.90212
6050.37168,0.90157
6048.44296,0.89940
6046.51425,0.89910
6044.58554,0.90095
6042.65683,0.90208
6040.72811,0.90069
6038.79940,0.89721
6036.87069,0.89438
6034.94198,0.89474
6033.01326,0.89616
6031.08455,0.89548
6029.15584,0.89291
6027.22712,0.88928
6025.29841,0.88595
6023.36970,0.88474
6021.44099,0.88590
6019.51227,0.88742
6017.58356,0.88635
6015.65485,0.88311
6013.72614,0.88117
6011.79742,0.88191
6009.86871,0.88428
6007.94000,0.88727
6006.01128,0.88912
6004.08257,0.88910
6002.15386,0.88898
6000.22515,0.88974
5998.29643,0.89190
5996.36772,0.89499
5994.43901,0.89701
5992.51030,0.89780
5990.58158,0.89868
5988.65287,0.90032
5986.72416,0.90199
5984.79545,0.90303
5982.86673,0.90408
5980.93802,0.90527
5979.00931,0.90544
5977.08059,0.90320
5975.15188,0.90057
5973.22317,0.90170
5971.29446,0.90452
5969.36574,0.90490
5967.43703,0.90492
5965.50832,0.90628
5963.57961,0.90609
5961.65089,0.90306
5959.72218,0.90067
5957.79347,0.90213
5955.86476,0.90464
5953.93604,0.90362
5952.00733,0.90021
5950.07862,0.89839
5948.14990,0.89828
5946.22119,0.89730
5944.29248,0.89457
5942.36377,0.89219
5940.43505,0.89285
5938.50634,0.89489
5936.57763,0.89375
5934.64892,0.88962
5932.72020,0.88566
5930.79149,0.88234
5928.86278,0.87896
5926.93407,0.87605
5925.00535,0.87485
5923.07664,0.87443
5921.14793,0.87266
5919.21921,0.87023
5917.29050,0.86806
5915.36179,0.86518
5913.43308,0.86152
5911.50436,0.85818
5909.57565,0.85674
5907.64694,0.85678
5905.71823,0.85536
5903.78951,0.85277
5901.86080,0.85142
5899.93209,0.85017
5898.00337,0.84774
5896.07466,0.84523
5894.14595,0.84237
5892.21724,0.83843
5890.28852,0.83438
5888.35981,0.83069
5886.43110,0.82729
5884.50239,0.82515
5882.57367,0.82443
5880.64496,0.82312
5878.71625,0.81962
5876.78754,0.81517
5874.85882,0.81182
5872.93011,0.80877
5871.00140,0.80434
5869.07268,0.79981
5867.14397,0.79654
5865.21526,0.79379
5863.28655,0.79101
5861.35783,0.78828
5859.42912,0.78549
5857.50041,0.78115
5855.57170,0.77489
5853.64298,0.76970
5851.71427,0.76691
5849.78556,0.76439
5847.85685,0.76140
5845.92813,0.75896
5843.99942,0.75656
5842.07071,0.75318
5840.14199,0.74932
5838.21328,0.74489
5836.28457,0.73917
5834.35586,0.73336
5832.42714,0.72886
5830.49843,0.72519
5828.56972,0.72282
5826.64101,0.72366
5824.71229,0.72709
5822.78358,0.73056
5820.85487,0.73306
5818.92615,0.73512
5816.99744,0.73737
5815.06873,0.74046
5813.14002,0.74459
5811.21130,0.74912
5809.28259,0.75403
5807.35388,0.75933
5805.42517,0.76423
5803.49645,0.76809
5801.56774,0.77047
5799.63903,0.77284
5797.71032,0.77731
5795.78160,0.78294
5793.85289,0.78805
5791.92418,0.79263
5789.99546,0.79709
5788.06675,0.80075
5786.13804,0.80290
5784.20933,0.80493
5782.28061,0.80846
5780.35190,0.81233
5778.42319,0.81452
5776.49448,0.81554
5774.56576,0.81753
5772.63705,0.82033
5770.70834,0.82157
5768.77963,0.82084
5766.85091,0.81969
5764.92220,0.81956
5762.99349,0.82112
5761.06477,0.82327
5759.13606,0.82429
5757.20735,0.82373
5755.27864,0.82202
5753.34992,0.82052
5751.42121,0.82013
5749.49250,0.82006
5747.56379,0.81927
5745.63507,0.81803
5743.70636,0.81717
5741.77765,0.81627
5739.84894,0.81519
5737.92022,0.81528
5735.99151,0.81669
5734.06280,0.81771
5732.13408,0.81774
5730.20537,0.81781
5728.27666,0.81811
5726.34795,0.81856
5724.41923,0.81958
5722.49052,0.82067
5720.56181,0.82151
5718.63310,0.82231
5716.70438,0.82186
5714.77567,0.82016
5712.84696,0.82011
5710.91824,0.82210
5708.98953,0.82320
5707.06082,0.82248
5705.13211,0.82122
5703.20339,0.82068
5701.27468,0.82107
5699.34597,0.82132
5697.41726,0.82121
5695.48854,0.82141
5693.55983,0.82218
5691.63112,0.82378
5689.70241,0.82579
5687.77369,0.82705
5685.84498,0.82760
5683.91627,0.82875
5681.98755,0.83087
5680.05884,0.83263
5678.13013,0.83360
5676.20142,0.83544
5674.27270,0.83841
5672.34399,0.84049
5670.41528,0.84046
5668.48657,0.83933
5666.55785,0.83899
5664.62914,0.84011
5662.70043,0.84191
5660.77172,0.84345
5658.84300,0.84433
5656.91429,0.84506
5654.98558,0.84590
5653.05686,0.84625
5651.12815,0.84656
5649.19944,0.84749
5647.27073,0.84866
5645.34201,0.85028
5643.41330,0.85199
5641.48459,0.85231
5639.55588,0.85240
5637.62716,0.85411
5635.69845,0.85568
5633.76974,0.85519
5631.84103,0.85460
5629.91231,0.85629
5627.98360,0.85888
5626.05489,0.85999
5624.12617,0.85998
5622.19746,0.85956
5620.26875,0.85907
5618.34004,0.86028
5616.41132,0.86264
5614.48261,0.86305
5612.55390,0.86209
5610.62519,0.86247
5608.69647,0.86437
5606.76776,0.86640
5604.83905,0.86739
5602.91033,0.86741
5600.98162,0.86754
5599.05291,0.86823
5597.12420,0.86888
5595.19548,0.86887
5593.26677,0.86887
5591.33806,0.86889
5589.40935,0.86828
5587.48063,0.86866
5585.55192,0.87097
5583.62321,0.87314
5581.69450,0.87363
5579.76578,0.87339
5577.83707,0.87360
5575.90836,0.87412
5573.97964,0.87449
5572.05093,0.87445
5570.12222,0.87436
5568.19351,0.87488
5566.26479,0.87539
5564.33608,0.87525
5562.40737,0.87503
5560.47866,0.87547
5558.54994,0.87650
5556.62123,0.87703
5554.69252,0.87685
5552.76381,0.87734
5550.83509,0.87824
5548.90638,0.87830
5546.97767,0.87861
5545.04895,0.87981
5543.12024,0.88021
5541.19153,0.87933
5539.26282,0.87804
5537.33410,0.87728
5535.40539,0.87829
5533.47668,0.87993
5531.54797,0.87964
5529.61925,0.87872
5527.69054,0.87976
5525.76183,0.88094
5523.83311,0.88022
5521.90440,0.87999
5519.97569,0.88059
5518.04698,0.87916
5516.11826,0.87733
5514.18955,0.87773
5512.26084,0.87820
5510.33213,0.87644
5508.40341,0.87460
5506.47470,0.87559
5504.54599,0.87768
5502.61728,0.87876
5500.68856,0.87934
5498.75985,0.88036
5496.83114,0.87981
5494.90242,0.87414
5492.97371,0.86753
5491.04500,0.86700
5489.11629,0.86961
5487.18757,0.87123
5485.25886,0.87327
5483.33015,0.87620
5481.40144,0.87828
5479.47272,0.87820
5477.54401,0.87494
5475.61530,0.87115
5473.68659,0.87233
5471.75787,0.87480
5469.82916,0.87297
5467.90045,0.87012
5465.97173,0.87020
5464.04302,0.87071
5462.11431,0.86964
5460.18560,0.87024
5458.25688,0.87403
5456.32817,0.87842
5454.39946,0.88150
5452.47075,0.88125
5450.54203,0.87747
5448.61332,0.87278
5446.68461,0.86960
5444.75590,0.86922
5442.82718,0.87039
5440.89847,0.87318
5438.96976,0.87755
5437.04104,0.87801
5435.11233,0.87532
5433.18362,0.87561
5431.25491,0.87580
5429.32619,0.87447
5427.39748,0.87793
5425.46877,0.88405
5423.54006,0.88725
5421.61134,0.88789
5419.68263,0.88668
5417.75392,0.88300
5415.82520,0.87724
5413.89649,0.87178
5411.96778,0.87014
5410.03907,0.87384
5408.11035,0.88095
5406.18164,0.88598
5404.25293,0.88732
5402.32422,0.88919
5400.39550,0.89095
5398.46679,0.88796
5396.53808,0.88179
5394.60937,0.87929
5392.68065,0.88358
5390.75194,0.88924
5388.82323,0.88981
5386.89451,0.88569
5384.96580,0.88425
5383.03709,0.88824
5381.10838,0.89057
5379.17966,0.88665
5377.25095,0.88046
5375.32224,0.88057
5373.39353,0.88761
5371.46481,0.89412
5369.53610,0.89670
5367.60739,0.89631
5365.67868,0.89409
5363.74996,0.89229
5361.82125,0.89341
5359.89254,0.89610
5357.96382,0.89593
5356.03511,0.88977
5354.10640,0.88255
5352.17769,0.88345
5350.24897,0.88827
5348.32026,0.88791
5346.39155,0.88268
5344.46284,0.88034
5342.53412,0.88400
5340.60541,0.88452
5338.67670,0.88006
5336.74799,0.88139
5334.81927,0.88834
5332.89056,0.89185
5330.96185,0.89112
5329.03313,0.88887
5327.10442,0.88875
5325.17571,0.89365
5323.24700,0.89944
5321.31828,0.90183
5319.38957,0.90105
5317.46086,0.89940
5315.53215,0.89911
5313.60343,0.89989
5311.67472,0.89983
5309.74601,0.89743
5307.81729,0.89469
5305.88858,0.89562
5303.95987,0.89801
5302.03116,0.89860
5300.10244,0.89927
5298.17373,0.90122
5296.24502,0.90291
5294.31631,0.90296
5292.38759,0.90013
5290.45888,0.89697
5288.53017,0.89788
5286.60146,0.89976
5284.67274,0.89961
5282.74403,0.89897
5280.81532,0.89843
5278.88660,0.89890
5276.95789,0.90021
5275.02918,0.90089
5273.10047,0.90102
5271.17175,0.90010
5269.24304,0.89749
5267.31433,0.89320
5265.38562,0.88768
5263.45690,0.88484
5261.52819,0.88848
5259.59948,0.89403
5257.67077,0.89478
5255.74205,0.89174
5253.81334,0.89172
5251.88463,0.89376
5249.95591,0.89184
5248.02720,0.88807
5246.09849,0.88682
5244.16978,0.88877
5242.24106,0.89400
5240.31235,0.89895
5238.38364,0.90082
5236.45493,0.90107
5234.52621,0.90015
5232.59750,0.89776
5230.66879,0.89646
5228.74007,0.89646
5226.81136,0.89441
5224.88265,0.89278
5222.95394,0.89566
5221.02522,0.89888
5219.09651,0.89944
5217.16780,0.89981
5215.23909,0.90131
5213.31037,0.90217
5211.38166,0.90002
5209.45295,0.89426
5207.52424,0.88937
5205.59552,0.89141
5203.66681,0.89758
5201.73810,0.90164
5199.80938,0.90137
5197.88067,0.89858
5195.95196,0.89828
5194.02325,0.90114
5192.09453,0.90260
5190.16582,0.90145
5188.23711,0.89994
5186.30840,0.89931
5184.37968,0.90033
5182.45097,0.90253
5180.52226,0.90345
5178.59355,0.90279
5176.66483,0.90238
5174.73612,0.90279
5172.80741,0.90316
5170.87869,0.90328
5168.94998,0.90387
5167.02127,0.90409
5165.09256,0.90299
5163.16384,0.90220
5161.23513,0.90250
5159.30642,0.90204
5157.37771,0.90099
5155.44899,0.90143
5153.52028,0.90222
5151.59157,0.90203
5149.66286,0.90214
5147.73414,0.90262
5145.80543,0.90290
5143.87672,0.90305
5141.94800,0.90286
5140.01929,0.90282
5138.09058,0.90289
5136.16187,0.90235
5134.23315,0.90181
5132.30444,0.90192
5130.37573,0.90214
5128.44702,0.90232
5126.51830,0.90279
5124.58959,0.90313
5122.66088,0.90293
5120.73216,0.90246
5118.80345,0.90203
5116.87474,0.90205
5114.94603,0.90242
5113.01731,0.90261
5111.08860,0.90271
5109.15989,0.90324
5107.23118,0.90389
5105.30246,0.90383
5103.37375,0.90325
5101.44504,0.90256
5099.51633,0.90206
5097.58761,0.90256
5095.65890,0.90412
5093.73019,0.90592
5091.80147,0.90690
5089.87276,0.90607
5087.94405,0.90432
5086.01534,0.90400
5084.08662,0.90507
5082.15791,0.90624
5080.22920,0.90769
5078.30049,0.90874
5076.37177,0.90834
5074.44306,0.90718
5072.51435,0.90637
5070.58564,0.90639
5068.65692,0.90699
5066.72821,0.90756
5064.79950,0.90777
5062.87078,0.90782
5060.94207,0.90790
5059.01336,0.90795
5057.08465,0.90814
5055.15593,0.90854
5053.22722,0.90850
5051.29851,0.90799
5049.36980,0.90795
5047.44108,0.90837
5045.51237,0.90853
5043.58366,0.90847
5041.65495,0.90874
5039.72623,0.90949
5037.79752,0.91000
5035.86881,0.90972
5033.94009,0.90932
5032.01138,0.90954
5030.08267,0.91009
5028.15396,0.91016
5026.22524,0.90980
5024.29653,0.90949
5022.36782,0.90930
5020.43911,0.90943
5018.51039,0.90996
5016.58168,0.91016
5014.65297,0.90987
5012.72425,0.90997
5010.79554,0.91017
5008.86683,0.90987
5006.93812,0.91038
5005.00940,0.91167
5003.08069,0.91155
5001.15198,0.91024
4999.22327,0.90973
4997.29455,0.90961
4995.36584,0.90890
4993.43713,0.90853
4991.50842,0.90891
4989.57970,0.90889
4987.65099,0.90851
4985.72228,0.90885
4983.79356,0.90951
4981.86485,0.90976
4979.93614,0.91010
4978.00743,0.91078
4976.07871,0.91116
4974.15000,0.91094
4972.22129,0.91069
4970.29258,0.91071
4968.36386,0.91088
4966.43515,0.91145
4964.50644,0.91200
4962.57773,0.91175
4960.64901,0.91132
4958.72030,0.91164
4956.79159,0.91229
4954.86287,0.91249
4952.93416,0.91225
4951.00545,0.91187
4949.07674,0.91137
4947.14802,0.91096
4945.21931,0.91095
4943.29060,0.91095
4941.36189,0.91085
4939.43317,0.91096
4937.50446,0.91092
4935.57575,0.91069
4933.64703,0.91052
4931.71832,0.91029
4929.78961,0.91012
4927.86090,0.91041
4925.93218,0.91124
4924.00347,0.91189
4922.07476,0.91175
4920.14605,0.91129
4918.21733,0.91094
4916.28862,0.91074
4914.35991,0.91075
4912.43120,0.91097
4910.50248,0.91130
4908.57377,0.91183
4906.64506,0.91231
4904.71634,0.91185
4902.78763,0.91057
4900.85892,0.90998
4898.93021,0.91037
4897.00149,0.91029
4895.07278,0.90937
4893.14407,0.90895
4891.21536,0.90931
4889.28664,0.90953
4887.35793,0.90959
4885.42922,0.90994
4883.50051,0.91051
4881.57179,0.91096
4879.64308,0.91112
4877.71437,0.91111
4875.78565,0.91100
4873.85694,0.91087
4871.92823,0.91080
4869.99952,0.91083
4868.07080,0.91076
4866.14209,0.91054
4864.21338,0.91063
4862.28467,0.91099
4860.35595,0.91105
4858.42724,0.91080
4856.49853,0.91074
4854.56982,0.91081
4852.64110,0.91058
4850.71239,0.91056
4848.78368,0.91127
4846.85496,0.91214
4844.92625,0.91222
4842.99754,0.91127
4841.06883,0.91008
4839.14011,0.90964
4837.21140,0.91007
4835.28269,0.91078
4833.35398,0.91132
4831.42526,0.91143
4829.49655,0.91118
4827.56784,0.91104
4825.63912,0.91082
4823.71041,0.91008
4821.78170,0.90945
4819.85299,0.90980
4817.92427,0.91057
4815.99556,0.91064
4814.06685,0.90998
4812.13814,0.90956
4810.20942,0.90976
4808.28071,0.91000
4806.35200,0.90970
4804.42329,0.90864
4802.49457,0.90730
4800.56586,0.90663
4798.63715,0.90701
4796.70843,0.90788
4794.77972,0.90822
4792.85101,0.90773
4790.92230,0.90727
4788.99358,0.90736
4787.06487,0.90762
4785.13616,0.90770
4783.20745,0.90756
4781.27873,0.90725
4779.35002,0.90708
4777.42131,0.90732
4775.49260,0.90788
4773.56388,0.90866
4771.63517,0.90955
4769.70646,0.90983
4767.77774,0.90866
4765.84903,0.90735
4763.92032,0.90771
4761.99161,0.90885
4760.06289,0.90915
4758.13418,0.90865
4756.20547,0.90818
4754.27676,0.90806
4752.34804,0.90814
4750.41933,0.90831
4748.49062,0.90822
4746.56191,0.90767
4744.63319,0.90720
4742.70448,0.90729
4740.77577,0.90751
4738.84705,0.90718
4736.91834,0.90649
4734.98963,0.90601
4733.06092,0.90542
4731.13220,0.90421
4729.20349,0.90288
4727.27478,0.90201
4725.34607,0.90104
4723.41735,0.89910
4721.48864,0.89646
4719.55993,0.89453
4717.63121,0.89376
4715.70250,0.89310
4713.77379,0.89215
4711.84508,0.89175
4709.91636,0.89207
4707.98765,0.89221
4706.05894,0.89153
4704.13023,0.88958
4702.20151,0.88647
4700.27280,0.88366
4698.34409,0.88177
4696.41538,0.87997
4694.48666,0.87770
4692.55795,0.87482
4690.62924,0.87191
4688.70052,0.86997
4686.77181,0.86896
4684.84310,0.86850
4682.91439,0.86866
4680.98567,0.86957
4679.05696,0.87126
4677.12825,0.87317
4675.19954,0.87475
4673.27082,0.87646
4671.34211,0.87865
4669.41340,0.88096
4667.48469,0.88272
4665.55597,0.88339
4663.62726,0.88353
4661.69855,0.88396
4659.76983,0.88453
4657.84112,0.88502
4655.91241,0.88531
4653.98370,0.88515
4652.05498,0.88429
4650.12627,0.88286
4648.19756,0.88180
4646.26885,0.88146
4644.34013,0.88111
4642.41142,0.88029
4640.48271,0.87867
4638.55399,0.87624
4636.62528,0.87361
4634.69657,0.87132
4632.76786,0.86999
4630.83914,0.87006
4628.91043,0.87102
4626.98172,0.87222
4625.05301,0.87426
4623.12429,0.87747
4621.19558,0.88051
4619.26687,0.88261
4617.33816,0.88473
4615.40944,0.88695
4613.48073,0.88833
4611.55202,0.88911
4609.62330,0.89006
4607.69459,0.89114
4605.76588,0.89211
4603.83717,0.89268
4601.90845,0.89283
4599.97974,0.89304
4598.05103,0.89320
4596.12232,0.89256
4594.19360,0.89129
4592.26489,0.89020
4590.33618,0.88955
4588.40747,0.88912
4586.47875,0.88889
4584.55004,0.88888
4582.62133,0.88858
4580.69261,0.88787
4578.76390,0.88745
4576.83519,0.88731
4574.90648,0.88705
4572.97776,0.88696
4571.04905,0.88754
4569.12034,0.88902
4567.19163,0.89082
4565.26291,0.89226
4563.33420,0.89383
4561.40549,0.89544
4559.47678,0.89569
4557.54806,0.89483
4555.61935,0.89457
4553.69064,0.89521
4551.76192,0.89564
4549.83321,0.89526
4547.90450,0.89453
4545.97579,0.89392
4544.04707,0.89354
4542.11836,0.89368
4540.18965,0.89421
4538.26094,0.89415
4536.33222,0.89319
4534.40351,0.89223
4532.47480,0.89183
4530.54608,0.89198
4528.61737,0.89240
4526.68866,0.89254
4524.75995,0.89209
4522.83123,0.89092
4520.90252,0.88930
4518.97381,0.88821
4517.04510,0.88797
4515.11638,0.88784
4513.18767,0.88733
4511.25896,0.88655
4509.33025,0.88554
4507.40153,0.88456
4505.47282,0.88371
4503.54411,0.88266
4501.61539,0.88108
4499.68668,0.87878
4497.75797,0.87621
4495.82926,0.87373
4493.90054,0.87116
4491.97183,0.86862
4490.04312,0.86634
4488.11441,0.86424
4486.18569,0.86254
4484.25698,0.86162
4482.32827,0.86101
4480.39956,0.86000
4478.47084,0.85890
4476.54213,0.85831
4474.61342,0.85778
4472.68470,0.85651
4470.75599,0.85461
4468.82728,0.85269
4466.89857,0.85108
4464.96985,0.84958
4463.04114,0.84731
4461.11243,0.84393
4459.18372,0.84034
4457.25500,0.83714
4455.32629,0.83384
4453.39758,0.83035
4451.46886,0.82708
4449.54015,0.82335
4447.61144,0.81828
4445.68273,0.81205
4443.75401,0.80539
4441.82530,0.79897
4439.89659,0.79302
4437.96788,0.78671
4436.03916,0.77921
4434.11045,0.77120
4432.18174,0.76339
4430.25303,0.75514
4428.32431,0.74636
4426.39560,0.73762
4424.46689,0.72869
4422.53817,0.71933
4420.60946,0.70991
4418.68075,0.70068
4416.75204,0.69152
4414.82332,0.68227
4412.89461,0.67310
4410.96590,0.66451
4409.03719,0.65623
4407.10847,0.64792
4405.17976,0.64022
4403.25105,0.63379
4401.32234,0.62903
4399.39362,0.62574
4397.46491,0.62310
4395.53620,0.62092
4393.60748,0.61930
4391.67877,0.61793
4389.75006,0.61599
4387.82135,0.61231
4385.89263,0.60675
4383.96392,0.59980
4382.03521,0.59163
4380.10650,0.58277
4378.17778,0.57358
4376.24907,0.56366
4374.32036,0.55306
4372.39165,0.54241
4370.46293,0.53197
4368.53422,0.52129
4366.60551,0.50978
4364.67679,0.49758
4362.74808,0.48518
4360.81937,0.47280
4358.89066,0.46096
4356.96194,0.45042
4355.03323,0.44095
4353.10452,0.43174
4351.17581,0.42249
4349.24709,0.41334
4347.31838,0.40409
4345.38967,0.39438
4343.46095,0.38448
4341.53224,0.37504
4339.60353,0.36638
4337.67482,0.35885
4335.74610,0.35342
4333.81739,0.35129
4331.88868,0.35301
4329.95997,0.35811
4328.03125,0.36565
4326.10254,0.37517
4324.17383,0.38649
4322.24512,0.39900
4320.31640,0.41210
4318.38769,0.42523
4316.45898,0.43734
4314.53026,0.44774
4312.60155,0.45649
4310.67284,0.46352
4308.74413,0.46886
4306.81541,0.47302
4304.88670,0.47655
4302.95799,0.47964
4301.02928,0.48204
4299.10056,0.48360
4297.17185,0.48444
4295.24314,0.48455
4293.31443,0.48409
4291.38571,0.48321
4289.45700,0.48189
4287.52829,0.48034
4285.59957,0.47855
4283.67086,0.47627
4281.74215,0.47404
4279.81344,0.47279
4277.88472,0.47272
4275.95601,0.47330
4274.02730,0.47408
4272.09859,0.47517
4270.16987,0.47669
4268.24116,0.47842
4266.31245,0.48042
4264.38374,0.48289
4262.45502,0.48548
4260.52631,0.48766
4258.59760,0.48942
4256.66888,0.49079
4254.74017,0.49156
4252.81146,0.49167
4250.88275,0.49129
4248.95403,0.49075
4247.02532,0.49043
4245.09661,0.49041
4243.16790,0.49036
4241.23918,0.48964
4239.31047,0.48812
4237.38176,0.48638
4235.45304,0.48473
4233.52433,0.48294
4231.59562,0.48078
4229.66691,0.47839
4227.73819,0.47624
4225.80948,0.47441
4223.88077,0.47259
4221.95206,0.47073
4220.02334,0.46896
4218.09463,0.46751
4216.16592,0.46689
4214.23721,0.46708
4212.30849,0.46771
4210.37978,0.46884
4208.45107,0.47072
4206.52235,0.47348
4204.59364,0.47718
4202.66493,0.48149
4200.73622,0.48589
4198.80750,0.49008
4196.87879,0.49396
4194.95008,0.49772
4193.02137,0.50160
4191.09265,0.50518
4189.16394,0.50754
4187.23523,0.50840
4185.30652,0.50811
4183.37780,0.50679
4181.44909,0.50463
4179.52038,0.50208
4177.59166,0.49901
4175.66295,0.49553
4173.73424,0.49272
4171.80553,0.49119
4169.87681,0.49111
4167.94810,0.49273
4166.01939,0.49602
4164.09068,0.50086
4162.16196,0.50702
4160.23325,0.51378
4158.30454,0.52046
4156.37582,0.52687
4154.44711,0.53279
4152.51840,0.53776
4150.58969,0.54191
4148.66097,0.54585
4146.73226,0.54989
4144.80355,0.55399
4142.87484,0.55824
4140.94612,0.56294
4139.01741,0.56793
4137.08870,0.57262
4135.15999,0.57684
4133.23127,0.58090
4131.30256,0.58461
4129.37385,0.58743
4127.44513,0.58927
4125.51642,0.59020
4123.58771,0.59042
4121.65900,0.59020
4119.73028,0.58942
4117.80157,0.58797
4115.87286,0.58623
4113.94415,0.58435
4112.01543,0.58208
4110.08672,0.57958
4108.15801,0.57722
4106.22930,0.57510
4104.30058,0.57315
4102.37187,0.57090
4100.44316,0.56760
4098.51444,0.56297
4096.58573,0.55701
4094.65702,0.54965
4092.72831,0.54086
4090.79959,0.53074
4088.87088,0.51984
4086.94217,0.50973
4085.01346,0.50215
4083.08474,0.49832
4081.15603,0.49928
4079.22732,0.50500
4077.29861,0.51381
4075.36989,0.52373
4073.44118,0.53349
4071.51247,0.54267
4069.58375,0.55132
4067.65504,0.55957
4065.72633,0.56776
4063.79762,0.57600
4061.86890,0.58381
4059.94019,0.59117
4058.01148,0.59843
4056.08277,0.60517
4054.15405,0.61062
4052.22534,0.61469
4050.29663,0.61793
4048.36791,0.62057
4046.43920,0.62242
4044.51049,0.62404
4042.58178,0.62597
4040.65306,0.62804
4038.72435,0.62996
4036.79564,0.63150
4034.86693,0.63233
4032.93821,0.63266
4031.00950,0.63301
4029.08079,0.63314
4027.15208,0.63277
4025.22336,0.63263
4023.29465,0.63291
4021.36594,0.63289
4019.43722,0.63304
4017.50851,0.63432
4015.57980,0.63624
4013.65109,0.63828
4011.72237,0.64048
4009.79366,0.64278
4007.86495,0.64569
4005.93624,0.64939
4004.00752,0.65318
4002.07881,0.65681
4000.15010,0.66040
3998.22139,0.66341
3996.29267,0.66565
3994.36396,0.66806
3992.43525,0.67107
3990.50653,0.67461
3988.57782,0.67875
3986.64911,0.68264
3984.72040,0.68528
3982.79168,0.68705
3980.86297,0.68895
3978.93426,0.69109
3977.00555,0.69244
3975.07683,0.69333
3973.14812,0.69520
3971.21941,0.69777
3969.29070,0.70013
3967.36198,0.70222
3965.43327,0.70330
3963.50456,0.70301
3961.57584,0.70315
3959.64713,0.70441
3957.71842,0.70526
3955.78971,0.70549
3953.86099,0.70490
3951.93228,0.70253
3950.00357,0.69988
3948.07486,0.70013
3946.14614,0.70172
3944.21743,0.70123
3942.28872,0.70141
3940.36000,0.70455
3938.43129,0.70737
3936.50258,0.70751
3934.57387,0.70405
3932.64515,0.69859
3930.71644,0.69687
3928.78773,0.69940
3926.85902,0.69968
3924.93030,0.69699
3923.00159,0.69667
3921.07288,0.69767
3919.14417,0.69653
3917.21545,0.69676
3915.28674,0.70159
3913.35803,0.70728
3911.42931,0.71041
3909.50060,0.70979
3907.57189,0.70352
3905.64318,0.69176
3903.71446,0.68184
3901.78575,0.68107
3899.85704,0.68747
3897.92833,0.69756
3895.99961,0.70470
3894.07090,0.70410
3892.14219,0.70094
3890.21348,0.70429
3888.28476,0.70790
3886.35605,0.70515
3884.42734,0.70155
3882.49862,0.70075
3880.56991,0.70314
3878.64120,0.71000
3876.71249,0.71241
3874.78377,0.70637
3872.85506,0.69810
3870.92635,0.69395
3868.99764,0.69667
3867.06892,0.69952
3865.14021,0.69668
3863.21150,0.69738
3861.28278,0.70566
3859.35407,0.70978
3857.42536,0.70433
3855.49665,0.69075
3853.56793,0.67810
3851.63922,0.68762
3849.71051,0.70502
3847.78180,0.71502
3845.85308,0.71545
3843.92437,0.70842
3841.99566,0.69866
3840.06695,0.68980
3838.13823,0.68769
3836.20952,0.69539
3834.28081,0.70485
3832.35209,0.71242
3830.42338,0.71763
3828.49467,0.71871
3826.56596,0.71693
3824.63724,0.71370
3822.70853,0.70605
3820.77982,0.69928
3818.85111,0.70309
3816.92239,0.71104
3814.99368,0.72309
3813.06497,0.73523
3811.13626,0.73972
3809.20754,0.73531
3807.27883,0.72664
3805.35012,0.72081
3803.42140,0.71445
3801.49269,0.70975
3799.56398,0.71599
3797.63527,0.72593
3795.70655,0.73757
3793.77784,0.74972
3791.84913,0.75689
3789.92042,0.75883
3787.99170,0.75696
3786.06299,0.75335
3784.13428,0.75276
3782.20557,0.75385
3780.27685,0.75266
3778.34814,0.75492
3776.41943,0.76165
3774.49071,0.76399
3772.56200,0.75828
3770.63329,0.74908
3768.70458,0.74537
3766.77586,0.74712
3764.84715,0.74977
3762.91844,0.75025
3760.98973,0.74455
3759.06101,0.73664
3757.13230,0.73474
3755.20359,0.73315
3753.27487,0.72316
3751.34616,0.70836
3749.41745,0.70731
3747.48874,0.71454
3745.56002,0.71944
3743.63131,0.72676
3741.70260,0.73289
3739.77389,0.73170
3737.84517,0.72207
3735.91646,0.70840
3733.98775,0.70724
3732.05904,0.72084
3730.13032,0.73294
3728.20161,0.73651
3726.27290,0.73485
3724.34418,0.73572
3722.41547,0.74247
3720.48676,0.75285
3718.55805,0.76312
3716.62933,0.76821
3714.70062,0.76266
3712.77191,0.74509
3710.84320,0.73082
3708.91448,0.73599
3706.98577,0.74456
3705.05706,0.74511
3703.12835,0.73887
3701.19963,0.73308
3699.27092,0.73130
3697.34221,0.72770
3695.41349,0.71899
3693.48478,0.70463
3691.55607,0.68428
3689.62736,0.66666
3687.69864,0.66582
3685.76993,0.67135
3683.84122,0.67281
3681.91251,0.66922
3679.98379,0.66092
3678.05508,0.64922
3676.12637,0.63998
3674.19766,0.64353
3672.26894,0.64833
3670.34023,0.65006
3668.41152,0.66210
3666.48280,0.67809
3664.55409,0.68755
3662.62538,0.69093
3660.69667,0.69043
3658.76795,0.68692
3656.83924,0.68332
3654.91053,0.68319
3652.98182,0.67968
3651.05310,0.66437
3649.12439,0.64905
3647.19568,0.66175
3645.26696,0.68138
3643.33825,0.69127
3641.40954,0.69413
3639.48083,0.69401
3637.55211,0.69143
3635.62340,0.68558
3633.69469,0.67727
3631.76598,0.66699
3629.83726,0.65413
3627.90855,0.64945
3625.97984,0.65644
3624.05113,0.65995
3622.12241,0.65526
3620.19370,0.64524
3618.26499,0.63936
3616.33627,0.63952
3614.40756,0.63906
3612.47885,0.63893
3610.55014,0.63878
3608.62142,0.63651
3606.69271,0.63698
3604.76400,0.63929
3602.83529,0.63667
3600.90657,0.63004
3598.97786,0.62552
3597.04915,0.62315
3595.12044,0.62132
3593.19172,0.62216
3591.26301,0.62241
3589.33430,0.61631
3587.40558,0.60905
3585.47687,0.61160
3583.54816,0.61718
3581.61945,0.61862
3579.69073,0.61670
3577.76202,0.61358
3575.83331,0.61022
3573.90460,0.60675
3571.97588,0.60169
3570.04717,0.59179
3568.11846,0.57697
3566.18974,0.56796
3564.26103,0.57048
3562.33232,0.57401
3560.40361,0.57449
3558.47489,0.57362
3556.54618,0.57112
3554.61747,0.56568
3552.68876,0.55971
3550.76004,0.55671
3548.83133,0.55412
3546.90262,0.54962
3544.97391,0.54746
3543.04519,0.54997
3541.11648,0.55295
3539.18777,0.55299
3537.25905,0.55105
3535.33034,0.54995
3533.40163,0.54910
3531.47292,0.54594
3529.54420,0.54110
3527.61549,0.53762
3525.68678,0.53614
3523.75807,0.53569
3521.82935,0.53667
3519.90064,0.53807
3517.97193,0.53826
3516.04322,0.53719
3514.11450,0.53459
3512.18579,0.53008
3510.25708,0.52522
3508.32836,0.52187
3506.39965,0.51870
3504.47094,0.51368
3502.54223,0.50909
3500.61351,0.50706
3498.68480,0.50465
3496.75609,0.50024
3494.82738,0.49533
3492.89866,0.49061
3490.96995,0.48539
3489.04124,0.47971
3487.11253,0.47424
3485.18381,0.46867
3483.25510,0.46246
3481.32639,0.45671
3479.39767,0.45239
3477.46896,0.44802
3475.54025,0.44295
3473.61154,0.43829
3471.68282,0.43426
3469.75411,0.43007
3467.82540,0.42537
3465.89669,0.42063
3463.96797,0.41600
3462.03926,0.41162
3460.11055,0.40789
3458.18183,0.40433
3456.25312,0.40030
3454.32441,0.39573
3452.39570,0.39049
3450.46698,0.38401
3448.53827,0.37602
3446.60956,0.36772
3444.68085,0.36014
3442.75213,0.35235
3440.82342,0.34395
3438.89471,0.33549
3436.96600,0.32662
3435.03728,0.31755
3433.10857,0.30951
3431.17986,0.30304
3429.25114,0.29775
3427.32243,0.29362
3425.39372,0.29128
3423.46501,0.29058
3421.53629,0.29144
3419.60758,0.29459
3417.67887,0.29984
3415.75016,0.30660
3413.82144,0.31473
3411.89273,0.32378
3409.96402,0.33300
3408.03531,0.34234
3406.10659,0.35213
3404.17788,0.36237
3402.24917,0.37301
3400.32045,0.38359
3398.39174,0.39343
3396.46303,0.40261
3394.53432,0.41132
3392.60560,0.41969
3390.67689,0.42775
3388.74818,0.43495
3386.81947,0.44108
3384.89075,0.44693
3382.96204,0.45288
3381.03333,0.45834
3379.10462,0.46310
3377.17590,0.46762
3375.24719,0.47195
3373.31848,0.47620
3371.38976,0.48056
3369.46105,0.48432
3367.53234,0.48689
3365.60363,0.48905
3363.67491,0.49164
3361.74620,0.49436
3359.81749,0.49669
3357.88878,0.49863
3355.96006,0.50044
3354.03135,0.50226
3352.10264,0.50368
3350.17392,0.50419
3348.24521,0.50390
3346.31650,0.50327
3344.38779,0.50244
3342.45907,0.50108
3340.53036,0.49900
3338.60165,0.49656
3336.67294,0.49389
3334.74422,0.49130
3332.81551,0.48919
3330.88680,0.48743
3328.95809,0.48579
3327.02937,0.48415
3325.10066,0.48204
3323.17195,0.47881
3321.24323,0.47413
3319.31452,0.46778
3317.38581,0.45882
3315.45710,0.44556
3313.52838,0.42708
3311.59967,0.40403
3309.67096,0.37731
3307.74225,0.34845
3305.81353,0.32132
3303.88482,0.30093
3301.95611,0.29119
3300.02740,0.29331
3298.09868,0.30566
3296.16997,0.32486
3294.24126,0.34757
3292.31254,0.37158
3290.38383,0.39478
3288.45512,0.41594
3286.52641,0.43507
3284.59769,0.45221
3282.66898,0.46730
3280.74027,0.48030
3278.81156,0.49143
3276.88284,0.50139
3274.95413,0.51057
3273.02542,0.51923
3271.09670,0.52760
3269.16799,0.53531
3267.23928,0.54180
3265.31057,0.54713
3263.38185,0.55166
3261.45314,0.55526
3259.52443,0.55787
3257.59572,0.55991
3255.66700,0.56187
3253.73829,0.56414
3251.80958,0.56643
3249.88087,0.56775
3247.95215,0.56786
3246.02344,0.56769
3244.09473,0.56800
3242.16601,0.56836
3240.23730,0.56826
3238.30859,0.56744
3236.37988,0.56594
3234.45116,0.56440
3232.52245,0.56301
3230.59374,0.56149
3228.66503,0.55987
3226.73631,0.55832
3224.80760,0.55705
3222.87889,0.55574
3220.95018,0.55410
3219.02146,0.55292
3217.09275,0.55248
3215.16404,0.55171
3213.23532,0.55021
3211.30661,0.54854
3209.37790,0.54732
3207.44919,0.54681
3205.52047,0.54620
3203.59176,0.54491
3201.66305,0.54324
3199.73434,0.54129
3197.80562,0.53959
3195.87691,0.53886
3193.94820,0.53891
3192.01949,0.53915
3190.09077,0.53942
3188.16206,0.53972
3186.23335,0.53997
3184.30463,0.54042
3182.37592,0.54115
3180.44721,0.54161
3178.51850,0.54179
3176.58978,0.54244
3174.66107,0.54325
3172.73236,0.54361
3170.80365,0.54373
3168.87493,0.54385
3166.94622,0.54393
3165.01751,0.54401
3163.08879,0.54382
3161.16008,0.54308
3159.23137,0.54206
3157.30266,0.54111
3155.37394,0.54024
3153.44523,0.53937
3151.51652,0.53822
3149.58781,0.53661
3147.65909,0.53478
3145.73038,0.53275
3143.80167,0.53038
3141.87296,0.52779
3139.94424,0.52506
3138.01553,0.52168
3136.08682,0.51710
3134.15810,0.51199
3132.22939,0.50737
3130.30068,0.50296
3128.37197,0.49825
3126.44325,0.49420
3124.51454,0.49178
3122.58583,0.49073
3120.65712,0.49026
3118.72840,0.48924
3116.79969,0.48678
3114.87098,0.48303
3112.94227,0.47838
3111.01355,0.47273
3109.08484,0.46590
3107.15613,0.45778
3105.22741,0.44829
3103.29870,0.43752
3101.36999,0.42626
3099.44128,0.41608
3097.51256,0.40807
3095.58385,0.40222
3093.65514,0.39735
3091.72643,0.39142
3089.79771,0.38310
3087.86900,0.37257
3085.94029,0.36105
3084.01158,0.35000
3082.08286,0.34092
3080.15415,0.33542
3078.22544,0.33393
3076.29672,0.33418
3074.36801,0.33267
3072.43930,0.32736
3070.51059,0.31861
3068.58187,0.30819
3066.65316,0.29846
3064.72445,0.29170
3062.79574,0.28858
3060.86702,0.28733
3058.93831,0.28497
3057.00960,0.27993
3055.08088,0.27405
3053.15217,0.27074
3051.22346,0.27185
3049.29475,0.27685
3047.36603,0.28332
3045.43732,0.28830
3043.50861,0.29007
3041.57990,0.28839
3039.65118,0.28392
3037.72247,0.27735
3035.79376,0.26917
3033.86505,0.25985
3031.93633,0.25007
3030.00762,0.24053
3028.07891,0.23109
3026.15019,0.22079
3024.22148,0.20935
3022.29277,0.19723
3020.36406,0.18451
3018.43534,0.17113
3016.50663,0.15726
3014.57792,0.14290
3012.64921,0.12793
3010.72049,0.11273
3008.79178,0.09785
3006.86307,0.08342
3004.93436,0.06939
3003.00564,0.05606
3001.07693,0.04387
2999.14822,0.03300
2997.21950,0.02355
2995.29079,0.01571
2993.36208,0.00981
2991.43337,0.00587
2989.50465,0.00326
2987.57594,0.00155
2985.64723,0.00069
2983.71852,0.00056
2981.78980,0.00066
2979.86109,0.00067
2977.93238,0.00063
2976.00366,0.00055
2974.07495,0.00047
2972.14624,0.00051
2970.21753,0.00058
2968.28881,0.00062
2966.36010,0.00066
2964.43139,0.00048
2962.50268,0.00034
2960.57396,0.00042
2958.64525,0.00064
2956.71654,0.00067
2954.78783,0.00032
2952.85911,-0.00008
2950.93040,0.00028
2949.00169,0.00046
2947.07297,0.00060
2945.14426,0.00067
2943.21555,0.00059
2941.28684,0.00028
2939.35812,0.00019
2937.42941,0.00042
2935.50070,0.00061
2933.57199,0.00064
2931.64327,0.00069
2929.71456,0.00062
2927.78585,0.00049
2925.85714,0.00047
2923.92842,0.00041
2921.99971,0.00025
2920.07100,0.00026
2918.14228,0.00037
2916.21357,0.00055
2914.28486,0.00056
2912.35615,0.00030
2910.42743,0.00013
2908.49872,0.00038
2906.57001,0.00049
2904.64130,0.00039
2902.71258,0.00046
2900.78387,0.00066
2898.85516,0.00056
2896.92645,0.00038
2894.99773,0.00059
2893.06902,0.00086
2891.14031,0.00072
2889.21159,0.00044
2887.28288,0.00044
2885.35417,0.00067
2883.42546,0.00061
2881.49674,0.00035
2879.56803,0.00021
2877.63932,0.00021
2875.71061,0.00036
2873.78189,0.00061
2871.85318,0.00058
2869.92447,0.00040
2867.99575,0.00026
2866.06704,0.00026
2864.13833,0.00039
2862.20962,0.00062
2860.28090,0.00073
2858.35219,0.00070
2856.42348,0.00060
2854.49477,0.00050
2852.56605,0.00054
2850.63734,0.00063
2848.70863,0.00045
2846.77992,0.00049
2844.85120,0.00103
2842.92249,0.00230
2840.99378,0.00476
2839.06506,0.00859
2837.13635,0.01370
2835.20764,0.01994
2833.27893,0.02700
2831.35021,0.03444
2829.42150,0.04197
2827.49279,0.04898
2825.56408,0.05454
2823.63536,0.05841
2821.70665,0.06087
2819.77794,0.06261
2817.84923,0.06518
2815.92051,0.07074
2813.99180,0.08097
2812.06309,0.09604
2810.13437,0.11440
2808.20566,0.13383
2806.27695,0.15266
2804.34824,0.17006
2802.41952,0.18608
2800.49081,0.20136
2798.56210,0.21620
2796.63339,0.23039
2794.70467,0.24390
2792.77596,0.25678
2790.84725,0.26881
2788.91854,0.27998
2786.98982,0.29071
2785.06111,0.30114
2783.13240,0.31119
2781.20368,0.32086
2779.27497,0.32990
2777.34626,0.33792
2775.41755,0.34493
2773.48883,0.35116
2771.56012,0.35652
2769.63141,0.36069
2767.70270,0.36382
2765.77398,0.36633
2763.84527,0.36848
2761.91656,0.37012
2759.98784,0.37092
2758.05913,0.37059
2756.13042,0.36897
2754.20171,0.36617
2752.27299,0.36268
2750.34428,0.35902
2748.41557,0.35525
2746.48686,0.35108
2744.55814,0.34644
2742.62943,0.34144
2740.70072,0.33615
2738.77201,0.33097
2736.84329,0.32690
2734.91458,0.32497
2732.98587,0.32599
2731.05715,0.33047
2729.12844,0.33854
2727.19973,0.34987
2725.27102,0.36324
2723.34230,0.37691
2721.41359,0.38932
2719.48488,0.39957
2717.55617,0.40776
2715.62745,0.41477
2713.69874,0.42130
2711.77003,0.42745
2709.84132,0.43318
2707.91260,0.43861
2705.98389,0.44370
2704.05518,0.44818
2702.12646,0.45203
2700.19775,0.45547
2698.26904,0.45868
2696.34033,0.46158
2694.41161,0.46378
2692.48290,0.46507
2690.55419,0.46571
2688.62548,0.46588
2686.69676,0.46540
2684.76805,0.46408
2682.83934,0.46183
2680.91062,0.45902
2678.98191,0.45634
2677.05320,0.45416
2675.12449,0.45268
2673.19577,0.45229
2671.26706,0.45324
2669.33835,0.45539
2667.40964,0.45864
2665.48092,0.46330
2663.55221,0.46943
2661.62350,0.47637
2659.69479,0.48330
2657.76607,0.48973
2655.83736,0.49541
2653.90865,0.50028
2651.97993,0.50436
2650.05122,0.50763
2648.12251,0.50998
2646.19380,0.51113
2644.26508,0.51099
2642.33637,0.50989
2640.40766,0.50800
2638.47895,0.50527
2636.55023,0.50176
2634.62152,0.49770
2632.69281,0.49372
2630.76410,0.49074
2628.83538,0.48914
2626.90667,0.48862
2624.97796,0.48867
2623.04924,0.48874
2621.12053,0.48848
2619.19182,0.48803
2617.26311,0.48768
2615.33439,0.48747
2613.40568,0.48722
2611.47697,0.48693
2609.54826,0.48668
2607.61954,0.48638
2605.69083,0.48599
2603.76212,0.48589
2601.83341,0.48645
2599.90469,0.48755
2597.97598,0.48860
2596.04727,0.48910
2594.11855,0.48907
2592.18984,0.48860
2590.26113,0.48769
2588.33242,0.48642
2586.40370,0.48500
2584.47499,0.48359
2582.54628,0.48233
2580.61757,0.48140
2578.68885,0.48132
2576.76014,0.48249
2574.83143,0.48467
2572.90271,0.48746
2570.97400,0.49063
2569.04529,0.49382
2567.11658,0.49658
2565.18786,0.49871
2563.25915,0.50015
2561.33044,0.50109
2559.40173,0.50194
2557.47301,0.50279
2555.54430,0.50365
2553.61559,0.50482
2551.68688,0.50657
2549.75816,0.50890
2547.82945,0.51172
2545.90074,0.51475
2543.97202,0.51771
2542.04331,0.52045
2540.11460,0.52280
2538.18589,0.52478
2536.25717,0.52653
2534.32846,0.52796
2532.39975,0.52913
2530.47104,0.53037
2528.54232,0.53192
2526.61361,0.53405
2524.68490,0.53709
2522.75619,0.54094
2520.82747,0.54511
2518.89876,0.54933
2516.97005,0.55369
2515.04133,0.55822
2513.11262,0.56292
2511.18391,0.56786
2509.25520,0.57287
2507.32648,0.57747
2505.39777,0.58127
2503.46906,0.58442
2501.54035,0.58721
2499.61163,0.58977
2497.68292,0.59213
2495.75421,0.59424
2493.82549,0.59593
2491.89678,0.59724
2489.96807,0.59842
2488.03936,0.59966
2486.11064,0.60116
2484.18193,0.60308
2482.25322,0.60502
2480.32451,0.60655
2478.39579,0.60791
2476.46708,0.60942
2474.53837,0.61128
2472.60966,0.61361
2470.68094,0.61615
2468.75223,0.61821
2466.82352,0.61931
2464.89480,0.61965
2462.96609,0.61992
2461.03738,0.62053
2459.10867,0.62115
2457.17995,0.62129
2455.25124,0.62079
2453.32253,0.61976
2451.39382,0.61849
2449.46510,0.61726
2447.53639,0.61609
2445.60768,0.61474
2443.67897,0.61281
2441.75025,0.61030
2439.82154,0.60758
2437.89283,0.60492
2435.96411,0.60242
2434.03540,0.59996
2432.10669,0.59715
2430.17798,0.59359
2428.24926,0.58914
2426.32055,0.58412
2424.39184,0.57919
2422.46313,0.57492
2420.53441,0.57132
2418.60570,0.56796
2416.67699,0.56454
2414.74828,0.56120
2412.81956,0.55820
2410.89085,0.55539
2408.96214,0.55266
2407.03342,0.54986
2405.10471,0.54676
2403.17600,0.54337
2401.24729,0.53994
2399.31857,0.53659
2397.38986,0.53345
2395.46115,0.53058
2393.53244,0.52765
2391.60372,0.52438
2389.67501,0.52049
2387.74630,0.51525
2385.81758,0.50752
2383.88887,0.49621
2381.96016,0.48110
2380.03145,0.46297
2378.10273,0.44328
2376.17402,0.42369
2374.24531,0.40531
2372.31660,0.38844
2370.38788,0.37318
2368.45917,0.36006
2366.53046,0.34930
2364.60175,0.34120
2362.67303,0.33680
2360.74432,0.33677
2358.81561,0.34179
2356.88689,0.35319
2354.95818,0.37157
2353.02947,0.39688
2351.10076,0.42486
2349.17204,0.44242
2347.24333,0.44025
2345.31462,0.42568
2343.38591,0.41641
2341.45719,0.41779
2339.52848,0.42347
2337.59977,0.42970
2335.67106,0.43601
2333.74234,0.44183
2331.81363,0.44696
2329.88492,0.45315
2327.95620,0.46072
2326.02749,0.46741
2324.09878,0.47294
2322.17007,0.48130
2320.24135,0.49590
2318.31264,0.51438
2316.38393,0.53101
2314.45522,0.54266
2312.52650,0.55126
2310.59779,0.56037
2308.66908,0.57126
2306.74037,0.58266
2304.81165,0.59232
2302.88294,0.59879
2300.95423,0.60249
2299.02551,0.60503
2297.09680,0.60736
2295.16809,0.60946
2293.23938,0.61080
2291.31066,0.61083
2289.38195,0.60952
2287.45324,0.60740
2285.52453,0.60488
2283.59581,0.60161
2281.66710,0.59747
2279.73839,0.59350
2277.80967,0.59090
2275.88096,0.59035
2273.95225,0.59222
2272.02354,0.59633
2270.09482,0.60185
2268.16611,0.60768
2266.23740,0.61286
2264.30869,0.61689
2262.37997,0.61962
2260.45126,0.62126
2258.52255,0.62243
2256.59384,0.62372
2254.66512,0.62511
2252.73641,0.62611
2250.80770,0.62635
2248.87898,0.62595
2246.95027,0.62531
2245.02156,0.62480
2243.09285,0.62448
2241.16413,0.62421
2239.23542,0.62380
2237.30671,0.62317
2235.37800,0.62262
2233.44928,0.62264
2231.52057,0.62349
2229.59186,0.62500
2227.66315,0.62673
2225.73443,0.62836
2223.80572,0.62994
2221.87701,0.63173
2219.94829,0.63370
2218.01958,0.63571
2216.09087,0.63751
2214.16216,0.63860
2212.23344,0.63883
2210.30473,0.63900
2208.37602,0.64053
2206.44731,0.64456
2204.51859,0.65084
2202.58988,0.65768
2200.66117,0.66344
2198.73245,0.66774
2196.80374,0.67099
2194.87503,0.67367
2192.94632,0.67627
2191.01760,0.67914
2189.08889,0.68206
2187.16018,0.68462
2185.23147,0.68680
2183.30275,0.68882
2181.37404,0.69102
2179.44533,0.69345
2177.51662,0.69572
2175.58790,0.69736
2173.65919,0.69806
2171.73048,0.69784
2169.80176,0.69724
2167.87305,0.69684
2165.94434,0.69662
2164.01563,0.69608
2162.08691,0.69475
2160.15820,0.69292
2158.22949,0.69135
2156.30078,0.69060
2154.37206,0.69056
2152.44335,0.69063
2150.51464,0.69027
2148.58593,0.68923
2146.65721,0.68785
2144.72850,0.68671
2142.79979,0.68613
2140.87107,0.68590
2138.94236,0.68552
2137.01365,0.68470
2135.08494,0.68372
2133.15622,0.68299
2131.22751,0.68271
2129.29880,0.68285
2127.37009,0.68300
2125.44137,0.68273
2123.51266,0.68186
2121.58395,0.68051
2119.65524,0.67913
2117.72652,0.67810
2115.79781,0.67751
2113.86910,0.67713
2111.94038,0.67654
2110.01167,0.67560
2108.08296,0.67478
2106.15425,0.67445
2104.22553,0.67454
2102.29682,0.67477
2100.36811,0.67473
2098.43940,0.67396
2096.51068,0.67250
2094.58197,0.67078
2092.65326,0.66921
2090.72454,0.66803
2088.79583,0.66712
2086.86712,0.66599
2084.93841,0.66424
2083.00969,0.66208
2081.08098,0.66007
2079.15227,0.65879
2077.22356,0.65828
2075.29484,0.65803
2073.36613,0.65757
2071.43742,0.65698
2069.50871,0.65639
2067.57999,0.65569
2065.65128,0.65566
2063.72257,0.65731
2061.79385,0.65974
2059.86514,0.66166
2057.93643,0.66313
2056.00772,0.66467
2054.07900,0.66675
2052.15029,0.66944
2050.22158,0.67209
2048.29287,0.67410
2046.36415,0.67544
2044.43544,0.67615
2042.50673,0.67666
2040.57802,0.67792
2038.64930,0.67993
2036.72059,0.68150
2034.79188,0.68208
2032.86316,0.68211
2030.93445,0.68228
2029.00574,0.68314
2027.07703,0.68489
2025.14831,0.68719
2023.21960,0.68918
2021.29089,0.69010
2019.36218,0.69005
2017.43346,0.69088
2015.50475,0.69424
2013.57604,0.69822
2011.64733,0.70036
2009.71861,0.70079
2007.78990,0.70055
2005.86119,0.70016
2003.93247,0.69953
2002.00376,0.69836
2000.07505,0.69623
1998.14634,0.69286
1996.21762,0.68756
1994.28891,0.67947
1992.36020,0.67091
1990.43149,0.66627
1988.50277,0.66541
1986.57406,0.66544
1984.64535,0.66487
1982.71663,0.66318
1980.78792,0.66093
1978.85921,0.65875
1976.93050,0.65626
1975.00178,0.65273
1973.07307,0.64755
1971.14436,0.64019
1969.21565,0.63010
1967.28693,0.61877
1965.35822,0.60908
1963.42951,0.59941
1961.50080,0.58628
1959.57208,0.56949
1957.64337,0.55010
1955.71466,0.52922
1953.78594,0.50969
1951.85723,0.49478
1949.92852,0.48646
1947.99981,0.48544
1946.07109,0.49085
1944.14238,0.50140
1942.21367,0.51732
1940.28496,0.53606
1938.35624,0.55288
1936.42753,0.56706
1934.49882,0.57984
1932.57011,0.59191
1930.64139,0.60319
1928.71268,0.61302
1926.78397,0.61990
1924.85525,0.62265
1922.92654,0.62408
1920.99783,0.62698
1919.06912,0.62956
1917.14040,0.63276
1915.21169,0.63774
1913.28298,0.64075
1911.35427,0.64020
1909.42555,0.63926
1907.49684,0.64136
1905.56813,0.64512
1903.63941,0.64810
1901.71070,0.65016
1899.78199,0.65123
1897.85328,0.65043
1895.92456,0.64856
1893.99585,0.64829
1892.06714,0.64850
1890.13843,0.64805
1888.20971,0.65006
1886.28100,0.65370
1884.35229,0.65608
1882.42358,0.65759
1880.49486,0.65881
1878.56615,0.65964
1876.63744,0.66006
1874.70872,0.65927
1872.78001,0.65526
1870.85130,0.64615
1868.92259,0.63642
1866.99387,0.63684
1865.06516,0.64321
1863.13645,0.64549
1861.20774,0.64246
1859.27902,0.63724
1857.35031,0.63184
1855.42160,0.62591
1853.49289,0.61854
1851.56417,0.60879
1849.63546,0.59594
1847.70675,0.58058
1845.77803,0.56428
1843.84932,0.55162
1841.92061,0.54641
1839.99190,0.54112
1838.06318,0.52965
1836.13447,0.51398
1834.20576,0.49677
1832.27705,0.47591
1830.34833,0.45007
1828.41962,0.42794
1826.49091,0.41433
1824.56220,0.40511
1822.63348,0.40212
1820.70477,0.40471
1818.77606,0.40984
1816.84734,0.41664
1814.91863,0.42279
1812.98992,0.42597
1811.06121,0.42755
1809.13249,0.43004
1807.20378,0.43210
1805.27507,0.43103
1803.34636,0.42584
1801.41764,0.41776
1799.48893,0.41024
1797.56022,0.40323
1795.63150,0.39391
1793.70279,0.38068
1791.77408,0.36633
1789.84537,0.35759
1787.91665,0.35063
1785.98794,0.33974
1784.05923,0.32586
1782.13052,0.31181
1780.20180,0.29810
1778.27309,0.28567
1776.34438,0.27371
1774.41567,0.25912
1772.48695,0.24074
1770.55824,0.22433
1768.62953,0.21148
1766.70081,0.19728
1764.77210,0.18116
1762.84339,0.16014
1760.91468,0.13394
1758.98596,0.10970
1757.05725,0.08555
1755.12854,0.06303
1753.19983,0.04606
1751.27111,0.03110
1749.34240,0.01788
1747.41369,0.01005
1745.48498,0.00593
1743.55626,0.00325
1741.62755,0.00168
1739.69884,0.00065
1737.77012,0.00020
1735.84141,0.00017
1733.91270,0.00020
1731.98399,0.00025
1730.05527,0.00022
1728.12656,0.00027
1726.19785,0.00029
1724.26914,0.00032
1722.34042,0.00047
1720.41171,0.00068
1718.48300,0.00080
1716.55429,0.00085
1714.62557,0.00070
1712.69686,0.00058
1710.76815,0.00041
1708.83943,0.00031
1706.91072,0.00029
1704.98201,0.00018
1703.05330,-0.00010
1701.12458,0.00073
1699.19587,0.00255
1697.26716,0.00682
1695.33845,0.01535
1693.40973,0.02472
1691.48102,0.03299
1689.55231,0.04143
1687.62359,0.04822
1685.69488,0.05258
1683.76617,0.05766
1681.83746,0.06277
1679.90874,0.06669
1677.98003,0.06999
1676.05132,0.07342
1674.12261,0.07816
1672.19389,0.08488
1670.26518,0.10028
1668.33647,0.12905
1666.40776,0.15665
1664.47904,0.18133
1662.55033,0.21080
1660.62162,0.23915
1658.69290,0.25751
1656.76419,0.26689
1654.83548,0.26979
1652.90677,0.27290
1650.97805,0.27703
1649.04934,0.27340
1647.12063,0.25976
1645.19192,0.24132
1643.26320,0.22164
1641.33449,0.19565
1639.40578,0.16803
1637.47707,0.15194
1635.54835,0.17026
1633.61964,0.21309
1631.69093,0.24649
1629.76221,0.27218
1627.83350,0.29258
1625.90479,0.30519
1623.97608,0.31131
1622.04736,0.31423
1620.11865,0.31149
1618.18994,0.29646
1616.26123,0.27070
1614.33251,0.25761
1612.40380,0.25886
1610.47509,0.26460
1608.54637,0.27419
1606.61766,0.28826
1604.68895,0.30439
1602.76024,0.32123
1600.83152,0.33769
1598.90281,0.34950
1596.97410,0.35254
1595.04539,0.34796
1593.11667,0.34180
1591.18796,0.33800
1589.25925,0.33296
1587.33054,0.31722
1585.40182,0.28174
1583.47311,0.22638
1581.54440,0.16546
1579.61568,0.11911
1577.68697,0.09777
1575.75826,0.10962
1573.82955,0.13827
1571.90083,0.16218
1569.97212,0.18479
1568.04341,0.20274
1566.11470,0.21197
1564.18598,0.21894
1562.25727,0.22522
1560.32856,0.22982
1558.39985,0.23976
1556.47113,0.25098
1554.54242,0.25637
1552.61371,0.25951
1550.68499,0.26180
1548.75628,0.26297
1546.82757,0.25908
1544.89886,0.24582
1542.97014,0.22440
1541.04143,0.20431
1539.11272,0.20389
1537.18401,0.21560
1535.25529,0.22566
1533.32658,0.23469
1531.39787,0.24007
1529.46916,0.24045
1527.54044,0.24009
1525.61173,0.24359
1523.68302,0.24938
1521.75430,0.25572
1519.82559,0.26079
1517.89688,0.25830
1515.96817,0.24852
1514.03945,0.23407
1512.11074,0.21139
1510.18203,0.17825
1508.25332,0.12697
1506.32460,0.06013
1504.39589,0.04865
1502.46718,0.07584
1500.53846,0.11633
1498.60975,0.15825
1496.68104,0.18987
1494.75233,0.20405
1492.82361,0.20301
1490.89490,0.18855
1488.96619,0.16219
1487.03748,0.13523
1485.10876,0.11073
1483.18005,0.08567
1481.25134,0.06000
1479.32263,0.03832
1477.39391,0.02265
1475.46520,0.01138
1473.53649,0.00432
1471.60777,0.00099
1469.67906,0.00008
1467.75035,0.00004
1465.82164,0.00029
1463.89292,0.00042
1461.96421,0.00040
1460.03550,0.00041
1458.10679,0.00059
1456.17807,0.00068
1454.24936,0.00044
1452.32065,0.00020
1450.39194,0.00050
1448.46322,0.00072
1446.53451,0.00075
1444.60580,0.00044
1442.67708,0.00015
1440.74837,0.00011
1438.81966,0.00009
1436.89095,0.00014
1434.96223,0.00023
1433.03352,0.00018
1431.10481,0.00021
1429.17610,0.00033
1427.24738,0.00039
1425.31867,0.00026
1423.38996,0.00027
1421.46125,0.00022
1419.53253,0.00043
1417.60382,0.00062
1415.67511,0.00044
1413.74639,0.00007
1411.81768,-0.00007
1409.88897,0.00006
1407.96026,0.00016
1406.03154,0.00041
1404.10283,0.00127
1402.17412,0.00275
1400.24541,0.00427
1398.31669,0.00505
1396.38798,0.00445
1394.45927,0.00292
1392.53055,0.00148
1390.60184,0.00055
1388.67313,0.00006
1386.74442,-0.00003
1384.81570,0.00017
1382.88699,0.00033
1380.95828,0.00036
1379.02957,0.00030
1377.10085,0.00023
1375.17214,-0.00000
1373.24343,0.00014
1371.31472,0.00070
1369.38600,0.00135
1367.45729,0.00176
1365.52858,0.00177
1363.59986,0.00152
1361.67115,0.00117
1359.74244,0.00081
1357.81373,0.00058
1355.88501,0.00054
1353.95630,0.00064
1352.02759,0.00074
1350.09888,0.00082
1348.17016,0.00084
1346.24145,0.00076
1344.31274,0.00064
1342.38403,0.00054
1340.45531,0.00042
1338.52660,0.00040
1336.59789,0.00028
1334.66917,0.00015
1332.74046,0.00012
1330.81175,0.00022
1328.88304,0.00037
1326.95432,0.00048
1325.02561,0.00046
1323.09690,0.00040
1321.16819,0.00036
1319.23947,0.00042
1317.31076,0.00050
1315.38205,0.00039
1313.45333,0.00027
1311.52462,0.00028
1309.59591,0.00027
1307.66720,0.00021
1305.73848,0.00022
1303.80977,0.00024
1301.88106,0.00017
1299.95235,0.00008
1298.02363,0.00005
1296.09492,0.00017
1294.16621,0.00020
1292.23750,0.00023
1290.30878,0.00035
1288.38007,0.00047
1286.45136,0.00034
1284.52264,0.00019
1282.59393,0.00023
1280.66522,0.00032
1278.73651,0.00036
1276.80779,0.00039
1274.87908,0.00032
1272.95037,0.00020
1271.02166,0.00013
1269.09294,0.00014
1267.16423,0.00012
1265.23552,0.00008
1263.30681,0.00006
1261.37809,0.00017
1259.44938,0.00013
1257.52067,0.00023
1255.59195,0.00020
1253.66324,0.00033
1251.73453,0.00040
1249.80582,0.00035
1247.87710,0.00045
1245.94839,0.00068
1244.01968,0.00068
1242.09097,0.00051
1240.16225,0.00045
1238.23354,0.00048
1236.30483,0.00037
1234.37612,0.00031
1232.44740,0.00041
1230.51869,0.00048
1228.58998,0.00030
1226.66126,0.00023
1224.73255,0.00068
1222.80384,0.00126
1220.87513,0.00177
1218.94641,0.00215
1217.01770,0.00234
1215.08899,0.00245
1213.16028,0.00255
1211.23156,0.00247
1209.30285,0.00217
1207.37414,0.00192
1205.44542,0.00186
1203.51671,0.00189
1201.58800,0.00184
1199.65929,0.00171
1197.73057,0.00166
1195.80186,0.00185
1193.87315,0.00239
1191.94444,0.00330
1190.01572,0.00472
1188.08701,0.00691
1186.15830,0.00954
1184.22959,0.01185
1182.30087,0.01331
1180.37216,0.01345
1178.44345,0.01187
1176.51473,0.00901
1174.58602,0.00602
1172.65731,0.00417
1170.72860,0.00413
1168.79988,0.00547
1166.87117,0.00685
1164.94246,0.00743
1163.01375,0.00739
1161.08503,0.00710
1159.15632,0.00677
1157.22761,0.00638
1155.29890,0.00576
1153.37018,0.00497
1151.44147,0.00434
1149.51276,0.00394
1147.58404,0.00368
1145.65533,0.00355
1143.72662,0.00350
1141.79791,0.00336
1139.86919,0.00283
1137.94048,0.00197
1136.01177,0.00114
1134.08306,0.00054
1132.15434,0.00033
1130.22563,0.00049
1128.29692,0.00067
1126.36821,0.00074
1124.43949,0.00070
1122.51078,0.00050
1120.58207,0.00026
1118.65335,0.00026
1116.72464,0.00024
1114.79593,0.00031
1112.86722,0.00037
1110.93850,0.00044
1109.00979,0.00055
1107.08108,0.00078
1105.15237,0.00099
1103.22365,0.00091
1101.29494,0.00059
1099.36623,0.00018
1097.43751,-0.00004
1095.50880,0.00027
1093.58009,0.00041
1091.65138,0.00046
1089.72266,0.00054
1087.79395,0.00064
1085.86524,0.00041
1083.93653,0.00017
1082.00781,0.00036
1080.07910,0.00091
1078.15039,0.00154
1076.22168,0.00253
1074.29296,0.00398
1072.36425,0.00582
1070.43554,0.00776
1068.50682,0.00946
1066.57811,0.01095
1064.64940,0.01229
1062.72069,0.01350
1060.79197,0.01495
1058.86326,0.01690
1056.93455,0.01911
1055.00584,0.02123
1053.07712,0.02311
1051.14841,0.02466
1049.21970,0.02568
1047.29099,0.02601
1045.36227,0.02570
1043.43356,0.02502
1041.50485,0.02410
1039.57613,0.02297
1037.64742,0.02158
1035.71871,0.01954
1033.79000,0.01689
1031.86128,0.01414
1029.93257,0.01138
1028.00386,0.00839
1026.07515,0.00529
1024.14643,0.00270
1022.21772,0.00110
1020.28901,0.00034
1018.36029,0.00029
1016.43158,0.00107
1014.50287,0.00255
1012.57416,0.00437
1010.64544,0.00631
1008.71673,0.00789
1006.78802,0.00852
1004.85931,0.00816
1002.93059,0.00717
1001.00188,0.00590
999.07317,0.00456
997.14446,0.00344
995.21574,0.00260
993.28703,0.00197
991.35832,0.00165
989.42960,0.00158
987.50089,0.00150
985.57218,0.00133
983.64347,0.00101
981.71475,0.00054
979.78604,0.00026
977.85733,0.00029
975.92862,0.00074
973.99990,0.00090
972.07119,0.00065
970.14248,0.00034
968.21377,0.00025
966.28505,0.00029
964.35634,0.00062
962.42763,0.00089
960.49891,0.00093
958.57020,0.00095
956.64149,0.00104
954.71278,0.00087
952.78406,0.00050
950.85535,0.00035
948.92664,0.00028
946.99793,0.00004
945.06921,0.00019
943.14050,0.00042
941.21179,0.00071
939.28308,0.00091
937.35436,0.00106
935.42565,0.00139
933.49694,0.00196
931.56822,0.00259
929.63951,0.00308
927.71080,0.00313
925.78209,0.00284
923.85337,0.00279
921.92466,0.00339
919.99595,0.00466
918.06724,0.00670
916.13852,0.00919
914.20981,0.01134
912.28110,0.01282
910.35238,0.01388
908.42367,0.01499
906.49496,0.01669
904.56625,0.01929
902.63753,0.02254
900.70882,0.02579
898.78011,0.02868
896.85140,0.03141
894.92268,0.03429
892.99397,0.03775
891.06526,0.04193
889.13655,0.04548
887.20783,0.04601
885.27912,0.04187
883.35041,0.03298
881.42169,0.02151
879.49298,0.01117
877.56427,0.00466
875.63556,0.00204
873.70684,0.00218
871.77813,0.00505
869.84942,0.01110
867.92071,0.01912
865.99199,0.02666
864.06328,0.03233
862.13457,0.03612
860.20586,0.03852
858.27714,0.03986
856.34843,0.04017
854.41972,0.03964
852.49100,0.03888
850.56229,0.03845
848.63358,0.03844
846.70487,0.03857
844.77615,0.03849
842.84744,0.03759
840.91873,0.03543
838.99002,0.03258
837.06130,0.02970
835.13259,0.02720
833.20388,0.02618
831.27516,0.02853
829.34645,0.03630
827.41774,0.05072
825.48903,0.07073
823.56031,0.09331
821.63160,0.11507
819.70289,0.13326
817.77418,0.14661
815.84546,0.15528
813.91675,0.15995
811.98804,0.16140
810.05933,0.16119
808.13061,0.16147
806.20190,0.16351
804.27319,0.16734
802.34447,0.17074
800.41576,0.16615
798.48705,0.14597
796.55834,0.12002
794.62962,0.11076
792.70091,0.12113
790.77220,0.13131
788.84349,0.12821
786.91477,0.11570
784.98606,0.10242
783.05735,0.09335
781.12864,0.08920
779.19992,0.08739
777.27121,0.08392
775.34250,0.07660
773.41378,0.06708
771.48507,0.05931
769.55636,0.05614
767.62765,0.05830
765.69893,0.06622
763.77022,0.08102
761.84151,0.10251
759.91280,0.12681
757.98408,0.14783
756.05537,0.16098
754.12666,0.16483
752.19795,0.15963
750.26923,0.14556
748.34052,0.12328
746.41181,0.09505
744.48309,0.06465
742.55438,0.03686
740.62567,0.01632
738.69696,0.00513
736.76824,0.00122
734.83953,0.00036
732.91082,-0.00001
730.98211,-0.00018
729.05339,-0.00011
727.12468,0.00028
725.19597,0.00200
723.26725,0.00609
721.33854,0.01254
719.40983,0.01919
717.48112,0.02271
715.55240,0.02191
713.62369,0.01846
711.69498,0.01404
709.76627,0.00938
707.83755,0.00549
705.90884,0.00312
703.98013,0.00201
702.05142,0.00156
700.12270,0.00148
698.19399,0.00147
696.26528,0.00129
694.33656,0.00111
692.40785,0.00115
690.47914,0.00129
688.55043,0.00122
686.62171,0.00133
684.69300,0.00168
682.76429,0.00191
680.83558,0.00211
678.90686,0.00270
676.97815,0.00357
675.04944,0.00452
673.12073,0.00575
671.19201,0.00741
669.26330,0.01088
667.33459,0.01760
665.40587,0.02263
663.47716,0.02333
661.54845,0.02089
659.61974,0.01629
657.69102,0.01074
655.76231,0.00570
653.83360,0.00232
651.90489,0.00104
649.97617,0.00099
648.04746,0.00141
646.11875,0.00176
644.19004,0.00119
642.26132,0.00057
640.33261,0.00102
638.40390,0.00172
636.47518,0.00232
634.54647,0.00246
632.61776,0.00200
630.68905,0.00103
628.76033,0.00065
626.83162,0.00126
624.90291,0.00211
622.97420,0.00231
621.04548,0.00196
619.11677,0.00070
617.18806,0.00030
615.25934,0.00114
613.33063,0.00203
611.40192,0.00219
609.47321,0.00186
607.54449,0.00144
605.61578,0.00081
603.68707,-0.00037
601.75836,0.00040
599.82964,0.00403
