7496.92628,0.03726
7494.99756,0.03554
7493.06885,0.03137
7491.14013,0.02532
7489.21141,0.01936
7487.28269,0.02385
7485.35397,0.03382
7483.42526,0.03790
7481.49654,0.03787
7479.56782,0.04010
7477.63910,0.04125
7475.71039,0.04124
7473.78167,0.04052
7471.85295,0.03645
7469.92423,0.03251
7467.99551,0.03387
7466.06680,0.03767
7464.13808,0.04235
7462.20936,0.04620
7460.28064,0.04489
7458.35192,0.04249
7456.42321,0.04531
7454.49449,0.04737
7452.56577,0.04927
7450.63705,0.05190
7448.70834,0.04698
7446.77962,0.03414
7444.85090,0.02507
7442.92218,0.02398
7440.99346,0.02841
7439.06475,0.03263
7437.13603,0.03120
7435.20731,0.02671
7433.27859,0.02568
7431.34987,0.02828
7429.42116,0.03216
7427.49244,0.03356
7425.56372,0.03068
7423.63500,0.02913
7421.70629,0.03267
7419.77757,0.03682
7417.84885,0.03803
7415.92013,0.03611
7413.99141,0.03455
7412.06270,0.03400
7410.13398,0.03752
7408.20526,0.04325
7406.27654,0.04378
7404.34782,0.03977
7402.41911,0.03771
7400.49039,0.03491
7398.56167,0.03221
7396.63295,0.03331
7394.70424,0.03651
7392.77552,0.03700
7390.84680,0.03879
7388.91808,0.04177
7386.98936,0.03973
7385.06065,0.03596
7383.13193,0.03723
7381.20321,0.04063
7379.27449,0.03882
7377.34577,0.03455
7375.41706,0.03639
7373.48834,0.04290
7371.55962,0.04502
7369.63090,0.03818
7367.70219,0.03156
7365.77347,0.03392
7363.84475,0.04090
7361.91603,0.04318
7359.98731,0.04286
7358.05860,0.04497
7356.12988,0.04381
7354.20116,0.03489
7352.27244,0.02777
7350.34372,0.02877
7348.41501,0.03181
7346.48629,0.03316
7344.55757,0.03506
7342.62885,0.03606
7340.70014,0.03552
7338.77142,0.03455
7336.84270,0.03400
7334.91398,0.03393
7332.98526,0.03425
7331.05655,0.03140
7329.12783,0.03363
7327.19911,0.04081
7325.27039,0.04005
7323.34167,0.03294
7321.41296,0.02799
7319.48424,0.02589
7317.55552,0.02858
7315.62680,0.03493
7313.69809,0.03733
7311.76937,0.03528
7309.84065,0.03226
7307.91193,0.03195
7305.98321,0.03794
7304.05450,0.03911
7302.12578,0.03311
7300.19706,0.03090
7298.26834,0.03376
7296.33963,0.03352
7294.41091,0.02888
7292.48219,0.02481
7290.55347,0.02562
7288.62475,0.02831
7286.69604,0.03107
7284.76732,0.03435
7282.83860,0.03753
7280.90988,0.03724
7278.98116,0.03597
7277.05245,0.03748
7275.12373,0.03727
7273.19501,0.03269
7271.26629,0.03434
7269.33758,0.03878
7267.40886,0.03586
7265.48014,0.02997
7263.55142,0.03082
7261.62270,0.03451
7259.69399,0.03406
7257.76527,0.03338
7255.83655,0.03426
7253.90783,0.03102
7251.97911,0.02827
7250.05040,0.02871
7248.12168,0.02820
7246.19296,0.02467
7244.26424,0.02188
7242.33553,0.02612
7240.40681,0.03624
7238.47809,0.04409
7236.54937,0.04864
7234.62065,0.04666
7232.69194,0.03663
7230.76322,0.02906
7228.83450,0.02928
7226.90578,0.03030
7224.97706,0.03060
7223.04835,0.03059
7221.11963,0.03049
7219.19091,0.03008
7217.26219,0.03009
7215.33348,0.03090
7213.40476,0.03119
7211.47604,0.03018
7209.54732,0.02892
7207.61860,0.02791
7205.68989,0.03128
7203.76117,0.04100
7201.83245,0.04777
7199.90373,0.04386
7197.97501,0.03639
7196.04630,0.03392
7194.11758,0.03656
7192.18886,0.03995
7190.26014,0.04035
7188.33143,0.03702
7186.40271,0.03393
7184.47399,0.03230
7182.54527,0.03276
7180.61655,0.03637
7178.68784,0.03790
7176.75912,0.03421
7174.83040,0.03106
7172.90168,0.03165
7170.97296,0.03055
7169.04425,0.02490
7167.11553,0.02139
7165.18681,0.02548
7163.25809,0.03543
7161.32938,0.04032
7159.40066,0.03622
7157.47194,0.03245
7155.54322,0.03267
7153.61450,0.03400
7151.68579,0.03351
7149.75707,0.02931
7147.82835,0.02631
7145.89963,0.02944
7143.97091,0.03283
7142.04220,0.03130
7140.11348,0.03149
7138.18476,0.03486
7136.25604,0.03363
7134.32733,0.02815
7132.39861,0.02848
7130.46989,0.03425
7128.54117,0.03684
7126.61245,0.03448
7124.68374,0.03205
7122.75502,0.02923
7120.82630,0.02663
7118.89758,0.03116
7116.96887,0.04120
7115.04015,0.04364
7113.11143,0.04014
7111.18271,0.04012
7109.25399,0.04363
7107.32528,0.04201
7105.39656,0.03473
7103.46784,0.03026
7101.53912,0.03234
7099.61040,0.03283
7097.68169,0.02790
7095.75297,0.02527
7093.82425,0.03158
7091.89553,0.03711
7089.96682,0.03455
7088.03810,0.02917
7086.10938,0.02945
7084.18066,0.03418
7082.25194,0.03974
7080.32323,0.04175
7078.39451,0.04095
7076.46579,0.03919
7074.53707,0.03546
7072.60835,0.03250
7070.67964,0.03369
7068.75092,0.03336
7066.82220,0.03099
7064.89348,0.03370
7062.96477,0.04009
7061.03605,0.04504
7059.10733,0.04695
7057.17861,0.04274
7055.24989,0.03535
7053.32118,0.03095
7051.39246,0.02979
7049.46374,0.02948
7047.53502,0.02854
7045.60630,0.02664
7043.67759,0.02566
7041.74887,0.02726
7039.82015,0.03083
7037.89143,0.03380
7035.96272,0.03430
7034.03400,0.03213
7032.10528,0.03121
7030.17656,0.03478
7028.24784,0.04046
7026.31913,0.04216
7024.39041,0.03870
7022.46169,0.03433
7020.53297,0.03180
7018.60425,0.03184
7016.67554,0.03380
7014.74682,0.03368
7012.81810,0.02986
7010.88938,0.02726
7008.96067,0.03082
7007.03195,0.03477
7005.10323,0.03346
7003.17451,0.03126
7001.24579,0.03164
6999.31708,0.03178
6997.38836,0.03076
6995.45964,0.02996
6993.53092,0.03060
6991.60220,0.02988
6989.67349,0.02659
6987.74477,0.02624
6985.81605,0.03099
6983.88733,0.03544
6981.95862,0.03476
6980.02990,0.02977
6978.10118,0.02856
6976.17246,0.03477
6974.24374,0.04026
6972.31503,0.03771
6970.38631,0.03473
6968.45759,0.03680
6966.52887,0.03803
6964.60015,0.03547
6962.67144,0.03149
6960.74272,0.02850
6958.81400,0.02825
6956.88528,0.02927
6954.95657,0.02865
6953.02785,0.02597
6951.09913,0.02396
6949.17041,0.02518
6947.24169,0.02902
6945.31298,0.03064
6943.38426,0.02795
6941.45554,0.02549
6939.52682,0.02749
6937.59811,0.03219
6935.66939,0.03587
6933.74067,0.03731
6931.81195,0.03674
6929.88323,0.03202
6927.95452,0.02504
6926.02580,0.02329
6924.09708,0.02789
6922.16836,0.03082
6920.23964,0.02985
6918.31093,0.03005
6916.38221,0.03204
6914.45349,0.03292
6912.52477,0.03309
6910.59606,0.03305
6908.66734,0.03367
6906.73862,0.03448
6904.80990,0.03349
6902.88118,0.03129
6900.95247,0.03300
6899.02375,0.03846
6897.09503,0.03883
6895.16631,0.03337
6893.23759,0.03359
6891.30888,0.03838
6889.38016,0.03785
6887.45144,0.03372
6885.52272,0.03145
6883.59401,0.03088
6881.66529,0.03180
6879.73657,0.03268
6877.80785,0.03363
6875.87913,0.03568
6873.95042,0.03845
6872.02170,0.04077
6870.09298,0.04080
6868.16426,0.03668
6866.23554,0.03087
6864.30683,0.02614
6862.37811,0.02296
6860.44939,0.02267
6858.52067,0.02693
6856.59196,0.03032
6854.66324,0.03060
6852.73452,0.03146
6850.80580,0.03304
6848.87708,0.03350
6846.94837,0.03328
6845.01965,0.03106
6843.09093,0.02674
6841.16221,0.02370
6839.23349,0.02484
6837.30478,0.02858
6835.37606,0.03116
6833.44734,0.02969
6831.51862,0.02562
6829.58991,0.02570
6827.66119,0.03206
6825.73247,0.03721
6823.80375,0.03839
6821.87503,0.03896
6819.94632,0.03925
6818.01760,0.03668
6816.08888,0.03288
6814.16016,0.03061
6812.23144,0.02862
6810.30273,0.02565
6808.37401,0.02368
6806.44529,0.02455
6804.51657,0.02701
6802.58786,0.02796
6800.65914,0.02751
6798.73042,0.02664
6796.80170,0.02673
6794.87298,0.02849
6792.94427,0.03170
6791.01555,0.03354
6789.08683,0.03502
6787.15811,0.03916
6785.22939,0.04280
6783.30068,0.04010
6781.37196,0.03410
6779.44324,0.03203
6777.51452,0.03350
6775.58581,0.03294
6773.65709,0.03043
6771.72837,0.02930
6769.79965,0.02976
6767.87093,0.03219
6765.94222,0.03716
6764.01350,0.04023
6762.08478,0.03876
6760.15606,0.03519
6758.22735,0.03262
6756.29863,0.03222
6754.36991,0.03355
6752.44119,0.03551
6750.51247,0.03753
6748.58376,0.03664
6746.65504,0.03224
6744.72632,0.02765
6742.79760,0.02569
6740.86888,0.02798
6738.94017,0.03201
6737.01145,0.03227
6735.08273,0.03048
6733.15401,0.03062
6731.22530,0.03261
6729.29658,0.03486
6727.36786,0.03769
6725.43914,0.04052
6723.51042,0.03979
6721.58171,0.03561
6719.65299,0.03337
6717.72427,0.03479
6715.79555,0.03728
6713.86683,0.03836
6711.93812,0.03722
6710.00940,0.03458
6708.08068,0.03302
6706.15196,0.03382
6704.22325,0.03524
6702.29453,0.03556
6700.36581,0.03413
6698.43709,0.03177
6696.50837,0.03070
6694.57966,0.03070
6692.65094,0.03010
6690.72222,0.02936
6688.79350,0.03064
6686.86478,0.03260
6684.93607,0.03192
6683.00735,0.02954
6681.07863,0.02968
6679.14991,0.03201
6677.22120,0.03309
6675.29248,0.03224
6673.36376,0.03190
6671.43504,0.03204
6669.50632,0.03099
6667.57761,0.03077
6665.64889,0.03181
6663.72017,0.03108
6661.79145,0.03065
6659.86273,0.03192
6657.93402,0.03197
6656.00530,0.03234
6654.07658,0.03571
6652.14786,0.03779
6650.21915,0.03634
6648.29043,0.03433
6646.36171,0.03194
6644.43299,0.02897
6642.50427,0.02911
6640.57556,0.03186
6638.64684,0.03320
6636.71812,0.03281
6634.78940,0.03338
6632.86068,0.03271
6630.93197,0.02919
6629.00325,0.02646
6627.07453,0.02693
6625.14581,0.02816
6623.21710,0.02989
6621.28838,0.03333
6619.35966,0.03487
6617.43094,0.03195
6615.50222,0.02822
6613.57351,0.02761
6611.64479,0.03075
6609.71607,0.03480
6607.78735,0.03607
6605.85863,0.03507
6603.92992,0.03578
6602.00120,0.03796
6600.07248,0.03798
6598.14376,0.03426
6596.21505,0.02958
6594.28633,0.02767
6592.35761,0.02870
6590.42889,0.03075
6588.50017,0.03239
6586.57146,0.03293
6584.64274,0.03153
6582.71402,0.02781
6580.78530,0.02548
6578.85659,0.02762
6576.92787,0.03031
6574.99915,0.03014
6573.07043,0.03155
6571.14171,0.03609
6569.21300,0.03901
6567.28428,0.03780
6565.35556,0.03508
6563.42684,0.03300
6561.49812,0.03094
6559.56941,0.02976
6557.64069,0.03164
6555.71197,0.03486
6553.78325,0.03562
6551.85454,0.03428
6549.92582,0.03418
6547.99710,0.03453
6546.06838,0.03338
6544.13966,0.03120
6542.21095,0.02865
6540.28223,0.02554
6538.35351,0.02323
6536.42479,0.02432
6534.49607,0.02907
6532.56736,0.03235
6530.63864,0.03121
6528.70992,0.03080
6526.78120,0.03359
6524.85249,0.03405
6522.92377,0.03086
6520.99505,0.02782
6519.06633,0.02718
6517.13761,0.02857
6515.20890,0.03075
6513.28018,0.03255
6511.35146,0.03401
6509.42274,0.03559
6507.49402,0.03624
6505.56531,0.03499
6503.63659,0.03268
6501.70787,0.03184
6499.77915,0.03323
6497.85044,0.03444
6495.92172,0.03427
6493.99300,0.03272
6492.06428,0.03104
6490.13556,0.03112
6488.20685,0.03198
6486.27813,0.03093
6484.34941,0.02974
6482.42069,0.03005
6480.49197,0.03061
6478.56326,0.03133
6476.63454,0.03274
6474.70582,0.03357
6472.77710,0.03357
6470.84839,0.03320
6468.91967,0.03297
6466.99095,0.03369
6465.06223,0.03528
6463.13351,0.03620
6461.20480,0.03693
6459.27608,0.03796
6457.34736,0.03690
6455.41864,0.03477
6453.48992,0.03347
6451.56121,0.03102
6449.63249,0.02798
6447.70377,0.02681
6445.77505,0.02755
6443.84634,0.02933
6441.91762,0.03054
6439.98890,0.03040
6438.06018,0.03021
6436.13146,0.02995
6434.20275,0.02990
6432.27403,0.03082
6430.34531,0.03294
6428.41659,0.03650
6426.48787,0.03862
6424.55916,0.03601
6422.63044,0.03272
6420.70172,0.03336
6418.77300,0.03438
6416.84429,0.03199
6414.91557,0.02971
6412.98685,0.03078
6411.05813,0.03250
6409.12941,0.03185
6407.20070,0.03067
6405.27198,0.03142
6403.34326,0.03295
6401.41454,0.03230
6399.48583,0.02908
6397.55711,0.02683
6395.62839,0.02779
6393.69967,0.02963
6391.77095,0.02969
6389.84224,0.02806
6387.91352,0.02701
6385.98480,0.02808
6384.05608,0.02916
6382.12736,0.02764
6380.19865,0.02605
6378.26993,0.02687
6376.34121,0.02892
6374.41249,0.03088
6372.48378,0.03248
6370.55506,0.03330
6368.62634,0.03276
6366.69762,0.02975
6364.76890,0.02679
6362.84019,0.02761
6360.91147,0.03087
6358.98275,0.03180
6357.05403,0.02984
6355.12531,0.02872
6353.19660,0.03012
6351.26788,0.03044
6349.33916,0.02835
6347.41044,0.02737
6345.48173,0.02817
6343.55301,0.02912
6341.62429,0.03007
6339.69557,0.03017
6337.76685,0.03008
6335.83814,0.03142
6333.90942,0.03292
6331.98070,0.03229
6330.05198,0.02975
6328.12326,0.02681
6326.19455,0.02491
6324.26583,0.02509
6322.33711,0.02677
6320.40839,0.02736
6318.47968,0.02620
6316.55096,0.02583
6314.62224,0.02819
6312.69352,0.03137
6310.76480,0.03322
6308.83609,0.03400
6306.90737,0.03404
6304.97865,0.03187
6303.04993,0.02914
6301.12121,0.02843
6299.19250,0.02931
6297.26378,0.03026
6295.33506,0.03147
6293.40634,0.03282
6291.47763,0.03328
6289.54891,0.03239
6287.62019,0.03145
6285.69147,0.03131
6283.76275,0.03252
6281.83404,0.03447
6279.90532,0.03493
6277.97660,0.03355
6276.04788,0.03158
6274.11916,0.02955
6272.19045,0.02888
6270.26173,0.02985
6268.33301,0.03157
6266.40429,0.03314
6264.47558,0.03290
6262.54686,0.03116
6260.61814,0.02955
6258.68942,0.02755
6256.76070,0.02690
6254.83199,0.02897
6252.90327,0.02972
6250.97455,0.02806
6249.04583,0.02908
6247.11711,0.03311
6245.18840,0.03556
6243.25968,0.03479
6241.33096,0.03299
6239.40224,0.03142
6237.47353,0.03008
6235.54481,0.02974
6233.61609,0.03057
6231.68737,0.03193
6229.75865,0.03332
6227.82994,0.03297
6225.90122,0.03031
6223.97250,0.02839
6222.04378,0.02931
6220.11506,0.03154
6218.18635,0.03309
6216.25763,0.03272
6214.32891,0.03030
6212.40019,0.02753
6210.47148,0.02645
6208.54276,0.02802
6206.61404,0.03190
6204.68532,0.03497
6202.75660,0.03409
6200.82789,0.03072
6198.89917,0.02842
6196.97045,0.02813
6195.04173,0.02939
6193.11302,0.03065
6191.18430,0.03050
6189.25558,0.02946
6187.32686,0.02900
6185.39814,0.03004
6183.46943,0.03187
6181.54071,0.03151
6179.61199,0.02886
6177.68327,0.02708
6175.75455,0.02704
6173.82584,0.02694
6171.89712,0.02645
6169.96840,0.02711
6168.03968,0.02901
6166.11097,0.02943
6164.18225,0.02883
6162.25353,0.02977
6160.32481,0.03139
6158.39609,0.03175
6156.46738,0.03071
6154.53866,0.02881
6152.60994,0.02733
6150.68122,0.02685
6148.75250,0.02684
6146.82379,0.02723
6144.89507,0.02881
6142.96635,0.03037
6141.03763,0.03106
6139.10892,0.03143
6137.18020,0.03108
6135.25148,0.03047
6133.32276,0.03086
6131.39404,0.03159
6129.46533,0.03085
6127.53661,0.02880
6125.60789,0.02817
6123.67917,0.02931
6121.75045,0.02971
6119.82174,0.02955
6117.89302,0.03016
6115.96430,0.02951
6114.03558,0.02717
6112.10687,0.02703
6110.17815,0.02956
6108.24943,0.03103
6106.32071,0.03085
6104.39199,0.03074
6102.46328,0.03080
6100.53456,0.03041
6098.60584,0.02936
6096.67712,0.02780
6094.74840,0.02615
6092.81969,0.02404
6090.89097,0.02296
6088.96225,0.02405
6087.03353,0.02547
6085.10482,0.02651
6083.17610,0.02788
6081.24738,0.02857
6079.31866,0.02954
6077.38994,0.03211
6075.46123,0.03454
6073.53251,0.03437
6071.60379,0.03224
6069.67507,0.02992
6067.74635,0.02810
6065.81764,0.02764
6063.88892,0.02911
6061.96020,0.03032
6060.03148,0.02997
6058.10277,0.03040
6056.17405,0.03225
6054.24533,0.03226
6052.31661,0.02985
6050.38789,0.02891
6048.45918,0.03107
6046.53046,0.03212
6044.60174,0.02993
6042.67302,0.02813
6040.74430,0.02895
6038.81559,0.02995
6036.88687,0.02903
6034.95815,0.02747
6033.02943,0.02763
6031.10072,0.02893
6029.17200,0.02915
6027.24328,0.02878
6025.31456,0.02914
6023.38584,0.02929
6021.45713,0.02960
6019.52841,0.03049
6017.59969,0.02980
6015.67097,0.02797
6013.74226,0.02777
6011.81354,0.02915
6009.88482,0.03006
6007.95610,0.02989
6006.02738,0.03028
6004.09867,0.03129
6002.16995,0.03165
6000.24123,0.03170
5998.31251,0.03139
5996.38379,0.02999
5994.45508,0.02876
5992.52636,0.02867
5990.59764,0.02896
5988.66892,0.02882
5986.74021,0.02879
5984.81149,0.02964
5982.88277,0.02974
5980.95405,0.02688
5979.02533,0.02370
5977.09662,0.02424
5975.16790,0.02717
5973.23918,0.02927
5971.31046,0.03039
5969.38174,0.03018
5967.45303,0.02855
5965.52431,0.02799
5963.59559,0.02896
5961.66687,0.03017
5959.73816,0.03170
5957.80944,0.03248
5955.88072,0.03136
5953.95200,0.02894
5952.02328,0.02766
5950.09457,0.02905
5948.16585,0.03042
5946.23713,0.02990
5944.30841,0.02910
5942.37969,0.02840
5940.45098,0.02824
5938.52226,0.02940
5936.59354,0.03027
5934.66482,0.03006
5932.73611,0.03019
5930.80739,0.03061
5928.87867,0.03094
5926.94995,0.03110
5925.02123,0.03077
5923.09252,0.03063
5921.16380,0.03092
5919.23508,0.03083
5917.30636,0.03042
5915.37764,0.02992
5913.44893,0.02969
5911.52021,0.03113
5909.59149,0.03399
5907.66277,0.03517
5905.73406,0.03390
5903.80534,0.03266
5901.87662,0.03265
5899.94790,0.03263
5898.01918,0.03148
5896.09047,0.03023
5894.16175,0.03039
5892.23303,0.03098
5890.30431,0.03043
5888.37559,0.02931
5886.44688,0.02884
5884.51816,0.02877
5882.58944,0.02883
5880.66072,0.02925
5878.73201,0.03030
5876.80329,0.03122
5874.87457,0.03113
5872.94585,0.03097
5871.01713,0.03107
5869.08842,0.03043
5867.15970,0.03034
5865.23098,0.03148
5863.30226,0.03149
5861.37354,0.03021
5859.44483,0.02961
5857.51611,0.02900
5855.58739,0.02783
5853.65867,0.02784
5851.72996,0.02841
5849.80124,0.02766
5847.87252,0.02755
5845.94380,0.02986
5844.01508,0.03248
5842.08637,0.03291
5840.15765,0.03093
5838.22893,0.02912
5836.30021,0.02867
5834.37150,0.02763
5832.44278,0.02727
5830.51406,0.02917
5828.58534,0.03048
5826.65662,0.03045
5824.72791,0.03057
5822.79919,0.02997
5820.87047,0.02905
5818.94175,0.02989
5817.01303,0.03169
5815.08432,0.03235
5813.15560,0.03158
5811.22688,0.02980
5809.29816,0.02833
5807.36945,0.02840
5805.44073,0.02954
5803.51201,0.03026
5801.58329,0.02966
5799.65457,0.02850
5797.72586,0.02759
5795.79714,0.02759
5793.86842,0.02889
5791.93970,0.02987
5790.01098,0.02945
5788.08227,0.02840
5786.15355,0.02763
5784.22483,0.02798
5782.29611,0.02937
5780.36740,0.03042
5778.43868,0.03030
5776.50996,0.02938
5774.58124,0.02849
5772.65252,0.02844
5770.72381,0.03015
5768.79509,0.03192
5766.86637,0.03198
5764.93765,0.03170
5763.00893,0.03192
5761.08022,0.03134
5759.15150,0.02998
5757.22278,0.02929
5755.29406,0.02956
5753.36535,0.03036
5751.43663,0.03195
5749.50791,0.03307
5747.57919,0.03246
5745.65047,0.03121
5743.72176,0.03056
5741.79304,0.03010
5739.86432,0.02872
5737.93560,0.02698
5736.00688,0.02672
5734.07817,0.02782
5732.14945,0.02906
5730.22073,0.02972
5728.29201,0.02989
5726.36330,0.02998
5724.43458,0.02977
5722.50586,0.02935
5720.57714,0.02938
5718.64842,0.02963
5716.71971,0.02969
5714.79099,0.02894
5712.86227,0.02724
5710.93355,0.02614
5709.00483,0.02689
5707.07612,0.02796
5705.14740,0.02768
5703.21868,0.02677
5701.28996,0.02639
5699.36125,0.02721
5697.43253,0.02903
5695.50381,0.03040
5693.57509,0.03081
5691.64637,0.03031
5689.71766,0.02943
5687.78894,0.02953
5685.86022,0.03020
5683.93150,0.03044
5682.00278,0.03006
5680.07407,0.02937
5678.14535,0.02991
5676.21663,0.03185
5674.28791,0.03328
5672.35920,0.03340
5670.43048,0.03249
5668.50176,0.03106
5666.57304,0.02980
5664.64432,0.02837
5662.71561,0.02717
5660.78689,0.02726
5658.85817,0.02801
5656.92945,0.02826
5655.00074,0.02785
5653.07202,0.02780
5651.14330,0.02873
5649.21458,0.02963
5647.28586,0.03034
5645.35715,0.03128
5643.42843,0.03171
5641.49971,0.03062
5639.57099,0.02847
5637.64227,0.02735
5635.71356,0.02796
5633.78484,0.02895
5631.85612,0.02968
5629.92740,0.03070
5627.99869,0.03231
5626.06997,0.03322
5624.14125,0.03213
5622.21253,0.03013
5620.28381,0.02900
5618.35510,0.02856
5616.42638,0.02783
5614.49766,0.02730
5612.56894,0.02777
5610.64022,0.02891
5608.71151,0.03025
5606.78279,0.03080
5604.85407,0.02988
5602.92535,0.02923
5600.99664,0.03023
5599.06792,0.03104
5597.13920,0.03028
5595.21048,0.03003
5593.28176,0.03095
5591.35305,0.03056
5589.42433,0.02886
5587.49561,0.02794
5585.56689,0.02802
5583.63817,0.02878
5581.70946,0.03003
5579.78074,0.03077
5577.85202,0.03116
5575.92330,0.03228
5573.99459,0.03280
5572.06587,0.03129
5570.13715,0.02971
5568.20843,0.02946
5566.27971,0.02960
5564.35100,0.02955
5562.42228,0.02980
5560.49356,0.03037
5558.56484,0.03037
5556.63612,0.02957
5554.70741,0.02894
5552.77869,0.02905
5550.84997,0.02988
5548.92125,0.03076
5546.99254,0.03083
5545.06382,0.03027
5543.13510,0.02987
5541.20638,0.03007
5539.27766,0.03031
5537.34895,0.02982
5535.42023,0.02970
5533.49151,0.03083
5531.56279,0.03161
5529.63407,0.03125
5527.70536,0.03089
5525.77664,0.03078
5523.84792,0.03052
5521.91920,0.03060
5519.99049,0.03116
5518.06177,0.03113
5516.13305,0.02997
5514.20433,0.02869
5512.27561,0.02857
5510.34690,0.02918
5508.41818,0.02961
5506.48946,0.03024
5504.56074,0.03090
5502.63202,0.03089
5500.70331,0.03060
5498.77459,0.03037
5496.84587,0.03059
5494.91715,0.03132
5492.98844,0.03165
5491.05972,0.03163
5489.13100,0.03176
5487.20228,0.03143
5485.27356,0.03048
5483.34485,0.02935
5481.41613,0.02814
5479.48741,0.02749
5477.55869,0.02818
5475.62998,0.02918
5473.70126,0.02971
5471.77254,0.03049
5469.84382,0.03097
5467.91510,0.03066
5465.98639,0.03070
5464.05767,0.03103
5462.12895,0.03080
5460.20023,0.03023
5458.27151,0.03011
5456.34280,0.03041
5454.41408,0.03083
5452.48536,0.03083
5450.55664,0.02976
5448.62793,0.02856
5446.69921,0.02886
5444.77049,0.03063
5442.84177,0.03227
5440.91305,0.03223
5438.98434,0.03149
5437.05562,0.03170
5435.12690,0.03219
5433.19818,0.03178
5431.26946,0.03033
5429.34075,0.02802
5427.41203,0.02684
5425.48331,0.02811
5423.55459,0.02995
5421.62588,0.03071
5419.69716,0.03051
5417.76844,0.02987
5415.83972,0.02945
5413.91100,0.03025
5411.98229,0.03168
5410.05357,0.03152
5408.12485,0.03045
5406.19613,0.03034
5404.26741,0.03065
5402.33870,0.03030
5400.40998,0.02986
5398.48126,0.03036
5396.55254,0.03153
5394.62383,0.03182
5392.69511,0.03037
5390.76639,0.02857
5388.83767,0.02791
5386.90895,0.02792
5384.98024,0.02802
5383.05152,0.02808
5381.12280,0.02784
5379.19408,0.02770
5377.26536,0.02803
5375.33665,0.02850
5373.40793,0.02898
5371.47921,0.02916
5369.55049,0.02879
5367.62178,0.02845
5365.69306,0.02880
5363.76434,0.02924
5361.83562,0.02929
5359.90690,0.02990
5357.97819,0.03137
5356.04947,0.03251
5354.12075,0.03251
5352.19203,0.03186
5350.26331,0.03062
5348.33460,0.02900
5346.40588,0.02823
5344.47716,0.02829
5342.54844,0.02860
5340.61973,0.02900
5338.69101,0.02905
5336.76229,0.02911
5334.83357,0.03000
5332.90485,0.03100
5330.97614,0.03118
5329.04742,0.03081
5327.11870,0.03055
5325.18998,0.03025
5323.26126,0.02996
5321.33255,0.02995
5319.40383,0.03020
5317.47511,0.03044
5315.54639,0.03014
5313.61768,0.02981
5311.68896,0.02996
5309.76024,0.02965
5307.83152,0.02893
5305.90280,0.02890
5303.97409,0.02944
5302.04537,0.02981
5300.11665,0.02949
5298.18793,0.02889
5296.25922,0.02933
5294.33050,0.03030
5292.40178,0.03042
5290.47306,0.03005
5288.54434,0.03021
5286.61563,0.03058
5284.68691,0.03054
5282.75819,0.03016
5280.82947,0.02984
5278.90075,0.02983
5276.97204,0.02987
5275.04332,0.02983
5273.11460,0.03040
5271.18588,0.03122
5269.25717,0.03083
5267.32845,0.02951
5265.39973,0.02864
5263.47101,0.02896
5261.54229,0.02996
5259.61358,0.03004
5257.68486,0.02906
5255.75614,0.02857
5253.82742,0.02965
5251.89870,0.03074
5249.96999,0.03038
5248.04127,0.02978
5246.11255,0.02993
5244.18383,0.02950
5242.25512,0.02848
5240.32640,0.02825
5238.39768,0.02875
5236.46896,0.02930
5234.54024,0.02990
5232.61153,0.03019
5230.68281,0.02973
5228.75409,0.02915
5226.82537,0.02907
5224.89665,0.02909
5222.96794,0.02914
5221.03922,0.02965
5219.11050,0.03033
5217.18178,0.03027
5215.25307,0.02996
5213.32435,0.03083
5211.39563,0.03203
5209.46691,0.03160
5207.53819,0.02979
5205.60948,0.02875
5203.68076,0.02927
5201.75204,0.03013
5199.82332,0.03058
5197.89460,0.03065
5195.96589,0.03043
5194.03717,0.03031
5192.10845,0.03041
5190.17973,0.03004
5188.25102,0.02930
5186.32230,0.02922
5184.39358,0.02992
5182.46486,0.03061
5180.53614,0.03080
5178.60743,0.03051
5176.67871,0.03033
5174.74999,0.03057
5172.82127,0.03015
5170.89255,0.02849
5168.96384,0.02773
5167.03512,0.02940
5165.10640,0.03130
5163.17768,0.03136
5161.24897,0.03060
5159.32025,0.03016
5157.39153,0.02965
5155.46281,0.02914
5153.53409,0.02883
5151.60538,0.02847
5149.67666,0.02878
5147.74794,0.03013
5145.81922,0.03134
5143.89050,0.03151
5141.96179,0.03082
5140.03307,0.02997
5138.10435,0.02943
5136.17563,0.02907
5134.24692,0.02891
5132.31820,0.02916
5130.38948,0.02937
5128.46076,0.02904
5126.53204,0.02865
5124.60333,0.02900
5122.67461,0.03006
5120.74589,0.03058
5118.81717,0.02998
5116.88846,0.02951
5114.95974,0.02994
5113.03102,0.03019
5111.10230,0.02957
5109.17358,0.02879
5107.24487,0.02886
5105.31615,0.02993
5103.38743,0.03075
5101.45871,0.03027
5099.52999,0.02937
5097.60128,0.02903
5095.67256,0.02869
5093.74384,0.02791
5091.81512,0.02775
5089.88641,0.02865
5087.95769,0.02947
5086.02897,0.02996
5084.10025,0.03060
5082.17153,0.03090
5080.24282,0.03047
5078.31410,0.02998
5076.38538,0.02977
5074.45666,0.02920
5072.52794,0.02815
5070.59923,0.02764
5068.67051,0.02812
5066.74179,0.02879
5064.81307,0.02920
5062.88436,0.02958
5060.95564,0.02986
5059.02692,0.03004
5057.09820,0.03048
5055.16948,0.03112
5053.24077,0.03127
5051.31205,0.03077
5049.38333,0.03042
5047.45461,0.03018
5045.52589,0.02951
5043.59718,0.02876
5041.66846,0.02865
5039.73974,0.02935
5037.81102,0.02998
5035.88231,0.02964
5033.95359,0.02880
5032.02487,0.02845
5030.09615,0.02878
5028.16743,0.02907
5026.23872,0.02911
5024.31000,0.02947
5022.38128,0.02962
5020.45256,0.02885
5018.52384,0.02836
5016.59513,0.02903
5014.66641,0.03004
5012.73769,0.03044
5010.80897,0.03013
5008.88026,0.02971
5006.95154,0.02966
5005.02282,0.02980
5003.09410,0.03005
5001.16538,0.03026
4999.23667,0.03000
4997.30795,0.02945
4995.37923,0.02894
4993.45051,0.02882
4991.52179,0.02943
4989.59308,0.03000
4987.66436,0.02983
4985.73564,0.02950
4983.80692,0.02932
4981.87821,0.02916
4979.94949,0.02959
4978.02077,0.03053
4976.09205,0.03077
4974.16333,0.03002
4972.23462,0.02926
4970.30590,0.02955
4968.37718,0.03068
4966.44846,0.03107
4964.51974,0.03042
4962.59103,0.02970
4960.66231,0.02917
4958.73359,0.02882
4956.80487,0.02896
4954.87616,0.02961
4952.94744,0.02973
4951.01872,0.02893
4949.09000,0.02872
4947.16128,0.02925
4945.23257,0.02931
4943.30385,0.02939
4941.37513,0.02964
4939.44641,0.02929
4937.51769,0.02915
4935.58898,0.02991
4933.66026,0.03050
4931.73154,0.03014
4929.80282,0.02946
4927.87411,0.02943
4925.94539,0.03013
4924.01667,0.03041
4922.08795,0.03000
4920.15923,0.02995
4918.23052,0.03029
4916.30180,0.03037
4914.37308,0.03044
4912.44436,0.03071
4910.51565,0.03058
4908.58693,0.02985
4906.65821,0.02943
4904.72949,0.02961
4902.80077,0.02963
4900.87206,0.02929
4898.94334,0.02922
4897.01462,0.02941
4895.08590,0.02931
4893.15718,0.02927
4891.22847,0.02979
4889.29975,0.03005
4887.37103,0.02970
4885.44231,0.02952
4883.51360,0.02957
4881.58488,0.02966
4879.65616,0.03010
4877.72744,0.03080
4875.79872,0.03136
4873.87001,0.03145
4871.94129,0.03093
4870.01257,0.03023
4868.08385,0.02990
4866.15513,0.02982
4864.22642,0.02970
4862.29770,0.02968
4860.36898,0.03015
4858.44026,0.03075
4856.51155,0.03067
4854.58283,0.02996
4852.65411,0.02952
4850.72539,0.02989
4848.79667,0.03034
4846.86796,0.02991
4844.93924,0.02894
4843.01052,0.02843
4841.08180,0.02886
4839.15308,0.02964
4837.22437,0.03000
4835.29565,0.03010
4833.36693,0.03005
4831.43821,0.02970
4829.50950,0.02970
4827.58078,0.03015
4825.65206,0.03019
4823.72334,0.02945
4821.79462,0.02875
4819.86591,0.02900
4817.93719,0.02981
4816.00847,0.03010
4814.07975,0.02945
4812.15103,0.02826
4810.22232,0.02775
4808.29360,0.02844
4806.36488,0.02923
4804.43616,0.02927
4802.50745,0.02912
4800.57873,0.02944
4798.65001,0.02961
4796.72129,0.02902
4794.79257,0.02848
4792.86386,0.02885
4790.93514,0.02937
4789.00642,0.02934
4787.07770,0.02929
4785.14898,0.02928
4783.22027,0.02903
4781.29155,0.02882
4779.36283,0.02880
4777.43411,0.02896
4775.50540,0.02936
4773.57668,0.02976
4771.64796,0.02995
4769.71924,0.02997
4767.79052,0.02978
4765.86181,0.02943
4763.93309,0.02921
4762.00437,0.02924
4760.07565,0.02960
4758.14693,0.03026
4756.21822,0.03044
4754.28950,0.02965
4752.36078,0.02890
4750.43206,0.02868
4748.50335,0.02874
4746.57463,0.02917
4744.64591,0.02929
4742.71719,0.02881
4740.78847,0.02866
4738.85976,0.02883
4736.93104,0.02882
4735.00232,0.02882
4733.07360,0.02887
4731.14489,0.02891
4729.21617,0.02904
4727.28745,0.02915
4725.35873,0.02922
4723.43001,0.02941
4721.50130,0.02949
4719.57258,0.02915
4717.64386,0.02857
4715.71514,0.02846
4713.78642,0.02895
4711.85771,0.02925
4709.92899,0.02915
4708.00027,0.02912
4706.07155,0.02923
4704.14284,0.02938
4702.21412,0.02967
4700.28540,0.02995
4698.35668,0.03005
4696.42796,0.03007
4694.49925,0.02997
4692.57053,0.02977
4690.64181,0.02988
4688.71309,0.03039
4686.78437,0.03062
4684.85566,0.03027
4682.92694,0.02997
4680.99822,0.02989
4679.06950,0.02958
4677.14079,0.02924
4675.21207,0.02943
4673.28335,0.02986
4671.35463,0.03002
4669.42591,0.03022
4667.49720,0.03050
4665.56848,0.03023
4663.63976,0.02950
4661.71104,0.02910
4659.78232,0.02931
4657.85361,0.02969
4655.92489,0.02989
4653.99617,0.02994
4652.06745,0.03003
4650.13874,0.02995
4648.21002,0.02967
4646.28130,0.02948
4644.35258,0.02936
4642.42386,0.02927
4640.49515,0.02916
4638.56643,0.02886
4636.63771,0.02860
4634.70899,0.02865
4632.78027,0.02901
4630.85156,0.02948
4628.92284,0.02987
4626.99412,0.03022
4625.06540,0.03051
4623.13669,0.03062
4621.20797,0.03048
4619.27925,0.02989
4617.35053,0.02899
4615.42181,0.02849
4613.49310,0.02898
4611.56438,0.02977
4609.63566,0.02979
4607.70694,0.02956
4605.77822,0.02957
4603.84951,0.02925
4601.92079,0.02870
4599.99207,0.02854
4598.06335,0.02906
4596.13464,0.02977
4594.20592,0.03005
4592.27720,0.02997
4590.34848,0.02974
4588.41976,0.02944
4586.49105,0.02924
4584.56233,0.02914
4582.63361,0.02889
4580.70489,0.02835
4578.77617,0.02814
4576.84746,0.02859
4574.91874,0.02908
4572.99002,0.02940
4571.06130,0.02969
4569.13259,0.02965
4567.20387,0.02945
4565.27515,0.02963
4563.34643,0.03016
4561.41771,0.03059
4559.48900,0.03073
4557.56028,0.03050
4555.63156,0.02997
4553.70284,0.02947
4551.77413,0.02913
4549.84541,0.02893
4547.91669,0.02910
4545.98797,0.02960
4544.05925,0.02985
4542.13054,0.02951
4540.20182,0.02900
4538.27310,0.02881
4536.34438,0.02875
4534.41566,0.02849
4532.48695,0.02848
4530.55823,0.02900
4528.62951,0.02950
4526.70079,0.02964
4524.77208,0.02959
4522.84336,0.02948
4520.91464,0.02950
4518.98592,0.02971
4517.05720,0.02983
4515.12849,0.02985
4513.19977,0.02999
4511.27105,0.02997
4509.34233,0.02949
4507.41361,0.02885
4505.48490,0.02855
4503.55618,0.02892
4501.62746,0.02972
4499.69874,0.03017
4497.77003,0.03006
4495.84131,0.02986
4493.91259,0.02978
4491.98387,0.02954
4490.05515,0.02919
4488.12644,0.02918
4486.19772,0.02951
4484.26900,0.02975
4482.34028,0.02960
4480.41156,0.02913
4478.48285,0.02881
4476.55413,0.02901
4474.62541,0.02955
4472.69669,0.02982
4470.76798,0.02969
4468.83926,0.02939
4466.91054,0.02904
4464.98182,0.02882
4463.05310,0.02863
4461.12439,0.02825
4459.19567,0.02804
4457.26695,0.02849
4455.33823,0.02927
4453.40951,0.02948
4451.48080,0.02916
4449.55208,0.02899
4447.62336,0.02922
4445.69464,0.02966
4443.76593,0.02988
4441.83721,0.02961
4439.90849,0.02939
4437.97977,0.02951
4436.05105,0.02944
4434.12234,0.02917
4432.19362,0.02893
4430.26490,0.02883
4428.33618,0.02919
4426.40746,0.02984
4424.47875,0.02990
4422.55003,0.02925
4420.62131,0.02886
4418.69259,0.02919
4416.76388,0.02963
4414.83516,0.02962
4412.90644,0.02922
4410.97772,0.02906
4409.04900,0.02951
4407.12029,0.03008
4405.19157,0.03019
4403.26285,0.02983
4401.33413,0.02937
4399.40541,0.02923
4397.47670,0.02932
4395.54798,0.02910
4393.61926,0.02868
4391.69054,0.02846
4389.76183,0.02850
4387.83311,0.02873
4385.90439,0.02901
4383.97567,0.02921
4382.04695,0.02917
4380.11824,0.02887
4378.18952,0.02871
4376.26080,0.02881
4374.33208,0.02903
4372.40337,0.02950
4370.47465,0.02998
4368.54593,0.02996
4366.61721,0.02956
4364.68849,0.02927
4362.75978,0.02920
4360.83106,0.02919
4358.90234,0.02922
4356.97362,0.02928
4355.04490,0.02920
4353.11619,0.02899
4351.18747,0.02892
4349.25875,0.02897
4347.33003,0.02883
4345.40132,0.02847
4343.47260,0.02828
4341.54388,0.02852
4339.61516,0.02889
4337.68644,0.02909
4335.75773,0.02920
4333.82901,0.02927
4331.90029,0.02922
4329.97157,0.02915
4328.04285,0.02903
4326.11414,0.02876
4324.18542,0.02884
4322.25670,0.02947
4320.32798,0.02960
4318.39927,0.02900
4316.47055,0.02886
4314.54183,0.02924
4312.61311,0.02923
4310.68439,0.02888
4308.75568,0.02886
4306.82696,0.02923
4304.89824,0.02941
4302.96952,0.02935
4301.04080,0.02942
4299.11209,0.02953
4297.18337,0.02953
4295.25465,0.02949
4293.32593,0.02933
4291.39722,0.02906
4289.46850,0.02886
4287.53978,0.02896
4285.61106,0.02940
4283.68234,0.02973
4281.75363,0.02961
4279.82491,0.02935
4277.89619,0.02911
4275.96747,0.02875
4274.03875,0.02846
4272.11004,0.02855
4270.18132,0.02895
4268.25260,0.02934
4266.32388,0.02974
4264.39517,0.03007
4262.46645,0.02995
4260.53773,0.02977
4258.60901,0.02986
4256.68029,0.02958
4254.75158,0.02913
4252.82286,0.02917
4250.89414,0.02945
4248.96542,0.02957
4247.03670,0.02952
4245.10799,0.02945
4243.17927,0.02930
4241.25055,0.02889
4239.32183,0.02874
4237.39312,0.02924
4235.46440,0.02992
4233.53568,0.03048
4231.60696,0.03072
4229.67824,0.03052
4227.74953,0.03026
4225.82081,0.03020
4223.89209,0.03021
4221.96337,0.03003
4220.03465,0.02964
4218.10594,0.02938
4216.17722,0.02939
4214.24850,0.02947
4212.31978,0.02957
4210.39107,0.02957
4208.46235,0.02935
4206.53363,0.02922
4204.60491,0.02938
4202.67619,0.02950
4200.74748,0.02941
4198.81876,0.02930
4196.89004,0.02925
4194.96132,0.02935
4193.03261,0.02971
4191.10389,0.02987
4189.17517,0.02956
4187.24645,0.02924
4185.31773,0.02914
4183.38902,0.02904
4181.46030,0.02895
4179.53158,0.02902
4177.60286,0.02918
4175.67414,0.02920
4173.74543,0.02907
4171.81671,0.02896
4169.88799,0.02900
4167.95927,0.02924
4166.03056,0.02938
4164.10184,0.02923
4162.17312,0.02920
4160.24440,0.02925
4158.31568,0.02906
4156.38697,0.02896
4154.45825,0.02918
4152.52953,0.02928
4150.60081,0.02906
4148.67209,0.02895
4146.74338,0.02914
4144.81466,0.02934
4142.88594,0.02938
4140.95722,0.02935
4139.02851,0.02950
4137.09979,0.02980
4135.17107,0.02973
4133.24235,0.02918
4131.31363,0.02893
4129.38492,0.02912
4127.45620,0.02921
4125.52748,0.02919
4123.59876,0.02905
4121.67004,0.02891
4119.74133,0.02902
4117.81261,0.02910
4115.88389,0.02883
4113.95517,0.02850
4112.02646,0.02849
4110.09774,0.02871
4108.16902,0.02889
4106.24030,0.02905
4104.31158,0.02910
4102.38287,0.02893
4100.45415,0.02905
4098.52543,0.02953
4096.59671,0.02970
4094.66799,0.02954
4092.73928,0.02946
4090.81056,0.02936
4088.88184,0.02918
4086.95312,0.02909
4085.02441,0.02901
4083.09569,0.02907
4081.16697,0.02946
4079.23825,0.02969
4077.30953,0.02935
4075.38082,0.02891
4073.45210,0.02885
4071.52338,0.02902
4069.59466,0.02919
4067.66594,0.02953
4065.73723,0.02988
4063.80851,0.02978
4061.87979,0.02961
4059.95107,0.02994
4058.02236,0.03022
4056.09364,0.02992
4054.16492,0.02962
4052.23620,0.02986
4050.30748,0.03014
4048.37877,0.02980
4046.45005,0.02934
4044.52133,0.02931
4042.59261,0.02926
4040.66389,0.02907
4038.73518,0.02922
4036.80646,0.02950
4034.87774,0.02942
4032.94902,0.02923
4031.02031,0.02916
4029.09159,0.02897
4027.16287,0.02881
4025.23415,0.02893
4023.30543,0.02908
4021.37672,0.02920
4019.44800,0.02941
4017.51928,0.02961
4015.59056,0.02968
4013.66185,0.02955
4011.73313,0.02920
4009.80441,0.02892
4007.87569,0.02910
4005.94697,0.02946
4004.01826,0.02955
4002.08954,0.02953
4000.16082,0.02968
3998.23210,0.02988
3996.30338,0.02996
3994.37467,0.02986
3992.44595,0.02985
3990.51723,0.03004
3988.58851,0.02997
3986.65980,0.02948
3984.73108,0.02908
3982.80236,0.02899
3980.87364,0.02911
3978.94492,0.02939
3977.01621,0.02965
3975.08749,0.02960
3973.15877,0.02946
3971.23005,0.02952
3969.30133,0.02958
3967.37262,0.02951
3965.44390,0.02931
3963.51518,0.02894
3961.58646,0.02865
3959.65775,0.02881
3957.72903,0.02925
3955.80031,0.02942
3953.87159,0.02939
3951.94287,0.02950
3950.01416,0.02961
3948.08544,0.02948
3946.15672,0.02940
3944.22800,0.02939
3942.29928,0.02919
3940.37057,0.02905
3938.44185,0.02901
3936.51313,0.02897
3934.58441,0.02909
3932.65570,0.02941
3930.72698,0.02978
3928.79826,0.03010
3926.86954,0.03006
3924.94082,0.02953
3923.01211,0.02919
3921.08339,0.02943
3919.15467,0.02963
3917.22595,0.02942
3915.29723,0.02908
3913.36852,0.02898
3911.43980,0.02922
3909.51108,0.02974
3907.58236,0.03045
3905.65365,0.03098
3903.72493,0.03065
3901.79621,0.02974
3899.86749,0.02916
3897.93877,0.02909
3896.01006,0.02941
3894.08134,0.02976
3892.15262,0.02974
3890.22390,0.02972
3888.29518,0.03004
3886.36647,0.02985
3884.43775,0.02912
3882.50903,0.02926
3880.58031,0.03017
3878.65160,0.03063
3876.72288,0.03029
3874.79416,0.02968
3872.86544,0.02941
3870.93672,0.02941
3869.00801,0.02949
3867.07929,0.02961
3865.15057,0.02940
3863.22185,0.02885
3861.29313,0.02865
3859.36442,0.02898
3857.43570,0.02939
3855.50698,0.02957
3853.57826,0.02952
3851.64955,0.02955
3849.72083,0.02982
3847.79211,0.03011
3845.86339,0.03015
3843.93467,0.02983
3842.00596,0.02969
3840.07724,0.02982
3838.14852,0.02937
3836.21980,0.02896
3834.29109,0.02928
3832.36237,0.02947
3830.43365,0.02933
3828.50493,0.02924
3826.57621,0.02941
3824.64750,0.02983
3822.71878,0.03009
3820.79006,0.02979
3818.86134,0.02968
3816.93262,0.02992
3815.00391,0.03031
3813.07519,0.03072
3811.14647,0.03080
3809.21775,0.03057
3807.28904,0.03018
3805.36032,0.03002
3803.43160,0.03017
3801.50288,0.03023
3799.57416,0.03003
3797.64545,0.02967
3795.71673,0.02920
3793.78801,0.02906
3791.85929,0.02940
3789.93057,0.02978
3788.00186,0.02973
3786.07314,0.02934
3784.14442,0.02910
3782.21570,0.02920
3780.28699,0.02912
3778.35827,0.02869
3776.42955,0.02861
3774.50083,0.02901
3772.57211,0.02940
3770.64340,0.02941
3768.71468,0.02944
3766.78596,0.02965
3764.85724,0.02958
3762.92852,0.02945
3760.99981,0.02953
3759.07109,0.02973
3757.14237,0.02987
3755.21365,0.02987
3753.28494,0.02951
3751.35622,0.02855
3749.42750,0.02815
3747.49878,0.02872
3745.57006,0.02928
3743.64135,0.02978
3741.71263,0.03032
3739.78391,0.03074
3737.85519,0.03075
3735.92647,0.02996
3733.99776,0.02919
3732.06904,0.02920
3730.14032,0.02933
3728.21160,0.02942
3726.28289,0.02955
3724.35417,0.02961
3722.42545,0.02943
3720.49673,0.02925
3718.56801,0.02939
3716.63930,0.02962
3714.71058,0.02972
3712.78186,0.02973
3710.85314,0.02964
3708.92442,0.02954
3706.99571,0.02958
3705.06699,0.02948
3703.13827,0.02895
3701.20955,0.02832
3699.28084,0.02830
3697.35212,0.02858
3695.42340,0.02875
3693.49468,0.02896
3691.56596,0.02937
3689.63725,0.02925
3687.70853,0.02842
3685.77981,0.02808
3683.85109,0.02837
3681.92237,0.02906
3679.99366,0.02990
3678.06494,0.03058
3676.13622,0.03077
3674.20750,0.03036
3672.27879,0.03003
3670.35007,0.02943
3668.42135,0.02850
3666.49263,0.02829
3664.56391,0.02838
3662.63520,0.02819
3660.70648,0.02792
3658.77776,0.02782
3656.84904,0.02768
3654.92033,0.02786
3652.99161,0.02873
3651.06289,0.02964
3649.13417,0.02930
3647.20545,0.02834
3645.27674,0.02823
3643.34802,0.02835
3641.41930,0.02842
3639.49058,0.02847
3637.56186,0.02830
3635.63315,0.02789
3633.70443,0.02784
3631.77571,0.02845
3629.84699,0.02906
3627.91828,0.02881
3625.98956,0.02839
3624.06084,0.02834
3622.13212,0.02837
3620.20340,0.02790
3618.27469,0.02754
3616.34597,0.02845
3614.41725,0.02931
3612.48853,0.02929
3610.55981,0.02905
3608.63110,0.02837
3606.70238,0.02737
3604.77366,0.02706
3602.84494,0.02724
3600.91623,0.02736
3598.98751,0.02717
3597.05879,0.02687
3595.13007,0.02690
3593.20135,0.02739
3591.27264,0.02791
3589.34392,0.02807
3587.41520,0.02760
3585.48648,0.02700
3583.55776,0.02704
3581.62905,0.02731
3579.70033,0.02719
3577.77161,0.02693
3575.84289,0.02695
3573.91418,0.02686
3571.98546,0.02662
3570.05674,0.02671
3568.12802,0.02700
3566.19930,0.02711
3564.27059,0.02717
3562.34187,0.02710
3560.41315,0.02702
3558.48443,0.02702
3556.55571,0.02673
3554.62700,0.02629
3552.69828,0.02627
3550.76956,0.02649
3548.84084,0.02639
3546.91213,0.02632
3544.98341,0.02689
3543.05469,0.02743
3541.12597,0.02729
3539.19725,0.02680
3537.26854,0.02640
3535.33982,0.02641
3533.41110,0.02671
3531.48238,0.02672
3529.55366,0.02636
3527.62495,0.02619
3525.69623,0.02623
3523.76751,0.02617
3521.83879,0.02612
3519.91008,0.02617
3517.98136,0.02624
3516.05264,0.02624
3514.12392,0.02617
3512.19520,0.02619
3510.26649,0.02642
3508.33777,0.02667
3506.40905,0.02674
3504.48033,0.02660
3502.55161,0.02642
3500.62290,0.02657
3498.69418,0.02686
3496.76546,0.02671
3494.83674,0.02626
3492.90803,0.02610
3490.97931,0.02609
3489.05059,0.02582
3487.12187,0.02562
3485.19315,0.02593
3483.26444,0.02661
3481.33572,0.02710
3479.40700,0.02688
3477.47828,0.02630
3475.54956,0.02584
3473.62085,0.02551
3471.69213,0.02553
3469.76341,0.02599
3467.83469,0.02621
3465.90598,0.02581
3463.97726,0.02527
3462.04854,0.02505
3460.11982,0.02524
3458.19110,0.02568
3456.26239,0.02609
3454.33367,0.02625
3452.40495,0.02618
3450.47623,0.02615
3448.54752,0.02617
3446.61880,0.02594
3444.69008,0.02558
3442.76136,0.02537
3440.83264,0.02533
3438.90393,0.02549
3436.97521,0.02562
3435.04649,0.02552
3433.11777,0.02565
3431.18905,0.02611
3429.26034,0.02620
3427.33162,0.02581
3425.40290,0.02541
3423.47418,0.02507
3421.54547,0.02488
3419.61675,0.02502
3417.68803,0.02553
3415.75931,0.02616
3413.83059,0.02627
3411.90188,0.02576
3409.97316,0.02541
3408.04444,0.02545
3406.11572,0.02550
3404.18700,0.02544
3402.25829,0.02543
3400.32957,0.02543
3398.40085,0.02529
3396.47213,0.02502
3394.54342,0.02489
3392.61470,0.02505
3390.68598,0.02522
3388.75726,0.02529
3386.82854,0.02548
3384.89983,0.02574
3382.97111,0.02613
3381.04239,0.02655
3379.11367,0.02640
3377.18495,0.02594
3375.25624,0.02580
3373.32752,0.02576
3371.39880,0.02570
3369.47008,0.02578
3367.54137,0.02578
3365.61265,0.02561
3363.68393,0.02563
3361.75521,0.02593
3359.82649,0.02603
3357.89778,0.02586
3355.96906,0.02594
3354.04034,0.02625
3352.11162,0.02621
3350.18290,0.02579
3348.25419,0.02559
3346.32547,0.02570
3344.39675,0.02576
3342.46803,0.02560
3340.53932,0.02521
3338.61060,0.02491
3336.68188,0.02488
3334.75316,0.02502
3332.82444,0.02523
3330.89573,0.02528
3328.96701,0.02530
3327.03829,0.02559
3325.10957,0.02591
3323.18085,0.02589
3321.25214,0.02562
3319.32342,0.02533
3317.39470,0.02513
3315.46598,0.02522
3313.53727,0.02550
3311.60855,0.02566
3309.67983,0.02567
3307.75111,0.02558
3305.82239,0.02534
3303.89368,0.02484
3301.96496,0.02448
3300.03624,0.02468
3298.10752,0.02519
3296.17880,0.02569
3294.25009,0.02624
3292.32137,0.02674
3290.39265,0.02680
3288.46393,0.02645
3286.53522,0.02630
3284.60650,0.02635
3282.67778,0.02599
3280.74906,0.02535
3278.82034,0.02522
3276.89163,0.02575
3274.96291,0.02639
3273.03419,0.02655
3271.10547,0.02626
3269.17676,0.02611
3267.24804,0.02618
3265.31932,0.02634
3263.39060,0.02641
3261.46188,0.02610
3259.53317,0.02574
3257.60445,0.02574
3255.67573,0.02584
3253.74701,0.02582
3251.81829,0.02584
3249.88958,0.02597
3247.96086,0.02615
3246.03214,0.02634
3244.10342,0.02650
3242.17471,0.02661
3240.24599,0.02673
3238.31727,0.02683
3236.38855,0.02682
3234.45983,0.02659
3232.53112,0.02635
3230.60240,0.02639
3228.67368,0.02662
3226.74496,0.02668
3224.81624,0.02624
3222.88753,0.02558
3220.95881,0.02533
3219.03009,0.02565
3217.10137,0.02621
3215.17266,0.02667
3213.24394,0.02680
3211.31522,0.02667
3209.38650,0.02634
3207.45778,0.02573
3205.52907,0.02511
3203.60035,0.02530
3201.67163,0.02609
3199.74291,0.02651
3197.81419,0.02652
3195.88548,0.02647
3193.95676,0.02627
3192.02804,0.02600
3190.09932,0.02586
3188.17061,0.02577
3186.24189,0.02591
3184.31317,0.02637
3182.38445,0.02672
3180.45573,0.02661
3178.52702,0.02615
3176.59830,0.02557
3174.66958,0.02501
3172.74086,0.02492
3170.81214,0.02550
3168.88343,0.02602
3166.95471,0.02603
3165.02599,0.02588
3163.09727,0.02589
3161.16856,0.02605
3159.23984,0.02628
3157.31112,0.02644
3155.38240,0.02641
3153.45368,0.02621
3151.52497,0.02602
3149.59625,0.02611
3147.66753,0.02633
3145.73881,0.02638
3143.81009,0.02614
3141.88138,0.02574
3139.95266,0.02560
3138.02394,0.02597
3136.09522,0.02646
3134.16651,0.02656
3132.23779,0.02645
3130.30907,0.02645
3128.38035,0.02637
3126.45163,0.02622
3124.52292,0.02625
3122.59420,0.02639
3120.66548,0.02650
3118.73676,0.02662
3116.80804,0.02669
3114.87933,0.02652
3112.95061,0.02639
3111.02189,0.02653
3109.09317,0.02663
3107.16446,0.02657
3105.23574,0.02651
3103.30702,0.02641
3101.37830,0.02633
3099.44958,0.02637
3097.52087,0.02639
3095.59215,0.02639
3093.66343,0.02651
3091.73471,0.02660
3089.80600,0.02628
3087.87728,0.02572
3085.94856,0.02552
3084.01984,0.02581
3082.09112,0.02626
3080.16241,0.02655
3078.23369,0.02651
3076.30497,0.02634
3074.37625,0.02635
3072.44753,0.02637
3070.51882,0.02628
3068.59010,0.02626
3066.66138,0.02626
3064.73266,0.02602
3062.80395,0.02596
3060.87523,0.02641
3058.94651,0.02670
3057.01779,0.02648
3055.08907,0.02624
3053.16036,0.02624
3051.23164,0.02619
3049.30292,0.02600
3047.37420,0.02589
3045.44548,0.02591
3043.51677,0.02595
3041.58805,0.02604
3039.65933,0.02619
3037.73061,0.02633
3035.80190,0.02632
3033.87318,0.02622
3031.94446,0.02629
3030.01574,0.02637
3028.08702,0.02614
3026.15831,0.02589
3024.22959,0.02603
3022.30087,0.02639
3020.37215,0.02647
3018.44343,0.02630
3016.51472,0.02642
3014.58600,0.02703
3012.65728,0.02735
3010.72856,0.02697
3008.79985,0.02641
3006.87113,0.02609
3004.94241,0.02603
3003.01369,0.02617
3001.08497,0.02634
2999.15626,0.02629
2997.22754,0.02619
2995.29882,0.02625
2993.37010,0.02622
2991.44138,0.02590
2989.51267,0.02562
2987.58395,0.02553
2985.65523,0.02525
2983.72651,0.02490
2981.79780,0.02509
2979.86908,0.02557
2977.94036,0.02565
2976.01164,0.02539
2974.08292,0.02527
2972.15421,0.02532
2970.22549,0.02531
2968.29677,0.02518
2966.36805,0.02504
2964.43933,0.02507
2962.51062,0.02525
2960.58190,0.02544
2958.65318,0.02562
2956.72446,0.02573
2954.79575,0.02561
2952.86703,0.02539
2950.93831,0.02546
2949.00959,0.02568
2947.08087,0.02554
2945.15216,0.02511
2943.22344,0.02492
2941.29472,0.02490
2939.36600,0.02490
2937.43728,0.02511
2935.50857,0.02534
2933.57985,0.02531
2931.65113,0.02527
2929.72241,0.02533
2927.79370,0.02528
2925.86498,0.02530
2923.93626,0.02557
2922.00754,0.02573
2920.07882,0.02554
2918.15011,0.02537
2916.22139,0.02547
2914.29267,0.02567
2912.36395,0.02578
2910.43524,0.02588
2908.50652,0.02609
2906.57780,0.02632
2904.64908,0.02650
2902.72036,0.02656
2900.79165,0.02649
2898.86293,0.02627
2896.93421,0.02598
2895.00549,0.02589
2893.07677,0.02604
2891.14806,0.02612
2889.21934,0.02599
2887.29062,0.02580
2885.36190,0.02584
2883.43319,0.02610
2881.50447,0.02616
2879.57575,0.02591
2877.64703,0.02580
2875.71831,0.02589
2873.78960,0.02589
2871.86088,0.02583
2869.93216,0.02592
2868.00344,0.02598
2866.07472,0.02583
2864.14601,0.02565
2862.21729,0.02563
2860.28857,0.02585
2858.35985,0.02615
2856.43114,0.02622
2854.50242,0.02607
2852.57370,0.02592
2850.64498,0.02590
2848.71626,0.02597
2846.78755,0.02588
2844.85883,0.02575
2842.93011,0.02597
2841.00139,0.02650
2839.07267,0.02681
2837.14396,0.02669
2835.21524,0.02638
2833.28652,0.02621
2831.35780,0.02624
2829.42909,0.02646
2827.50037,0.02678
2825.57165,0.02699
2823.64293,0.02707
2821.71421,0.02705
2819.78550,0.02678
2817.85678,0.02628
2815.92806,0.02597
2813.99934,0.02598
2812.07062,0.02618
2810.14191,0.02653
2808.21319,0.02669
2806.28447,0.02665
2804.35575,0.02674
2802.42704,0.02673
2800.49832,0.02653
2798.56960,0.02641
2796.64088,0.02649
2794.71216,0.02676
2792.78345,0.02695
2790.85473,0.02692
2788.92601,0.02690
2786.99729,0.02691
2785.06857,0.02684
2783.13986,0.02669
2781.21114,0.02666
2779.28242,0.02687
2777.35370,0.02701
2775.42499,0.02673
2773.49627,0.02630
2771.56755,0.02615
2769.63883,0.02642
2767.71011,0.02681
2765.78140,0.02691
2763.85268,0.02673
2761.92396,0.02657
2759.99524,0.02659
2758.06652,0.02673
2756.13781,0.02685
2754.20909,0.02682
2752.28037,0.02669
2750.35165,0.02656
2748.42294,0.02657
2746.49422,0.02678
2744.56550,0.02704
2742.63678,0.02701
2740.70806,0.02668
2738.77935,0.02651
2736.85063,0.02667
2734.92191,0.02686
2732.99319,0.02692
2731.06448,0.02696
2729.13576,0.02689
2727.20704,0.02672
2725.27832,0.02675
2723.34960,0.02697
2721.42089,0.02706
2719.49217,0.02682
2717.56345,0.02644
2715.63473,0.02619
2713.70601,0.02620
2711.77730,0.02640
2709.84858,0.02663
2707.91986,0.02678
2705.99114,0.02680
2704.06243,0.02664
2702.13371,0.02646
2700.20499,0.02657
2698.27627,0.02686
2696.34755,0.02698
2694.41884,0.02686
2692.49012,0.02664
2690.56140,0.02642
2688.63268,0.02641
2686.70396,0.02659
2684.77525,0.02679
2682.84653,0.02697
2680.91781,0.02694
2678.98909,0.02677
2677.06038,0.02670
2675.13166,0.02662
2673.20294,0.02649
2671.27422,0.02656
2669.34550,0.02665
2667.41679,0.02668
2665.48807,0.02692
2663.55935,0.02719
2661.63063,0.02709
2659.70191,0.02682
2657.77320,0.02666
2655.84448,0.02664
2653.91576,0.02671
2651.98704,0.02676
2650.05833,0.02676
2648.12961,0.02669
2646.20089,0.02664
2644.27217,0.02670
2642.34345,0.02677
2640.41474,0.02677
2638.48602,0.02676
2636.55730,0.02683
2634.62858,0.02694
2632.69986,0.02700
2630.77115,0.02692
2628.84243,0.02663
2626.91371,0.02626
2624.98499,0.02613
2623.05628,0.02631
2621.12756,0.02657
2619.19884,0.02670
2617.27012,0.02668
2615.34140,0.02652
2613.41269,0.02633
2611.48397,0.02623
2609.55525,0.02638
2607.62653,0.02674
2605.69781,0.02696
2603.76910,0.02685
2601.84038,0.02670
2599.91166,0.02672
2597.98294,0.02673
2596.05423,0.02666
2594.12551,0.02652
2592.19679,0.02638
2590.26807,0.02644
2588.33935,0.02662
2586.41064,0.02668
2584.48192,0.02659
2582.55320,0.02654
2580.62448,0.02657
2578.69576,0.02651
2576.76705,0.02645
2574.83833,0.02639
2572.90961,0.02628
2570.98089,0.02635
2569.05218,0.02664
2567.12346,0.02688
2565.19474,0.02697
2563.26602,0.02694
2561.33730,0.02682
2559.40859,0.02676
2557.47987,0.02677
2555.55115,0.02672
2553.62243,0.02662
2551.69372,0.02654
2549.76500,0.02654
2547.83628,0.02657
2545.90756,0.02657
2543.97884,0.02647
2542.05013,0.02634
2540.12141,0.02638
2538.19269,0.02658
2536.26397,0.02670
2534.33525,0.02661
2532.40654,0.02640
2530.47782,0.02623
2528.54910,0.02630
2526.62038,0.02661
2524.69167,0.02682
2522.76295,0.02672
2520.83423,0.02649
2518.90551,0.02628
2516.97679,0.02623
2515.04808,0.02628
2513.11936,0.02624
2511.19064,0.02611
2509.26192,0.02611
2507.33320,0.02632
2505.40449,0.02647
2503.47577,0.02643
2501.54705,0.02643
2499.61833,0.02655
2497.68962,0.02661
2495.76090,0.02657
2493.83218,0.02657
2491.90346,0.02663
2489.97474,0.02670
2488.04603,0.02670
2486.11731,0.02654
2484.18859,0.02626
2482.25987,0.02604
2480.33115,0.02613
2478.40244,0.02646
2476.47372,0.02669
2474.54500,0.02673
2472.61628,0.02668
2470.68757,0.02652
2468.75885,0.02634
2466.83013,0.02627
2464.90141,0.02635
2462.97269,0.02654
2461.04398,0.02661
2459.11526,0.02657
2457.18654,0.02662
2455.25782,0.02666
2453.32910,0.02650
2451.40039,0.02627
2449.47167,0.02608
2447.54295,0.02589
2445.61423,0.02585
2443.68552,0.02597
2441.75680,0.02600
2439.82808,0.02596
2437.89936,0.02618
2435.97064,0.02655
2434.04193,0.02675
2432.11321,0.02674
2430.18449,0.02651
2428.25577,0.02617
2426.32705,0.02606
2424.39834,0.02616
2422.46962,0.02617
2420.54090,0.02611
2418.61218,0.02613
2416.68347,0.02625
2414.75475,0.02636
2412.82603,0.02638
2410.89731,0.02642
2408.96859,0.02652
2407.03988,0.02658
2405.11116,0.02658
2403.18244,0.02663
2401.25372,0.02661
2399.32500,0.02636
2397.39629,0.02610
2395.46757,0.02600
2393.53885,0.02595
2391.61013,0.02580
2389.68142,0.02582
2387.75270,0.02618
2385.82398,0.02645
2383.89526,0.02642
2381.96654,0.02637
2380.03783,0.02649
2378.10911,0.02656
2376.18039,0.02648
2374.25167,0.02657
2372.32296,0.02686
2370.39424,0.02695
2368.46552,0.02680
2366.53680,0.02666
2364.60808,0.02682
2362.67937,0.02719
2360.75065,0.02728
2358.82193,0.02702
2356.89321,0.02677
2354.96449,0.02646
2353.03578,0.02618
2351.10706,0.02627
2349.17834,0.02659
2347.24962,0.02684
2345.32091,0.02691
2343.39219,0.02680
2341.46347,0.02660
2339.53475,0.02647
2337.60603,0.02651
2335.67732,0.02685
2333.74860,0.02725
2331.81988,0.02720
2329.89116,0.02682
2327.96244,0.02659
2326.03373,0.02668
2324.10501,0.02678
2322.17629,0.02657
2320.24757,0.02629
2318.31886,0.02622
2316.39014,0.02635
2314.46142,0.02653
2312.53270,0.02660
2310.60398,0.02661
2308.67527,0.02660
2306.74655,0.02650
2304.81783,0.02643
2302.88911,0.02649
2300.96039,0.02654
2299.03168,0.02644
2297.10296,0.02616
2295.17424,0.02585
2293.24552,0.02570
2291.31681,0.02576
2289.38809,0.02579
2287.45937,0.02565
2285.53065,0.02558
2283.60193,0.02577
2281.67322,0.02604
2279.74450,0.02618
2277.81578,0.02608
2275.88706,0.02601
2273.95834,0.02618
2272.02963,0.02622
2270.10091,0.02601
2268.17219,0.02585
2266.24347,0.02591
2264.31476,0.02615
2262.38604,0.02635
2260.45732,0.02639
2258.52860,0.02641
2256.59988,0.02646
2254.67117,0.02644
2252.74245,0.02636
2250.81373,0.02616
2248.88501,0.02587
2246.95629,0.02577
2245.02758,0.02600
2243.09886,0.02621
2241.17014,0.02614
2239.24142,0.02613
2237.31271,0.02628
2235.38399,0.02625
2233.45527,0.02603
2231.52655,0.02595
2229.59783,0.02612
2227.66912,0.02625
2225.74040,0.02609
2223.81168,0.02594
2221.88296,0.02607
2219.95424,0.02603
2218.02553,0.02565
2216.09681,0.02543
2214.16809,0.02558
2212.23937,0.02570
2210.31066,0.02561
2208.38194,0.02556
2206.45322,0.02564
2204.52450,0.02568
2202.59578,0.02569
2200.66707,0.02569
2198.73835,0.02570
2196.80963,0.02573
2194.88091,0.02575
2192.95220,0.02579
2191.02348,0.02580
2189.09476,0.02565
2187.16604,0.02547
2185.23732,0.02544
2183.30861,0.02546
2181.37989,0.02533
2179.45117,0.02513
2177.52245,0.02513
2175.59373,0.02542
2173.66502,0.02574
2171.73630,0.02584
2169.80758,0.02574
2167.87886,0.02559
2165.95015,0.02550
2164.02143,0.02550
2162.09271,0.02555
2160.16399,0.02561
2158.23527,0.02556
2156.30656,0.02550
2154.37784,0.02562
2152.44912,0.02592
2150.52040,0.02611
2148.59168,0.02605
2146.66297,0.02590
2144.73425,0.02582
2142.80553,0.02578
2140.87681,0.02568
2138.94810,0.02560
2137.01938,0.02562
2135.09066,0.02556
2133.16194,0.02535
2131.23322,0.02527
2129.30451,0.02540
2127.37579,0.02548
2125.44707,0.02556
2123.51835,0.02579
2121.58963,0.02594
2119.66092,0.02588
2117.73220,0.02579
2115.80348,0.02575
2113.87476,0.02565
2111.94605,0.02547
2110.01733,0.02538
2108.08861,0.02544
2106.15989,0.02555
2104.23117,0.02561
2102.30246,0.02562
2100.37374,0.02561
2098.44502,0.02564
2096.51630,0.02572
2094.58758,0.02575
2092.65887,0.02569
2090.73015,0.02559
2088.80143,0.02550
2086.87271,0.02543
2084.94400,0.02534
2083.01528,0.02520
2081.08656,0.02509
2079.15784,0.02516
2077.22912,0.02526
2075.30041,0.02533
2073.37169,0.02552
2071.44297,0.02574
2069.51425,0.02577
2067.58553,0.02565
2065.65682,0.02550
2063.72810,0.02543
2061.79938,0.02548
2059.87066,0.02553
2057.94195,0.02555
2056.01323,0.02555
2054.08451,0.02548
2052.15579,0.02544
2050.22707,0.02539
2048.29836,0.02525
2046.36964,0.02517
2044.44092,0.02525
2042.51220,0.02537
2040.58348,0.02526
2038.65477,0.02499
2036.72605,0.02490
2034.79733,0.02500
2032.86861,0.02512
2030.93990,0.02532
2029.01118,0.02554
2027.08246,0.02557
2025.15374,0.02543
2023.22502,0.02533
2021.29631,0.02530
2019.36759,0.02521
2017.43887,0.02504
2015.51015,0.02499
2013.58143,0.02506
2011.65272,0.02513
2009.72400,0.02522
2007.79528,0.02539
2005.86656,0.02542
2003.93785,0.02521
2002.00913,0.02501
2000.08041,0.02508
1998.15169,0.02533
1996.22297,0.02554
1994.29426,0.02554
1992.36554,0.02539
1990.43682,0.02529
1988.50810,0.02520
1986.57939,0.02507
1984.65067,0.02498
1982.72195,0.02511
1980.79323,0.02540
1978.86451,0.02553
1976.93580,0.02539
1975.00708,0.02523
1973.07836,0.02520
1971.14964,0.02514
1969.22092,0.02507
1967.29221,0.02515
1965.36349,0.02522
1963.43477,0.02517
1961.50605,0.02510
1959.57734,0.02516
1957.64862,0.02523
1955.71990,0.02515
1953.79118,0.02502
1951.86246,0.02500
1949.93375,0.02507
1948.00503,0.02518
1946.07631,0.02526
1944.14759,0.02527
1942.21887,0.02530
1940.29016,0.02538
1938.36144,0.02537
1936.43272,0.02520
1934.50400,0.02507
1932.57529,0.02510
1930.64657,0.02504
1928.71785,0.02479
1926.78913,0.02465
1924.86041,0.02466
1922.93170,0.02475
1921.00298,0.02492
1919.07426,0.02506
1917.14554,0.02495
1915.21682,0.02486
1913.28811,0.02492
1911.35939,0.02495
1909.43067,0.02495
1907.50195,0.02505
1905.57324,0.02513
1903.64452,0.02507
1901.71580,0.02497
1899.78708,0.02498
1897.85836,0.02501
1895.92965,0.02488
1894.00093,0.02476
1892.07221,0.02483
1890.14349,0.02482
1888.21477,0.02463
1886.28606,0.02460
1884.35734,0.02468
1882.42862,0.02465
1880.49990,0.02461
1878.57119,0.02462
1876.64247,0.02467
1874.71375,0.02475
1872.78503,0.02479
1870.85631,0.02486
1868.92760,0.02501
1866.99888,0.02509
1865.07016,0.02500
1863.14144,0.02493
1861.21272,0.02498
1859.28401,0.02502
1857.35529,0.02491
1855.42657,0.02478
1853.49785,0.02469
1851.56914,0.02462
1849.64042,0.02468
1847.71170,0.02479
1845.78298,0.02472
1843.85426,0.02442
1841.92555,0.02425
1839.99683,0.02427
1838.06811,0.02432
1836.13939,0.02439
1834.21067,0.02440
1832.28196,0.02430
1830.35324,0.02415
1828.42452,0.02401
1826.49580,0.02402
1824.56709,0.02413
1822.63837,0.02414
1820.70965,0.02401
1818.78093,0.02392
1816.85221,0.02394
1814.92350,0.02390
1812.99478,0.02383
1811.06606,0.02384
1809.13734,0.02384
1807.20863,0.02379
1805.27991,0.02379
1803.35119,0.02383
1801.42247,0.02375
1799.49375,0.02366
1797.56504,0.02364
1795.63632,0.02358
1793.70760,0.02345
1791.77888,0.02322
1789.85016,0.02311
1787.92145,0.02315
1785.99273,0.02311
1784.06401,0.02296
1782.13529,0.02291
1780.20658,0.02289
1778.27786,0.02290
1776.34914,0.02305
1774.42042,0.02324
1772.49170,0.02323
1770.56299,0.02299
1768.63427,0.02264
1766.70555,0.02228
1764.77683,0.02210
1762.84811,0.02196
1760.91940,0.02170
1758.99068,0.02153
1757.06196,0.02142
1755.13324,0.02130
1753.20453,0.02126
1751.27581,0.02121
1749.34709,0.02126
1747.41837,0.02162
1745.48965,0.02198
1743.56094,0.02223
1741.63222,0.02247
1739.70350,0.02270
1737.77478,0.02295
1735.84606,0.02316
1733.91735,0.02301
1731.98863,0.02288
1730.05991,0.02332
1728.13119,0.02385
1726.20248,0.02409
1724.27376,0.02407
1722.34504,0.02414
1720.41632,0.02456
1718.48760,0.02504
1716.55889,0.02487
1714.63017,0.02434
1712.70145,0.02408
1710.77273,0.02405
1708.84401,0.02409
1706.91530,0.02397
1704.98658,0.02369
1703.05786,0.02360
1701.12914,0.02363
1699.20043,0.02346
1697.27171,0.02300
1695.34299,0.02243
1693.41427,0.02217
1691.48555,0.02205
1689.55684,0.02196
1687.62812,0.02228
1685.69940,0.02294
1683.77068,0.02303
1681.84196,0.02256
1679.91325,0.02241
1677.98453,0.02236
1676.05581,0.02196
1674.12709,0.02141
1672.19838,0.02131
1670.26966,0.02144
1668.34094,0.02150
1666.41222,0.02162
1664.48350,0.02162
1662.55479,0.02139
1660.62607,0.02120
1658.69735,0.02127
1656.76863,0.02170
1654.83991,0.02248
1652.91120,0.02274
1650.98248,0.02205
1649.05376,0.02167
1647.12504,0.02137
1645.19633,0.02120
1643.26761,0.02132
1641.33889,0.02145
1639.41017,0.02153
1637.48145,0.02161
1635.55274,0.02165
1633.62402,0.02167
1631.69530,0.02179
1629.76658,0.02192
1627.83787,0.02200
1625.90915,0.02201
1623.98043,0.02181
1622.05171,0.02158
1620.12299,0.02166
1618.19428,0.02198
1616.26556,0.02227
1614.33684,0.02233
1612.40812,0.02230
1610.47940,0.02231
1608.55069,0.02226
1606.62197,0.02199
1604.69325,0.02166
1602.76453,0.02148
1600.83582,0.02150
1598.90710,0.02163
1596.97838,0.02177
1595.04966,0.02180
1593.12094,0.02175
1591.19223,0.02176
1589.26351,0.02181
1587.33479,0.02176
1585.40607,0.02166
1583.47735,0.02163
1581.54864,0.02163
1579.61992,0.02174
1577.69120,0.02187
1575.76248,0.02154
1573.83377,0.02112
1571.90505,0.02119
1569.97633,0.02138
1568.04761,0.02134
1566.11889,0.02123
1564.19018,0.02138
1562.26146,0.02193
1560.33274,0.02270
1558.40402,0.02249
1556.47530,0.02143
1554.54659,0.02102
1552.61787,0.02104
1550.68915,0.02127
1548.76043,0.02151
1546.83172,0.02175
1544.90300,0.02181
1542.97428,0.02145
1541.04556,0.02092
1539.11684,0.02109
1537.18813,0.02180
1535.25941,0.02236
1533.33069,0.02238
1531.40197,0.02201
1529.47325,0.02181
1527.54454,0.02177
1525.61582,0.02199
1523.68710,0.02253
1521.75838,0.02276
1519.82967,0.02245
1517.90095,0.02225
1515.97223,0.02217
1514.04351,0.02198
1512.11479,0.02180
1510.18608,0.02185
1508.25736,0.02215
1506.32864,0.02221
1504.39992,0.02216
1502.47120,0.02231
1500.54249,0.02242
1498.61377,0.02221
1496.68505,0.02189
1494.75633,0.02192
1492.82762,0.02209
1490.89890,0.02204
1488.97018,0.02165
1487.04146,0.02142
1485.11274,0.02149
1483.18403,0.02160
1481.25531,0.02168
1479.32659,0.02167
1477.39787,0.02163
1475.46915,0.02164
1473.54044,0.02145
1471.61172,0.02102
1469.68300,0.02103
1467.75428,0.02135
1465.82557,0.02152
1463.89685,0.02144
1461.96813,0.02154
1460.03941,0.02188
1458.11069,0.02186
1456.18198,0.02098
1454.25326,0.02070
1452.32454,0.02089
1450.39582,0.02098
1448.46711,0.02088
1446.53839,0.02084
1444.60967,0.02097
1442.68095,0.02107
1440.75223,0.02112
1438.82352,0.02130
1436.89480,0.02152
1434.96608,0.02146
1433.03736,0.02134
1431.10864,0.02131
1429.17993,0.02127
1427.25121,0.02108
1425.32249,0.02091
1423.39377,0.02101
1421.46506,0.02122
1419.53634,0.02105
1417.60762,0.02064
1415.67890,0.02060
1413.75018,0.02074
1411.82147,0.02075
1409.89275,0.02069
1407.96403,0.02078
1406.03531,0.02089
1404.10659,0.02070
1402.17788,0.02042
1400.24916,0.02047
1398.32044,0.02066
1396.39172,0.02061
1394.46301,0.02041
1392.53429,0.02030
1390.60557,0.02030
1388.67685,0.02029
1386.74813,0.02017
1384.81942,0.01997
1382.89070,0.01993
1380.96198,0.02022
1379.03326,0.02049
1377.10454,0.02046
1375.17583,0.02038
1373.24711,0.02046
1371.31839,0.02045
1369.38967,0.02034
1367.46096,0.02033
1365.53224,0.02047
1363.60352,0.02065
1361.67480,0.02077
1359.74608,0.02082
1357.81737,0.02067
1355.88865,0.02034
1353.95993,0.02022
1352.03121,0.02039
1350.10249,0.02051
1348.17378,0.02042
1346.24506,0.02025
1344.31634,0.02018
1342.38762,0.02019
1340.45891,0.02009
1338.53019,0.01987
1336.60147,0.01980
1334.67275,0.01985
1332.74403,0.01975
1330.81532,0.01963
1328.88660,0.01966
1326.95788,0.01973
1325.02916,0.01972
1323.10044,0.01969
1321.17173,0.01963
1319.24301,0.01946
1317.31429,0.01932
1315.38557,0.01924
1313.45686,0.01927
1311.52814,0.01933
1309.59942,0.01923
1307.67070,0.01915
1305.74198,0.01934
1303.81327,0.01957
1301.88455,0.01971
1299.95583,0.01989
1298.02711,0.02008
1296.09839,0.02017
1294.16968,0.02023
1292.24096,0.02026
1290.31224,0.02025
1288.38352,0.02031
1286.45481,0.02045
1284.52609,0.02069
1282.59737,0.02092
1280.66865,0.02092
1278.73993,0.02083
1276.81122,0.02094
1274.88250,0.02119
1272.95378,0.02140
1271.02506,0.02152
1269.09635,0.02152
1267.16763,0.02148
1265.23891,0.02146
1263.31019,0.02150
1261.38147,0.02169
1259.45276,0.02195
1257.52404,0.02206
1255.59532,0.02203
1253.66660,0.02206
1251.73788,0.02212
1249.80917,0.02217
1247.88045,0.02216
1245.95173,0.02203
1244.02301,0.02186
1242.09430,0.02173
1240.16558,0.02166
1238.23686,0.02173
1236.30814,0.02195
1234.37942,0.02207
1232.45071,0.02180
1230.52199,0.02128
1228.59327,0.02100
1226.66455,0.02111
1224.73583,0.02122
1222.80712,0.02112
1220.87840,0.02096
1218.94968,0.02102
1217.02096,0.02143
1215.09225,0.02184
1213.16353,0.02188
1211.23481,0.02169
1209.30609,0.02148
1207.37737,0.02127
1205.44866,0.02116
1203.51994,0.02109
1201.59122,0.02091
1199.66250,0.02087
1197.73378,0.02104
1195.80507,0.02104
1193.87635,0.02085
1191.94763,0.02076
1190.01891,0.02076
1188.09020,0.02063
1186.16148,0.02035
1184.23276,0.02005
1182.30404,0.01992
1180.37532,0.01994
1178.44661,0.01989
1176.51789,0.01974
1174.58917,0.01963
1172.66045,0.01960
1170.73173,0.01966
1168.80302,0.01984
1166.87430,0.02000
1164.94558,0.02001
1163.01686,0.01994
1161.08815,0.01973
1159.15943,0.01948
1157.23071,0.01945
1155.30199,0.01952
1153.37327,0.01950
1151.44456,0.01950
1149.51584,0.01961
1147.58712,0.01973
1145.65840,0.01980
1143.72968,0.01978
1141.80097,0.01985
1139.87225,0.01999
1137.94353,0.01993
1136.01481,0.01977
1134.08610,0.01984
1132.15738,0.02008
1130.22866,0.02034
1128.29994,0.02056
1126.37122,0.02063
1124.44251,0.02069
1122.51379,0.02094
1120.58507,0.02111
1118.65635,0.02113
1116.72763,0.02134
1114.79892,0.02173
1112.87020,0.02194
1110.94148,0.02196
1109.01276,0.02197
1107.08405,0.02174
1105.15533,0.02111
1103.22661,0.02063
1101.29789,0.02082
1099.36917,0.02131
1097.44046,0.02144
1095.51174,0.02122
1093.58302,0.02125
1091.65430,0.02149
1089.72559,0.02138
1087.79687,0.02104
1085.86815,0.02104
1083.93943,0.02146
1082.01071,0.02204
1080.08200,0.02259
1078.15328,0.02293
1076.22456,0.02295
1074.29584,0.02292
1072.36712,0.02322
1070.43841,0.02364
1068.50969,0.02373
1066.58097,0.02354
1064.65225,0.02350
1062.72354,0.02356
1060.79482,0.02344
1058.86610,0.02341
1056.93738,0.02360
1055.00866,0.02361
1053.07995,0.02340
1051.15123,0.02332
1049.22251,0.02333
1047.29379,0.02324
1045.36507,0.02316
1043.43636,0.02315
1041.50764,0.02304
1039.57892,0.02282
1037.65020,0.02276
1035.72149,0.02289
1033.79277,0.02294
1031.86405,0.02296
1029.93533,0.02298
1028.00661,0.02278
1026.07790,0.02254
1024.14918,0.02262
1022.22046,0.02278
1020.29174,0.02265
1018.36302,0.02243
1016.43431,0.02243
1014.50559,0.02258
1012.57687,0.02282
1010.64815,0.02322
1008.71944,0.02365
1006.79072,0.02392
1004.86200,0.02400
1002.93328,0.02402
1001.00456,0.02405
999.07585,0.02411
997.14713,0.02413
995.21841,0.02400
993.28969,0.02388
991.36097,0.02381
989.43226,0.02368
987.50354,0.02373
985.57482,0.02398
983.64610,0.02414
981.71739,0.02408
979.78867,0.02393
977.85995,0.02389
975.93123,0.02394
974.00251,0.02394
972.07380,0.02388
970.14508,0.02369
968.21636,0.02332
966.28764,0.02284
964.35892,0.02256
962.43021,0.02265
960.50149,0.02278
958.57277,0.02277
956.64405,0.02288
954.71534,0.02311
952.78662,0.02317
950.85790,0.02304
948.92918,0.02277
947.00046,0.02253
945.07175,0.02241
943.14303,0.02234
941.21431,0.02229
939.28559,0.02237
937.35687,0.02262
935.42816,0.02288
933.49944,0.02294
931.57072,0.02276
929.64200,0.02246
927.71329,0.02218
925.78457,0.02199
923.85585,0.02197
921.92713,0.02214
919.99841,0.02239
918.06970,0.02251
916.14098,0.02250
914.21226,0.02258
912.28354,0.02265
910.35483,0.02251
908.42611,0.02234
906.49739,0.02246
904.56867,0.02270
902.63995,0.02266
900.71124,0.02240
898.78252,0.02198
896.85380,0.02141
894.92508,0.02107
892.99636,0.02117
891.06765,0.02152
889.13893,0.02179
887.21021,0.02181
885.28149,0.02163
883.35278,0.02137
881.42406,0.02130
879.49534,0.02141
877.56662,0.02139
875.63790,0.02137
873.70919,0.02149
871.78047,0.02164
869.85175,0.02180
867.92303,0.02192
865.99431,0.02183
864.06560,0.02161
862.13688,0.02140
860.20816,0.02121
858.27944,0.02116
856.35073,0.02124
854.42201,0.02112
852.49329,0.02065
850.56457,0.02026
848.63585,0.02029
846.70714,0.02066
844.77842,0.02108
842.84970,0.02121
840.92098,0.02112
838.99226,0.02117
837.06355,0.02145
835.13483,0.02164
833.20611,0.02153
831.27739,0.02137
829.34868,0.02101
827.41996,0.02031
825.49124,0.02002
823.56252,0.02068
821.63380,0.02157
819.70509,0.02176
817.77637,0.02143
815.84765,0.02127
813.91893,0.02137
811.99021,0.02143
810.06150,0.02149
808.13278,0.02148
806.20406,0.02114
804.27534,0.02064
802.34663,0.02059
800.41791,0.02104
798.48919,0.02131
796.56047,0.02105
794.63175,0.02084
792.70304,0.02094
790.77432,0.02104
788.84560,0.02093
786.91688,0.02069
784.98816,0.02051
783.05945,0.02048
781.13073,0.02046
779.20201,0.02023
777.27329,0.02012
775.34458,0.02052
773.41586,0.02077
771.48714,0.02038
769.55842,0.02001
767.62970,0.02029
765.70099,0.02085
763.77227,0.02094
761.84355,0.02032
759.91483,0.01959
757.98611,0.01957
756.05740,0.01989
754.12868,0.01970
752.19996,0.01940
750.27124,0.01957
748.34253,0.01996
746.41381,0.02021
744.48509,0.02027
742.55637,0.02030
740.62765,0.02047
738.69894,0.02066
736.77022,0.02066
734.84150,0.02037
732.91278,0.01980
730.98407,0.01921
729.05535,0.01897
727.12663,0.01916
725.19791,0.01937
723.26919,0.01932
721.34048,0.01909
719.41176,0.01889
717.48304,0.01904
715.55432,0.01941
713.62560,0.01953
711.69689,0.01928
709.76817,0.01898
707.83945,0.01889
705.91073,0.01886
703.98202,0.01893
702.05330,0.01910
700.12458,0.01894
698.19586,0.01869
696.26714,0.01872
694.33843,0.01851
692.40971,0.01807
690.48099,0.01822
688.55227,0.01879
686.62355,0.01922
684.69484,0.01941
682.76612,0.01947
680.83740,0.01953
678.90868,0.01934
676.97997,0.01861
675.05125,0.01804
673.12253,0.01852
671.19381,0.01945
669.26509,0.01944
667.33638,0.01895
665.40766,0.01936
663.47894,0.01969
661.55022,0.01929
659.62150,0.01900
657.69279,0.01924
655.76407,0.01957
653.83535,0.01934
651.90663,0.01856
649.97792,0.01798
648.04920,0.01796
646.12048,0.01793
644.19176,0.01758
642.26304,0.01757
640.33433,0.01814
638.40561,0.01844
636.47689,0.01839
634.54817,0.01844
632.61945,0.01877
630.69074,0.01903
628.76202,0.01874
626.83330,0.01817
624.90458,0.01830
622.97587,0.01915
621.04715,0.01950
619.11843,0.01913
617.18971,0.01888
615.26099,0.01914
613.33228,0.01947
611.40356,0.01847
609.47484,0.01646
607.54612,0.01575
605.61740,0.01639
603.68869,0.01688
601.75997,0.01710
599.83125,0.01691
