7496.90619,0.93071
7494.97747,0.94185
7493.04876,0.94124
7491.12005,0.93505
7489.19134,0.93241
7487.26262,0.92967
7485.33391,0.93134
7483.40520,0.93672
7481.47648,0.93146
7479.54777,0.92009
7477.61906,0.91872
7475.69035,0.92896
7473.76163,0.94126
7471.83292,0.94219
7469.90421,0.92877
7467.97550,0.91390
7466.04678,0.90922
7464.11807,0.91346
7462.18936,0.91778
7460.26065,0.91923
7458.33193,0.91871
7456.40322,0.91707
7454.47451,0.91831
7452.54579,0.92347
7450.61708,0.93053
7448.68837,0.93709
7446.75966,0.93806
7444.83094,0.93316
7442.90223,0.93170
7440.97352,0.93856
7439.04481,0.94440
7437.11609,0.94136
7435.18738,0.93725
7433.25867,0.93855
7431.32996,0.93893
7429.40124,0.93616
7427.47253,0.93653
7425.54382,0.93950
7423.61510,0.93758
7421.68639,0.93018
7419.75768,0.92643
7417.82897,0.92967
7415.90025,0.93286
7413.97154,0.93323
7412.04283,0.93301
7410.11412,0.93143
7408.18540,0.92668
7406.25669,0.92161
7404.32798,0.91930
7402.39927,0.91835
7400.47055,0.91892
7398.54184,0.92076
7396.61313,0.92144
7394.68441,0.92398
7392.75570,0.92999
7390.82699,0.93603
7388.89828,0.94275
7386.96956,0.94907
7385.04085,0.94745
7383.11214,0.93392
7381.18343,0.91867
7379.25471,0.91809
7377.32600,0.92735
7375.39729,0.93029
7373.46857,0.92842
7371.53986,0.92985
7369.61115,0.93120
7367.68244,0.92624
7365.75372,0.91781
7363.82501,0.91333
7361.89630,0.91734
7359.96759,0.92766
7358.03887,0.93244
7356.11016,0.92615
7354.18145,0.92145
7352.25274,0.92660
7350.32402,0.93102
7348.39531,0.92849
7346.46660,0.92382
7344.53788,0.91879
7342.60917,0.91946
7340.68046,0.92905
7338.75175,0.93422
7336.82303,0.93076
7334.89432,0.92554
7332.96561,0.91936
7331.03690,0.91321
7329.10818,0.91338
7327.17947,0.92179
7325.25076,0.92833
7323.32205,0.92872
7321.39333,0.92916
7319.46462,0.93020
7317.53591,0.92827
7315.60719,0.92464
7313.67848,0.92163
7311.74977,0.92015
7309.82106,0.92283
7307.89234,0.93001
7305.96363,0.93912
7304.03492,0.94483
7302.10621,0.94139
7300.17749,0.92906
7298.24878,0.91573
7296.32007,0.90929
7294.39136,0.91021
7292.46264,0.91375
7290.53393,0.91365
7288.60522,0.91155
7286.67650,0.91736
7284.74779,0.92499
7282.81908,0.91936
7280.89037,0.90923
7278.96165,0.90971
7277.03294,0.91682
7275.10423,0.92074
7273.17552,0.91854
7271.24680,0.91430
7269.31809,0.91424
7267.38938,0.91800
7265.46066,0.91754
7263.53195,0.90966
7261.60324,0.90354
7259.67453,0.90663
7257.74581,0.91348
7255.81710,0.91818
7253.88839,0.92121
7251.95968,0.92424
7250.03096,0.92587
7248.10225,0.92287
7246.17354,0.91561
7244.24483,0.90988
7242.31611,0.91307
7240.38740,0.92218
7238.45869,0.92658
7236.52997,0.92330
7234.60126,0.91535
7232.67255,0.90875
7230.74384,0.90915
7228.81512,0.91350
7226.88641,0.91503
7224.95770,0.91188
7223.02899,0.90557
7221.10027,0.89874
7219.17156,0.89859
7217.24285,0.90755
7215.31414,0.91579
7213.38542,0.91753
7211.45671,0.91678
7209.52800,0.91489
7207.59928,0.91009
7205.67057,0.90464
7203.74186,0.90070
7201.81315,0.89853
7199.88443,0.90110
7197.95572,0.90819
7196.02701,0.91372
7194.09830,0.91541
7192.16958,0.91192
7190.24087,0.90177
7188.31216,0.89414
7186.38344,0.89395
7184.45473,0.89423
7182.52602,0.89228
7180.59731,0.88931
7178.66859,0.88527
7176.73988,0.88385
7174.81117,0.88953
7172.88246,0.89831
7170.95374,0.90297
7169.02503,0.90244
7167.09632,0.89704
7165.16761,0.88922
7163.23889,0.88533
7161.31018,0.89019
7159.38147,0.90260
7157.45275,0.91567
7155.52404,0.92325
7153.59533,0.92305
7151.66662,0.91810
7149.73790,0.91076
7147.80919,0.90194
7145.88048,0.89807
7143.95177,0.90194
7142.02305,0.90550
7140.09434,0.90545
7138.16563,0.90873
7136.23692,0.91643
7134.30820,0.92172
7132.37949,0.92248
7130.45078,0.92063
7128.52206,0.91771
7126.59335,0.91596
7124.66464,0.91518
7122.73593,0.91140
7120.80721,0.90414
7118.87850,0.89906
7116.94979,0.90252
7115.02108,0.91217
7113.09236,0.92018
7111.16365,0.92334
7109.23494,0.92080
7107.30623,0.91644
7105.37751,0.91761
7103.44880,0.92281
7101.52009,0.92534
7099.59137,0.92237
7097.66266,0.91722
7095.73395,0.91576
7093.80524,0.91636
7091.87652,0.91471
7089.94781,0.91362
7088.01910,0.91472
7086.09039,0.91648
7084.16167,0.92015
7082.23296,0.92230
7080.30425,0.91981
7078.37553,0.91880
7076.44682,0.91947
7074.51811,0.91653
7072.58940,0.91102
7070.66068,0.90739
7068.73197,0.90768
7066.80326,0.90587
7064.87455,0.89954
7062.94583,0.89839
7061.01712,0.90462
7059.08841,0.91006
7057.15970,0.91185
7055.23098,0.91030
7053.30227,0.90777
7051.37356,0.90826
7049.44484,0.90999
7047.51613,0.91252
7045.58742,0.91503
7043.65871,0.91126
7041.72999,0.90656
7039.80128,0.90993
7037.87257,0.91377
7035.94386,0.91287
7034.01514,0.91484
7032.08643,0.91989
7030.15772,0.92101
7028.22901,0.91645
7026.30029,0.90966
7024.37158,0.90525
7022.44287,0.90563
7020.51415,0.90944
7018.58544,0.91384
7016.65673,0.91759
7014.72802,0.91888
7012.79930,0.91763
7010.87059,0.91745
7008.94188,0.91790
7007.01317,0.91585
7005.08445,0.91388
7003.15574,0.91753
7001.22703,0.92448
6999.29832,0.92583
6997.36960,0.92015
6995.44089,0.91386
6993.51218,0.91068
6991.58346,0.91230
6989.65475,0.91848
6987.72604,0.92151
6985.79733,0.91775
6983.86861,0.91624
6981.93990,0.91933
6980.01119,0.91904
6978.08248,0.91604
6976.15376,0.91633
6974.22505,0.91754
6972.29634,0.91690
6970.36762,0.91803
6968.43891,0.92176
6966.51020,0.92331
6964.58149,0.91846
6962.65277,0.91052
6960.72406,0.90796
6958.79535,0.91196
6956.86664,0.91518
6954.93792,0.91414
6953.00921,0.91335
6951.08050,0.91459
6949.15179,0.91637
6947.22307,0.91860
6945.29436,0.91798
6943.36565,0.91513
6941.43693,0.91651
6939.50822,0.91971
6937.57951,0.92024
6935.65080,0.92073
6933.72208,0.92001
6931.79337,0.91791
6929.86466,0.91896
6927.93595,0.92115
6926.00723,0.92062
6924.07852,0.91823
6922.14981,0.91624
6920.22110,0.91619
6918.29238,0.91763
6916.36367,0.91947
6914.43496,0.92218
6912.50624,0.92638
6910.57753,0.92725
6908.64882,0.92118
6906.72011,0.91558
6904.79139,0.91587
6902.86268,0.91984
6900.93397,0.92451
6899.00526,0.92612
6897.07654,0.92467
6895.14783,0.92223
6893.21912,0.91657
6891.29040,0.91035
6889.36169,0.91039
6887.43298,0.91537
6885.50427,0.91925
6883.57555,0.92116
6881.64684,0.92295
6879.71813,0.92335
6877.78942,0.92417
6875.86070,0.92827
6873.93199,0.93030
6872.00328,0.92824
6870.07457,0.92698
6868.14585,0.92664
6866.21714,0.92611
6864.28843,0.92456
6862.35971,0.92152
6860.43100,0.92304
6858.50229,0.92956
6856.57358,0.93122
6854.64486,0.92727
6852.71615,0.92442
6850.78744,0.92395
6848.85873,0.92543
6846.93001,0.92832
6845.00130,0.93000
6843.07259,0.92799
6841.14388,0.92302
6839.21516,0.92020
6837.28645,0.92248
6835.35774,0.92518
6833.42902,0.92300
6831.50031,0.91866
6829.57160,0.91713
6827.64289,0.91798
6825.71417,0.91919
6823.78546,0.92132
6821.85675,0.92486
6819.92804,0.92870
6817.99932,0.93194
6816.07061,0.93325
6814.14190,0.93153
6812.21319,0.92942
6810.28447,0.92852
6808.35576,0.92619
6806.42705,0.92187
6804.49833,0.91884
6802.56962,0.91902
6800.64091,0.92170
6798.71220,0.92533
6796.78348,0.92735
6794.85477,0.92552
6792.92606,0.92201
6790.99735,0.92194
6789.06863,0.92708
6787.13992,0.93297
6785.21121,0.93417
6783.28249,0.93279
6781.35378,0.93352
6779.42507,0.93379
6777.49636,0.93179
6775.56764,0.93028
6773.63893,0.92819
6771.71022,0.92450
6769.78151,0.92244
6767.85279,0.92285
6765.92408,0.92355
6763.99537,0.92492
6762.06666,0.92749
6760.13794,0.92731
6758.20923,0.92430
6756.28052,0.92460
6754.35180,0.92910
6752.42309,0.93313
6750.49438,0.93357
6748.56567,0.93288
6746.63695,0.93480
6744.70824,0.93525
6742.77953,0.93135
6740.85082,0.93017
6738.92210,0.93536
6736.99339,0.94073
6735.06468,0.94144
6733.13597,0.94043
6731.20725,0.93958
6729.27854,0.93730
6727.34983,0.93461
6725.42111,0.93058
6723.49240,0.92526
6721.56369,0.92521
6719.63498,0.93036
6717.70626,0.93267
6715.77755,0.92979
6713.84884,0.92597
6711.92013,0.92647
6709.99141,0.93175
6708.06270,0.93505
6706.13399,0.93159
6704.20528,0.92573
6702.27656,0.92407
6700.34785,0.92568
6698.41914,0.92564
6696.49042,0.92533
6694.56171,0.92696
6692.63300,0.92788
6690.70429,0.92920
6688.77557,0.93261
6686.84686,0.93363
6684.91815,0.93135
6682.98944,0.92998
6681.06072,0.93000
6679.13201,0.92966
6677.20330,0.93006
6675.27458,0.93172
6673.34587,0.93220
6671.41716,0.93181
6669.48845,0.93404
6667.55973,0.93838
6665.63102,0.93957
6663.70231,0.93646
6661.77360,0.93399
6659.84488,0.93386
6657.91617,0.93429
6655.98746,0.93410
6654.05875,0.93108
6652.13003,0.92606
6650.20132,0.92328
6648.27261,0.92385
6646.34389,0.92659
6644.41518,0.93052
6642.48647,0.93377
6640.55776,0.93479
6638.62904,0.93537
6636.70033,0.93806
6634.77162,0.93950
6632.84291,0.93625
6630.91419,0.93269
6628.98548,0.93358
6627.05677,0.93652
6625.12806,0.93561
6623.19934,0.93143
6621.27063,0.92920
6619.34192,0.92896
6617.41320,0.92869
6615.48449,0.92818
6613.55578,0.92782
6611.62707,0.92912
6609.69835,0.93106
6607.76964,0.92962
6605.84093,0.92620
6603.91222,0.92587
6601.98350,0.92716
6600.05479,0.92716
6598.12608,0.92690
6596.19736,0.92680
6594.26865,0.92733
6592.33994,0.92849
6590.41123,0.92937
6588.48251,0.93060
6586.55380,0.93262
6584.62509,0.93440
6582.69638,0.93625
6580.76766,0.94050
6578.83895,0.94417
6576.91024,0.94153
6574.98153,0.93574
6573.05281,0.93221
6571.12410,0.92967
6569.19539,0.92744
6567.26667,0.92840
6565.33796,0.93169
6563.40925,0.93290
6561.48054,0.93169
6559.55182,0.93145
6557.62311,0.93437
6555.69440,0.93964
6553.76569,0.94216
6551.83697,0.93830
6549.90826,0.93214
6547.97955,0.92892
6546.05084,0.92935
6544.12212,0.93227
6542.19341,0.93369
6540.26470,0.93056
6538.33598,0.92704
6536.40727,0.92563
6534.47856,0.92469
6532.54985,0.92597
6530.62113,0.92875
6528.69242,0.92890
6526.76371,0.92772
6524.83500,0.92880
6522.90628,0.93178
6520.97757,0.93439
6519.04886,0.93511
6517.12015,0.93425
6515.19143,0.93303
6513.26272,0.93166
6511.33401,0.93010
6509.40529,0.92878
6507.47658,0.92831
6505.54787,0.92950
6503.61916,0.93203
6501.69044,0.93464
6499.76173,0.93696
6497.83302,0.93966
6495.90431,0.94108
6493.97559,0.93770
6492.04688,0.93196
6490.11817,0.93000
6488.18945,0.93192
6486.26074,0.93340
6484.33203,0.93265
6482.40332,0.93068
6480.47460,0.92975
6478.54589,0.93120
6476.61718,0.93281
6474.68847,0.93307
6472.75975,0.93406
6470.83104,0.93687
6468.90233,0.93709
6466.97362,0.93169
6465.04490,0.92714
6463.11619,0.92753
6461.18748,0.92838
6459.25876,0.92793
6457.33005,0.92724
6455.40134,0.92668
6453.47263,0.92803
6451.54391,0.93065
6449.61520,0.93116
6447.68649,0.93026
6445.75778,0.92998
6443.82906,0.92998
6441.90035,0.93053
6439.97164,0.93125
6438.04293,0.93170
6436.11421,0.93212
6434.18550,0.93213
6432.25679,0.93363
6430.32807,0.93772
6428.39936,0.94114
6426.47065,0.94156
6424.54194,0.93971
6422.61322,0.93683
6420.68451,0.93500
6418.75580,0.93495
6416.82709,0.93468
6414.89837,0.93401
6412.96966,0.93387
6411.04095,0.93371
6409.11224,0.93314
6407.18352,0.93247
6405.25481,0.93269
6403.32610,0.93319
6401.39738,0.93227
6399.46867,0.93139
6397.53996,0.93295
6395.61125,0.93551
6393.68253,0.93551
6391.75382,0.93321
6389.82511,0.93186
6387.89640,0.93192
6385.96768,0.93269
6384.03897,0.93334
6382.11026,0.93085
6380.18154,0.92611
6378.25283,0.92462
6376.32412,0.92746
6374.39541,0.93093
6372.46669,0.93189
6370.53798,0.93096
6368.60927,0.93197
6366.68056,0.93546
6364.75184,0.93862
6362.82313,0.94112
6360.89442,0.94163
6358.96571,0.93720
6357.03699,0.93161
6355.10828,0.93117
6353.17957,0.93486
6351.25085,0.93689
6349.32214,0.93514
6347.39343,0.93243
6345.46472,0.93151
6343.53600,0.93313
6341.60729,0.93587
6339.67858,0.93707
6337.74987,0.93505
6335.82115,0.93049
6333.89244,0.92762
6331.96373,0.92911
6330.03502,0.93179
6328.10630,0.93188
6326.17759,0.93034
6324.24888,0.92972
6322.32016,0.92963
6320.39145,0.92996
6318.46274,0.93127
6316.53403,0.93176
6314.60531,0.93095
6312.67660,0.93090
6310.74789,0.93172
6308.81918,0.93096
6306.89046,0.92940
6304.96175,0.93044
6303.03304,0.93271
6301.10432,0.93364
6299.17561,0.93369
6297.24690,0.93202
6295.31819,0.92833
6293.38947,0.92673
6291.46076,0.92933
6289.53205,0.93283
6287.60334,0.93442
6285.67462,0.93443
6283.74591,0.93489
6281.81720,0.93546
6279.88849,0.93333
6277.95977,0.93020
6276.03106,0.93020
6274.10235,0.93250
6272.17363,0.93342
6270.24492,0.93351
6268.31621,0.93583
6266.38750,0.93838
6264.45878,0.93762
6262.53007,0.93485
6260.60136,0.93299
6258.67265,0.93170
6256.74393,0.92932
6254.81522,0.92754
6252.88651,0.92820
6250.95780,0.92969
6249.02908,0.93105
6247.10037,0.93307
6245.17166,0.93489
6243.24294,0.93536
6241.31423,0.93501
6239.38552,0.93406
6237.45681,0.93411
6235.52809,0.93693
6233.59938,0.93898
6231.67067,0.93741
6229.74196,0.93586
6227.81324,0.93675
6225.88453,0.93701
6223.95582,0.93456
6222.02711,0.93261
6220.09839,0.93299
6218.16968,0.93180
6216.24097,0.92869
6214.31225,0.92872
6212.38354,0.93080
6210.45483,0.93063
6208.52612,0.92974
6206.59740,0.93031
6204.66869,0.93181
6202.73998,0.93345
6200.81127,0.93369
6198.88255,0.93161
6196.95384,0.92986
6195.02513,0.93104
6193.09641,0.93306
6191.16770,0.93317
6189.23899,0.93179
6187.31028,0.93062
6185.38156,0.93097
6183.45285,0.93213
6181.52414,0.93091
6179.59543,0.92726
6177.66671,0.92625
6175.73800,0.92878
6173.80929,0.92970
6171.88058,0.92802
6169.95186,0.92733
6168.02315,0.92746
6166.09444,0.92604
6164.16572,0.92469
6162.23701,0.92661
6160.30830,0.93129
6158.37959,0.93454
6156.45087,0.93319
6154.52216,0.93008
6152.59345,0.92936
6150.66474,0.92956
6148.73602,0.92860
6146.80731,0.92850
6144.87860,0.93001
6142.94989,0.93116
6141.02117,0.93102
6139.09246,0.92936
6137.16375,0.92650
6135.23503,0.92446
6133.30632,0.92399
6131.37761,0.92391
6129.44890,0.92466
6127.52018,0.92699
6125.59147,0.92857
6123.66276,0.92711
6121.73405,0.92457
6119.80533,0.92404
6117.87662,0.92492
6115.94791,0.92514
6114.01919,0.92504
6112.09048,0.92524
6110.16177,0.92433
6108.23306,0.92219
6106.30434,0.92152
6104.37563,0.92326
6102.44692,0.92507
6100.51821,0.92503
6098.58949,0.92328
6096.66078,0.92207
6094.73207,0.92280
6092.80336,0.92437
6090.87464,0.92564
6088.94593,0.92494
6087.01722,0.92241
6085.08850,0.92132
6083.15979,0.92188
6081.23108,0.92159
6079.30237,0.92032
6077.37365,0.91982
6075.44494,0.92094
6073.51623,0.92259
6071.58752,0.92338
6069.65880,0.92308
6067.73009,0.92262
6065.80138,0.92307
6063.87267,0.92435
6061.94395,0.92498
6060.01524,0.92385
6058.08653,0.92318
6056.15781,0.92470
6054.22910,0.92555
6052.30039,0.92437
6050.37168,0.92382
6048.44296,0.92466
6046.51425,0.92500
6044.58554,0.92450
6042.65683,0.92346
6040.72811,0.92183
6038.79940,0.92065
6036.87069,0.91992
6034.94198,0.91919
6033.01326,0.91940
6031.08455,0.92096
6029.15584,0.92330
6027.22712,0.92529
6025.29841,0.92568
6023.36970,0.92423
6021.44099,0.92277
6019.51227,0.92331
6017.58356,0.92369
6015.65485,0.92075
6013.72614,0.91774
6011.79742,0.91837
6009.86871,0.91865
6007.94000,0.91651
6006.01128,0.91637
6004.08257,0.91845
6002.15386,0.91922
6000.22515,0.91849
5998.29643,0.91763
5996.36772,0.91777
5994.43901,0.91948
5992.51030,0.92064
5990.58158,0.91967
5988.65287,0.91832
5986.72416,0.91755
5984.79545,0.91650
5982.86673,0.91531
5980.93802,0.91478
5979.00931,0.91401
5977.08059,0.91243
5975.15188,0.91186
5973.22317,0.91312
5971.29446,0.91576
5969.36574,0.91757
5967.43703,0.91644
5965.50832,0.91492
5963.57961,0.91409
5961.65089,0.91192
5959.72218,0.91001
5957.79347,0.91078
5955.86476,0.91226
5953.93604,0.91173
5952.00733,0.91033
5950.07862,0.90995
5948.14990,0.90979
5946.22119,0.90923
5944.29248,0.90923
5942.36377,0.90868
5940.43505,0.90631
5938.50634,0.90461
5936.57763,0.90486
5934.64892,0.90556
5932.72020,0.90622
5930.79149,0.90648
5928.86278,0.90645
5926.93407,0.90677
5925.00535,0.90676
5923.07664,0.90633
5921.14793,0.90721
5919.21921,0.90896
5917.29050,0.90857
5915.36179,0.90613
5913.43308,0.90501
5911.50436,0.90553
5909.57565,0.90495
5907.64694,0.90340
5905.71823,0.90272
5903.78951,0.90198
5901.86080,0.90085
5899.93209,0.90062
5898.00337,0.90018
5896.07466,0.89899
5894.14595,0.89844
5892.21724,0.89732
5890.28852,0.89465
5888.35981,0.89291
5886.43110,0.89326
5884.50239,0.89293
5882.57367,0.89061
5880.64496,0.88913
5878.71625,0.88951
5876.78754,0.88900
5874.85882,0.88596
5872.93011,0.88161
5871.00140,0.87844
5869.07268,0.87682
5867.14397,0.87400
5865.21526,0.86943
5863.28655,0.86579
5861.35783,0.86245
5859.42912,0.85819
5857.50041,0.85593
5855.57170,0.85601
5853.64298,0.85556
5851.71427,0.85343
5849.78556,0.84934
5847.85685,0.84433
5845.92813,0.83963
5843.99942,0.83494
5842.07071,0.83163
5840.14199,0.83109
5838.21328,0.83077
5836.28457,0.82860
5834.35586,0.82609
5832.42714,0.82415
5830.49843,0.82109
5828.56972,0.81599
5826.64101,0.81112
5824.71229,0.80841
5822.78358,0.80697
5820.85487,0.80586
5818.92615,0.80415
5816.99744,0.80106
5815.06873,0.79760
5813.14002,0.79405
5811.21130,0.78994
5809.28259,0.78626
5807.35388,0.78357
5805.42517,0.78053
5803.49645,0.77680
5801.56774,0.77344
5799.63903,0.77015
5797.71032,0.76569
5795.78160,0.76054
5793.85289,0.75656
5791.92418,0.75335
5789.99546,0.74877
5788.06675,0.74290
5786.13804,0.73658
5784.20933,0.73014
5782.28061,0.72367
5780.35190,0.71731
5778.42319,0.71250
5776.49448,0.70972
5774.56576,0.70868
5772.63705,0.71147
5770.70834,0.71944
5768.77963,0.73061
5766.85091,0.74259
5764.92220,0.75476
5762.99349,0.76662
5761.06477,0.77684
5759.13606,0.78402
5757.20735,0.78914
5755.27864,0.79624
5753.34992,0.80599
5751.42121,0.81480
5749.49250,0.82115
5747.56379,0.82563
5745.63507,0.82846
5743.70636,0.83089
5741.77765,0.83458
5739.84894,0.83791
5737.92022,0.83892
5735.99151,0.83940
5734.06280,0.84112
5732.13408,0.84360
5730.20537,0.84581
5728.27666,0.84699
5726.34795,0.84842
5724.41923,0.85117
5722.49052,0.85268
5720.56181,0.85208
5718.63310,0.85220
5716.70438,0.85344
5714.77567,0.85410
5712.84696,0.85375
5710.91824,0.85245
5708.98953,0.85064
5707.06082,0.84908
5705.13211,0.84754
5703.20339,0.84551
5701.27468,0.84391
5699.34597,0.84286
5697.41726,0.84084
5695.48854,0.83789
5693.55983,0.83519
5691.63112,0.83223
5689.70241,0.82869
5687.77369,0.82652
5685.84498,0.82609
5683.91627,0.82517
5681.98755,0.82311
5680.05884,0.82141
5678.13013,0.82092
5676.20142,0.82027
5674.27270,0.81731
5672.34399,0.81233
5670.41528,0.80799
5668.48657,0.80583
5666.55785,0.80555
5664.62914,0.80659
5662.70043,0.80840
5660.77172,0.81081
5658.84300,0.81390
5656.91429,0.81816
5654.98558,0.82332
5653.05686,0.82820
5651.12815,0.83320
5649.19944,0.83786
5647.27073,0.84123
5645.34201,0.84427
5643.41330,0.84688
5641.48459,0.84863
5639.55588,0.85044
5637.62716,0.85226
5635.69845,0.85337
5633.76974,0.85462
5631.84103,0.85681
5629.91231,0.85865
5627.98360,0.85927
5626.05489,0.85983
5624.12617,0.86090
5622.19746,0.86202
5620.26875,0.86269
5618.34004,0.86225
5616.41132,0.86144
5614.48261,0.86190
5612.55390,0.86349
5610.62519,0.86502
5608.69647,0.86601
5606.76776,0.86670
5604.83905,0.86709
5602.91033,0.86768
5600.98162,0.86937
5599.05291,0.87109
5597.12420,0.87154
5595.19548,0.87089
5593.26677,0.86929
5591.33806,0.86784
5589.40935,0.86822
5587.48063,0.86983
5585.55192,0.87077
5583.62321,0.87060
5581.69450,0.87029
5579.76578,0.87056
5577.83707,0.87123
5575.90836,0.87137
5573.97964,0.86976
5572.05093,0.86717
5570.12222,0.86621
5568.19351,0.86719
5566.26479,0.86821
5564.33608,0.86796
5562.40737,0.86664
5560.47866,0.86609
5558.54994,0.86710
5556.62123,0.86790
5554.69252,0.86738
5552.76381,0.86625
5550.83509,0.86524
5548.90638,0.86495
5546.97767,0.86570
5545.04895,0.86685
5543.12024,0.86815
5541.19153,0.86939
5539.26282,0.86925
5537.33410,0.86809
5535.40539,0.86794
5533.47668,0.86880
5531.54797,0.86917
5529.61925,0.86920
5527.69054,0.86979
5525.76183,0.86972
5523.83311,0.86798
5521.90440,0.86632
5519.97569,0.86612
5518.04698,0.86710
5516.11826,0.86856
5514.18955,0.86977
5512.26084,0.87020
5510.33213,0.86912
5508.40341,0.86715
5506.47470,0.86665
5504.54599,0.86798
5502.61728,0.86906
5500.68856,0.86876
5498.75985,0.86849
5496.83114,0.86840
5494.90242,0.86587
5492.97371,0.86211
5491.04500,0.86140
5489.11629,0.86343
5487.18757,0.86671
5485.25886,0.87064
5483.33015,0.87302
5481.40144,0.87329
5479.47272,0.87231
5477.54401,0.86921
5475.61530,0.86587
5473.68659,0.86689
5471.75787,0.86949
5469.82916,0.86932
5467.90045,0.86851
5465.97173,0.86922
5464.04302,0.86892
5462.11431,0.86716
5460.18560,0.86793
5458.25688,0.87131
5456.32817,0.87379
5454.39946,0.87527
5452.47075,0.87563
5450.54203,0.87408
5448.61332,0.87201
5446.68461,0.87022
5444.75590,0.86861
5442.82718,0.86758
5440.89847,0.86851
5438.96976,0.87147
5437.04104,0.87170
5435.11233,0.86853
5433.18362,0.86777
5431.25491,0.86889
5429.32619,0.86923
5427.39748,0.87164
5425.46877,0.87533
5423.54006,0.87778
5421.61134,0.88025
5419.68263,0.88238
5417.75392,0.88094
5415.82520,0.87519
5413.89649,0.86895
5411.96778,0.86685
5410.03907,0.87004
5408.11035,0.87649
5406.18164,0.88168
5404.25293,0.88403
5402.32422,0.88538
5400.39550,0.88528
5398.46679,0.88314
5396.53808,0.88076
5394.60937,0.87998
5392.68065,0.88203
5390.75194,0.88556
5388.82323,0.88647
5386.89451,0.88407
5384.96580,0.88364
5383.03709,0.88736
5381.10838,0.88942
5379.17966,0.88549
5377.25095,0.87878
5375.32224,0.87753
5373.39353,0.88282
5371.46481,0.88829
5369.53610,0.89081
5367.60739,0.89039
5365.67868,0.88825
5363.74996,0.88792
5361.82125,0.89089
5359.89254,0.89329
5357.96382,0.89160
5356.03511,0.88538
5354.10640,0.87921
5352.17769,0.87957
5350.24897,0.88311
5348.32026,0.88341
5346.39155,0.87990
5344.46284,0.87791
5342.53412,0.88101
5340.60541,0.88188
5338.67670,0.87906
5336.74799,0.88150
5334.81927,0.88763
5332.89056,0.89033
5330.96185,0.89005
5329.03313,0.88870
5327.10442,0.88843
5325.17571,0.89127
5323.24700,0.89487
5321.31828,0.89683
5319.38957,0.89661
5317.46086,0.89488
5315.53215,0.89387
5313.60343,0.89402
5311.67472,0.89383
5309.74601,0.89246
5307.81729,0.89138
5305.88858,0.89247
5303.95987,0.89363
5302.03116,0.89322
5300.10244,0.89309
5298.17373,0.89415
5296.24502,0.89551
5294.31631,0.89572
5292.38759,0.89323
5290.45888,0.88985
5288.53017,0.88952
5286.60146,0.89141
5284.67274,0.89268
5282.74403,0.89293
5280.81532,0.89355
5278.88660,0.89521
5276.95789,0.89617
5275.02918,0.89626
5273.10047,0.89654
5271.17175,0.89547
5269.24304,0.89281
5267.31433,0.89029
5265.38562,0.88740
5263.45690,0.88506
5261.52819,0.88704
5259.59948,0.89162
5257.67077,0.89275
5255.74205,0.89005
5253.81334,0.88957
5251.88463,0.89124
5249.95591,0.88957
5248.02720,0.88587
5246.09849,0.88453
5244.16978,0.88643
5242.24106,0.89094
5240.31235,0.89546
5238.38364,0.89768
5236.45493,0.89741
5234.52621,0.89480
5232.59750,0.89192
5230.66879,0.89182
5228.74007,0.89221
5226.81136,0.88948
5224.88265,0.88752
5222.95394,0.89022
5221.02522,0.89287
5219.09651,0.89231
5217.16780,0.89196
5215.23909,0.89452
5213.31037,0.89687
5211.38166,0.89510
5209.45295,0.88951
5207.52424,0.88486
5205.59552,0.88679
5203.66681,0.89290
5201.73810,0.89606
5199.80938,0.89462
5197.88067,0.89258
5195.95196,0.89390
5194.02325,0.89707
5192.09453,0.89790
5190.16582,0.89577
5188.23711,0.89333
5186.30840,0.89259
5184.37968,0.89375
5182.45097,0.89526
5180.52226,0.89512
5178.59355,0.89380
5176.66483,0.89321
5174.73612,0.89357
5172.80741,0.89382
5170.87869,0.89410
5168.94998,0.89510
5167.02127,0.89550
5165.09256,0.89440
5163.16384,0.89352
5161.23513,0.89393
5159.30642,0.89421
5157.37771,0.89334
5155.44899,0.89287
5153.52028,0.89385
5151.59157,0.89516
5149.66286,0.89654
5147.73414,0.89813
5145.80543,0.89896
5143.87672,0.89851
5141.94800,0.89780
5140.01929,0.89811
5138.09058,0.89879
5136.16187,0.89870
5134.23315,0.89854
5132.30444,0.89865
5130.37573,0.89833
5128.44702,0.89785
5126.51830,0.89815
5124.58959,0.89927
5122.66088,0.90018
5120.73216,0.90104
5118.80345,0.90256
5116.87474,0.90306
5114.94603,0.90148
5113.01731,0.89972
5111.08860,0.89889
5109.15989,0.89848
5107.23118,0.89836
5105.30246,0.89842
5103.37375,0.89840
5101.44504,0.89880
5099.51633,0.89988
5097.58761,0.90083
5095.65890,0.90090
5093.73019,0.90004
5091.80147,0.89954
5089.87276,0.90034
5087.94405,0.90104
5086.01534,0.90079
5084.08662,0.90052
5082.15791,0.90060
5080.22920,0.90085
5078.30049,0.90132
5076.37177,0.90191
5074.44306,0.90212
5072.51435,0.90147
5070.58564,0.90042
5068.65692,0.89982
5066.72821,0.89997
5064.79950,0.90091
5062.87078,0.90206
5060.94207,0.90244
5059.01336,0.90190
5057.08465,0.90134
5055.15593,0.90157
5053.22722,0.90197
5051.29851,0.90171
5049.36980,0.90148
5047.44108,0.90146
5045.51237,0.90116
5043.58366,0.90124
5041.65495,0.90192
5039.72623,0.90193
5037.79752,0.90109
5035.86881,0.90082
5033.94009,0.90144
5032.01138,0.90212
5030.08267,0.90260
5028.15396,0.90294
5026.22524,0.90345
5024.29653,0.90411
5022.36782,0.90422
5020.43911,0.90370
5018.51039,0.90331
5016.58168,0.90302
5014.65297,0.90209
5012.72425,0.90112
5010.79554,0.90114
5008.86683,0.90137
5006.93812,0.90095
5005.00940,0.90054
5003.08069,0.90044
5001.15198,0.90043
4999.22327,0.90060
4997.29455,0.90065
4995.36584,0.89997
4993.43713,0.89875
4991.50842,0.89785
4989.57970,0.89771
4987.65099,0.89782
4985.72228,0.89745
4983.79356,0.89718
4981.86485,0.89788
4979.93614,0.89873
4978.00743,0.89865
4976.07871,0.89797
4974.15000,0.89711
4972.22129,0.89653
4970.29258,0.89660
4968.36386,0.89703
4966.43515,0.89754
4964.50644,0.89785
4962.57773,0.89787
4960.64901,0.89837
4958.72030,0.89939
4956.79159,0.90028
4954.86287,0.90135
4952.93416,0.90237
4951.00545,0.90233
4949.07674,0.90164
4947.14802,0.90167
4945.21931,0.90221
4943.29060,0.90242
4941.36189,0.90249
4939.43317,0.90282
4937.50446,0.90316
4935.57575,0.90290
4933.64703,0.90234
4931.71832,0.90255
4929.78961,0.90327
4927.86090,0.90350
4925.93218,0.90316
4924.00347,0.90286
4922.07476,0.90327
4920.14605,0.90384
4918.21733,0.90361
4916.28862,0.90321
4914.35991,0.90346
4912.43120,0.90374
4910.50248,0.90355
4908.57377,0.90319
4906.64506,0.90284
4904.71634,0.90246
4902.78763,0.90207
4900.85892,0.90199
4898.93021,0.90253
4897.00149,0.90335
4895.07278,0.90391
4893.14407,0.90420
4891.21536,0.90442
4889.28664,0.90439
4887.35793,0.90386
4885.42922,0.90322
4883.50051,0.90330
4881.57179,0.90394
4879.64308,0.90406
4877.71437,0.90329
4875.78565,0.90226
4873.85694,0.90159
4871.92823,0.90139
4869.99952,0.90175
4868.07080,0.90248
4866.14209,0.90277
4864.21338,0.90253
4862.28467,0.90236
4860.35595,0.90232
4858.42724,0.90245
4856.49853,0.90303
4854.56982,0.90391
4852.64110,0.90449
4850.71239,0.90429
4848.78368,0.90352
4846.85496,0.90303
4844.92625,0.90332
4842.99754,0.90368
4841.06883,0.90376
4839.14011,0.90423
4837.21140,0.90543
4835.28269,0.90679
4833.35398,0.90717
4831.42526,0.90634
4829.49655,0.90573
4827.56784,0.90582
4825.63912,0.90564
4823.71041,0.90553
4821.78170,0.90595
4819.85299,0.90590
4817.92427,0.90545
4815.99556,0.90579
4814.06685,0.90680
4812.13814,0.90726
4810.20942,0.90693
4808.28071,0.90662
4806.35200,0.90660
4804.42329,0.90677
4802.49457,0.90693
4800.56586,0.90683
4798.63715,0.90695
4796.70843,0.90765
4794.77972,0.90832
4792.85101,0.90852
4790.92230,0.90856
4788.99358,0.90844
4787.06487,0.90775
4785.13616,0.90672
4783.20745,0.90618
4781.27873,0.90646
4779.35002,0.90692
4777.42131,0.90715
4775.49260,0.90722
4773.56388,0.90720
4771.63517,0.90706
4769.70646,0.90677
4767.77774,0.90622
4765.84903,0.90552
4763.92032,0.90548
4761.99161,0.90645
4760.06289,0.90720
4758.13418,0.90704
4756.20547,0.90656
4754.27676,0.90624
4752.34804,0.90613
4750.41933,0.90591
4748.49062,0.90539
4746.56191,0.90529
4744.63319,0.90606
4742.70448,0.90676
4740.77577,0.90648
4738.84705,0.90570
4736.91834,0.90521
4734.98963,0.90546
4733.06092,0.90632
4731.13220,0.90668
4729.20349,0.90608
4727.27478,0.90552
4725.34607,0.90559
4723.41735,0.90591
4721.48864,0.90600
4719.55993,0.90568
4717.63121,0.90534
4715.70250,0.90540
4713.77379,0.90564
4711.84508,0.90579
4709.91636,0.90602
4707.98765,0.90622
4706.05894,0.90569
4704.13023,0.90455
4702.20151,0.90382
4700.27280,0.90377
4698.34409,0.90380
4696.41538,0.90332
4694.48666,0.90192
4692.55795,0.89990
4690.62924,0.89871
4688.70052,0.89895
4686.77181,0.89924
4684.84310,0.89849
4682.91439,0.89748
4680.98567,0.89669
4679.05696,0.89587
4677.12825,0.89536
4675.19954,0.89545
4673.27082,0.89593
4671.34211,0.89646
4669.41340,0.89688
4667.48469,0.89719
4665.55597,0.89747
4663.62726,0.89823
4661.69855,0.89948
4659.76983,0.90076
4657.84112,0.90180
4655.91241,0.90249
4653.98370,0.90327
4652.05498,0.90425
4650.12627,0.90491
4648.19756,0.90526
4646.26885,0.90550
4644.34013,0.90534
4642.41142,0.90508
4640.48271,0.90538
4638.55399,0.90586
4636.62528,0.90597
4634.69657,0.90611
4632.76786,0.90681
4630.83914,0.90761
4628.91043,0.90789
4626.98172,0.90786
4625.05301,0.90773
4623.12429,0.90762
4621.19558,0.90774
4619.26687,0.90793
4617.33816,0.90789
4615.40944,0.90769
4613.48073,0.90777
4611.55202,0.90826
4609.62330,0.90861
4607.69459,0.90867
4605.76588,0.90845
4603.83717,0.90758
4601.90845,0.90656
4599.97974,0.90632
4598.05103,0.90680
4596.12232,0.90743
4594.19360,0.90749
4592.26489,0.90729
4590.33618,0.90771
4588.40747,0.90799
4586.47875,0.90740
4584.55004,0.90677
4582.62133,0.90653
4580.69261,0.90633
4578.76390,0.90636
4576.83519,0.90672
4574.90648,0.90689
4572.97776,0.90677
4571.04905,0.90644
4569.12034,0.90609
4567.19163,0.90620
4565.26291,0.90654
4563.33420,0.90646
4561.40549,0.90601
4559.47678,0.90540
4557.54806,0.90455
4555.61935,0.90391
4553.69064,0.90375
4551.76192,0.90354
4549.83321,0.90315
4547.90450,0.90271
4545.97579,0.90204
4544.04707,0.90144
4542.11836,0.90144
4540.18965,0.90159
4538.26094,0.90116
4536.33222,0.90039
4534.40351,0.89994
4532.47480,0.89977
4530.54608,0.89948
4528.61737,0.89908
4526.68866,0.89876
4524.75995,0.89840
4522.83123,0.89797
4520.90252,0.89738
4518.97381,0.89634
4517.04510,0.89502
4515.11638,0.89400
4513.18767,0.89336
4511.25896,0.89278
4509.33025,0.89217
4507.40153,0.89137
4505.47282,0.89018
4503.54411,0.88899
4501.61539,0.88827
4499.68668,0.88755
4497.75797,0.88612
4495.82926,0.88470
4493.90054,0.88418
4491.97183,0.88391
4490.04312,0.88310
4488.11441,0.88208
4486.18569,0.88110
4484.25698,0.87997
4482.32827,0.87882
4480.39956,0.87777
4478.47084,0.87648
4476.54213,0.87463
4474.61342,0.87243
4472.68470,0.87063
4470.75599,0.86971
4468.82728,0.86919
4466.89857,0.86809
4464.96985,0.86591
4463.04114,0.86328
4461.11243,0.86108
4459.18372,0.85909
4457.25500,0.85675
4455.32629,0.85406
4453.39758,0.85109
4451.46886,0.84799
4449.54015,0.84516
4447.61144,0.84252
4445.68273,0.83956
4443.75401,0.83611
4441.82530,0.83242
4439.89659,0.82910
4437.96788,0.82655
4436.03916,0.82409
4434.11045,0.82107
4432.18174,0.81796
4430.25303,0.81526
4428.32431,0.81318
4426.39560,0.81150
4424.46689,0.80955
4422.53817,0.80713
4420.60946,0.80469
4418.68075,0.80218
4416.75204,0.79910
4414.82332,0.79554
4412.89461,0.79202
4410.96590,0.78831
4409.03719,0.78399
4407.10847,0.77955
4405.17976,0.77535
4403.25105,0.77089
4401.32234,0.76592
4399.39362,0.76076
4397.46491,0.75560
4395.53620,0.74990
4393.60748,0.74346
4391.67877,0.73715
4389.75006,0.73114
4387.82135,0.72502
4385.89263,0.71899
4383.96392,0.71295
4382.03521,0.70633
4380.10650,0.69893
4378.17778,0.69106
4376.24907,0.68309
4374.32036,0.67523
4372.39165,0.66727
4370.46293,0.65882
4368.53422,0.65003
4366.60551,0.64125
4364.67679,0.63230
4362.74808,0.62265
4360.81937,0.61186
4358.89066,0.59943
4356.96194,0.58488
4355.03323,0.56822
4353.10452,0.54990
4351.17581,0.53008
4349.24709,0.50883
4347.31838,0.48664
4345.38967,0.46434
4343.46095,0.44310
4341.53224,0.42382
4339.60353,0.40669
4337.67482,0.39136
4335.74610,0.37689
4333.81739,0.36190
4331.88868,0.34506
4329.95997,0.32523
4328.03125,0.30208
4326.10254,0.27797
4324.17383,0.26001
4322.24512,0.25879
4320.31640,0.28208
4318.38769,0.32762
4316.45898,0.38405
4314.53026,0.43890
4312.60155,0.48491
4310.67284,0.52058
4308.74413,0.54747
4306.81541,0.56754
4304.88670,0.58209
4302.95799,0.59221
4301.02928,0.59923
4299.10056,0.60383
4297.17185,0.60573
4295.24314,0.60515
4293.31443,0.60308
4291.38571,0.60015
4289.45700,0.59652
4287.52829,0.59233
4285.59957,0.58804
4283.67086,0.58378
4281.74215,0.57895
4279.81344,0.57311
4277.88472,0.56606
4275.95601,0.55790
4274.02730,0.54878
4272.09859,0.53816
4270.16987,0.52537
4268.24116,0.51024
4266.31245,0.49269
4264.38374,0.47270
4262.45502,0.45087
4260.52631,0.42822
4258.59760,0.40544
4256.66888,0.38349
4254.74017,0.36491
4252.81146,0.35470
4250.88275,0.35916
4248.95403,0.38060
4247.02532,0.41376
4245.09661,0.44926
4243.16790,0.47949
4241.23918,0.50169
4239.31047,0.51664
4237.38176,0.52560
4235.45304,0.52958
4233.52433,0.52960
4231.59562,0.52643
4229.66691,0.52097
4227.73819,0.51431
4225.80948,0.50743
4223.88077,0.50121
4221.95206,0.49663
4220.02334,0.49469
4218.09463,0.49546
4216.16592,0.49762
4214.23721,0.49964
4212.30849,0.50086
4210.37978,0.50086
4208.45107,0.49911
4206.52235,0.49533
4204.59364,0.48965
4202.66493,0.48249
4200.73622,0.47430
4198.80750,0.46552
4196.87879,0.45722
4194.95008,0.45108
4193.02137,0.44810
4191.09265,0.44763
4189.16394,0.44826
4187.23523,0.44897
4185.30652,0.44964
4183.37780,0.45059
4181.44909,0.45178
4179.52038,0.45286
4177.59166,0.45364
4175.66295,0.45429
4173.73424,0.45531
4171.80553,0.45691
4169.87681,0.45869
4167.94810,0.46025
4166.01939,0.46181
4164.09068,0.46356
4162.16196,0.46522
4160.23325,0.46678
4158.30454,0.46837
4156.37582,0.46962
4154.44711,0.47036
4152.51840,0.47074
4150.58969,0.47121
4148.66097,0.47240
4146.73226,0.47420
4144.80355,0.47605
4142.87484,0.47804
4140.94612,0.48037
4139.01741,0.48275
4137.08870,0.48481
4135.15999,0.48633
4133.23127,0.48750
4131.30256,0.48859
4129.37385,0.48988
4127.44513,0.49141
4125.51642,0.49285
4123.58771,0.49391
4121.65900,0.49474
4119.73028,0.49563
4117.80157,0.49657
4115.87286,0.49724
4113.94415,0.49758
4112.01543,0.49788
4110.08672,0.49818
4108.15801,0.49808
4106.22930,0.49769
4104.30058,0.49761
4102.37187,0.49804
4100.44316,0.49905
4098.51444,0.50064
4096.58573,0.50290
4094.65702,0.50639
4092.72831,0.51153
4090.79959,0.51825
4088.87088,0.52618
4086.94217,0.53487
4085.01346,0.54364
4083.08474,0.55166
4081.15603,0.55840
4079.22732,0.56398
4077.29861,0.56883
4075.36989,0.57328
4073.44118,0.57729
4071.51247,0.58084
4069.58375,0.58405
4067.65504,0.58698
4065.72633,0.58976
4063.79762,0.59251
4061.86890,0.59513
4059.94019,0.59759
4058.01148,0.60012
4056.08277,0.60262
4054.15405,0.60482
4052.22534,0.60676
4050.29663,0.60858
4048.36791,0.61035
4046.43920,0.61230
4044.51049,0.61478
4042.58178,0.61782
4040.65306,0.62099
4038.72435,0.62389
4036.79564,0.62622
4034.86693,0.62782
4032.93821,0.62899
4031.00950,0.62995
4029.08079,0.63034
4027.15208,0.63001
4025.22336,0.62996
4023.29465,0.63136
4021.36594,0.63450
4019.43722,0.63998
4017.50851,0.64803
4015.57980,0.65694
4013.65109,0.66498
4011.72237,0.67121
4009.79366,0.67546
4007.86495,0.67876
4005.93624,0.68165
4004.00752,0.68364
4002.07881,0.68510
4000.15010,0.68653
3998.22139,0.68721
3996.29267,0.68694
3994.36396,0.68661
3992.43525,0.68622
3990.50653,0.68552
3988.57782,0.68496
3986.64911,0.68424
3984.72040,0.68291
3982.79168,0.68161
3980.86297,0.68085
3978.93426,0.68026
3977.00555,0.67955
3975.07683,0.67944
3973.14812,0.68073
3971.21941,0.68308
3969.29070,0.68602
3967.36198,0.68919
3965.43327,0.69155
3963.50456,0.69243
3961.57584,0.69311
3959.64713,0.69488
3957.71842,0.69699
3955.78971,0.69831
3953.86099,0.69832
3951.93228,0.69682
3950.00357,0.69464
3948.07486,0.69394
3946.14614,0.69433
3944.21743,0.69375
3942.28872,0.69437
3940.36000,0.69751
3938.43129,0.69974
3936.50258,0.69876
3934.57387,0.69437
3932.64515,0.68844
3930.71644,0.68557
3928.78773,0.68641
3926.85902,0.68604
3924.93030,0.68364
3923.00159,0.68310
3921.07288,0.68361
3919.14417,0.68249
3917.21545,0.68242
3915.28674,0.68623
3913.35803,0.69092
3911.42931,0.69357
3909.50060,0.69351
3907.57189,0.68933
3905.64318,0.68081
3903.71446,0.67349
3901.78575,0.67305
3899.85704,0.67783
3897.92833,0.68518
3895.99961,0.69025
3894.07090,0.68912
3892.14219,0.68562
3890.21348,0.68730
3888.28476,0.68979
3886.35605,0.68761
3884.42734,0.68475
3882.49862,0.68430
3880.56991,0.68665
3878.64120,0.69241
3876.71249,0.69485
3874.78377,0.69143
3872.85506,0.68659
3870.92635,0.68462
3868.99764,0.68786
3867.06892,0.69149
3865.14021,0.69141
3863.21150,0.69436
3861.28278,0.70256
3859.35407,0.70722
3857.42536,0.70440
3855.49665,0.69528
3853.56793,0.68684
3851.63922,0.69460
3849.71051,0.70786
3847.78180,0.71526
3845.85308,0.71518
3843.92437,0.70933
3841.99566,0.70122
3840.06695,0.69361
3838.13823,0.69171
3836.20952,0.69803
3834.28081,0.70504
3832.35209,0.70962
3830.42338,0.71258
3828.49467,0.71323
3826.56596,0.71188
3824.63724,0.70878
3822.70853,0.70177
3820.77982,0.69568
3818.85111,0.69802
3816.92239,0.70330
3814.99368,0.71193
3813.06497,0.72188
3811.13626,0.72689
3809.20754,0.72535
3807.27883,0.72075
3805.35012,0.71834
3803.42140,0.71515
3801.49269,0.71337
3799.56398,0.71988
3797.63527,0.72825
3795.70655,0.73711
3793.77784,0.74629
3791.84913,0.75185
3789.92042,0.75350
3787.99170,0.75199
3786.06299,0.74866
3784.13428,0.74773
3782.20557,0.74860
3780.27685,0.74815
3778.34814,0.75087
3776.41943,0.75730
3774.49071,0.76035
3772.56200,0.75735
3770.63329,0.75168
3768.70458,0.74960
3766.77586,0.75144
3764.84715,0.75452
3762.91844,0.75630
3760.98973,0.75344
3759.06101,0.74890
3757.13230,0.74832
3755.20359,0.74707
3753.27487,0.73865
3751.34616,0.72606
3749.41745,0.72469
3747.48874,0.73067
3745.56002,0.73473
3743.63131,0.74008
3741.70260,0.74514
3739.77389,0.74526
3737.84517,0.73873
3735.91646,0.72919
3733.98775,0.73045
3732.05904,0.74309
3730.13032,0.75302
3728.20161,0.75464
3726.27290,0.75076
3724.34418,0.74796
3722.41547,0.74975
3720.48676,0.75465
3718.55805,0.75976
3716.62933,0.76170
3714.70062,0.75678
3712.77191,0.74441
3710.84320,0.73679
3708.91448,0.74418
3706.98577,0.75314
3705.05706,0.75514
3703.12835,0.75153
3701.19963,0.74903
3699.27092,0.75040
3697.34221,0.75022
3695.41349,0.74615
3693.48478,0.73789
3691.55607,0.72494
3689.62736,0.71593
3687.69864,0.72329
3685.76993,0.73499
3683.84122,0.74063
3681.91251,0.73935
3679.98379,0.73176
3678.05508,0.71974
3676.12637,0.70881
3674.19766,0.70932
3672.26894,0.71227
3670.34023,0.71136
3668.41152,0.71762
3666.48280,0.72777
3664.55409,0.73216
3662.62538,0.73071
3660.69667,0.72608
3658.76795,0.71936
3656.83924,0.71161
3654.91053,0.70597
3652.98182,0.69908
3651.05310,0.68364
3649.12439,0.66735
3647.19568,0.67267
3645.26696,0.68585
3643.33825,0.69415
3641.40954,0.69933
3639.48083,0.70420
3637.55211,0.70874
3635.62340,0.71158
3633.69469,0.71178
3631.76598,0.70824
3629.83726,0.70155
3627.90855,0.70239
3625.97984,0.71151
3624.05113,0.71572
3622.12241,0.71136
3620.19370,0.70089
3618.26499,0.69272
3616.33627,0.68893
3614.40756,0.68308
3612.47885,0.67568
3610.55014,0.66854
3608.62142,0.66094
3606.69271,0.65725
3604.76400,0.65857
3602.83529,0.66155
3600.90657,0.66893
3598.97786,0.68382
3597.04915,0.70223
3595.12044,0.72150
3593.19172,0.74056
3591.26301,0.75356
3589.33430,0.75748
3587.40558,0.76007
3585.47687,0.77073
3583.54816,0.78225
3581.61945,0.78852
3579.69073,0.79108
3577.76202,0.79276
3575.83331,0.79491
3573.90460,0.79756
3571.97588,0.79849
3570.04717,0.79378
3568.11846,0.78395
3566.18974,0.78110
3564.26103,0.78986
3562.33232,0.79897
3560.40361,0.80496
3558.47489,0.80959
3556.54618,0.81216
3554.61747,0.81143
3552.68876,0.81008
3550.76004,0.81089
3548.83133,0.81062
3546.90262,0.80771
3544.97391,0.80761
3543.04519,0.81236
3541.11648,0.81689
3539.18777,0.81836
3537.25905,0.81825
3535.33034,0.81897
3533.40163,0.82004
3531.47292,0.81902
3529.54420,0.81564
3527.61549,0.81282
3525.68678,0.81232
3523.75807,0.81364
3521.82935,0.81669
3519.90064,0.81986
3517.97193,0.82190
3516.04322,0.82341
3514.11450,0.82376
3512.18579,0.82170
3510.25708,0.81861
3508.32836,0.81735
3506.39965,0.81657
3504.47094,0.81407
3502.54223,0.81298
3500.61351,0.81492
3498.68480,0.81606
3496.75609,0.81525
3494.82738,0.81467
3492.89866,0.81450
3490.96995,0.81296
3489.04124,0.80987
3487.11253,0.80674
3485.18381,0.80332
3483.25510,0.79777
3481.32639,0.79092
3479.39767,0.78464
3477.46896,0.77717
3475.54025,0.76638
3473.61154,0.75315
3471.68282,0.73879
3469.75411,0.72305
3467.82540,0.70604
3465.89669,0.68932
3463.96797,0.67457
3462.03926,0.66317
3460.11055,0.65609
3458.18183,0.65311
3456.25312,0.65373
3454.32441,0.65761
3452.39570,0.66405
3450.46698,0.67167
3448.53827,0.68010
3446.60956,0.69110
3444.68085,0.70456
3442.75213,0.71841
3440.82342,0.73173
3438.89471,0.74381
3436.96600,0.75414
3435.03728,0.76288
3433.10857,0.77030
3431.17986,0.77688
3429.25114,0.78256
3427.32243,0.78686
3425.39372,0.78968
3423.46501,0.79133
3421.53629,0.79272
3419.60758,0.79506
3417.67887,0.79823
3415.75016,0.80101
3413.82144,0.80267
3411.89273,0.80364
3409.96402,0.80454
3408.03531,0.80521
3406.10659,0.80533
3404.17788,0.80525
3402.24917,0.80546
3400.32045,0.80534
3398.39174,0.80433
3396.46303,0.80316
3394.53432,0.80232
3392.60560,0.80184
3390.67689,0.80173
3388.74818,0.80130
3386.81947,0.80003
3384.89075,0.79828
3382.96204,0.79656
3381.03333,0.79529
3379.10462,0.79449
3377.17590,0.79398
3375.24719,0.79378
3373.31848,0.79389
3371.38976,0.79403
3369.46105,0.79381
3367.53234,0.79328
3365.60363,0.79333
3363.67491,0.79455
3361.74620,0.79634
3359.81749,0.79807
3357.88878,0.79991
3355.96006,0.80212
3354.03135,0.80454
3352.10264,0.80667
3350.17392,0.80810
3348.24521,0.80888
3346.31650,0.80949
3344.38779,0.81039
3342.45907,0.81137
3340.53036,0.81192
3338.60165,0.81189
3336.67294,0.81186
3334.74422,0.81261
3332.81551,0.81388
3330.88680,0.81490
3328.95809,0.81553
3327.02937,0.81608
3325.10066,0.81654
3323.17195,0.81680
3321.24323,0.81713
3319.31452,0.81744
3317.38581,0.81756
3315.45710,0.81781
3313.52838,0.81787
3311.59967,0.81746
3309.67096,0.81721
3307.74225,0.81772
3305.81353,0.81852
3303.88482,0.81867
3301.95611,0.81811
3300.02740,0.81746
3298.09868,0.81747
3296.16997,0.81798
3294.24126,0.81807
3292.31254,0.81789
3290.38383,0.81775
3288.45512,0.81748
3286.52641,0.81739
3284.59769,0.81730
3282.66898,0.81654
3280.74027,0.81541
3278.81156,0.81481
3276.88284,0.81452
3274.95413,0.81399
3273.02542,0.81380
3271.09670,0.81432
3269.16799,0.81446
3267.23928,0.81381
3265.31057,0.81318
3263.38185,0.81269
3261.45314,0.81186
3259.52443,0.81106
3257.59572,0.81074
3255.66700,0.81078
3253.73829,0.81091
3251.80958,0.81097
3249.88087,0.81061
3247.95215,0.80936
3246.02344,0.80763
3244.09473,0.80657
3242.16601,0.80635
3240.23730,0.80601
3238.30859,0.80509
3236.37988,0.80382
3234.45116,0.80234
3232.52245,0.80084
3230.59374,0.79951
3228.66503,0.79813
3226.73631,0.79675
3224.80760,0.79542
3222.87889,0.79361
3220.95018,0.79127
3219.02146,0.78933
3217.09275,0.78820
3215.16404,0.78723
3213.23532,0.78602
3211.30661,0.78436
3209.37790,0.78214
3207.44919,0.77992
3205.52047,0.77792
3203.59176,0.77597
3201.66305,0.77401
3199.73434,0.77175
3197.80562,0.76952
3195.87691,0.76816
3193.94820,0.76720
3192.01949,0.76552
3190.09077,0.76313
3188.16206,0.76059
3186.23335,0.75839
3184.30463,0.75689
3182.37592,0.75556
3180.44721,0.75343
3178.51850,0.75110
3176.58978,0.74966
3174.66107,0.74855
3172.73236,0.74695
3170.80365,0.74496
3168.87493,0.74301
3166.94622,0.74134
3165.01751,0.73983
3163.08879,0.73789
3161.16008,0.73539
3159.23137,0.73335
3157.30266,0.73217
3155.37394,0.73082
3153.44523,0.72873
3151.51652,0.72632
3149.58781,0.72415
3147.65909,0.72222
3145.73038,0.72019
3143.80167,0.71797
3141.87296,0.71566
3139.94424,0.71315
3138.01553,0.71004
3136.08682,0.70634
3134.15810,0.70270
3132.22939,0.69960
3130.30068,0.69635
3128.37197,0.69219
3126.44325,0.68763
3124.51454,0.68310
3122.58583,0.67819
3120.65712,0.67280
3118.72840,0.66714
3116.79969,0.66148
3114.87098,0.65568
3112.94227,0.64918
3111.01355,0.64189
3109.08484,0.63417
3107.15613,0.62611
3105.22741,0.61739
3103.29870,0.60730
3101.36999,0.59575
3099.44128,0.58332
3097.51256,0.56999
3095.58385,0.55585
3093.65514,0.54176
3091.72643,0.52822
3089.79771,0.51572
3087.86900,0.50492
3085.94029,0.49563
3084.01158,0.48724
3082.08286,0.47940
3080.15415,0.47207
3078.22544,0.46515
3076.29672,0.45839
3074.36801,0.45163
3072.43930,0.44482
3070.51059,0.43781
3068.58187,0.43031
3066.65316,0.42219
3064.72445,0.41386
3062.79574,0.40584
3060.86702,0.39792
3058.93831,0.38955
3057.00960,0.38064
3055.08088,0.37163
3053.15217,0.36261
3051.22346,0.35302
3049.29475,0.34266
3047.36603,0.33198
3045.43732,0.32122
3043.50861,0.31026
3041.57990,0.29898
3039.65118,0.28742
3037.72247,0.27552
3035.79376,0.26334
3033.86505,0.25140
3031.93633,0.24014
3030.00762,0.22962
3028.07891,0.21975
3026.15019,0.21038
3024.22148,0.20150
3022.29277,0.19302
3020.36406,0.18481
3018.43534,0.17704
3016.50663,0.17006
3014.57792,0.16400
3012.64921,0.15840
3010.72049,0.15269
3008.79178,0.14673
3006.86307,0.14033
3004.93436,0.13327
3003.00564,0.12561
3001.07693,0.11733
2999.14822,0.10828
2997.21950,0.09873
2995.29079,0.08904
2993.36208,0.07921
2991.43337,0.06947
2989.50465,0.06006
2987.57594,0.05078
2985.64723,0.04169
2983.71852,0.03327
2981.78980,0.02566
2979.86109,0.01883
2977.93238,0.01311
2976.00366,0.00867
2974.07495,0.00540
2972.14624,0.00326
2970.21753,0.00195
2968.28881,0.00104
2966.36010,0.00048
2964.43139,0.00028
2962.50268,0.00058
2960.57396,0.00077
2958.64525,0.00070
2956.71654,0.00034
2954.78783,0.00002
2952.85911,0.00013
2950.93040,0.00059
2949.00169,0.00093
2947.07297,0.00083
2945.14426,0.00030
2943.21555,0.00033
2941.28684,0.00038
2939.35812,0.00040
2937.42941,0.00038
2935.50070,0.00050
2933.57199,0.00055
2931.64327,0.00054
2929.71456,0.00058
2927.78585,0.00068
2925.85714,0.00063
2923.92842,0.00057
2921.99971,0.00064
2920.07100,0.00076
2918.14228,0.00071
2916.21357,0.00064
2914.28486,0.00066
2912.35615,0.00076
2910.42743,0.00089
2908.49872,0.00088
2906.57001,0.00067
2904.64130,0.00039
2902.71258,0.00021
2900.78387,0.00028
2898.85516,0.00054
2896.92645,0.00070
2894.99773,0.00054
2893.06902,0.00038
2891.14031,0.00050
2889.21159,0.00060
2887.28288,0.00035
2885.35417,0.00011
2883.42546,0.00017
2881.49674,0.00039
2879.56803,0.00032
2877.63932,0.00041
2875.71061,0.00064
2873.78189,0.00065
2871.85318,0.00045
2869.92447,0.00041
2867.99575,0.00033
2866.06704,0.00010
2864.13833,0.00038
2862.20962,0.00070
2860.28090,0.00061
2858.35219,0.00064
2856.42348,0.00056
2854.49477,0.00070
2852.56605,0.00083
2850.63734,0.00073
2848.70863,0.00053
2846.77992,0.00058
2844.85120,0.00067
2842.92249,0.00073
2840.99378,0.00074
2839.06506,0.00064
2837.13635,0.00036
2835.20764,0.00026
2833.27893,0.00038
2831.35021,0.00076
2829.42150,0.00148
2827.49279,0.00261
2825.56408,0.00415
2823.63536,0.00604
2821.70665,0.00837
2819.77794,0.01137
2817.84923,0.01508
2815.92051,0.01937
2813.99180,0.02418
2812.06309,0.02947
2810.13437,0.03512
2808.20566,0.04117
2806.27695,0.04773
2804.34824,0.05485
2802.41952,0.06252
2800.49081,0.07059
2798.56210,0.07902
2796.63339,0.08813
2794.70467,0.09805
2792.77596,0.10853
2790.84725,0.11935
2788.91854,0.13060
2786.98982,0.14239
2785.06111,0.15432
2783.13240,0.16596
2781.20368,0.17738
2779.27497,0.18871
2777.34626,0.19969
2775.41755,0.20979
2773.48883,0.21869
2771.56012,0.22651
2769.63141,0.23342
2767.70270,0.23938
2765.77398,0.24446
2763.84527,0.24899
2761.91656,0.25328
2759.98784,0.25752
2758.05913,0.26170
2756.13042,0.26563
2754.20171,0.26900
2752.27299,0.27157
2750.34428,0.27332
2748.41557,0.27428
2746.48686,0.27470
2744.55814,0.27493
2742.62943,0.27520
2740.70072,0.27565
2738.77201,0.27653
2736.84329,0.27813
2734.91458,0.28061
2732.98587,0.28395
2731.05715,0.28795
2729.12844,0.29231
2727.19973,0.29691
2725.27102,0.30178
2723.34230,0.30683
2721.41359,0.31179
2719.48488,0.31649
2717.55617,0.32093
2715.62745,0.32522
2713.69874,0.32944
2711.77003,0.33354
2709.84132,0.33737
2707.91260,0.34062
2705.98389,0.34319
2704.05518,0.34523
2702.12646,0.34669
2700.19775,0.34722
2698.26904,0.34654
2696.34033,0.34442
2694.41161,0.34073
2692.48290,0.33579
2690.55419,0.33030
2688.62548,0.32509
2686.69676,0.32072
2684.76805,0.31720
2682.83934,0.31428
2680.91062,0.31178
2678.98191,0.30968
2677.05320,0.30812
2675.12449,0.30700
2673.19577,0.30615
2671.26706,0.30586
2669.33835,0.30652
2667.40964,0.30816
2665.48092,0.31052
2663.55221,0.31331
2661.62350,0.31620
2659.69479,0.31907
2657.76607,0.32209
2655.83736,0.32525
2653.90865,0.32853
2651.97993,0.33193
2650.05122,0.33509
2648.12251,0.33756
2646.19380,0.33929
2644.26508,0.34040
2642.33637,0.34097
2640.40766,0.34118
2638.47895,0.34146
2636.55023,0.34251
2634.62152,0.34519
2632.69281,0.35005
2630.76410,0.35686
2628.83538,0.36498
2626.90667,0.37360
2624.97796,0.38213
2623.04924,0.39058
2621.12053,0.39902
2619.19182,0.40718
2617.26311,0.41498
2615.33439,0.42271
2613.40568,0.43051
2611.47697,0.43828
2609.54826,0.44587
2607.61954,0.45332
2605.69083,0.46071
2603.76212,0.46794
2601.83341,0.47469
2599.90469,0.48086
2597.97598,0.48679
2596.04727,0.49289
2594.11855,0.49947
2592.18984,0.50683
2590.26113,0.51493
2588.33242,0.52346
2586.40370,0.53213
2584.47499,0.54060
2582.54628,0.54858
2580.61757,0.55614
2578.68885,0.56340
2576.76014,0.57027
2574.83143,0.57666
2572.90271,0.58286
2570.97400,0.58938
2569.04529,0.59613
2567.11658,0.60244
2565.18786,0.60803
2563.25915,0.61303
2561.33044,0.61727
2559.40173,0.62069
2557.47301,0.62354
2555.54430,0.62596
2553.61559,0.62804
2551.68688,0.63029
2549.75816,0.63347
2547.82945,0.63825
2545.90074,0.64439
2543.97202,0.65057
2542.04331,0.65560
2540.11460,0.65875
2538.18589,0.65947
2536.25717,0.65789
2534.32846,0.65529
2532.39975,0.65313
2530.47104,0.65225
2528.54232,0.65323
2526.61361,0.65640
2524.68490,0.66141
2522.75619,0.66730
2520.82747,0.67322
2518.89876,0.67863
2516.97005,0.68326
2515.04133,0.68711
2513.11262,0.69048
2511.18391,0.69370
2509.25520,0.69677
2507.32648,0.69937
2505.39777,0.70115
2503.46906,0.70184
2501.54035,0.70149
2499.61163,0.70053
2497.68292,0.69939
2495.75421,0.69838
2493.82549,0.69763
2491.89678,0.69704
2489.96807,0.69652
2488.03936,0.69585
2486.11064,0.69476
2484.18193,0.69322
2482.25322,0.69135
2480.32451,0.68928
2478.39579,0.68725
2476.46708,0.68580
2474.53837,0.68606
2472.60966,0.68939
2470.68094,0.69546
2468.75223,0.70246
2466.82352,0.70907
2464.89480,0.71485
2462.96609,0.71966
2461.03738,0.72364
2459.10867,0.72730
2457.17995,0.73108
2455.25124,0.73508
2453.32253,0.73930
2451.39382,0.74346
2449.46510,0.74717
2447.53639,0.75029
2445.60768,0.75268
2443.67897,0.75402
2441.75025,0.75428
2439.82154,0.75397
2437.89283,0.75350
2435.96411,0.75304
2434.03540,0.75275
2432.10669,0.75274
2430.17798,0.75270
2428.24926,0.75207
2426.32055,0.75036
2424.39184,0.74730
2422.46313,0.74317
2420.53441,0.73883
2418.60570,0.73524
2416.67699,0.73321
2414.74828,0.73296
2412.81956,0.73409
2410.89085,0.73604
2408.96214,0.73823
2407.03342,0.73997
2405.10471,0.74080
2403.17600,0.74079
2401.24729,0.74032
2399.31857,0.73969
2397.38986,0.73928
2395.46115,0.73945
2393.53244,0.74031
2391.60372,0.74154
2389.67501,0.74255
2387.74630,0.74287
2385.81758,0.74213
2383.88887,0.73961
2381.96016,0.73469
2380.03145,0.72745
2378.10273,0.71857
2376.17402,0.70919
2374.24531,0.70035
2372.31660,0.69215
2370.38788,0.68436
2368.45917,0.67681
2366.53046,0.66916
2364.60175,0.66156
2362.67303,0.65474
2360.74432,0.64896
2358.81561,0.64417
2356.88689,0.64106
2354.95818,0.64064
2353.02947,0.64360
2351.10076,0.64848
2349.17204,0.64950
2347.24333,0.64233
2345.31462,0.63052
2343.38591,0.62133
2341.45719,0.61644
2339.52848,0.61396
2337.59977,0.61280
2335.67106,0.61232
2333.74234,0.61222
2331.81363,0.61254
2329.88492,0.61410
2327.95620,0.61723
2326.02749,0.62085
2324.09878,0.62432
2322.17007,0.62848
2320.24135,0.63414
2318.31264,0.64101
2316.38393,0.64795
2314.45522,0.65407
2312.52650,0.65963
2310.59779,0.66529
2308.66908,0.67125
2306.74037,0.67722
2304.81165,0.68268
2302.88294,0.68739
2300.95423,0.69159
2299.02551,0.69569
2297.09680,0.70000
2295.16809,0.70443
2293.23938,0.70869
2291.31066,0.71282
2289.38195,0.71697
2287.45324,0.72084
2285.52453,0.72383
2283.59581,0.72557
2281.66710,0.72618
2279.73839,0.72620
2277.80967,0.72627
2275.88096,0.72707
2273.95225,0.72909
2272.02354,0.73236
2270.09482,0.73629
2268.16611,0.74001
2266.23740,0.74290
2264.30869,0.74471
2262.37997,0.74564
2260.45126,0.74612
2258.52255,0.74645
2256.59384,0.74687
2254.66512,0.74776
2252.73641,0.74920
2250.80770,0.75098
2248.87898,0.75301
2246.95027,0.75531
2245.02156,0.75799
2243.09285,0.76110
2241.16413,0.76481
2239.23542,0.76921
2237.30671,0.77407
2235.37800,0.77895
2233.44928,0.78339
2231.52057,0.78698
2229.59186,0.78946
2227.66315,0.79086
2225.73443,0.79139
2223.80572,0.79122
2221.87701,0.79068
2219.94829,0.79019
2218.01958,0.78981
2216.09087,0.78940
2214.16216,0.78917
2212.23344,0.78919
2210.30473,0.78904
2208.37602,0.78847
2206.44731,0.78762
2204.51859,0.78634
2202.58988,0.78426
2200.66117,0.78126
2198.73245,0.77777
2196.80374,0.77430
2194.87503,0.77101
2192.94632,0.76798
2191.01760,0.76540
2189.08889,0.76321
2187.16018,0.76118
2185.23147,0.75910
2183.30275,0.75681
2181.37404,0.75441
2179.44533,0.75199
2177.51662,0.74956
2175.58790,0.74741
2173.65919,0.74575
2171.73048,0.74427
2169.80176,0.74288
2167.87305,0.74178
2165.94434,0.74092
2164.01563,0.73996
2162.08691,0.73865
2160.15820,0.73719
2158.22949,0.73586
2156.30078,0.73483
2154.37206,0.73430
2152.44335,0.73457
2150.51464,0.73600
2148.58593,0.73865
2146.65721,0.74238
2144.72850,0.74698
2142.79979,0.75196
2140.87107,0.75671
2138.94236,0.76086
2137.01365,0.76454
2135.08494,0.76813
2133.15622,0.77174
2131.22751,0.77523
2129.29880,0.77863
2127.37009,0.78188
2125.44137,0.78479
2123.51266,0.78721
2121.58395,0.78891
2119.65524,0.78978
2117.72652,0.79007
2115.79781,0.79017
2113.86910,0.79040
2111.94038,0.79098
2110.01167,0.79185
2108.08296,0.79274
2106.15425,0.79356
2104.22553,0.79426
2102.29682,0.79449
2100.36811,0.79404
2098.43940,0.79315
2096.51068,0.79219
2094.58197,0.79121
2092.65326,0.79025
2090.72454,0.78977
2088.79583,0.79014
2086.86712,0.79092
2084.93841,0.79141
2083.00969,0.79124
2081.08098,0.79036
2079.15227,0.78892
2077.22356,0.78714
2075.29484,0.78523
2073.36613,0.78350
2071.43742,0.78208
2069.50871,0.78080
2067.57999,0.77920
2065.65128,0.77751
2063.72257,0.77636
2061.79385,0.77513
2059.86514,0.77290
2057.93643,0.76981
2056.00772,0.76623
2054.07900,0.76251
2052.15029,0.75904
2050.22158,0.75595
2048.29287,0.75307
2046.36415,0.75008
2044.43544,0.74661
2042.50673,0.74272
2040.57802,0.73886
2038.64930,0.73497
2036.72059,0.73052
2034.79188,0.72573
2032.86316,0.72110
2030.93445,0.71660
2029.00574,0.71209
2027.07703,0.70742
2025.14831,0.70223
2023.21960,0.69672
2021.29089,0.69174
2019.36218,0.68862
2017.43346,0.69018
2015.50475,0.69892
2013.57604,0.71266
2011.64733,0.72707
2009.71861,0.73987
2007.78990,0.75064
2005.86119,0.75948
2003.93247,0.76642
2002.00376,0.77169
2000.07505,0.77570
1998.14634,0.77884
1996.21762,0.78084
1994.28891,0.78108
1992.36020,0.78138
1990.43149,0.78442
1988.50277,0.78921
1986.57406,0.79367
1984.64535,0.79693
1982.71663,0.79852
1980.78792,0.79860
1978.85921,0.79778
1976.93050,0.79650
1975.00178,0.79501
1973.07307,0.79347
1971.14436,0.79155
1969.21565,0.78866
1967.28693,0.78636
1965.35822,0.78688
1963.42951,0.78819
1961.50080,0.78774
1959.57208,0.78597
1957.64337,0.78364
1955.71466,0.78122
1953.78594,0.77962
1951.85723,0.77901
1949.92852,0.77862
1947.99981,0.77776
1946.07109,0.77599
1944.14238,0.77357
1942.21367,0.77317
1940.28496,0.77580
1938.35624,0.77769
1936.42753,0.77690
1934.49882,0.77496
1932.57011,0.77332
1930.64139,0.77245
1928.71268,0.77196
1926.78397,0.77031
1924.85525,0.76615
1922.92654,0.76162
1920.99783,0.75921
1919.06912,0.75643
1917.14040,0.75328
1915.21169,0.75163
1913.28298,0.74869
1911.35427,0.74290
1909.42555,0.73702
1907.49684,0.73400
1905.56813,0.73219
1903.63941,0.72872
1901.71070,0.72356
1899.78199,0.71756
1897.85328,0.71098
1895.92456,0.70524
1893.99585,0.70324
1892.06714,0.70399
1890.13843,0.70590
1888.20971,0.71068
1886.28100,0.71603
1884.35229,0.71878
1882.42358,0.71921
1880.49486,0.71772
1878.56615,0.71456
1876.63744,0.71058
1874.70872,0.70592
1872.78001,0.69937
1870.85130,0.68969
1868.92259,0.68084
1866.99387,0.68176
1865.06516,0.68866
1863.13645,0.69297
1861.20774,0.69382
1859.27902,0.69381
1857.35031,0.69453
1855.42160,0.69553
1853.49289,0.69628
1851.56417,0.69623
1849.63546,0.69428
1847.70675,0.69000
1845.77803,0.68422
1843.84932,0.68107
1841.92061,0.68261
1839.99190,0.68258
1838.06318,0.67790
1836.13447,0.67186
1834.20576,0.66612
1832.27705,0.65743
1830.34833,0.64606
1828.41962,0.63859
1826.49091,0.63431
1824.56220,0.62843
1822.63348,0.62277
1820.70477,0.61716
1818.77606,0.60982
1816.84734,0.60222
1814.91863,0.59503
1812.98992,0.58697
1811.06121,0.57836
1809.13249,0.57183
1807.20378,0.56637
1805.27507,0.55869
1803.34636,0.54725
1801.41764,0.53305
1799.48893,0.52024
1797.56022,0.50959
1795.63150,0.49824
1793.70279,0.48376
1791.77408,0.46814
1789.84537,0.45768
1787.91665,0.44856
1785.98794,0.43502
1784.05923,0.41801
1782.13052,0.40073
1780.20180,0.38334
1778.27309,0.36631
1776.34438,0.34852
1774.41567,0.32566
1772.48695,0.29378
1770.55824,0.25954
1768.62953,0.22782
1766.70081,0.19356
1764.77210,0.15994
1762.84339,0.12634
1760.91468,0.09392
1758.98596,0.07008
1757.05725,0.04951
1755.12854,0.03080
1753.19983,0.01730
1751.27111,0.00791
1749.34240,0.00219
1747.41369,0.00028
1745.48498,0.00026
1743.55626,0.00042
1741.62755,0.00068
1739.69884,0.00071
1737.77012,0.00087
1735.84141,0.00097
1733.91270,0.00073
1731.98399,0.00046
1730.05527,0.00031
1728.12656,0.00076
1726.19785,0.00190
1724.26914,0.00571
1722.34042,0.01317
1720.41171,0.02420
1718.48300,0.04353
1716.55429,0.07559
1714.62557,0.10738
1712.69686,0.13232
1710.76815,0.15398
1708.83943,0.17221
1706.91072,0.18704
1704.98201,0.19798
1703.05330,0.20314
1701.12458,0.20340
1699.19587,0.20311
1697.26716,0.21261
1695.33845,0.23672
1693.40973,0.26440
1691.48102,0.28959
1689.55231,0.31813
1687.62359,0.34497
1685.69488,0.36852
1683.76617,0.40298
1681.83746,0.43555
1679.90874,0.45583
1677.98003,0.47014
1676.05132,0.48099
1674.12261,0.49010
1672.19389,0.49587
1670.26518,0.50118
1668.33647,0.51299
1666.40776,0.52357
1664.47904,0.52650
1662.55033,0.52591
1660.62162,0.52720
1658.69290,0.52723
1656.76419,0.52178
1654.83548,0.50889
1652.90677,0.49028
1650.97805,0.48079
1649.04934,0.47333
1647.12063,0.47260
1645.19192,0.49757
1643.26320,0.52914
1641.33449,0.55331
1639.40578,0.56804
1637.47707,0.57549
1635.54835,0.59081
1633.61964,0.61423
1631.69093,0.62849
1629.76221,0.63458
1627.83350,0.63711
1625.90479,0.63803
1623.97608,0.63798
1622.04736,0.64091
1620.11865,0.64391
1618.18994,0.64235
1616.26123,0.64348
1614.33251,0.65247
1612.40380,0.65926
1610.47509,0.66053
1608.54637,0.65988
1606.61766,0.66006
1604.68895,0.65935
1602.76024,0.65704
1600.83152,0.65556
1598.90281,0.65509
1596.97410,0.65382
1595.04539,0.65274
1593.11667,0.65313
1591.18796,0.65369
1589.25925,0.65311
1587.33054,0.65123
1585.40182,0.64800
1583.47311,0.64408
1581.54440,0.63994
1579.61568,0.63355
1577.68697,0.62371
1575.75826,0.61744
1573.82955,0.61903
1571.90083,0.61690
1569.97212,0.60832
1568.04341,0.60205
1566.11470,0.59907
1564.18598,0.59431
1562.25727,0.58681
1560.32856,0.57315
1558.39985,0.56069
1556.47113,0.56815
1554.54242,0.57717
1552.61371,0.58143
1550.68499,0.58140
1548.75628,0.57898
1546.82757,0.57290
1544.89886,0.55966
1542.97014,0.54206
1541.04143,0.53067
1539.11272,0.53754
1537.18401,0.54692
1535.25529,0.54647
1533.32658,0.54138
1531.39787,0.53888
1529.46916,0.53482
1527.54044,0.52496
1525.61173,0.51325
1523.68302,0.50331
1521.75430,0.49486
1519.82559,0.49133
1517.89688,0.48881
1515.96817,0.48590
1514.03945,0.48357
1512.11074,0.47702
1510.18203,0.46421
1508.25332,0.44591
1506.32460,0.43321
1504.39589,0.43407
1502.46718,0.43165
1500.53846,0.42150
1498.60975,0.40436
1496.68104,0.38527
1494.75233,0.37070
1492.82361,0.35688
1490.89490,0.33448
1488.96619,0.30254
1487.03748,0.27271
1485.10876,0.24407
1483.18005,0.20844
1481.25134,0.16122
1479.32263,0.10932
1477.39391,0.06209
1475.46520,0.02519
1473.53649,0.00550
1471.60777,0.00065
1469.67906,0.00021
1467.75035,0.00026
1465.82164,0.00048
1463.89292,0.00056
1461.96421,0.00035
1460.03550,0.00006
1458.10679,0.00029
1456.17807,0.00097
1454.24936,0.00175
1452.32065,0.00305
1450.39194,0.00485
1448.46322,0.00679
1446.53451,0.00846
1444.60580,0.00951
1442.67708,0.01022
1440.74837,0.01085
1438.81966,0.01169
1436.89095,0.01366
1434.96223,0.01750
1433.03352,0.02291
1431.10481,0.03199
1429.17610,0.04696
1427.24738,0.06519
1425.31867,0.08637
1423.38996,0.11101
1421.46125,0.13483
1419.53253,0.16101
1417.60382,0.19131
1415.67511,0.21546
1413.74639,0.23413
1411.81768,0.25095
1409.88897,0.26571
1407.96026,0.27624
1406.03154,0.28181
1404.10283,0.28349
1402.17412,0.28113
1400.24541,0.27280
1398.31669,0.25810
1396.38798,0.23832
1394.45927,0.21211
1392.53055,0.18267
1390.60184,0.15252
1388.67313,0.11684
1386.74442,0.07664
1384.81570,0.04439
1382.88699,0.02373
1380.95828,0.01111
1379.02957,0.00470
1377.10085,0.00205
1375.17214,0.00103
1373.24343,0.00067
1371.31472,0.00060
1369.38600,0.00065
1367.45729,0.00074
1365.52858,0.00120
1363.59986,0.00247
1361.67115,0.00521
1359.74244,0.00902
1357.81373,0.01347
1355.88501,0.01894
1353.95630,0.02650
1352.02759,0.03814
1350.09888,0.05669
1348.17016,0.08392
1346.24145,0.11792
1344.31274,0.15372
1342.38403,0.18697
1340.45531,0.21914
1338.52660,0.25256
1336.59789,0.28246
1334.66917,0.30443
1332.74046,0.31801
1330.81175,0.32380
1328.88304,0.32302
1326.95432,0.31709
1325.02561,0.30740
1323.09690,0.29447
1321.16819,0.27843
1319.23947,0.26033
1317.31076,0.24220
1315.38205,0.22479
1313.45333,0.20771
1311.52462,0.19202
1309.59591,0.17875
1307.66720,0.16759
1305.73848,0.15835
1303.80977,0.15079
1301.88106,0.14442
1299.95235,0.13885
1298.02363,0.13396
1296.09492,0.12961
1294.16621,0.12529
1292.23750,0.12021
1290.30878,0.11374
1288.38007,0.10575
1286.45136,0.09654
1284.52264,0.08643
1282.59393,0.07566
1280.66522,0.06464
1278.73651,0.05358
1276.80779,0.04275
1274.87908,0.03262
1272.95037,0.02360
1271.02166,0.01599
1269.09294,0.00998
1267.16423,0.00556
1265.23552,0.00264
1263.30681,0.00096
1261.37809,0.00019
1259.44938,0.00005
1257.52067,0.00024
1255.59195,0.00037
1253.66324,0.00029
1251.73453,0.00008
1249.80582,0.00009
1247.87710,0.00035
1245.94839,0.00019
1244.01968,0.00018
1242.09097,0.00033
1240.16225,0.00032
1238.23354,0.00027
1236.30483,0.00026
1234.37612,0.00029
1232.44740,0.00035
1230.51869,0.00046
1228.58998,0.00038
1226.66126,0.00036
1224.73255,0.00055
1222.80384,0.00092
1220.87513,0.00175
1218.94641,0.00338
1217.01770,0.00630
1215.08899,0.01079
1213.16028,0.01704
1211.23156,0.02519
1209.30285,0.03540
1207.37414,0.04763
1205.44542,0.06126
1203.51671,0.07529
1201.58800,0.08903
1199.65929,0.10256
1197.73057,0.11598
1195.80186,0.12902
1193.87315,0.14129
1191.94444,0.15261
1190.01572,0.16298
1188.08701,0.17244
1186.15830,0.18118
1184.22959,0.18914
1182.30087,0.19577
1180.37216,0.20104
1178.44345,0.20590
1176.51473,0.21097
1174.58602,0.21567
1172.65731,0.21919
1170.72860,0.22132
1168.79988,0.22210
1166.87117,0.22136
1164.94246,0.21878
1163.01375,0.21430
1161.08503,0.20794
1159.15632,0.19966
1157.22761,0.18955
1155.29890,0.17774
1153.37018,0.16503
1151.44147,0.15314
1149.51276,0.14379
1147.58404,0.13776
1145.65533,0.13463
1143.72662,0.13317
1141.79791,0.13232
1139.86919,0.13134
1137.94048,0.12952
1136.01177,0.12667
1134.08306,0.12341
1132.15434,0.12044
1130.22563,0.11836
1128.29692,0.11788
1126.36821,0.11932
1124.43949,0.12242
1122.51078,0.12654
1120.58207,0.13111
1118.65335,0.13570
1116.72464,0.14009
1114.79593,0.14438
1112.86722,0.14867
1110.93850,0.15264
1109.00979,0.15590
1107.08108,0.15829
1105.15237,0.15970
1103.22365,0.15992
1101.29494,0.15901
1099.36623,0.15721
1097.43751,0.15452
1095.50880,0.15087
1093.58009,0.14643
1091.65138,0.14135
1089.72266,0.13577
1087.79395,0.12993
1085.86524,0.12404
1083.93653,0.11824
1082.00781,0.11278
1080.07910,0.10773
1078.15039,0.10305
1076.22168,0.09858
1074.29296,0.09396
1072.36425,0.08916
1070.43554,0.08460
1068.50682,0.08082
1066.57811,0.07811
1064.64940,0.07621
1062.72069,0.07444
1060.79197,0.07228
1058.86326,0.06935
1056.93455,0.06502
1055.00584,0.05901
1053.07712,0.05181
1051.14841,0.04452
1049.21970,0.03808
1047.29099,0.03285
1045.36227,0.02907
1043.43356,0.02684
1041.50485,0.02553
1039.57613,0.02404
1037.64742,0.02141
1035.71871,0.01749
1033.79000,0.01304
1031.86128,0.00888
1029.93257,0.00556
1028.00386,0.00335
1026.07515,0.00191
1024.14643,0.00087
1022.21772,0.00026
1020.28901,0.00012
1018.36029,0.00076
1016.43158,0.00200
1014.50287,0.00415
1012.57416,0.00915
1010.64544,0.01932
1008.71673,0.03552
1006.78802,0.05694
1004.85931,0.08174
1002.93059,0.10769
1001.00188,0.13288
999.07317,0.15602
997.14446,0.17614
995.21574,0.19269
993.28703,0.20592
991.35832,0.21640
989.42960,0.22452
987.50089,0.23028
985.57218,0.23350
983.64347,0.23421
981.71475,0.23247
979.78604,0.22818
977.85733,0.22157
975.92862,0.21315
973.99990,0.20327
972.07119,0.19242
970.14248,0.18117
968.21377,0.16996
966.28505,0.15943
964.35634,0.15053
962.42763,0.14413
960.49891,0.14068
958.57020,0.14005
956.64149,0.14182
954.71278,0.14560
952.78406,0.15090
950.85535,0.15728
948.92664,0.16428
946.99793,0.17115
945.06921,0.17649
943.14050,0.17892
941.21179,0.17849
939.28308,0.17731
937.35436,0.17923
935.42565,0.18832
933.49694,0.20742
931.56822,0.23713
929.63951,0.27477
927.71080,0.31497
925.78209,0.35218
923.85337,0.38287
921.92466,0.40620
919.99595,0.42340
918.06724,0.43623
916.13852,0.44570
914.20981,0.45236
912.28110,0.45707
910.35238,0.46115
908.42367,0.46573
906.49496,0.47119
904.56625,0.47676
902.63753,0.48096
900.70882,0.48278
898.78011,0.48228
896.85140,0.48059
894.92268,0.47938
892.99397,0.47943
891.06526,0.48063
889.13655,0.48318
887.20783,0.48738
885.27912,0.49240
883.35041,0.49663
881.42169,0.49923
879.49298,0.50024
877.56427,0.49991
875.63556,0.49851
873.70684,0.49636
871.77813,0.49407
869.84942,0.49274
867.92071,0.49402
865.99199,0.49861
864.06328,0.50520
862.13457,0.51185
860.20586,0.51728
858.27714,0.52123
856.34843,0.52467
854.41972,0.52906
852.49100,0.53504
850.56229,0.54216
848.63358,0.54957
846.70487,0.55668
844.77615,0.56322
842.84744,0.56891
840.91873,0.57376
838.99002,0.57816
837.06130,0.58273
835.13259,0.58805
833.20388,0.59407
831.27516,0.60023
829.34645,0.60604
827.41774,0.61113
825.48903,0.61516
823.56031,0.61742
821.63160,0.61708
819.70289,0.61424
817.77418,0.60984
815.84546,0.60452
813.91675,0.59876
811.98804,0.59319
810.05933,0.58799
808.13061,0.58280
806.20190,0.57735
804.27319,0.57177
802.34447,0.56688
800.41576,0.56397
798.48705,0.56406
796.55834,0.56789
794.62962,0.57574
792.70091,0.58681
790.77220,0.59911
788.84349,0.60990
786.91477,0.61700
784.98606,0.61959
783.05735,0.61777
781.12864,0.61261
779.19992,0.60590
777.27121,0.59884
775.34250,0.59222
773.41378,0.58647
771.48507,0.58191
769.55636,0.57878
767.62765,0.57645
765.69893,0.57362
763.77022,0.56915
761.84151,0.56227
759.91280,0.55304
757.98408,0.54221
756.05537,0.53038
754.12666,0.51773
752.19795,0.50424
750.26923,0.48954
748.34052,0.47230
746.41181,0.45090
744.48309,0.42426
742.55438,0.39175
740.62567,0.35298
738.69696,0.30696
736.76824,0.25032
734.83953,0.17895
732.91082,0.10074
730.98211,0.04080
729.05339,0.01508
727.12468,0.01133
725.19597,0.01044
723.26725,0.00659
721.33854,0.00284
719.40983,0.00328
717.48112,0.01518
715.55240,0.04934
713.62369,0.10996
711.69498,0.18839
709.76627,0.27122
707.83755,0.34937
705.90884,0.41822
703.98013,0.47647
702.05142,0.52612
700.12270,0.57152
698.19399,0.61526
696.26528,0.65459
694.33656,0.68502
692.40785,0.70517
690.47914,0.71711
688.55043,0.72491
686.62171,0.73197
684.69300,0.73900
682.76429,0.74608
680.83558,0.75367
678.90686,0.76057
676.97815,0.76380
675.04944,0.76120
673.12073,0.75201
671.19201,0.73506
669.26330,0.71581
667.33459,0.71527
665.40587,0.73209
663.47716,0.74163
661.54845,0.74058
659.61974,0.73423
657.69102,0.72319
655.76231,0.70601
653.83360,0.68237
651.90489,0.65333
649.97617,0.62213
648.04746,0.59404
646.11875,0.57341
644.19004,0.56220
642.26132,0.56111
640.33261,0.56840
638.40390,0.57841
636.47518,0.58130
634.54647,0.56811
632.61776,0.53954
630.68905,0.50855
628.76033,0.49111
626.83162,0.49459
624.90291,0.51444
622.97420,0.53863
621.04548,0.55429
619.11677,0.54935
617.18806,0.51356
615.25934,0.44458
613.33063,0.35470
611.40192,0.27007
609.47321,0.21923
607.54449,0.21953
605.61578,0.27058
603.68707,0.35397
601.75836,0.44227
599.82964,0.51779
