7497.33348,0.02426
7495.40466,0.03058
7493.47584,0.03526
7491.54702,0.03595
7489.61819,0.03192
7487.68937,0.02831
7485.76055,0.02978
7483.83173,0.03525
7481.90290,0.03835
7479.97408,0.03946
7478.04526,0.04102
7476.11644,0.04484
7474.18761,0.04606
7472.25879,0.04219
7470.32997,0.03894
7468.40115,0.03777
7466.47232,0.03583
7464.54350,0.03436
7462.61468,0.03273
7460.68585,0.02794
7458.75703,0.02093
7456.82821,0.02285
7454.89939,0.03336
7452.97056,0.04322
7451.04174,0.04706
7449.11292,0.04461
7447.18410,0.03846
7445.25527,0.03404
7443.32645,0.03156
7441.39763,0.03118
7439.46881,0.03413
7437.53998,0.03988
7435.61116,0.04317
7433.68234,0.04006
7431.75352,0.03375
7429.82469,0.03227
7427.89587,0.03367
7425.96705,0.02893
7424.03823,0.02143
7422.10940,0.02421
7420.18058,0.03463
7418.25176,0.03915
7416.32293,0.03649
7414.39411,0.03630
7412.46529,0.03767
7410.53647,0.03709
7408.60764,0.03411
7406.67882,0.02955
7404.75000,0.02881
7402.82118,0.03674
7400.89235,0.04501
7398.96353,0.04887
7397.03471,0.04648
7395.10589,0.03935
7393.17706,0.03076
7391.24824,0.02601
7389.31942,0.02802
7387.39060,0.03699
7385.46177,0.04300
7383.53295,0.04390
7381.60413,0.04378
7379.67531,0.03943
7377.74648,0.03071
7375.81766,0.02470
7373.88884,0.02005
7371.96001,0.02007
7370.03119,0.02807
7368.10237,0.03381
7366.17355,0.03023
7364.24472,0.02655
7362.31590,0.02721
7360.38708,0.03358
7358.45826,0.04129
7356.52943,0.04311
7354.60061,0.03967
7352.67179,0.03497
7350.74297,0.03127
7348.81414,0.02813
7346.88532,0.02558
7344.95650,0.02745
7343.02768,0.03143
7341.09885,0.03367
7339.17003,0.03683
7337.24121,0.04114
7335.31239,0.04137
7333.38356,0.03890
7331.45474,0.03938
7329.52592,0.04313
7327.59709,0.04495
7325.66827,0.04136
7323.73945,0.03357
7321.81063,0.02840
7319.88180,0.02993
7317.95298,0.03726
7316.02416,0.04277
7314.09534,0.04194
7312.16651,0.04121
7310.23769,0.04227
7308.30887,0.03828
7306.38005,0.03616
7304.45122,0.03950
7302.52240,0.04279
7300.59358,0.04395
7298.66476,0.04124
7296.73593,0.03417
7294.80711,0.02976
7292.87829,0.03104
7290.94947,0.03408
7289.02064,0.03709
7287.09182,0.03821
7285.16300,0.03553
7283.23417,0.03112
7281.30535,0.02747
7279.37653,0.02822
7277.44771,0.03329
7275.51888,0.03778
7273.59006,0.03829
7271.66124,0.03364
7269.73242,0.02861
7267.80359,0.03156
7265.87477,0.04049
7263.94595,0.04796
7262.01713,0.04936
7260.08830,0.04384
7258.15948,0.03669
7256.23066,0.03621
7254.30184,0.03911
7252.37301,0.03723
7250.44419,0.03390
7248.51537,0.03714
7246.58655,0.04400
7244.65772,0.04612
7242.72890,0.04018
7240.80008,0.03642
7238.87125,0.03907
7236.94243,0.03901
7235.01361,0.03382
7233.08479,0.02984
7231.15596,0.02772
7229.22714,0.02617
7227.29832,0.02596
7225.36950,0.02691
7223.44067,0.02904
7221.51185,0.03227
7219.58303,0.03267
7217.65421,0.02993
7215.72538,0.03075
7213.79656,0.03737
7211.86774,0.04285
7209.93892,0.04089
7208.01009,0.03470
7206.08127,0.03261
7204.15245,0.03270
7202.22363,0.02828
7200.29480,0.02390
7198.36598,0.02627
7196.43716,0.03272
7194.50833,0.03877
7192.57951,0.04104
7190.65069,0.03996
7188.72187,0.04161
7186.79304,0.04444
7184.86422,0.04148
7182.93540,0.03612
7181.00658,0.03414
7179.07775,0.03453
7177.14893,0.03742
7175.22011,0.04166
7173.29129,0.04177
7171.36246,0.03895
7169.43364,0.03437
7167.50482,0.02836
7165.57600,0.02579
7163.64717,0.02765
7161.71835,0.02797
7159.78953,0.02818
7157.86071,0.03090
7155.93188,0.03544
7154.00306,0.03685
7152.07424,0.03182
7150.14541,0.02621
7148.21659,0.02783
7146.28777,0.03385
7144.35895,0.03885
7142.43012,0.04238
7140.50130,0.04218
7138.57248,0.03678
7136.64366,0.03511
7134.71483,0.04100
7132.78601,0.04786
7130.85719,0.04926
7128.92837,0.04661
7126.99954,0.04179
7125.07072,0.03457
7123.14190,0.02888
7121.21308,0.02746
7119.28425,0.02841
7117.35543,0.03252
7115.42661,0.03735
7113.49779,0.04059
7111.56896,0.04237
7109.64014,0.04164
7107.71132,0.03793
7105.78249,0.03302
7103.85367,0.03159
7101.92485,0.03682
7099.99603,0.04139
7098.06720,0.03990
7096.13838,0.03852
7094.20956,0.04004
7092.28074,0.04154
7090.35191,0.04301
7088.42309,0.04145
7086.49427,0.03728
7084.56545,0.03577
7082.63662,0.03487
7080.70780,0.03218
7078.77898,0.03136
7076.85016,0.03217
7074.92133,0.03414
7072.99251,0.03775
7071.06369,0.04067
7069.13487,0.03947
7067.20604,0.03820
7065.27722,0.04133
7063.34840,0.04526
7061.41957,0.04343
7059.49075,0.03826
7057.56193,0.03329
7055.63311,0.02761
7053.70428,0.02380
7051.77546,0.02453
7049.84664,0.02598
7047.91782,0.02710
7045.98899,0.02839
7044.06017,0.02808
7042.13135,0.02740
7040.20253,0.03066
7038.27370,0.03473
7036.34488,0.03698
7034.41606,0.03636
7032.48724,0.03317
7030.55841,0.03019
7028.62959,0.02923
7026.70077,0.02862
7024.77195,0.02770
7022.84312,0.02741
7020.91430,0.02790
7018.98548,0.02689
7017.05665,0.02584
7015.12783,0.02679
7013.19901,0.02948
7011.27019,0.03409
7009.34136,0.03759
7007.41254,0.03701
7005.48372,0.03361
7003.55490,0.03000
7001.62607,0.02972
6999.69725,0.03385
6997.76843,0.03872
6995.83961,0.03957
6993.91078,0.03822
6991.98196,0.03750
6990.05314,0.03581
6988.12432,0.03251
6986.19549,0.03047
6984.26667,0.03126
6982.33785,0.03205
6980.40903,0.03139
6978.48020,0.03177
6976.55138,0.03190
6974.62256,0.02947
6972.69373,0.02581
6970.76491,0.02625
6968.83609,0.03149
6966.90727,0.03606
6964.97844,0.03576
6963.04962,0.03292
6961.12080,0.03191
6959.19198,0.03062
6957.26315,0.02806
6955.33433,0.02980
6953.40551,0.03303
6951.47669,0.03173
6949.54786,0.03029
6947.61904,0.03287
6945.69022,0.03605
6943.76140,0.03614
6941.83257,0.03272
6939.90375,0.02968
6937.97493,0.02955
6936.04611,0.03055
6934.11728,0.03221
6932.18846,0.03386
6930.25964,0.03375
6928.33081,0.03651
6926.40199,0.04215
6924.47317,0.04397
6922.54435,0.04159
6920.61552,0.03839
6918.68670,0.03575
6916.75788,0.03456
6914.82906,0.03299
6912.90023,0.02968
6910.97141,0.02768
6909.04259,0.02780
6907.11377,0.02875
6905.18494,0.03162
6903.25612,0.03493
6901.32730,0.03525
6899.39848,0.03306
6897.46965,0.03197
6895.54083,0.03330
6893.61201,0.03612
6891.68319,0.04027
6889.75436,0.04241
6887.82554,0.03785
6885.89672,0.03074
6883.96789,0.02712
6882.03907,0.02607
6880.11025,0.02546
6878.18143,0.02485
6876.25260,0.02492
6874.32378,0.02750
6872.39496,0.03087
6870.46614,0.03310
6868.53731,0.03377
6866.60849,0.03361
6864.67967,0.03450
6862.75085,0.03575
6860.82202,0.03535
6858.89320,0.03383
6856.96438,0.03125
6855.03556,0.03035
6853.10673,0.03239
6851.17791,0.03422
6849.24909,0.03429
6847.32027,0.03303
6845.39144,0.03143
6843.46262,0.03169
6841.53380,0.03420
6839.60497,0.03620
6837.67615,0.03437
6835.74733,0.03097
6833.81851,0.03140
6831.88968,0.03531
6829.96086,0.03708
6828.03204,0.03600
6826.10322,0.03361
6824.17439,0.03056
6822.24557,0.02865
6820.31675,0.02865
6818.38793,0.02999
6816.45910,0.03216
6814.53028,0.03273
6812.60146,0.03118
6810.67264,0.02821
6808.74381,0.02677
6806.81499,0.02973
6804.88617,0.03367
6802.95734,0.03343
6801.02852,0.03224
6799.09970,0.03266
6797.17088,0.03331
6795.24205,0.03262
6793.31323,0.03180
6791.38441,0.03276
6789.45559,0.03444
6787.52676,0.03338
6785.59794,0.02968
6783.66912,0.02762
6781.74030,0.02895
6779.81147,0.03048
6777.88265,0.03018
6775.95383,0.02956
6774.02501,0.03098
6772.09618,0.03351
6770.16736,0.03488
6768.23854,0.03567
6766.30972,0.03694
6764.38089,0.03717
6762.45207,0.03698
6760.52325,0.03923
6758.59442,0.04200
6756.66560,0.04019
6754.73678,0.03568
6752.80796,0.03539
6750.87913,0.03709
6748.95031,0.03350
6747.02149,0.02831
6745.09267,0.02925
6743.16384,0.03627
6741.23502,0.04263
6739.30620,0.04330
6737.37738,0.03910
6735.44855,0.03426
6733.51973,0.03158
6731.59091,0.03011
6729.66209,0.02833
6727.73326,0.02690
6725.80444,0.02688
6723.87562,0.02884
6721.94680,0.03145
6720.01797,0.03334
6718.08915,0.03517
6716.16033,0.03770
6714.23150,0.03941
6712.30268,0.03907
6710.37386,0.03656
6708.44504,0.03348
6706.51621,0.03308
6704.58739,0.03427
6702.65857,0.03374
6700.72975,0.03233
6698.80092,0.03129
6696.87210,0.03144
6694.94328,0.03291
6693.01446,0.03403
6691.08563,0.03265
6689.15681,0.02986
6687.22799,0.02854
6685.29917,0.02794
6683.37034,0.02837
6681.44152,0.03117
6679.51270,0.03241
6677.58388,0.03103
6675.65505,0.02995
6673.72623,0.02952
6671.79741,0.02939
6669.86858,0.02961
6667.93976,0.02905
6666.01094,0.02862
6664.08212,0.02930
6662.15329,0.02996
6660.22447,0.02986
6658.29565,0.02816
6656.36683,0.02605
6654.43800,0.02755
6652.50918,0.03250
6650.58036,0.03714
6648.65154,0.03890
6646.72271,0.03844
6644.79389,0.03761
6642.86507,0.03612
6640.93625,0.03198
6639.00742,0.02674
6637.07860,0.02407
6635.14978,0.02426
6633.22096,0.02605
6631.29213,0.02823
6629.36331,0.02957
6627.43449,0.03064
6625.50566,0.03099
6623.57684,0.03064
6621.64802,0.03227
6619.71920,0.03475
6617.79037,0.03378
6615.86155,0.03092
6613.93273,0.03171
6612.00391,0.03605
6610.07508,0.03592
6608.14626,0.02976
6606.21744,0.02679
6604.28862,0.03136
6602.35979,0.03608
6600.43097,0.03470
6598.50215,0.02985
6596.57333,0.02766
6594.64450,0.02885
6592.71568,0.03053
6590.78686,0.03081
6588.85804,0.03031
6586.92921,0.03037
6585.00039,0.03114
6583.07157,0.03252
6581.14274,0.03295
6579.21392,0.03086
6577.28510,0.02951
6575.35628,0.03133
6573.42745,0.03472
6571.49863,0.03659
6569.56981,0.03460
6567.64099,0.02932
6565.71216,0.02528
6563.78334,0.02627
6561.85452,0.02998
6559.92570,0.03138
6557.99687,0.03167
6556.06805,0.03203
6554.13923,0.02893
6552.21041,0.02546
6550.28158,0.02714
6548.35276,0.03203
6546.42394,0.03702
6544.49512,0.03745
6542.56629,0.03346
6540.63747,0.03182
6538.70865,0.03371
6536.77982,0.03401
6534.85100,0.03303
6532.92218,0.03365
6530.99336,0.03424
6529.06453,0.03336
6527.13571,0.03313
6525.20689,0.03272
6523.27807,0.03083
6521.34924,0.03024
6519.42042,0.03166
6517.49160,0.03091
6515.56278,0.02887
6513.63395,0.02977
6511.70513,0.03195
6509.77631,0.03202
6507.84749,0.03105
6505.91866,0.03065
6503.98984,0.03012
6502.06102,0.02774
6500.13220,0.02492
6498.20337,0.02453
6496.27455,0.02770
6494.34573,0.03099
6492.41690,0.03093
6490.48808,0.02877
6488.55926,0.02856
6486.63044,0.03079
6484.70161,0.03242
6482.77279,0.03266
6480.84397,0.03390
6478.91515,0.03469
6476.98632,0.03263
6475.05750,0.02965
6473.12868,0.02860
6471.19986,0.02884
6469.27103,0.02963
6467.34221,0.03259
6465.41339,0.03662
6463.48457,0.03753
6461.55574,0.03523
6459.62692,0.03221
6457.69810,0.03044
6455.76928,0.03081
6453.84045,0.03180
6451.91163,0.03210
6449.98281,0.03241
6448.05398,0.03169
6446.12516,0.02850
6444.19634,0.02553
6442.26752,0.02678
6440.33869,0.03062
6438.40987,0.03326
6436.48105,0.03425
6434.55223,0.03305
6432.62340,0.02953
6430.69458,0.02734
6428.76576,0.02742
6426.83694,0.02697
6424.90811,0.02526
6422.97929,0.02511
6421.05047,0.02695
6419.12165,0.02781
6417.19282,0.02692
6415.26400,0.02714
6413.33518,0.02860
6411.40636,0.02839
6409.47753,0.02638
6407.54871,0.02545
6405.61989,0.02676
6403.69106,0.02834
6401.76224,0.02779
6399.83342,0.02679
6397.90460,0.02742
6395.97577,0.02815
6394.04695,0.02779
6392.11813,0.02748
6390.18931,0.02834
6388.26048,0.03029
6386.33166,0.03158
6384.40284,0.03043
6382.47402,0.02843
6380.54519,0.02866
6378.61637,0.02970
6376.68755,0.03003
6374.75873,0.03049
6372.82990,0.02989
6370.90108,0.02752
6368.97226,0.02686
6367.04344,0.03002
6365.11461,0.03357
6363.18579,0.03359
6361.25697,0.03172
6359.32814,0.03142
6357.39932,0.03212
6355.47050,0.03232
6353.54168,0.03310
6351.61285,0.03406
6349.68403,0.03355
6347.75521,0.03075
6345.82639,0.02627
6343.89756,0.02404
6341.96874,0.02675
6340.03992,0.03025
6338.11110,0.03149
6336.18227,0.03248
6334.25345,0.03418
6332.32463,0.03518
6330.39581,0.03492
6328.46698,0.03415
6326.53816,0.03424
6324.60934,0.03432
6322.68052,0.03330
6320.75169,0.03149
6318.82287,0.02954
6316.89405,0.02893
6314.96522,0.02973
6313.03640,0.03055
6311.10758,0.03180
6309.17876,0.03365
6307.24993,0.03478
6305.32111,0.03512
6303.39229,0.03555
6301.46347,0.03592
6299.53464,0.03531
6297.60582,0.03289
6295.67700,0.03023
6293.74818,0.02936
6291.81935,0.02956
6289.89053,0.03020
6287.96171,0.03200
6286.03289,0.03342
6284.10406,0.03322
6282.17524,0.03305
6280.24642,0.03334
6278.31760,0.03194
6276.38877,0.02893
6274.45995,0.02671
6272.53113,0.02741
6270.60230,0.02995
6268.67348,0.03182
6266.74466,0.03265
6264.81584,0.03331
6262.88701,0.03247
6260.95819,0.03015
6259.02937,0.02870
6257.10055,0.02834
6255.17172,0.02801
6253.24290,0.02806
6251.31408,0.02922
6249.38526,0.03078
6247.45643,0.03078
6245.52761,0.02955
6243.59879,0.02888
6241.66997,0.03005
6239.74114,0.03238
6237.81232,0.03241
6235.88350,0.02972
6233.95468,0.02842
6232.02585,0.02948
6230.09703,0.03100
6228.16821,0.03265
6226.23938,0.03393
6224.31056,0.03347
6222.38174,0.03206
6220.45292,0.03182
6218.52409,0.03254
6216.59527,0.03193
6214.66645,0.03032
6212.73763,0.02996
6210.80880,0.03072
6208.87998,0.03104
6206.95116,0.03075
6205.02234,0.02978
6203.09351,0.02908
6201.16469,0.03048
6199.23587,0.03197
6197.30705,0.03079
6195.37822,0.02927
6193.44940,0.02946
6191.52058,0.02957
6189.59176,0.02875
6187.66293,0.02909
6185.73411,0.03125
6183.80529,0.03288
6181.87646,0.03234
6179.94764,0.03072
6178.01882,0.03005
6176.09000,0.03136
6174.16117,0.03271
6172.23235,0.03223
6170.30353,0.03151
6168.37471,0.03187
6166.44588,0.03228
6164.51706,0.03249
6162.58824,0.03321
6160.65942,0.03472
6158.73059,0.03558
6156.80177,0.03445
6154.87295,0.03278
6152.94413,0.03197
6151.01530,0.03196
6149.08648,0.03255
6147.15766,0.03220
6145.22884,0.03065
6143.30001,0.02955
6141.37119,0.02987
6139.44237,0.03049
6137.51354,0.02985
6135.58472,0.02882
6133.65590,0.02903
6131.72708,0.03074
6129.79825,0.03274
6127.86943,0.03373
6125.94061,0.03378
6124.01179,0.03276
6122.08296,0.03113
6120.15414,0.03075
6118.22532,0.03142
6116.29650,0.03122
6114.36767,0.03022
6112.43885,0.02907
6110.51003,0.02829
6108.58121,0.02856
6106.65238,0.02923
6104.72356,0.02945
6102.79474,0.03001
6100.86591,0.03084
6098.93709,0.03039
6097.00827,0.02920
6095.07945,0.02964
6093.15062,0.03107
6091.22180,0.03119
6089.29298,0.03066
6087.36416,0.03157
6085.43533,0.03307
6083.50651,0.03329
6081.57769,0.03259
6079.64887,0.03250
6077.72004,0.03356
6075.79122,0.03422
6073.86240,0.03257
6071.93358,0.03026
6070.00475,0.02936
6068.07593,0.02854
6066.14711,0.02750
6064.21829,0.02855
6062.28946,0.03096
6060.36064,0.03181
6058.43182,0.02970
6056.50299,0.02730
6054.57417,0.02785
6052.64535,0.02967
6050.71653,0.03011
6048.78770,0.03023
6046.85888,0.03064
6044.93006,0.03004
6043.00124,0.02834
6041.07241,0.02729
6039.14359,0.02796
6037.21477,0.02915
6035.28595,0.02910
6033.35712,0.02847
6031.42830,0.02897
6029.49948,0.03092
6027.57066,0.03306
6025.64183,0.03358
6023.71301,0.03202
6021.78419,0.02965
6019.85537,0.02779
6017.92654,0.02779
6015.99772,0.02861
6014.06890,0.02871
6012.14007,0.02993
6010.21125,0.03253
6008.28243,0.03310
6006.35361,0.03178
6004.42478,0.03112
6002.49596,0.03081
6000.56714,0.03069
5998.63832,0.03101
5996.70949,0.03064
5994.78067,0.02994
5992.85185,0.02942
5990.92303,0.02932
5988.99420,0.03019
5987.06538,0.03095
5985.13656,0.03083
5983.20774,0.03062
5981.27891,0.03026
5979.35009,0.02972
5977.42127,0.02961
5975.49245,0.02959
5973.56362,0.02901
5971.63480,0.02812
5969.70598,0.02747
5967.77715,0.02797
5965.84833,0.02889
5963.91951,0.02923
5961.99069,0.02918
5960.06186,0.02864
5958.13304,0.02842
5956.20422,0.03020
5954.27540,0.03226
5952.34657,0.03187
5950.41775,0.03019
5948.48893,0.02966
5946.56011,0.02992
5944.63128,0.03011
5942.70246,0.03011
5940.77364,0.02981
5938.84482,0.02872
5936.91599,0.02718
5934.98717,0.02756
5933.05835,0.03018
5931.12953,0.03143
5929.20070,0.03005
5927.27188,0.02873
5925.34306,0.02899
5923.41423,0.02979
5921.48541,0.03054
5919.55659,0.03139
5917.62777,0.03235
5915.69894,0.03314
5913.77012,0.03317
5911.84130,0.03276
5909.91248,0.03297
5907.98365,0.03273
5906.05483,0.03117
5904.12601,0.03025
5902.19719,0.03144
5900.26836,0.03373
5898.33954,0.03507
5896.41072,0.03372
5894.48190,0.03082
5892.55307,0.02957
5890.62425,0.03047
5888.69543,0.03149
5886.76661,0.03205
5884.83778,0.03247
5882.90896,0.03293
5880.98014,0.03334
5879.05131,0.03267
5877.12249,0.03134
5875.19367,0.03175
5873.26485,0.03335
5871.33602,0.03312
5869.40720,0.03089
5867.47838,0.02972
5865.54956,0.03088
5863.62073,0.03184
5861.69191,0.03053
5859.76309,0.02891
5857.83427,0.02896
5855.90544,0.02938
5853.97662,0.02985
5852.04780,0.03182
5850.11898,0.03349
5848.19015,0.03289
5846.26133,0.03123
5844.33251,0.02936
5842.40369,0.02825
5840.47486,0.02951
5838.54604,0.03183
5836.61722,0.03278
5834.68839,0.03208
5832.75957,0.03107
5830.83075,0.03045
5828.90193,0.02972
5826.97310,0.02933
5825.04428,0.03025
5823.11546,0.03144
5821.18664,0.03182
5819.25781,0.03163
5817.32899,0.03109
5815.40017,0.03024
5813.47135,0.02961
5811.54252,0.02972
5809.61370,0.03018
5807.68488,0.03043
5805.75606,0.03021
5803.82723,0.02913
5801.89841,0.02819
5799.96959,0.02905
5798.04077,0.03131
5796.11194,0.03294
5794.18312,0.03267
5792.25430,0.03107
5790.32547,0.02926
5788.39665,0.02779
5786.46783,0.02777
5784.53901,0.02911
5782.61018,0.03032
5780.68136,0.03123
5778.75254,0.03164
5776.82372,0.03047
5774.89489,0.02880
5772.96607,0.02895
5771.03725,0.03092
5769.10843,0.03270
5767.17960,0.03377
5765.25078,0.03464
5763.32196,0.03451
5761.39314,0.03278
5759.46431,0.03011
5757.53549,0.02781
5755.60667,0.02732
5753.67785,0.02784
5751.74902,0.02769
5749.82020,0.02794
5747.89138,0.02955
5745.96255,0.03067
5744.03373,0.03037
5742.10491,0.02976
5740.17609,0.03016
5738.24726,0.03100
5736.31844,0.03060
5734.38962,0.02979
5732.46080,0.02968
5730.53197,0.02924
5728.60315,0.02837
5726.67433,0.02861
5724.74551,0.03026
5722.81668,0.03135
5720.88786,0.03095
5718.95904,0.03081
5717.03022,0.03207
5715.10139,0.03313
5713.17257,0.03273
5711.24375,0.03185
5709.31493,0.03088
5707.38610,0.02951
5705.45728,0.02901
5703.52846,0.02931
5701.59963,0.02882
5699.67081,0.02798
5697.74199,0.02798
5695.81317,0.02833
5693.88434,0.02852
5691.95552,0.02906
5690.02670,0.03023
5688.09788,0.03105
5686.16905,0.03079
5684.24023,0.03075
5682.31141,0.03127
5680.38259,0.03113
5678.45376,0.03057
5676.52494,0.03017
5674.59612,0.02995
5672.66730,0.02995
5670.73847,0.03003
5668.80965,0.02991
5666.88083,0.02940
5664.95201,0.02916
5663.02318,0.03008
5661.09436,0.03133
5659.16554,0.03158
5657.23671,0.03117
5655.30789,0.03142
5653.37907,0.03234
5651.45025,0.03243
5649.52142,0.03127
5647.59260,0.02983
5645.66378,0.02885
5643.73496,0.02882
5641.80613,0.02905
5639.87731,0.02812
5637.94849,0.02650
5636.01967,0.02640
5634.09084,0.02780
5632.16202,0.02880
5630.23320,0.02929
5628.30438,0.02937
5626.37555,0.02877
5624.44673,0.02872
5622.51791,0.02998
5620.58909,0.03140
5618.66026,0.03124
5616.73144,0.02965
5614.80262,0.02820
5612.87379,0.02766
5610.94497,0.02796
5609.01615,0.02840
5607.08733,0.02912
5605.15850,0.03100
5603.22968,0.03269
5601.30086,0.03258
5599.37204,0.03142
5597.44321,0.03049
5595.51439,0.03020
5593.58557,0.03089
5591.65675,0.03197
5589.72792,0.03271
5587.79910,0.03313
5585.87028,0.03250
5583.94146,0.03094
5582.01263,0.03029
5580.08381,0.03081
5578.15499,0.03106
5576.22617,0.03072
5574.29734,0.03040
5572.36852,0.02987
5570.43970,0.02874
5568.51087,0.02750
5566.58205,0.02714
5564.65323,0.02759
5562.72441,0.02863
5560.79558,0.03069
5558.86676,0.03274
5556.93794,0.03310
5555.00912,0.03184
5553.08029,0.03066
5551.15147,0.03120
5549.22265,0.03266
5547.29383,0.03278
5545.36500,0.03159
5543.43618,0.03101
5541.50736,0.03113
5539.57854,0.03050
5537.64971,0.02931
5535.72089,0.02926
5533.79207,0.03033
5531.86325,0.03097
5529.93442,0.03106
5528.00560,0.03132
5526.07678,0.03157
5524.14795,0.03148
5522.21913,0.03118
5520.29031,0.03053
5518.36149,0.02986
5516.43266,0.02961
5514.50384,0.02963
5512.57502,0.03061
5510.64620,0.03211
5508.71737,0.03210
5506.78855,0.03119
5504.85973,0.03106
5502.93091,0.03150
5501.00208,0.03186
5499.07326,0.03145
5497.14444,0.03070
5495.21562,0.03089
5493.28679,0.03161
5491.35797,0.03154
5489.42915,0.03123
5487.50033,0.03148
5485.57150,0.03193
5483.64268,0.03223
5481.71386,0.03228
5479.78503,0.03191
5477.85621,0.03101
5475.92739,0.03018
5473.99857,0.03077
5472.06974,0.03198
5470.14092,0.03169
5468.21210,0.03020
5466.28328,0.02979
5464.35445,0.03073
5462.42563,0.03186
5460.49681,0.03209
5458.56799,0.03118
5456.63916,0.03023
5454.71034,0.03010
5452.78152,0.03020
5450.85270,0.02994
5448.92387,0.02951
5446.99505,0.02927
5445.06623,0.02979
5443.13741,0.03115
5441.20858,0.03193
5439.27976,0.03215
5437.35094,0.03259
5435.42211,0.03280
5433.49329,0.03235
5431.56447,0.03126
5429.63565,0.02998
5427.70682,0.02963
5425.77800,0.03002
5423.84918,0.03029
5421.92036,0.03058
5419.99153,0.03114
5418.06271,0.03157
5416.13389,0.03103
5414.20507,0.02976
5412.27624,0.02935
5410.34742,0.03013
5408.41860,0.03064
5406.48978,0.03010
5404.56095,0.02930
5402.63213,0.02870
5400.70331,0.02849
5398.77449,0.02954
5396.84566,0.03116
5394.91684,0.03185
5392.98802,0.03147
5391.05919,0.03054
5389.13037,0.03032
5387.20155,0.03085
5385.27273,0.03034
5383.34390,0.02961
5381.41508,0.03042
5379.48626,0.03132
5377.55744,0.03142
5375.62861,0.03166
5373.69979,0.03163
5371.77097,0.03087
5369.84215,0.03016
5367.91332,0.02942
5365.98450,0.02844
5364.05568,0.02838
5362.12686,0.02952
5360.19803,0.03057
5358.26921,0.03124
5356.34039,0.03146
5354.41156,0.03108
5352.48274,0.03093
5350.55392,0.03148
5348.62510,0.03207
5346.69627,0.03147
5344.76745,0.03005
5342.83863,0.03001
5340.90981,0.03110
5338.98098,0.03186
5337.05216,0.03213
5335.12334,0.03216
5333.19452,0.03205
5331.26569,0.03196
5329.33687,0.03153
5327.40805,0.03073
5325.47923,0.03068
5323.55040,0.03122
5321.62158,0.03119
5319.69276,0.03050
5317.76394,0.02978
5315.83511,0.02994
5313.90629,0.03141
5311.97747,0.03304
5310.04864,0.03350
5308.11982,0.03295
5306.19100,0.03252
5304.26218,0.03248
5302.33335,0.03230
5300.40453,0.03201
5298.47571,0.03155
5296.54689,0.03060
5294.61806,0.02948
5292.68924,0.02875
5290.76042,0.02846
5288.83160,0.02903
5286.90277,0.03054
5284.97395,0.03152
5283.04513,0.03112
5281.11631,0.03048
5279.18748,0.03043
5277.25866,0.03075
5275.32984,0.03106
5273.40102,0.03107
5271.47219,0.03093
5269.54337,0.03088
5267.61455,0.03044
5265.68572,0.02913
5263.75690,0.02804
5261.82808,0.02837
5259.89926,0.02888
5257.97043,0.02853
5256.04161,0.02856
5254.11279,0.03010
5252.18397,0.03116
5250.25514,0.03021
5248.32632,0.02895
5246.39750,0.02893
5244.46868,0.02944
5242.53985,0.02978
5240.61103,0.02981
5238.68221,0.02999
5236.75339,0.03066
5234.82456,0.03099
5232.89574,0.03038
5230.96692,0.02997
5229.03810,0.03033
5227.10927,0.03061
5225.18045,0.03049
5223.25163,0.03014
5221.32280,0.02962
5219.39398,0.02935
5217.46516,0.02944
5215.53634,0.02984
5213.60751,0.03051
5211.67869,0.03084
5209.74987,0.03078
5207.82105,0.03102
5205.89222,0.03123
5203.96340,0.03056
5202.03458,0.02986
5200.10576,0.03004
5198.17693,0.03021
5196.24811,0.02939
5194.31929,0.02804
5192.39047,0.02716
5190.46164,0.02743
5188.53282,0.02857
5186.60400,0.02974
5184.67518,0.03047
5182.74635,0.03064
5180.81753,0.03047
5178.88871,0.03037
5176.95988,0.03027
5175.03106,0.03000
5173.10224,0.03003
5171.17342,0.03016
5169.24459,0.02977
5167.31577,0.02925
5165.38695,0.02911
5163.45813,0.02937
5161.52930,0.02968
5159.60048,0.02975
5157.67166,0.03006
5155.74284,0.03086
5153.81401,0.03121
5151.88519,0.03035
5149.95637,0.02961
5148.02755,0.03007
5146.09872,0.03089
5144.16990,0.03116
5142.24108,0.03061
5140.31226,0.02989
5138.38343,0.02980
5136.45461,0.02971
5134.52579,0.02949
5132.59696,0.02973
5130.66814,0.03006
5128.73932,0.03007
5126.81050,0.03030
5124.88167,0.03078
5122.95285,0.03071
5121.02403,0.03000
5119.09521,0.02927
5117.16638,0.02916
5115.23756,0.02979
5113.30874,0.03073
5111.37992,0.03131
5109.45109,0.03113
5107.52227,0.03082
5105.59345,0.03077
5103.66463,0.03079
5101.73580,0.03105
5099.80698,0.03136
5097.87816,0.03138
5095.94934,0.03112
5094.02051,0.03093
5092.09169,0.03119
5090.16287,0.03135
5088.23404,0.03124
5086.30522,0.03118
5084.37640,0.03090
5082.44758,0.03055
5080.51875,0.03065
5078.58993,0.03084
5076.66111,0.03075
5074.73229,0.03066
5072.80346,0.03061
5070.87464,0.03026
5068.94582,0.02959
5067.01700,0.02900
5065.08817,0.02888
5063.15935,0.02947
5061.23053,0.03045
5059.30171,0.03121
5057.37288,0.03163
5055.44406,0.03178
5053.51524,0.03175
5051.58642,0.03167
5049.65759,0.03108
5047.72877,0.03006
5045.79995,0.02967
5043.87112,0.02996
5041.94230,0.03006
5040.01348,0.02987
5038.08466,0.02994
5036.15583,0.03002
5034.22701,0.02982
5032.29819,0.02967
5030.36937,0.02957
5028.44054,0.02938
5026.51172,0.02950
5024.58290,0.03018
5022.65408,0.03081
5020.72525,0.03076
5018.79643,0.03055
5016.86761,0.03069
5014.93879,0.03038
5013.00996,0.02919
5011.08114,0.02858
5009.15232,0.02923
5007.22350,0.03027
5005.29467,0.03098
5003.36585,0.03083
5001.43703,0.03015
4999.50820,0.03008
4997.57938,0.03069
4995.65056,0.03112
4993.72174,0.03093
4991.79291,0.03066
4989.86409,0.03080
4987.93527,0.03093
4986.00645,0.03050
4984.07762,0.02989
4982.14880,0.02943
4980.21998,0.02926
4978.29116,0.02984
4976.36233,0.03063
4974.43351,0.03052
4972.50469,0.02977
4970.57587,0.02918
4968.64704,0.02902
4966.71822,0.02944
4964.78940,0.03047
4962.86058,0.03146
4960.93175,0.03157
4959.00293,0.03112
4957.07411,0.03080
4955.14528,0.03055
4953.21646,0.03004
4951.28764,0.02951
4949.35882,0.02958
4947.42999,0.03001
4945.50117,0.02990
4943.57235,0.02952
4941.64353,0.02961
4939.71470,0.02992
4937.78588,0.03017
4935.85706,0.03066
4933.92824,0.03138
4931.99941,0.03174
4930.07059,0.03155
4928.14177,0.03101
4926.21295,0.03036
4924.28412,0.02999
4922.35530,0.02981
4920.42648,0.02957
4918.49766,0.02971
4916.56883,0.03046
4914.64001,0.03125
4912.71119,0.03158
4910.78236,0.03164
4908.85354,0.03165
4906.92472,0.03135
4904.99590,0.03089
4903.06707,0.03056
4901.13825,0.03034
4899.20943,0.03049
4897.28061,0.03092
4895.35178,0.03086
4893.42296,0.03040
4891.49414,0.02996
4889.56532,0.02946
4887.63649,0.02926
4885.70767,0.02957
4883.77885,0.03012
4881.85003,0.03081
4879.92120,0.03108
4877.99238,0.03068
4876.06356,0.03041
4874.13474,0.03029
4872.20591,0.02965
4870.27709,0.02879
4868.34827,0.02852
4866.41944,0.02880
4864.49062,0.02890
4862.56180,0.02888
4860.63298,0.02928
4858.70415,0.02959
4856.77533,0.02958
4854.84651,0.02986
4852.91769,0.03016
4850.98886,0.03004
4849.06004,0.02994
4847.13122,0.03019
4845.20240,0.03039
4843.27357,0.03020
4841.34475,0.03004
4839.41593,0.03037
4837.48711,0.03085
4835.55828,0.03117
4833.62946,0.03142
4831.70064,0.03109
4829.77182,0.02993
4827.84299,0.02906
4825.91417,0.02925
4823.98535,0.02981
4822.05652,0.03015
4820.12770,0.03056
4818.19888,0.03079
4816.27006,0.03048
4814.34123,0.03031
4812.41241,0.03050
4810.48359,0.03030
4808.55477,0.02981
4806.62594,0.02961
4804.69712,0.02964
4802.76830,0.02973
4800.83948,0.03001
4798.91065,0.03055
4796.98183,0.03104
4795.05301,0.03122
4793.12419,0.03118
4791.19536,0.03095
4789.26654,0.03061
4787.33772,0.03046
4785.40890,0.03046
4783.48007,0.03027
4781.55125,0.02997
4779.62243,0.03016
4777.69360,0.03051
4775.76478,0.03025
4773.83596,0.03006
4771.90714,0.03042
4769.97831,0.03063
4768.04949,0.03075
4766.12067,0.03111
4764.19185,0.03107
4762.26302,0.03019
4760.33420,0.02924
4758.40538,0.02931
4756.47656,0.03011
4754.54773,0.03060
4752.61891,0.03078
4750.69009,0.03109
4748.76127,0.03108
4746.83244,0.03059
4744.90362,0.03051
4742.97480,0.03119
4741.04598,0.03177
4739.11715,0.03146
4737.18833,0.03053
4735.25951,0.02985
4733.33068,0.03000
4731.40186,0.03063
4729.47304,0.03088
4727.54422,0.03068
4725.61539,0.03060
4723.68657,0.03069
4721.75775,0.03065
4719.82893,0.03051
4717.90010,0.03040
4715.97128,0.03008
4714.04246,0.02954
4712.11364,0.02936
4710.18481,0.02974
4708.25599,0.03015
4706.32717,0.03026
4704.39835,0.03021
4702.46952,0.03012
4700.54070,0.03012
4698.61188,0.03034
4696.68306,0.03053
4694.75423,0.03043
4692.82541,0.03027
4690.89659,0.03015
4688.96776,0.03004
4687.03894,0.03025
4685.11012,0.03082
4683.18130,0.03134
4681.25247,0.03162
4679.32365,0.03150
4677.39483,0.03075
4675.46601,0.02988
4673.53718,0.02966
4671.60836,0.03006
4669.67954,0.03040
4667.75072,0.03030
4665.82189,0.03031
4663.89307,0.03055
4661.96425,0.03034
4660.03543,0.02993
4658.10660,0.02996
4656.17778,0.03021
4654.24896,0.03007
4652.32013,0.02977
4650.39131,0.03004
4648.46249,0.03084
4646.53367,0.03158
4644.60484,0.03156
4642.67602,0.03074
4640.74720,0.03022
4638.81838,0.03042
4636.88955,0.03063
4634.96073,0.03068
4633.03191,0.03088
4631.10309,0.03099
4629.17426,0.03071
4627.24544,0.03046
4625.31662,0.03058
4623.38780,0.03065
4621.45897,0.03050
4619.53015,0.03042
4617.60133,0.03048
4615.67251,0.03069
4613.74368,0.03083
4611.81486,0.03050
4609.88604,0.03009
4607.95721,0.03011
4606.02839,0.03002
4604.09957,0.02971
4602.17075,0.02983
4600.24192,0.03027
4598.31310,0.03046
4596.38428,0.03010
4594.45546,0.02967
4592.52663,0.02990
4590.59781,0.03029
4588.66899,0.03002
4586.74017,0.02947
4584.81134,0.02930
4582.88252,0.02951
4580.95370,0.02980
4579.02488,0.02972
4577.09605,0.02934
4575.16723,0.02929
4573.23841,0.02938
4571.30959,0.02928
4569.38076,0.02951
4567.45194,0.03030
4565.52312,0.03100
4563.59429,0.03107
4561.66547,0.03066
4559.73665,0.03019
4557.80783,0.02984
4555.87900,0.02962
4553.95018,0.02966
4552.02136,0.03002
4550.09254,0.03017
4548.16371,0.03010
4546.23489,0.03024
4544.30607,0.03035
4542.37725,0.03018
4540.44842,0.03031
4538.51960,0.03076
4536.59078,0.03090
4534.66196,0.03060
4532.73313,0.03016
4530.80431,0.03013
4528.87549,0.03073
4526.94667,0.03129
4525.01784,0.03129
4523.08902,0.03081
4521.16020,0.03021
4519.23137,0.02990
4517.30255,0.03000
4515.37373,0.03037
4513.44491,0.03063
4511.51608,0.03061
4509.58726,0.03060
4507.65844,0.03069
4505.72962,0.03074
4503.80079,0.03055
4501.87197,0.03027
4499.94315,0.03013
4498.01433,0.03009
4496.08550,0.03029
4494.15668,0.03049
4492.22786,0.03007
4490.29904,0.02952
4488.37021,0.02981
4486.44139,0.03040
4484.51257,0.03026
4482.58375,0.02971
4480.65492,0.02945
4478.72610,0.02974
4476.79728,0.03043
4474.86845,0.03091
4472.93963,0.03074
4471.01081,0.03010
4469.08199,0.02962
4467.15316,0.02982
4465.22434,0.03047
4463.29552,0.03091
4461.36670,0.03092
4459.43787,0.03087
4457.50905,0.03090
4455.58023,0.03091
4453.65141,0.03060
4451.72258,0.03015
4449.79376,0.03029
4447.86494,0.03097
4445.93612,0.03124
4444.00729,0.03058
4442.07847,0.02970
4440.14965,0.02950
4438.22083,0.02976
4436.29200,0.02983
4434.36318,0.02971
4432.43436,0.02960
4430.50553,0.02969
4428.57671,0.02993
4426.64789,0.03006
4424.71907,0.03029
4422.79024,0.03083
4420.86142,0.03119
4418.93260,0.03104
4417.00378,0.03068
4415.07495,0.03044
4413.14613,0.03038
4411.21731,0.03053
4409.28849,0.03058
4407.35966,0.03017
4405.43084,0.02989
4403.50202,0.03011
4401.57320,0.03021
4399.64437,0.03014
4397.71555,0.03022
4395.78673,0.03022
4393.85791,0.02990
4391.92908,0.02946
4390.00026,0.02926
4388.07144,0.02943
4386.14261,0.02992
4384.21379,0.03057
4382.28497,0.03093
4380.35615,0.03074
4378.42732,0.03035
4376.49850,0.03008
4374.56968,0.02998
4372.64086,0.02986
4370.71203,0.02966
4368.78321,0.02984
4366.85439,0.03044
4364.92557,0.03098
4362.99674,0.03133
4361.06792,0.03154
4359.13910,0.03148
4357.21028,0.03125
4355.28145,0.03102
4353.35263,0.03033
4351.42381,0.02921
4349.49499,0.02887
4347.56616,0.02962
4345.63734,0.03034
4343.70852,0.03050
4341.77969,0.03048
4339.85087,0.03038
4337.92205,0.03013
4335.99323,0.03004
4334.06440,0.03014
4332.13558,0.03007
4330.20676,0.03003
4328.27794,0.03033
4326.34911,0.03056
4324.42029,0.03038
4322.49147,0.02998
4320.56265,0.02957
4318.63382,0.02932
4316.70500,0.02935
4314.77618,0.02942
4312.84736,0.02958
4310.91853,0.03010
4308.98971,0.03058
4307.06089,0.03051
4305.13207,0.03017
4303.20324,0.03004
4301.27442,0.03016
4299.34560,0.03035
4297.41677,0.03044
4295.48795,0.03028
4293.55913,0.02990
4291.63031,0.02946
4289.70148,0.02921
4287.77266,0.02928
4285.84384,0.02944
4283.91502,0.02961
4281.98619,0.02987
4280.05737,0.02998
4278.12855,0.02986
4276.19973,0.02954
4274.27090,0.02903
4272.34208,0.02880
4270.41326,0.02928
4268.48444,0.02994
4266.55561,0.02985
4264.62679,0.02913
4262.69797,0.02889
4260.76915,0.02932
4258.84032,0.02966
4256.91150,0.02963
4254.98268,0.02940
4253.05385,0.02924
4251.12503,0.02928
4249.19621,0.02946
4247.26739,0.02984
4245.33856,0.03027
4243.40974,0.03046
4241.48092,0.03045
4239.55210,0.03012
4237.62327,0.02959
4235.69445,0.02934
4233.76563,0.02929
4231.83681,0.02941
4229.90798,0.02993
4227.97916,0.03035
4226.05034,0.03018
4224.12152,0.02995
4222.19269,0.03019
4220.26387,0.03052
4218.33505,0.03049
4216.40623,0.03028
4214.47740,0.03018
4212.54858,0.03014
4210.61976,0.03012
4208.69093,0.03027
4206.76211,0.03052
4204.83329,0.03053
4202.90447,0.03038
4200.97564,0.03029
4199.04682,0.03014
4197.11800,0.03007
4195.18918,0.03014
4193.26035,0.02997
4191.33153,0.02956
4189.40271,0.02941
4187.47389,0.02963
4185.54506,0.02999
4183.61624,0.03029
4181.68742,0.03032
4179.75860,0.03014
4177.82977,0.03006
4175.90095,0.03009
4173.97213,0.03023
4172.04331,0.03048
4170.11448,0.03059
4168.18566,0.03044
4166.25684,0.03039
4164.32801,0.03058
4162.39919,0.03046
4160.47037,0.02994
4158.54155,0.02978
4156.61272,0.03005
4154.68390,0.03052
4152.75508,0.03100
4150.82626,0.03093
4148.89743,0.03037
4146.96861,0.02995
4145.03979,0.02977
4143.11097,0.02994
4141.18214,0.03044
4139.25332,0.03066
4137.32450,0.03049
4135.39568,0.03028
4133.46685,0.03008
4131.53803,0.03002
4129.60921,0.03025
4127.68039,0.03061
4125.75156,0.03088
4123.82274,0.03097
4121.89392,0.03090
4119.96509,0.03071
4118.03627,0.03048
4116.10745,0.03022
4114.17863,0.02999
4112.24980,0.02992
4110.32098,0.03002
4108.39216,0.03019
4106.46334,0.03029
4104.53451,0.03008
4102.60569,0.02956
4100.67687,0.02931
4098.74805,0.02960
4096.81922,0.03021
4094.89040,0.03077
4092.96158,0.03111
4091.03276,0.03132
4089.10393,0.03122
4087.17511,0.03062
4085.24629,0.03011
4083.31747,0.03012
4081.38864,0.03022
4079.45982,0.03026
4077.53100,0.03030
4075.60217,0.03008
4073.67335,0.02968
4071.74453,0.02954
4069.81571,0.02979
4067.88688,0.03008
4065.95806,0.03014
4064.02924,0.03006
4062.10042,0.02988
4060.17159,0.02975
4058.24277,0.02978
4056.31395,0.02991
4054.38513,0.03004
4052.45630,0.03008
4050.52748,0.03014
4048.59866,0.03027
4046.66984,0.03029
4044.74101,0.03016
4042.81219,0.03007
4040.88337,0.03017
4038.95455,0.03036
4037.02572,0.03046
4035.09690,0.03059
4033.16808,0.03073
4031.23925,0.03065
4029.31043,0.03053
4027.38161,0.03050
4025.45279,0.03048
4023.52396,0.03056
4021.59514,0.03075
4019.66632,0.03097
4017.73750,0.03103
4015.80867,0.03071
4013.87985,0.03007
4011.95103,0.02964
4010.02221,0.02969
4008.09338,0.02979
4006.16456,0.02974
4004.23574,0.02979
4002.30692,0.02989
4000.37809,0.02974
3998.44927,0.02941
3996.52045,0.02927
3994.59163,0.02947
3992.66280,0.03002
3990.73398,0.03058
3988.80516,0.03061
3986.87633,0.03026
3984.94751,0.02978
3983.01869,0.02937
3981.08987,0.02947
3979.16104,0.02984
3977.23222,0.02984
3975.30340,0.02958
3973.37458,0.02954
3971.44575,0.02983
3969.51693,0.03039
3967.58811,0.03098
3965.65929,0.03100
3963.73046,0.03044
3961.80164,0.02992
3959.87282,0.02996
3957.94400,0.03042
3956.01517,0.03069
3954.08635,0.03051
3952.15753,0.03032
3950.22870,0.03042
3948.29988,0.03051
3946.37106,0.03041
3944.44224,0.03040
3942.51341,0.03040
3940.58459,0.03017
3938.65577,0.02997
3936.72695,0.03008
3934.79812,0.03046
3932.86930,0.03066
3930.94048,0.03048
3929.01166,0.03030
3927.08283,0.03018
3925.15401,0.03006
3923.22519,0.03022
3921.29637,0.03045
3919.36754,0.03022
3917.43872,0.02955
3915.50990,0.02939
3913.58108,0.02994
3911.65225,0.03021
3909.72343,0.02994
3907.79461,0.02993
3905.86578,0.03042
3903.93696,0.03084
3902.00814,0.03066
3900.07932,0.03033
3898.15049,0.03046
3896.22167,0.03079
3894.29285,0.03074
3892.36403,0.03023
3890.43520,0.03003
3888.50638,0.03023
3886.57756,0.03010
3884.64874,0.02966
3882.71991,0.02955
3880.79109,0.02982
3878.86227,0.03042
3876.93345,0.03095
3875.00462,0.03107
3873.07580,0.03108
3871.14698,0.03106
3869.21816,0.03053
3867.28933,0.03010
3865.36051,0.03004
3863.43169,0.02972
3861.50286,0.02944
3859.57404,0.02970
3857.64522,0.03019
3855.71640,0.03075
3853.78757,0.03108
3851.85875,0.03019
3849.92993,0.02939
3848.00111,0.02914
3846.07228,0.02907
3844.14346,0.02926
3842.21464,0.02985
3840.28582,0.03037
3838.35699,0.03056
3836.42817,0.03057
3834.49935,0.03049
3832.57053,0.03054
3830.64170,0.03076
3828.71288,0.03092
3826.78406,0.03095
3824.85524,0.03115
3822.92641,0.03129
3820.99759,0.03065
3819.06877,0.02999
3817.13994,0.03009
3815.21112,0.03025
3813.28230,0.03006
3811.35348,0.03013
3809.42465,0.03062
3807.49583,0.03077
3805.56701,0.03048
3803.63819,0.03037
3801.70936,0.03013
3799.78054,0.02990
3797.85172,0.02978
3795.92290,0.02930
3793.99407,0.02902
3792.06525,0.02938
3790.13643,0.02984
3788.20761,0.03010
3786.27878,0.03031
3784.34996,0.03036
3782.42114,0.03033
3780.49232,0.03040
3778.56349,0.03039
3776.63467,0.03035
3774.70585,0.03043
3772.77702,0.03062
3770.84820,0.03078
3768.91938,0.03058
3766.99056,0.02997
3765.06173,0.02944
3763.13291,0.02945
3761.20409,0.02978
3759.27527,0.03002
3757.34644,0.03024
3755.41762,0.03070
3753.48880,0.03107
3751.55998,0.03076
3749.63115,0.03061
3747.70233,0.03145
3745.77351,0.03195
3743.84469,0.03119
3741.91586,0.03034
3739.98704,0.03024
3738.05822,0.03063
3736.12940,0.03087
3734.20057,0.03029
3732.27175,0.02988
3730.34293,0.03040
3728.41410,0.03117
3726.48528,0.03120
3724.55646,0.03025
3722.62764,0.02936
3720.69881,0.02932
3718.76999,0.02994
3716.84117,0.03042
3714.91235,0.03038
3712.98352,0.02998
3711.05470,0.02950
3709.12588,0.02937
3707.19706,0.02972
3705.26823,0.03012
3703.33941,0.03001
3701.41059,0.02946
3699.48177,0.02920
3697.55294,0.02933
3695.62412,0.02939
3693.69530,0.02930
3691.76648,0.02947
3689.83765,0.02996
3687.90883,0.03007
3685.98001,0.02980
3684.05118,0.02962
3682.12236,0.02959
3680.19354,0.02959
3678.26472,0.02955
3676.33589,0.02950
3674.40707,0.02956
3672.47825,0.02976
3670.54943,0.02962
3668.62060,0.02907
3666.69178,0.02880
3664.76296,0.02866
3662.83414,0.02839
3660.90531,0.02842
3658.97649,0.02883
3657.04767,0.02908
3655.11885,0.02919
3653.19002,0.02941
3651.26120,0.02957
3649.33238,0.02925
3647.40356,0.02854
3645.47473,0.02818
3643.54591,0.02811
3641.61709,0.02823
3639.68826,0.02844
3637.75944,0.02837
3635.83062,0.02808
3633.90180,0.02822
3631.97297,0.02893
3630.04415,0.02931
3628.11533,0.02875
3626.18651,0.02849
3624.25768,0.02867
3622.32886,0.02871
3620.40004,0.02852
3618.47122,0.02837
3616.54239,0.02846
3614.61357,0.02856
3612.68475,0.02867
3610.75593,0.02919
3608.82710,0.02968
3606.89828,0.02940
3604.96946,0.02897
3603.04064,0.02886
3601.11181,0.02864
3599.18299,0.02817
3597.25417,0.02772
3595.32534,0.02741
3593.39652,0.02748
3591.46770,0.02791
3589.53888,0.02807
3587.61005,0.02764
3585.68123,0.02733
3583.75241,0.02731
3581.82359,0.02717
3579.89476,0.02698
3577.96594,0.02711
3576.03712,0.02736
3574.10830,0.02730
3572.17947,0.02738
3570.25065,0.02801
3568.32183,0.02853
3566.39301,0.02820
3564.46418,0.02761
3562.53536,0.02729
3560.60654,0.02732
3558.67772,0.02754
3556.74889,0.02753
3554.82007,0.02734
3552.89125,0.02727
3550.96242,0.02744
3549.03360,0.02796
3547.10478,0.02857
3545.17596,0.02856
3543.24713,0.02779
3541.31831,0.02702
3539.38949,0.02669
3537.46067,0.02669
3535.53184,0.02668
3533.60302,0.02645
3531.67420,0.02635
3529.74538,0.02660
3527.81655,0.02705
3525.88773,0.02723
3523.95891,0.02705
3522.03009,0.02707
3520.10126,0.02718
3518.17244,0.02681
3516.24362,0.02645
3514.31480,0.02670
3512.38597,0.02712
3510.45715,0.02720
3508.52833,0.02710
3506.59950,0.02704
3504.67068,0.02707
3502.74186,0.02701
3500.81304,0.02682
3498.88421,0.02682
3496.95539,0.02695
3495.02657,0.02701
3493.09775,0.02696
3491.16892,0.02682
3489.24010,0.02667
3487.31128,0.02641
3485.38246,0.02613
3483.45363,0.02620
3481.52481,0.02655
3479.59599,0.02657
3477.66717,0.02627
3475.73834,0.02610
3473.80952,0.02599
3471.88070,0.02572
3469.95188,0.02580
3468.02305,0.02649
3466.09423,0.02700
3464.16541,0.02679
3462.23658,0.02642
3460.30776,0.02635
3458.37894,0.02641
3456.45012,0.02637
3454.52129,0.02654
3452.59247,0.02707
3450.66365,0.02744
3448.73483,0.02705
3446.80600,0.02623
3444.87718,0.02603
3442.94836,0.02656
3441.01954,0.02695
3439.09071,0.02694
3437.16189,0.02697
3435.23307,0.02712
3433.30425,0.02705
3431.37542,0.02683
3429.44660,0.02663
3427.51778,0.02648
3425.58896,0.02656
3423.66013,0.02658
3421.73131,0.02605
3419.80249,0.02548
3417.87366,0.02549
3415.94484,0.02560
3414.01602,0.02563
3412.08720,0.02599
3410.15837,0.02645
3408.22955,0.02648
3406.30073,0.02623
3404.37191,0.02619
3402.44308,0.02641
3400.51426,0.02664
3398.58544,0.02687
3396.65662,0.02697
3394.72779,0.02665
3392.79897,0.02606
3390.87015,0.02565
3388.94133,0.02562
3387.01250,0.02589
3385.08368,0.02613
3383.15486,0.02627
3381.22604,0.02650
3379.29721,0.02670
3377.36839,0.02666
3375.43957,0.02657
3373.51074,0.02651
3371.58192,0.02641
3369.65310,0.02649
3367.72428,0.02677
3365.79545,0.02691
3363.86663,0.02707
3361.93781,0.02726
3360.00899,0.02716
3358.08016,0.02700
3356.15134,0.02680
3354.22252,0.02638
3352.29370,0.02615
3350.36487,0.02622
3348.43605,0.02630
3346.50723,0.02659
3344.57841,0.02702
3342.64958,0.02707
3340.72076,0.02711
3338.79194,0.02731
3336.86312,0.02725
3334.93429,0.02704
3333.00547,0.02677
3331.07665,0.02628
3329.14782,0.02576
3327.21900,0.02568
3325.29018,0.02617
3323.36136,0.02667
3321.43253,0.02676
3319.50371,0.02662
3317.57489,0.02654
3315.64607,0.02664
3313.71724,0.02696
3311.78842,0.02724
3309.85960,0.02703
3307.93078,0.02673
3306.00195,0.02688
3304.07313,0.02690
3302.14431,0.02641
3300.21549,0.02615
3298.28666,0.02645
3296.35784,0.02662
3294.42902,0.02647
3292.50020,0.02647
3290.57137,0.02673
3288.64255,0.02708
3286.71373,0.02727
3284.78490,0.02704
3282.85608,0.02651
3280.92726,0.02611
3278.99844,0.02604
3277.06961,0.02606
3275.14079,0.02595
3273.21197,0.02595
3271.28315,0.02630
3269.35432,0.02660
3267.42550,0.02646
3265.49668,0.02614
3263.56786,0.02604
3261.63903,0.02633
3259.71021,0.02686
3257.78139,0.02724
3255.85257,0.02730
3253.92374,0.02730
3251.99492,0.02719
3250.06610,0.02683
3248.13728,0.02651
3246.20845,0.02648
3244.27963,0.02662
3242.35081,0.02678
3240.42198,0.02698
3238.49316,0.02718
3236.56434,0.02715
3234.63552,0.02695
3232.70669,0.02683
3230.77787,0.02684
3228.84905,0.02694
3226.92023,0.02707
3224.99140,0.02694
3223.06258,0.02648
3221.13376,0.02623
3219.20494,0.02637
3217.27611,0.02635
3215.34729,0.02618
3213.41847,0.02628
3211.48965,0.02664
3209.56082,0.02722
3207.63200,0.02761
3205.70318,0.02733
3203.77435,0.02673
3201.84553,0.02641
3199.91671,0.02645
3197.98789,0.02671
3196.05906,0.02689
3194.13024,0.02681
3192.20142,0.02666
3190.27260,0.02641
3188.34377,0.02612
3186.41495,0.02630
3184.48613,0.02678
3182.55731,0.02702
3180.62848,0.02704
3178.69966,0.02708
3176.77084,0.02725
3174.84202,0.02739
3172.91319,0.02735
3170.98437,0.02723
3169.05555,0.02719
3167.12673,0.02721
3165.19790,0.02716
3163.26908,0.02707
3161.34026,0.02710
3159.41143,0.02724
3157.48261,0.02725
3155.55379,0.02709
3153.62497,0.02682
3151.69614,0.02653
3149.76732,0.02629
3147.83850,0.02625
3145.90968,0.02645
3143.98085,0.02668
3142.05203,0.02673
3140.12321,0.02665
3138.19439,0.02664
3136.26556,0.02671
3134.33674,0.02668
3132.40792,0.02658
3130.47910,0.02651
3128.55027,0.02644
3126.62145,0.02639
3124.69263,0.02637
3122.76381,0.02647
3120.83498,0.02675
3118.90616,0.02716
3116.97734,0.02753
3115.04851,0.02770
3113.11969,0.02777
3111.19087,0.02770
3109.26205,0.02740
3107.33322,0.02707
3105.40440,0.02692
3103.47558,0.02697
3101.54676,0.02717
3099.61793,0.02728
3097.68911,0.02701
3095.76029,0.02668
3093.83147,0.02664
3091.90264,0.02668
3089.97382,0.02680
3088.04500,0.02717
3086.11618,0.02738
3084.18735,0.02713
3082.25853,0.02688
3080.32971,0.02694
3078.40089,0.02701
3076.47206,0.02705
3074.54324,0.02720
3072.61442,0.02722
3070.68559,0.02699
3068.75677,0.02668
3066.82795,0.02652
3064.89913,0.02664
3062.97030,0.02689
3061.04148,0.02695
3059.11266,0.02684
3057.18384,0.02674
3055.25501,0.02678
3053.32619,0.02693
3051.39737,0.02701
3049.46855,0.02691
3047.53972,0.02683
3045.61090,0.02682
3043.68208,0.02654
3041.75326,0.02617
3039.82443,0.02636
3037.89561,0.02705
3035.96679,0.02739
3034.03797,0.02702
3032.10914,0.02670
3030.18032,0.02681
3028.25150,0.02685
3026.32267,0.02669
3024.39385,0.02677
3022.46503,0.02711
3020.53621,0.02720
3018.60738,0.02719
3016.67856,0.02723
3014.74974,0.02703
3012.82092,0.02673
3010.89209,0.02661
3008.96327,0.02659
3007.03445,0.02668
3005.10563,0.02680
3003.17680,0.02675
3001.24798,0.02659
2999.31916,0.02653
2997.39034,0.02651
2995.46151,0.02648
2993.53269,0.02652
2991.60387,0.02648
2989.67505,0.02621
2987.74622,0.02590
2985.81740,0.02581
2983.88858,0.02585
2981.95975,0.02593
2980.03093,0.02604
2978.10211,0.02603
2976.17329,0.02600
2974.24446,0.02611
2972.31564,0.02615
2970.38682,0.02601
2968.45800,0.02588
2966.52917,0.02584
2964.60035,0.02583
2962.67153,0.02577
2960.74271,0.02570
2958.81388,0.02573
2956.88506,0.02578
2954.95624,0.02588
2953.02742,0.02597
2951.09859,0.02586
2949.16977,0.02576
2947.24095,0.02578
2945.31213,0.02567
2943.38330,0.02533
2941.45448,0.02512
2939.52566,0.02541
2937.59683,0.02600
2935.66801,0.02631
2933.73919,0.02617
2931.81037,0.02593
2929.88154,0.02587
2927.95272,0.02572
2926.02390,0.02539
2924.09508,0.02529
2922.16625,0.02561
2920.23743,0.02604
2918.30861,0.02633
2916.37979,0.02642
2914.45096,0.02633
2912.52214,0.02640
2910.59332,0.02659
2908.66450,0.02652
2906.73567,0.02630
2904.80685,0.02631
2902.87803,0.02660
2900.94921,0.02680
2899.02038,0.02668
2897.09156,0.02646
2895.16274,0.02641
2893.23391,0.02640
2891.30509,0.02632
2889.37627,0.02638
2887.44745,0.02668
2885.51862,0.02695
2883.58980,0.02689
2881.66098,0.02663
2879.73216,0.02642
2877.80333,0.02615
2875.87451,0.02588
2873.94569,0.02589
2872.01687,0.02603
2870.08804,0.02622
2868.15922,0.02653
2866.23040,0.02672
2864.30158,0.02675
2862.37275,0.02674
2860.44393,0.02680
2858.51511,0.02696
2856.58629,0.02698
2854.65746,0.02688
2852.72864,0.02687
2850.79982,0.02689
2848.87099,0.02697
2846.94217,0.02714
2845.01335,0.02728
2843.08453,0.02742
2841.15570,0.02752
2839.22688,0.02760
2837.29806,0.02772
2835.36924,0.02775
2833.44041,0.02759
2831.51159,0.02737
2829.58277,0.02725
2827.65395,0.02724
2825.72512,0.02727
2823.79630,0.02735
2821.86748,0.02744
2819.93866,0.02747
2818.00983,0.02749
2816.08101,0.02756
2814.15219,0.02760
2812.22337,0.02759
2810.29454,0.02765
2808.36572,0.02768
2806.43690,0.02754
2804.50807,0.02747
2802.57925,0.02759
2800.65043,0.02772
2798.72161,0.02769
2796.79278,0.02754
2794.86396,0.02741
2792.93514,0.02726
2791.00632,0.02698
2789.07749,0.02679
2787.14867,0.02698
2785.21985,0.02738
2783.29103,0.02767
2781.36220,0.02778
2779.43338,0.02778
2777.50456,0.02775
2775.57574,0.02767
2773.64691,0.02757
2771.71809,0.02749
2769.78927,0.02745
2767.86045,0.02754
2765.93162,0.02781
2764.00280,0.02796
2762.07398,0.02787
2760.14515,0.02765
2758.21633,0.02734
2756.28751,0.02711
2754.35869,0.02725
2752.42986,0.02747
2750.50104,0.02741
2748.57222,0.02729
2746.64340,0.02734
2744.71457,0.02743
2742.78575,0.02739
2740.85693,0.02716
2738.92811,0.02689
2736.99928,0.02688
2735.07046,0.02709
2733.14164,0.02727
2731.21282,0.02734
2729.28399,0.02732
2727.35517,0.02735
2725.42635,0.02736
2723.49753,0.02723
2721.56870,0.02720
2719.63988,0.02745
2717.71106,0.02767
2715.78223,0.02763
2713.85341,0.02742
2711.92459,0.02715
2709.99577,0.02714
2708.06694,0.02750
2706.13812,0.02787
2704.20930,0.02800
2702.28048,0.02795
2700.35165,0.02781
2698.42283,0.02765
2696.49401,0.02747
2694.56519,0.02733
2692.63636,0.02736
2690.70754,0.02740
2688.77872,0.02730
2686.84990,0.02723
2684.92107,0.02731
2682.99225,0.02737
2681.06343,0.02735
2679.13461,0.02731
2677.20578,0.02730
2675.27696,0.02732
2673.34814,0.02738
2671.41931,0.02739
2669.49049,0.02733
2667.56167,0.02731
2665.63285,0.02727
2663.70402,0.02711
2661.77520,0.02708
2659.84638,0.02729
2657.91756,0.02745
2655.98873,0.02749
2654.05991,0.02742
2652.13109,0.02716
2650.20227,0.02694
2648.27344,0.02704
2646.34462,0.02730
2644.41580,0.02741
2642.48698,0.02740
2640.55815,0.02749
2638.62933,0.02772
2636.70051,0.02775
2634.77169,0.02746
2632.84286,0.02730
2630.91404,0.02753
2628.98522,0.02763
2627.05639,0.02741
2625.12757,0.02730
2623.19875,0.02747
2621.26993,0.02761
2619.34110,0.02758
2617.41228,0.02737
2615.48346,0.02706
2613.55464,0.02689
2611.62581,0.02702
2609.69699,0.02719
2607.76817,0.02716
2605.83935,0.02703
2603.91052,0.02700
2601.98170,0.02701
2600.05288,0.02703
2598.12406,0.02718
2596.19523,0.02719
2594.26641,0.02691
2592.33759,0.02683
2590.40877,0.02708
2588.47994,0.02722
2586.55112,0.02710
2584.62230,0.02699
2582.69347,0.02706
2580.76465,0.02722
2578.83583,0.02728
2576.90701,0.02718
2574.97818,0.02705
2573.04936,0.02700
2571.12054,0.02695
2569.19172,0.02686
2567.26289,0.02686
2565.33407,0.02703
2563.40525,0.02724
2561.47643,0.02721
2559.54760,0.02695
2557.61878,0.02676
2555.68996,0.02677
2553.76114,0.02684
2551.83231,0.02692
2549.90349,0.02703
2547.97467,0.02722
2546.04585,0.02749
2544.11702,0.02758
2542.18820,0.02734
2540.25938,0.02701
2538.33055,0.02687
2536.40173,0.02688
2534.47291,0.02697
2532.54409,0.02707
2530.61526,0.02707
2528.68644,0.02701
2526.75762,0.02691
2524.82880,0.02678
2522.89997,0.02674
2520.97115,0.02680
2519.04233,0.02697
2517.11351,0.02718
2515.18468,0.02731
2513.25586,0.02737
2511.32704,0.02735
2509.39822,0.02712
2507.46939,0.02679
2505.54057,0.02663
2503.61175,0.02671
2501.68292,0.02691
2499.75410,0.02707
2497.82528,0.02714
2495.89646,0.02716
2493.96763,0.02707
2492.03881,0.02688
2490.10999,0.02681
2488.18117,0.02690
2486.25234,0.02692
2484.32352,0.02694
2482.39470,0.02716
2480.46588,0.02731
2478.53705,0.02718
2476.60823,0.02698
2474.67941,0.02688
2472.75059,0.02684
2470.82176,0.02682
2468.89294,0.02686
2466.96412,0.02699
2465.03530,0.02708
2463.10647,0.02703
2461.17765,0.02698
2459.24883,0.02693
2457.32000,0.02684
2455.39118,0.02681
2453.46236,0.02687
2451.53354,0.02683
2449.60471,0.02679
2447.67589,0.02689
2445.74707,0.02695
2443.81825,0.02686
2441.88942,0.02683
2439.96060,0.02692
2438.03178,0.02697
2436.10296,0.02683
2434.17413,0.02675
2432.24531,0.02694
2430.31649,0.02710
2428.38767,0.02702
2426.45884,0.02692
2424.53002,0.02696
2422.60120,0.02699
2420.67238,0.02691
2418.74355,0.02684
2416.81473,0.02682
2414.88591,0.02673
2412.95708,0.02671
2411.02826,0.02694
2409.09944,0.02720
2407.17062,0.02726
2405.24179,0.02720
2403.31297,0.02712
2401.38415,0.02713
2399.45533,0.02715
2397.52650,0.02700
2395.59768,0.02687
2393.66886,0.02692
2391.74004,0.02699
2389.81121,0.02696
2387.88239,0.02691
2385.95357,0.02694
2384.02475,0.02700
2382.09592,0.02697
2380.16710,0.02705
2378.23828,0.02738
2376.30946,0.02757
2374.38063,0.02742
2372.45181,0.02720
2370.52299,0.02718
2368.59416,0.02735
2366.66534,0.02746
2364.73652,0.02750
2362.80770,0.02760
2360.87887,0.02770
2358.95005,0.02775
2357.02123,0.02774
2355.09241,0.02760
2353.16358,0.02736
2351.23476,0.02709
2349.30594,0.02692
2347.37712,0.02693
2345.44829,0.02706
2343.51947,0.02717
2341.59065,0.02719
2339.66183,0.02722
2337.73300,0.02732
2335.80418,0.02733
2333.87536,0.02726
2331.94654,0.02720
2330.01771,0.02710
2328.08889,0.02688
2326.16007,0.02672
2324.23124,0.02675
2322.30242,0.02688
2320.37360,0.02708
2318.44478,0.02724
2316.51595,0.02712
2314.58713,0.02682
2312.65831,0.02670
2310.72949,0.02688
2308.80066,0.02711
2306.87184,0.02717
2304.94302,0.02710
2303.01420,0.02697
2301.08537,0.02679
2299.15655,0.02671
2297.22773,0.02670
2295.29891,0.02654
2293.37008,0.02632
2291.44126,0.02626
2289.51244,0.02632
2287.58362,0.02641
2285.65479,0.02661
2283.72597,0.02694
2281.79715,0.02714
2279.86832,0.02699
2277.93950,0.02662
2276.01068,0.02631
2274.08186,0.02620
2272.15303,0.02613
2270.22421,0.02604
2268.29539,0.02621
2266.36657,0.02666
2264.43774,0.02692
2262.50892,0.02676
2260.58010,0.02659
2258.65128,0.02663
2256.72245,0.02662
2254.79363,0.02650
2252.86481,0.02652
2250.93599,0.02664
2249.00716,0.02671
2247.07834,0.02670
2245.14952,0.02664
2243.22070,0.02658
2241.29187,0.02654
2239.36305,0.02648
2237.43423,0.02640
2235.50540,0.02642
2233.57658,0.02645
2231.64776,0.02636
2229.71894,0.02628
2227.79011,0.02631
2225.86129,0.02636
2223.93247,0.02644
2222.00365,0.02654
2220.07482,0.02654
2218.14600,0.02641
2216.21718,0.02626
2214.28836,0.02618
2212.35953,0.02624
2210.43071,0.02654
2208.50189,0.02680
2206.57307,0.02672
2204.64424,0.02653
2202.71542,0.02643
2200.78660,0.02628
2198.85778,0.02615
2196.92895,0.02619
2195.00013,0.02633
2193.07131,0.02643
2191.14248,0.02652
2189.21366,0.02645
2187.28484,0.02632
2185.35602,0.02640
2183.42719,0.02656
2181.49837,0.02649
2179.56955,0.02635
2177.64073,0.02625
2175.71190,0.02614
2173.78308,0.02616
2171.85426,0.02637
2169.92544,0.02646
2167.99661,0.02628
2166.06779,0.02604
2164.13897,0.02598
2162.21015,0.02624
2160.28132,0.02653
2158.35250,0.02642
2156.42368,0.02615
2154.49486,0.02624
2152.56603,0.02645
2150.63721,0.02650
2148.70839,0.02654
2146.77956,0.02654
2144.85074,0.02646
2142.92192,0.02643
2140.99310,0.02637
2139.06427,0.02631
2137.13545,0.02629
2135.20663,0.02618
2133.27781,0.02605
2131.34898,0.02607
2129.42016,0.02614
2127.49134,0.02616
2125.56252,0.02614
2123.63369,0.02614
2121.70487,0.02621
2119.77605,0.02642
2117.84723,0.02653
2115.91840,0.02642
2113.98958,0.02630
2112.06076,0.02627
2110.13194,0.02621
2108.20311,0.02616
2106.27429,0.02614
2104.34547,0.02608
2102.41664,0.02606
2100.48782,0.02607
2098.55900,0.02602
2096.63018,0.02598
2094.70135,0.02603
2092.77253,0.02600
2090.84371,0.02582
2088.91489,0.02565
2086.98606,0.02569
2085.05724,0.02587
2083.12842,0.02589
2081.19960,0.02575
2079.27077,0.02569
2077.34195,0.02573
2075.41313,0.02579
2073.48431,0.02585
2071.55548,0.02584
2069.62666,0.02581
2067.69784,0.02586
2065.76902,0.02592
2063.84019,0.02592
2061.91137,0.02600
2059.98255,0.02621
2058.05372,0.02641
2056.12490,0.02644
2054.19608,0.02627
2052.26726,0.02608
2050.33843,0.02600
2048.40961,0.02608
2046.48079,0.02618
2044.55197,0.02617
2042.62314,0.02608
2040.69432,0.02602
2038.76550,0.02597
2036.83668,0.02593
2034.90785,0.02600
2032.97903,0.02608
2031.05021,0.02605
2029.12139,0.02603
2027.19256,0.02605
2025.26374,0.02608
2023.33492,0.02620
2021.40610,0.02631
2019.47727,0.02619
2017.54845,0.02587
2015.61963,0.02569
2013.69080,0.02571
2011.76198,0.02577
2009.83316,0.02573
2007.90434,0.02565
2005.97551,0.02569
2004.04669,0.02579
2002.11787,0.02582
2000.18905,0.02584
1998.26022,0.02581
1996.33140,0.02582
1994.40258,0.02591
1992.47376,0.02589
1990.54493,0.02570
1988.61611,0.02553
1986.68729,0.02549
1984.75847,0.02560
1982.82964,0.02575
1980.90082,0.02584
1978.97200,0.02587
1977.04318,0.02596
1975.11435,0.02601
1973.18553,0.02591
1971.25671,0.02578
1969.32788,0.02573
1967.39906,0.02575
1965.47024,0.02578
1963.54142,0.02572
1961.61259,0.02563
1959.68377,0.02557
1957.75495,0.02550
1955.82613,0.02552
1953.89730,0.02567
1951.96848,0.02575
1950.03966,0.02575
1948.11084,0.02571
1946.18201,0.02559
1944.25319,0.02545
1942.32437,0.02539
1940.39555,0.02537
1938.46672,0.02542
1936.53790,0.02556
1934.60908,0.02566
1932.68026,0.02569
1930.75143,0.02567
1928.82261,0.02553
1926.89379,0.02545
1924.96496,0.02549
1923.03614,0.02553
1921.10732,0.02560
1919.17850,0.02570
1917.24967,0.02564
1915.32085,0.02551
1913.39203,0.02552
1911.46321,0.02566
1909.53438,0.02570
1907.60556,0.02558
1905.67674,0.02543
1903.74792,0.02539
1901.81909,0.02542
1899.89027,0.02551
1897.96145,0.02566
1896.03263,0.02567
1894.10380,0.02547
1892.17498,0.02538
1890.24616,0.02542
1888.31734,0.02534
1886.38851,0.02524
1884.45969,0.02527
1882.53087,0.02527
1880.60204,0.02516
1878.67322,0.02505
1876.74440,0.02498
1874.81558,0.02494
1872.88675,0.02505
1870.95793,0.02535
1869.02911,0.02563
1867.10029,0.02558
1865.17146,0.02531
1863.24264,0.02508
1861.31382,0.02493
1859.38500,0.02497
1857.45617,0.02519
1855.52735,0.02522
1853.59853,0.02501
1851.66971,0.02484
1849.74088,0.02488
1847.81206,0.02512
1845.88324,0.02541
1843.95442,0.02543
1842.02559,0.02513
1840.09677,0.02490
1838.16795,0.02481
1836.23912,0.02472
1834.31030,0.02469
1832.38148,0.02480
1830.45266,0.02488
1828.52383,0.02483
1826.59501,0.02480
1824.66619,0.02464
1822.73737,0.02440
1820.80854,0.02433
1818.87972,0.02442
1816.95090,0.02457
1815.02208,0.02467
1813.09325,0.02456
1811.16443,0.02432
1809.23561,0.02425
1807.30679,0.02430
1805.37796,0.02427
1803.44914,0.02419
1801.52032,0.02412
1799.59150,0.02419
1797.66267,0.02439
1795.73385,0.02439
1793.80503,0.02411
1791.87620,0.02372
1789.94738,0.02354
1788.01856,0.02358
1786.08974,0.02364
1784.16091,0.02359
1782.23209,0.02352
1780.30327,0.02347
1778.37445,0.02349
1776.44562,0.02356
1774.51680,0.02352
1772.58798,0.02324
1770.65916,0.02297
1768.73033,0.02288
1766.80151,0.02281
1764.87269,0.02270
1762.94387,0.02251
1761.01504,0.02220
1759.08622,0.02183
1757.15740,0.02155
1755.22857,0.02159
1753.29975,0.02184
1751.37093,0.02201
1749.44211,0.02201
1747.51328,0.02200
1745.58446,0.02206
1743.65564,0.02216
1741.72682,0.02235
1739.79799,0.02272
1737.86917,0.02312
1735.94035,0.02337
1734.01153,0.02363
1732.08270,0.02404
1730.15388,0.02422
1728.22506,0.02412
1726.29624,0.02400
1724.36741,0.02392
1722.43859,0.02399
1720.50977,0.02438
1718.58095,0.02471
1716.65212,0.02438
1714.72330,0.02395
1712.79448,0.02393
1710.86565,0.02412
1708.93683,0.02447
1707.00801,0.02472
1705.07919,0.02451
1703.15036,0.02410
1701.22154,0.02359
1699.29272,0.02278
1697.36390,0.02225
1695.43507,0.02243
1693.50625,0.02296
1691.57743,0.02326
1689.64861,0.02323
1687.71978,0.02326
1685.79096,0.02356
1683.86214,0.02350
1681.93332,0.02292
1680.00449,0.02265
1678.07567,0.02256
1676.14685,0.02239
1674.21803,0.02225
1672.28920,0.02232
1670.36038,0.02230
1668.43156,0.02206
1666.50273,0.02189
1664.57391,0.02180
1662.64509,0.02168
1660.71627,0.02157
1658.78744,0.02158
1656.85862,0.02169
1654.92980,0.02197
1653.00098,0.02258
1651.07215,0.02306
1649.14333,0.02318
1647.21451,0.02272
1645.28569,0.02198
1643.35686,0.02176
1641.42804,0.02181
1639.49922,0.02191
1637.57040,0.02200
1635.64157,0.02207
1633.71275,0.02209
1631.78393,0.02216
1629.85511,0.02232
1627.92628,0.02244
1625.99746,0.02242
1624.06864,0.02232
1622.13981,0.02221
1620.21099,0.02218
1618.28217,0.02230
1616.35335,0.02239
1614.42452,0.02236
1612.49570,0.02240
1610.56688,0.02238
1608.63806,0.02230
1606.70923,0.02236
1604.78041,0.02247
1602.85159,0.02255
1600.92277,0.02257
1598.99394,0.02246
1597.06512,0.02232
1595.13630,0.02233
1593.20748,0.02236
1591.27865,0.02234
1589.34983,0.02232
1587.42101,0.02221
1585.49219,0.02201
1583.56336,0.02195
1581.63454,0.02211
1579.70572,0.02236
1577.77689,0.02255
1575.84807,0.02253
1573.91925,0.02238
1571.99043,0.02222
1570.06160,0.02196
1568.13278,0.02186
1566.20396,0.02201
1564.27514,0.02209
1562.34631,0.02215
1560.41749,0.02209
1558.48867,0.02147
1556.55985,0.02159
1554.63102,0.02227
1552.70220,0.02265
1550.77338,0.02258
1548.84456,0.02235
1546.91573,0.02228
1544.98691,0.02239
1543.05809,0.02248
1541.12927,0.02214
1539.20044,0.02166
1537.27162,0.02198
1535.34280,0.02251
1533.41397,0.02261
1531.48515,0.02233
1529.55633,0.02225
1527.62751,0.02241
1525.69868,0.02268
1523.76986,0.02287
1521.84104,0.02281
1519.91222,0.02276
1517.98339,0.02282
1516.05457,0.02267
1514.12575,0.02233
1512.19693,0.02207
1510.26810,0.02205
1508.33928,0.02210
1506.41046,0.02178
1504.48164,0.02163
1502.55281,0.02186
1500.62399,0.02229
1498.69517,0.02270
1496.76635,0.02269
1494.83752,0.02249
1492.90870,0.02252
1490.97988,0.02259
1489.05105,0.02251
1487.12223,0.02244
1485.19341,0.02242
1483.26459,0.02234
1481.33576,0.02218
1479.40694,0.02212
1477.47812,0.02225
1475.54930,0.02234
1473.62047,0.02190
1471.69165,0.02140
1469.76283,0.02149
1467.83401,0.02179
1465.90518,0.02198
1463.97636,0.02174
1462.04754,0.02140
1460.11872,0.02154
1458.18989,0.02205
1456.26107,0.02208
1454.33225,0.02194
1452.40343,0.02210
1450.47460,0.02219
1448.54578,0.02204
1446.61696,0.02191
1444.68813,0.02194
1442.75931,0.02198
1440.83049,0.02199
1438.90167,0.02191
1436.97284,0.02160
1435.04402,0.02126
1433.11520,0.02132
1431.18638,0.02156
1429.25755,0.02167
1427.32873,0.02171
1425.39991,0.02175
1423.47109,0.02167
1421.54226,0.02162
1419.61344,0.02172
1417.68462,0.02182
1415.75580,0.02178
1413.82697,0.02162
1411.89815,0.02144
1409.96933,0.02133
1408.04051,0.02128
1406.11168,0.02133
1404.18286,0.02138
1402.25404,0.02119
1400.32521,0.02087
1398.39639,0.02074
1396.46757,0.02081
1394.53875,0.02079
1392.60992,0.02072
1390.68110,0.02068
1388.75228,0.02070
1386.82346,0.02081
1384.89463,0.02093
1382.96581,0.02107
1381.03699,0.02125
1379.10817,0.02133
1377.17934,0.02126
1375.25052,0.02115
1373.32170,0.02103
1371.39288,0.02093
1369.46405,0.02092
1367.53523,0.02105
1365.60641,0.02118
1363.67759,0.02117
1361.74876,0.02114
1359.81994,0.02117
1357.89112,0.02113
1355.96229,0.02100
1354.03347,0.02097
1352.10465,0.02106
1350.17583,0.02096
1348.24700,0.02066
1346.31818,0.02051
1344.38936,0.02045
1342.46054,0.02032
1340.53171,0.02018
1338.60289,0.02010
1336.67407,0.02002
1334.74525,0.01993
1332.81642,0.01990
1330.88760,0.02002
1328.95878,0.02016
1327.02996,0.02012
1325.10113,0.02004
1323.17231,0.02000
1321.24349,0.01985
1319.31467,0.01969
1317.38584,0.01967
1315.45702,0.01975
1313.52820,0.01980
1311.59937,0.01979
1309.67055,0.01984
1307.74173,0.01996
1305.81291,0.02005
1303.88408,0.02010
1301.95526,0.02014
1300.02644,0.02010
1298.09762,0.02011
1296.16879,0.02037
1294.23997,0.02067
1292.31115,0.02074
1290.38233,0.02072
1288.45350,0.02088
1286.52468,0.02117
1284.59586,0.02139
1282.66704,0.02155
1280.73821,0.02166
1278.80939,0.02165
1276.88057,0.02160
1274.95175,0.02164
1273.02292,0.02177
1271.09410,0.02187
1269.16528,0.02184
1267.23645,0.02183
1265.30763,0.02197
1263.37881,0.02212
1261.44999,0.02210
1259.52116,0.02204
1257.59234,0.02219
1255.66352,0.02243
1253.73470,0.02248
1251.80587,0.02238
1249.87705,0.02238
1247.94823,0.02255
1246.01941,0.02279
1244.09058,0.02287
1242.16176,0.02253
1240.23294,0.02210
1238.30412,0.02201
1236.37529,0.02219
1234.44647,0.02243
1232.51765,0.02255
1230.58883,0.02243
1228.66000,0.02225
1226.73118,0.02221
1224.80236,0.02218
1222.87353,0.02215
1220.94471,0.02222
1219.01589,0.02232
1217.08707,0.02224
1215.15824,0.02188
1213.22942,0.02138
1211.30060,0.02106
1209.37178,0.02115
1207.44295,0.02142
1205.51413,0.02149
1203.58531,0.02142
1201.65649,0.02151
1199.72766,0.02169
1197.79884,0.02162
1195.87002,0.02126
1193.94120,0.02093
1192.01237,0.02082
1190.08355,0.02083
1188.15473,0.02092
1186.22591,0.02109
1184.29708,0.02113
1182.36826,0.02097
1180.43944,0.02072
1178.51061,0.02043
1176.58179,0.02029
1174.65297,0.02040
1172.72415,0.02054
1170.79532,0.02052
1168.86650,0.02032
1166.93768,0.02000
1165.00886,0.01978
1163.08003,0.01982
1161.15121,0.02013
1159.22239,0.02051
1157.29357,0.02051
1155.36474,0.02000
1153.43592,0.01956
1151.50710,0.01955
1149.57828,0.01985
1147.64945,0.02019
1145.72063,0.02047
1143.79181,0.02060
1141.86299,0.02056
1139.93416,0.02051
1138.00534,0.02061
1136.07652,0.02083
1134.14769,0.02103
1132.21887,0.02121
1130.29005,0.02148
1128.36123,0.02177
1126.43240,0.02188
1124.50358,0.02184
1122.57476,0.02199
1120.64594,0.02232
1118.71711,0.02263
1116.78829,0.02274
1114.85947,0.02266
1112.93065,0.02245
1111.00182,0.02226
1109.07300,0.02223
1107.14418,0.02221
1105.21536,0.02207
1103.28653,0.02199
1101.35771,0.02182
1099.42889,0.02148
1097.50007,0.02138
1095.57124,0.02166
1093.64242,0.02190
1091.71360,0.02185
1089.78477,0.02166
1087.85595,0.02147
1085.92713,0.02148
1083.99831,0.02181
1082.06948,0.02234
1080.14066,0.02285
1078.21184,0.02324
1076.28302,0.02368
1074.35419,0.02408
1072.42537,0.02412
1070.49655,0.02392
1068.56773,0.02382
1066.63890,0.02399
1064.71008,0.02412
1062.78126,0.02396
1060.85244,0.02378
1058.92361,0.02383
1056.99479,0.02388
1055.06597,0.02366
1053.13714,0.02342
1051.20832,0.02346
1049.27950,0.02355
1047.35068,0.02339
1045.42185,0.02316
1043.49303,0.02312
1041.56421,0.02324
1039.63539,0.02338
1037.70656,0.02352
1035.77774,0.02370
1033.84892,0.02367
1031.92010,0.02321
1029.99127,0.02283
1028.06245,0.02288
1026.13363,0.02303
1024.20481,0.02298
1022.27598,0.02271
1020.34716,0.02249
1018.41834,0.02261
1016.48952,0.02285
1014.56069,0.02314
1012.63187,0.02358
1010.70305,0.02394
1008.77422,0.02404
1006.84540,0.02422
1004.91658,0.02455
1002.98776,0.02459
1001.05893,0.02426
999.13011,0.02410
997.20129,0.02431
995.27247,0.02465
993.34364,0.02486
991.41482,0.02477
989.48600,0.02450
987.55718,0.02426
985.62835,0.02416
983.69953,0.02424
981.77071,0.02441
979.84189,0.02439
977.91306,0.02425
975.98424,0.02420
974.05542,0.02416
972.12660,0.02412
970.19777,0.02416
968.26895,0.02411
966.34013,0.02388
964.41130,0.02366
962.48248,0.02363
960.55366,0.02353
958.62484,0.02312
956.69601,0.02296
954.76719,0.02340
952.83837,0.02361
950.90955,0.02329
948.98072,0.02318
947.05190,0.02322
945.12308,0.02288
943.19426,0.02241
941.26543,0.02239
939.33661,0.02289
937.40779,0.02330
935.47897,0.02309
933.55014,0.02256
931.62132,0.02220
929.69250,0.02211
927.76368,0.02233
925.83485,0.02267
923.90603,0.02281
921.97721,0.02266
920.04838,0.02231
918.11956,0.02206
916.19074,0.02216
914.26192,0.02242
912.33309,0.02250
910.40427,0.02236
908.47545,0.02222
906.54663,0.02239
904.61780,0.02267
902.68898,0.02259
900.76016,0.02236
898.83134,0.02236
896.90251,0.02254
894.97369,0.02248
893.04487,0.02201
891.11605,0.02180
889.18722,0.02212
887.25840,0.02240
885.32958,0.02238
883.40076,0.02243
881.47193,0.02258
879.54311,0.02250
877.61429,0.02238
875.68546,0.02243
873.75664,0.02225
871.82782,0.02190
869.89900,0.02189
867.97017,0.02221
866.04135,0.02260
864.11253,0.02282
862.18371,0.02272
860.25488,0.02240
858.32606,0.02204
856.39724,0.02185
854.46842,0.02193
852.53959,0.02204
850.61077,0.02172
848.68195,0.02134
846.75313,0.02163
844.82430,0.02217
842.89548,0.02241
840.96666,0.02259
839.03784,0.02274
837.10901,0.02257
835.18019,0.02225
833.25137,0.02203
831.32254,0.02193
829.39372,0.02183
827.46490,0.02168
825.53608,0.02143
823.60725,0.02114
821.67843,0.02093
819.74961,0.02106
817.82079,0.02145
815.89196,0.02162
813.96314,0.02147
812.03432,0.02120
810.10550,0.02113
808.17667,0.02129
806.24785,0.02125
804.31903,0.02094
802.39021,0.02069
800.46138,0.02071
798.53256,0.02080
796.60374,0.02067
794.67492,0.02070
792.74609,0.02103
790.81727,0.02106
788.88845,0.02074
786.95962,0.02057
785.03080,0.02066
783.10198,0.02097
781.17316,0.02135
779.24433,0.02154
777.31551,0.02145
775.38669,0.02110
773.45787,0.02072
771.52904,0.02082
769.60022,0.02137
767.67140,0.02151
765.74258,0.02103
763.81375,0.02072
761.88493,0.02087
759.95611,0.02091
758.02729,0.02095
756.09846,0.02118
754.16964,0.02083
752.24082,0.02003
750.31200,0.01989
748.38317,0.02018
746.45435,0.02006
744.52553,0.01993
742.59670,0.02039
740.66788,0.02104
738.73906,0.02111
736.81024,0.02062
734.88141,0.02016
732.95259,0.01980
731.02377,0.01947
729.09495,0.01937
727.16612,0.01925
725.23730,0.01908
723.30848,0.01908
721.37966,0.01934
719.45083,0.01972
717.52201,0.02003
715.59319,0.02025
713.66437,0.02041
711.73554,0.02031
709.80672,0.01973
707.87790,0.01915
705.94908,0.01903
704.02025,0.01900
702.09143,0.01905
700.16261,0.01941
698.23378,0.01933
696.30496,0.01851
694.37614,0.01787
692.44732,0.01811
690.51849,0.01871
688.58967,0.01881
686.66085,0.01857
684.73203,0.01878
682.80320,0.01942
680.87438,0.01959
678.94556,0.01912
677.01674,0.01898
675.08791,0.01934
673.15909,0.01926
671.23027,0.01884
669.30145,0.01879
667.37262,0.01873
665.44380,0.01849
663.51498,0.01861
661.58616,0.01893
659.65733,0.01852
657.72851,0.01724
655.79969,0.01671
653.87086,0.01757
651.94204,0.01834
650.01322,0.01815
648.08440,0.01806
646.15557,0.01909
644.22675,0.02026
642.29793,0.02013
640.36911,0.01903
638.44028,0.01804
636.51146,0.01727
634.58264,0.01665
632.65382,0.01642
630.72499,0.01656
628.79617,0.01702
626.86735,0.01742
624.93853,0.01819
623.00970,0.01969
621.08088,0.02048
619.15206,0.01975
617.22324,0.01885
615.29441,0.01901
613.36559,0.01986
611.43677,0.01997
609.50794,0.01879
607.57912,0.01805
605.65030,0.01913
603.72148,0.02001
601.79265,0.01942
599.86383,0.01863
