7497.19974,0.09353
7495.27095,0.09398
7493.34216,0.09682
7491.41337,0.10412
7489.48459,0.11222
7487.55580,0.11558
7485.62701,0.11214
7483.69822,0.10862
7481.76943,0.10844
7479.84065,0.10599
7477.91186,0.09852
7475.98307,0.09347
7474.05428,0.09735
7472.12549,0.10771
7470.19670,0.11681
7468.26792,0.11742
7466.33913,0.11196
7464.41034,0.10915
7462.48155,0.10949
7460.55276,0.10755
7458.62398,0.10085
7456.69519,0.09376
7454.76640,0.09313
7452.83761,0.09779
7450.90882,0.10059
7448.98003,0.10245
7447.05125,0.10606
7445.12246,0.10785
7443.19367,0.10408
7441.26488,0.09706
7439.33609,0.09252
7437.40731,0.09287
7435.47852,0.09533
7433.54973,0.09819
7431.62094,0.10189
7429.69215,0.10461
7427.76336,0.10296
7425.83458,0.10097
7423.90579,0.10341
7421.97700,0.10767
7420.04821,0.10944
7418.11942,0.10810
7416.19063,0.10558
7414.26185,0.10308
7412.33306,0.10277
7410.40427,0.10417
7408.47548,0.10276
7406.54669,0.10065
7404.61791,0.10089
7402.68912,0.10276
7400.76033,0.10508
7398.83154,0.10360
7396.90275,0.09937
7394.97396,0.09896
7393.04518,0.10228
7391.11639,0.10507
7389.18760,0.10292
7387.25881,0.09785
7385.33002,0.09854
7383.40124,0.10480
7381.47245,0.10884
7379.54366,0.10952
7377.61487,0.11052
7375.68608,0.11193
7373.75729,0.11112
7371.82851,0.10699
7369.89972,0.10017
7367.97093,0.09442
7366.04214,0.09398
7364.11335,0.09805
7362.18457,0.10393
7360.25578,0.11014
7358.32699,0.11165
7356.39820,0.10488
7354.46941,0.09888
7352.54062,0.10077
7350.61184,0.10355
7348.68305,0.10355
7346.75426,0.10338
7344.82547,0.10066
7342.89668,0.09454
7340.96790,0.09524
7339.03911,0.10390
7337.11032,0.10828
7335.18153,0.10818
7333.25274,0.10736
7331.32395,0.10425
7329.39517,0.10025
7327.46638,0.09916
7325.53759,0.10356
7323.60880,0.10754
7321.68001,0.10576
7319.75122,0.10049
7317.82244,0.09633
7315.89365,0.09639
7313.96486,0.09612
7312.03607,0.09239
7310.10728,0.09291
7308.17850,0.09802
7306.24971,0.09997
7304.32092,0.09821
7302.39213,0.09628
7300.46334,0.09691
7298.53455,0.10037
7296.60577,0.10320
7294.67698,0.10591
7292.74819,0.10818
7290.81940,0.10792
7288.89061,0.10722
7286.96183,0.10601
7285.03304,0.10222
7283.10425,0.09957
7281.17546,0.10106
7279.24667,0.10280
7277.31788,0.10181
7275.38910,0.10234
7273.46031,0.10380
7271.53152,0.09968
7269.60273,0.09161
7267.67394,0.08928
7265.74516,0.09533
7263.81637,0.10197
7261.88758,0.10377
7259.95879,0.10171
7258.03000,0.09853
7256.10121,0.09638
7254.17243,0.09757
7252.24364,0.10403
7250.31485,0.11012
7248.38606,0.10965
7246.45727,0.10445
7244.52848,0.10093
7242.59970,0.10475
7240.67091,0.11058
7238.74212,0.10985
7236.81333,0.10532
7234.88454,0.10356
7232.95576,0.10849
7231.02697,0.11574
7229.09818,0.11705
7227.16939,0.11163
7225.24060,0.10310
7223.31181,0.09617
7221.38303,0.09280
7219.45424,0.09282
7217.52545,0.09754
7215.59666,0.10306
7213.66787,0.10319
7211.73909,0.09899
7209.81030,0.09447
7207.88151,0.09223
7205.95272,0.09512
7204.02393,0.10238
7202.09514,0.10721
7200.16636,0.10521
7198.23757,0.10153
7196.30878,0.10222
7194.37999,0.10586
7192.45120,0.10746
7190.52242,0.10453
7188.59363,0.10171
7186.66484,0.10348
7184.73605,0.10400
7182.80726,0.10137
7180.87847,0.10332
7178.94969,0.10911
7177.02090,0.11010
7175.09211,0.10572
7173.16332,0.10282
7171.23453,0.10343
7169.30575,0.10390
7167.37696,0.10335
7165.44817,0.10224
7163.51938,0.09864
7161.59059,0.09360
7159.66180,0.09433
7157.73302,0.10143
7155.80423,0.10730
7153.87544,0.10698
7151.94665,0.10188
7150.01786,0.09864
7148.08907,0.09946
7146.16029,0.10037
7144.23150,0.10129
7142.30271,0.10230
7140.37392,0.10059
7138.44513,0.09609
7136.51635,0.09252
7134.58756,0.09238
7132.65877,0.09366
7130.72998,0.09522
7128.80119,0.09738
7126.87240,0.09950
7124.94362,0.10276
7123.01483,0.10525
7121.08604,0.10319
7119.15725,0.10014
7117.22846,0.10095
7115.29968,0.10200
7113.37089,0.10057
7111.44210,0.10156
7109.51331,0.10566
7107.58452,0.10564
7105.65573,0.10052
7103.72695,0.09812
7101.79816,0.10043
7099.86937,0.10249
7097.94058,0.10530
7096.01179,0.11016
7094.08301,0.11216
7092.15422,0.10971
7090.22543,0.10671
7088.29664,0.10653
7086.36785,0.10628
7084.43906,0.10209
7082.51028,0.09937
7080.58149,0.10327
7078.65270,0.10942
7076.72391,0.11106
7074.79512,0.10865
7072.86634,0.10721
7070.93755,0.10724
7069.00876,0.10471
7067.07997,0.09855
7065.15118,0.09276
7063.22239,0.09097
7061.29361,0.09295
7059.36482,0.09648
7057.43603,0.09771
7055.50724,0.09676
7053.57845,0.09748
7051.64966,0.09904
7049.72088,0.09791
7047.79209,0.09708
7045.86330,0.10116
7043.93451,0.10668
7042.00572,0.10831
7040.07694,0.10605
7038.14815,0.10141
7036.21936,0.09827
7034.29057,0.09947
7032.36178,0.10067
7030.43299,0.09790
7028.50421,0.09552
7026.57542,0.09647
7024.64663,0.09899
7022.71784,0.10188
7020.78905,0.10444
7018.86027,0.10573
7016.93148,0.10514
7015.00269,0.10277
7013.07390,0.10036
7011.14511,0.10057
7009.21632,0.10239
7007.28754,0.10181
7005.35875,0.09920
7003.42996,0.09885
7001.50117,0.10049
6999.57238,0.09776
6997.64360,0.09134
6995.71481,0.09088
6993.78602,0.09785
6991.85723,0.10377
6989.92844,0.10490
6987.99965,0.10312
6986.07087,0.10041
6984.14208,0.09949
6982.21329,0.10202
6980.28450,0.10569
6978.35571,0.10697
6976.42692,0.10414
6974.49814,0.09842
6972.56935,0.09413
6970.64056,0.09511
6968.71177,0.09745
6966.78298,0.09823
6964.85420,0.10040
6962.92541,0.10190
6960.99662,0.09932
6959.06783,0.09706
6957.13904,0.10020
6955.21025,0.10677
6953.28147,0.11024
6951.35268,0.10872
6949.42389,0.10705
6947.49510,0.10836
6945.56631,0.10830
6943.63753,0.10412
6941.70874,0.10229
6939.77995,0.10522
6937.85116,0.10593
6935.92237,0.10331
6933.99358,0.10284
6932.06480,0.10453
6930.13601,0.10388
6928.20722,0.10045
6926.27843,0.09901
6924.34964,0.10075
6922.42086,0.10217
6920.49207,0.10302
6918.56328,0.10344
6916.63449,0.10176
6914.70570,0.09853
6912.77691,0.09699
6910.84813,0.09912
6908.91934,0.10226
6906.99055,0.10245
6905.06176,0.10042
6903.13297,0.10028
6901.20419,0.10174
6899.27540,0.10175
6897.34661,0.09991
6895.41782,0.09654
6893.48903,0.09479
6891.56024,0.09740
6889.63146,0.10095
6887.70267,0.10075
6885.77388,0.09927
6883.84509,0.10283
6881.91630,0.10810
6879.98751,0.10649
6878.05873,0.10000
6876.12994,0.09675
6874.20115,0.10011
6872.27236,0.10605
6870.34357,0.10815
6868.41479,0.10512
6866.48600,0.10138
6864.55721,0.09980
6862.62842,0.10066
6860.69963,0.10297
6858.77084,0.10448
6856.84206,0.10421
6854.91327,0.10285
6852.98448,0.10065
6851.05569,0.09931
6849.12690,0.09973
6847.19812,0.09871
6845.26933,0.09447
6843.34054,0.09188
6841.41175,0.09372
6839.48296,0.09709
6837.55417,0.09934
6835.62539,0.10095
6833.69660,0.10324
6831.76781,0.10480
6829.83902,0.10474
6827.91023,0.10457
6825.98145,0.10366
6824.05266,0.10203
6822.12387,0.10174
6820.19508,0.10196
6818.26629,0.10137
6816.33750,0.10169
6814.40872,0.10356
6812.47993,0.10491
6810.55114,0.10421
6808.62235,0.10154
6806.69356,0.09723
6804.76478,0.09276
6802.83599,0.09246
6800.90720,0.09624
6798.97841,0.09857
6797.04962,0.09954
6795.12083,0.10167
6793.19205,0.10302
6791.26326,0.10236
6789.33447,0.10164
6787.40568,0.10251
6785.47689,0.10496
6783.54810,0.10732
6781.61932,0.10659
6779.69053,0.10361
6777.76174,0.10325
6775.83295,0.10575
6773.90416,0.10766
6771.97538,0.10616
6770.04659,0.10109
6768.11780,0.09739
6766.18901,0.09964
6764.26022,0.10487
6762.33143,0.10794
6760.40265,0.10924
6758.47386,0.11084
6756.54507,0.11131
6754.61628,0.10896
6752.68749,0.10415
6750.75871,0.09956
6748.82992,0.09751
6746.90113,0.09771
6744.97234,0.09976
6743.04355,0.10235
6741.11476,0.10304
6739.18598,0.10263
6737.25719,0.10272
6735.32840,0.10270
6733.39961,0.10238
6731.47082,0.10219
6729.54204,0.10168
6727.61325,0.10090
6725.68446,0.10048
6723.75567,0.10119
6721.82688,0.10395
6719.89809,0.10721
6717.96931,0.10701
6716.04052,0.10446
6714.11173,0.10428
6712.18294,0.10597
6710.25415,0.10540
6708.32536,0.10254
6706.39658,0.10095
6704.46779,0.10119
6702.53900,0.10096
6700.61021,0.10019
6698.68142,0.10073
6696.75264,0.10245
6694.82385,0.10235
6692.89506,0.10033
6690.96627,0.09912
6689.03748,0.09899
6687.10869,0.09997
6685.17991,0.10250
6683.25112,0.10433
6681.32233,0.10418
6679.39354,0.10278
6677.46475,0.10067
6675.53597,0.09928
6673.60718,0.09993
6671.67839,0.10117
6669.74960,0.10200
6667.82081,0.10180
6665.89202,0.09975
6663.96324,0.09872
6662.03445,0.10168
6660.10566,0.10537
6658.17687,0.10657
6656.24808,0.10599
6654.31930,0.10465
6652.39051,0.10452
6650.46172,0.10542
6648.53293,0.10457
6646.60414,0.10392
6644.67535,0.10580
6642.74657,0.10753
6640.81778,0.10632
6638.88899,0.10280
6636.96020,0.09937
6635.03141,0.09900
6633.10263,0.10232
6631.17384,0.10430
6629.24505,0.10233
6627.31626,0.10109
6625.38747,0.10238
6623.45868,0.10266
6621.52990,0.10024
6619.60111,0.09739
6617.67232,0.09700
6615.74353,0.09910
6613.81474,0.10101
6611.88595,0.10043
6609.95717,0.09922
6608.02838,0.10094
6606.09959,0.10320
6604.17080,0.10303
6602.24201,0.10337
6600.31323,0.10503
6598.38444,0.10529
6596.45565,0.10464
6594.52686,0.10475
6592.59807,0.10462
6590.66928,0.10362
6588.74050,0.10427
6586.81171,0.10707
6584.88292,0.10829
6582.95413,0.10631
6581.02534,0.10466
6579.09656,0.10555
6577.16777,0.10597
6575.23898,0.10391
6573.31019,0.10223
6571.38140,0.10231
6569.45261,0.10171
6567.52383,0.10043
6565.59504,0.10121
6563.66625,0.10406
6561.73746,0.10630
6559.80867,0.10565
6557.87989,0.10355
6555.95110,0.10267
6554.02231,0.10174
6552.09352,0.09977
6550.16473,0.09922
6548.23594,0.10127
6546.30716,0.10390
6544.37837,0.10448
6542.44958,0.10358
6540.52079,0.10238
6538.59200,0.10029
6536.66322,0.09842
6534.73443,0.09831
6532.80564,0.09936
6530.87685,0.10028
6528.94806,0.10059
6527.01927,0.10218
6525.09049,0.10409
6523.16170,0.10267
6521.23291,0.09928
6519.30412,0.09799
6517.37533,0.10005
6515.44654,0.10330
6513.51776,0.10456
6511.58897,0.10467
6509.66018,0.10538
6507.73139,0.10431
6505.80260,0.10138
6503.87382,0.10095
6501.94503,0.10380
6500.01624,0.10617
6498.08745,0.10589
6496.15866,0.10420
6494.22987,0.10215
6492.30109,0.10014
6490.37230,0.09968
6488.44351,0.10077
6486.51472,0.10135
6484.58593,0.10029
6482.65715,0.09923
6480.72836,0.09985
6478.79957,0.10088
6476.87078,0.10213
6474.94199,0.10468
6473.01320,0.10745
6471.08442,0.10872
6469.15563,0.10772
6467.22684,0.10577
6465.29805,0.10421
6463.36926,0.10266
6461.44048,0.10206
6459.51169,0.10343
6457.58290,0.10476
6455.65411,0.10480
6453.72532,0.10492
6451.79653,0.10466
6449.86775,0.10346
6447.93896,0.10332
6446.01017,0.10419
6444.08138,0.10372
6442.15259,0.10195
6440.22380,0.10112
6438.29502,0.10240
6436.36623,0.10372
6434.43744,0.10315
6432.50865,0.10219
6430.57986,0.10274
6428.65108,0.10400
6426.72229,0.10452
6424.79350,0.10356
6422.86471,0.10131
6420.93592,0.09948
6419.00713,0.09915
6417.07835,0.09944
6415.14956,0.10067
6413.22077,0.10270
6411.29198,0.10312
6409.36319,0.10215
6407.43441,0.10168
6405.50562,0.10147
6403.57683,0.10172
6401.64804,0.10347
6399.71925,0.10523
6397.79046,0.10480
6395.86168,0.10323
6393.93289,0.10156
6392.00410,0.09935
6390.07531,0.09774
6388.14652,0.09883
6386.21774,0.10224
6384.28895,0.10438
6382.36016,0.10395
6380.43137,0.10329
6378.50258,0.10294
6376.57379,0.10265
6374.64501,0.10276
6372.71622,0.10262
6370.78743,0.10263
6368.85864,0.10364
6366.92985,0.10403
6365.00107,0.10273
6363.07228,0.10140
6361.14349,0.10152
6359.21470,0.10199
6357.28591,0.10102
6355.35712,0.09951
6353.42834,0.09955
6351.49955,0.10065
6349.57076,0.10135
6347.64197,0.10146
6345.71318,0.10149
6343.78439,0.10177
6341.85561,0.10179
6339.92682,0.10091
6337.99803,0.09986
6336.06924,0.09972
6334.14045,0.10024
6332.21167,0.10077
6330.28288,0.10077
6328.35409,0.10027
6326.42530,0.10089
6324.49651,0.10290
6322.56772,0.10438
6320.63894,0.10491
6318.71015,0.10481
6316.78136,0.10415
6314.85257,0.10362
6312.92378,0.10206
6310.99500,0.09950
6309.06621,0.09996
6307.13742,0.10334
6305.20863,0.10374
6303.27984,0.10063
6301.35105,0.09928
6299.42227,0.10025
6297.49348,0.10035
6295.56469,0.09993
6293.63590,0.10059
6291.70711,0.10204
6289.77833,0.10304
6287.84954,0.10217
6285.92075,0.10055
6283.99196,0.10084
6282.06317,0.10212
6280.13438,0.10167
6278.20560,0.10029
6276.27681,0.10038
6274.34802,0.10158
6272.41923,0.10245
6270.49044,0.10309
6268.56165,0.10319
6266.63287,0.10188
6264.70408,0.09998
6262.77529,0.09862
6260.84650,0.09767
6258.91771,0.09706
6256.98893,0.09760
6255.06014,0.09936
6253.13135,0.10063
6251.20256,0.09984
6249.27377,0.09893
6247.34498,0.10038
6245.41620,0.10205
6243.48741,0.10197
6241.55862,0.10195
6239.62983,0.10229
6237.70104,0.10196
6235.77226,0.10151
6233.84347,0.10180
6231.91468,0.10239
6229.98589,0.10217
6228.05710,0.10216
6226.12831,0.10325
6224.19953,0.10361
6222.27074,0.10226
6220.34195,0.10071
6218.41316,0.10095
6216.48437,0.10261
6214.55559,0.10385
6212.62680,0.10424
6210.69801,0.10362
6208.76922,0.10278
6206.84043,0.10360
6204.91164,0.10504
6202.98286,0.10516
6201.05407,0.10464
6199.12528,0.10424
6197.19649,0.10256
6195.26770,0.10030
6193.33892,0.09953
6191.41013,0.09972
6189.48134,0.10046
6187.55255,0.10245
6185.62376,0.10419
6183.69497,0.10380
6181.76619,0.10245
6179.83740,0.10179
6177.90861,0.10147
6175.97982,0.10132
6174.05103,0.10097
6172.12224,0.09960
6170.19346,0.09890
6168.26467,0.10034
6166.33588,0.10214
6164.40709,0.10250
6162.47830,0.10145
6160.54952,0.10022
6158.62073,0.10041
6156.69194,0.10266
6154.76315,0.10517
6152.83436,0.10533
6150.90557,0.10334
6148.97679,0.10135
6147.04800,0.10072
6145.11921,0.10211
6143.19042,0.10437
6141.26163,0.10531
6139.33285,0.10507
6137.40406,0.10502
6135.47527,0.10480
6133.54648,0.10438
6131.61769,0.10507
6129.68890,0.10590
6127.76012,0.10437
6125.83133,0.10134
6123.90254,0.09994
6121.97375,0.10101
6120.04496,0.10213
6118.11618,0.10128
6116.18739,0.09984
6114.25860,0.09999
6112.32981,0.10072
6110.40102,0.10104
6108.47223,0.10201
6106.54345,0.10320
6104.61466,0.10372
6102.68587,0.10347
6100.75708,0.10205
6098.82829,0.10134
6096.89951,0.10266
6094.97072,0.10341
6093.04193,0.10252
6091.11314,0.10187
6089.18435,0.10137
6087.25556,0.10050
6085.32678,0.10071
6083.39799,0.10172
6081.46920,0.10122
6079.54041,0.09970
6077.61162,0.09945
6075.68283,0.10058
6073.75405,0.10173
6071.82526,0.10203
6069.89647,0.10056
6067.96768,0.09760
6066.03889,0.09589
6064.11011,0.09703
6062.18132,0.09933
6060.25253,0.10031
6058.32374,0.09930
6056.39495,0.09817
6054.46616,0.09797
6052.53738,0.09821
6050.60859,0.09854
6048.67980,0.09826
6046.75101,0.09715
6044.82222,0.09649
6042.89344,0.09671
6040.96465,0.09702
6039.03586,0.09770
6037.10707,0.09869
6035.17828,0.09868
6033.24949,0.09796
6031.32071,0.09748
6029.39192,0.09776
6027.46313,0.09843
6025.53434,0.09801
6023.60555,0.09766
6021.67677,0.09887
6019.74798,0.09965
6017.81919,0.09927
6015.89040,0.09882
6013.96161,0.09780
6012.03282,0.09642
6010.10404,0.09593
6008.17525,0.09629
6006.24646,0.09696
6004.31767,0.09725
6002.38888,0.09736
6000.46009,0.09829
5998.53131,0.09910
5996.60252,0.09856
5994.67373,0.09818
5992.74494,0.09943
5990.81615,0.10072
5988.88737,0.09970
5986.95858,0.09689
5985.02979,0.09508
5983.10100,0.09573
5981.17221,0.09721
5979.24342,0.09732
5977.31464,0.09670
5975.38585,0.09695
5973.45706,0.09804
5971.52827,0.09891
5969.59948,0.09926
5967.67070,0.09983
5965.74191,0.10060
5963.81312,0.10072
5961.88433,0.10049
5959.95554,0.10143
5958.02675,0.10357
5956.09797,0.10434
5954.16918,0.10235
5952.24039,0.10002
5950.31160,0.09963
5948.38281,0.10012
5946.45403,0.09949
5944.52524,0.09843
5942.59645,0.09808
5940.66766,0.09766
5938.73887,0.09725
5936.81008,0.09780
5934.88130,0.09841
5932.95251,0.09776
5931.02372,0.09600
5929.09493,0.09445
5927.16614,0.09456
5925.23736,0.09593
5923.30857,0.09646
5921.37978,0.09544
5919.45099,0.09435
5917.52220,0.09464
5915.59341,0.09553
5913.66463,0.09542
5911.73584,0.09483
5909.80705,0.09509
5907.87826,0.09608
5905.94947,0.09642
5904.02068,0.09496
5902.09190,0.09307
5900.16311,0.09338
5898.23432,0.09509
5896.30553,0.09494
5894.37674,0.09340
5892.44796,0.09297
5890.51917,0.09263
5888.59038,0.09103
5886.66159,0.09001
5884.73280,0.09086
5882.80401,0.09244
5880.87523,0.09303
5878.94644,0.09214
5877.01765,0.09080
5875.08886,0.08995
5873.16007,0.08994
5871.23129,0.09090
5869.30250,0.09209
5867.37371,0.09258
5865.44492,0.09153
5863.51613,0.08939
5861.58734,0.08834
5859.65856,0.08843
5857.72977,0.08853
5855.80098,0.08929
5853.87219,0.08991
5851.94340,0.08899
5850.01462,0.08783
5848.08583,0.08788
5846.15704,0.08855
5844.22825,0.08860
5842.29946,0.08771
5840.37067,0.08684
5838.44189,0.08685
5836.51310,0.08786
5834.58431,0.08853
5832.65552,0.08697
5830.72673,0.08455
5828.79795,0.08384
5826.86916,0.08419
5824.94037,0.08440
5823.01158,0.08456
5821.08279,0.08475
5819.15400,0.08538
5817.22522,0.08640
5815.29643,0.08701
5813.36764,0.08665
5811.43885,0.08603
5809.51006,0.08631
5807.58127,0.08652
5805.65249,0.08627
5803.72370,0.08754
5801.79491,0.08958
5799.86612,0.09036
5797.93733,0.09055
5796.00855,0.09061
5794.07976,0.09056
5792.15097,0.09107
5790.22218,0.09141
5788.29339,0.09037
5786.36460,0.08896
5784.43582,0.08929
5782.50703,0.09128
5780.57824,0.09274
5778.64945,0.09281
5776.72066,0.09208
5774.79188,0.09138
5772.86309,0.09187
5770.93430,0.09319
5769.00551,0.09349
5767.07672,0.09298
5765.14793,0.09316
5763.21915,0.09392
5761.29036,0.09451
5759.36157,0.09456
5757.43278,0.09391
5755.50399,0.09337
5753.57521,0.09346
5751.64642,0.09355
5749.71763,0.09316
5747.78884,0.09231
5745.86005,0.09177
5743.93126,0.09262
5742.00248,0.09404
5740.07369,0.09401
5738.14490,0.09246
5736.21611,0.09147
5734.28732,0.09192
5732.35853,0.09277
5730.42975,0.09322
5728.50096,0.09334
5726.57217,0.09332
5724.64338,0.09329
5722.71459,0.09280
5720.78581,0.09179
5718.85702,0.09099
5716.92823,0.09095
5714.99944,0.09160
5713.07065,0.09241
5711.14186,0.09285
5709.21308,0.09295
5707.28429,0.09248
5705.35550,0.09156
5703.42671,0.09113
5701.49792,0.09140
5699.56914,0.09159
5697.64035,0.09141
5695.71156,0.09121
5693.78277,0.09149
5691.85398,0.09261
5689.92519,0.09432
5687.99641,0.09553
5686.06762,0.09507
5684.13883,0.09329
5682.21004,0.09232
5680.28125,0.09283
5678.35247,0.09331
5676.42368,0.09292
5674.49489,0.09271
5672.56610,0.09371
5670.63731,0.09482
5668.70852,0.09502
5666.77974,0.09524
5664.85095,0.09565
5662.92216,0.09543
5660.99337,0.09471
5659.06458,0.09430
5657.13580,0.09472
5655.20701,0.09555
5653.27822,0.09624
5651.34943,0.09663
5649.42064,0.09623
5647.49185,0.09542
5645.56307,0.09534
5643.63428,0.09598
5641.70549,0.09638
5639.77670,0.09621
5637.84791,0.09607
5635.91912,0.09615
5633.99034,0.09596
5632.06155,0.09591
5630.13276,0.09630
5628.20397,0.09628
5626.27518,0.09569
5624.34640,0.09575
5622.41761,0.09698
5620.48882,0.09828
5618.56003,0.09854
5616.63124,0.09829
5614.70245,0.09876
5612.77367,0.09980
5610.84488,0.10015
5608.91609,0.09976
5606.98730,0.09931
5605.05851,0.09883
5603.12973,0.09821
5601.20094,0.09786
5599.27215,0.09776
5597.34336,0.09714
5595.41457,0.09613
5593.48578,0.09571
5591.55700,0.09569
5589.62821,0.09549
5587.69942,0.09544
5585.77063,0.09574
5583.84184,0.09615
5581.91306,0.09717
5579.98427,0.09896
5578.05548,0.09993
5576.12669,0.09919
5574.19790,0.09841
5572.26911,0.09829
5570.34033,0.09771
5568.41154,0.09701
5566.48275,0.09721
5564.55396,0.09758
5562.62517,0.09761
5560.69639,0.09774
5558.76760,0.09781
5556.83881,0.09827
5554.91002,0.09955
5552.98123,0.10023
5551.05244,0.10005
5549.12366,0.09999
5547.19487,0.09952
5545.26608,0.09846
5543.33729,0.09787
5541.40850,0.09796
5539.47971,0.09780
5537.55093,0.09741
5535.62214,0.09785
5533.69335,0.09856
5531.76456,0.09838
5529.83577,0.09772
5527.90699,0.09712
5525.97820,0.09701
5524.04941,0.09783
5522.12062,0.09908
5520.19183,0.09981
5518.26304,0.09978
5516.33426,0.09956
5514.40547,0.09950
5512.47668,0.09940
5510.54789,0.09939
5508.61910,0.09987
5506.69032,0.10017
5504.76153,0.09976
5502.83274,0.09960
5500.90395,0.09973
5498.97516,0.09943
5497.04637,0.09896
5495.11759,0.09831
5493.18880,0.09757
5491.26001,0.09761
5489.33122,0.09854
5487.40243,0.09931
5485.47365,0.09887
5483.54486,0.09724
5481.61607,0.09579
5479.68728,0.09597
5477.75849,0.09752
5475.82970,0.09911
5473.90092,0.10027
5471.97213,0.10100
5470.04334,0.10081
5468.11455,0.09992
5466.18576,0.09955
5464.25697,0.09980
5462.32819,0.09989
5460.39940,0.09961
5458.47061,0.09942
5456.54182,0.09961
5454.61303,0.09962
5452.68425,0.09924
5450.75546,0.09942
5448.82667,0.09992
5446.89788,0.09951
5444.96909,0.09851
5443.04030,0.09819
5441.11152,0.09893
5439.18273,0.09987
5437.25394,0.09983
5435.32515,0.09891
5433.39636,0.09811
5431.46758,0.09775
5429.53879,0.09773
5427.61000,0.09780
5425.68121,0.09801
5423.75242,0.09883
5421.82363,0.09977
5419.89485,0.09996
5417.96606,0.09964
5416.03727,0.09978
5414.10848,0.10041
5412.17969,0.10030
5410.25091,0.09927
5408.32212,0.09842
5406.39333,0.09839
5404.46454,0.09955
5402.53575,0.10117
5400.60696,0.10135
5398.67818,0.10009
5396.74939,0.09921
5394.82060,0.09893
5392.89181,0.09842
5390.96302,0.09805
5389.03424,0.09839
5387.10545,0.09923
5385.17666,0.10003
5383.24787,0.10041
5381.31908,0.10035
5379.39029,0.10010
5377.46151,0.10007
5375.53272,0.10034
5373.60393,0.10059
5371.67514,0.10039
5369.74635,0.09972
5367.81756,0.09918
5365.88878,0.09911
5363.95999,0.09893
5362.03120,0.09908
5360.10241,0.10055
5358.17362,0.10189
5356.24484,0.10149
5354.31605,0.10042
5352.38726,0.10029
5350.45847,0.10055
5348.52968,0.10050
5346.60089,0.10096
5344.67211,0.10216
5342.74332,0.10258
5340.81453,0.10148
5338.88574,0.10018
5336.95695,0.10025
5335.02817,0.10078
5333.09938,0.10069
5331.17059,0.10080
5329.24180,0.10105
5327.31301,0.10069
5325.38422,0.10054
5323.45544,0.10115
5321.52665,0.10159
5319.59786,0.10143
5317.66907,0.10090
5315.74028,0.10030
5313.81150,0.10001
5311.88271,0.09976
5309.95392,0.09921
5308.02513,0.09914
5306.09634,0.10020
5304.16755,0.10139
5302.23877,0.10154
5300.30998,0.10105
5298.38119,0.10070
5296.45240,0.10041
5294.52361,0.09990
5292.59483,0.09927
5290.66604,0.09885
5288.73725,0.09925
5286.80846,0.10046
5284.87967,0.10136
5282.95088,0.10162
5281.02210,0.10169
5279.09331,0.10106
5277.16452,0.09988
5275.23573,0.09932
5273.30694,0.09907
5271.37815,0.09865
5269.44937,0.09912
5267.52058,0.10045
5265.59179,0.10084
5263.66300,0.10022
5261.73421,0.10012
5259.80543,0.10077
5257.87664,0.10166
5255.94785,0.10238
5254.01906,0.10279
5252.09027,0.10288
5250.16148,0.10243
5248.23270,0.10159
5246.30391,0.10080
5244.37512,0.10053
5242.44633,0.10108
5240.51754,0.10192
5238.58876,0.10209
5236.65997,0.10144
5234.73118,0.10105
5232.80239,0.10117
5230.87360,0.10102
5228.94481,0.10064
5227.01603,0.10049
5225.08724,0.10103
5223.15845,0.10187
5221.22966,0.10169
5219.30087,0.10057
5217.37209,0.10013
5215.44330,0.10084
5213.51451,0.10148
5211.58572,0.10157
5209.65693,0.10172
5207.72814,0.10230
5205.79936,0.10278
5203.87057,0.10293
5201.94178,0.10315
5200.01299,0.10304
5198.08420,0.10209
5196.15541,0.10107
5194.22663,0.10103
5192.29784,0.10179
5190.36905,0.10232
5188.44026,0.10210
5186.51147,0.10146
5184.58269,0.10137
5182.65390,0.10209
5180.72511,0.10266
5178.79632,0.10251
5176.86753,0.10182
5174.93874,0.10122
5173.00996,0.10125
5171.08117,0.10155
5169.15238,0.10162
5167.22359,0.10148
5165.29480,0.10114
5163.36602,0.10120
5161.43723,0.10189
5159.50844,0.10223
5157.57965,0.10190
5155.65086,0.10170
5153.72207,0.10194
5151.79329,0.10210
5149.86450,0.10209
5147.93571,0.10202
5146.00692,0.10135
5144.07813,0.10042
5142.14935,0.10053
5140.22056,0.10160
5138.29177,0.10221
5136.36298,0.10181
5134.43419,0.10164
5132.50540,0.10244
5130.57662,0.10268
5128.64783,0.10185
5126.71904,0.10137
5124.79025,0.10123
5122.86146,0.10093
5120.93268,0.10117
5119.00389,0.10158
5117.07510,0.10132
5115.14631,0.10114
5113.21752,0.10162
5111.28873,0.10195
5109.35995,0.10205
5107.43116,0.10256
5105.50237,0.10289
5103.57358,0.10247
5101.64479,0.10211
5099.71600,0.10249
5097.78722,0.10302
5095.85843,0.10271
5093.92964,0.10155
5092.00085,0.10095
5090.07206,0.10190
5088.14328,0.10323
5086.21449,0.10334
5084.28570,0.10225
5082.35691,0.10111
5080.42812,0.10086
5078.49933,0.10136
5076.57055,0.10175
5074.64176,0.10152
5072.71297,0.10125
5070.78418,0.10155
5068.85539,0.10174
5066.92661,0.10138
5064.99782,0.10094
5063.06903,0.10100
5061.14024,0.10182
5059.21145,0.10237
5057.28266,0.10199
5055.35388,0.10153
5053.42509,0.10146
5051.49630,0.10153
5049.56751,0.10140
5047.63872,0.10123
5045.70994,0.10161
5043.78115,0.10226
5041.85236,0.10252
5039.92357,0.10225
5037.99478,0.10187
5036.06599,0.10210
5034.13721,0.10255
5032.20842,0.10221
5030.27963,0.10168
5028.35084,0.10194
5026.42205,0.10259
5024.49327,0.10297
5022.56448,0.10270
5020.63569,0.10184
5018.70690,0.10143
5016.77811,0.10174
5014.84932,0.10170
5012.92054,0.10125
5010.99175,0.10110
5009.06296,0.10092
5007.13417,0.10082
5005.20538,0.10136
5003.27659,0.10229
5001.34781,0.10316
4999.41902,0.10345
4997.49023,0.10280
4995.56144,0.10210
4993.63265,0.10197
4991.70387,0.10170
4989.77508,0.10114
4987.84629,0.10098
4985.91750,0.10146
4983.98871,0.10240
4982.05992,0.10323
4980.13114,0.10344
4978.20235,0.10313
4976.27356,0.10244
4974.34477,0.10160
4972.41598,0.10130
4970.48720,0.10162
4968.55841,0.10161
4966.62962,0.10119
4964.70083,0.10133
4962.77204,0.10191
4960.84325,0.10221
4958.91447,0.10233
4956.98568,0.10227
4955.05689,0.10187
4953.12810,0.10163
4951.19931,0.10184
4949.27053,0.10222
4947.34174,0.10227
4945.41295,0.10197
4943.48416,0.10212
4941.55537,0.10263
4939.62658,0.10247
4937.69780,0.10152
4935.76901,0.10077
4933.84022,0.10124
4931.91143,0.10256
4929.98264,0.10324
4928.05385,0.10311
4926.12507,0.10289
4924.19628,0.10250
4922.26749,0.10209
4920.33870,0.10194
4918.40991,0.10136
4916.48113,0.10045
4914.55234,0.10040
4912.62355,0.10123
4910.69476,0.10205
4908.76597,0.10228
4906.83718,0.10217
4904.90840,0.10238
4902.97961,0.10263
4901.05082,0.10222
4899.12203,0.10150
4897.19324,0.10135
4895.26446,0.10170
4893.33567,0.10189
4891.40688,0.10210
4889.47809,0.10262
4887.54930,0.10289
4885.62051,0.10235
4883.69173,0.10144
4881.76294,0.10113
4879.83415,0.10125
4877.90536,0.10100
4875.97657,0.10066
4874.04779,0.10083
4872.11900,0.10108
4870.19021,0.10114
4868.26142,0.10148
4866.33263,0.10213
4864.40384,0.10257
4862.47506,0.10267
4860.54627,0.10276
4858.61748,0.10290
4856.68869,0.10242
4854.75990,0.10113
4852.83112,0.10024
4850.90233,0.10058
4848.97354,0.10158
4847.04475,0.10252
4845.11596,0.10308
4843.18717,0.10273
4841.25839,0.10176
4839.32960,0.10135
4837.40081,0.10171
4835.47202,0.10205
4833.54323,0.10182
4831.61444,0.10126
4829.68566,0.10123
4827.75687,0.10207
4825.82808,0.10288
4823.89929,0.10272
4821.97050,0.10232
4820.04172,0.10262
4818.11293,0.10292
4816.18414,0.10282
4814.25535,0.10284
4812.32656,0.10296
4810.39777,0.10303
4808.46899,0.10297
4806.54020,0.10248
4804.61141,0.10200
4802.68262,0.10211
4800.75383,0.10246
4798.82505,0.10271
4796.89626,0.10283
4794.96747,0.10258
4793.03868,0.10226
4791.10989,0.10250
4789.18110,0.10289
4787.25232,0.10271
4785.32353,0.10235
4783.39474,0.10241
4781.46595,0.10252
4779.53716,0.10217
4777.60838,0.10180
4775.67959,0.10222
4773.75080,0.10282
4771.82201,0.10278
4769.89322,0.10263
4767.96443,0.10299
4766.03565,0.10357
4764.10686,0.10365
4762.17807,0.10320
4760.24928,0.10280
4758.32049,0.10255
4756.39170,0.10248
4754.46292,0.10254
4752.53413,0.10256
4750.60534,0.10280
4748.67655,0.10333
4746.74776,0.10352
4744.81898,0.10324
4742.89019,0.10275
4740.96140,0.10211
4739.03261,0.10159
4737.10382,0.10145
4735.17503,0.10179
4733.24625,0.10225
4731.31746,0.10219
4729.38867,0.10183
4727.45988,0.10176
4725.53109,0.10172
4723.60231,0.10154
4721.67352,0.10127
4719.74473,0.10091
4717.81594,0.10078
4715.88715,0.10087
4713.95836,0.10076
4712.02958,0.10069
4710.10079,0.10111
4708.17200,0.10166
4706.24321,0.10171
4704.31442,0.10144
4702.38564,0.10136
4700.45685,0.10129
4698.52806,0.10066
4696.59927,0.09969
4694.67048,0.09930
4692.74169,0.09933
4690.81291,0.09895
4688.88412,0.09844
4686.95533,0.09820
4685.02654,0.09822
4683.09775,0.09867
4681.16897,0.09923
4679.24018,0.09934
4677.31139,0.09922
4675.38260,0.09948
4673.45381,0.10015
4671.52502,0.10068
4669.59624,0.10058
4667.66745,0.10007
4665.73866,0.09979
4663.80987,0.09982
4661.88108,0.09991
4659.95229,0.10037
4658.02351,0.10119
4656.09472,0.10159
4654.16593,0.10139
4652.23714,0.10131
4650.30835,0.10164
4648.37957,0.10167
4646.45078,0.10091
4644.52199,0.09995
4642.59320,0.09951
4640.66441,0.09952
4638.73562,0.09970
4636.80684,0.10007
4634.87805,0.10056
4632.94926,0.10069
4631.02047,0.10027
4629.09168,0.09982
4627.16290,0.09976
4625.23411,0.09996
4623.30532,0.10018
4621.37653,0.10025
4619.44774,0.10018
4617.51895,0.10019
4615.59017,0.10032
4613.66138,0.10053
4611.73259,0.10094
4609.80380,0.10156
4607.87501,0.10187
4605.94623,0.10173
4604.01744,0.10144
4602.08865,0.10100
4600.15986,0.10063
4598.23107,0.10101
4596.30228,0.10181
4594.37350,0.10201
4592.44471,0.10160
4590.51592,0.10110
4588.58713,0.10070
4586.65834,0.10055
4584.72956,0.10078
4582.80077,0.10128
4580.87198,0.10178
4578.94319,0.10194
4577.01440,0.10156
4575.08561,0.10100
4573.15683,0.10074
4571.22804,0.10083
4569.29925,0.10098
4567.37046,0.10097
4565.44167,0.10089
4563.51288,0.10101
4561.58410,0.10128
4559.65531,0.10129
4557.72652,0.10091
4555.79773,0.10068
4553.86894,0.10098
4551.94016,0.10160
4550.01137,0.10210
4548.08258,0.10224
4546.15379,0.10209
4544.22500,0.10167
4542.29621,0.10137
4540.36743,0.10158
4538.43864,0.10176
4536.50985,0.10160
4534.58106,0.10129
4532.65227,0.10085
4530.72349,0.10060
4528.79470,0.10105
4526.86591,0.10174
4524.93712,0.10183
4523.00833,0.10140
4521.07954,0.10082
4519.15076,0.10018
4517.22197,0.09999
4515.29318,0.10053
4513.36439,0.10118
4511.43560,0.10140
4509.50682,0.10136
4507.57803,0.10125
4505.64924,0.10109
4503.72045,0.10098
4501.79166,0.10089
4499.86287,0.10049
4497.93409,0.10001
4496.00530,0.10000
4494.07651,0.10027
4492.14772,0.10001
4490.21893,0.09924
4488.29014,0.09879
4486.36136,0.09866
4484.43257,0.09848
4482.50378,0.09839
4480.57499,0.09836
4478.64620,0.09845
4476.71742,0.09878
4474.78863,0.09876
4472.85984,0.09810
4470.93105,0.09742
4469.00226,0.09738
4467.07347,0.09793
4465.14469,0.09829
4463.21590,0.09801
4461.28711,0.09745
4459.35832,0.09701
4457.42953,0.09677
4455.50075,0.09650
4453.57196,0.09613
4451.64317,0.09588
4449.71438,0.09564
4447.78559,0.09496
4445.85680,0.09395
4443.92802,0.09332
4441.99923,0.09330
4440.07044,0.09327
4438.14165,0.09257
4436.21286,0.09152
4434.28408,0.09081
4432.35529,0.09021
4430.42650,0.08946
4428.49771,0.08904
4426.56892,0.08893
4424.64013,0.08842
4422.71135,0.08739
4420.78256,0.08644
4418.85377,0.08595
4416.92498,0.08570
4414.99619,0.08533
4413.06741,0.08507
4411.13862,0.08480
4409.20983,0.08376
4407.28104,0.08221
4405.35225,0.08129
4403.42346,0.08108
4401.49468,0.08084
4399.56589,0.08049
4397.63710,0.08045
4395.70831,0.08077
4393.77952,0.08112
4391.85073,0.08114
4389.92195,0.08092
4387.99316,0.08078
4386.06437,0.08048
4384.13558,0.07985
4382.20679,0.07931
4380.27801,0.07900
4378.34922,0.07853
4376.42043,0.07782
4374.49164,0.07710
4372.56285,0.07636
4370.63406,0.07562
4368.70528,0.07502
4366.77649,0.07457
4364.84770,0.07398
4362.91891,0.07329
4360.99012,0.07282
4359.06134,0.07225
4357.13255,0.07144
4355.20376,0.07086
4353.27497,0.07045
4351.34618,0.06996
4349.41739,0.06968
4347.48861,0.06958
4345.55982,0.06940
4343.63103,0.06913
4341.70224,0.06877
4339.77345,0.06850
4337.84467,0.06843
4335.91588,0.06854
4333.98709,0.06899
4332.05830,0.06931
4330.12951,0.06889
4328.20072,0.06853
4326.27194,0.06913
4324.34315,0.07015
4322.41436,0.07076
4320.48557,0.07084
4318.55678,0.07055
4316.62800,0.07038
4314.69921,0.07070
4312.77042,0.07120
4310.84163,0.07171
4308.91284,0.07222
4306.98405,0.07246
4305.05527,0.07253
4303.12648,0.07266
4301.19769,0.07293
4299.26890,0.07330
4297.34011,0.07351
4295.41132,0.07354
4293.48254,0.07371
4291.55375,0.07381
4289.62496,0.07372
4287.69617,0.07383
4285.76738,0.07400
4283.83860,0.07386
4281.90981,0.07370
4279.98102,0.07376
4278.05223,0.07388
4276.12344,0.07398
4274.19465,0.07399
4272.26587,0.07369
4270.33708,0.07327
4268.40829,0.07302
4266.47950,0.07288
4264.55071,0.07298
4262.62193,0.07349
4260.69314,0.07370
4258.76435,0.07332
4256.83556,0.07335
4254.90677,0.07394
4252.97798,0.07432
4251.04920,0.07457
4249.12041,0.07483
4247.19162,0.07479
4245.26283,0.07428
4243.33404,0.07354
4241.40526,0.07319
4239.47647,0.07339
4237.54768,0.07351
4235.61889,0.07335
4233.69010,0.07322
4231.76131,0.07313
4229.83253,0.07309
4227.90374,0.07310
4225.97495,0.07299
4224.04616,0.07281
4222.11737,0.07278
4220.18858,0.07299
4218.25980,0.07323
4216.33101,0.07320
4214.40222,0.07309
4212.47343,0.07325
4210.54464,0.07356
4208.61586,0.07384
4206.68707,0.07407
4204.75828,0.07410
4202.82949,0.07405
4200.90070,0.07406
4198.97191,0.07391
4197.04313,0.07375
4195.11434,0.07397
4193.18555,0.07440
4191.25676,0.07474
4189.32797,0.07506
4187.39919,0.07538
4185.47040,0.07536
4183.54161,0.07499
4181.61282,0.07457
4179.68403,0.07430
4177.75524,0.07429
4175.82646,0.07437
4173.89767,0.07434
4171.96888,0.07424
4170.04009,0.07415
4168.11130,0.07403
4166.18252,0.07408
4164.25373,0.07446
4162.32494,0.07496
4160.39615,0.07553
4158.46736,0.07619
4156.53857,0.07648
4154.60979,0.07623
4152.68100,0.07590
4150.75221,0.07591
4148.82342,0.07627
4146.89463,0.07672
4144.96585,0.07713
4143.03706,0.07757
4141.10827,0.07793
4139.17948,0.07809
4137.25069,0.07843
4135.32190,0.07888
4133.39312,0.07900
4131.46433,0.07904
4129.53554,0.07916
4127.60675,0.07915
4125.67796,0.07918
4123.74917,0.07947
4121.82039,0.07976
4119.89160,0.07972
4117.96281,0.07924
4116.03402,0.07867
4114.10523,0.07844
4112.17645,0.07856
4110.24766,0.07881
4108.31887,0.07895
4106.39008,0.07873
4104.46129,0.07832
4102.53250,0.07806
4100.60372,0.07801
4098.67493,0.07776
4096.74614,0.07695
4094.81735,0.07610
4092.88856,0.07586
4090.95978,0.07577
4089.03099,0.07544
4087.10220,0.07514
4085.17341,0.07489
4083.24462,0.07448
4081.31583,0.07425
4079.38705,0.07464
4077.45826,0.07538
4075.52947,0.07596
4073.60068,0.07623
4071.67189,0.07620
4069.74311,0.07622
4067.81432,0.07673
4065.88553,0.07752
4063.95674,0.07821
4062.02795,0.07877
4060.09916,0.07933
4058.17038,0.07990
4056.24159,0.08048
4054.31280,0.08089
4052.38401,0.08092
4050.45522,0.08104
4048.52644,0.08150
4046.59765,0.08178
4044.66886,0.08167
4042.74007,0.08161
4040.81128,0.08189
4038.88249,0.08212
4036.95371,0.08197
4035.02492,0.08181
4033.09613,0.08175
4031.16734,0.08165
4029.23855,0.08164
4027.30976,0.08172
4025.38098,0.08184
4023.45219,0.08207
4021.52340,0.08209
4019.59461,0.08169
4017.66582,0.08145
4015.73704,0.08182
4013.80825,0.08244
4011.87946,0.08290
4009.95067,0.08308
4008.02188,0.08303
4006.09309,0.08296
4004.16431,0.08316
4002.23552,0.08358
4000.30673,0.08403
3998.37794,0.08447
3996.44915,0.08477
3994.52037,0.08477
3992.59158,0.08466
3990.66279,0.08469
3988.73400,0.08503
3986.80521,0.08555
3984.87642,0.08598
3982.94764,0.08626
3981.01885,0.08645
3979.09006,0.08663
3977.16127,0.08692
3975.23248,0.08714
3973.30370,0.08711
3971.37491,0.08689
3969.44612,0.08687
3967.51733,0.08735
3965.58854,0.08792
3963.65975,0.08812
3961.73097,0.08804
3959.80218,0.08782
3957.87339,0.08761
3955.94460,0.08780
3954.01581,0.08821
3952.08702,0.08802
3950.15824,0.08724
3948.22945,0.08688
3946.30066,0.08710
3944.37187,0.08715
3942.44308,0.08681
3940.51430,0.08661
3938.58551,0.08694
3936.65672,0.08733
3934.72793,0.08742
3932.79914,0.08738
3930.87035,0.08749
3928.94157,0.08768
3927.01278,0.08759
3925.08399,0.08731
3923.15520,0.08724
3921.22641,0.08717
3919.29763,0.08714
3917.36884,0.08750
3915.44005,0.08793
3913.51126,0.08807
3911.58247,0.08799
3909.65368,0.08801
3907.72490,0.08825
3905.79611,0.08831
3903.86732,0.08813
3901.93853,0.08812
3900.00974,0.08809
3898.08096,0.08800
3896.15217,0.08816
3894.22338,0.08839
3892.29459,0.08829
3890.36580,0.08801
3888.43701,0.08787
3886.50823,0.08787
3884.57944,0.08814
3882.65065,0.08851
3880.72186,0.08850
3878.79307,0.08832
3876.86429,0.08831
3874.93550,0.08824
3873.00671,0.08804
3871.07792,0.08799
3869.14913,0.08827
3867.22034,0.08848
3865.29156,0.08832
3863.36277,0.08810
3861.43398,0.08806
3859.50519,0.08810
3857.57640,0.08832
3855.64761,0.08861
3853.71883,0.08861
3851.79004,0.08880
3849.86125,0.08941
3847.93246,0.08977
3846.00367,0.08949
3844.07489,0.08877
3842.14610,0.08822
3840.21731,0.08814
3838.28852,0.08840
3836.35973,0.08883
3834.43094,0.08902
3832.50216,0.08906
3830.57337,0.08928
3828.64458,0.08933
3826.71579,0.08914
3824.78700,0.08920
3822.85822,0.08933
3820.92943,0.08932
3819.00064,0.08978
3817.07185,0.09053
3815.14306,0.09070
3813.21427,0.09023
3811.28549,0.08978
3809.35670,0.08959
3807.42791,0.08974
3805.49912,0.09015
3803.57033,0.09014
3801.64155,0.08965
3799.71276,0.08975
3797.78397,0.09021
3795.85518,0.09038
3793.92639,0.09063
3791.99760,0.09102
3790.06882,0.09119
3788.14003,0.09118
3786.21124,0.09114
3784.28245,0.09119
3782.35366,0.09149
3780.42488,0.09185
3778.49609,0.09221
3776.56730,0.09254
3774.63851,0.09263
3772.70972,0.09245
3770.78093,0.09202
3768.85215,0.09150
3766.92336,0.09133
3764.99457,0.09152
3763.06578,0.09176
3761.13699,0.09173
3759.20820,0.09136
3757.27942,0.09130
3755.35063,0.09183
3753.42184,0.09230
3751.49305,0.09210
3749.56426,0.09176
3747.63548,0.09178
3745.70669,0.09159
3743.77790,0.09169
3741.84911,0.09245
3739.92032,0.09279
3737.99153,0.09253
3736.06275,0.09238
3734.13396,0.09254
3732.20517,0.09255
3730.27638,0.09250
3728.34759,0.09243
3726.41881,0.09234
3724.49002,0.09256
3722.56123,0.09323
3720.63244,0.09386
3718.70365,0.09387
3716.77486,0.09346
3714.84608,0.09311
3712.91729,0.09273
3710.98850,0.09221
3709.05971,0.09193
3707.13092,0.09196
3705.20214,0.09202
3703.27335,0.09165
3701.34456,0.09082
3699.41577,0.09004
3697.48698,0.08944
3695.55819,0.08893
3693.62941,0.08854
3691.70062,0.08808
3689.77183,0.08708
3687.84304,0.08589
3685.91425,0.08527
3683.98546,0.08476
3682.05668,0.08406
3680.12789,0.08377
3678.19910,0.08427
3676.27031,0.08474
3674.34152,0.08475
3672.41274,0.08484
3670.48395,0.08475
3668.55516,0.08474
3666.62637,0.08503
3664.69758,0.08520
3662.76879,0.08529
3660.84001,0.08555
3658.91122,0.08582
3656.98243,0.08583
3655.05364,0.08591
3653.12485,0.08624
3651.19607,0.08641
3649.26728,0.08637
3647.33849,0.08627
3645.40970,0.08604
3643.48091,0.08602
3641.55212,0.08617
3639.62334,0.08605
3637.69455,0.08569
3635.76576,0.08546
3633.83697,0.08532
3631.90818,0.08510
3629.97940,0.08483
3628.05061,0.08450
3626.12182,0.08403
3624.19303,0.08373
3622.26424,0.08363
3620.33545,0.08333
3618.40667,0.08320
3616.47788,0.08360
3614.54909,0.08365
3612.62030,0.08318
3610.69151,0.08278
3608.76273,0.08249
3606.83394,0.08237
3604.90515,0.08267
3602.97636,0.08301
3601.04757,0.08287
3599.11878,0.08223
3597.19000,0.08135
3595.26121,0.08080
3593.33242,0.08096
3591.40363,0.08131
3589.47484,0.08125
3587.54605,0.08067
3585.61727,0.08025
3583.68848,0.08023
3581.75969,0.08019
3579.83090,0.08015
3577.90211,0.08013
3575.97333,0.07980
3574.04454,0.07905
3572.11575,0.07826
3570.18696,0.07777
3568.25817,0.07738
3566.32938,0.07715
3564.40060,0.07748
3562.47181,0.07781
3560.54302,0.07755
3558.61423,0.07691
3556.68544,0.07633
3554.75666,0.07598
3552.82787,0.07571
3550.89908,0.07549
3548.97029,0.07546
3547.04150,0.07571
3545.11271,0.07615
3543.18393,0.07640
3541.25514,0.07632
3539.32635,0.07602
3537.39756,0.07560
3535.46877,0.07531
3533.53999,0.07529
3531.61120,0.07535
3529.68241,0.07526
3527.75362,0.07499
3525.82483,0.07448
3523.89604,0.07402
3521.96726,0.07418
3520.03847,0.07477
3518.10968,0.07495
3516.18089,0.07455
3514.25210,0.07397
3512.32332,0.07329
3510.39453,0.07285
3508.46574,0.07310
3506.53695,0.07352
3504.60816,0.07363
3502.67937,0.07372
3500.75059,0.07369
3498.82180,0.07330
3496.89301,0.07303
3494.96422,0.07318
3493.03543,0.07317
3491.10664,0.07259
3489.17786,0.07186
3487.24907,0.07150
3485.32028,0.07133
3483.39149,0.07112
3481.46270,0.07100
3479.53392,0.07085
3477.60513,0.07046
3475.67634,0.06993
3473.74755,0.06943
3471.81876,0.06928
3469.88997,0.06947
3467.96119,0.06931
3466.03240,0.06858
3464.10361,0.06816
3462.17482,0.06854
3460.24603,0.06896
3458.31725,0.06884
3456.38846,0.06842
3454.45967,0.06793
3452.53088,0.06746
3450.60209,0.06719
3448.67330,0.06700
3446.74452,0.06669
3444.81573,0.06618
3442.88694,0.06576
3440.95815,0.06561
3439.02936,0.06542
3437.10058,0.06510
3435.17179,0.06500
3433.24300,0.06504
3431.31421,0.06481
3429.38542,0.06430
3427.45663,0.06394
3425.52785,0.06406
3423.59906,0.06441
3421.67027,0.06445
3419.74148,0.06426
3417.81269,0.06428
3415.88390,0.06453
3413.95512,0.06493
3412.02633,0.06538
3410.09754,0.06561
3408.16875,0.06565
3406.23996,0.06572
3404.31118,0.06602
3402.38239,0.06668
3400.45360,0.06743
3398.52481,0.06798
3396.59602,0.06824
3394.66723,0.06842
3392.73845,0.06880
3390.80966,0.06921
3388.88087,0.06941
3386.95208,0.06970
3385.02329,0.07028
3383.09451,0.07093
3381.16572,0.07133
3379.23693,0.07147
3377.30814,0.07137
3375.37935,0.07107
3373.45056,0.07088
3371.52178,0.07101
3369.59299,0.07135
3367.66420,0.07156
3365.73541,0.07161
3363.80662,0.07174
3361.87784,0.07184
3359.94905,0.07209
3358.02026,0.07272
3356.09147,0.07310
3354.16268,0.07297
3352.23389,0.07268
3350.30511,0.07229
3348.37632,0.07202
3346.44753,0.07215
3344.51874,0.07217
3342.58995,0.07169
3340.66117,0.07130
3338.73238,0.07142
3336.80359,0.07154
3334.87480,0.07117
3332.94601,0.07074
3331.01722,0.07074
3329.08844,0.07111
3327.15965,0.07174
3325.23086,0.07219
3323.30207,0.07211
3321.37328,0.07167
3319.44449,0.07078
3317.51571,0.06963
3315.58692,0.06890
3313.65813,0.06853
3311.72934,0.06790
3309.80055,0.06687
3307.87177,0.06562
3305.94298,0.06435
3304.01419,0.06341
3302.08540,0.06310
3300.15661,0.06334
3298.22782,0.06391
3296.29904,0.06458
3294.37025,0.06522
3292.44146,0.06596
3290.51267,0.06693
3288.58388,0.06801
3286.65510,0.06892
3284.72631,0.06969
3282.79752,0.07065
3280.86873,0.07160
3278.93994,0.07217
3277.01115,0.07265
3275.08237,0.07322
3273.15358,0.07372
3271.22479,0.07427
3269.29600,0.07472
3267.36721,0.07464
3265.43843,0.07426
3263.50964,0.07422
3261.58085,0.07477
3259.65206,0.07527
3257.72327,0.07527
3255.79448,0.07537
3253.86570,0.07564
3251.93691,0.07547
3250.00812,0.07522
3248.07933,0.07562
3246.15054,0.07635
3244.22175,0.07669
3242.29297,0.07660
3240.36418,0.07631
3238.43539,0.07583
3236.50660,0.07524
3234.57781,0.07482
3232.64903,0.07474
3230.72024,0.07503
3228.79145,0.07550
3226.86266,0.07575
3224.93387,0.07547
3223.00508,0.07484
3221.07630,0.07444
3219.14751,0.07469
3217.21872,0.07524
3215.28993,0.07537
3213.36114,0.07518
3211.43236,0.07517
3209.50357,0.07517
3207.57478,0.07491
3205.64599,0.07469
3203.71720,0.07457
3201.78841,0.07440
3199.85963,0.07445
3197.93084,0.07474
3196.00205,0.07480
3194.07326,0.07463
3192.14447,0.07452
3190.21569,0.07440
3188.28690,0.07412
3186.35811,0.07383
3184.42932,0.07386
3182.50053,0.07418
3180.57174,0.07447
3178.64296,0.07456
3176.71417,0.07444
3174.78538,0.07408
3172.85659,0.07367
3170.92780,0.07356
3168.99902,0.07368
3167.07023,0.07368
3165.14144,0.07357
3163.21265,0.07349
3161.28386,0.07345
3159.35507,0.07357
3157.42629,0.07388
3155.49750,0.07400
3153.56871,0.07392
3151.63992,0.07396
3149.71113,0.07414
3147.78234,0.07419
3145.85356,0.07390
3143.92477,0.07358
3141.99598,0.07334
3140.06719,0.07294
3138.13840,0.07264
3136.20962,0.07261
3134.28083,0.07239
3132.35204,0.07196
3130.42325,0.07156
3128.49446,0.07111
3126.56567,0.07095
3124.63689,0.07135
3122.70810,0.07178
3120.77931,0.07184
3118.85052,0.07168
3116.92173,0.07151
3114.99295,0.07126
3113.06416,0.07082
3111.13537,0.07043
3109.20658,0.07025
3107.27779,0.07011
3105.34900,0.06983
3103.42022,0.06938
3101.49143,0.06874
3099.56264,0.06805
3097.63385,0.06756
3095.70506,0.06733
3093.77628,0.06720
3091.84749,0.06692
3089.91870,0.06634
3087.98991,0.06567
3086.06112,0.06528
3084.13233,0.06509
3082.20355,0.06485
3080.27476,0.06472
3078.34597,0.06478
3076.41718,0.06475
3074.48839,0.06461
3072.55961,0.06448
3070.63082,0.06425
3068.70203,0.06387
3066.77324,0.06344
3064.84445,0.06306
3062.91566,0.06300
3060.98688,0.06329
3059.05809,0.06345
3057.12930,0.06317
3055.20051,0.06258
3053.27172,0.06208
3051.34293,0.06203
3049.41415,0.06222
3047.48536,0.06224
3045.55657,0.06221
3043.62778,0.06228
3041.69899,0.06233
3039.77021,0.06236
3037.84142,0.06231
3035.91263,0.06211
3033.98384,0.06184
3032.05505,0.06157
3030.12626,0.06124
3028.19748,0.06080
3026.26869,0.06042
3024.33990,0.06030
3022.41111,0.06028
3020.48232,0.06013
3018.55354,0.05988
3016.62475,0.05955
3014.69596,0.05908
3012.76717,0.05860
3010.83838,0.05836
3008.90959,0.05832
3006.98081,0.05830
3005.05202,0.05811
3003.12323,0.05783
3001.19444,0.05753
2999.26565,0.05710
2997.33687,0.05673
2995.40808,0.05674
2993.47929,0.05694
2991.55050,0.05688
2989.62171,0.05653
2987.69292,0.05613
2985.76414,0.05578
2983.83535,0.05557
2981.90656,0.05556
2979.97777,0.05576
2978.04898,0.05598
2976.12019,0.05591
2974.19141,0.05573
2972.26262,0.05584
2970.33383,0.05606
2968.40504,0.05619
2966.47625,0.05642
2964.54747,0.05681
2962.61868,0.05737
2960.68989,0.05810
2958.76110,0.05879
2956.83231,0.05939
2954.90352,0.05984
2952.97474,0.05988
2951.04595,0.05959
2949.11716,0.05927
2947.18837,0.05900
2945.25958,0.05874
2943.33080,0.05862
2941.40201,0.05856
2939.47322,0.05847
2937.54443,0.05858
2935.61564,0.05905
2933.68685,0.05966
2931.75807,0.06023
2929.82928,0.06083
2927.90049,0.06128
2925.97170,0.06149
2924.04291,0.06173
2922.11413,0.06209
2920.18534,0.06233
2918.25655,0.06225
2916.32776,0.06210
2914.39897,0.06228
2912.47018,0.06256
2910.54140,0.06255
2908.61261,0.06238
2906.68382,0.06229
2904.75503,0.06237
2902.82624,0.06258
2900.89746,0.06264
2898.96867,0.06250
2897.03988,0.06246
2895.11109,0.06255
2893.18230,0.06246
2891.25351,0.06217
2889.32473,0.06202
2887.39594,0.06191
2885.46715,0.06164
2883.53836,0.06136
2881.60957,0.06120
2879.68078,0.06102
2877.75200,0.06090
2875.82321,0.06103
2873.89442,0.06133
2871.96563,0.06157
2870.03684,0.06172
2868.10806,0.06195
2866.17927,0.06224
2864.25048,0.06226
2862.32169,0.06206
2860.39290,0.06212
2858.46411,0.06251
2856.53533,0.06285
2854.60654,0.06310
2852.67775,0.06336
2850.74896,0.06342
2848.82017,0.06338
2846.89139,0.06337
2844.96260,0.06319
2843.03381,0.06287
2841.10502,0.06278
2839.17623,0.06292
2837.24744,0.06291
2835.31866,0.06271
2833.38987,0.06259
2831.46108,0.06250
2829.53229,0.06229
2827.60350,0.06193
2825.67472,0.06165
2823.74593,0.06182
2821.81714,0.06235
2819.88835,0.06262
2817.95956,0.06240
2816.03077,0.06224
2814.10199,0.06238
2812.17320,0.06262
2810.24441,0.06284
2808.31562,0.06293
2806.38683,0.06289
2804.45805,0.06300
2802.52926,0.06334
2800.60047,0.06374
2798.67168,0.06409
2796.74289,0.06431
2794.81410,0.06452
2792.88532,0.06484
2790.95653,0.06530
2789.02774,0.06582
2787.09895,0.06617
2785.17016,0.06629
2783.24137,0.06645
2781.31259,0.06685
2779.38380,0.06727
2777.45501,0.06744
2775.52622,0.06753
2773.59743,0.06782
2771.66865,0.06810
2769.73986,0.06815
2767.81107,0.06817
2765.88228,0.06825
2763.95349,0.06833
2762.02470,0.06847
2760.09592,0.06870
2758.16713,0.06877
2756.23834,0.06843
2754.30955,0.06781
2752.38076,0.06744
2750.45198,0.06745
2748.52319,0.06745
2746.59440,0.06738
2744.66561,0.06741
2742.73682,0.06732
2740.80803,0.06689
2738.87925,0.06645
2736.95046,0.06631
2735.02167,0.06642
2733.09288,0.06658
2731.16409,0.06682
2729.23531,0.06717
2727.30652,0.06748
2725.37773,0.06769
2723.44894,0.06808
2721.52015,0.06866
2719.59136,0.06932
2717.66258,0.06991
2715.73379,0.07025
2713.80500,0.07044
2711.87621,0.07063
2709.94742,0.07089
2708.01863,0.07124
2706.08985,0.07153
2704.16106,0.07171
2702.23227,0.07182
2700.30348,0.07174
2698.37469,0.07161
2696.44591,0.07181
2694.51712,0.07227
2692.58833,0.07256
2690.65954,0.07241
2688.73075,0.07209
2686.80196,0.07200
2684.87318,0.07205
2682.94439,0.07193
2681.01560,0.07179
2679.08681,0.07176
2677.15802,0.07165
2675.22924,0.07145
2673.30045,0.07126
2671.37166,0.07121
2669.44287,0.07138
2667.51408,0.07149
2665.58529,0.07150
2663.65651,0.07179
2661.72772,0.07230
2659.79893,0.07270
2657.87014,0.07294
2655.94135,0.07324
2654.01257,0.07371
2652.08378,0.07418
2650.15499,0.07435
2648.22620,0.07432
2646.29741,0.07430
2644.36862,0.07439
2642.43984,0.07453
2640.51105,0.07450
2638.58226,0.07416
2636.65347,0.07374
2634.72468,0.07348
2632.79590,0.07338
2630.86711,0.07334
2628.93832,0.07315
2627.00953,0.07284
2625.08074,0.07282
2623.15195,0.07309
2621.22317,0.07312
2619.29438,0.07288
2617.36559,0.07280
2615.43680,0.07292
2613.50801,0.07299
2611.57922,0.07290
2609.65044,0.07274
2607.72165,0.07263
2605.79286,0.07266
2603.86407,0.07278
2601.93528,0.07282
2600.00650,0.07277
2598.07771,0.07273
2596.14892,0.07280
2594.22013,0.07300
2592.29134,0.07315
2590.36255,0.07319
2588.43377,0.07317
2586.50498,0.07303
2584.57619,0.07275
2582.64740,0.07253
2580.71861,0.07252
2578.78983,0.07257
2576.86104,0.07243
2574.93225,0.07229
2573.00346,0.07246
2571.07467,0.07282
2569.14588,0.07305
2567.21710,0.07329
2565.28831,0.07372
2563.35952,0.07397
2561.43073,0.07379
2559.50194,0.07352
2557.57316,0.07348
2555.64437,0.07355
2553.71558,0.07359
2551.78679,0.07368
2549.85800,0.07380
2547.92921,0.07399
2546.00043,0.07431
2544.07164,0.07461
2542.14285,0.07481
2540.21406,0.07483
2538.28527,0.07468
2536.35649,0.07469
2534.42770,0.07493
2532.49891,0.07510
2530.57012,0.07517
2528.64133,0.07525
2526.71254,0.07524
2524.78376,0.07513
2522.85497,0.07520
2520.92618,0.07555
2518.99739,0.07595
2517.06860,0.07624
2515.13981,0.07650
2513.21103,0.07681
2511.28224,0.07720
2509.35345,0.07758
2507.42466,0.07789
2505.49587,0.07814
2503.56709,0.07827
2501.63830,0.07823
2499.70951,0.07810
2497.78072,0.07813
2495.85193,0.07841
2493.92314,0.07879
2491.99436,0.07900
2490.06557,0.07895
2488.13678,0.07884
2486.20799,0.07885
2484.27920,0.07894
2482.35042,0.07900
2480.42163,0.07902
2478.49284,0.07914
2476.56405,0.07935
2474.63526,0.07945
2472.70647,0.07950
2470.77769,0.07973
2468.84890,0.08010
2466.92011,0.08043
2464.99132,0.08049
2463.06253,0.08028
2461.13375,0.08004
2459.20496,0.07993
2457.27617,0.07995
2455.34738,0.08011
2453.41859,0.08019
2451.48980,0.07996
2449.56102,0.07958
2447.63223,0.07936
2445.70344,0.07940
2443.77465,0.07958
2441.84586,0.07971
2439.91707,0.07967
2437.98829,0.07944
2436.05950,0.07910
2434.13071,0.07871
2432.20192,0.07841
2430.27313,0.07830
2428.34435,0.07827
2426.41556,0.07809
2424.48677,0.07765
2422.55798,0.07725
2420.62919,0.07715
2418.70040,0.07717
2416.77162,0.07702
2414.84283,0.07663
2412.91404,0.07621
2410.98525,0.07598
2409.05646,0.07588
2407.12768,0.07574
2405.19889,0.07560
2403.27010,0.07550
2401.34131,0.07535
2399.41252,0.07506
2397.48373,0.07461
2395.55495,0.07420
2393.62616,0.07410
2391.69737,0.07433
2389.76858,0.07445
2387.83979,0.07414
2385.91101,0.07378
2383.98222,0.07371
2382.05343,0.07373
2380.12464,0.07370
2378.19585,0.07383
2376.26706,0.07410
2374.33828,0.07421
2372.40949,0.07411
2370.48070,0.07402
2368.55191,0.07417
2366.62312,0.07467
2364.69434,0.07518
2362.76555,0.07523
2360.83676,0.07522
2358.90797,0.07571
2356.97918,0.07642
2355.05039,0.07687
2353.12161,0.07716
2351.19282,0.07758
2349.26403,0.07794
2347.33524,0.07798
2345.40645,0.07791
2343.47766,0.07825
2341.54888,0.07903
2339.62009,0.07961
2337.69130,0.07970
2335.76251,0.07974
2333.83372,0.08003
2331.90494,0.08045
2329.97615,0.08081
2328.04736,0.08108
2326.11857,0.08117
2324.18978,0.08093
2322.26099,0.08052
2320.33221,0.08044
2318.40342,0.08081
2316.47463,0.08139
2314.54584,0.08187
2312.61705,0.08200
2310.68827,0.08185
2308.75948,0.08168
2306.83069,0.08159
2304.90190,0.08156
2302.97311,0.08156
2301.04432,0.08166
2299.11554,0.08169
2297.18675,0.08135
2295.25796,0.08077
2293.32917,0.08041
2291.40038,0.08027
2289.47160,0.08006
2287.54281,0.07976
2285.61402,0.07943
2283.68523,0.07895
2281.75644,0.07846
2279.82765,0.07819
2277.89887,0.07810
2275.97008,0.07814
2274.04129,0.07841
2272.11250,0.07875
2270.18371,0.07898
2268.25493,0.07910
2266.32614,0.07926
2264.39735,0.07959
2262.46856,0.07997
2260.53977,0.08015
2258.61098,0.08013
2256.68220,0.08004
2254.75341,0.07994
2252.82462,0.07985
2250.89583,0.07980
2248.96704,0.07983
2247.03825,0.07988
2245.10947,0.07975
2243.18068,0.07955
2241.25189,0.07957
2239.32310,0.07976
2237.39431,0.07985
2235.46553,0.07976
2233.53674,0.07956
2231.60795,0.07938
2229.67916,0.07938
2227.75037,0.07963
2225.82158,0.08004
2223.89280,0.08030
2221.96401,0.08034
2220.03522,0.08032
2218.10643,0.08035
2216.17764,0.08040
2214.24886,0.08055
2212.32007,0.08081
2210.39128,0.08106
2208.46249,0.08124
2206.53370,0.08136
2204.60491,0.08146
2202.67613,0.08177
2200.74734,0.08234
2198.81855,0.08273
2196.88976,0.08265
2194.96097,0.08242
2193.03219,0.08242
2191.10340,0.08272
2189.17461,0.08324
2187.24582,0.08374
2185.31703,0.08398
2183.38824,0.08390
2181.45946,0.08365
2179.53067,0.08350
2177.60188,0.08362
2175.67309,0.08404
2173.74430,0.08456
2171.81551,0.08483
2169.88673,0.08469
2167.95794,0.08434
2166.02915,0.08411
2164.10036,0.08409
2162.17157,0.08421
2160.24279,0.08436
2158.31400,0.08439
2156.38521,0.08413
2154.45642,0.08374
2152.52763,0.08351
2150.59884,0.08354
2148.67006,0.08371
2146.74127,0.08380
2144.81248,0.08366
2142.88369,0.08345
2140.95490,0.08326
2139.02612,0.08301
2137.09733,0.08283
2135.16854,0.08298
2133.23975,0.08322
2131.31096,0.08319
2129.38217,0.08295
2127.45339,0.08284
2125.52460,0.08299
2123.59581,0.08316
2121.66702,0.08307
2119.73823,0.08282
2117.80945,0.08257
2115.88066,0.08238
2113.95187,0.08239
2112.02308,0.08269
2110.09429,0.08306
2108.16550,0.08308
2106.23672,0.08277
2104.30793,0.08254
2102.37914,0.08251
2100.45035,0.08265
2098.52156,0.08289
2096.59278,0.08302
2094.66399,0.08282
2092.73520,0.08232
2090.80641,0.08181
2088.87762,0.08154
2086.94883,0.08158
2085.02005,0.08186
2083.09126,0.08198
2081.16247,0.08162
2079.23368,0.08108
2077.30489,0.08084
2075.37610,0.08095
2073.44732,0.08114
2071.51853,0.08124
2069.58974,0.08132
2067.66095,0.08134
2065.73216,0.08119
2063.80338,0.08106
2061.87459,0.08119
2059.94580,0.08153
2058.01701,0.08177
2056.08822,0.08172
2054.15943,0.08160
2052.23065,0.08165
2050.30186,0.08185
2048.37307,0.08207
2046.44428,0.08232
2044.51549,0.08251
2042.58671,0.08249
2040.65792,0.08234
2038.72913,0.08226
2036.80034,0.08235
2034.87155,0.08260
2032.94276,0.08282
2031.01398,0.08285
2029.08519,0.08276
2027.15640,0.08265
2025.22761,0.08272
2023.29882,0.08311
2021.37004,0.08355
2019.44125,0.08366
2017.51246,0.08355
2015.58367,0.08344
2013.65488,0.08339
2011.72609,0.08359
2009.79731,0.08407
2007.86852,0.08449
2005.93973,0.08444
2004.01094,0.08403
2002.08215,0.08362
2000.15336,0.08336
1998.22458,0.08326
1996.29579,0.08311
1994.36700,0.08267
1992.43821,0.08198
1990.50942,0.08144
1988.58064,0.08127
1986.65185,0.08137
1984.72306,0.08151
1982.79427,0.08140
1980.86548,0.08105
1978.93669,0.08064
1977.00791,0.08025
1975.07912,0.08000
1973.15033,0.07993
1971.22154,0.07976
1969.29275,0.07920
1967.36397,0.07840
1965.43518,0.07754
1963.50639,0.07671
1961.57760,0.07599
1959.64881,0.07532
1957.72002,0.07450
1955.79124,0.07339
1953.86245,0.07206
1951.93366,0.07096
1950.00487,0.07048
1948.07608,0.07060
1946.14730,0.07111
1944.21851,0.07179
1942.28972,0.07248
1940.36093,0.07316
1938.43214,0.07391
1936.50335,0.07469
1934.57457,0.07547
1932.64578,0.07631
1930.71699,0.07701
1928.78820,0.07738
1926.85941,0.07762
1924.93063,0.07803
1923.00184,0.07861
1921.07305,0.07914
1919.14426,0.07927
1917.21547,0.07906
1915.28668,0.07887
1913.35790,0.07873
1911.42911,0.07872
1909.50032,0.07906
1907.57153,0.07954
1905.64274,0.07970
1903.71395,0.07947
1901.78517,0.07923
1899.85638,0.07932
1897.92759,0.07960
1895.99880,0.07980
1894.07001,0.07986
1892.14123,0.07977
1890.21244,0.07963
1888.28365,0.07958
1886.35486,0.07971
1884.42607,0.07995
1882.49728,0.08010
1880.56850,0.07999
1878.63971,0.07960
1876.71092,0.07930
1874.78213,0.07940
1872.85334,0.07972
1870.92456,0.07976
1868.99577,0.07924
1867.06698,0.07854
1865.13819,0.07821
1863.20940,0.07825
1861.28061,0.07842
1859.35183,0.07838
1857.42304,0.07790
1855.49425,0.07713
1853.56546,0.07645
1851.63667,0.07598
1849.70789,0.07558
1847.77910,0.07514
1845.85031,0.07444
1843.92152,0.07326
1841.99273,0.07224
1840.06394,0.07187
1838.13516,0.07169
1836.20637,0.07122
1834.27758,0.07035
1832.34879,0.06917
1830.42000,0.06773
1828.49122,0.06649
1826.56243,0.06591
1824.63364,0.06577
1822.70485,0.06571
1820.77606,0.06552
1818.84727,0.06531
1816.91849,0.06535
1814.98970,0.06572
1813.06091,0.06627
1811.13212,0.06668
1809.20333,0.06663
1807.27454,0.06625
1805.34576,0.06589
1803.41697,0.06572
1801.48818,0.06560
1799.55939,0.06533
1797.63060,0.06496
1795.70182,0.06465
1793.77303,0.06427
1791.84424,0.06363
1789.91545,0.06297
1787.98666,0.06241
1786.05787,0.06182
1784.12909,0.06143
1782.20030,0.06137
1780.27151,0.06117
1778.34272,0.06048
1776.41393,0.05962
1774.48515,0.05889
1772.55636,0.05837
1770.62757,0.05800
1768.69878,0.05749
1766.76999,0.05699
1764.84120,0.05675
1762.91242,0.05638
1760.98363,0.05559
1759.05484,0.05484
1757.12605,0.05430
1755.19726,0.05397
1753.26848,0.05376
1751.33969,0.05333
1749.41090,0.05276
1747.48211,0.05245
1745.55332,0.05229
1743.62453,0.05196
1741.69575,0.05151
1739.76696,0.05109
1737.83817,0.05074
1735.90938,0.05027
1733.98059,0.04947
1732.05180,0.04921
1730.12302,0.04983
1728.19423,0.05097
1726.26544,0.05262
1724.33665,0.05488
1722.40786,0.05736
1720.47908,0.05959
1718.55029,0.06205
1716.62150,0.06509
1714.69271,0.06732
1712.76392,0.06838
1710.83513,0.06874
1708.90635,0.06862
1706.97756,0.06794
1705.04877,0.06677
1703.11998,0.06575
1701.19119,0.06485
1699.26241,0.06385
1697.33362,0.06301
1695.40483,0.06209
1693.47604,0.06150
1691.54725,0.06138
1689.61846,0.06136
1687.68968,0.06121
1685.76089,0.06089
1683.83210,0.06037
1681.90331,0.06006
1679.97452,0.06003
1678.04574,0.05997
1676.11695,0.05974
1674.18816,0.05959
1672.25937,0.05961
1670.33058,0.05950
1668.40179,0.05965
1666.47301,0.06028
1664.54422,0.06091
1662.61543,0.06131
1660.68664,0.06163
1658.75785,0.06214
1656.82907,0.06278
1654.90028,0.06320
1652.97149,0.06281
1651.04270,0.06247
1649.11391,0.06260
1647.18512,0.06230
1645.25634,0.06148
1643.32755,0.06095
1641.39876,0.06055
1639.46997,0.06008
1637.54118,0.05967
1635.61239,0.05972
1633.68361,0.06039
1631.75482,0.06102
1629.82603,0.06150
1627.89724,0.06202
1625.96845,0.06251
1624.03967,0.06288
1622.11088,0.06303
1620.18209,0.06281
1618.25330,0.06229
1616.32451,0.06173
1614.39572,0.06159
1612.46694,0.06166
1610.53815,0.06159
1608.60936,0.06158
1606.68057,0.06194
1604.75178,0.06259
1602.82300,0.06330
1600.89421,0.06384
1598.96542,0.06407
1597.03663,0.06406
1595.10784,0.06390
1593.17905,0.06373
1591.25027,0.06356
1589.32148,0.06315
1587.39269,0.06228
1585.46390,0.06102
1583.53511,0.05967
1581.60633,0.05852
1579.67754,0.05766
1577.74875,0.05712
1575.81996,0.05705
1573.89117,0.05757
1571.96238,0.05836
1570.03360,0.05901
1568.10481,0.05920
1566.17602,0.05918
1564.24723,0.05925
1562.31844,0.05951
1560.38966,0.05971
1558.46087,0.05960
1556.53208,0.05990
1554.60329,0.06026
1552.67450,0.06019
1550.74571,0.05988
1548.81693,0.05981
1546.88814,0.06003
1544.95935,0.06002
1543.03056,0.05930
1541.10177,0.05811
1539.17298,0.05778
1537.24420,0.05839
1535.31541,0.05894
1533.38662,0.05920
1531.45783,0.05915
1529.52904,0.05886
1527.60026,0.05852
1525.67147,0.05870
1523.74268,0.05951
1521.81389,0.06000
1519.88510,0.05953
1517.95631,0.05875
1516.02753,0.05818
1514.09874,0.05797
1512.16995,0.05790
1510.24116,0.05771
1508.31237,0.05703
1506.38359,0.05591
1504.45480,0.05566
1502.52601,0.05605
1500.59722,0.05667
1498.66843,0.05725
1496.73964,0.05745
1494.81086,0.05743
1492.88207,0.05740
1490.95328,0.05709
1489.02449,0.05630
1487.09570,0.05557
1485.16692,0.05523
1483.23813,0.05504
1481.30934,0.05476
1479.38055,0.05445
1477.45176,0.05421
1475.52297,0.05401
1473.59419,0.05382
1471.66540,0.05362
1469.73661,0.05367
1467.80782,0.05397
1465.87903,0.05436
1463.95024,0.05474
1462.02146,0.05514
1460.09267,0.05551
1458.16388,0.05575
1456.23509,0.05590
1454.30630,0.05604
1452.37752,0.05605
1450.44873,0.05600
1448.51994,0.05585
1446.59115,0.05552
1444.66236,0.05510
1442.73357,0.05472
1440.80479,0.05443
1438.87600,0.05435
1436.94721,0.05445
1435.01842,0.05457
1433.08963,0.05479
1431.16085,0.05513
1429.23206,0.05546
1427.30327,0.05579
1425.37448,0.05609
1423.44569,0.05632
1421.51690,0.05646
1419.58812,0.05628
1417.65933,0.05580
1415.73054,0.05552
1413.80175,0.05553
1411.87296,0.05574
1409.94418,0.05616
1408.01539,0.05654
1406.08660,0.05672
1404.15781,0.05676
1402.22902,0.05659
1400.30023,0.05616
1398.37145,0.05563
1396.44266,0.05514
1394.51387,0.05477
1392.58508,0.05465
1390.65629,0.05461
1388.72751,0.05446
1386.79872,0.05439
1384.86993,0.05462
1382.94114,0.05489
1381.01235,0.05510
1379.08356,0.05543
1377.15478,0.05580
1375.22599,0.05591
1373.29720,0.05568
1371.36841,0.05539
1369.43962,0.05518
1367.51083,0.05503
1365.58205,0.05479
1363.65326,0.05429
1361.72447,0.05381
1359.79568,0.05369
1357.86689,0.05379
1355.93811,0.05394
1354.00932,0.05402
1352.08053,0.05389
1350.15174,0.05353
1348.22295,0.05321
1346.29416,0.05303
1344.36538,0.05278
1342.43659,0.05246
1340.50780,0.05225
1338.57901,0.05218
1336.65022,0.05217
1334.72144,0.05218
1332.79265,0.05225
1330.86386,0.05250
1328.93507,0.05280
1327.00628,0.05298
1325.07749,0.05305
1323.14871,0.05301
1321.21992,0.05284
1319.29113,0.05264
1317.36234,0.05253
1315.43355,0.05235
1313.50477,0.05198
1311.57598,0.05165
1309.64719,0.05147
1307.71840,0.05129
1305.78961,0.05103
1303.86082,0.05072
1301.93204,0.05032
1300.00325,0.04977
1298.07446,0.04912
1296.14567,0.04837
1294.21688,0.04756
1292.28810,0.04687
1290.35931,0.04640
1288.43052,0.04607
1286.50173,0.04589
1284.57294,0.04615
1282.64415,0.04714
1280.71537,0.04872
1278.78658,0.05068
1276.85779,0.05324
1274.92900,0.05652
1273.00021,0.06044
1271.07142,0.06469
1269.14264,0.06849
1267.21385,0.07111
1265.28506,0.07236
1263.35627,0.07236
1261.42748,0.07135
1259.49870,0.06985
1257.56991,0.06864
1255.64112,0.06825
1253.71233,0.06877
1251.78354,0.06985
1249.85475,0.07102
1247.92597,0.07219
1245.99718,0.07314
1244.06839,0.07339
1242.13960,0.07303
1240.21081,0.07251
1238.28203,0.07194
1236.35324,0.07120
1234.42445,0.07037
1232.49566,0.06961
1230.56687,0.06904
1228.63808,0.06866
1226.70930,0.06831
1224.78051,0.06776
1222.85172,0.06697
1220.92293,0.06618
1218.99414,0.06554
1217.06536,0.06500
1215.13657,0.06440
1213.20778,0.06378
1211.27899,0.06335
1209.35020,0.06319
1207.42141,0.06316
1205.49263,0.06298
1203.56384,0.06269
1201.63505,0.06243
1199.70626,0.06220
1197.77747,0.06201
1195.84868,0.06197
1193.91990,0.06203
1191.99111,0.06198
1190.06232,0.06192
1188.13353,0.06189
1186.20474,0.06169
1184.27596,0.06126
1182.34717,0.06080
1180.41838,0.06049
1178.48959,0.06031
1176.56080,0.06011
1174.63201,0.05997
1172.70323,0.05996
1170.77444,0.05994
1168.84565,0.05977
1166.91686,0.05964
1164.98807,0.05961
1163.05929,0.05935
1161.13050,0.05890
1159.20171,0.05874
1157.27292,0.05887
1155.34413,0.05905
1153.41534,0.05913
1151.48656,0.05889
1149.55777,0.05820
1147.62898,0.05740
1145.70019,0.05688
1143.77140,0.05652
1141.84262,0.05607
1139.91383,0.05571
1137.98504,0.05557
1136.05625,0.05527
1134.12746,0.05439
1132.19867,0.05328
1130.26989,0.05258
1128.34110,0.05238
1126.41231,0.05263
1124.48352,0.05354
1122.55473,0.05542
1120.62595,0.05820
1118.69716,0.06124
1116.76837,0.06352
1114.83958,0.06457
1112.91079,0.06474
1110.98200,0.06422
1109.05322,0.06326
1107.12443,0.06302
1105.19564,0.06438
1103.26685,0.06682
1101.33806,0.06913
1099.40927,0.07038
1097.48049,0.07039
1095.55170,0.06980
1093.62291,0.06898
1091.69412,0.06802
1089.76533,0.06736
1087.83655,0.06701
1085.90776,0.06684
1083.97897,0.06692
1082.05018,0.06695
1080.12139,0.06655
1078.19260,0.06586
1076.26382,0.06534
1074.33503,0.06521
1072.40624,0.06528
1070.47745,0.06521
1068.54866,0.06488
1066.61988,0.06453
1064.69109,0.06441
1062.76230,0.06442
1060.83351,0.06426
1058.90472,0.06378
1056.97593,0.06330
1055.04715,0.06315
1053.11836,0.06310
1051.18957,0.06289
1049.26078,0.06270
1047.33199,0.06260
1045.40321,0.06248
1043.47442,0.06237
1041.54563,0.06222
1039.61684,0.06196
1037.68805,0.06169
1035.75926,0.06136
1033.83048,0.06085
1031.90169,0.06043
1029.97290,0.06038
1028.04411,0.06033
1026.11532,0.05989
1024.18654,0.05928
1022.25775,0.05936
1020.32896,0.06104
1018.40017,0.06369
1016.47138,0.06540
1014.54259,0.06550
1012.61381,0.06493
1010.68502,0.06413
1008.75623,0.06308
1006.82744,0.06217
1004.89865,0.06173
1002.96986,0.06170
1001.04108,0.06169
999.11229,0.06152
997.18350,0.06124
995.25471,0.06106
993.32592,0.06120
991.39714,0.06156
989.46835,0.06171
987.53956,0.06149
985.61077,0.06116
983.68198,0.06099
981.75319,0.06101
979.82441,0.06093
977.89562,0.06060
975.96683,0.06041
974.03804,0.06065
972.10925,0.06102
970.18047,0.06130
968.25168,0.06153
966.32289,0.06188
964.39410,0.06225
962.46531,0.06236
960.53652,0.06238
958.60774,0.06268
956.67895,0.06316
954.75016,0.06357
952.82137,0.06383
950.89258,0.06399
948.96380,0.06414
947.03501,0.06421
945.10622,0.06409
943.17743,0.06392
941.24864,0.06378
939.31985,0.06360
937.39107,0.06339
935.46228,0.06327
933.53349,0.06306
931.60470,0.06267
929.67591,0.06251
927.74712,0.06275
925.81834,0.06289
923.88955,0.06262
921.96076,0.06231
920.03197,0.06243
918.10318,0.06283
916.17440,0.06300
914.24561,0.06279
912.31682,0.06245
910.38803,0.06221
908.45924,0.06207
906.53045,0.06208
904.60167,0.06224
902.67288,0.06234
900.74409,0.06222
898.81530,0.06216
896.88651,0.06216
894.95773,0.06202
893.02894,0.06187
891.10015,0.06175
889.17136,0.06161
887.24257,0.06153
885.31378,0.06143
883.38500,0.06130
881.45621,0.06122
879.52742,0.06106
877.59863,0.06102
875.66984,0.06156
873.74106,0.06239
871.81227,0.06274
869.88348,0.06237
867.95469,0.06185
866.02590,0.06168
864.09711,0.06177
862.16833,0.06200
860.23954,0.06220
858.31075,0.06196
856.38196,0.06146
854.45317,0.06130
852.52439,0.06149
850.59560,0.06157
848.66681,0.06156
846.73802,0.06179
844.80923,0.06209
842.88044,0.06207
840.95166,0.06189
839.02287,0.06182
837.09408,0.06173
835.16529,0.06152
833.23650,0.06146
831.30771,0.06161
829.37893,0.06183
827.45014,0.06194
825.52135,0.06163
823.59256,0.06118
821.66377,0.06132
819.73499,0.06195
817.80620,0.06232
815.87741,0.06226
813.94862,0.06214
812.01983,0.06227
810.09104,0.06248
808.16226,0.06243
806.23347,0.06223
804.30468,0.06211
802.37589,0.06198
800.44710,0.06173
798.51832,0.06137
796.58953,0.06088
794.66074,0.06058
792.73195,0.06084
790.80316,0.06121
788.87437,0.06107
786.94559,0.06069
785.01680,0.06041
783.08801,0.06015
781.15922,0.06002
779.23043,0.06000
777.30165,0.05977
775.37286,0.05927
773.44407,0.05868
771.51528,0.05834
769.58649,0.05855
767.65770,0.05902
765.72892,0.05919
763.80013,0.05896
761.87134,0.05874
759.94255,0.05870
758.01376,0.05864
756.08498,0.05869
754.15619,0.05874
752.22740,0.05827
750.29861,0.05747
748.36982,0.05679
746.44103,0.05604
744.51225,0.05512
742.58346,0.05395
740.65467,0.05234
738.72588,0.05091
736.79709,0.05099
734.86830,0.05365
732.93952,0.05889
731.01073,0.06480
729.08194,0.06839
727.15315,0.06854
725.22436,0.06670
723.29558,0.06469
721.36679,0.06306
719.43800,0.06172
717.50921,0.06058
715.58042,0.05961
713.65163,0.05922
711.72285,0.05959
709.79406,0.06000
707.86527,0.06005
705.93648,0.05995
704.00769,0.05956
702.07891,0.05872
700.15012,0.05814
698.22133,0.05822
696.29254,0.05848
694.36375,0.05876
692.43496,0.05930
690.50618,0.05988
688.57739,0.06011
686.64860,0.05995
684.71981,0.05970
682.79102,0.05960
680.86224,0.05941
678.93345,0.05915
677.00466,0.05916
675.07587,0.05912
673.14708,0.05910
671.21829,0.05943
669.28951,0.05944
667.36072,0.05865
665.43193,0.05798
663.50314,0.05756
661.57435,0.05704
659.64556,0.05677
657.71678,0.05686
655.78799,0.05673
653.85920,0.05626
651.93041,0.05568
650.00162,0.05535
648.07284,0.05582
646.14405,0.05651
644.21526,0.05670
642.28647,0.05676
640.35768,0.05694
638.42889,0.05765
636.50011,0.05889
634.57132,0.05958
632.64253,0.05976
630.71374,0.06001
628.78495,0.05990
626.85617,0.05984
624.92738,0.06052
622.99859,0.06131
621.06980,0.06200
619.14101,0.06298
617.21222,0.06389
615.28344,0.06479
613.35465,0.06549
611.42586,0.06509
609.49707,0.06434
607.56828,0.06514
605.63950,0.06761
603.71071,0.06944
601.78192,0.06900
599.85313,0.06755
