7497.19974,0.04594
7495.27095,0.04670
7493.34216,0.04102
7491.41337,0.03277
7489.48459,0.02877
7487.55580,0.02942
7485.62701,0.03006
7483.69822,0.02905
7481.76943,0.02596
7479.84065,0.02545
7477.91186,0.02795
7475.98307,0.02945
7474.05428,0.03102
7472.12549,0.03917
7470.19670,0.04789
7468.26792,0.04673
7466.33913,0.04049
7464.41034,0.03872
7462.48155,0.03688
7460.55276,0.02794
7458.62398,0.01856
7456.69519,0.02061
7454.76640,0.03075
7452.83761,0.03673
7450.90882,0.03666
7448.98003,0.03824
7447.05125,0.04140
7445.12246,0.04267
7443.19367,0.04150
7441.26488,0.04070
7439.33609,0.03928
7437.40731,0.03536
7435.47852,0.03196
7433.54973,0.03341
7431.62094,0.03506
7429.69215,0.03283
7427.76336,0.02973
7425.83458,0.03127
7423.90579,0.03383
7421.97700,0.03324
7420.04821,0.02893
7418.11942,0.02535
7416.19063,0.02551
7414.26185,0.03271
7412.33306,0.03680
7410.40427,0.03528
7408.47548,0.03464
7406.54669,0.03874
7404.61791,0.04227
7402.68912,0.04125
7400.76033,0.03730
7398.83154,0.03824
7396.90275,0.04337
7394.97396,0.04219
7393.04518,0.03434
7391.11639,0.02808
7389.18760,0.02748
7387.25881,0.03269
7385.33002,0.03783
7383.40124,0.03601
7381.47245,0.03018
7379.54366,0.03114
7377.61487,0.03649
7375.68608,0.03945
7373.75729,0.03566
7371.82851,0.03127
7369.89972,0.03023
7367.97093,0.03060
7366.04214,0.03040
7364.11335,0.02943
7362.18457,0.03078
7360.25578,0.03740
7358.32699,0.04323
7356.39820,0.04134
7354.46941,0.03451
7352.54062,0.03013
7350.61184,0.02951
7348.68305,0.03273
7346.75426,0.03523
7344.82547,0.03147
7342.89668,0.02338
7340.96790,0.01786
7339.03911,0.01992
7337.11032,0.02516
7335.18153,0.02679
7333.25274,0.02643
7331.32395,0.02771
7329.39517,0.03064
7327.46638,0.03023
7325.53759,0.02739
7323.60880,0.02749
7321.68001,0.02935
7319.75122,0.02756
7317.82244,0.02116
7315.89365,0.01673
7313.96486,0.02210
7312.03607,0.03266
7310.10728,0.03602
7308.17850,0.02923
7306.24971,0.02551
7304.32092,0.02903
7302.39213,0.02871
7300.46334,0.02558
7298.53455,0.02719
7296.60577,0.02950
7294.67698,0.02886
7292.74819,0.02669
7290.81940,0.02584
7288.89061,0.03006
7286.96183,0.03743
7285.03304,0.03994
7283.10425,0.03657
7281.17546,0.03258
7279.24667,0.02991
7277.31788,0.02780
7275.38910,0.02627
7273.46031,0.02515
7271.53152,0.02660
7269.60273,0.02953
7267.67394,0.03039
7265.74516,0.02914
7263.81637,0.02678
7261.88758,0.02481
7259.95879,0.02776
7258.03000,0.02858
7256.10121,0.02116
7254.17243,0.01754
7252.24364,0.02850
7250.31485,0.04099
7248.38606,0.04353
7246.45727,0.03828
7244.52848,0.03382
7242.59970,0.03061
7240.67091,0.02800
7238.74212,0.03150
7236.81333,0.03815
7234.88454,0.03895
7232.95576,0.03527
7231.02697,0.03418
7229.09818,0.03804
7227.16939,0.04210
7225.24060,0.04241
7223.31181,0.03929
7221.38303,0.03608
7219.45424,0.03588
7217.52545,0.03773
7215.59666,0.03725
7213.66787,0.03578
7211.73909,0.03569
7209.81030,0.03374
7207.88151,0.02733
7205.95272,0.02288
7204.02393,0.02370
7202.09514,0.02772
7200.16636,0.03187
7198.23757,0.03363
7196.30878,0.03062
7194.37999,0.02728
7192.45120,0.03010
7190.52242,0.03999
7188.59363,0.04749
7186.66484,0.04580
7184.73605,0.03977
7182.80726,0.03603
7180.87847,0.03353
7178.94969,0.03333
7177.02090,0.03476
7175.09211,0.03540
7173.16332,0.03715
7171.23453,0.03939
7169.30575,0.03626
7167.37696,0.03116
7165.44817,0.03175
7163.51938,0.03393
7161.59059,0.03169
7159.66180,0.02921
7157.73302,0.02922
7155.80423,0.02769
7153.87544,0.02625
7151.94665,0.03022
7150.01786,0.03731
7148.08907,0.04156
7146.16029,0.03956
7144.23150,0.03627
7142.30271,0.03822
7140.37392,0.04024
7138.44513,0.03496
7136.51635,0.02828
7134.58756,0.02951
7132.65877,0.03614
7130.72998,0.04040
7128.80119,0.04232
7126.87240,0.04136
7124.94362,0.03721
7123.01483,0.03286
7121.08604,0.03185
7119.15725,0.03553
7117.22846,0.03848
7115.29968,0.03601
7113.37089,0.03323
7111.44210,0.03393
7109.51331,0.03576
7107.58452,0.03446
7105.65573,0.03145
7103.72695,0.03106
7101.79816,0.03306
7099.86937,0.03513
7097.94058,0.03728
7096.01179,0.03748
7094.08301,0.03587
7092.15422,0.03548
7090.22543,0.03729
7088.29664,0.03853
7086.36785,0.03612
7084.43906,0.03052
7082.51028,0.02775
7080.58149,0.03019
7078.65270,0.03239
7076.72391,0.03213
7074.79512,0.03112
7072.86634,0.03034
7070.93755,0.03269
7069.00876,0.03463
7067.07997,0.03208
7065.15118,0.03007
7063.22239,0.03029
7061.29361,0.02968
7059.36482,0.02958
7057.43603,0.03264
7055.50724,0.03686
7053.57845,0.03922
7051.64966,0.04066
7049.72088,0.04026
7047.79209,0.03738
7045.86330,0.03458
7043.93451,0.03268
7042.00572,0.03211
7040.07694,0.03210
7038.14815,0.03083
7036.21936,0.02942
7034.29057,0.03059
7032.36178,0.03634
7030.43299,0.04138
7028.50421,0.04001
7026.57542,0.03562
7024.64663,0.03173
7022.71784,0.02968
7020.78905,0.03009
7018.86027,0.02855
7016.93148,0.02611
7015.00269,0.02834
7013.07390,0.03413
7011.14511,0.03522
7009.21632,0.02939
7007.28754,0.02436
7005.35875,0.02458
7003.42996,0.02590
7001.50117,0.02676
6999.57238,0.02773
6997.64360,0.02857
6995.71481,0.02928
6993.78602,0.03160
6991.85723,0.03471
6989.92844,0.03623
6987.99965,0.03430
6986.07087,0.03202
6984.14208,0.03335
6982.21329,0.03576
6980.28450,0.03377
6978.35571,0.03041
6976.42692,0.03163
6974.49814,0.03424
6972.56935,0.03268
6970.64056,0.02991
6968.71177,0.02988
6966.78298,0.03147
6964.85420,0.03240
6962.92541,0.03263
6960.99662,0.03373
6959.06783,0.03634
6957.13904,0.03776
6955.21025,0.03683
6953.28147,0.03387
6951.35268,0.03095
6949.42389,0.02926
6947.49510,0.02924
6945.56631,0.03036
6943.63753,0.03138
6941.70874,0.03177
6939.77995,0.03204
6937.85116,0.03063
6935.92237,0.02963
6933.99358,0.03162
6932.06480,0.03232
6930.13601,0.03059
6928.20722,0.03088
6926.27843,0.03350
6924.34964,0.03613
6922.42086,0.03534
6920.49207,0.03116
6918.56328,0.02841
6916.63449,0.02994
6914.70570,0.03315
6912.77691,0.03459
6910.84813,0.03480
6908.91934,0.03771
6906.99055,0.04243
6905.06176,0.04361
6903.13297,0.04136
6901.20419,0.04071
6899.27540,0.03936
6897.34661,0.03349
6895.41782,0.02982
6893.48903,0.03316
6891.56024,0.03760
6889.63146,0.03756
6887.70267,0.03438
6885.77388,0.03257
6883.84509,0.03217
6881.91630,0.03176
6879.98751,0.03428
6878.05873,0.03936
6876.12994,0.04161
6874.20115,0.03909
6872.27236,0.03404
6870.34357,0.02974
6868.41479,0.02887
6866.48600,0.03174
6864.55721,0.03511
6862.62842,0.03668
6860.69963,0.03729
6858.77084,0.03817
6856.84206,0.03866
6854.91327,0.03888
6852.98448,0.03801
6851.05569,0.03504
6849.12690,0.03203
6847.19812,0.03162
6845.26933,0.03238
6843.34054,0.03187
6841.41175,0.03127
6839.48296,0.03338
6837.55417,0.03828
6835.62539,0.04334
6833.69660,0.04404
6831.76781,0.03894
6829.83902,0.03233
6827.91023,0.02955
6825.98145,0.03030
6824.05266,0.03053
6822.12387,0.02921
6820.19508,0.02905
6818.26629,0.03001
6816.33750,0.03070
6814.40872,0.03247
6812.47993,0.03570
6810.55114,0.03607
6808.62235,0.03297
6806.69356,0.03125
6804.76478,0.03255
6802.83599,0.03274
6800.90720,0.02992
6798.97841,0.02871
6797.04962,0.03025
6795.12083,0.02956
6793.19205,0.02715
6791.26326,0.02578
6789.33447,0.02636
6787.40568,0.02979
6785.47689,0.03400
6783.54810,0.03587
6781.61932,0.03619
6779.69053,0.03580
6777.76174,0.03413
6775.83295,0.03259
6773.90416,0.03250
6771.97538,0.03238
6770.04659,0.03168
6768.11780,0.03129
6766.18901,0.03202
6764.26022,0.03262
6762.33143,0.03113
6760.40265,0.02886
6758.47386,0.02875
6756.54507,0.03254
6754.61628,0.03713
6752.68749,0.03536
6750.75871,0.02803
6748.82992,0.02285
6746.90113,0.02406
6744.97234,0.02935
6743.04355,0.03401
6741.11476,0.03659
6739.18598,0.03775
6737.25719,0.03642
6735.32840,0.03357
6733.39961,0.03267
6731.47082,0.03382
6729.54204,0.03377
6727.61325,0.03161
6725.68446,0.02969
6723.75567,0.03007
6721.82688,0.03080
6719.89809,0.02978
6717.96931,0.02997
6716.04052,0.03385
6714.11173,0.03802
6712.18294,0.03895
6710.25415,0.03606
6708.32536,0.03164
6706.39658,0.02920
6704.46779,0.02900
6702.53900,0.02964
6700.61021,0.03147
6698.68142,0.03386
6696.75264,0.03418
6694.82385,0.03200
6692.89506,0.02926
6690.96627,0.02525
6689.03748,0.02095
6687.10869,0.02082
6685.17991,0.02607
6683.25112,0.03330
6681.32233,0.03810
6679.39354,0.03919
6677.46475,0.03711
6675.53597,0.03281
6673.60718,0.03104
6671.67839,0.03312
6669.74960,0.03504
6667.82081,0.03524
6665.89202,0.03403
6663.96324,0.03168
6662.03445,0.03053
6660.10566,0.03042
6658.17687,0.03027
6656.24808,0.03222
6654.31930,0.03546
6652.39051,0.03541
6650.46172,0.03312
6648.53293,0.03256
6646.60414,0.03246
6644.67535,0.03059
6642.74657,0.02891
6640.81778,0.02985
6638.88899,0.03353
6636.96020,0.03711
6635.03141,0.03756
6633.10263,0.03528
6631.17384,0.03130
6629.24505,0.02865
6627.31626,0.03193
6625.38747,0.03718
6623.45868,0.03788
6621.52990,0.03637
6619.60111,0.03568
6617.67232,0.03478
6615.74353,0.03367
6613.81474,0.03210
6611.88595,0.03041
6609.95717,0.02989
6608.02838,0.02988
6606.09959,0.02989
6604.17080,0.03120
6602.24201,0.03349
6600.31323,0.03532
6598.38444,0.03576
6596.45565,0.03525
6594.52686,0.03525
6592.59807,0.03730
6590.66928,0.04058
6588.74050,0.04010
6586.81171,0.03433
6584.88292,0.02979
6582.95413,0.02979
6581.02534,0.03208
6579.09656,0.03499
6577.16777,0.03623
6575.23898,0.03500
6573.31019,0.03440
6571.38140,0.03398
6569.45261,0.03148
6567.52383,0.02943
6565.59504,0.03136
6563.66625,0.03554
6561.73746,0.03790
6559.80867,0.03674
6557.87989,0.03459
6555.95110,0.03490
6554.02231,0.03725
6552.09352,0.03762
6550.16473,0.03516
6548.23594,0.03323
6546.30716,0.03316
6544.37837,0.03261
6542.44958,0.03174
6540.52079,0.03245
6538.59200,0.03447
6536.66322,0.03627
6534.73443,0.03657
6532.80564,0.03507
6530.87685,0.03403
6528.94806,0.03498
6527.01927,0.03565
6525.09049,0.03330
6523.16170,0.03054
6521.23291,0.02991
6519.30412,0.03004
6517.37533,0.02975
6515.44654,0.02876
6513.51776,0.02823
6511.58897,0.02860
6509.66018,0.02893
6507.73139,0.02994
6505.80260,0.03057
6503.87382,0.02927
6501.94503,0.02721
6500.01624,0.02656
6498.08745,0.02901
6496.15866,0.03319
6494.22987,0.03546
6492.30109,0.03532
6490.37230,0.03569
6488.44351,0.03756
6486.51472,0.03833
6484.58593,0.03688
6482.65715,0.03438
6480.72836,0.03239
6478.79957,0.03129
6476.87078,0.03186
6474.94199,0.03421
6473.01320,0.03554
6471.08442,0.03385
6469.15563,0.03114
6467.22684,0.03021
6465.29805,0.03105
6463.36926,0.03202
6461.44048,0.03327
6459.51169,0.03365
6457.58290,0.03072
6455.65411,0.02641
6453.72532,0.02556
6451.79653,0.02852
6449.86775,0.03115
6447.93896,0.02998
6446.01017,0.02674
6444.08138,0.02553
6442.15259,0.02696
6440.22380,0.02834
6438.29502,0.02809
6436.36623,0.02803
6434.43744,0.02925
6432.50865,0.02915
6430.57986,0.02743
6428.65108,0.02691
6426.72229,0.02878
6424.79350,0.03000
6422.86471,0.02965
6420.93592,0.03072
6419.00713,0.03286
6417.07835,0.03269
6415.14956,0.03142
6413.22077,0.03045
6411.29198,0.02985
6409.36319,0.03109
6407.43441,0.03232
6405.50562,0.03107
6403.57683,0.02882
6401.64804,0.02652
6399.71925,0.02485
6397.79046,0.02493
6395.86168,0.02664
6393.93289,0.02858
6392.00410,0.02999
6390.07531,0.03138
6388.14652,0.03296
6386.21774,0.03482
6384.28895,0.03715
6382.36016,0.03770
6380.43137,0.03566
6378.50258,0.03368
6376.57379,0.03335
6374.64501,0.03277
6372.71622,0.03171
6370.78743,0.03173
6368.85864,0.03244
6366.92985,0.03327
6365.00107,0.03441
6363.07228,0.03479
6361.14349,0.03415
6359.21470,0.03359
6357.28591,0.03376
6355.35712,0.03343
6353.42834,0.03180
6351.49955,0.02989
6349.57076,0.02921
6347.64197,0.02944
6345.71318,0.02946
6343.78439,0.02901
6341.85561,0.02975
6339.92682,0.03275
6337.99803,0.03554
6336.06924,0.03487
6334.14045,0.03264
6332.21167,0.03166
6330.28288,0.03075
6328.35409,0.02941
6326.42530,0.03052
6324.49651,0.03399
6322.56772,0.03556
6320.63894,0.03398
6318.71015,0.03192
6316.78136,0.03103
6314.85257,0.03125
6312.92378,0.03210
6310.99500,0.03311
6309.06621,0.03258
6307.13742,0.03164
6305.20863,0.03262
6303.27984,0.03357
6301.35105,0.03226
6299.42227,0.02990
6297.49348,0.02791
6295.56469,0.02805
6293.63590,0.02983
6291.70711,0.03040
6289.77833,0.02867
6287.84954,0.02557
6285.92075,0.02401
6283.99196,0.02656
6282.06317,0.03183
6280.13438,0.03640
6278.20560,0.03716
6276.27681,0.03444
6274.34802,0.03210
6272.41923,0.03163
6270.49044,0.03105
6268.56165,0.03069
6266.63287,0.03199
6264.70408,0.03265
6262.77529,0.03063
6260.84650,0.02775
6258.91771,0.02616
6256.98893,0.02636
6255.06014,0.02681
6253.13135,0.02668
6251.20256,0.02659
6249.27377,0.02724
6247.34498,0.02904
6245.41620,0.03157
6243.48741,0.03417
6241.55862,0.03566
6239.62983,0.03458
6237.70104,0.03238
6235.77226,0.03189
6233.84347,0.03304
6231.91468,0.03316
6229.98589,0.03209
6228.05710,0.03233
6226.12831,0.03446
6224.19953,0.03509
6222.27074,0.03244
6220.34195,0.03007
6218.41316,0.02999
6216.48437,0.02998
6214.55559,0.02962
6212.62680,0.03016
6210.69801,0.03078
6208.76922,0.03008
6206.84043,0.02892
6204.91164,0.02886
6202.98286,0.03026
6201.05407,0.03263
6199.12528,0.03415
6197.19649,0.03359
6195.26770,0.03181
6193.33892,0.03027
6191.41013,0.03012
6189.48134,0.03032
6187.55255,0.02974
6185.62376,0.02926
6183.69497,0.02885
6181.76619,0.02889
6179.83740,0.03127
6177.90861,0.03389
6175.97982,0.03274
6174.05103,0.02954
6172.12224,0.02895
6170.19346,0.03032
6168.26467,0.03105
6166.33588,0.03215
6164.40709,0.03373
6162.47830,0.03344
6160.54952,0.03170
6158.62073,0.03074
6156.69194,0.03119
6154.76315,0.03189
6152.83436,0.03142
6150.90557,0.03084
6148.97679,0.03219
6147.04800,0.03291
6145.11921,0.03102
6143.19042,0.02952
6141.26163,0.02943
6139.33285,0.02921
6137.40406,0.02948
6135.47527,0.03023
6133.54648,0.03051
6131.61769,0.03111
6129.68890,0.03297
6127.76012,0.03430
6125.83133,0.03241
6123.90254,0.02875
6121.97375,0.02768
6120.04496,0.03004
6118.11618,0.03373
6116.18739,0.03588
6114.25860,0.03518
6112.32981,0.03378
6110.40102,0.03461
6108.47223,0.03705
6106.54345,0.03767
6104.61466,0.03525
6102.68587,0.03316
6100.75708,0.03294
6098.82829,0.03262
6096.89951,0.03223
6094.97072,0.03294
6093.04193,0.03296
6091.11314,0.03162
6089.18435,0.03099
6087.25556,0.03089
6085.32678,0.02999
6083.39799,0.02963
6081.46920,0.03077
6079.54041,0.03236
6077.61162,0.03339
6075.68283,0.03338
6073.75405,0.03210
6071.82526,0.03088
6069.89647,0.03164
6067.96768,0.03264
6066.03889,0.03075
6064.11011,0.02764
6062.18132,0.02679
6060.25253,0.02827
6058.32374,0.02983
6056.39495,0.03149
6054.46616,0.03423
6052.53738,0.03623
6050.60859,0.03585
6048.67980,0.03402
6046.75101,0.03193
6044.82222,0.03080
6042.89344,0.03044
6040.96465,0.03014
6039.03586,0.03070
6037.10707,0.03166
6035.17828,0.03167
6033.24949,0.03128
6031.32071,0.03087
6029.39192,0.02977
6027.46313,0.02862
6025.53434,0.02871
6023.60555,0.02885
6021.67677,0.02750
6019.74798,0.02602
6017.81919,0.02623
6015.89040,0.02657
6013.96161,0.02630
6012.03282,0.02647
6010.10404,0.02704
6008.17525,0.02808
6006.24646,0.02985
6004.31767,0.03047
6002.38888,0.02997
6000.46009,0.03025
5998.53131,0.03109
5996.60252,0.03069
5994.67373,0.02876
5992.74494,0.02711
5990.81615,0.02705
5988.88737,0.02790
5986.95858,0.02842
5985.02979,0.02824
5983.10100,0.02832
5981.17221,0.02800
5979.24342,0.02653
5977.31464,0.02557
5975.38585,0.02673
5973.45706,0.02907
5971.52827,0.03051
5969.59948,0.03111
5967.67070,0.03138
5965.74191,0.03048
5963.81312,0.02971
5961.88433,0.03052
5959.95554,0.03093
5958.02675,0.03024
5956.09797,0.02999
5954.16918,0.02932
5952.24039,0.02778
5950.31160,0.02736
5948.38281,0.02853
5946.45403,0.03031
5944.52524,0.03191
5942.59645,0.03224
5940.66766,0.03089
5938.73887,0.02832
5936.81008,0.02626
5934.88130,0.02664
5932.95251,0.02831
5931.02372,0.02979
5929.09493,0.03144
5927.16614,0.03203
5925.23736,0.03122
5923.30857,0.03041
5921.37978,0.02949
5919.45099,0.02850
5917.52220,0.02879
5915.59341,0.02971
5913.66463,0.02963
5911.73584,0.02947
5909.80705,0.03030
5907.87826,0.03101
5905.94947,0.03101
5904.02068,0.03096
5902.09190,0.03106
5900.16311,0.03108
5898.23432,0.03127
5896.30553,0.03114
5894.37674,0.03008
5892.44796,0.02916
5890.51917,0.02969
5888.59038,0.03105
5886.66159,0.03151
5884.73280,0.03102
5882.80401,0.03100
5880.87523,0.03100
5878.94644,0.03010
5877.01765,0.02958
5875.08886,0.02999
5873.16007,0.03036
5871.23129,0.03082
5869.30250,0.03083
5867.37371,0.03008
5865.44492,0.02969
5863.51613,0.02975
5861.58734,0.02981
5859.65856,0.02995
5857.72977,0.02978
5855.80098,0.02970
5853.87219,0.02982
5851.94340,0.02958
5850.01462,0.02997
5848.08583,0.03135
5846.15704,0.03156
5844.22825,0.03007
5842.29946,0.02869
5840.37067,0.02880
5838.44189,0.03066
5836.51310,0.03314
5834.58431,0.03458
5832.65552,0.03416
5830.72673,0.03229
5828.79795,0.03094
5826.86916,0.03110
5824.94037,0.03099
5823.01158,0.02990
5821.08279,0.02934
5819.15400,0.02971
5817.22522,0.03010
5815.29643,0.02970
5813.36764,0.02900
5811.43885,0.02932
5809.51006,0.03082
5807.58127,0.03204
5805.65249,0.03161
5803.72370,0.03048
5801.79491,0.03026
5799.86612,0.03010
5797.93733,0.02954
5796.00855,0.02987
5794.07976,0.03073
5792.15097,0.03073
5790.22218,0.02974
5788.29339,0.02811
5786.36460,0.02676
5784.43582,0.02613
5782.50703,0.02578
5780.57824,0.02613
5778.64945,0.02750
5776.72066,0.02888
5774.79188,0.02908
5772.86309,0.02859
5770.93430,0.02860
5769.00551,0.02886
5767.07672,0.02945
5765.14793,0.03066
5763.21915,0.03134
5761.29036,0.03089
5759.36157,0.03038
5757.43278,0.03058
5755.50399,0.03127
5753.57521,0.03134
5751.64642,0.03022
5749.71763,0.02910
5747.78884,0.02916
5745.86005,0.02991
5743.93126,0.03058
5742.00248,0.03070
5740.07369,0.03024
5738.14490,0.02912
5736.21611,0.02760
5734.28732,0.02741
5732.35853,0.02926
5730.42975,0.03130
5728.50096,0.03249
5726.57217,0.03313
5724.64338,0.03319
5722.71459,0.03273
5720.78581,0.03234
5718.85702,0.03185
5716.92823,0.03107
5714.99944,0.03059
5713.07065,0.03067
5711.14186,0.03064
5709.21308,0.02991
5707.28429,0.02933
5705.35550,0.03007
5703.42671,0.03162
5701.49792,0.03271
5699.56914,0.03254
5697.64035,0.03164
5695.71156,0.03103
5693.78277,0.03081
5691.85398,0.03028
5689.92519,0.02860
5687.99641,0.02674
5686.06762,0.02698
5684.13883,0.02897
5682.21004,0.03077
5680.28125,0.03196
5678.35247,0.03282
5676.42368,0.03343
5674.49489,0.03330
5672.56610,0.03190
5670.63731,0.03081
5668.70852,0.03087
5666.77974,0.03067
5664.85095,0.03066
5662.92216,0.03160
5660.99337,0.03204
5659.06458,0.03214
5657.13580,0.03290
5655.20701,0.03314
5653.27822,0.03260
5651.34943,0.03260
5649.42064,0.03276
5647.49185,0.03216
5645.56307,0.03101
5643.63428,0.03001
5641.70549,0.02995
5639.77670,0.03058
5637.84791,0.03103
5635.91912,0.03084
5633.99034,0.02981
5632.06155,0.02863
5630.13276,0.02814
5628.20397,0.02921
5626.27518,0.03105
5624.34640,0.03119
5622.41761,0.03012
5620.48882,0.03049
5618.56003,0.03183
5616.63124,0.03236
5614.70245,0.03187
5612.77367,0.03089
5610.84488,0.02966
5608.91609,0.02892
5606.98730,0.02968
5605.05851,0.03167
5603.12973,0.03297
5601.20094,0.03236
5599.27215,0.03067
5597.34336,0.02963
5595.41457,0.02968
5593.48578,0.02928
5591.55700,0.02846
5589.62821,0.02956
5587.69942,0.03203
5585.77063,0.03338
5583.84184,0.03316
5581.91306,0.03192
5579.98427,0.03010
5578.05548,0.02853
5576.12669,0.02817
5574.19790,0.02898
5572.26911,0.02971
5570.34033,0.02988
5568.41154,0.03016
5566.48275,0.03065
5564.55396,0.03096
5562.62517,0.03138
5560.69639,0.03225
5558.76760,0.03247
5556.83881,0.03104
5554.91002,0.02950
5552.98123,0.02927
5551.05244,0.02988
5549.12366,0.03055
5547.19487,0.03046
5545.26608,0.02969
5543.33729,0.02943
5541.40850,0.02963
5539.47971,0.02984
5537.55093,0.03010
5535.62214,0.03027
5533.69335,0.03012
5531.76456,0.02976
5529.83577,0.02988
5527.90699,0.03077
5525.97820,0.03112
5524.04941,0.03045
5522.12062,0.03043
5520.19183,0.03143
5518.26304,0.03189
5516.33426,0.03167
5514.40547,0.03130
5512.47668,0.03085
5510.54789,0.03043
5508.61910,0.02993
5506.69032,0.02945
5504.76153,0.02937
5502.83274,0.02958
5500.90395,0.02973
5498.97516,0.03029
5497.04637,0.03155
5495.11759,0.03236
5493.18880,0.03227
5491.26001,0.03210
5489.33122,0.03210
5487.40243,0.03170
5485.47365,0.03082
5483.54486,0.03036
5481.61607,0.03036
5479.68728,0.03005
5477.75849,0.02926
5475.82970,0.02813
5473.90092,0.02819
5471.97213,0.03025
5470.04334,0.03200
5468.11455,0.03140
5466.18576,0.02980
5464.25697,0.02940
5462.32819,0.02998
5460.39940,0.03042
5458.47061,0.03104
5456.54182,0.03198
5454.61303,0.03278
5452.68425,0.03319
5450.75546,0.03298
5448.82667,0.03246
5446.89788,0.03200
5444.96909,0.03119
5443.04030,0.03042
5441.11152,0.03056
5439.18273,0.03106
5437.25394,0.03105
5435.32515,0.03059
5433.39636,0.03019
5431.46758,0.03026
5429.53879,0.03095
5427.61000,0.03180
5425.68121,0.03176
5423.75242,0.03108
5421.82363,0.03086
5419.89485,0.03089
5417.96606,0.03071
5416.03727,0.03086
5414.10848,0.03115
5412.17969,0.03099
5410.25091,0.03057
5408.32212,0.03036
5406.39333,0.03045
5404.46454,0.03028
5402.53575,0.03024
5400.60696,0.03081
5398.67818,0.03117
5396.74939,0.03081
5394.82060,0.03039
5392.89181,0.03064
5390.96302,0.03110
5389.03424,0.03118
5387.10545,0.03096
5385.17666,0.03083
5383.24787,0.03105
5381.31908,0.03145
5379.39029,0.03153
5377.46151,0.03100
5375.53272,0.03052
5373.60393,0.03154
5371.67514,0.03295
5369.74635,0.03263
5367.81756,0.03130
5365.88878,0.03089
5363.95999,0.03133
5362.03120,0.03156
5360.10241,0.03148
5358.17362,0.03154
5356.24484,0.03155
5354.31605,0.03081
5352.38726,0.02938
5350.45847,0.02859
5348.52968,0.02908
5346.60089,0.02984
5344.67211,0.03007
5342.74332,0.03066
5340.81453,0.03126
5338.88574,0.03087
5336.95695,0.03027
5335.02817,0.03030
5333.09938,0.03066
5331.17059,0.03116
5329.24180,0.03137
5327.31301,0.03090
5325.38422,0.02993
5323.45544,0.02957
5321.52665,0.02999
5319.59786,0.02991
5317.66907,0.02943
5315.74028,0.02933
5313.81150,0.02912
5311.88271,0.02905
5309.95392,0.02984
5308.02513,0.03093
5306.09634,0.03151
5304.16755,0.03124
5302.23877,0.03046
5300.30998,0.03000
5298.38119,0.03017
5296.45240,0.03038
5294.52361,0.03003
5292.59483,0.02941
5290.66604,0.02911
5288.73725,0.02950
5286.80846,0.03057
5284.87967,0.03159
5282.95088,0.03174
5281.02210,0.03101
5279.09331,0.03014
5277.16452,0.03009
5275.23573,0.03069
5273.30694,0.03110
5271.37815,0.03091
5269.44937,0.03002
5267.52058,0.02946
5265.59179,0.03016
5263.66300,0.03113
5261.73421,0.03147
5259.80543,0.03158
5257.87664,0.03175
5255.94785,0.03179
5254.01906,0.03181
5252.09027,0.03181
5250.16148,0.03119
5248.23270,0.03054
5246.30391,0.03124
5244.37512,0.03279
5242.44633,0.03372
5240.51754,0.03337
5238.58876,0.03226
5236.65997,0.03162
5234.73118,0.03147
5232.80239,0.03070
5230.87360,0.02948
5228.94481,0.02873
5227.01603,0.02859
5225.08724,0.02893
5223.15845,0.02970
5221.22966,0.03082
5219.30087,0.03186
5217.37209,0.03199
5215.44330,0.03129
5213.51451,0.03055
5211.58572,0.03003
5209.65693,0.02939
5207.72814,0.02896
5205.79936,0.02933
5203.87057,0.03026
5201.94178,0.03086
5200.01299,0.03081
5198.08420,0.03051
5196.15541,0.03060
5194.22663,0.03104
5192.29784,0.03137
5190.36905,0.03137
5188.44026,0.03102
5186.51147,0.03023
5184.58269,0.02951
5182.65390,0.02977
5180.72511,0.03054
5178.79632,0.03088
5176.86753,0.03097
5174.93874,0.03105
5173.00996,0.03107
5171.08117,0.03102
5169.15238,0.03064
5167.22359,0.03016
5165.29480,0.02989
5163.36602,0.02959
5161.43723,0.02976
5159.50844,0.03047
5157.57965,0.03090
5155.65086,0.03085
5153.72207,0.03061
5151.79329,0.03062
5149.86450,0.03093
5147.93571,0.03099
5146.00692,0.03099
5144.07813,0.03119
5142.14935,0.03104
5140.22056,0.03037
5138.29177,0.02968
5136.36298,0.02965
5134.43419,0.03033
5132.50540,0.03059
5130.57662,0.03033
5128.64783,0.03055
5126.71904,0.03089
5124.79025,0.03064
5122.86146,0.03057
5120.93268,0.03114
5119.00389,0.03128
5117.07510,0.03035
5115.14631,0.02983
5113.21752,0.03068
5111.28873,0.03124
5109.35995,0.03056
5107.43116,0.02989
5105.50237,0.02957
5103.57358,0.02908
5101.64479,0.02871
5099.71600,0.02904
5097.78722,0.02960
5095.85843,0.02961
5093.92964,0.02933
5092.00085,0.02926
5090.07206,0.02991
5088.14328,0.03157
5086.21449,0.03284
5084.28570,0.03270
5082.35691,0.03205
5080.42812,0.03165
5078.49933,0.03106
5076.57055,0.02999
5074.64176,0.02933
5072.71297,0.02966
5070.78418,0.03008
5068.85539,0.03005
5066.92661,0.03020
5064.99782,0.03113
5063.06903,0.03219
5061.14024,0.03194
5059.21145,0.03053
5057.28266,0.02974
5055.35388,0.03009
5053.42509,0.03083
5051.49630,0.03115
5049.56751,0.03055
5047.63872,0.02936
5045.70994,0.02868
5043.78115,0.02920
5041.85236,0.03021
5039.92357,0.03045
5037.99478,0.03032
5036.06599,0.03074
5034.13721,0.03136
5032.20842,0.03137
5030.27963,0.03053
5028.35084,0.02939
5026.42205,0.02912
5024.49327,0.03024
5022.56448,0.03137
5020.63569,0.03117
5018.70690,0.03030
5016.77811,0.02970
5014.84932,0.02970
5012.92054,0.03030
5010.99175,0.03077
5009.06296,0.03050
5007.13417,0.03010
5005.20538,0.03058
5003.27659,0.03173
5001.34781,0.03213
4999.41902,0.03144
4997.49023,0.03079
4995.56144,0.03077
4993.63265,0.03093
4991.70387,0.03123
4989.77508,0.03176
4987.84629,0.03178
4985.91750,0.03104
4983.98871,0.03041
4982.05992,0.03010
4980.13114,0.02986
4978.20235,0.02994
4976.27356,0.03042
4974.34477,0.03089
4972.41598,0.03094
4970.48720,0.03088
4968.55841,0.03101
4966.62962,0.03083
4964.70083,0.03015
4962.77204,0.02967
4960.84325,0.03019
4958.91447,0.03131
4956.98568,0.03182
4955.05689,0.03148
4953.12810,0.03085
4951.19931,0.03054
4949.27053,0.03092
4947.34174,0.03146
4945.41295,0.03142
4943.48416,0.03095
4941.55537,0.03078
4939.62658,0.03106
4937.69780,0.03098
4935.76901,0.03042
4933.84022,0.03050
4931.91143,0.03100
4929.98264,0.03101
4928.05385,0.03085
4926.12507,0.03060
4924.19628,0.03024
4922.26749,0.03008
4920.33870,0.02980
4918.40991,0.02963
4916.48113,0.03049
4914.55234,0.03170
4912.62355,0.03162
4910.69476,0.03073
4908.76597,0.03063
4906.83718,0.03127
4904.90840,0.03190
4902.97961,0.03204
4901.05082,0.03131
4899.12203,0.03022
4897.19324,0.02974
4895.26446,0.02990
4893.33567,0.03025
4891.40688,0.03076
4889.47809,0.03105
4887.54930,0.03097
4885.62051,0.03113
4883.69173,0.03155
4881.76294,0.03184
4879.83415,0.03178
4877.90536,0.03127
4875.97657,0.03086
4874.04779,0.03089
4872.11900,0.03092
4870.19021,0.03085
4868.26142,0.03108
4866.33263,0.03126
4864.40384,0.03073
4862.47506,0.02997
4860.54627,0.02988
4858.61748,0.03035
4856.68869,0.03072
4854.75990,0.03065
4852.83112,0.03040
4850.90233,0.03046
4848.97354,0.03082
4847.04475,0.03087
4845.11596,0.03046
4843.18717,0.03025
4841.25839,0.03052
4839.32960,0.03085
4837.40081,0.03078
4835.47202,0.03049
4833.54323,0.03067
4831.61444,0.03157
4829.68566,0.03252
4827.75687,0.03257
4825.82808,0.03176
4823.89929,0.03101
4821.97050,0.03061
4820.04172,0.03047
4818.11293,0.03072
4816.18414,0.03135
4814.25535,0.03205
4812.32656,0.03239
4810.39777,0.03238
4808.46899,0.03209
4806.54020,0.03162
4804.61141,0.03143
4802.68262,0.03148
4800.75383,0.03140
4798.82505,0.03144
4796.89626,0.03159
4794.96747,0.03123
4793.03868,0.03041
4791.10989,0.03000
4789.18110,0.03020
4787.25232,0.03070
4785.32353,0.03120
4783.39474,0.03109
4781.46595,0.03053
4779.53716,0.03033
4777.60838,0.03042
4775.67959,0.03035
4773.75080,0.03019
4771.82201,0.03002
4769.89322,0.02981
4767.96443,0.02974
4766.03565,0.02985
4764.10686,0.02978
4762.17807,0.02948
4760.24928,0.02966
4758.32049,0.03045
4756.39170,0.03096
4754.46292,0.03074
4752.53413,0.03038
4750.60534,0.03052
4748.67655,0.03106
4746.74776,0.03148
4744.81898,0.03168
4742.89019,0.03168
4740.96140,0.03133
4739.03261,0.03103
4737.10382,0.03105
4735.17503,0.03102
4733.24625,0.03058
4731.31746,0.03007
4729.38867,0.03018
4727.45988,0.03053
4725.53109,0.03055
4723.60231,0.03080
4721.67352,0.03126
4719.74473,0.03118
4717.81594,0.03064
4715.88715,0.03037
4713.95836,0.03073
4712.02958,0.03116
4710.10079,0.03113
4708.17200,0.03091
4706.24321,0.03071
4704.31442,0.03054
4702.38564,0.03067
4700.45685,0.03111
4698.52806,0.03171
4696.59927,0.03252
4694.67048,0.03295
4692.74169,0.03226
4690.81291,0.03131
4688.88412,0.03108
4686.95533,0.03108
4685.02654,0.03089
4683.09775,0.03070
4681.16897,0.03039
4679.24018,0.03002
4677.31139,0.03018
4675.38260,0.03085
4673.45381,0.03114
4671.52502,0.03075
4669.59624,0.03057
4667.66745,0.03115
4665.73866,0.03171
4663.80987,0.03157
4661.88108,0.03136
4659.95229,0.03181
4658.02351,0.03226
4656.09472,0.03200
4654.16593,0.03151
4652.23714,0.03132
4650.30835,0.03090
4648.37957,0.03012
4646.45078,0.03019
4644.52199,0.03108
4642.59320,0.03136
4640.66441,0.03104
4638.73562,0.03089
4636.80684,0.03079
4634.87805,0.03056
4632.94926,0.03043
4631.02047,0.03060
4629.09168,0.03080
4627.16290,0.03059
4625.23411,0.03020
4623.30532,0.03032
4621.37653,0.03070
4619.44774,0.03086
4617.51895,0.03090
4615.59017,0.03081
4613.66138,0.03044
4611.73259,0.03007
4609.80380,0.03002
4607.87501,0.03010
4605.94623,0.03007
4604.01744,0.02997
4602.08865,0.03005
4600.15986,0.03055
4598.23107,0.03118
4596.30228,0.03107
4594.37350,0.03026
4592.44471,0.02967
4590.51592,0.02967
4588.58713,0.02999
4586.65834,0.03049
4584.72956,0.03098
4582.80077,0.03144
4580.87198,0.03193
4578.94319,0.03193
4577.01440,0.03129
4575.08561,0.03078
4573.15683,0.03059
4571.22804,0.03042
4569.29925,0.03043
4567.37046,0.03073
4565.44167,0.03110
4563.51288,0.03126
4561.58410,0.03095
4559.65531,0.03032
4557.72652,0.02978
4555.79773,0.02954
4553.86894,0.02972
4551.94016,0.03017
4550.01137,0.03047
4548.08258,0.03077
4546.15379,0.03114
4544.22500,0.03141
4542.29621,0.03155
4540.36743,0.03119
4538.43864,0.03061
4536.50985,0.03086
4534.58106,0.03168
4532.65227,0.03177
4530.72349,0.03101
4528.79470,0.03029
4526.86591,0.03024
4524.93712,0.03075
4523.00833,0.03112
4521.07954,0.03127
4519.15076,0.03152
4517.22197,0.03144
4515.29318,0.03090
4513.36439,0.03049
4511.43560,0.03054
4509.50682,0.03087
4507.57803,0.03098
4505.64924,0.03066
4503.72045,0.03042
4501.79166,0.03090
4499.86287,0.03155
4497.93409,0.03117
4496.00530,0.03005
4494.07651,0.02957
4492.14772,0.02986
4490.21893,0.03015
4488.29014,0.03033
4486.36136,0.03047
4484.43257,0.03071
4482.50378,0.03111
4480.57499,0.03118
4478.64620,0.03079
4476.71742,0.03064
4474.78863,0.03100
4472.85984,0.03121
4470.93105,0.03090
4469.00226,0.03062
4467.07347,0.03072
4465.14469,0.03096
4463.21590,0.03105
4461.28711,0.03082
4459.35832,0.03044
4457.42953,0.03014
4455.50075,0.02991
4453.57196,0.02982
4451.64317,0.03015
4449.71438,0.03069
4447.78559,0.03092
4445.85680,0.03087
4443.92802,0.03084
4441.99923,0.03110
4440.07044,0.03156
4438.14165,0.03143
4436.21286,0.03061
4434.28408,0.03010
4432.35529,0.03024
4430.42650,0.03026
4428.49771,0.03008
4426.56892,0.03028
4424.64013,0.03075
4422.71135,0.03101
4420.78256,0.03096
4418.85377,0.03076
4416.92498,0.03063
4414.99619,0.03069
4413.06741,0.03085
4411.13862,0.03079
4409.20983,0.03032
4407.28104,0.02998
4405.35225,0.03009
4403.42346,0.03023
4401.49468,0.03039
4399.56589,0.03085
4397.63710,0.03114
4395.70831,0.03084
4393.77952,0.03048
4391.85073,0.03058
4389.92195,0.03086
4387.99316,0.03084
4386.06437,0.03056
4384.13558,0.03028
4382.20679,0.03016
4380.27801,0.03026
4378.34922,0.03054
4376.42043,0.03091
4374.49164,0.03116
4372.56285,0.03104
4370.63406,0.03071
4368.70528,0.03052
4366.77649,0.03048
4364.84770,0.03045
4362.91891,0.03039
4360.99012,0.03028
4359.06134,0.03027
4357.13255,0.03030
4355.20376,0.03034
4353.27497,0.03045
4351.34618,0.03054
4349.41739,0.03058
4347.48861,0.03048
4345.55982,0.03021
4343.63103,0.03012
4341.70224,0.03043
4339.77345,0.03099
4337.84467,0.03129
4335.91588,0.03089
4333.98709,0.03026
4332.05830,0.02998
4330.12951,0.02994
4328.20072,0.03001
4326.27194,0.03035
4324.34315,0.03073
4322.41436,0.03066
4320.48557,0.03036
4318.55678,0.03047
4316.62800,0.03100
4314.69921,0.03148
4312.77042,0.03174
4310.84163,0.03179
4308.91284,0.03146
4306.98405,0.03085
4305.05527,0.03051
4303.12648,0.03077
4301.19769,0.03099
4299.26890,0.03052
4297.34011,0.03001
4295.41132,0.03012
4293.48254,0.03030
4291.55375,0.03013
4289.62496,0.02994
4287.69617,0.03019
4285.76738,0.03094
4283.83860,0.03144
4281.90981,0.03130
4279.98102,0.03114
4278.05223,0.03105
4276.12344,0.03070
4274.19465,0.03017
4272.26587,0.02963
4270.33708,0.02959
4268.40829,0.03038
4266.47950,0.03112
4264.55071,0.03097
4262.62193,0.03060
4260.69314,0.03061
4258.76435,0.03057
4256.83556,0.03022
4254.90677,0.03006
4252.97798,0.03013
4251.04920,0.02993
4249.12041,0.02986
4247.19162,0.03042
4245.26283,0.03089
4243.33404,0.03087
4241.40526,0.03079
4239.47647,0.03074
4237.54768,0.03066
4235.61889,0.03065
4233.69010,0.03054
4231.76131,0.03034
4229.83253,0.03026
4227.90374,0.03023
4225.97495,0.03011
4224.04616,0.03009
4222.11737,0.03011
4220.18858,0.02998
4218.25980,0.02978
4216.33101,0.02959
4214.40222,0.02957
4212.47343,0.03002
4210.54464,0.03075
4208.61586,0.03119
4206.68707,0.03122
4204.75828,0.03114
4202.82949,0.03100
4200.90070,0.03061
4198.97191,0.03015
4197.04313,0.03025
4195.11434,0.03089
4193.18555,0.03127
4191.25676,0.03110
4189.32797,0.03082
4187.39919,0.03067
4185.47040,0.03072
4183.54161,0.03091
4181.61282,0.03094
4179.68403,0.03077
4177.75524,0.03067
4175.82646,0.03050
4173.89767,0.03013
4171.96888,0.03005
4170.04009,0.03037
4168.11130,0.03049
4166.18252,0.03040
4164.25373,0.03057
4162.32494,0.03092
4160.39615,0.03107
4158.46736,0.03116
4156.53857,0.03125
4154.60979,0.03113
4152.68100,0.03069
4150.75221,0.03006
4148.82342,0.02964
4146.89463,0.02978
4144.96585,0.03024
4143.03706,0.03053
4141.10827,0.03060
4139.17948,0.03028
4137.25069,0.02957
4135.32190,0.02939
4133.39312,0.02996
4131.46433,0.03043
4129.53554,0.03043
4127.60675,0.03018
4125.67796,0.03029
4123.74917,0.03066
4121.82039,0.03052
4119.89160,0.03033
4117.96281,0.03071
4116.03402,0.03090
4114.10523,0.03064
4112.17645,0.03046
4110.24766,0.03043
4108.31887,0.03048
4106.39008,0.03040
4104.46129,0.03003
4102.53250,0.02981
4100.60372,0.03015
4098.67493,0.03082
4096.74614,0.03128
4094.81735,0.03114
4092.88856,0.03058
4090.95978,0.03010
4089.03099,0.02993
4087.10220,0.03012
4085.17341,0.03058
4083.24462,0.03081
4081.31583,0.03069
4079.38705,0.03078
4077.45826,0.03119
4075.52947,0.03142
4073.60068,0.03118
4071.67189,0.03066
4069.74311,0.03037
4067.81432,0.03048
4065.88553,0.03062
4063.95674,0.03058
4062.02795,0.03067
4060.09916,0.03083
4058.17038,0.03059
4056.24159,0.03022
4054.31280,0.03033
4052.38401,0.03079
4050.45522,0.03102
4048.52644,0.03095
4046.59765,0.03096
4044.66886,0.03116
4042.74007,0.03115
4040.81128,0.03069
4038.88249,0.03017
4036.95371,0.03012
4035.02492,0.03040
4033.09613,0.03079
4031.16734,0.03116
4029.23855,0.03118
4027.30976,0.03086
4025.38098,0.03039
4023.45219,0.03008
4021.52340,0.03024
4019.59461,0.03043
4017.66582,0.03031
4015.73704,0.03033
4013.80825,0.03055
4011.87946,0.03073
4009.95067,0.03097
4008.02188,0.03112
4006.09309,0.03088
4004.16431,0.03055
4002.23552,0.03068
4000.30673,0.03111
3998.37794,0.03113
3996.44915,0.03079
3994.52037,0.03076
3992.59158,0.03089
3990.66279,0.03070
3988.73400,0.03015
3986.80521,0.02971
3984.87642,0.02993
3982.94764,0.03053
3981.01885,0.03076
3979.09006,0.03061
3977.16127,0.03053
3975.23248,0.03074
3973.30370,0.03095
3971.37491,0.03071
3969.44612,0.03031
3967.51733,0.03027
3965.58854,0.03035
3963.65975,0.03022
3961.73097,0.03016
3959.80218,0.03033
3957.87339,0.03040
3955.94460,0.03034
3954.01581,0.03047
3952.08702,0.03065
3950.15824,0.03053
3948.22945,0.03030
3946.30066,0.03038
3944.37187,0.03066
3942.44308,0.03058
3940.51430,0.03010
3938.58551,0.02976
3936.65672,0.02979
3934.72793,0.03018
3932.79914,0.03075
3930.87035,0.03105
3928.94157,0.03106
3927.01278,0.03106
3925.08399,0.03073
3923.15520,0.03002
3921.22641,0.02965
3919.29763,0.02972
3917.36884,0.02980
3915.44005,0.02987
3913.51126,0.03001
3911.58247,0.03013
3909.65368,0.03037
3907.72490,0.03072
3905.79611,0.03094
3903.86732,0.03083
3901.93853,0.03040
3900.00974,0.03002
3898.08096,0.02997
3896.15217,0.03013
3894.22338,0.03025
3892.29459,0.03019
3890.36580,0.03023
3888.43701,0.03050
3886.50823,0.03065
3884.57944,0.03061
3882.65065,0.03038
3880.72186,0.02994
3878.79307,0.02987
3876.86429,0.03030
3874.93550,0.03064
3873.00671,0.03069
3871.07792,0.03063
3869.14913,0.03075
3867.22034,0.03103
3865.29156,0.03110
3863.36277,0.03087
3861.43398,0.03066
3859.50519,0.03056
3857.57640,0.03053
3855.64761,0.03028
3853.71883,0.02936
3851.79004,0.02922
3849.86125,0.03010
3847.93246,0.03081
3846.00367,0.03119
3844.07489,0.03140
3842.14610,0.03141
3840.21731,0.03098
3838.28852,0.03036
3836.35973,0.03025
3834.43094,0.03061
3832.50216,0.03109
3830.57337,0.03141
3828.64458,0.03126
3826.71579,0.03086
3824.78700,0.03065
3822.85822,0.03062
3820.92943,0.03054
3819.00064,0.03049
3817.07185,0.03032
3815.14306,0.03015
3813.21427,0.03030
3811.28549,0.03052
3809.35670,0.03055
3807.42791,0.03043
3805.49912,0.03046
3803.57033,0.03045
3801.64155,0.03004
3799.71276,0.02979
3797.78397,0.02999
3795.85518,0.03014
3793.92639,0.03018
3791.99760,0.03031
3790.06882,0.03038
3788.14003,0.03018
3786.21124,0.02993
3784.28245,0.03016
3782.35366,0.03087
3780.42488,0.03131
3778.49609,0.03100
3776.56730,0.03035
3774.63851,0.02999
3772.70972,0.03019
3770.78093,0.03052
3768.85215,0.03027
3766.92336,0.02983
3764.99457,0.02989
3763.06578,0.03039
3761.13699,0.03076
3759.20820,0.03050
3757.27942,0.03013
3755.35063,0.03032
3753.42184,0.03076
3751.49305,0.03109
3749.56426,0.03125
3747.63548,0.03111
3745.70669,0.03047
3743.77790,0.02976
3741.84911,0.02989
3739.92032,0.03050
3737.99153,0.03097
3736.06275,0.03080
3734.13396,0.03025
3732.20517,0.03009
3730.27638,0.02998
3728.34759,0.02964
3726.41881,0.02922
3724.49002,0.02923
3722.56123,0.02988
3720.63244,0.03055
3718.70365,0.03074
3716.77486,0.03077
3714.84608,0.03076
3712.91729,0.03025
3710.98850,0.02947
3709.05971,0.02938
3707.13092,0.02993
3705.20214,0.03059
3703.27335,0.03079
3701.34456,0.03031
3699.41577,0.02963
3697.48698,0.02938
3695.55819,0.02980
3693.62941,0.03044
3691.70062,0.03065
3689.77183,0.02993
3687.84304,0.02890
3685.91425,0.02905
3683.98546,0.02993
3682.05668,0.03046
3680.12789,0.03047
3678.19910,0.03049
3676.27031,0.03063
3674.34152,0.03094
3672.41274,0.03121
3670.48395,0.03065
3668.55516,0.02960
3666.62637,0.02921
3664.69758,0.02916
3662.76879,0.02914
3660.84001,0.02927
3658.91122,0.02938
3656.98243,0.02914
3655.05364,0.02901
3653.12485,0.02927
3651.19607,0.02956
3649.26728,0.02968
3647.33849,0.02936
3645.40970,0.02907
3643.48091,0.02907
3641.55212,0.02884
3639.62334,0.02847
3637.69455,0.02873
3635.76576,0.02932
3633.83697,0.02935
3631.90818,0.02902
3629.97940,0.02868
3628.05061,0.02828
3626.12182,0.02821
3624.19303,0.02820
3622.26424,0.02809
3620.33545,0.02826
3618.40667,0.02883
3616.47788,0.02943
3614.54909,0.02962
3612.62030,0.02949
3610.69151,0.02951
3608.76273,0.02923
3606.83394,0.02856
3604.90515,0.02831
3602.97636,0.02839
3601.04757,0.02836
3599.11878,0.02846
3597.19000,0.02861
3595.26121,0.02841
3593.33242,0.02810
3591.40363,0.02806
3589.47484,0.02813
3587.54605,0.02793
3585.61727,0.02759
3583.68848,0.02762
3581.75969,0.02759
3579.83090,0.02730
3577.90211,0.02714
3575.97333,0.02724
3574.04454,0.02739
3572.11575,0.02751
3570.18696,0.02771
3568.25817,0.02796
3566.32938,0.02809
3564.40060,0.02806
3562.47181,0.02791
3560.54302,0.02785
3558.61423,0.02814
3556.68544,0.02832
3554.75666,0.02802
3552.82787,0.02760
3550.89908,0.02740
3548.97029,0.02739
3547.04150,0.02758
3545.11271,0.02791
3543.18393,0.02803
3541.25514,0.02791
3539.32635,0.02777
3537.39756,0.02779
3535.46877,0.02795
3533.53999,0.02790
3531.61120,0.02745
3529.68241,0.02705
3527.75362,0.02723
3525.82483,0.02747
3523.89604,0.02700
3521.96726,0.02636
3520.03847,0.02647
3518.10968,0.02718
3516.18089,0.02777
3514.25210,0.02781
3512.32332,0.02721
3510.39453,0.02657
3508.46574,0.02672
3506.53695,0.02731
3504.60816,0.02750
3502.67937,0.02721
3500.75059,0.02697
3498.82180,0.02723
3496.89301,0.02773
3494.96422,0.02780
3493.03543,0.02736
3491.10664,0.02682
3489.17786,0.02653
3487.24907,0.02672
3485.32028,0.02707
3483.39149,0.02695
3481.46270,0.02659
3479.53392,0.02652
3477.60513,0.02665
3475.67634,0.02683
3473.74755,0.02700
3471.81876,0.02709
3469.88997,0.02737
3467.96119,0.02770
3466.03240,0.02761
3464.10361,0.02709
3462.17482,0.02650
3460.24603,0.02621
3458.31725,0.02629
3456.38846,0.02667
3454.45967,0.02718
3452.53088,0.02739
3450.60209,0.02713
3448.67330,0.02674
3446.74452,0.02651
3444.81573,0.02648
3442.88694,0.02648
3440.95815,0.02653
3439.02936,0.02664
3437.10058,0.02645
3435.17179,0.02603
3433.24300,0.02597
3431.31421,0.02627
3429.38542,0.02653
3427.45663,0.02677
3425.52785,0.02688
3423.59906,0.02676
3421.67027,0.02672
3419.74148,0.02679
3417.81269,0.02693
3415.88390,0.02718
3413.95512,0.02702
3412.02633,0.02654
3410.09754,0.02658
3408.16875,0.02689
3406.23996,0.02680
3404.31118,0.02654
3402.38239,0.02633
3400.45360,0.02618
3398.52481,0.02618
3396.59602,0.02635
3394.66723,0.02663
3392.73845,0.02677
3390.80966,0.02664
3388.88087,0.02652
3386.95208,0.02662
3385.02329,0.02676
3383.09451,0.02691
3381.16572,0.02703
3379.23693,0.02699
3377.30814,0.02695
3375.37935,0.02691
3373.45056,0.02661
3371.52178,0.02639
3369.59299,0.02664
3367.66420,0.02694
3365.73541,0.02666
3363.80662,0.02603
3361.87784,0.02581
3359.94905,0.02613
3358.02026,0.02658
3356.09147,0.02689
3354.16268,0.02690
3352.23389,0.02675
3350.30511,0.02666
3348.37632,0.02657
3346.44753,0.02639
3344.51874,0.02621
3342.58995,0.02623
3340.66117,0.02654
3338.73238,0.02686
3336.80359,0.02681
3334.87480,0.02665
3332.94601,0.02676
3331.01722,0.02691
3329.08844,0.02687
3327.15965,0.02690
3325.23086,0.02698
3323.30207,0.02686
3321.37328,0.02651
3319.44449,0.02615
3317.51571,0.02599
3315.58692,0.02597
3313.65813,0.02604
3311.72934,0.02628
3309.80055,0.02647
3307.87177,0.02639
3305.94298,0.02634
3304.01419,0.02643
3302.08540,0.02651
3300.15661,0.02654
3298.22782,0.02657
3296.29904,0.02665
3294.37025,0.02681
3292.44146,0.02703
3290.51267,0.02723
3288.58388,0.02732
3286.65510,0.02729
3284.72631,0.02699
3282.79752,0.02659
3280.86873,0.02651
3278.93994,0.02686
3277.01115,0.02715
3275.08237,0.02687
3273.15358,0.02656
3271.22479,0.02680
3269.29600,0.02711
3267.36721,0.02715
3265.43843,0.02707
3263.50964,0.02690
3261.58085,0.02663
3259.65206,0.02656
3257.72327,0.02687
3255.79448,0.02716
3253.86570,0.02701
3251.93691,0.02666
3250.00812,0.02646
3248.07933,0.02659
3246.15054,0.02702
3244.22175,0.02733
3242.29297,0.02747
3240.36418,0.02763
3238.43539,0.02741
3236.50660,0.02704
3234.57781,0.02713
3232.64903,0.02737
3230.72024,0.02724
3228.79145,0.02706
3226.86266,0.02707
3224.93387,0.02710
3223.00508,0.02704
3221.07630,0.02688
3219.14751,0.02687
3217.21872,0.02717
3215.28993,0.02755
3213.36114,0.02782
3211.43236,0.02771
3209.50357,0.02718
3207.57478,0.02679
3205.64599,0.02695
3203.71720,0.02713
3201.78841,0.02686
3199.85963,0.02675
3197.93084,0.02718
3196.00205,0.02738
3194.07326,0.02693
3192.14447,0.02648
3190.21569,0.02642
3188.28690,0.02653
3186.35811,0.02671
3184.42932,0.02683
3182.50053,0.02667
3180.57174,0.02660
3178.64296,0.02702
3176.71417,0.02749
3174.78538,0.02749
3172.85659,0.02725
3170.92780,0.02728
3168.99902,0.02750
3167.07023,0.02739
3165.14144,0.02701
3163.21265,0.02688
3161.28386,0.02728
3159.35507,0.02790
3157.42629,0.02808
3155.49750,0.02771
3153.56871,0.02729
3151.63992,0.02704
3149.71113,0.02683
3147.78234,0.02674
3145.85356,0.02691
3143.92477,0.02709
3141.99598,0.02698
3140.06719,0.02673
3138.13840,0.02668
3136.20962,0.02708
3134.28083,0.02762
3132.35204,0.02777
3130.42325,0.02762
3128.49446,0.02755
3126.56567,0.02759
3124.63689,0.02772
3122.70810,0.02776
3120.77931,0.02766
3118.85052,0.02756
3116.92173,0.02749
3114.99295,0.02759
3113.06416,0.02776
3111.13537,0.02774
3109.20658,0.02761
3107.27779,0.02754
3105.34900,0.02753
3103.42022,0.02727
3101.49143,0.02691
3099.56264,0.02688
3097.63385,0.02694
3095.70506,0.02701
3093.77628,0.02739
3091.84749,0.02779
3089.91870,0.02777
3087.98991,0.02754
3086.06112,0.02745
3084.13233,0.02744
3082.20355,0.02734
3080.27476,0.02722
3078.34597,0.02732
3076.41718,0.02759
3074.48839,0.02772
3072.55961,0.02759
3070.63082,0.02738
3068.70203,0.02704
3066.77324,0.02640
3064.84445,0.02588
3062.91566,0.02607
3060.98688,0.02682
3059.05809,0.02746
3057.12930,0.02762
3055.20051,0.02751
3053.27172,0.02742
3051.34293,0.02731
3049.41415,0.02720
3047.48536,0.02715
3045.55657,0.02726
3043.62778,0.02761
3041.69899,0.02792
3039.77021,0.02784
3037.84142,0.02753
3035.91263,0.02726
3033.98384,0.02709
3032.05505,0.02695
3030.12626,0.02693
3028.19748,0.02723
3026.26869,0.02754
3024.33990,0.02738
3022.41111,0.02704
3020.48232,0.02695
3018.55354,0.02705
3016.62475,0.02709
3014.69596,0.02709
3012.76717,0.02712
3010.83838,0.02713
3008.90959,0.02713
3006.98081,0.02719
3005.05202,0.02732
3003.12323,0.02741
3001.19444,0.02739
2999.26565,0.02739
2997.33687,0.02742
2995.40808,0.02733
2993.47929,0.02715
2991.55050,0.02692
2989.62171,0.02677
2987.69292,0.02680
2985.76414,0.02677
2983.83535,0.02662
2981.90656,0.02656
2979.97777,0.02651
2978.04898,0.02632
2976.12019,0.02626
2974.19141,0.02626
2972.26262,0.02606
2970.33383,0.02601
2968.40504,0.02620
2966.47625,0.02625
2964.54747,0.02624
2962.61868,0.02623
2960.68989,0.02614
2958.76110,0.02608
2956.83231,0.02611
2954.90352,0.02618
2952.97474,0.02622
2951.04595,0.02610
2949.11716,0.02590
2947.18837,0.02584
2945.25958,0.02585
2943.33080,0.02590
2941.40201,0.02603
2939.47322,0.02615
2937.54443,0.02603
2935.61564,0.02563
2933.68685,0.02539
2931.75807,0.02564
2929.82928,0.02613
2927.90049,0.02634
2925.97170,0.02627
2924.04291,0.02625
2922.11413,0.02638
2920.18534,0.02655
2918.25655,0.02662
2916.32776,0.02652
2914.39897,0.02643
2912.47018,0.02641
2910.54140,0.02643
2908.61261,0.02662
2906.68382,0.02688
2904.75503,0.02698
2902.82624,0.02704
2900.89746,0.02722
2898.96867,0.02724
2897.03988,0.02692
2895.11109,0.02667
2893.18230,0.02672
2891.25351,0.02683
2889.32473,0.02681
2887.39594,0.02688
2885.46715,0.02713
2883.53836,0.02718
2881.60957,0.02699
2879.68078,0.02683
2877.75200,0.02681
2875.82321,0.02672
2873.89442,0.02662
2871.96563,0.02671
2870.03684,0.02683
2868.10806,0.02685
2866.17927,0.02685
2864.25048,0.02681
2862.32169,0.02678
2860.39290,0.02685
2858.46411,0.02692
2856.53533,0.02690
2854.60654,0.02697
2852.67775,0.02722
2850.74896,0.02745
2848.82017,0.02737
2846.89139,0.02703
2844.96260,0.02684
2843.03381,0.02697
2841.10502,0.02734
2839.17623,0.02760
2837.24744,0.02750
2835.31866,0.02734
2833.38987,0.02740
2831.46108,0.02746
2829.53229,0.02749
2827.60350,0.02761
2825.67472,0.02778
2823.74593,0.02788
2821.81714,0.02798
2819.88835,0.02817
2817.95956,0.02820
2816.03077,0.02798
2814.10199,0.02785
2812.17320,0.02792
2810.24441,0.02792
2808.31562,0.02777
2806.38683,0.02762
2804.45805,0.02760
2802.52926,0.02773
2800.60047,0.02790
2798.67168,0.02798
2796.74289,0.02794
2794.81410,0.02780
2792.88532,0.02765
2790.95653,0.02757
2789.02774,0.02752
2787.09895,0.02752
2785.17016,0.02755
2783.24137,0.02770
2781.31259,0.02806
2779.38380,0.02830
2777.45501,0.02819
2775.52622,0.02785
2773.59743,0.02760
2771.66865,0.02759
2769.73986,0.02765
2767.81107,0.02766
2765.88228,0.02773
2763.95349,0.02786
2762.02470,0.02789
2760.09592,0.02774
2758.16713,0.02753
2756.23834,0.02742
2754.30955,0.02748
2752.38076,0.02764
2750.45198,0.02780
2748.52319,0.02796
2746.59440,0.02801
2744.66561,0.02781
2742.73682,0.02764
2740.80803,0.02769
2738.87925,0.02759
2736.95046,0.02730
2735.02167,0.02731
2733.09288,0.02758
2731.16409,0.02777
2729.23531,0.02785
2727.30652,0.02785
2725.37773,0.02780
2723.44894,0.02776
2721.52015,0.02770
2719.59136,0.02756
2717.66258,0.02749
2715.73379,0.02761
2713.80500,0.02772
2711.87621,0.02766
2709.94742,0.02758
2708.01863,0.02758
2706.08985,0.02755
2704.16106,0.02750
2702.23227,0.02752
2700.30348,0.02763
2698.37469,0.02774
2696.44591,0.02764
2694.51712,0.02740
2692.58833,0.02729
2690.65954,0.02740
2688.73075,0.02753
2686.80196,0.02757
2684.87318,0.02759
2682.94439,0.02761
2681.01560,0.02761
2679.08681,0.02767
2677.15802,0.02767
2675.22924,0.02755
2673.30045,0.02754
2671.37166,0.02767
2669.44287,0.02768
2667.51408,0.02751
2665.58529,0.02752
2663.65651,0.02780
2661.72772,0.02793
2659.79893,0.02785
2657.87014,0.02779
2655.94135,0.02768
2654.01257,0.02760
2652.08378,0.02777
2650.15499,0.02804
2648.22620,0.02813
2646.29741,0.02792
2644.36862,0.02757
2642.43984,0.02741
2640.51105,0.02750
2638.58226,0.02755
2636.65347,0.02757
2634.72468,0.02756
2632.79590,0.02751
2630.86711,0.02764
2628.93832,0.02789
2627.00953,0.02800
2625.08074,0.02792
2623.15195,0.02772
2621.22317,0.02759
2619.29438,0.02764
2617.36559,0.02775
2615.43680,0.02780
2613.50801,0.02769
2611.57922,0.02748
2609.65044,0.02739
2607.72165,0.02739
2605.79286,0.02735
2603.86407,0.02738
2601.93528,0.02751
2600.00650,0.02758
2598.07771,0.02755
2596.14892,0.02749
2594.22013,0.02748
2592.29134,0.02757
2590.36255,0.02770
2588.43377,0.02777
2586.50498,0.02773
2584.57619,0.02770
2582.64740,0.02775
2580.71861,0.02781
2578.78983,0.02786
2576.86104,0.02789
2574.93225,0.02776
2573.00346,0.02751
2571.07467,0.02737
2569.14588,0.02738
2567.21710,0.02739
2565.28831,0.02737
2563.35952,0.02747
2561.43073,0.02761
2559.50194,0.02761
2557.57316,0.02748
2555.64437,0.02741
2553.71558,0.02740
2551.78679,0.02726
2549.85800,0.02713
2547.92921,0.02723
2546.00043,0.02738
2544.07164,0.02736
2542.14285,0.02725
2540.21406,0.02723
2538.28527,0.02733
2536.35649,0.02745
2534.42770,0.02744
2532.49891,0.02731
2530.57012,0.02720
2528.64133,0.02721
2526.71254,0.02734
2524.78376,0.02744
2522.85497,0.02746
2520.92618,0.02745
2518.99739,0.02739
2517.06860,0.02738
2515.13981,0.02747
2513.21103,0.02745
2511.28224,0.02728
2509.35345,0.02719
2507.42466,0.02720
2505.49587,0.02722
2503.56709,0.02728
2501.63830,0.02738
2499.70951,0.02741
2497.78072,0.02737
2495.85193,0.02732
2493.92314,0.02735
2491.99436,0.02744
2490.06557,0.02747
2488.13678,0.02744
2486.20799,0.02747
2484.27920,0.02751
2482.35042,0.02746
2480.42163,0.02741
2478.49284,0.02739
2476.56405,0.02730
2474.63526,0.02718
2472.70647,0.02707
2470.77769,0.02709
2468.84890,0.02731
2466.92011,0.02744
2464.99132,0.02736
2463.06253,0.02735
2461.13375,0.02743
2459.20496,0.02744
2457.27617,0.02736
2455.34738,0.02720
2453.41859,0.02716
2451.48980,0.02717
2449.56102,0.02709
2447.63223,0.02712
2445.70344,0.02723
2443.77465,0.02724
2441.84586,0.02728
2439.91707,0.02735
2437.98829,0.02736
2436.05950,0.02740
2434.13071,0.02742
2432.20192,0.02738
2430.27313,0.02725
2428.34435,0.02710
2426.41556,0.02708
2424.48677,0.02721
2422.55798,0.02737
2420.62919,0.02744
2418.70040,0.02741
2416.77162,0.02746
2414.84283,0.02761
2412.91404,0.02768
2410.98525,0.02760
2409.05646,0.02739
2407.12768,0.02713
2405.19889,0.02699
2403.27010,0.02704
2401.34131,0.02718
2399.41252,0.02729
2397.48373,0.02729
2395.55495,0.02714
2393.62616,0.02698
2391.69737,0.02705
2389.76858,0.02717
2387.83979,0.02704
2385.91101,0.02691
2383.98222,0.02702
2382.05343,0.02718
2380.12464,0.02732
2378.19585,0.02744
2376.26706,0.02746
2374.33828,0.02752
2372.40949,0.02768
2370.48070,0.02777
2368.55191,0.02770
2366.62312,0.02747
2364.69434,0.02724
2362.76555,0.02705
2360.83676,0.02685
2358.90797,0.02699
2356.97918,0.02756
2355.05039,0.02799
2353.12161,0.02780
2351.19282,0.02732
2349.26403,0.02721
2347.33524,0.02753
2345.40645,0.02790
2343.47766,0.02794
2341.54888,0.02774
2339.62009,0.02747
2337.69130,0.02718
2335.76251,0.02698
2333.83372,0.02701
2331.90494,0.02710
2329.97615,0.02719
2328.04736,0.02736
2326.11857,0.02759
2324.18978,0.02747
2322.26099,0.02699
2320.33221,0.02678
2318.40342,0.02716
2316.47463,0.02766
2314.54584,0.02777
2312.61705,0.02745
2310.68827,0.02698
2308.75948,0.02675
2306.83069,0.02684
2304.90190,0.02698
2302.97311,0.02698
2301.04432,0.02690
2299.11554,0.02683
2297.18675,0.02688
2295.25796,0.02706
2293.32917,0.02722
2291.40038,0.02719
2289.47160,0.02696
2287.54281,0.02682
2285.61402,0.02700
2283.68523,0.02721
2281.75644,0.02723
2279.82765,0.02713
2277.89887,0.02696
2275.97008,0.02678
2274.04129,0.02668
2272.11250,0.02665
2270.18371,0.02668
2268.25493,0.02676
2266.32614,0.02685
2264.39735,0.02691
2262.46856,0.02687
2260.53977,0.02682
2258.61098,0.02684
2256.68220,0.02679
2254.75341,0.02662
2252.82462,0.02658
2250.89583,0.02672
2248.96704,0.02682
2247.03825,0.02689
2245.10947,0.02703
2243.18068,0.02713
2241.25189,0.02714
2239.32310,0.02709
2237.39431,0.02704
2235.46553,0.02699
2233.53674,0.02698
2231.60795,0.02702
2229.67916,0.02701
2227.75037,0.02691
2225.82158,0.02688
2223.89280,0.02699
2221.96401,0.02708
2220.03522,0.02709
2218.10643,0.02708
2216.17764,0.02699
2214.24886,0.02677
2212.32007,0.02664
2210.39128,0.02664
2208.46249,0.02666
2206.53370,0.02667
2204.60491,0.02669
2202.67613,0.02671
2200.74734,0.02671
2198.81855,0.02671
2196.88976,0.02669
2194.96097,0.02664
2193.03219,0.02662
2191.10340,0.02659
2189.17461,0.02648
2187.24582,0.02636
2185.31703,0.02633
2183.38824,0.02635
2181.45946,0.02635
2179.53067,0.02649
2177.60188,0.02666
2175.67309,0.02670
2173.74430,0.02661
2171.81551,0.02647
2169.88673,0.02642
2167.95794,0.02653
2166.02915,0.02666
2164.10036,0.02671
2162.17157,0.02669
2160.24279,0.02666
2158.31400,0.02663
2156.38521,0.02657
2154.45642,0.02654
2152.52763,0.02663
2150.59884,0.02681
2148.67006,0.02697
2146.74127,0.02695
2144.81248,0.02667
2142.88369,0.02637
2140.95490,0.02636
2139.02612,0.02656
2137.09733,0.02668
2135.16854,0.02671
2133.23975,0.02669
2131.31096,0.02659
2129.38217,0.02653
2127.45339,0.02655
2125.52460,0.02653
2123.59581,0.02646
2121.66702,0.02642
2119.73823,0.02643
2117.80945,0.02646
2115.88066,0.02644
2113.95187,0.02631
2112.02308,0.02615
2110.09429,0.02612
2108.16550,0.02628
2106.23672,0.02644
2104.30793,0.02649
2102.37914,0.02647
2100.45035,0.02638
2098.52156,0.02630
2096.59278,0.02636
2094.66399,0.02653
2092.73520,0.02659
2090.80641,0.02636
2088.87762,0.02609
2086.94883,0.02608
2085.02005,0.02618
2083.09126,0.02616
2081.16247,0.02617
2079.23368,0.02641
2077.30489,0.02662
2075.37610,0.02662
2073.44732,0.02651
2071.51853,0.02647
2069.58974,0.02653
2067.66095,0.02654
2065.73216,0.02643
2063.80338,0.02641
2061.87459,0.02660
2059.94580,0.02675
2058.01701,0.02665
2056.08822,0.02648
2054.15943,0.02636
2052.23065,0.02643
2050.30186,0.02669
2048.37307,0.02675
2046.44428,0.02650
2044.51549,0.02625
2042.58671,0.02612
2040.65792,0.02606
2038.72913,0.02617
2036.80034,0.02644
2034.87155,0.02657
2032.94276,0.02649
2031.01398,0.02635
2029.08519,0.02624
2027.15640,0.02622
2025.22761,0.02635
2023.29882,0.02651
2021.37004,0.02661
2019.44125,0.02666
2017.51246,0.02658
2015.58367,0.02634
2013.65488,0.02604
2011.72609,0.02585
2009.79731,0.02579
2007.86852,0.02578
2005.93973,0.02588
2004.01094,0.02616
2002.08215,0.02639
2000.15336,0.02634
1998.22458,0.02604
1996.29579,0.02581
1994.36700,0.02584
1992.43821,0.02591
1990.50942,0.02592
1988.58064,0.02603
1986.65185,0.02614
1984.72306,0.02604
1982.79427,0.02583
1980.86548,0.02574
1978.93669,0.02578
1977.00791,0.02588
1975.07912,0.02603
1973.15033,0.02609
1971.22154,0.02609
1969.29275,0.02611
1967.36397,0.02611
1965.43518,0.02607
1963.50639,0.02607
1961.57760,0.02615
1959.64881,0.02625
1957.72002,0.02631
1955.79124,0.02628
1953.86245,0.02616
1951.93366,0.02610
1950.00487,0.02613
1948.07608,0.02605
1946.14730,0.02588
1944.21851,0.02579
1942.28972,0.02591
1940.36093,0.02619
1938.43214,0.02625
1936.50335,0.02608
1934.57457,0.02598
1932.64578,0.02594
1930.71699,0.02570
1928.78820,0.02545
1926.85941,0.02553
1924.93063,0.02577
1923.00184,0.02574
1921.07305,0.02547
1919.14426,0.02542
1917.21547,0.02565
1915.28668,0.02574
1913.35790,0.02570
1911.42911,0.02585
1909.50032,0.02613
1907.57153,0.02626
1905.64274,0.02623
1903.71395,0.02610
1901.78517,0.02587
1899.85638,0.02559
1897.92759,0.02534
1895.99880,0.02533
1894.07001,0.02546
1892.14123,0.02542
1890.21244,0.02531
1888.28365,0.02535
1886.35486,0.02547
1884.42607,0.02551
1882.49728,0.02548
1880.56850,0.02545
1878.63971,0.02557
1876.71092,0.02573
1874.78213,0.02568
1872.85334,0.02554
1870.92456,0.02549
1868.99577,0.02536
1867.06698,0.02514
1865.13819,0.02520
1863.20940,0.02538
1861.28061,0.02535
1859.35183,0.02524
1857.42304,0.02523
1855.49425,0.02520
1853.56546,0.02510
1851.63667,0.02508
1849.70789,0.02512
1847.77910,0.02513
1845.85031,0.02508
1843.92152,0.02494
1841.99273,0.02482
1840.06394,0.02486
1838.13516,0.02503
1836.20637,0.02524
1834.27758,0.02527
1832.34879,0.02516
1830.42000,0.02513
1828.49122,0.02524
1826.56243,0.02530
1824.63364,0.02524
1822.70485,0.02518
1820.77606,0.02506
1818.84727,0.02483
1816.91849,0.02461
1814.98970,0.02450
1813.06091,0.02450
1811.13212,0.02440
1809.20333,0.02425
1807.27454,0.02440
1805.34576,0.02476
1803.41697,0.02493
1801.48818,0.02474
1799.55939,0.02446
1797.63060,0.02433
1795.70182,0.02426
1793.77303,0.02422
1791.84424,0.02423
1789.91545,0.02410
1787.98666,0.02393
1786.05787,0.02393
1784.12909,0.02390
1782.20030,0.02374
1780.27151,0.02363
1778.34272,0.02358
1776.41393,0.02356
1774.48515,0.02361
1772.55636,0.02358
1770.62757,0.02333
1768.69878,0.02314
1766.76999,0.02310
1764.84120,0.02305
1762.91242,0.02273
1760.98363,0.02206
1759.05484,0.02165
1757.12605,0.02165
1755.19726,0.02187
1753.26848,0.02210
1751.33969,0.02220
1749.41090,0.02205
1747.48211,0.02183
1745.55332,0.02184
1743.62453,0.02208
1741.69575,0.02240
1739.76696,0.02284
1737.83817,0.02336
1735.90938,0.02369
1733.98059,0.02373
1732.05180,0.02374
1730.12302,0.02393
1728.19423,0.02427
1726.26544,0.02469
1724.33665,0.02508
1722.40786,0.02533
1720.47908,0.02552
1718.55029,0.02559
1716.62150,0.02530
1714.69271,0.02494
1712.76392,0.02476
1710.83513,0.02468
1708.90635,0.02469
1706.97756,0.02465
1705.04877,0.02436
1703.11998,0.02404
1701.19119,0.02365
1699.26241,0.02305
1697.33362,0.02264
1695.40483,0.02260
1693.47604,0.02287
1691.54725,0.02319
1689.61846,0.02334
1687.68968,0.02331
1685.76089,0.02316
1683.83210,0.02294
1681.90331,0.02291
1679.97452,0.02297
1678.04574,0.02297
1676.11695,0.02285
1674.18816,0.02271
1672.25937,0.02269
1670.33058,0.02253
1668.40179,0.02211
1666.47301,0.02210
1664.54422,0.02243
1662.61543,0.02263
1660.68664,0.02243
1658.75785,0.02219
1656.82907,0.02233
1654.90028,0.02283
1652.97149,0.02274
1651.04270,0.02210
1649.11391,0.02172
1647.18512,0.02153
1645.25634,0.02200
1643.32755,0.02254
1641.39876,0.02279
1639.46997,0.02287
1637.54118,0.02274
1635.61239,0.02241
1633.68361,0.02234
1631.75482,0.02261
1629.82603,0.02274
1627.89724,0.02248
1625.96845,0.02221
1624.03967,0.02220
1622.11088,0.02239
1620.18209,0.02271
1618.25330,0.02297
1616.32451,0.02284
1614.39572,0.02259
1612.46694,0.02255
1610.53815,0.02259
1608.60936,0.02258
1606.68057,0.02248
1604.75178,0.02244
1602.82300,0.02261
1600.89421,0.02285
1598.96542,0.02291
1597.03663,0.02283
1595.10784,0.02285
1593.17905,0.02293
1591.25027,0.02290
1589.32148,0.02280
1587.39269,0.02265
1585.46390,0.02251
1583.53511,0.02249
1581.60633,0.02259
1579.67754,0.02272
1577.74875,0.02271
1575.81996,0.02241
1573.89117,0.02215
1571.96238,0.02215
1570.03360,0.02219
1568.10481,0.02204
1566.17602,0.02180
1564.24723,0.02171
1562.31844,0.02186
1560.38966,0.02230
1558.46087,0.02251
1556.53208,0.02197
1554.60329,0.02170
1552.67450,0.02186
1550.74571,0.02216
1548.81693,0.02230
1546.88814,0.02229
1544.95935,0.02221
1543.03056,0.02225
1541.10177,0.02265
1539.17298,0.02280
1537.24420,0.02270
1535.31541,0.02275
1533.38662,0.02276
1531.45783,0.02263
1529.52904,0.02247
1527.60026,0.02232
1525.67147,0.02229
1523.74268,0.02250
1521.81389,0.02281
1519.88510,0.02287
1517.95631,0.02278
1516.02753,0.02264
1514.09874,0.02242
1512.16995,0.02232
1510.24116,0.02242
1508.31237,0.02241
1506.38359,0.02210
1504.45480,0.02231
1502.52601,0.02274
1500.59722,0.02301
1498.66843,0.02303
1496.73964,0.02290
1494.81086,0.02273
1492.88207,0.02258
1490.95328,0.02259
1489.02449,0.02272
1487.09570,0.02267
1485.16692,0.02249
1483.23813,0.02231
1481.30934,0.02217
1479.38055,0.02223
1477.45176,0.02237
1475.52297,0.02228
1473.59419,0.02200
1471.66540,0.02195
1469.73661,0.02213
1467.80782,0.02225
1465.87903,0.02215
1463.95024,0.02186
1462.02146,0.02187
1460.09267,0.02233
1458.16388,0.02279
1456.23509,0.02245
1454.30630,0.02213
1452.37752,0.02215
1450.44873,0.02210
1448.51994,0.02203
1446.59115,0.02222
1444.66236,0.02246
1442.73357,0.02248
1440.80479,0.02242
1438.87600,0.02239
1436.94721,0.02234
1435.01842,0.02227
1433.08963,0.02210
1431.16085,0.02178
1429.23206,0.02162
1427.30327,0.02168
1425.37448,0.02159
1423.44569,0.02132
1421.51690,0.02112
1419.58812,0.02103
1417.65933,0.02114
1415.73054,0.02139
1413.80175,0.02160
1411.87296,0.02166
1409.94418,0.02150
1408.01539,0.02123
1406.08660,0.02097
1404.15781,0.02077
1402.22902,0.02080
1400.30023,0.02114
1398.37145,0.02156
1396.44266,0.02166
1394.51387,0.02147
1392.58508,0.02136
1390.65629,0.02126
1388.72751,0.02103
1386.79872,0.02094
1384.86993,0.02112
1382.94114,0.02123
1381.01235,0.02123
1379.08356,0.02133
1377.15478,0.02149
1375.22599,0.02147
1373.29720,0.02120
1371.36841,0.02099
1369.43962,0.02100
1367.51083,0.02115
1365.58205,0.02131
1363.65326,0.02126
1361.72447,0.02100
1359.79568,0.02100
1357.86689,0.02127
1355.93811,0.02140
1354.00932,0.02124
1352.08053,0.02099
1350.15174,0.02080
1348.22295,0.02066
1346.29416,0.02060
1344.36538,0.02067
1342.43659,0.02084
1340.50780,0.02087
1338.57901,0.02067
1336.65022,0.02067
1334.72144,0.02090
1332.79265,0.02090
1330.86386,0.02063
1328.93507,0.02039
1327.00628,0.02027
1325.07749,0.02024
1323.14871,0.02023
1321.21992,0.02010
1319.29113,0.01991
1317.36234,0.01998
1315.43355,0.02030
1313.50477,0.02040
1311.57598,0.02021
1309.64719,0.02008
1307.71840,0.02005
1305.78961,0.01989
1303.86082,0.01978
1301.93204,0.01997
1300.00325,0.02028
1298.07446,0.02044
1296.14567,0.02050
1294.21688,0.02073
1292.28810,0.02113
1290.35931,0.02144
1288.43052,0.02143
1286.50173,0.02125
1284.57294,0.02123
1282.64415,0.02145
1280.71537,0.02185
1278.78658,0.02223
1276.85779,0.02242
1274.92900,0.02242
1273.00021,0.02220
1271.07142,0.02194
1269.14264,0.02198
1267.21385,0.02232
1265.28506,0.02272
1263.35627,0.02304
1261.42748,0.02320
1259.49870,0.02321
1257.56991,0.02319
1255.64112,0.02319
1253.71233,0.02315
1251.78354,0.02304
1249.85475,0.02307
1247.92597,0.02321
1245.99718,0.02327
1244.06839,0.02325
1242.13960,0.02310
1240.21081,0.02287
1238.28203,0.02281
1236.35324,0.02288
1234.42445,0.02280
1232.49566,0.02260
1230.56687,0.02250
1228.63808,0.02258
1226.70930,0.02267
1224.78051,0.02251
1222.85172,0.02215
1220.92293,0.02188
1218.99414,0.02186
1217.06536,0.02189
1215.13657,0.02191
1213.20778,0.02213
1211.27899,0.02232
1209.35020,0.02220
1207.42141,0.02198
1205.49263,0.02190
1203.56384,0.02202
1201.63505,0.02220
1199.70626,0.02222
1197.77747,0.02210
1195.84868,0.02190
1193.91990,0.02161
1191.99111,0.02132
1190.06232,0.02125
1188.13353,0.02142
1186.20474,0.02153
1184.27596,0.02139
1182.34717,0.02125
1180.41838,0.02120
1178.48959,0.02108
1176.56080,0.02096
1174.63201,0.02091
1172.70323,0.02070
1170.77444,0.02048
1168.84565,0.02051
1166.91686,0.02077
1164.98807,0.02111
1163.05929,0.02121
1161.13050,0.02106
1159.20171,0.02090
1157.27292,0.02061
1155.34413,0.02022
1153.41534,0.01999
1151.48656,0.02018
1149.55777,0.02065
1147.62898,0.02093
1145.70019,0.02094
1143.77140,0.02092
1141.84262,0.02095
1139.91383,0.02089
1137.98504,0.02073
1136.05625,0.02066
1134.12746,0.02076
1132.19867,0.02099
1130.26989,0.02121
1128.34110,0.02121
1126.41231,0.02123
1124.48352,0.02147
1122.55473,0.02174
1120.62595,0.02197
1118.69716,0.02227
1116.76837,0.02270
1114.83958,0.02307
1112.91079,0.02316
1110.98200,0.02288
1109.05322,0.02243
1107.12443,0.02229
1105.19564,0.02253
1103.26685,0.02262
1101.33806,0.02235
1099.40927,0.02225
1097.48049,0.02267
1095.55170,0.02286
1093.62291,0.02260
1091.69412,0.02258
1089.76533,0.02264
1087.83655,0.02248
1085.90776,0.02235
1083.97897,0.02246
1082.05018,0.02286
1080.12139,0.02314
1078.19260,0.02312
1076.26382,0.02323
1074.33503,0.02344
1072.40624,0.02362
1070.47745,0.02419
1068.54866,0.02505
1066.61988,0.02545
1064.69109,0.02518
1062.76230,0.02477
1060.83351,0.02453
1058.90472,0.02424
1056.97593,0.02396
1055.04715,0.02395
1053.11836,0.02388
1051.18957,0.02372
1049.26078,0.02368
1047.33199,0.02354
1045.40321,0.02345
1043.47442,0.02355
1041.54563,0.02372
1039.61684,0.02370
1037.68805,0.02327
1035.75926,0.02286
1033.83048,0.02292
1031.90169,0.02333
1029.97290,0.02388
1028.04411,0.02424
1026.11532,0.02410
1024.18654,0.02368
1022.25775,0.02336
1020.32896,0.02321
1018.40017,0.02318
1016.47138,0.02333
1014.54259,0.02376
1012.61381,0.02428
1010.68502,0.02443
1008.75623,0.02433
1006.82744,0.02453
1004.89865,0.02498
1002.96986,0.02520
1001.04108,0.02501
999.11229,0.02466
997.18350,0.02456
995.25471,0.02474
993.32592,0.02482
991.39714,0.02474
989.46835,0.02489
987.53956,0.02509
985.61077,0.02490
983.68198,0.02459
981.75319,0.02441
979.82441,0.02417
977.89562,0.02394
975.96683,0.02388
974.03804,0.02389
972.10925,0.02377
970.18047,0.02369
968.25168,0.02399
966.32289,0.02430
964.39410,0.02411
962.46531,0.02371
960.53652,0.02357
958.60774,0.02357
956.67895,0.02332
954.75016,0.02298
952.82137,0.02301
950.89258,0.02336
948.96380,0.02356
947.03501,0.02337
945.10622,0.02321
943.17743,0.02342
941.24864,0.02354
939.31985,0.02333
937.39107,0.02313
935.46228,0.02313
933.53349,0.02318
931.60470,0.02308
929.67591,0.02302
927.74712,0.02323
925.81834,0.02335
923.88955,0.02321
921.96076,0.02310
920.03197,0.02298
918.10318,0.02283
916.17440,0.02284
914.24561,0.02284
912.31682,0.02262
910.38803,0.02244
908.45924,0.02241
906.53045,0.02240
904.60167,0.02261
902.67288,0.02293
900.74409,0.02290
898.81530,0.02262
896.88651,0.02250
894.95773,0.02240
893.02894,0.02205
891.10015,0.02198
889.17136,0.02242
887.24257,0.02268
885.31378,0.02256
883.38500,0.02273
881.45621,0.02322
879.52742,0.02331
877.59863,0.02282
875.66984,0.02211
873.74106,0.02181
871.81227,0.02209
869.88348,0.02238
867.95469,0.02231
866.02590,0.02222
864.09711,0.02237
862.16833,0.02248
860.23954,0.02245
858.31075,0.02245
856.38196,0.02241
854.45317,0.02231
852.52439,0.02242
850.59560,0.02267
848.66681,0.02262
846.73802,0.02235
844.80923,0.02217
842.88044,0.02220
840.95166,0.02258
839.02287,0.02284
837.09408,0.02247
835.16529,0.02193
833.23650,0.02180
831.30771,0.02206
829.37893,0.02245
827.45014,0.02262
825.52135,0.02220
823.59256,0.02141
821.66377,0.02076
819.73499,0.02052
817.80620,0.02075
815.87741,0.02142
813.94862,0.02208
812.01983,0.02224
810.09104,0.02209
808.16226,0.02190
806.23347,0.02174
804.30468,0.02176
802.37589,0.02190
800.44710,0.02180
798.51832,0.02148
796.58953,0.02126
794.66074,0.02103
792.73195,0.02060
790.80316,0.02040
788.87437,0.02052
786.94559,0.02050
785.01680,0.02030
783.08801,0.02026
781.15922,0.02064
779.23043,0.02112
777.30165,0.02110
775.37286,0.02075
773.44407,0.02066
771.51528,0.02074
769.58649,0.02072
767.65770,0.02054
765.72892,0.02025
763.80013,0.02014
761.87134,0.02023
759.94255,0.02032
758.01376,0.02044
756.08498,0.02074
754.15619,0.02099
752.22740,0.02084
750.29861,0.02037
748.36982,0.02003
746.44103,0.02015
744.51225,0.02051
742.58346,0.02071
740.65467,0.02084
738.72588,0.02080
736.79709,0.02026
734.86830,0.01964
732.93952,0.01952
731.01073,0.01984
729.08194,0.02004
727.15315,0.01986
725.22436,0.01980
723.29558,0.01998
721.36679,0.01984
719.43800,0.01965
717.50921,0.01976
715.58042,0.01987
713.65163,0.01982
711.72285,0.01974
709.79406,0.01981
707.86527,0.01993
705.93648,0.01971
704.00769,0.01948
702.07891,0.01965
700.15012,0.01964
698.22133,0.01928
696.29254,0.01927
694.36375,0.01970
692.43496,0.02009
690.50618,0.02005
688.57739,0.01948
686.64860,0.01895
684.71981,0.01894
682.79102,0.01914
680.86224,0.01941
678.93345,0.01962
677.00466,0.01936
675.07587,0.01893
673.14708,0.01886
671.21829,0.01895
669.28951,0.01912
667.36072,0.01930
665.43193,0.01921
663.50314,0.01896
661.57435,0.01873
659.64556,0.01869
657.71678,0.01893
655.78799,0.01871
653.85920,0.01775
651.93041,0.01745
650.00162,0.01813
648.07284,0.01873
646.14405,0.01912
644.21526,0.01948
642.28647,0.01970
640.35768,0.01989
638.42889,0.01977
636.50011,0.01938
634.57132,0.01930
632.64253,0.01993
630.71374,0.02067
628.78495,0.02069
626.85617,0.01997
624.92738,0.01935
622.99859,0.01927
621.06980,0.01927
619.14101,0.01929
617.21222,0.01974
615.28344,0.01985
613.35465,0.01937
611.42586,0.01905
609.49707,0.01923
607.56828,0.01968
605.63950,0.01976
603.71071,0.01967
601.78192,0.02055
599.85313,0.02139
