7497.03301,0.60437
7495.10426,0.60409
7493.17552,0.60806
7491.24677,0.61205
7489.31803,0.61388
7487.38928,0.61122
7485.46054,0.60199
7483.53179,0.59286
7481.60305,0.59183
7479.67430,0.59550
7477.74556,0.59818
7475.81681,0.60169
7473.88807,0.60634
7471.95932,0.60854
7470.03057,0.60827
7468.10183,0.60740
7466.17308,0.60664
7464.24434,0.60424
7462.31559,0.60056
7460.38685,0.60072
7458.45810,0.60443
7456.52936,0.60654
7454.60061,0.60588
7452.67187,0.60472
7450.74312,0.60509
7448.81438,0.60538
7446.88563,0.60258
7444.95689,0.59729
7443.02814,0.59341
7441.09940,0.59364
7439.17065,0.59534
7437.24190,0.59561
7435.31316,0.59554
7433.38441,0.59751
7431.45567,0.60280
7429.52692,0.60720
7427.59818,0.60617
7425.66943,0.60255
7423.74069,0.59949
7421.81194,0.59744
7419.88320,0.59629
7417.95445,0.59619
7416.02571,0.59908
7414.09696,0.60372
7412.16822,0.60601
7410.23947,0.60540
7408.31073,0.60435
7406.38198,0.60326
7404.45323,0.60016
7402.52449,0.59744
7400.59574,0.59837
7398.66700,0.59965
7396.73825,0.60052
7394.80951,0.60370
7392.88076,0.60599
7390.95202,0.60502
7389.02327,0.60253
7387.09453,0.59934
7385.16578,0.59708
7383.23704,0.59665
7381.30829,0.59832
7379.37955,0.60272
7377.45080,0.60574
7375.52205,0.60382
7373.59331,0.60134
7371.66456,0.60233
7369.73582,0.60511
7367.80707,0.60820
7365.87833,0.61037
7363.94958,0.60917
7362.02084,0.60530
7360.09209,0.60264
7358.16335,0.60335
7356.23460,0.60512
7354.30586,0.60677
7352.37711,0.61011
7350.44837,0.61326
7348.51962,0.61400
7346.59088,0.61270
7344.66213,0.60930
7342.73338,0.60600
7340.80464,0.60438
7338.87589,0.60288
7336.94715,0.60186
7335.01840,0.60282
7333.08966,0.60584
7331.16091,0.60732
7329.23217,0.60367
7327.30342,0.59929
7325.37468,0.59741
7323.44593,0.59490
7321.51719,0.59385
7319.58844,0.59722
7317.65970,0.60277
7315.73095,0.60859
7313.80221,0.61029
7311.87346,0.60461
7309.94471,0.59861
7308.01597,0.59806
7306.08722,0.60095
7304.15848,0.60427
7302.22973,0.60624
7300.30099,0.60731
7298.37224,0.60666
7296.44350,0.60337
7294.51475,0.60215
7292.58601,0.60442
7290.65726,0.60548
7288.72852,0.60516
7286.79977,0.60517
7284.87103,0.60348
7282.94228,0.60077
7281.01353,0.59978
7279.08479,0.60012
7277.15604,0.60026
7275.22730,0.59896
7273.29855,0.59798
7271.36981,0.59933
7269.44106,0.60234
7267.51232,0.60655
7265.58357,0.60910
7263.65483,0.60888
7261.72608,0.61005
7259.79734,0.61161
7257.86859,0.60834
7255.93985,0.60388
7254.01110,0.60515
7252.08236,0.60714
7250.15361,0.60352
7248.22486,0.59998
7246.29612,0.60109
7244.36737,0.60370
7242.43863,0.60415
7240.50988,0.60302
7238.58114,0.60272
7236.65239,0.60233
7234.72365,0.60205
7232.79490,0.60348
7230.86616,0.60428
7228.93741,0.60439
7227.00867,0.60614
7225.07992,0.60757
7223.15118,0.60661
7221.22243,0.60567
7219.29369,0.60744
7217.36494,0.60974
7215.43619,0.60947
7213.50745,0.60654
7211.57870,0.60195
7209.64996,0.59906
7207.72121,0.60143
7205.79247,0.60659
7203.86372,0.60852
7201.93498,0.60520
7200.00623,0.59897
7198.07749,0.59412
7196.14874,0.59533
7194.22000,0.60110
7192.29125,0.60381
7190.36251,0.60046
7188.43376,0.59643
7186.50501,0.59691
7184.57627,0.60049
7182.64752,0.60385
7180.71878,0.60634
7178.79003,0.60851
7176.86129,0.61014
7174.93254,0.61008
7173.00380,0.60815
7171.07505,0.60608
7169.14631,0.60595
7167.21756,0.60821
7165.28882,0.61013
7163.36007,0.60728
7161.43133,0.60021
7159.50258,0.59533
7157.57384,0.59584
7155.64509,0.59810
7153.71634,0.59790
7151.78760,0.59708
7149.85885,0.59894
7147.93011,0.60152
7146.00136,0.60371
7144.07262,0.60527
7142.14387,0.60270
7140.21513,0.59880
7138.28638,0.59971
7136.35764,0.60101
7134.42889,0.59852
7132.50015,0.59814
7130.57140,0.60319
7128.64266,0.60946
7126.71391,0.61085
7124.78516,0.60613
7122.85642,0.60155
7120.92767,0.60099
7118.99893,0.60179
7117.07018,0.60201
7115.14144,0.60219
7113.21269,0.60219
7111.28395,0.60114
7109.35520,0.59903
7107.42646,0.59677
7105.49771,0.59705
7103.56897,0.60055
7101.64022,0.60268
7099.71148,0.60167
7097.78273,0.60123
7095.85399,0.60352
7093.92524,0.60552
7091.99649,0.60275
7090.06775,0.59735
7088.13900,0.59520
7086.21026,0.59730
7084.28151,0.60097
7082.35277,0.60504
7080.42402,0.60919
7078.49528,0.61019
7076.56653,0.60699
7074.63779,0.60409
7072.70904,0.60401
7070.78030,0.60594
7068.85155,0.60801
7066.92281,0.60773
7064.99406,0.60717
7063.06532,0.60969
7061.13657,0.61153
7059.20782,0.60957
7057.27908,0.60725
7055.35033,0.60483
7053.42159,0.60061
7051.49284,0.59929
7049.56410,0.60289
7047.63535,0.60568
7045.70661,0.60472
7043.77786,0.60280
7041.84912,0.60298
7039.92037,0.60560
7037.99163,0.60760
7036.06288,0.60673
7034.13414,0.60437
7032.20539,0.60248
7030.27664,0.60252
7028.34790,0.60491
7026.41915,0.60733
7024.49041,0.60727
7022.56166,0.60601
7020.63292,0.60662
7018.70417,0.60838
7016.77543,0.60824
7014.84668,0.60666
7012.91794,0.60518
7010.98919,0.60381
7009.06045,0.60473
7007.13170,0.61007
7005.20296,0.61643
7003.27421,0.61732
7001.34547,0.61247
6999.41672,0.60763
6997.48797,0.60581
6995.55923,0.60779
6993.63048,0.61251
6991.70174,0.61551
6989.77299,0.61417
6987.84425,0.60990
6985.91550,0.60570
6983.98676,0.60416
6982.05801,0.60664
6980.12927,0.60960
6978.20052,0.60831
6976.27178,0.60596
6974.34303,0.60534
6972.41429,0.60489
6970.48554,0.60619
6968.55680,0.60962
6966.62805,0.61235
6964.69930,0.61229
6962.77056,0.60954
6960.84181,0.60733
6958.91307,0.60811
6956.98432,0.61056
6955.05558,0.61305
6953.12683,0.61483
6951.19809,0.61491
6949.26934,0.61412
6947.34060,0.61405
6945.41185,0.61493
6943.48311,0.61578
6941.55436,0.61468
6939.62562,0.61251
6937.69687,0.61207
6935.76812,0.61293
6933.83938,0.61318
6931.91063,0.61286
6929.98189,0.61332
6928.05314,0.61372
6926.12440,0.61247
6924.19565,0.61197
6922.26691,0.61369
6920.33816,0.61368
6918.40942,0.61006
6916.48067,0.60753
6914.55193,0.60882
6912.62318,0.61048
6910.69444,0.61022
6908.76569,0.61054
6906.83695,0.61294
6904.90820,0.61482
6902.97945,0.61552
6901.05071,0.61621
6899.12196,0.61544
6897.19322,0.61331
6895.26447,0.61144
6893.33573,0.60971
6891.40698,0.60810
6889.47824,0.60667
6887.54949,0.60559
6885.62075,0.60657
6883.69200,0.60936
6881.76326,0.61093
6879.83451,0.61135
6877.90577,0.61156
6875.97702,0.61078
6874.04828,0.61077
6872.11953,0.61178
6870.19078,0.61223
6868.26204,0.61319
6866.33329,0.61426
6864.40455,0.61394
6862.47580,0.61331
6860.54706,0.61370
6858.61831,0.61433
6856.68957,0.61456
6854.76082,0.61485
6852.83208,0.61438
6850.90333,0.61387
6848.97459,0.61502
6847.04584,0.61580
6845.11710,0.61457
6843.18835,0.61280
6841.25960,0.61179
6839.33086,0.61151
6837.40211,0.61099
6835.47337,0.61024
6833.54462,0.61173
6831.61588,0.61569
6829.68713,0.61844
6827.75839,0.61847
6825.82964,0.61683
6823.90090,0.61332
6821.97215,0.60908
6820.04341,0.60891
6818.11466,0.61382
6816.18592,0.61775
6814.25717,0.61785
6812.32843,0.61651
6810.39968,0.61575
6808.47093,0.61721
6806.54219,0.62092
6804.61344,0.62445
6802.68470,0.62399
6800.75595,0.61866
6798.82721,0.61374
6796.89846,0.61373
6794.96972,0.61703
6793.04097,0.62027
6791.11223,0.62221
6789.18348,0.62270
6787.25474,0.62252
6785.32599,0.62282
6783.39725,0.62268
6781.46850,0.62134
6779.53975,0.61941
6777.61101,0.61705
6775.68226,0.61524
6773.75352,0.61541
6771.82477,0.61613
6769.89603,0.61518
6767.96728,0.61549
6766.03854,0.61943
6764.10979,0.62138
6762.18105,0.61824
6760.25230,0.61527
6758.32356,0.61483
6756.39481,0.61499
6754.46607,0.61635
6752.53732,0.61840
6750.60858,0.61911
6748.67983,0.61949
6746.75108,0.62073
6744.82234,0.62198
6742.89359,0.62189
6740.96485,0.62009
6739.03610,0.61817
6737.10736,0.61756
6735.17861,0.61836
6733.24987,0.61896
6731.32112,0.61764
6729.39238,0.61565
6727.46363,0.61552
6725.53489,0.61777
6723.60614,0.61960
6721.67740,0.61888
6719.74865,0.61859
6717.81991,0.62105
6715.89116,0.62457
6713.96241,0.62650
6712.03367,0.62452
6710.10492,0.62134
6708.17618,0.62181
6706.24743,0.62437
6704.31869,0.62464
6702.38994,0.62223
6700.46120,0.62027
6698.53245,0.62081
6696.60371,0.62220
6694.67496,0.62246
6692.74622,0.62204
6690.81747,0.62177
6688.88873,0.62173
6686.95998,0.62135
6685.03123,0.61920
6683.10249,0.61676
6681.17374,0.61812
6679.24500,0.62293
6677.31625,0.62555
6675.38751,0.62250
6673.45876,0.61878
6671.53002,0.61896
6669.60127,0.61944
6667.67253,0.61956
6665.74378,0.62165
6663.81504,0.62344
6661.88629,0.62379
6659.95755,0.62320
6658.02880,0.62188
6656.10006,0.62181
6654.17131,0.62287
6652.24256,0.62323
6650.31382,0.62401
6648.38507,0.62469
6646.45633,0.62243
6644.52758,0.61997
6642.59884,0.62084
6640.67009,0.62281
6638.74135,0.62486
6636.81260,0.62761
6634.88386,0.62765
6632.95511,0.62430
6631.02637,0.62235
6629.09762,0.62213
6627.16888,0.62049
6625.24013,0.61936
6623.31139,0.62158
6621.38264,0.62472
6619.45389,0.62613
6617.52515,0.62659
6615.59640,0.62621
6613.66766,0.62464
6611.73891,0.62402
6609.81017,0.62473
6607.88142,0.62443
6605.95268,0.62306
6604.02393,0.62179
6602.09519,0.62170
6600.16644,0.62445
6598.23770,0.62846
6596.30895,0.62945
6594.38021,0.62759
6592.45146,0.62704
6590.52271,0.62820
6588.59397,0.62766
6586.66522,0.62529
6584.73648,0.62428
6582.80773,0.62496
6580.87899,0.62514
6578.95024,0.62484
6577.02150,0.62542
6575.09275,0.62644
6573.16401,0.62682
6571.23526,0.62691
6569.30652,0.62696
6567.37777,0.62623
6565.44903,0.62537
6563.52028,0.62523
6561.59154,0.62538
6559.66279,0.62548
6557.73404,0.62506
6555.80530,0.62410
6553.87655,0.62342
6551.94781,0.62388
6550.01906,0.62582
6548.09032,0.62829
6546.16157,0.63035
6544.23283,0.63174
6542.30408,0.63168
6540.37534,0.63006
6538.44659,0.62780
6536.51785,0.62616
6534.58910,0.62561
6532.66036,0.62486
6530.73161,0.62446
6528.80287,0.62604
6526.87412,0.62770
6524.94537,0.62811
6523.01663,0.62864
6521.08788,0.62928
6519.15914,0.62937
6517.23039,0.62922
6515.30165,0.62897
6513.37290,0.62851
6511.44416,0.62778
6509.51541,0.62723
6507.58667,0.62770
6505.65792,0.62821
6503.72918,0.62768
6501.80043,0.62707
6499.87169,0.62683
6497.94294,0.62754
6496.01419,0.62944
6494.08545,0.62951
6492.15670,0.62594
6490.22796,0.62210
6488.29921,0.62094
6486.37047,0.62118
6484.44172,0.62229
6482.51298,0.62512
6480.58423,0.62744
6478.65549,0.62789
6476.72674,0.62890
6474.79800,0.63112
6472.86925,0.63274
6470.94051,0.63250
6469.01176,0.62939
6467.08302,0.62494
6465.15427,0.62272
6463.22552,0.62383
6461.29678,0.62680
6459.36803,0.62932
6457.43929,0.63058
6455.51054,0.63175
6453.58180,0.63289
6451.65305,0.63244
6449.72431,0.63030
6447.79556,0.62844
6445.86682,0.62789
6443.93807,0.62901
6442.00933,0.63177
6440.08058,0.63387
6438.15184,0.63369
6436.22309,0.63157
6434.29434,0.62838
6432.36560,0.62583
6430.43685,0.62478
6428.50811,0.62536
6426.57936,0.62709
6424.65062,0.62846
6422.72187,0.62911
6420.79313,0.62980
6418.86438,0.63096
6416.93564,0.63129
6415.00689,0.62845
6413.07815,0.62398
6411.14940,0.62277
6409.22066,0.62639
6407.29191,0.63049
6405.36317,0.63128
6403.43442,0.63040
6401.50567,0.63003
6399.57693,0.63055
6397.64818,0.63200
6395.71944,0.63324
6393.79069,0.63271
6391.86195,0.63028
6389.93320,0.62838
6388.00446,0.62982
6386.07571,0.63231
6384.14697,0.63236
6382.21822,0.63227
6380.28948,0.63341
6378.36073,0.63309
6376.43199,0.63131
6374.50324,0.63076
6372.57450,0.63269
6370.64575,0.63410
6368.71700,0.63225
6366.78826,0.63035
6364.85951,0.63073
6362.93077,0.63098
6361.00202,0.63025
6359.07328,0.63072
6357.14453,0.63251
6355.21579,0.63312
6353.28704,0.63208
6351.35830,0.63109
6349.42955,0.63054
6347.50081,0.62959
6345.57206,0.62842
6343.64332,0.62787
6341.71457,0.62813
6339.78582,0.62933
6337.85708,0.63158
6335.92833,0.63282
6333.99959,0.63164
6332.07084,0.63104
6330.14210,0.63230
6328.21335,0.63315
6326.28461,0.63290
6324.35586,0.63211
6322.42712,0.63132
6320.49837,0.62996
6318.56963,0.62815
6316.64088,0.62905
6314.71214,0.63318
6312.78339,0.63658
6310.85465,0.63631
6308.92590,0.63474
6306.99715,0.63463
6305.06841,0.63389
6303.13966,0.63174
6301.21092,0.63069
6299.28217,0.63151
6297.35343,0.63328
6295.42468,0.63478
6293.49594,0.63486
6291.56719,0.63381
6289.63845,0.63271
6287.70970,0.63173
6285.78096,0.63152
6283.85221,0.63273
6281.92347,0.63349
6279.99472,0.63255
6278.06598,0.63232
6276.13723,0.63453
6274.20848,0.63671
6272.27974,0.63681
6270.35099,0.63564
6268.42225,0.63424
6266.49350,0.63358
6264.56476,0.63409
6262.63601,0.63516
6260.70727,0.63535
6258.77852,0.63397
6256.84978,0.63252
6254.92103,0.63201
6252.99229,0.63238
6251.06354,0.63336
6249.13480,0.63417
6247.20605,0.63450
6245.27730,0.63423
6243.34856,0.63388
6241.41981,0.63524
6239.49107,0.63797
6237.56232,0.63890
6235.63358,0.63762
6233.70483,0.63615
6231.77609,0.63504
6229.84734,0.63532
6227.91860,0.63773
6225.98985,0.63945
6224.06111,0.63692
6222.13236,0.63206
6220.20362,0.63080
6218.27487,0.63432
6216.34613,0.63797
6214.41738,0.63846
6212.48863,0.63703
6210.55989,0.63631
6208.63114,0.63656
6206.70240,0.63584
6204.77365,0.63418
6202.84491,0.63444
6200.91616,0.63715
6198.98742,0.63966
6197.05867,0.64060
6195.12993,0.63985
6193.20118,0.63760
6191.27244,0.63598
6189.34369,0.63665
6187.41495,0.63723
6185.48620,0.63579
6183.55746,0.63428
6181.62871,0.63429
6179.69996,0.63544
6177.77122,0.63717
6175.84247,0.63860
6173.91373,0.63876
6171.98498,0.63816
6170.05624,0.63806
6168.12749,0.63796
6166.19875,0.63712
6164.27000,0.63626
6162.34126,0.63565
6160.41251,0.63562
6158.48377,0.63630
6156.55502,0.63619
6154.62628,0.63546
6152.69753,0.63632
6150.76878,0.63839
6148.84004,0.63916
6146.91129,0.63796
6144.98255,0.63686
6143.05380,0.63716
6141.12506,0.63680
6139.19631,0.63525
6137.26757,0.63538
6135.33882,0.63738
6133.41008,0.63868
6131.48133,0.63904
6129.55259,0.63951
6127.62384,0.63973
6125.69510,0.63939
6123.76635,0.63871
6121.83761,0.63826
6119.90886,0.63877
6117.98011,0.63887
6116.05137,0.63767
6114.12262,0.63715
6112.19388,0.63759
6110.26513,0.63776
6108.33639,0.63868
6106.40764,0.64082
6104.47890,0.64232
6102.55015,0.64200
6100.62141,0.64044
6098.69266,0.63896
6096.76392,0.63852
6094.83517,0.63871
6092.90643,0.63879
6090.97768,0.63875
6089.04893,0.63842
6087.12019,0.63802
6085.19144,0.63818
6083.26270,0.63856
6081.33395,0.63827
6079.40521,0.63771
6077.47646,0.63784
6075.54772,0.63823
6073.61897,0.63812
6071.69023,0.63767
6069.76148,0.63806
6067.83274,0.63979
6065.90399,0.64110
6063.97525,0.64125
6062.04650,0.64140
6060.11776,0.64132
6058.18901,0.64067
6056.26026,0.64014
6054.33152,0.63995
6052.40277,0.63958
6050.47403,0.63867
6048.54528,0.63789
6046.61654,0.63762
6044.68779,0.63741
6042.75905,0.63728
6040.83030,0.63764
6038.90156,0.63828
6036.97281,0.63857
6035.04407,0.63914
6033.11532,0.63996
6031.18658,0.63961
6029.25783,0.63930
6027.32909,0.64057
6025.40034,0.64174
6023.47159,0.64102
6021.54285,0.63969
6019.61410,0.64005
6017.68536,0.64155
6015.75661,0.64209
6013.82787,0.64127
6011.89912,0.64015
6009.97038,0.63992
6008.04163,0.64112
6006.11289,0.64257
6004.18414,0.64234
6002.25540,0.64161
6000.32665,0.64209
5998.39791,0.64210
5996.46916,0.64062
5994.54041,0.63948
5992.61167,0.64008
5990.68292,0.64142
5988.75418,0.64234
5986.82543,0.64267
5984.89669,0.64213
5982.96794,0.64178
5981.03920,0.64294
5979.11045,0.64454
5977.18171,0.64493
5975.25296,0.64384
5973.32422,0.64191
5971.39547,0.64050
5969.46673,0.64075
5967.53798,0.64192
5965.60924,0.64214
5963.68049,0.64084
5961.75174,0.63958
5959.82300,0.64040
5957.89425,0.64283
5955.96551,0.64451
5954.03676,0.64391
5952.10802,0.64225
5950.17927,0.64191
5948.25053,0.64236
5946.32178,0.64170
5944.39304,0.64097
5942.46429,0.64171
5940.53555,0.64255
5938.60680,0.64208
5936.67806,0.64194
5934.74931,0.64384
5932.82057,0.64579
5930.89182,0.64506
5928.96307,0.64325
5927.03433,0.64290
5925.10558,0.64218
5923.17684,0.64057
5921.24809,0.64124
5919.31935,0.64327
5917.39060,0.64332
5915.46186,0.64219
5913.53311,0.64177
5911.60437,0.64212
5909.67562,0.64291
5907.74688,0.64314
5905.81813,0.64197
5903.88939,0.64075
5901.96064,0.64151
5900.03189,0.64367
5898.10315,0.64447
5896.17440,0.64336
5894.24566,0.64269
5892.31691,0.64397
5890.38817,0.64605
5888.45942,0.64659
5886.53068,0.64506
5884.60193,0.64289
5882.67319,0.64155
5880.74444,0.64211
5878.81570,0.64396
5876.88695,0.64490
5874.95821,0.64398
5873.02946,0.64264
5871.10072,0.64227
5869.17197,0.64221
5867.24322,0.64181
5865.31448,0.64218
5863.38573,0.64383
5861.45699,0.64468
5859.52824,0.64398
5857.59950,0.64337
5855.67075,0.64335
5853.74201,0.64393
5851.81326,0.64508
5849.88452,0.64585
5847.95577,0.64593
5846.02703,0.64583
5844.09828,0.64566
5842.16954,0.64498
5840.24079,0.64371
5838.31205,0.64275
5836.38330,0.64293
5834.45455,0.64397
5832.52581,0.64481
5830.59706,0.64494
5828.66832,0.64491
5826.73957,0.64494
5824.81083,0.64462
5822.88208,0.64428
5820.95334,0.64433
5819.02459,0.64414
5817.09585,0.64393
5815.16710,0.64490
5813.23836,0.64621
5811.30961,0.64619
5809.38087,0.64556
5807.45212,0.64508
5805.52337,0.64483
5803.59463,0.64505
5801.66588,0.64518
5799.73714,0.64493
5797.80839,0.64504
5795.87965,0.64563
5793.95090,0.64603
5792.02216,0.64633
5790.09341,0.64675
5788.16467,0.64670
5786.23592,0.64651
5784.30718,0.64649
5782.37843,0.64642
5780.44969,0.64718
5778.52094,0.64799
5776.59220,0.64694
5774.66345,0.64587
5772.73470,0.64672
5770.80596,0.64737
5768.87721,0.64630
5766.94847,0.64492
5765.01972,0.64475
5763.09098,0.64561
5761.16223,0.64588
5759.23349,0.64511
5757.30474,0.64496
5755.37600,0.64620
5753.44725,0.64756
5751.51851,0.64834
5749.58976,0.64883
5747.66102,0.64868
5745.73227,0.64793
5743.80352,0.64772
5741.87478,0.64802
5739.94603,0.64798
5738.01729,0.64817
5736.08854,0.64889
5734.15980,0.64892
5732.23105,0.64798
5730.30231,0.64689
5728.37356,0.64629
5726.44482,0.64650
5724.51607,0.64723
5722.58733,0.64775
5720.65858,0.64834
5718.72984,0.64911
5716.80109,0.64845
5714.87235,0.64701
5712.94360,0.64712
5711.01485,0.64786
5709.08611,0.64804
5707.15736,0.64842
5705.22862,0.64846
5703.29987,0.64757
5701.37113,0.64684
5699.44238,0.64734
5697.51364,0.64853
5695.58489,0.64894
5693.65615,0.64853
5691.72740,0.64849
5689.79866,0.64909
5687.86991,0.64975
5685.94117,0.65015
5684.01242,0.65071
5682.08368,0.65129
5680.15493,0.65090
5678.22618,0.64974
5676.29744,0.64918
5674.36869,0.64985
5672.43995,0.65121
5670.51120,0.65225
5668.58246,0.65193
5666.65371,0.65037
5664.72497,0.64963
5662.79622,0.65067
5660.86748,0.65210
5658.93873,0.65279
5657.00999,0.65234
5655.08124,0.65080
5653.15250,0.64960
5651.22375,0.65017
5649.29500,0.65175
5647.36626,0.65262
5645.43751,0.65225
5643.50877,0.65128
5641.58002,0.65057
5639.65128,0.65027
5637.72253,0.65017
5635.79379,0.65056
5633.86504,0.65135
5631.93630,0.65118
5630.00755,0.64985
5628.07881,0.64988
5626.15006,0.65195
5624.22132,0.65312
5622.29257,0.65239
5620.36383,0.65159
5618.43508,0.65112
5616.50633,0.65058
5614.57759,0.65060
5612.64884,0.65091
5610.72010,0.65104
5608.79135,0.65131
5606.86261,0.65126
5604.93386,0.65084
5603.00512,0.65112
5601.07637,0.65182
5599.14763,0.65198
5597.21888,0.65218
5595.29014,0.65299
5593.36139,0.65345
5591.43265,0.65302
5589.50390,0.65239
5587.57516,0.65185
5585.64641,0.65135
5583.71766,0.65117
5581.78892,0.65134
5579.86017,0.65158
5577.93143,0.65221
5576.00268,0.65347
5574.07394,0.65402
5572.14519,0.65305
5570.21645,0.65220
5568.28770,0.65249
5566.35896,0.65295
5564.43021,0.65317
5562.50147,0.65309
5560.57272,0.65257
5558.64398,0.65236
5556.71523,0.65310
5554.78648,0.65445
5552.85774,0.65520
5550.92899,0.65443
5549.00025,0.65326
5547.07150,0.65323
5545.14276,0.65381
5543.21401,0.65376
5541.28527,0.65341
5539.35652,0.65368
5537.42778,0.65435
5535.49903,0.65514
5533.57029,0.65591
5531.64154,0.65596
5529.71280,0.65532
5527.78405,0.65514
5525.85531,0.65583
5523.92656,0.65609
5521.99781,0.65502
5520.06907,0.65366
5518.14032,0.65333
5516.21158,0.65423
5514.28283,0.65535
5512.35409,0.65547
5510.42534,0.65482
5508.49660,0.65447
5506.56785,0.65463
5504.63911,0.65486
5502.71036,0.65488
5500.78162,0.65495
5498.85287,0.65539
5496.92413,0.65590
5494.99538,0.65648
5493.06664,0.65704
5491.13789,0.65701
5489.20914,0.65688
5487.28040,0.65684
5485.35165,0.65634
5483.42291,0.65604
5481.49416,0.65630
5479.56542,0.65656
5477.63667,0.65662
5475.70793,0.65636
5473.77918,0.65570
5471.85044,0.65490
5469.92169,0.65453
5467.99295,0.65486
5466.06420,0.65542
5464.13546,0.65587
5462.20671,0.65608
5460.27796,0.65594
5458.34922,0.65570
5456.42047,0.65581
5454.49173,0.65637
5452.56298,0.65659
5450.63424,0.65606
5448.70549,0.65574
5446.77675,0.65604
5444.84800,0.65670
5442.91926,0.65755
5440.99051,0.65781
5439.06177,0.65776
5437.13302,0.65799
5435.20428,0.65747
5433.27553,0.65637
5431.34679,0.65601
5429.41804,0.65621
5427.48929,0.65671
5425.56055,0.65760
5423.63180,0.65873
5421.70306,0.65967
5419.77431,0.65964
5417.84557,0.65838
5415.91682,0.65705
5413.98808,0.65699
5412.05933,0.65774
5410.13059,0.65797
5408.20184,0.65752
5406.27310,0.65727
5404.34435,0.65757
5402.41561,0.65764
5400.48686,0.65736
5398.55811,0.65733
5396.62937,0.65754
5394.70062,0.65778
5392.77188,0.65809
5390.84313,0.65845
5388.91439,0.65892
5386.98564,0.65931
5385.05690,0.65907
5383.12815,0.65857
5381.19941,0.65860
5379.27066,0.65904
5377.34192,0.65949
5375.41317,0.65982
5373.48443,0.66011
5371.55568,0.65995
5369.62694,0.65890
5367.69819,0.65796
5365.76944,0.65808
5363.84070,0.65860
5361.91195,0.65858
5359.98321,0.65816
5358.05446,0.65816
5356.12572,0.65853
5354.19697,0.65858
5352.26823,0.65870
5350.33948,0.65940
5348.41074,0.65985
5346.48199,0.65953
5344.55325,0.65905
5342.62450,0.65915
5340.69576,0.65992
5338.76701,0.66070
5336.83827,0.66063
5334.90952,0.65979
5332.98077,0.65894
5331.05203,0.65865
5329.12328,0.65874
5327.19454,0.65905
5325.26579,0.65979
5323.33705,0.66066
5321.40830,0.66098
5319.47956,0.66063
5317.55081,0.66013
5315.62207,0.65969
5313.69332,0.65934
5311.76458,0.65920
5309.83583,0.65882
5307.90709,0.65803
5305.97834,0.65790
5304.04959,0.65863
5302.12085,0.65890
5300.19210,0.65849
5298.26336,0.65837
5296.33461,0.65891
5294.40587,0.65945
5292.47712,0.65917
5290.54838,0.65830
5288.61963,0.65762
5286.69089,0.65751
5284.76214,0.65758
5282.83340,0.65721
5280.90465,0.65699
5278.97591,0.65733
5277.04716,0.65749
5275.11842,0.65738
5273.18967,0.65722
5271.26092,0.65685
5269.33218,0.65611
5267.40343,0.65533
5265.47469,0.65508
5263.54594,0.65516
5261.61720,0.65527
5259.68845,0.65552
5257.75971,0.65586
5255.83096,0.65566
5253.90222,0.65450
5251.97347,0.65359
5250.04473,0.65370
5248.11598,0.65341
5246.18724,0.65263
5244.25849,0.65321
5242.32975,0.65494
5240.40100,0.65579
5238.47225,0.65513
5236.54351,0.65377
5234.61476,0.65244
5232.68602,0.65179
5230.75727,0.65219
5228.82853,0.65301
5226.89978,0.65337
5224.97104,0.65309
5223.04229,0.65271
5221.11355,0.65281
5219.18480,0.65317
5217.25606,0.65293
5215.32731,0.65216
5213.39857,0.65177
5211.46982,0.65149
5209.54107,0.65083
5207.61233,0.65040
5205.68358,0.65048
5203.75484,0.65092
5201.82609,0.65197
5199.89735,0.65318
5197.96860,0.65356
5196.03986,0.65342
5194.11111,0.65331
5192.18237,0.65255
5190.25362,0.65117
5188.32488,0.65080
5186.39613,0.65178
5184.46739,0.65230
5182.53864,0.65185
5180.60990,0.65165
5178.68115,0.65211
5176.75240,0.65287
5174.82366,0.65360
5172.89491,0.65385
5170.96617,0.65328
5169.03742,0.65236
5167.10868,0.65169
5165.17993,0.65129
5163.25119,0.65111
5161.32244,0.65131
5159.39370,0.65170
5157.46495,0.65180
5155.53621,0.65166
5153.60746,0.65201
5151.67872,0.65258
5149.74997,0.65241
5147.82123,0.65211
5145.89248,0.65243
5143.96373,0.65269
5142.03499,0.65268
5140.10624,0.65280
5138.17750,0.65292
5136.24875,0.65292
5134.32001,0.65310
5132.39126,0.65347
5130.46252,0.65346
5128.53377,0.65302
5126.60503,0.65250
5124.67628,0.65195
5122.74754,0.65182
5120.81879,0.65248
5118.89005,0.65340
5116.96130,0.65386
5115.03255,0.65383
5113.10381,0.65368
5111.17506,0.65357
5109.24632,0.65331
5107.31757,0.65304
5105.38883,0.65322
5103.46008,0.65383
5101.53134,0.65454
5099.60259,0.65489
5097.67385,0.65457
5095.74510,0.65453
5093.81636,0.65535
5091.88761,0.65607
5089.95887,0.65594
5088.03012,0.65538
5086.10138,0.65529
5084.17263,0.65556
5082.24388,0.65559
5080.31514,0.65554
5078.38639,0.65534
5076.45765,0.65474
5074.52890,0.65432
5072.60016,0.65447
5070.67141,0.65489
5068.74267,0.65551
5066.81392,0.65639
5064.88518,0.65684
5062.95643,0.65667
5061.02769,0.65671
5059.09894,0.65703
5057.17020,0.65689
5055.24145,0.65609
5053.31270,0.65546
5051.38396,0.65566
5049.45521,0.65628
5047.52647,0.65672
5045.59772,0.65663
5043.66898,0.65671
5041.74023,0.65761
5039.81149,0.65859
5037.88274,0.65913
5035.95400,0.65922
5034.02525,0.65864
5032.09651,0.65786
5030.16776,0.65776
5028.23902,0.65862
5026.31027,0.65942
5024.38153,0.65889
5022.45278,0.65755
5020.52403,0.65730
5018.59529,0.65836
5016.66654,0.65925
5014.73780,0.65958
5012.80905,0.65989
5010.88031,0.66010
5008.95156,0.66008
5007.02282,0.66011
5005.09407,0.66023
5003.16533,0.66005
5001.23658,0.65925
4999.30784,0.65875
4997.37909,0.65933
4995.45035,0.66007
4993.52160,0.66019
4991.59286,0.66029
4989.66411,0.66076
4987.73536,0.66106
4985.80662,0.66083
4983.87787,0.66060
4981.94913,0.66088
4980.02038,0.66137
4978.09164,0.66163
4976.16289,0.66164
4974.23415,0.66195
4972.30540,0.66258
4970.37666,0.66260
4968.44791,0.66202
4966.51917,0.66180
4964.59042,0.66200
4962.66168,0.66222
4960.73293,0.66235
4958.80418,0.66239
4956.87544,0.66246
4954.94669,0.66236
4953.01795,0.66210
4951.08920,0.66189
4949.16046,0.66173
4947.23171,0.66202
4945.30297,0.66267
4943.37422,0.66284
4941.44548,0.66298
4939.51673,0.66378
4937.58799,0.66436
4935.65924,0.66449
4933.73050,0.66475
4931.80175,0.66448
4929.87301,0.66370
4927.94426,0.66360
4926.01551,0.66416
4924.08677,0.66435
4922.15802,0.66401
4920.22928,0.66372
4918.30053,0.66375
4916.37179,0.66407
4914.44304,0.66457
4912.51430,0.66474
4910.58555,0.66438
4908.65681,0.66419
4906.72806,0.66457
4904.79932,0.66537
4902.87057,0.66628
4900.94183,0.66665
4899.01308,0.66651
4897.08434,0.66645
4895.15559,0.66637
4893.22684,0.66620
4891.29810,0.66619
4889.36935,0.66612
4887.44061,0.66583
4885.51186,0.66591
4883.58312,0.66656
4881.65437,0.66698
4879.72563,0.66687
4877.79688,0.66657
4875.86814,0.66630
4873.93939,0.66620
4872.01065,0.66608
4870.08190,0.66570
4868.15316,0.66563
4866.22441,0.66633
4864.29566,0.66699
4862.36692,0.66700
4860.43817,0.66675
4858.50943,0.66677
4856.58068,0.66719
4854.65194,0.66737
4852.72319,0.66690
4850.79445,0.66642
4848.86570,0.66627
4846.93696,0.66625
4845.00821,0.66638
4843.07947,0.66686
4841.15072,0.66760
4839.22198,0.66815
4837.29323,0.66841
4835.36449,0.66862
4833.43574,0.66859
4831.50699,0.66820
4829.57825,0.66771
4827.64950,0.66751
4825.72076,0.66796
4823.79201,0.66880
4821.86327,0.66934
4819.93452,0.66915
4818.00578,0.66842
4816.07703,0.66809
4814.14829,0.66849
4812.21954,0.66887
4810.29080,0.66902
4808.36205,0.66952
4806.43331,0.67002
4804.50456,0.66986
4802.57582,0.66946
4800.64707,0.66943
4798.71832,0.66952
4796.78958,0.66951
4794.86083,0.66948
4792.93209,0.66918
4791.00334,0.66841
4789.07460,0.66758
4787.14585,0.66730
4785.21711,0.66768
4783.28836,0.66818
4781.35962,0.66833
4779.43087,0.66828
4777.50213,0.66847
4775.57338,0.66866
4773.64464,0.66840
4771.71589,0.66822
4769.78714,0.66878
4767.85840,0.66958
4765.92965,0.66981
4764.00091,0.66963
4762.07216,0.66957
4760.14342,0.66961
4758.21467,0.66930
4756.28593,0.66887
4754.35718,0.66905
4752.42844,0.66938
4750.49969,0.66931
4748.57095,0.66922
4746.64220,0.66926
4744.71346,0.66902
4742.78471,0.66846
4740.85597,0.66813
4738.92722,0.66840
4736.99847,0.66912
4735.06973,0.66977
4733.14098,0.66987
4731.21224,0.66973
4729.28349,0.66973
4727.35475,0.66987
4725.42600,0.67010
4723.49726,0.67019
4721.56851,0.66981
4719.63977,0.66913
4717.71102,0.66864
4715.78228,0.66872
4713.85353,0.66918
4711.92479,0.66944
4709.99604,0.66922
4708.06729,0.66882
4706.13855,0.66880
4704.20980,0.66928
4702.28106,0.66945
4700.35231,0.66874
4698.42357,0.66773
4696.49482,0.66738
4694.56608,0.66756
4692.63733,0.66752
4690.70859,0.66726
4688.77984,0.66713
4686.85110,0.66740
4684.92235,0.66790
4682.99361,0.66811
4681.06486,0.66815
4679.13612,0.66828
4677.20737,0.66807
4675.27862,0.66760
4673.34988,0.66744
4671.42113,0.66734
4669.49239,0.66702
4667.56364,0.66677
4665.63490,0.66655
4663.70615,0.66628
4661.77741,0.66596
4659.84866,0.66552
4657.91992,0.66502
4655.99117,0.66478
4654.06243,0.66487
4652.13368,0.66508
4650.20494,0.66531
4648.27619,0.66555
4646.34745,0.66575
4644.41870,0.66586
4642.48995,0.66574
4640.56121,0.66555
4638.63246,0.66552
4636.70372,0.66537
4634.77497,0.66450
4632.84623,0.66361
4630.91748,0.66371
4628.98874,0.66398
4627.05999,0.66377
4625.13125,0.66360
4623.20250,0.66352
4621.27376,0.66334
4619.34501,0.66347
4617.41627,0.66387
4615.48752,0.66403
4613.55877,0.66402
4611.63003,0.66387
4609.70128,0.66329
4607.77254,0.66260
4605.84379,0.66209
4603.91505,0.66177
4601.98630,0.66194
4600.05756,0.66260
4598.12881,0.66330
4596.20007,0.66378
4594.27132,0.66387
4592.34258,0.66334
4590.41383,0.66267
4588.48509,0.66287
4586.55634,0.66362
4584.62760,0.66370
4582.69885,0.66327
4580.77010,0.66310
4578.84136,0.66295
4576.91261,0.66247
4574.98387,0.66199
4573.05512,0.66176
4571.12638,0.66179
4569.19763,0.66207
4567.26889,0.66248
4565.34014,0.66269
4563.41140,0.66262
4561.48265,0.66229
4559.55391,0.66182
4557.62516,0.66161
4555.69642,0.66159
4553.76767,0.66142
4551.83893,0.66137
4549.91018,0.66164
4547.98143,0.66191
4546.05269,0.66221
4544.12394,0.66246
4542.19520,0.66249
4540.26645,0.66249
4538.33771,0.66259
4536.40896,0.66249
4534.48022,0.66216
4532.55147,0.66196
4530.62273,0.66219
4528.69398,0.66268
4526.76524,0.66289
4524.83649,0.66259
4522.90775,0.66222
4520.97900,0.66200
4519.05025,0.66200
4517.12151,0.66233
4515.19276,0.66259
4513.26402,0.66242
4511.33527,0.66208
4509.40653,0.66202
4507.47778,0.66242
4505.54904,0.66281
4503.62029,0.66264
4501.69155,0.66216
4499.76280,0.66199
4497.83406,0.66236
4495.90531,0.66290
4493.97657,0.66304
4492.04782,0.66296
4490.11908,0.66301
4488.19033,0.66299
4486.26158,0.66290
4484.33284,0.66273
4482.40409,0.66250
4480.47535,0.66265
4478.54660,0.66297
4476.61786,0.66293
4474.68911,0.66295
4472.76037,0.66326
4470.83162,0.66339
4468.90288,0.66344
4466.97413,0.66377
4465.04539,0.66406
4463.11664,0.66386
4461.18790,0.66328
4459.25915,0.66318
4457.33041,0.66382
4455.40166,0.66449
4453.47291,0.66470
4451.54417,0.66442
4449.61542,0.66394
4447.68668,0.66383
4445.75793,0.66424
4443.82919,0.66469
4441.90044,0.66485
4439.97170,0.66475
4438.04295,0.66454
4436.11421,0.66443
4434.18546,0.66439
4432.25672,0.66414
4430.32797,0.66387
4428.39923,0.66374
4426.47048,0.66348
4424.54173,0.66329
4422.61299,0.66354
4420.68424,0.66391
4418.75550,0.66409
4416.82675,0.66409
4414.89801,0.66403
4412.96926,0.66411
4411.04052,0.66448
4409.11177,0.66470
4407.18303,0.66442
4405.25428,0.66406
4403.32554,0.66406
4401.39679,0.66423
4399.46805,0.66426
4397.53930,0.66421
4395.61056,0.66442
4393.68181,0.66465
4391.75306,0.66453
4389.82432,0.66433
4387.89557,0.66424
4385.96683,0.66403
4384.03808,0.66362
4382.10934,0.66303
4380.18059,0.66235
4378.25185,0.66197
4376.32310,0.66213
4374.39436,0.66221
4372.46561,0.66168
4370.53687,0.66107
4368.60812,0.66098
4366.67938,0.66120
4364.75063,0.66143
4362.82189,0.66169
4360.89314,0.66193
4358.96439,0.66194
4357.03565,0.66167
4355.10690,0.66128
4353.17816,0.66091
4351.24941,0.66072
4349.32067,0.66077
4347.39192,0.66101
4345.46318,0.66126
4343.53443,0.66107
4341.60569,0.66023
4339.67694,0.65941
4337.74820,0.65928
4335.81945,0.65975
4333.89071,0.66032
4331.96196,0.66027
4330.03321,0.65961
4328.10447,0.65914
4326.17572,0.65920
4324.24698,0.65955
4322.31823,0.65973
4320.38949,0.65955
4318.46074,0.65938
4316.53200,0.65955
4314.60325,0.65996
4312.67451,0.66022
4310.74576,0.65997
4308.81702,0.65968
4306.88827,0.65983
4304.95953,0.65995
4303.03078,0.65994
4301.10204,0.66014
4299.17329,0.66023
4297.24454,0.66005
4295.31580,0.65985
4293.38705,0.65967
4291.45831,0.65947
4289.52956,0.65920
4287.60082,0.65896
4285.67207,0.65898
4283.74333,0.65918
4281.81458,0.65930
4279.88584,0.65943
4277.95709,0.65942
4276.02835,0.65924
4274.09960,0.65905
4272.17086,0.65871
4270.24211,0.65825
4268.31336,0.65806
4266.38462,0.65825
4264.45587,0.65849
4262.52713,0.65859
4260.59838,0.65846
4258.66964,0.65808
4256.74089,0.65791
4254.81215,0.65821
4252.88340,0.65852
4250.95466,0.65841
4249.02591,0.65793
4247.09717,0.65741
4245.16842,0.65714
4243.23968,0.65729
4241.31093,0.65784
4239.38219,0.65830
4237.45344,0.65839
4235.52469,0.65847
4233.59595,0.65848
4231.66720,0.65805
4229.73846,0.65757
4227.80971,0.65745
4225.88097,0.65760
4223.95222,0.65782
4222.02348,0.65781
4220.09473,0.65768
4218.16599,0.65756
4216.23724,0.65712
4214.30850,0.65662
4212.37975,0.65657
4210.45101,0.65688
4208.52226,0.65713
4206.59352,0.65698
4204.66477,0.65639
4202.73602,0.65577
4200.80728,0.65565
4198.87853,0.65589
4196.94979,0.65613
4195.02104,0.65629
4193.09230,0.65626
4191.16355,0.65602
4189.23481,0.65582
4187.30606,0.65588
4185.37732,0.65617
4183.44857,0.65636
4181.51983,0.65619
4179.59108,0.65590
4177.66234,0.65592
4175.73359,0.65612
4173.80484,0.65607
4171.87610,0.65574
4169.94735,0.65529
4168.01861,0.65489
4166.08986,0.65473
4164.16112,0.65495
4162.23237,0.65538
4160.30363,0.65553
4158.37488,0.65531
4156.44614,0.65515
4154.51739,0.65509
4152.58865,0.65473
4150.65990,0.65426
4148.73116,0.65422
4146.80241,0.65466
4144.87367,0.65506
4142.94492,0.65501
4141.01617,0.65459
4139.08743,0.65432
4137.15868,0.65429
4135.22994,0.65405
4133.30119,0.65366
4131.37245,0.65352
4129.44370,0.65374
4127.51496,0.65402
4125.58621,0.65383
4123.65747,0.65325
4121.72872,0.65299
4119.79998,0.65318
4117.87123,0.65321
4115.94249,0.65265
4114.01374,0.65204
4112.08500,0.65195
4110.15625,0.65209
4108.22750,0.65195
4106.29876,0.65156
4104.37001,0.65138
4102.44127,0.65160
4100.51252,0.65187
4098.58378,0.65175
4096.65503,0.65128
4094.72629,0.65091
4092.79754,0.65064
4090.86880,0.65042
4088.94005,0.65042
4087.01131,0.65049
4085.08256,0.65028
4083.15382,0.64986
4081.22507,0.64937
4079.29632,0.64887
4077.36758,0.64860
4075.43883,0.64875
4073.51009,0.64887
4071.58134,0.64859
4069.65260,0.64829
4067.72385,0.64818
4065.79511,0.64818
4063.86636,0.64829
4061.93762,0.64823
4060.00887,0.64782
4058.08013,0.64747
4056.15138,0.64742
4054.22264,0.64737
4052.29389,0.64714
4050.36515,0.64703
4048.43640,0.64709
4046.50765,0.64694
4044.57891,0.64650
4042.65016,0.64601
4040.72142,0.64562
4038.79267,0.64555
4036.86393,0.64573
4034.93518,0.64579
4033.00644,0.64566
4031.07769,0.64569
4029.14895,0.64574
4027.22020,0.64531
4025.29146,0.64452
4023.36271,0.64388
4021.43397,0.64346
4019.50522,0.64343
4017.57648,0.64397
4015.64773,0.64442
4013.71898,0.64419
4011.79024,0.64368
4009.86149,0.64342
4007.93275,0.64342
4006.00400,0.64350
4004.07526,0.64336
4002.14651,0.64303
4000.21777,0.64288
3998.28902,0.64302
3996.36028,0.64319
3994.43153,0.64298
3992.50279,0.64237
3990.57404,0.64194
3988.64530,0.64208
3986.71655,0.64240
3984.78780,0.64247
3982.85906,0.64232
3980.93031,0.64221
3979.00157,0.64219
3977.07282,0.64201
3975.14408,0.64177
3973.21533,0.64178
3971.28659,0.64198
3969.35784,0.64211
3967.42910,0.64222
3965.50035,0.64219
3963.57161,0.64183
3961.64286,0.64149
3959.71412,0.64143
3957.78537,0.64126
3955.85663,0.64092
3953.92788,0.64095
3951.99913,0.64111
3950.07039,0.64078
3948.14164,0.64034
3946.21290,0.64042
3944.28415,0.64078
3942.35541,0.64093
3940.42666,0.64076
3938.49792,0.64046
3936.56917,0.64010
3934.64043,0.63953
3932.71168,0.63886
3930.78294,0.63856
3928.85419,0.63871
3926.92545,0.63902
3924.99670,0.63935
3923.06795,0.63962
3921.13921,0.63965
3919.21046,0.63942
3917.28172,0.63931
3915.35297,0.63939
3913.42423,0.63934
3911.49548,0.63915
3909.56674,0.63916
3907.63799,0.63939
3905.70925,0.63941
3903.78050,0.63906
3901.85176,0.63885
3899.92301,0.63899
3897.99427,0.63917
3896.06552,0.63926
3894.13678,0.63926
3892.20803,0.63904
3890.27928,0.63877
3888.35054,0.63866
3886.42179,0.63849
3884.49305,0.63839
3882.56430,0.63870
3880.63556,0.63881
3878.70681,0.63866
3876.77807,0.63880
3874.84932,0.63894
3872.92058,0.63874
3870.99183,0.63806
3869.06309,0.63722
3867.13434,0.63692
3865.20560,0.63683
3863.27685,0.63651
3861.34811,0.63632
3859.41936,0.63643
3857.49061,0.63690
3855.56187,0.63708
3853.63312,0.63577
3851.70438,0.63444
3849.77563,0.63495
3847.84689,0.63606
3845.91814,0.63659
3843.98940,0.63640
3842.06065,0.63583
3840.13191,0.63527
3838.20316,0.63485
3836.27442,0.63452
3834.34567,0.63418
3832.41693,0.63381
3830.48818,0.63368
3828.55943,0.63376
3826.63069,0.63366
3824.70194,0.63320
3822.77320,0.63235
3820.84445,0.63137
3818.91571,0.63087
3816.98696,0.63047
3815.05822,0.62974
3813.12947,0.62936
3811.20073,0.62947
3809.27198,0.62937
3807.34324,0.62867
3805.41449,0.62815
3803.48575,0.62812
3801.55700,0.62752
3799.62826,0.62637
3797.69951,0.62553
3795.77076,0.62502
3793.84202,0.62477
3791.91327,0.62439
3789.98453,0.62357
3788.05578,0.62286
3786.12704,0.62247
3784.19829,0.62187
3782.26955,0.62109
3780.34080,0.62045
3778.41206,0.61964
3776.48331,0.61826
3774.55457,0.61665
3772.62582,0.61525
3770.69708,0.61398
3768.76833,0.61253
3766.83959,0.61101
3764.91084,0.60958
3762.98209,0.60835
3761.05335,0.60704
3759.12460,0.60511
3757.19586,0.60308
3755.26711,0.60146
3753.33837,0.59946
3751.40962,0.59607
3749.48088,0.59226
3747.55213,0.58977
3745.62339,0.58723
3743.69464,0.58372
3741.76590,0.58107
3739.83715,0.57885
3737.90841,0.57530
3735.97966,0.57029
3734.05091,0.56499
3732.12217,0.56007
3730.19342,0.55540
3728.26468,0.55018
3726.33593,0.54363
3724.40719,0.53614
3722.47844,0.52847
3720.54970,0.52067
3718.62095,0.51271
3716.69221,0.50458
3714.76346,0.49584
3712.83472,0.48540
3710.90597,0.47328
3708.97723,0.46131
3707.04848,0.45020
3705.11974,0.43948
3703.19099,0.42796
3701.26224,0.41498
3699.33350,0.40222
3697.40475,0.39058
3695.47601,0.37914
3693.54726,0.36755
3691.61852,0.35580
3689.68977,0.34309
3687.76103,0.32976
3685.83228,0.31745
3683.90354,0.30596
3681.97479,0.29426
3680.04605,0.28270
3678.11730,0.27170
3676.18856,0.25949
3674.25981,0.24644
3672.33107,0.23528
3670.40232,0.22445
3668.47357,0.21306
3666.54483,0.20266
3664.61608,0.19276
3662.68734,0.18305
3660.75859,0.17408
3658.82985,0.16564
3656.90110,0.15696
3654.97236,0.14854
3653.04361,0.14164
3651.11487,0.13524
3649.18612,0.12792
3647.25738,0.12086
3645.32863,0.11525
3643.39989,0.11044
3641.47114,0.10574
3639.54239,0.10113
3637.61365,0.09691
3635.68490,0.09336
3633.75616,0.09043
3631.82741,0.08779
3629.89867,0.08486
3627.96992,0.08170
3626.04118,0.07929
3624.11243,0.07733
3622.18369,0.07528
3620.25494,0.07334
3618.32620,0.07155
3616.39745,0.07006
3614.46871,0.06887
3612.53996,0.06770
3610.61122,0.06649
3608.68247,0.06541
3606.75372,0.06454
3604.82498,0.06374
3602.89623,0.06294
3600.96749,0.06207
3599.03874,0.06105
3597.11000,0.06001
3595.18125,0.05941
3593.25251,0.05938
3591.32376,0.05927
3589.39502,0.05877
3587.46627,0.05814
3585.53753,0.05745
3583.60878,0.05680
3581.68004,0.05640
3579.75129,0.05608
3577.82254,0.05572
3575.89380,0.05547
3573.96505,0.05536
3572.03631,0.05529
3570.10756,0.05519
3568.17882,0.05498
3566.25007,0.05455
3564.32133,0.05394
3562.39258,0.05335
3560.46384,0.05306
3558.53509,0.05303
3556.60635,0.05290
3554.67760,0.05262
3552.74886,0.05246
3550.82011,0.05252
3548.89137,0.05248
3546.96262,0.05210
3545.03387,0.05170
3543.10513,0.05161
3541.17638,0.05170
3539.24764,0.05170
3537.31889,0.05161
3535.39015,0.05143
3533.46140,0.05111
3531.53266,0.05094
3529.60391,0.05104
3527.67517,0.05096
3525.74642,0.05053
3523.81768,0.05015
3521.88893,0.05031
3519.96019,0.05097
3518.03144,0.05138
3516.10270,0.05109
3514.17395,0.05055
3512.24520,0.05025
3510.31646,0.05007
3508.38771,0.04987
3506.45897,0.04978
3504.53022,0.04978
3502.60148,0.04976
3500.67273,0.04978
3498.74399,0.04993
3496.81524,0.05017
3494.88650,0.05039
3492.95775,0.05049
3491.02901,0.05021
3489.10026,0.04969
3487.17152,0.04952
3485.24277,0.04979
3483.31402,0.05012
3481.38528,0.05012
3479.45653,0.04970
3477.52779,0.04931
3475.59904,0.04939
3473.67030,0.04965
3471.74155,0.04970
3469.81281,0.04959
3467.88406,0.04953
3465.95532,0.04963
3464.02657,0.04975
3462.09783,0.04975
3460.16908,0.04973
3458.24034,0.04989
3456.31159,0.05009
3454.38285,0.05003
3452.45410,0.04984
3450.52535,0.04987
3448.59661,0.05005
3446.66786,0.05007
3444.73912,0.04995
3442.81037,0.04982
3440.88163,0.04964
3438.95288,0.04955
3437.02414,0.04951
3435.09539,0.04950
3433.16665,0.04958
3431.23790,0.04969
3429.30916,0.04992
3427.38041,0.05016
3425.45167,0.05021
3423.52292,0.05023
3421.59418,0.05038
3419.66543,0.05057
3417.73668,0.05058
3415.80794,0.05040
3413.87919,0.05034
3411.95045,0.05027
3410.02170,0.04992
3408.09296,0.04972
3406.16421,0.04994
3404.23547,0.05020
3402.30672,0.05016
3400.37798,0.05005
3398.44923,0.05022
3396.52049,0.05035
3394.59174,0.05025
3392.66300,0.05031
3390.73425,0.05060
3388.80550,0.05080
3386.87676,0.05080
3384.94801,0.05060
3383.01927,0.05043
3381.09052,0.05060
3379.16178,0.05091
3377.23303,0.05096
3375.30429,0.05077
3373.37554,0.05080
3371.44680,0.05128
3369.51805,0.05165
3367.58931,0.05156
3365.66056,0.05136
3363.73182,0.05131
3361.80307,0.05126
3359.87433,0.05138
3357.94558,0.05176
3356.01683,0.05200
3354.08809,0.05187
3352.15934,0.05166
3350.23060,0.05157
3348.30185,0.05139
3346.37311,0.05120
3344.44436,0.05133
3342.51562,0.05152
3340.58687,0.05158
3338.65813,0.05171
3336.72938,0.05196
3334.80064,0.05218
3332.87189,0.05236
3330.94315,0.05260
3329.01440,0.05266
3327.08566,0.05246
3325.15691,0.05227
3323.22816,0.05208
3321.29942,0.05188
3319.37067,0.05204
3317.44193,0.05255
3315.51318,0.05268
3313.58444,0.05233
3311.65569,0.05207
3309.72695,0.05219
3307.79820,0.05260
3305.86946,0.05295
3303.94071,0.05304
3302.01197,0.05290
3300.08322,0.05260
3298.15448,0.05231
3296.22573,0.05241
3294.29698,0.05301
3292.36824,0.05365
3290.43949,0.05394
3288.51075,0.05401
3286.58200,0.05406
3284.65326,0.05417
3282.72451,0.05428
3280.79577,0.05422
3278.86702,0.05400
3276.93828,0.05384
3275.00953,0.05392
3273.08079,0.05418
3271.15204,0.05432
3269.22330,0.05446
3267.29455,0.05488
3265.36581,0.05532
3263.43706,0.05544
3261.50831,0.05533
3259.57957,0.05542
3257.65082,0.05579
3255.72208,0.05593
3253.79333,0.05553
3251.86459,0.05518
3249.93584,0.05556
3248.00710,0.05633
3246.07835,0.05695
3244.14961,0.05738
3242.22086,0.05767
3240.29212,0.05781
3238.36337,0.05791
3236.43463,0.05799
3234.50588,0.05786
3232.57713,0.05750
3230.64839,0.05731
3228.71964,0.05754
3226.79090,0.05802
3224.86215,0.05855
3222.93341,0.05920
3221.00466,0.05984
3219.07592,0.06011
3217.14717,0.05995
3215.21843,0.05985
3213.28968,0.05998
3211.36094,0.06023
3209.43219,0.06058
3207.50345,0.06086
3205.57470,0.06107
3203.64596,0.06135
3201.71721,0.06168
3199.78846,0.06204
3197.85972,0.06231
3195.93097,0.06237
3194.00223,0.06233
3192.07348,0.06241
3190.14474,0.06257
3188.21599,0.06275
3186.28725,0.06306
3184.35850,0.06357
3182.42976,0.06415
3180.50101,0.06458
3178.57227,0.06481
3176.64352,0.06517
3174.71478,0.06553
3172.78603,0.06551
3170.85729,0.06535
3168.92854,0.06541
3166.99979,0.06570
3165.07105,0.06607
3163.14230,0.06634
3161.21356,0.06643
3159.28481,0.06659
3157.35607,0.06708
3155.42732,0.06767
3153.49858,0.06813
3151.56983,0.06859
3149.64109,0.06908
3147.71234,0.06938
3145.78360,0.06960
3143.85485,0.07001
3141.92611,0.07040
3139.99736,0.07058
3138.06861,0.07086
3136.13987,0.07135
3134.21112,0.07172
3132.28238,0.07200
3130.35363,0.07237
3128.42489,0.07273
3126.49614,0.07322
3124.56740,0.07384
3122.63865,0.07436
3120.70991,0.07477
3118.78116,0.07520
3116.85242,0.07572
3114.92367,0.07625
3112.99493,0.07687
3111.06618,0.07760
3109.13744,0.07808
3107.20869,0.07837
3105.27994,0.07895
3103.35120,0.07965
3101.42245,0.08006
3099.49371,0.08051
3097.56496,0.08127
3095.63622,0.08212
3093.70747,0.08295
3091.77873,0.08374
3089.84998,0.08431
3087.92124,0.08458
3085.99249,0.08495
3084.06375,0.08580
3082.13500,0.08690
3080.20626,0.08783
3078.27751,0.08852
3076.34877,0.08914
3074.42002,0.08984
3072.49127,0.09066
3070.56253,0.09149
3068.63378,0.09214
3066.70504,0.09273
3064.77629,0.09346
3062.84755,0.09417
3060.91880,0.09510
3058.99006,0.09638
3057.06131,0.09740
3055.13257,0.09777
3053.20382,0.09808
3051.27508,0.09882
3049.34633,0.09973
3047.41759,0.10044
3045.48884,0.10096
3043.56009,0.10146
3041.63135,0.10215
3039.70260,0.10308
3037.77386,0.10400
3035.84511,0.10472
3033.91637,0.10534
3031.98762,0.10591
3030.05888,0.10660
3028.13013,0.10746
3026.20139,0.10815
3024.27264,0.10871
3022.34390,0.10947
3020.41515,0.11046
3018.48641,0.11150
3016.55766,0.11223
3014.62892,0.11262
3012.70017,0.11300
3010.77142,0.11362
3008.84268,0.11449
3006.91393,0.11536
3004.98519,0.11603
3003.05644,0.11664
3001.12770,0.11725
2999.19895,0.11785
2997.27021,0.11864
2995.34146,0.11951
2993.41272,0.12028
2991.48397,0.12101
2989.55523,0.12174
2987.62648,0.12243
2985.69774,0.12317
2983.76899,0.12407
2981.84025,0.12499
2979.91150,0.12587
2977.98275,0.12700
2976.05401,0.12837
2974.12526,0.12964
2972.19652,0.13072
2970.26777,0.13170
2968.33903,0.13257
2966.41028,0.13351
2964.48154,0.13460
2962.55279,0.13571
2960.62405,0.13676
2958.69530,0.13783
2956.76656,0.13898
2954.83781,0.14024
2952.90907,0.14166
2950.98032,0.14307
2949.05157,0.14435
2947.12283,0.14571
2945.19408,0.14715
2943.26534,0.14846
2941.33659,0.14955
2939.40785,0.15060
2937.47910,0.15179
2935.55036,0.15302
2933.62161,0.15414
2931.69287,0.15517
2929.76412,0.15627
2927.83538,0.15750
2925.90663,0.15892
2923.97789,0.16049
2922.04914,0.16176
2920.12040,0.16275
2918.19165,0.16405
2916.26290,0.16582
2914.33416,0.16762
2912.40541,0.16913
2910.47667,0.17047
2908.54792,0.17190
2906.61918,0.17355
2904.69043,0.17524
2902.76169,0.17677
2900.83294,0.17812
2898.90420,0.17934
2896.97545,0.18049
2895.04671,0.18162
2893.11796,0.18296
2891.18922,0.18448
2889.26047,0.18579
2887.33172,0.18683
2885.40298,0.18785
2883.47423,0.18873
2881.54549,0.18949
2879.61674,0.19044
2877.68800,0.19154
2875.75925,0.19252
2873.83051,0.19339
2871.90176,0.19428
2869.97302,0.19516
2868.04427,0.19602
2866.11553,0.19684
2864.18678,0.19759
2862.25804,0.19837
2860.32929,0.19922
2858.40055,0.20004
2856.47180,0.20089
2854.54305,0.20198
2852.61431,0.20344
2850.68556,0.20524
2848.75682,0.20728
2846.82807,0.20977
2844.89933,0.21267
2842.97058,0.21535
2841.04184,0.21748
2839.11309,0.21938
2837.18435,0.22125
2835.25560,0.22322
2833.32686,0.22534
2831.39811,0.22736
2829.46937,0.22908
2827.54062,0.23077
2825.61188,0.23253
2823.68313,0.23422
2821.75438,0.23596
2819.82564,0.23784
2817.89689,0.23967
2815.96815,0.24145
2814.03940,0.24330
2812.11066,0.24525
2810.18191,0.24737
2808.25317,0.24966
2806.32442,0.25196
2804.39568,0.25419
2802.46693,0.25648
2800.53819,0.25881
2798.60944,0.26107
2796.68070,0.26327
2794.75195,0.26542
2792.82320,0.26754
2790.89446,0.26958
2788.96571,0.27154
2787.03697,0.27353
2785.10822,0.27549
2783.17948,0.27727
2781.25073,0.27903
2779.32199,0.28084
2777.39324,0.28255
2775.46450,0.28416
2773.53575,0.28579
2771.60701,0.28740
2769.67826,0.28891
2767.74952,0.29042
2765.82077,0.29201
2763.89203,0.29356
2761.96328,0.29491
2760.03453,0.29611
2758.10579,0.29723
2756.17704,0.29841
2754.24830,0.29984
2752.31955,0.30139
2750.39081,0.30269
2748.46206,0.30371
2746.53332,0.30478
2744.60457,0.30609
2742.67583,0.30748
2740.74708,0.30860
2738.81834,0.30940
2736.88959,0.31023
2734.96085,0.31134
2733.03210,0.31265
2731.10336,0.31382
2729.17461,0.31479
2727.24586,0.31574
2725.31712,0.31680
2723.38837,0.31806
2721.45963,0.31940
2719.53088,0.32065
2717.60214,0.32192
2715.67339,0.32321
2713.74465,0.32431
2711.81590,0.32539
2709.88716,0.32663
2707.95841,0.32797
2706.02967,0.32939
2704.10092,0.33084
2702.17218,0.33211
2700.24343,0.33325
2698.31468,0.33463
2696.38594,0.33626
2694.45719,0.33791
2692.52845,0.33956
2690.59970,0.34129
2688.67096,0.34295
2686.74221,0.34450
2684.81347,0.34609
2682.88472,0.34776
2680.95598,0.34940
2679.02723,0.35100
2677.09849,0.35260
2675.16974,0.35415
2673.24100,0.35561
2671.31225,0.35701
2669.38351,0.35838
2667.45476,0.35995
2665.52601,0.36181
2663.59727,0.36371
2661.66852,0.36538
2659.73978,0.36676
2657.81103,0.36802
2655.88229,0.36938
2653.95354,0.37080
2652.02480,0.37226
2650.09605,0.37378
2648.16731,0.37534
2646.23856,0.37663
2644.30982,0.37746
2642.38107,0.37819
2640.45233,0.37918
2638.52358,0.38025
2636.59484,0.38115
2634.66609,0.38188
2632.73734,0.38255
2630.80860,0.38325
2628.87985,0.38375
2626.95111,0.38394
2625.02236,0.38415
2623.09362,0.38455
2621.16487,0.38486
2619.23613,0.38503
2617.30738,0.38523
2615.37864,0.38554
2613.44989,0.38584
2611.52115,0.38594
2609.59240,0.38591
2607.66366,0.38596
2605.73491,0.38596
2603.80616,0.38584
2601.87742,0.38581
2599.94867,0.38599
2598.01993,0.38606
2596.09118,0.38597
2594.16244,0.38602
2592.23369,0.38618
2590.30495,0.38624
2588.37620,0.38618
2586.44746,0.38613
2584.51871,0.38608
2582.58997,0.38597
2580.66122,0.38584
2578.73248,0.38572
2576.80373,0.38559
2574.87499,0.38556
2572.94624,0.38576
2571.01749,0.38592
2569.08875,0.38587
2567.16000,0.38585
2565.23126,0.38610
2563.30251,0.38647
2561.37377,0.38671
2559.44502,0.38681
2557.51628,0.38694
2555.58753,0.38719
2553.65879,0.38765
2551.73004,0.38831
2549.80130,0.38896
2547.87255,0.38932
2545.94381,0.38957
2544.01506,0.39010
2542.08631,0.39084
2540.15757,0.39143
2538.22882,0.39176
2536.30008,0.39203
2534.37133,0.39238
2532.44259,0.39271
2530.51384,0.39296
2528.58510,0.39332
2526.65635,0.39385
2524.72761,0.39435
2522.79886,0.39477
2520.87012,0.39519
2518.94137,0.39560
2517.01263,0.39604
2515.08388,0.39651
2513.15514,0.39700
2511.22639,0.39741
2509.29764,0.39775
2507.36890,0.39815
2505.44015,0.39867
2503.51141,0.39922
2501.58266,0.39968
2499.65392,0.40002
2497.72517,0.40035
2495.79643,0.40057
2493.86768,0.40057
2491.93894,0.40056
2490.01019,0.40069
2488.08145,0.40087
2486.15270,0.40086
2484.22396,0.40070
2482.29521,0.40054
2480.36647,0.40021
2478.43772,0.39968
2476.50897,0.39939
2474.58023,0.39935
2472.65148,0.39918
2470.72274,0.39879
2468.79399,0.39833
2466.86525,0.39791
2464.93650,0.39754
2463.00776,0.39711
2461.07901,0.39648
2459.15027,0.39576
2457.22152,0.39524
2455.29278,0.39482
2453.36403,0.39426
2451.43529,0.39357
2449.50654,0.39293
2447.57779,0.39237
2445.64905,0.39198
2443.72030,0.39177
2441.79156,0.39145
2439.86281,0.39089
2437.93407,0.39036
2436.00532,0.39014
2434.07658,0.39014
2432.14783,0.39017
2430.21909,0.39020
2428.29034,0.39014
2426.36160,0.39008
2424.43285,0.39020
2422.50411,0.39044
2420.57536,0.39071
2418.64662,0.39104
2416.71787,0.39146
2414.78912,0.39198
2412.86038,0.39256
2410.93163,0.39319
2409.00289,0.39389
2407.07414,0.39458
2405.14540,0.39528
2403.21665,0.39610
2401.28791,0.39695
2399.35916,0.39781
2397.43042,0.39871
2395.50167,0.39960
2393.57293,0.40047
2391.64418,0.40132
2389.71544,0.40220
2387.78669,0.40322
2385.85795,0.40430
2383.92920,0.40539
2382.00045,0.40652
2380.07171,0.40751
2378.14296,0.40833
2376.21422,0.40907
2374.28547,0.40974
2372.35673,0.41051
2370.42798,0.41147
2368.49924,0.41222
2366.57049,0.41273
2364.64175,0.41331
2362.71300,0.41392
2360.78426,0.41438
2358.85551,0.41480
2356.92677,0.41517
2354.99802,0.41535
2353.06927,0.41539
2351.14053,0.41545
2349.21178,0.41553
2347.28304,0.41549
2345.35429,0.41536
2343.42555,0.41518
2341.49680,0.41496
2339.56806,0.41477
2337.63931,0.41459
2335.71057,0.41426
2333.78182,0.41387
2331.85308,0.41357
2329.92433,0.41321
2327.99559,0.41277
2326.06684,0.41227
2324.13810,0.41170
2322.20935,0.41111
2320.28060,0.41046
2318.35186,0.40975
2316.42311,0.40901
2314.49437,0.40832
2312.56562,0.40776
2310.63688,0.40729
2308.70813,0.40674
2306.77939,0.40603
2304.85064,0.40526
2302.92190,0.40453
2300.99315,0.40401
2299.06441,0.40371
2297.13566,0.40351
2295.20692,0.40333
2293.27817,0.40307
2291.34943,0.40287
2289.42068,0.40285
2287.49193,0.40286
2285.56319,0.40276
2283.63444,0.40274
2281.70570,0.40293
2279.77695,0.40324
2277.84821,0.40357
2275.91946,0.40396
2273.99072,0.40442
2272.06197,0.40482
2270.13323,0.40526
2268.20448,0.40583
2266.27574,0.40647
2264.34699,0.40720
2262.41825,0.40804
2260.48950,0.40894
2258.56075,0.40977
2256.63201,0.41048
2254.70326,0.41131
2252.77452,0.41230
2250.84577,0.41333
2248.91703,0.41439
2246.98828,0.41538
2245.05954,0.41614
2243.13079,0.41681
2241.20205,0.41755
2239.27330,0.41835
2237.34456,0.41916
2235.41581,0.41990
2233.48707,0.42041
2231.55832,0.42082
2229.62958,0.42141
2227.70083,0.42210
2225.77208,0.42260
2223.84334,0.42293
2221.91459,0.42322
2219.98585,0.42341
2218.05710,0.42340
2216.12836,0.42330
2214.19961,0.42318
2212.27087,0.42299
2210.34212,0.42261
2208.41338,0.42204
2206.48463,0.42146
2204.55589,0.42094
2202.62714,0.42036
2200.69840,0.41965
2198.76965,0.41886
2196.84090,0.41806
2194.91216,0.41723
2192.98341,0.41630
2191.05467,0.41531
2189.12592,0.41433
2187.19718,0.41336
2185.26843,0.41216
2183.33969,0.41071
2181.41094,0.40938
2179.48220,0.40834
2177.55345,0.40734
2175.62471,0.40631
2173.69596,0.40526
2171.76722,0.40403
2169.83847,0.40274
2167.90973,0.40159
2165.98098,0.40053
2164.05223,0.39958
2162.12349,0.39877
2160.19474,0.39799
2158.26600,0.39714
2156.33725,0.39629
2154.40851,0.39556
2152.47976,0.39493
2150.55102,0.39444
2148.62227,0.39414
2146.69353,0.39396
2144.76478,0.39386
2142.83604,0.39386
2140.90729,0.39399
2138.97855,0.39422
2137.04980,0.39452
2135.12106,0.39491
2133.19231,0.39548
2131.26356,0.39623
2129.33482,0.39720
2127.40607,0.39829
2125.47733,0.39941
2123.54858,0.40061
2121.61984,0.40188
2119.69109,0.40323
2117.76235,0.40471
2115.83360,0.40614
2113.90486,0.40730
2111.97611,0.40837
2110.04737,0.40968
2108.11862,0.41123
2106.18988,0.41269
2104.26113,0.41406
2102.33238,0.41545
2100.40364,0.41667
2098.47489,0.41773
2096.54615,0.41899
2094.61740,0.42035
2092.68866,0.42156
2090.75991,0.42267
2088.83117,0.42373
2086.90242,0.42463
2084.97368,0.42542
2083.04493,0.42621
2081.11619,0.42698
2079.18744,0.42769
2077.25870,0.42816
2075.32995,0.42836
2073.40121,0.42850
2071.47246,0.42869
2069.54371,0.42880
2067.61497,0.42870
2065.68622,0.42846
2063.75748,0.42820
2061.82873,0.42790
2059.89999,0.42750
2057.97124,0.42708
2056.04250,0.42667
2054.11375,0.42618
2052.18501,0.42560
2050.25626,0.42492
2048.32752,0.42406
2046.39877,0.42311
2044.47003,0.42221
2042.54128,0.42134
2040.61254,0.42047
2038.68379,0.41976
2036.75504,0.41920
2034.82630,0.41850
2032.89755,0.41766
2030.96881,0.41687
2029.04006,0.41618
2027.11132,0.41548
2025.18257,0.41487
2023.25383,0.41457
2021.32508,0.41441
2019.39634,0.41414
2017.46759,0.41385
2015.53885,0.41371
2013.61010,0.41377
2011.68136,0.41401
2009.75261,0.41432
2007.82386,0.41467
2005.89512,0.41515
2003.96637,0.41583
2002.03763,0.41666
2000.10888,0.41749
1998.18014,0.41841
1996.25139,0.41947
1994.32265,0.42056
1992.39390,0.42181
1990.46516,0.42337
1988.53641,0.42501
1986.60767,0.42643
1984.67892,0.42780
1982.75018,0.42931
1980.82143,0.43105
1978.89269,0.43305
1976.96394,0.43503
1975.03519,0.43682
1973.10645,0.43864
1971.17770,0.44058
1969.24896,0.44239
1967.32021,0.44393
1965.39147,0.44541
1963.46272,0.44706
1961.53398,0.44871
1959.60523,0.45014
1957.67649,0.45159
1955.74774,0.45319
1953.81900,0.45461
1951.89025,0.45562
1949.96151,0.45643
1948.03276,0.45740
1946.10402,0.45846
1944.17527,0.45923
1942.24652,0.45966
1940.31778,0.45997
1938.38903,0.46022
1936.46029,0.46029
1934.53154,0.46030
1932.60280,0.46024
1930.67405,0.45999
1928.74531,0.45960
1926.81656,0.45918
1924.88782,0.45862
1922.95907,0.45776
1921.03033,0.45664
1919.10158,0.45538
1917.17284,0.45410
1915.24409,0.45292
1913.31534,0.45184
1911.38660,0.45067
1909.45785,0.44918
1907.52911,0.44747
1905.60036,0.44587
1903.67162,0.44446
1901.74287,0.44306
1899.81413,0.44159
1897.88538,0.44017
1895.95664,0.43883
1894.02789,0.43761
1892.09915,0.43647
1890.17040,0.43530
1888.24166,0.43420
1886.31291,0.43324
1884.38417,0.43238
1882.45542,0.43161
1880.52667,0.43098
1878.59793,0.43048
1876.66918,0.43002
1874.74044,0.42974
1872.81169,0.42973
1870.88295,0.42972
1868.95420,0.42972
1867.02546,0.43005
1865.09671,0.43067
1863.16797,0.43130
1861.23922,0.43191
1859.31048,0.43273
1857.38173,0.43396
1855.45299,0.43534
1853.52424,0.43658
1851.59549,0.43776
1849.66675,0.43905
1847.73800,0.44042
1845.80926,0.44178
1843.88051,0.44315
1841.95177,0.44458
1840.02302,0.44605
1838.09428,0.44758
1836.16553,0.44916
1834.23679,0.45073
1832.30804,0.45211
1830.37930,0.45323
1828.45055,0.45426
1826.52181,0.45526
1824.59306,0.45625
1822.66432,0.45727
1820.73557,0.45816
1818.80682,0.45879
1816.87808,0.45919
1814.94933,0.45938
1813.02059,0.45929
1811.09184,0.45893
1809.16310,0.45839
1807.23435,0.45749
1805.30561,0.45608
1803.37686,0.45433
1801.44812,0.45244
1799.51937,0.45066
1797.59063,0.44917
1795.66188,0.44771
1793.73314,0.44589
1791.80439,0.44392
1789.87565,0.44240
1787.94690,0.44109
1786.01815,0.43936
1784.08941,0.43715
1782.16066,0.43475
1780.23192,0.43225
1778.30317,0.42962
1776.37443,0.42685
1774.44568,0.42363
1772.51694,0.41975
1770.58819,0.41587
1768.65945,0.41240
1766.73070,0.40906
1764.80196,0.40570
1762.87321,0.40186
1760.94447,0.39764
1759.01572,0.39370
1757.08697,0.38970
1755.15823,0.38556
1753.22948,0.38151
1751.30074,0.37689
1749.37199,0.37170
1747.44325,0.36687
1745.51450,0.36262
1743.58576,0.35866
1741.65701,0.35481
1739.72827,0.35086
1737.79952,0.34711
1735.87078,0.34303
1733.94203,0.33720
1732.01329,0.33066
1730.08454,0.32438
1728.15580,0.31718
1726.22705,0.30904
1724.29830,0.30068
1722.36956,0.29339
1720.44081,0.28855
1718.51207,0.28612
1716.58332,0.28532
1714.65458,0.28465
1712.72583,0.28253
1710.79709,0.27795
1708.86834,0.27075
1706.93960,0.26115
1705.01085,0.25047
1703.08211,0.24099
1701.15336,0.23231
1699.22462,0.22444
1697.29587,0.21939
1695.36713,0.21647
1693.43838,0.21506
1691.50963,0.21481
1689.58089,0.21515
1687.65214,0.21593
1685.72340,0.21692
1683.79465,0.21789
1681.86591,0.21870
1679.93716,0.21924
1678.00842,0.21940
1676.07967,0.21887
1674.15093,0.21756
1672.22218,0.21577
1670.29344,0.21328
1668.36469,0.21009
1666.43595,0.20691
1664.50720,0.20343
1662.57845,0.19922
1660.64971,0.19498
1658.72096,0.19104
1656.79222,0.18728
1654.86347,0.18309
1652.93473,0.17708
1651.00598,0.17125
1649.07724,0.16695
1647.14849,0.16209
1645.21975,0.15676
1643.29100,0.15251
1641.36226,0.14879
1639.43351,0.14485
1637.50477,0.14064
1635.57602,0.13604
1633.64728,0.13180
1631.71853,0.12841
1629.78978,0.12527
1627.86104,0.12224
1625.93229,0.11947
1624.00355,0.11690
1622.07480,0.11462
1620.14606,0.11273
1618.21731,0.11085
1616.28857,0.10909
1614.35982,0.10822
1612.43108,0.10806
1610.50233,0.10830
1608.57359,0.10900
1606.64484,0.11019
1604.71610,0.11189
1602.78735,0.11410
1600.85861,0.11681
1598.92986,0.11990
1597.00111,0.12301
1595.07237,0.12595
1593.14362,0.12875
1591.21488,0.13135
1589.28613,0.13379
1587.35739,0.13616
1585.42864,0.13863
1583.49990,0.14144
1581.57115,0.14461
1579.64241,0.14817
1577.71366,0.15242
1575.78492,0.15761
1573.85617,0.16280
1571.92743,0.16793
1569.99868,0.17409
1568.06993,0.18103
1566.14119,0.18793
1564.21244,0.19470
1562.28370,0.20089
1560.35495,0.20727
1558.42621,0.21529
1556.49746,0.22262
1554.56872,0.22852
1552.63997,0.23395
1550.71123,0.23882
1548.78248,0.24301
1546.85374,0.24644
1544.92499,0.24930
1542.99625,0.25162
1541.06750,0.25334
1539.13876,0.25491
1537.21001,0.25631
1535.28126,0.25707
1533.35252,0.25727
1531.42377,0.25718
1529.49503,0.25657
1527.56628,0.25519
1525.63754,0.25307
1523.70879,0.25034
1521.78005,0.24697
1519.85130,0.24337
1517.92256,0.23981
1515.99381,0.23603
1514.06507,0.23243
1512.13632,0.22907
1510.20758,0.22564
1508.27883,0.22186
1506.35008,0.21786
1504.42134,0.21503
1502.49259,0.21319
1500.56385,0.21131
1498.63510,0.20904
1496.70636,0.20636
1494.77761,0.20380
1492.84887,0.20170
1490.92012,0.19949
1488.99138,0.19690
1487.06263,0.19459
1485.13389,0.19295
1483.20514,0.19173
1481.27640,0.19055
1479.34765,0.18934
1477.41891,0.18833
1475.49016,0.18772
1473.56141,0.18739
1471.63267,0.18712
1469.70392,0.18715
1467.77518,0.18777
1465.84643,0.18899
1463.91769,0.19064
1461.98894,0.19250
1460.06020,0.19463
1458.13145,0.19750
1456.20271,0.20139
1454.27396,0.20538
1452.34522,0.20919
1450.41647,0.21313
1448.48773,0.21709
1446.55898,0.22068
1444.63024,0.22340
1442.70149,0.22497
1440.77274,0.22537
1438.84400,0.22465
1436.91525,0.22305
1434.98651,0.22123
1433.05776,0.21970
1431.12902,0.21829
1429.20027,0.21706
1427.27153,0.21625
1425.34278,0.21564
1423.41404,0.21479
1421.48529,0.21336
1419.55655,0.21111
1417.62780,0.20816
1415.69906,0.20494
1413.77031,0.20132
1411.84156,0.19723
1409.91282,0.19275
1407.98407,0.18788
1406.05533,0.18248
1404.12658,0.17642
1402.19784,0.16985
1400.26909,0.16246
1398.34035,0.15425
1396.41160,0.14588
1394.48286,0.13735
1392.55411,0.12908
1390.62537,0.12158
1388.69662,0.11425
1386.76788,0.10681
1384.83913,0.10003
1382.91039,0.09420
1380.98164,0.08908
1379.05289,0.08447
1377.12415,0.08032
1375.19540,0.07680
1373.26666,0.07392
1371.33791,0.07142
1369.40917,0.06908
1367.48042,0.06710
1365.55168,0.06550
1363.62293,0.06392
1361.69419,0.06232
1359.76544,0.06092
1357.83670,0.05950
1355.90795,0.05792
1353.97921,0.05652
1352.05046,0.05543
1350.12172,0.05459
1348.19297,0.05400
1346.26422,0.05346
1344.33548,0.05267
1342.40673,0.05172
1340.47799,0.05079
1338.54924,0.04976
1336.62050,0.04859
1334.69175,0.04751
1332.76301,0.04648
1330.83426,0.04538
1328.90552,0.04430
1326.97677,0.04328
1325.04803,0.04228
1323.11928,0.04131
1321.19054,0.04023
1319.26179,0.03903
1317.33304,0.03795
1315.40430,0.03695
1313.47555,0.03585
1311.54681,0.03475
1309.61806,0.03377
1307.68932,0.03277
1305.76057,0.03163
1303.83183,0.03045
1301.90308,0.02938
1299.97434,0.02842
1298.04559,0.02744
1296.11685,0.02651
1294.18810,0.02568
1292.25936,0.02495
1290.33061,0.02428
1288.40187,0.02362
1286.47312,0.02309
1284.54437,0.02281
1282.61563,0.02265
1280.68688,0.02241
1278.75814,0.02211
1276.82939,0.02202
1274.90065,0.02225
1272.97190,0.02260
1271.04316,0.02294
1269.11441,0.02317
1267.18567,0.02322
1265.25692,0.02320
1263.32818,0.02327
1261.39943,0.02340
1259.47069,0.02355
1257.54194,0.02368
1255.61320,0.02374
1253.68445,0.02382
1251.75570,0.02398
1249.82696,0.02416
1247.89821,0.02427
1245.96947,0.02428
1244.04072,0.02426
1242.11198,0.02436
1240.18323,0.02454
1238.25449,0.02457
1236.32574,0.02436
1234.39700,0.02410
1232.46825,0.02399
1230.53951,0.02396
1228.61076,0.02394
1226.68202,0.02394
1224.75327,0.02396
1222.82452,0.02397
1220.89578,0.02398
1218.96703,0.02400
1217.03829,0.02398
1215.10954,0.02393
1213.18080,0.02391
1211.25205,0.02392
1209.32331,0.02388
1207.39456,0.02384
1205.46582,0.02384
1203.53707,0.02377
1201.60833,0.02364
1199.67958,0.02363
1197.75084,0.02378
1195.82209,0.02406
1193.89335,0.02424
1191.96460,0.02416
1190.03585,0.02405
1188.10711,0.02422
1186.17836,0.02463
1184.24962,0.02497
1182.32087,0.02516
1180.39213,0.02548
1178.46338,0.02586
1176.53464,0.02600
1174.60589,0.02600
1172.67715,0.02604
1170.74840,0.02632
1168.81966,0.02683
1166.89091,0.02715
1164.96217,0.02699
1163.03342,0.02672
1161.10467,0.02680
1159.17593,0.02718
1157.24718,0.02763
1155.31844,0.02800
1153.38969,0.02818
1151.46095,0.02823
1149.53220,0.02845
1147.60346,0.02893
1145.67471,0.02937
1143.74597,0.02949
1141.81722,0.02936
1139.88848,0.02945
1137.95973,0.03002
1136.03099,0.03061
1134.10224,0.03070
1132.17350,0.03052
1130.24475,0.03051
1128.31600,0.03074
1126.38726,0.03107
1124.45851,0.03138
1122.52977,0.03158
1120.60102,0.03172
1118.67228,0.03181
1116.74353,0.03184
1114.81479,0.03196
1112.88604,0.03216
1110.95730,0.03218
1109.02855,0.03192
1107.09981,0.03167
1105.17106,0.03167
1103.24232,0.03173
1101.31357,0.03159
1099.38483,0.03128
1097.45608,0.03104
1095.52733,0.03105
1093.59859,0.03115
1091.66984,0.03128
1089.74110,0.03155
1087.81235,0.03188
1085.88361,0.03195
1083.95486,0.03154
1082.02612,0.03087
1080.09737,0.03049
1078.16863,0.03043
1076.23988,0.03036
1074.31114,0.03040
1072.38239,0.03056
1070.45365,0.03054
1068.52490,0.03048
1066.59615,0.03039
1064.66741,0.03011
1062.73866,0.02973
1060.80992,0.02945
1058.88117,0.02938
1056.95243,0.02950
1055.02368,0.02959
1053.09494,0.02935
1051.16619,0.02908
1049.23745,0.02913
1047.30870,0.02909
1045.37996,0.02856
1043.45121,0.02779
1041.52247,0.02733
1039.59372,0.02735
1037.66498,0.02748
1035.73623,0.02748
1033.80748,0.02742
1031.87874,0.02738
1029.94999,0.02730
1028.02125,0.02701
1026.09250,0.02645
1024.16376,0.02579
1022.23501,0.02524
1020.30627,0.02500
1018.37752,0.02502
1016.44878,0.02488
1014.52003,0.02435
1012.59129,0.02365
1010.66254,0.02303
1008.73380,0.02264
1006.80505,0.02249
1004.87631,0.02231
1002.94756,0.02207
1001.01881,0.02199
999.09007,0.02201
997.16132,0.02196
995.23258,0.02188
993.30383,0.02180
991.37509,0.02179
989.44634,0.02195
987.51760,0.02207
985.58885,0.02190
983.66011,0.02163
981.73136,0.02157
979.80262,0.02173
977.87387,0.02186
975.94513,0.02206
974.01638,0.02249
972.08763,0.02311
970.15889,0.02372
968.23014,0.02416
966.30140,0.02446
964.37265,0.02486
962.44391,0.02543
960.51516,0.02609
958.58642,0.02704
956.65767,0.02830
954.72893,0.02939
952.80018,0.03028
950.87144,0.03145
948.94269,0.03288
947.01395,0.03420
945.08520,0.03548
943.15646,0.03682
941.22771,0.03814
939.29896,0.03949
937.37022,0.04098
935.44147,0.04262
933.51273,0.04437
931.58398,0.04608
929.65524,0.04770
927.72649,0.04931
925.79775,0.05083
923.86900,0.05229
921.94026,0.05388
920.01151,0.05568
918.08277,0.05750
916.15402,0.05917
914.22528,0.06062
912.29653,0.06202
910.36779,0.06351
908.43904,0.06516
906.51029,0.06713
904.58155,0.06924
902.65280,0.07096
900.72406,0.07233
898.79531,0.07374
896.86657,0.07537
894.93782,0.07715
893.00908,0.07866
891.08033,0.07987
889.15159,0.08127
887.22284,0.08278
885.29410,0.08415
883.36535,0.08542
881.43661,0.08659
879.50786,0.08798
877.57911,0.08972
875.65037,0.09126
873.72162,0.09237
871.79288,0.09355
869.86413,0.09507
867.93539,0.09670
866.00664,0.09838
864.07790,0.10006
862.14915,0.10156
860.22041,0.10301
858.29166,0.10448
856.36292,0.10586
854.43417,0.10716
852.50543,0.10842
850.57668,0.10953
848.64794,0.11051
846.71919,0.11160
844.79044,0.11298
842.86170,0.11455
840.93295,0.11599
839.00421,0.11724
837.07546,0.11847
835.14672,0.11953
833.21797,0.12031
831.28923,0.12106
829.36048,0.12194
827.43174,0.12296
825.50299,0.12400
823.57425,0.12496
821.64550,0.12601
819.71676,0.12729
817.78801,0.12856
815.85926,0.12969
813.93052,0.13070
812.00177,0.13165
810.07303,0.13263
808.14428,0.13338
806.21554,0.13366
804.28679,0.13406
802.35805,0.13496
800.42930,0.13592
798.50056,0.13662
796.57181,0.13712
794.64307,0.13758
792.71432,0.13831
790.78558,0.13948
788.85683,0.14059
786.92809,0.14123
784.99934,0.14164
783.07059,0.14196
781.14185,0.14217
779.21310,0.14251
777.28436,0.14304
775.35561,0.14338
773.42687,0.14337
771.49812,0.14337
769.56938,0.14371
767.64063,0.14436
765.71189,0.14511
763.78314,0.14572
761.85440,0.14598
759.92565,0.14620
757.99691,0.14677
756.06816,0.14730
754.13942,0.14757
752.21067,0.14816
750.28192,0.14909
748.35318,0.14955
746.42443,0.14932
744.49569,0.14914
742.56694,0.14955
740.63820,0.15041
738.70945,0.15137
736.78071,0.15225
734.85196,0.15272
732.92322,0.15262
730.99447,0.15271
729.06573,0.15358
727.13698,0.15467
725.20824,0.15538
723.27949,0.15582
721.35074,0.15627
719.42200,0.15668
717.49325,0.15692
715.56451,0.15703
713.63576,0.15702
711.70702,0.15702
709.77827,0.15754
707.84953,0.15853
705.92078,0.15937
703.99204,0.15997
702.06329,0.16064
700.13455,0.16141
698.20580,0.16192
696.27706,0.16201
694.34831,0.16206
692.41957,0.16243
690.49082,0.16277
688.56207,0.16281
686.63333,0.16313
684.70458,0.16404
682.77584,0.16461
680.84709,0.16430
678.91835,0.16396
676.98960,0.16444
675.06086,0.16538
673.13211,0.16615
671.20337,0.16661
669.27462,0.16681
667.34588,0.16676
665.41713,0.16693
663.48839,0.16767
661.55964,0.16804
659.63090,0.16752
657.70215,0.16711
655.77340,0.16747
653.84466,0.16799
651.91591,0.16773
649.98717,0.16723
648.05842,0.16782
646.12968,0.16922
644.20093,0.17011
642.27219,0.17004
640.34344,0.16962
638.41470,0.16985
636.48595,0.17065
634.55721,0.17110
632.62846,0.17121
630.69972,0.17170
628.77097,0.17283
626.84222,0.17381
624.91348,0.17387
622.98473,0.17360
621.05599,0.17352
619.12724,0.17318
617.19850,0.17225
615.26975,0.17191
613.34101,0.17348
611.41226,0.17552
609.48352,0.17624
607.55477,0.17677
605.62603,0.17830
603.69728,0.17911
601.76854,0.17779
599.83979,0.17563
