7497.03301,0.60278
7495.10426,0.60084
7493.17552,0.60315
7491.24677,0.60889
7489.31803,0.61223
7487.38928,0.60716
7485.46054,0.60254
7483.53179,0.60623
7481.60305,0.60968
7479.67430,0.60739
7477.74556,0.60261
7475.81681,0.59863
7473.88807,0.59894
7471.95932,0.60247
7470.03057,0.60626
7468.10183,0.60891
7466.17308,0.60664
7464.24434,0.60145
7462.31559,0.59966
7460.38685,0.60083
7458.45810,0.60110
7456.52936,0.59876
7454.60061,0.59752
7452.67187,0.59994
7450.74312,0.60136
7448.81438,0.60150
7446.88563,0.60232
7444.95689,0.60106
7443.02814,0.59911
7441.09940,0.60036
7439.17065,0.60411
7437.24190,0.60563
7435.31316,0.60242
7433.38441,0.59949
7431.45567,0.60067
7429.52692,0.60384
7427.59818,0.60562
7425.66943,0.60409
7423.74069,0.60214
7421.81194,0.60289
7419.88320,0.60296
7417.95445,0.60013
7416.02571,0.59722
7414.09696,0.59598
7412.16822,0.59629
7410.23947,0.59610
7408.31073,0.59562
7406.38198,0.59886
7404.45323,0.60253
7402.52449,0.60096
7400.59574,0.59703
7398.66700,0.59533
7396.73825,0.59639
7394.80951,0.59563
7392.88076,0.59285
7390.95202,0.59403
7389.02327,0.59799
7387.09453,0.60133
7385.16578,0.60500
7383.23704,0.60827
7381.30829,0.60928
7379.37955,0.60779
7377.45080,0.60592
7375.52205,0.60527
7373.59331,0.60482
7371.66456,0.60455
7369.73582,0.60540
7367.80707,0.60709
7365.87833,0.60801
7363.94958,0.60681
7362.02084,0.60545
7360.09209,0.60553
7358.16335,0.60449
7356.23460,0.60229
7354.30586,0.60311
7352.37711,0.60811
7350.44837,0.61217
7348.51962,0.60837
7346.59088,0.59858
7344.66213,0.59299
7342.73338,0.59528
7340.80464,0.59980
7338.87589,0.60214
7336.94715,0.60215
7335.01840,0.60138
7333.08966,0.60211
7331.16091,0.60376
7329.23217,0.60452
7327.30342,0.60376
7325.37468,0.60255
7323.44593,0.60440
7321.51719,0.60818
7319.58844,0.60928
7317.65970,0.60673
7315.73095,0.60207
7313.80221,0.59807
7311.87346,0.59675
7309.94471,0.59810
7308.01597,0.60113
7306.08722,0.60392
7304.15848,0.60386
7302.22973,0.60239
7300.30099,0.60322
7298.37224,0.60337
7296.44350,0.60166
7294.51475,0.60250
7292.58601,0.60361
7290.65726,0.60336
7288.72852,0.60483
7286.79977,0.60452
7284.87103,0.60037
7282.94228,0.59771
7281.01353,0.59695
7279.08479,0.59539
7277.15604,0.59561
7275.22730,0.59969
7273.29855,0.60445
7271.36981,0.60596
7269.44106,0.60396
7267.51232,0.60180
7265.58357,0.60177
7263.65483,0.60154
7261.72608,0.59964
7259.79734,0.59854
7257.86859,0.59873
7255.93985,0.59908
7254.01110,0.60016
7252.08236,0.60197
7250.15361,0.60325
7248.22486,0.60358
7246.29612,0.60365
7244.36737,0.60467
7242.43863,0.60585
7240.50988,0.60449
7238.58114,0.60276
7236.65239,0.60389
7234.72365,0.60458
7232.79490,0.60221
7230.86616,0.59962
7228.93741,0.59844
7227.00867,0.59691
7225.07992,0.59481
7223.15118,0.59349
7221.22243,0.59286
7219.29369,0.59374
7217.36494,0.59670
7215.43619,0.59907
7213.50745,0.59942
7211.57870,0.59969
7209.64996,0.60063
7207.72121,0.60081
7205.79247,0.59987
7203.86372,0.60094
7201.93498,0.60610
7200.00623,0.60891
7198.07749,0.60558
7196.14874,0.60253
7194.22000,0.60199
7192.29125,0.60039
7190.36251,0.59825
7188.43376,0.59970
7186.50501,0.60458
7184.57627,0.60709
7182.64752,0.60483
7180.71878,0.60163
7178.79003,0.60073
7176.86129,0.60213
7174.93254,0.60455
7173.00380,0.60515
7171.07505,0.60327
7169.14631,0.60136
7167.21756,0.59910
7165.28882,0.59877
7163.36007,0.60317
7161.43133,0.60631
7159.50258,0.60399
7157.57384,0.60051
7155.64509,0.60050
7153.71634,0.60291
7151.78760,0.60258
7149.85885,0.59921
7147.93011,0.59780
7146.00136,0.59930
7144.07262,0.60046
7142.14387,0.60208
7140.21513,0.60588
7138.28638,0.60748
7136.35764,0.60565
7134.42889,0.60469
7132.50015,0.60430
7130.57140,0.60360
7128.64266,0.60404
7126.71391,0.60363
7124.78516,0.60208
7122.85642,0.60191
7120.92767,0.60361
7118.99893,0.60743
7117.07018,0.60997
7115.14144,0.60638
7113.21269,0.60015
7111.28395,0.59750
7109.35520,0.59969
7107.42646,0.60413
7105.49771,0.60718
7103.56897,0.60854
7101.64022,0.61061
7099.71148,0.61216
7097.78273,0.61021
7095.85399,0.60631
7093.92524,0.60383
7091.99649,0.60361
7090.06775,0.60461
7088.13900,0.60562
7086.21026,0.60689
7084.28151,0.60810
7082.35277,0.60863
7080.42402,0.60935
7078.49528,0.60886
7076.56653,0.60602
7074.63779,0.60434
7072.70904,0.60495
7070.78030,0.60486
7068.85155,0.60443
7066.92281,0.60549
7064.99406,0.60580
7063.06532,0.60401
7061.13657,0.60329
7059.20782,0.60546
7057.27908,0.60755
7055.35033,0.60750
7053.42159,0.60732
7051.49284,0.60806
7049.56410,0.60777
7047.63535,0.60479
7045.70661,0.60096
7043.77786,0.60087
7041.84912,0.60465
7039.92037,0.60674
7037.99163,0.60532
7036.06288,0.60433
7034.13414,0.60522
7032.20539,0.60554
7030.27664,0.60497
7028.34790,0.60647
7026.41915,0.60987
7024.49041,0.60978
7022.56166,0.60471
7020.63292,0.60117
7018.70417,0.60246
7016.77543,0.60511
7014.84668,0.60635
7012.91794,0.60625
7010.98919,0.60696
7009.06045,0.60834
7007.13170,0.60697
7005.20296,0.60378
7003.27421,0.60251
7001.34547,0.60316
6999.41672,0.60260
6997.48797,0.59989
6995.55923,0.59864
6993.63048,0.60123
6991.70174,0.60569
6989.77299,0.60889
6987.84425,0.60947
6985.91550,0.60849
6983.98676,0.60700
6982.05801,0.60534
6980.12927,0.60464
6978.20052,0.60604
6976.27178,0.60849
6974.34303,0.61004
6972.41429,0.61054
6970.48554,0.61063
6968.55680,0.61097
6966.62805,0.61159
6964.69930,0.61136
6962.77056,0.61099
6960.84181,0.61134
6958.91307,0.61122
6956.98432,0.61072
6955.05558,0.60998
6953.12683,0.60910
6951.19809,0.60951
6949.26934,0.61042
6947.34060,0.61112
6945.41185,0.61196
6943.48311,0.61231
6941.55436,0.61253
6939.62562,0.61182
6937.69687,0.60915
6935.76812,0.60700
6933.83938,0.60740
6931.91063,0.60873
6929.98189,0.60946
6928.05314,0.61038
6926.12440,0.61066
6924.19565,0.61025
6922.26691,0.61151
6920.33816,0.61293
6918.40942,0.61157
6916.48067,0.60839
6914.55193,0.60669
6912.62318,0.60788
6910.69444,0.60957
6908.76569,0.60994
6906.83695,0.60919
6904.90820,0.60770
6902.97945,0.60709
6901.05071,0.60847
6899.12196,0.60995
6897.19322,0.60924
6895.26447,0.60725
6893.33573,0.60652
6891.40698,0.60684
6889.47824,0.60780
6887.54949,0.61029
6885.62075,0.61173
6883.69200,0.61041
6881.76326,0.60967
6879.83451,0.61073
6877.90577,0.61183
6875.97702,0.61332
6874.04828,0.61555
6872.11953,0.61610
6870.19078,0.61417
6868.26204,0.61221
6866.33329,0.61182
6864.40455,0.61321
6862.47580,0.61535
6860.54706,0.61572
6858.61831,0.61389
6856.68957,0.61246
6854.76082,0.61193
6852.83208,0.61035
6850.90333,0.60914
6848.97459,0.61029
6847.04584,0.61233
6845.11710,0.61336
6843.18835,0.61290
6841.25960,0.61264
6839.33086,0.61340
6837.40211,0.61392
6835.47337,0.61384
6833.54462,0.61287
6831.61588,0.61168
6829.68713,0.61177
6827.75839,0.61275
6825.82964,0.61314
6823.90090,0.61387
6821.97215,0.61683
6820.04341,0.61924
6818.11466,0.61881
6816.18592,0.61717
6814.25717,0.61478
6812.32843,0.61371
6810.39968,0.61591
6808.47093,0.61789
6806.54219,0.61686
6804.61344,0.61503
6802.68470,0.61442
6800.75595,0.61513
6798.82721,0.61725
6796.89846,0.61974
6794.96972,0.62024
6793.04097,0.61725
6791.11223,0.61455
6789.18348,0.61636
6787.25474,0.61899
6785.32599,0.61858
6783.39725,0.61665
6781.46850,0.61601
6779.53975,0.61816
6777.61101,0.62066
6775.68226,0.62032
6773.75352,0.61783
6771.82477,0.61536
6769.89603,0.61355
6767.96728,0.61294
6766.03854,0.61508
6764.10979,0.61849
6762.18105,0.61992
6760.25230,0.61982
6758.32356,0.61974
6756.39481,0.61992
6754.46607,0.62011
6752.53732,0.61800
6750.60858,0.61308
6748.67983,0.60954
6746.75108,0.60939
6744.82234,0.61076
6742.89359,0.61199
6740.96485,0.61283
6739.03610,0.61405
6737.10736,0.61508
6735.17861,0.61526
6733.24987,0.61566
6731.32112,0.61687
6729.39238,0.61868
6727.46363,0.61893
6725.53489,0.61633
6723.60614,0.61439
6721.67740,0.61506
6719.74865,0.61654
6717.81991,0.61756
6715.89116,0.61787
6713.96241,0.61729
6712.03367,0.61504
6710.10492,0.61246
6708.17618,0.61306
6706.24743,0.61713
6704.31869,0.62081
6702.38994,0.62207
6700.46120,0.62236
6698.53245,0.62181
6696.60371,0.62040
6694.67496,0.61962
6692.74622,0.61940
6690.81747,0.61890
6688.88873,0.61773
6686.95998,0.61648
6685.03123,0.61691
6683.10249,0.61894
6681.17374,0.62083
6679.24500,0.62213
6677.31625,0.62357
6675.38751,0.62483
6673.45876,0.62411
6671.53002,0.62245
6669.60127,0.62259
6667.67253,0.62404
6665.74378,0.62551
6663.81504,0.62533
6661.88629,0.62288
6659.95755,0.62150
6658.02880,0.62270
6656.10006,0.62451
6654.17131,0.62503
6652.24256,0.62336
6650.31382,0.62013
6648.38507,0.61799
6646.45633,0.61959
6644.52758,0.62256
6642.59884,0.62268
6640.67009,0.62028
6638.74135,0.61844
6636.81260,0.61919
6634.88386,0.62158
6632.95511,0.62341
6631.02637,0.62340
6629.09762,0.62219
6627.16888,0.62187
6625.24013,0.62134
6623.31139,0.61894
6621.38264,0.61715
6619.45389,0.61782
6617.52515,0.61869
6615.59640,0.61720
6613.66766,0.61448
6611.73891,0.61355
6609.81017,0.61470
6607.88142,0.61683
6605.95268,0.61999
6604.02393,0.62347
6602.09519,0.62584
6600.16644,0.62658
6598.23770,0.62568
6596.30895,0.62478
6594.38021,0.62551
6592.45146,0.62640
6590.52271,0.62458
6588.59397,0.62020
6586.66522,0.61786
6584.73648,0.62054
6582.80773,0.62462
6580.87899,0.62631
6578.95024,0.62539
6577.02150,0.62301
6575.09275,0.62218
6573.16401,0.62353
6571.23526,0.62441
6569.30652,0.62486
6567.37777,0.62583
6565.44903,0.62670
6563.52028,0.62634
6561.59154,0.62389
6559.66279,0.62178
6557.73404,0.62258
6555.80530,0.62438
6553.87655,0.62456
6551.94781,0.62420
6550.01906,0.62551
6548.09032,0.62727
6546.16157,0.62700
6544.23283,0.62620
6542.30408,0.62634
6540.37534,0.62541
6538.44659,0.62372
6536.51785,0.62318
6534.58910,0.62239
6532.66036,0.62020
6530.73161,0.61923
6528.80287,0.62116
6526.87412,0.62300
6524.94537,0.62264
6523.01663,0.62273
6521.08788,0.62521
6519.15914,0.62838
6517.23039,0.63003
6515.30165,0.62928
6513.37290,0.62683
6511.44416,0.62456
6509.51541,0.62398
6507.58667,0.62506
6505.65792,0.62553
6503.72918,0.62406
6501.80043,0.62338
6499.87169,0.62493
6497.94294,0.62555
6496.01419,0.62338
6494.08545,0.62155
6492.15670,0.62334
6490.22796,0.62693
6488.29921,0.62846
6486.37047,0.62785
6484.44172,0.62818
6482.51298,0.62970
6480.58423,0.62877
6478.65549,0.62556
6476.72674,0.62470
6474.79800,0.62761
6472.86925,0.63020
6470.94051,0.62835
6469.01176,0.62478
6467.08302,0.62472
6465.15427,0.62738
6463.22552,0.62900
6461.29678,0.62900
6459.36803,0.62821
6457.43929,0.62673
6455.51054,0.62606
6453.58180,0.62760
6451.65305,0.62966
6449.72431,0.63051
6447.79556,0.62997
6445.86682,0.62856
6443.93807,0.62801
6442.00933,0.62914
6440.08058,0.63034
6438.15184,0.63000
6436.22309,0.62846
6434.29434,0.62741
6432.36560,0.62784
6430.43685,0.62941
6428.50811,0.63098
6426.57936,0.63073
6424.65062,0.62837
6422.72187,0.62689
6420.79313,0.62802
6418.86438,0.62927
6416.93564,0.62854
6415.00689,0.62696
6413.07815,0.62629
6411.14940,0.62749
6409.22066,0.63022
6407.29191,0.63181
6405.36317,0.62990
6403.43442,0.62677
6401.50567,0.62642
6399.57693,0.62856
6397.64818,0.63024
6395.71944,0.63110
6393.79069,0.63198
6391.86195,0.63279
6389.93320,0.63357
6388.00446,0.63346
6386.07571,0.63169
6384.14697,0.62901
6382.21822,0.62721
6380.28948,0.62801
6378.36073,0.62987
6376.43199,0.62992
6374.50324,0.62932
6372.57450,0.63012
6370.64575,0.63085
6368.71700,0.63041
6366.78826,0.62992
6364.85951,0.62976
6362.93077,0.62921
6361.00202,0.62742
6359.07328,0.62578
6357.14453,0.62641
6355.21579,0.62815
6353.28704,0.62926
6351.35830,0.62994
6349.42955,0.63001
6347.50081,0.62886
6345.57206,0.62788
6343.64332,0.62887
6341.71457,0.63050
6339.78582,0.63067
6337.85708,0.63007
6335.92833,0.63007
6333.99959,0.62991
6332.07084,0.62969
6330.14210,0.63105
6328.21335,0.63264
6326.28461,0.63229
6324.35586,0.63121
6322.42712,0.63139
6320.49837,0.63244
6318.56963,0.63257
6316.64088,0.63147
6314.71214,0.63007
6312.78339,0.62926
6310.85465,0.62907
6308.92590,0.62819
6306.99715,0.62735
6305.06841,0.62896
6303.13966,0.63144
6301.21092,0.63125
6299.28217,0.62928
6297.35343,0.62862
6295.42468,0.62922
6293.49594,0.62952
6291.56719,0.63021
6289.63845,0.63195
6287.70970,0.63264
6285.78096,0.63119
6283.85221,0.63021
6281.92347,0.63131
6279.99472,0.63263
6278.06598,0.63264
6276.13723,0.63203
6274.20848,0.63255
6272.27974,0.63403
6270.35099,0.63441
6268.42225,0.63447
6266.49350,0.63540
6264.56476,0.63553
6262.63601,0.63474
6260.70727,0.63378
6258.77852,0.63212
6256.84978,0.63026
6254.92103,0.62993
6252.99229,0.63174
6251.06354,0.63388
6249.13480,0.63476
6247.20605,0.63520
6245.27730,0.63576
6243.34856,0.63541
6241.41981,0.63422
6239.49107,0.63414
6237.56232,0.63570
6235.63358,0.63664
6233.70483,0.63604
6231.77609,0.63577
6229.84734,0.63557
6227.91860,0.63334
6225.98985,0.63050
6224.06111,0.62944
6222.13236,0.63020
6220.20362,0.63224
6218.27487,0.63384
6216.34613,0.63340
6214.41738,0.63209
6212.48863,0.63116
6210.55989,0.63130
6208.63114,0.63285
6206.70240,0.63418
6204.77365,0.63448
6202.84491,0.63418
6200.91616,0.63354
6198.98742,0.63374
6197.05867,0.63492
6195.12993,0.63574
6193.20118,0.63653
6191.27244,0.63775
6189.34369,0.63768
6187.41495,0.63630
6185.48620,0.63592
6183.55746,0.63626
6181.62871,0.63594
6179.69996,0.63514
6177.77122,0.63393
6175.84247,0.63336
6173.91373,0.63449
6171.98498,0.63529
6170.05624,0.63462
6168.12749,0.63456
6166.19875,0.63480
6164.27000,0.63341
6162.34126,0.63224
6160.41251,0.63274
6158.48377,0.63279
6156.55502,0.63206
6154.62628,0.63287
6152.69753,0.63499
6150.76878,0.63615
6148.84004,0.63646
6146.91129,0.63709
6144.98255,0.63783
6143.05380,0.63796
6141.12506,0.63720
6139.19631,0.63649
6137.26757,0.63653
6135.33882,0.63657
6133.41008,0.63597
6131.48133,0.63541
6129.55259,0.63591
6127.62384,0.63693
6125.69510,0.63733
6123.76635,0.63756
6121.83761,0.63854
6119.90886,0.63918
6117.98011,0.63773
6116.05137,0.63550
6114.12262,0.63468
6112.19388,0.63488
6110.26513,0.63547
6108.33639,0.63612
6106.40764,0.63666
6104.47890,0.63790
6102.55015,0.63941
6100.62141,0.63971
6098.69266,0.63881
6096.76392,0.63752
6094.83517,0.63685
6092.90643,0.63741
6090.97768,0.63833
6089.04893,0.63910
6087.12019,0.64019
6085.19144,0.64078
6083.26270,0.64027
6081.33395,0.64009
6079.40521,0.64054
6077.47646,0.64074
6075.54772,0.64044
6073.61897,0.63947
6071.69023,0.63917
6069.76148,0.64059
6067.83274,0.64130
6065.90399,0.64002
6063.97525,0.63891
6062.04650,0.63868
6060.11776,0.63813
6058.18901,0.63701
6056.26026,0.63619
6054.33152,0.63633
6052.40277,0.63724
6050.47403,0.63811
6048.54528,0.63868
6046.61654,0.63913
6044.68779,0.63890
6042.75905,0.63831
6040.83030,0.63875
6038.90156,0.63948
6036.97281,0.63865
6035.04407,0.63745
6033.11532,0.63804
6031.18658,0.63960
6029.25783,0.64040
6027.32909,0.64002
6025.40034,0.63900
6023.47159,0.63904
6021.54285,0.64069
6019.61410,0.64119
6017.68536,0.63990
6015.75661,0.64018
6013.82787,0.64221
6011.89912,0.64332
6009.97038,0.64273
6008.04163,0.64093
6006.11289,0.64017
6004.18414,0.64135
6002.25540,0.64114
6000.32665,0.63849
5998.39791,0.63670
5996.46916,0.63710
5994.54041,0.63832
5992.61167,0.63978
5990.68292,0.64116
5988.75418,0.64123
5986.82543,0.64044
5984.89669,0.64047
5982.96794,0.64145
5981.03920,0.64252
5979.11045,0.64275
5977.18171,0.64232
5975.25296,0.64262
5973.32422,0.64332
5971.39547,0.64332
5969.46673,0.64264
5967.53798,0.64090
5965.60924,0.63845
5963.68049,0.63776
5961.75174,0.64017
5959.82300,0.64316
5957.89425,0.64428
5955.96551,0.64453
5954.03676,0.64484
5952.10802,0.64461
5950.17927,0.64386
5948.25053,0.64275
5946.32178,0.64197
5944.39304,0.64209
5942.46429,0.64212
5940.53555,0.64225
5938.60680,0.64315
5936.67806,0.64302
5934.74931,0.64114
5932.82057,0.63959
5930.89182,0.64001
5928.96307,0.64215
5927.03433,0.64350
5925.10558,0.64265
5923.17684,0.64178
5921.24809,0.64222
5919.31935,0.64354
5917.39060,0.64546
5915.46186,0.64695
5913.53311,0.64705
5911.60437,0.64594
5909.67562,0.64508
5907.74688,0.64532
5905.81813,0.64549
5903.88939,0.64515
5901.96064,0.64462
5900.03189,0.64398
5898.10315,0.64421
5896.17440,0.64541
5894.24566,0.64587
5892.31691,0.64563
5890.38817,0.64593
5888.45942,0.64541
5886.53068,0.64339
5884.60193,0.64193
5882.67319,0.64178
5880.74444,0.64270
5878.81570,0.64407
5876.88695,0.64495
5874.95821,0.64526
5873.02946,0.64466
5871.10072,0.64324
5869.17197,0.64260
5867.24322,0.64344
5865.31448,0.64464
5863.38573,0.64493
5861.45699,0.64438
5859.52824,0.64411
5857.59950,0.64422
5855.67075,0.64463
5853.74201,0.64555
5851.81326,0.64583
5849.88452,0.64506
5847.95577,0.64427
5846.02703,0.64355
5844.09828,0.64257
5842.16954,0.64224
5840.24079,0.64331
5838.31205,0.64380
5836.38330,0.64243
5834.45455,0.64141
5832.52581,0.64182
5830.59706,0.64235
5828.66832,0.64264
5826.73957,0.64375
5824.81083,0.64564
5822.88208,0.64648
5820.95334,0.64507
5819.02459,0.64227
5817.09585,0.64037
5815.16710,0.64120
5813.23836,0.64333
5811.30961,0.64393
5809.38087,0.64361
5807.45212,0.64453
5805.52337,0.64619
5803.59463,0.64666
5801.66588,0.64575
5799.73714,0.64460
5797.80839,0.64374
5795.87965,0.64380
5793.95090,0.64521
5792.02216,0.64666
5790.09341,0.64670
5788.16467,0.64600
5786.23592,0.64572
5784.30718,0.64574
5782.37843,0.64589
5780.44969,0.64540
5778.52094,0.64401
5776.59220,0.64348
5774.66345,0.64402
5772.73470,0.64432
5770.80596,0.64443
5768.87721,0.64463
5766.94847,0.64502
5765.01972,0.64516
5763.09098,0.64417
5761.16223,0.64284
5759.23349,0.64272
5757.30474,0.64401
5755.37600,0.64536
5753.44725,0.64609
5751.51851,0.64738
5749.58976,0.64860
5747.66102,0.64777
5745.73227,0.64598
5743.80352,0.64508
5741.87478,0.64504
5739.94603,0.64539
5738.01729,0.64576
5736.08854,0.64627
5734.15980,0.64709
5732.23105,0.64766
5730.30231,0.64802
5728.37356,0.64868
5726.44482,0.64924
5724.51607,0.64925
5722.58733,0.64907
5720.65858,0.64874
5718.72984,0.64825
5716.80109,0.64855
5714.87235,0.65017
5712.94360,0.65139
5711.01485,0.64994
5709.08611,0.64725
5707.15736,0.64625
5705.22862,0.64695
5703.29987,0.64759
5701.37113,0.64738
5699.44238,0.64757
5697.51364,0.64900
5695.58489,0.64948
5693.65615,0.64796
5691.72740,0.64663
5689.79866,0.64638
5687.86991,0.64637
5685.94117,0.64655
5684.01242,0.64706
5682.08368,0.64775
5680.15493,0.64800
5678.22618,0.64730
5676.29744,0.64637
5674.36869,0.64581
5672.43995,0.64631
5670.51120,0.64840
5668.58246,0.65024
5666.65371,0.64998
5664.72497,0.64874
5662.79622,0.64864
5660.86748,0.65011
5658.93873,0.65151
5657.00999,0.65158
5655.08124,0.65106
5653.15250,0.65113
5651.22375,0.65165
5649.29500,0.65143
5647.36626,0.65031
5645.43751,0.64949
5643.50877,0.64949
5641.58002,0.64960
5639.65128,0.64980
5637.72253,0.65035
5635.79379,0.65039
5633.86504,0.64974
5631.93630,0.64936
5630.00755,0.64946
5628.07881,0.64974
5626.15006,0.64996
5624.22132,0.65009
5622.29257,0.64995
5620.36383,0.64931
5618.43508,0.64903
5616.50633,0.64957
5614.57759,0.65002
5612.64884,0.64954
5610.72010,0.64823
5608.79135,0.64774
5606.86261,0.64946
5604.93386,0.65153
5603.00512,0.65200
5601.07637,0.65197
5599.14763,0.65265
5597.21888,0.65314
5595.29014,0.65179
5593.36139,0.64947
5591.43265,0.64848
5589.50390,0.64881
5587.57516,0.64995
5585.64641,0.65203
5583.71766,0.65380
5581.78892,0.65414
5579.86017,0.65358
5577.93143,0.65330
5576.00268,0.65370
5574.07394,0.65347
5572.14519,0.65195
5570.21645,0.65098
5568.28770,0.65171
5566.35896,0.65230
5564.43021,0.65194
5562.50147,0.65220
5560.57272,0.65314
5558.64398,0.65373
5556.71523,0.65436
5554.78648,0.65460
5552.85774,0.65332
5550.92899,0.65157
5549.00025,0.65157
5547.07150,0.65315
5545.14276,0.65396
5543.21401,0.65338
5541.28527,0.65250
5539.35652,0.65155
5537.42778,0.65126
5535.49903,0.65207
5533.57029,0.65279
5531.64154,0.65282
5529.71280,0.65253
5527.78405,0.65215
5525.85531,0.65178
5523.92656,0.65151
5521.99781,0.65158
5520.06907,0.65182
5518.14032,0.65179
5516.21158,0.65186
5514.28283,0.65258
5512.35409,0.65364
5510.42534,0.65399
5508.49660,0.65316
5506.56785,0.65239
5504.63911,0.65291
5502.71036,0.65396
5500.78162,0.65410
5498.85287,0.65352
5496.92413,0.65358
5494.99538,0.65453
5493.06664,0.65496
5491.13789,0.65447
5489.20914,0.65472
5487.28040,0.65556
5485.35165,0.65554
5483.42291,0.65512
5481.49416,0.65479
5479.56542,0.65440
5477.63667,0.65426
5475.70793,0.65442
5473.77918,0.65433
5471.85044,0.65359
5469.92169,0.65307
5467.99295,0.65369
5466.06420,0.65469
5464.13546,0.65490
5462.20671,0.65440
5460.27796,0.65404
5458.34922,0.65401
5456.42047,0.65422
5454.49173,0.65474
5452.56298,0.65486
5450.63424,0.65459
5448.70549,0.65489
5446.77675,0.65547
5444.84800,0.65589
5442.91926,0.65611
5440.99051,0.65577
5439.06177,0.65548
5437.13302,0.65572
5435.20428,0.65636
5433.27553,0.65740
5431.34679,0.65753
5429.41804,0.65618
5427.48929,0.65506
5425.56055,0.65472
5423.63180,0.65432
5421.70306,0.65414
5419.77431,0.65460
5417.84557,0.65538
5415.91682,0.65608
5413.98808,0.65600
5412.05933,0.65509
5410.13059,0.65480
5408.20184,0.65591
5406.27310,0.65754
5404.34435,0.65840
5402.41561,0.65849
5400.48686,0.65853
5398.55811,0.65858
5396.62937,0.65825
5394.70062,0.65737
5392.77188,0.65717
5390.84313,0.65794
5388.91439,0.65780
5386.98564,0.65688
5385.05690,0.65670
5383.12815,0.65651
5381.19941,0.65597
5379.27066,0.65620
5377.34192,0.65679
5375.41317,0.65687
5373.48443,0.65715
5371.55568,0.65819
5369.62694,0.65889
5367.69819,0.65840
5365.76944,0.65814
5363.84070,0.65905
5361.91195,0.65979
5359.98321,0.65997
5358.05446,0.66014
5356.12572,0.65982
5354.19697,0.65902
5352.26823,0.65871
5350.33948,0.65863
5348.41074,0.65785
5346.48199,0.65698
5344.55325,0.65674
5342.62450,0.65665
5340.69576,0.65675
5338.76701,0.65725
5336.83827,0.65728
5334.90952,0.65659
5332.98077,0.65630
5331.05203,0.65704
5329.12328,0.65804
5327.19454,0.65819
5325.26579,0.65774
5323.33705,0.65786
5321.40830,0.65850
5319.47956,0.65893
5317.55081,0.65897
5315.62207,0.65872
5313.69332,0.65825
5311.76458,0.65780
5309.83583,0.65783
5307.90709,0.65835
5305.97834,0.65875
5304.04959,0.65880
5302.12085,0.65887
5300.19210,0.65888
5298.26336,0.65844
5296.33461,0.65757
5294.40587,0.65654
5292.47712,0.65608
5290.54838,0.65664
5288.61963,0.65746
5286.69089,0.65762
5284.76214,0.65713
5282.83340,0.65658
5280.90465,0.65610
5278.97591,0.65572
5277.04716,0.65597
5275.11842,0.65681
5273.18967,0.65730
5271.26092,0.65688
5269.33218,0.65581
5267.40343,0.65467
5265.47469,0.65423
5263.54594,0.65445
5261.61720,0.65470
5259.68845,0.65541
5257.75971,0.65623
5255.83096,0.65562
5253.90222,0.65416
5251.97347,0.65351
5250.04473,0.65364
5248.11598,0.65386
5246.18724,0.65375
5244.25849,0.65324
5242.32975,0.65286
5240.40100,0.65265
5238.47225,0.65226
5236.54351,0.65170
5234.61476,0.65094
5232.68602,0.65042
5230.75727,0.65076
5228.82853,0.65137
5226.89978,0.65164
5224.97104,0.65176
5223.04229,0.65175
5221.11355,0.65152
5219.18480,0.65127
5217.25606,0.65133
5215.32731,0.65157
5213.39857,0.65152
5211.46982,0.65122
5209.54107,0.65100
5207.61233,0.65116
5205.68358,0.65173
5203.75484,0.65206
5201.82609,0.65184
5199.89735,0.65155
5197.96860,0.65122
5196.03986,0.65046
5194.11111,0.64977
5192.18237,0.65020
5190.25362,0.65133
5188.32488,0.65162
5186.39613,0.65099
5184.46739,0.65053
5182.53864,0.65044
5180.60990,0.64996
5178.68115,0.64911
5176.75240,0.64910
5174.82366,0.65005
5172.89491,0.65108
5170.96617,0.65191
5169.03742,0.65230
5167.10868,0.65209
5165.17993,0.65152
5163.25119,0.65059
5161.32244,0.64998
5159.39370,0.65061
5157.46495,0.65168
5155.53621,0.65170
5153.60746,0.65101
5151.67872,0.65046
5149.74997,0.64975
5147.82123,0.64916
5145.89248,0.64947
5143.96373,0.65034
5142.03499,0.65116
5140.10624,0.65133
5138.17750,0.65090
5136.24875,0.65101
5134.32001,0.65156
5132.39126,0.65165
5130.46252,0.65175
5128.53377,0.65277
5126.60503,0.65412
5124.67628,0.65431
5122.74754,0.65351
5120.81879,0.65294
5118.89005,0.65277
5116.96130,0.65261
5115.03255,0.65225
5113.10381,0.65185
5111.17506,0.65184
5109.24632,0.65205
5107.31757,0.65193
5105.38883,0.65163
5103.46008,0.65155
5101.53134,0.65165
5099.60259,0.65185
5097.67385,0.65231
5095.74510,0.65302
5093.81636,0.65372
5091.88761,0.65414
5089.95887,0.65402
5088.03012,0.65376
5086.10138,0.65400
5084.17263,0.65435
5082.24388,0.65436
5080.31514,0.65420
5078.38639,0.65418
5076.45765,0.65444
5074.52890,0.65454
5072.60016,0.65439
5070.67141,0.65440
5068.74267,0.65467
5066.81392,0.65502
5064.88518,0.65527
5062.95643,0.65532
5061.02769,0.65506
5059.09894,0.65476
5057.17020,0.65466
5055.24145,0.65446
5053.31270,0.65448
5051.38396,0.65526
5049.45521,0.65610
5047.52647,0.65641
5045.59772,0.65637
5043.66898,0.65611
5041.74023,0.65569
5039.81149,0.65532
5037.88274,0.65533
5035.95400,0.65567
5034.02525,0.65613
5032.09651,0.65664
5030.16776,0.65686
5028.23902,0.65691
5026.31027,0.65712
5024.38153,0.65733
5022.45278,0.65744
5020.52403,0.65737
5018.59529,0.65745
5016.66654,0.65814
5014.73780,0.65871
5012.80905,0.65866
5010.88031,0.65867
5008.95156,0.65877
5007.02282,0.65841
5005.09407,0.65787
5003.16533,0.65785
5001.23658,0.65860
4999.30784,0.65960
4997.37909,0.65998
4995.45035,0.65974
4993.52160,0.65940
4991.59286,0.65884
4989.66411,0.65822
4987.73536,0.65852
4985.80662,0.65953
4983.87787,0.66000
4981.94913,0.66012
4980.02038,0.66046
4978.09164,0.66071
4976.16289,0.66076
4974.23415,0.66078
4972.30540,0.66066
4970.37666,0.66055
4968.44791,0.66076
4966.51917,0.66107
4964.59042,0.66102
4962.66168,0.66061
4960.73293,0.66024
4958.80418,0.66026
4956.87544,0.66067
4954.94669,0.66133
4953.01795,0.66206
4951.08920,0.66234
4949.16046,0.66177
4947.23171,0.66085
4945.30297,0.66057
4943.37422,0.66107
4941.44548,0.66163
4939.51673,0.66174
4937.58799,0.66157
4935.65924,0.66161
4933.73050,0.66219
4931.80175,0.66288
4929.87301,0.66311
4927.94426,0.66311
4926.01551,0.66312
4924.08677,0.66304
4922.15802,0.66323
4920.22928,0.66375
4918.30053,0.66407
4916.37179,0.66419
4914.44304,0.66435
4912.51430,0.66425
4910.58555,0.66382
4908.65681,0.66347
4906.72806,0.66323
4904.79932,0.66301
4902.87057,0.66314
4900.94183,0.66355
4899.01308,0.66395
4897.08434,0.66412
4895.15559,0.66396
4893.22684,0.66395
4891.29810,0.66438
4889.36935,0.66487
4887.44061,0.66512
4885.51186,0.66487
4883.58312,0.66446
4881.65437,0.66448
4879.72563,0.66455
4877.79688,0.66423
4875.86814,0.66395
4873.93939,0.66389
4872.01065,0.66391
4870.08190,0.66428
4868.15316,0.66488
4866.22441,0.66507
4864.29566,0.66481
4862.36692,0.66461
4860.43817,0.66448
4858.50943,0.66418
4856.58068,0.66417
4854.65194,0.66490
4852.72319,0.66580
4850.79445,0.66602
4848.86570,0.66577
4846.93696,0.66568
4845.00821,0.66565
4843.07947,0.66554
4841.15072,0.66547
4839.22198,0.66561
4837.29323,0.66596
4835.36449,0.66624
4833.43574,0.66654
4831.50699,0.66689
4829.57825,0.66696
4827.64950,0.66707
4825.72076,0.66772
4823.79201,0.66835
4821.86327,0.66831
4819.93452,0.66775
4818.00578,0.66698
4816.07703,0.66642
4814.14829,0.66656
4812.21954,0.66712
4810.29080,0.66727
4808.36205,0.66690
4806.43331,0.66681
4804.50456,0.66727
4802.57582,0.66745
4800.64707,0.66709
4798.71832,0.66690
4796.78958,0.66716
4794.86083,0.66760
4792.93209,0.66786
4791.00334,0.66771
4789.07460,0.66742
4787.14585,0.66738
4785.21711,0.66759
4783.28836,0.66776
4781.35962,0.66777
4779.43087,0.66771
4777.50213,0.66759
4775.57338,0.66736
4773.64464,0.66722
4771.71589,0.66742
4769.78714,0.66757
4767.85840,0.66726
4765.92965,0.66695
4764.00091,0.66717
4762.07216,0.66777
4760.14342,0.66819
4758.21467,0.66806
4756.28593,0.66773
4754.35718,0.66760
4752.42844,0.66750
4750.49969,0.66735
4748.57095,0.66740
4746.64220,0.66788
4744.71346,0.66876
4742.78471,0.66935
4740.85597,0.66907
4738.92722,0.66845
4736.99847,0.66809
4735.06973,0.66799
4733.14098,0.66787
4731.21224,0.66781
4729.28349,0.66811
4727.35475,0.66858
4725.42600,0.66891
4723.49726,0.66886
4721.56851,0.66824
4719.63977,0.66782
4717.71102,0.66829
4715.78228,0.66885
4713.85353,0.66866
4711.92479,0.66829
4709.99604,0.66809
4708.06729,0.66775
4706.13855,0.66747
4704.20980,0.66741
4702.28106,0.66741
4700.35231,0.66757
4698.42357,0.66775
4696.49482,0.66774
4694.56608,0.66764
4692.63733,0.66747
4690.70859,0.66716
4688.77984,0.66681
4686.85110,0.66643
4684.92235,0.66605
4682.99361,0.66592
4681.06486,0.66604
4679.13612,0.66611
4677.20737,0.66589
4675.27862,0.66537
4673.34988,0.66510
4671.42113,0.66565
4669.49239,0.66620
4667.56364,0.66594
4665.63490,0.66552
4663.70615,0.66538
4661.77741,0.66514
4659.84866,0.66492
4657.91992,0.66512
4655.99117,0.66547
4654.06243,0.66545
4652.13368,0.66478
4650.20494,0.66371
4648.27619,0.66305
4646.34745,0.66309
4644.41870,0.66340
4642.48995,0.66385
4640.56121,0.66421
4638.63246,0.66404
4636.70372,0.66348
4634.77497,0.66294
4632.84623,0.66263
4630.91748,0.66249
4628.98874,0.66226
4627.05999,0.66220
4625.13125,0.66253
4623.20250,0.66286
4621.27376,0.66316
4619.34501,0.66331
4617.41627,0.66274
4615.48752,0.66191
4613.55877,0.66181
4611.63003,0.66229
4609.70128,0.66243
4607.77254,0.66203
4605.84379,0.66197
4603.91505,0.66271
4601.98630,0.66316
4600.05756,0.66263
4598.12881,0.66187
4596.20007,0.66131
4594.27132,0.66094
4592.34258,0.66096
4590.41383,0.66122
4588.48509,0.66133
4586.55634,0.66132
4584.62760,0.66143
4582.69885,0.66146
4580.77010,0.66118
4578.84136,0.66091
4576.91261,0.66080
4574.98387,0.66071
4573.05512,0.66070
4571.12638,0.66087
4569.19763,0.66131
4567.26889,0.66179
4565.34014,0.66159
4563.41140,0.66081
4561.48265,0.66048
4559.55391,0.66094
4557.62516,0.66147
4555.69642,0.66142
4553.76767,0.66078
4551.83893,0.66029
4549.91018,0.66041
4547.98143,0.66073
4546.05269,0.66082
4544.12394,0.66076
4542.19520,0.66075
4540.26645,0.66091
4538.33771,0.66109
4536.40896,0.66111
4534.48022,0.66123
4532.55147,0.66153
4530.62273,0.66159
4528.69398,0.66134
4526.76524,0.66113
4524.83649,0.66100
4522.90775,0.66080
4520.97900,0.66061
4519.05025,0.66056
4517.12151,0.66046
4515.19276,0.66026
4513.26402,0.66049
4511.33527,0.66109
4509.40653,0.66126
4507.47778,0.66086
4505.54904,0.66051
4503.62029,0.66077
4501.69155,0.66153
4499.76280,0.66188
4497.83406,0.66140
4495.90531,0.66103
4493.97657,0.66143
4492.04782,0.66204
4490.11908,0.66230
4488.19033,0.66224
4486.26158,0.66191
4484.33284,0.66156
4482.40409,0.66165
4480.47535,0.66196
4478.54660,0.66196
4476.61786,0.66176
4474.68911,0.66199
4472.76037,0.66252
4470.83162,0.66256
4468.90288,0.66233
4466.97413,0.66245
4465.04539,0.66267
4463.11664,0.66259
4461.18790,0.66237
4459.25915,0.66236
4457.33041,0.66264
4455.40166,0.66291
4453.47291,0.66285
4451.54417,0.66269
4449.61542,0.66285
4447.68668,0.66314
4445.75793,0.66309
4443.82919,0.66261
4441.90044,0.66216
4439.97170,0.66215
4438.04295,0.66249
4436.11421,0.66270
4434.18546,0.66268
4432.25672,0.66285
4430.32797,0.66352
4428.39923,0.66420
4426.47048,0.66414
4424.54173,0.66340
4422.61299,0.66272
4420.68424,0.66254
4418.75550,0.66265
4416.82675,0.66262
4414.89801,0.66257
4412.96926,0.66272
4411.04052,0.66290
4409.11177,0.66291
4407.18303,0.66255
4405.25428,0.66202
4403.32554,0.66208
4401.39679,0.66272
4399.46805,0.66285
4397.53930,0.66233
4395.61056,0.66216
4393.68181,0.66227
4391.75306,0.66205
4389.82432,0.66175
4387.89557,0.66156
4385.96683,0.66133
4384.03808,0.66121
4382.10934,0.66109
4380.18059,0.66094
4378.25185,0.66116
4376.32310,0.66141
4374.39436,0.66111
4372.46561,0.66043
4370.53687,0.65979
4368.60812,0.65952
4366.67938,0.65958
4364.75063,0.65958
4362.82189,0.65955
4360.89314,0.65984
4358.96439,0.66026
4357.03565,0.66013
4355.10690,0.65952
4353.17816,0.65910
4351.24941,0.65913
4349.32067,0.65928
4347.39192,0.65921
4345.46318,0.65907
4343.53443,0.65898
4341.60569,0.65860
4339.67694,0.65811
4337.74820,0.65811
4335.81945,0.65852
4333.89071,0.65864
4331.96196,0.65830
4330.03321,0.65805
4328.10447,0.65808
4326.17572,0.65802
4324.24698,0.65767
4322.31823,0.65727
4320.38949,0.65732
4318.46074,0.65777
4316.53200,0.65808
4314.60325,0.65799
4312.67451,0.65777
4310.74576,0.65770
4308.81702,0.65782
4306.88827,0.65804
4304.95953,0.65839
4303.03078,0.65875
4301.10204,0.65876
4299.17329,0.65856
4297.24454,0.65839
4295.31580,0.65819
4293.38705,0.65814
4291.45831,0.65824
4289.52956,0.65820
4287.60082,0.65798
4285.67207,0.65777
4283.74333,0.65756
4281.81458,0.65725
4279.88584,0.65692
4277.95709,0.65675
4276.02835,0.65696
4274.09960,0.65747
4272.17086,0.65782
4270.24211,0.65791
4268.31336,0.65782
4266.38462,0.65751
4264.45587,0.65721
4262.52713,0.65708
4260.59838,0.65719
4258.66964,0.65755
4256.74089,0.65782
4254.81215,0.65773
4252.88340,0.65745
4250.95466,0.65733
4249.02591,0.65751
4247.09717,0.65783
4245.16842,0.65778
4243.23968,0.65729
4241.31093,0.65689
4239.38219,0.65669
4237.45344,0.65625
4235.52469,0.65568
4233.59595,0.65546
4231.66720,0.65565
4229.73846,0.65601
4227.80971,0.65625
4225.88097,0.65616
4223.95222,0.65581
4222.02348,0.65533
4220.09473,0.65494
4218.16599,0.65487
4216.23724,0.65518
4214.30850,0.65551
4212.37975,0.65540
4210.45101,0.65503
4208.52226,0.65467
4206.59352,0.65438
4204.66477,0.65456
4202.73602,0.65524
4200.80728,0.65566
4198.87853,0.65550
4196.94979,0.65533
4195.02104,0.65546
4193.09230,0.65552
4191.16355,0.65522
4189.23481,0.65488
4187.30606,0.65471
4185.37732,0.65449
4183.44857,0.65423
4181.51983,0.65425
4179.59108,0.65429
4177.66234,0.65397
4175.73359,0.65365
4173.80484,0.65378
4171.87610,0.65422
4169.94735,0.65455
4168.01861,0.65441
4166.08986,0.65397
4164.16112,0.65363
4162.23237,0.65332
4160.30363,0.65303
4158.37488,0.65300
4156.44614,0.65302
4154.51739,0.65272
4152.58865,0.65263
4150.65990,0.65306
4148.73116,0.65318
4146.80241,0.65267
4144.87367,0.65213
4142.94492,0.65198
4141.01617,0.65219
4139.08743,0.65247
4137.15868,0.65260
4135.22994,0.65256
4133.30119,0.65260
4131.37245,0.65293
4129.44370,0.65318
4127.51496,0.65300
4125.58621,0.65267
4123.65747,0.65252
4121.72872,0.65230
4119.79998,0.65162
4117.87123,0.65100
4115.94249,0.65109
4114.01374,0.65153
4112.08500,0.65158
4110.15625,0.65114
4108.22750,0.65073
4106.29876,0.65048
4104.37001,0.65009
4102.44127,0.64959
4100.51252,0.64934
4098.58378,0.64931
4096.65503,0.64922
4094.72629,0.64906
4092.79754,0.64892
4090.86880,0.64880
4088.94005,0.64864
4087.01131,0.64842
4085.08256,0.64826
4083.15382,0.64830
4081.22507,0.64832
4079.29632,0.64799
4077.36758,0.64742
4075.43883,0.64699
4073.51009,0.64682
4071.58134,0.64674
4069.65260,0.64649
4067.72385,0.64608
4065.79511,0.64577
4063.86636,0.64571
4061.93762,0.64575
4060.00887,0.64577
4058.08013,0.64587
4056.15138,0.64612
4054.22264,0.64642
4052.29389,0.64667
4050.36515,0.64670
4048.43640,0.64620
4046.50765,0.64533
4044.57891,0.64467
4042.65016,0.64451
4040.72142,0.64481
4038.79267,0.64510
4036.86393,0.64493
4034.93518,0.64445
4033.00644,0.64400
4031.07769,0.64380
4029.14895,0.64375
4027.22020,0.64353
4025.29146,0.64308
4023.36271,0.64268
4021.43397,0.64257
4019.50522,0.64268
4017.57648,0.64274
4015.64773,0.64255
4013.71898,0.64220
4011.79024,0.64201
4009.86149,0.64211
4007.93275,0.64221
4006.00400,0.64213
4004.07526,0.64215
4002.14651,0.64221
4000.21777,0.64202
3998.28902,0.64168
3996.36028,0.64127
3994.43153,0.64091
3992.50279,0.64091
3990.57404,0.64117
3988.64530,0.64142
3986.71655,0.64156
3984.78780,0.64143
3982.85906,0.64112
3980.93031,0.64095
3979.00157,0.64101
3977.07282,0.64123
3975.14408,0.64127
3973.21533,0.64085
3971.28659,0.64025
3969.35784,0.63982
3967.42910,0.63977
3965.50035,0.64010
3963.57161,0.64055
3961.64286,0.64086
3959.71412,0.64079
3957.78537,0.64020
3955.85663,0.63948
3953.92788,0.63913
3951.99913,0.63914
3950.07039,0.63908
3948.14164,0.63890
3946.21290,0.63879
3944.28415,0.63860
3942.35541,0.63837
3940.42666,0.63829
3938.49792,0.63823
3936.56917,0.63817
3934.64043,0.63819
3932.71168,0.63813
3930.78294,0.63802
3928.85419,0.63793
3926.92545,0.63785
3924.99670,0.63775
3923.06795,0.63768
3921.13921,0.63781
3919.21046,0.63801
3917.28172,0.63798
3915.35297,0.63787
3913.42423,0.63795
3911.49548,0.63797
3909.56674,0.63776
3907.63799,0.63749
3905.70925,0.63724
3903.78050,0.63694
3901.85176,0.63657
3899.92301,0.63636
3897.99427,0.63666
3896.06552,0.63748
3894.13678,0.63825
3892.20803,0.63814
3890.27928,0.63727
3888.35054,0.63674
3886.42179,0.63664
3884.49305,0.63638
3882.56430,0.63614
3880.63556,0.63606
3878.70681,0.63612
3876.77807,0.63646
3874.84932,0.63676
3872.92058,0.63694
3870.99183,0.63690
3869.06309,0.63631
3867.13434,0.63591
3865.20560,0.63607
3863.27685,0.63629
3861.34811,0.63638
3859.41936,0.63638
3857.49061,0.63640
3855.56187,0.63603
3853.63312,0.63446
3851.70438,0.63302
3849.77563,0.63311
3847.84689,0.63377
3845.91814,0.63417
3843.98940,0.63420
3842.06065,0.63400
3840.13191,0.63370
3838.20316,0.63344
3836.27442,0.63330
3834.34567,0.63305
3832.41693,0.63262
3830.48818,0.63232
3828.55943,0.63215
3826.63069,0.63169
3824.70194,0.63112
3822.77320,0.63067
3820.84445,0.62986
3818.91571,0.62908
3816.98696,0.62855
3815.05822,0.62805
3813.12947,0.62808
3811.20073,0.62846
3809.27198,0.62832
3807.34324,0.62729
3805.41449,0.62627
3803.48575,0.62573
3801.55700,0.62518
3799.62826,0.62495
3797.69951,0.62498
3795.77076,0.62449
3793.84202,0.62373
3791.91327,0.62319
3789.98453,0.62269
3788.05578,0.62196
3786.12704,0.62096
3784.19829,0.61999
3782.26955,0.61921
3780.34080,0.61818
3778.41206,0.61686
3776.48331,0.61578
3774.55457,0.61509
3772.62582,0.61436
3770.69708,0.61307
3768.76833,0.61136
3766.83959,0.60982
3764.91084,0.60833
3762.98209,0.60679
3761.05335,0.60527
3759.12460,0.60339
3757.19586,0.60136
3755.26711,0.59952
3753.33837,0.59719
3751.40962,0.59387
3749.48088,0.59082
3747.55213,0.58889
3745.62339,0.58637
3743.69464,0.58264
3741.76590,0.57984
3739.83715,0.57780
3737.90841,0.57455
3735.97966,0.56985
3734.05091,0.56484
3732.12217,0.55948
3730.19342,0.55397
3728.26468,0.54874
3726.33593,0.54297
3724.40719,0.53627
3722.47844,0.52909
3720.54970,0.52133
3718.62095,0.51292
3716.69221,0.50432
3714.76346,0.49542
3712.83472,0.48502
3710.90597,0.47281
3708.97723,0.46077
3707.04848,0.44989
3705.11974,0.43949
3703.19099,0.42824
3701.26224,0.41561
3699.33350,0.40299
3697.40475,0.39099
3695.47601,0.37905
3693.54726,0.36713
3691.61852,0.35519
3689.68977,0.34255
3687.76103,0.32952
3685.83228,0.31767
3683.90354,0.30671
3681.97479,0.29523
3680.04605,0.28348
3678.11730,0.27207
3676.18856,0.25947
3674.25981,0.24638
3672.33107,0.23546
3670.40232,0.22451
3668.47357,0.21257
3666.54483,0.20207
3664.61608,0.19275
3662.68734,0.18345
3660.75859,0.17439
3658.82985,0.16588
3656.90110,0.15728
3654.97236,0.14875
3653.04361,0.14160
3651.11487,0.13509
3649.18612,0.12783
3647.25738,0.12079
3645.32863,0.11504
3643.39989,0.11012
3641.47114,0.10555
3639.54239,0.10129
3637.61365,0.09724
3635.68490,0.09336
3633.75616,0.09003
3631.82741,0.08743
3629.89867,0.08484
3627.96992,0.08189
3626.04118,0.07934
3624.11243,0.07721
3622.18369,0.07521
3620.25494,0.07328
3618.32620,0.07141
3616.39745,0.07009
3614.46871,0.06911
3612.53996,0.06794
3610.61122,0.06669
3608.68247,0.06548
3606.75372,0.06433
3604.82498,0.06333
3602.89623,0.06252
3600.96749,0.06179
3599.03874,0.06099
3597.11000,0.06005
3595.18125,0.05922
3593.25251,0.05866
3591.32376,0.05812
3589.39502,0.05750
3587.46627,0.05691
3585.53753,0.05670
3583.60878,0.05680
3581.68004,0.05670
3579.75129,0.05614
3577.82254,0.05543
3575.89380,0.05500
3573.96505,0.05470
3572.03631,0.05439
3570.10756,0.05439
3568.17882,0.05456
3566.25007,0.05420
3564.32133,0.05343
3562.39258,0.05292
3560.46384,0.05266
3558.53509,0.05258
3556.60635,0.05266
3554.67760,0.05280
3552.74886,0.05275
3550.82011,0.05249
3548.89137,0.05224
3546.96262,0.05207
3545.03387,0.05197
3543.10513,0.05186
3541.17638,0.05165
3539.24764,0.05155
3537.31889,0.05146
3535.39015,0.05135
3533.46140,0.05153
3531.53266,0.05177
3529.60391,0.05157
3527.67517,0.05110
3525.74642,0.05079
3523.81768,0.05060
3521.88893,0.05038
3519.96019,0.05042
3518.03144,0.05089
3516.10270,0.05126
3514.17395,0.05122
3512.24520,0.05103
3510.31646,0.05082
3508.38771,0.05054
3506.45897,0.05029
3504.53022,0.05006
3502.60148,0.04978
3500.67273,0.04972
3498.74399,0.04984
3496.81524,0.04987
3494.88650,0.04993
3492.95775,0.05001
3491.02901,0.04998
3489.10026,0.04988
3487.17152,0.04971
3485.24277,0.04968
3483.31402,0.04992
3481.38528,0.05028
3479.45653,0.05037
3477.52779,0.05002
3475.59904,0.04969
3473.67030,0.04975
3471.74155,0.04969
3469.81281,0.04932
3467.88406,0.04922
3465.95532,0.04948
3464.02657,0.04976
3462.09783,0.04998
3460.16908,0.05009
3458.24034,0.04989
3456.31159,0.04951
3454.38285,0.04929
3452.45410,0.04927
3450.52535,0.04936
3448.59661,0.04962
3446.66786,0.04976
3444.73912,0.04961
3442.81037,0.04963
3440.88163,0.05003
3438.95288,0.05038
3437.02414,0.05039
3435.09539,0.05034
3433.16665,0.05026
3431.23790,0.05007
3429.30916,0.04999
3427.38041,0.05009
3425.45167,0.05017
3423.52292,0.05001
3421.59418,0.04977
3419.66543,0.04967
3417.73668,0.04968
3415.80794,0.04981
3413.87919,0.05012
3411.95045,0.05047
3410.02170,0.05071
3408.09296,0.05094
3406.16421,0.05107
3404.23547,0.05092
3402.30672,0.05070
3400.37798,0.05051
3398.44923,0.05043
3396.52049,0.05072
3394.59174,0.05110
3392.66300,0.05107
3390.73425,0.05082
3388.80550,0.05081
3386.87676,0.05108
3384.94801,0.05126
3383.01927,0.05097
3381.09052,0.05066
3379.16178,0.05099
3377.23303,0.05159
3375.30429,0.05169
3373.37554,0.05135
3371.44680,0.05098
3369.51805,0.05069
3367.58931,0.05076
3365.66056,0.05111
3363.73182,0.05116
3361.80307,0.05092
3359.87433,0.05085
3357.94558,0.05108
3356.01683,0.05142
3354.08809,0.05171
3352.15934,0.05190
3350.23060,0.05188
3348.30185,0.05174
3346.37311,0.05164
3344.44436,0.05163
3342.51562,0.05172
3340.58687,0.05182
3338.65813,0.05189
3336.72938,0.05216
3334.80064,0.05246
3332.87189,0.05245
3330.94315,0.05229
3329.01440,0.05232
3327.08566,0.05242
3325.15691,0.05233
3323.22816,0.05217
3321.29942,0.05214
3319.37067,0.05210
3317.44193,0.05189
3315.51318,0.05188
3313.58444,0.05234
3311.65569,0.05280
3309.72695,0.05290
3307.79820,0.05281
3305.86946,0.05285
3303.94071,0.05294
3302.01197,0.05309
3300.08322,0.05337
3298.15448,0.05349
3296.22573,0.05342
3294.29698,0.05343
3292.36824,0.05349
3290.43949,0.05359
3288.51075,0.05394
3286.58200,0.05442
3284.65326,0.05461
3282.72451,0.05445
3280.79577,0.05423
3278.86702,0.05422
3276.93828,0.05434
3275.00953,0.05431
3273.08079,0.05424
3271.15204,0.05445
3269.22330,0.05475
3267.29455,0.05481
3265.36581,0.05488
3263.43706,0.05510
3261.50831,0.05525
3259.57957,0.05534
3257.65082,0.05534
3255.72208,0.05525
3253.79333,0.05534
3251.86459,0.05572
3249.93584,0.05600
3248.00710,0.05596
3246.07835,0.05601
3244.14961,0.05660
3242.22086,0.05743
3240.29212,0.05795
3238.36337,0.05791
3236.43463,0.05762
3234.50588,0.05757
3232.57713,0.05769
3230.64839,0.05777
3228.71964,0.05794
3226.79090,0.05816
3224.86215,0.05851
3222.93341,0.05920
3221.00466,0.05989
3219.07592,0.06018
3217.14717,0.06021
3215.21843,0.06021
3213.28968,0.06021
3211.36094,0.06021
3209.43219,0.06019
3207.50345,0.06010
3205.57470,0.06015
3203.64596,0.06054
3201.71721,0.06107
3199.78846,0.06150
3197.85972,0.06185
3195.93097,0.06206
3194.00223,0.06212
3192.07348,0.06223
3190.14474,0.06246
3188.21599,0.06269
3186.28725,0.06304
3184.35850,0.06354
3182.42976,0.06395
3180.50101,0.06420
3178.57227,0.06440
3176.64352,0.06450
3174.71478,0.06451
3172.78603,0.06458
3170.85729,0.06486
3168.92854,0.06527
3166.99979,0.06570
3165.07105,0.06610
3163.14230,0.06642
3161.21356,0.06669
3159.28481,0.06697
3157.35607,0.06730
3155.42732,0.06766
3153.49858,0.06784
3151.56983,0.06773
3149.64109,0.06761
3147.71234,0.06782
3145.78360,0.06843
3143.85485,0.06924
3141.92611,0.06996
3139.99736,0.07042
3138.06861,0.07077
3136.13987,0.07115
3134.21112,0.07157
3132.28238,0.07190
3130.35363,0.07213
3128.42489,0.07243
3126.49614,0.07281
3124.56740,0.07311
3122.63865,0.07329
3120.70991,0.07357
3118.78116,0.07424
3116.85242,0.07517
3114.92367,0.07587
3112.99493,0.07622
3111.06618,0.07657
3109.13744,0.07718
3107.20869,0.07790
3105.27994,0.07855
3103.35120,0.07923
3101.42245,0.07995
3099.49371,0.08040
3097.56496,0.08061
3095.63622,0.08105
3093.70747,0.08182
3091.77873,0.08255
3089.84998,0.08322
3087.92124,0.08405
3085.99249,0.08503
3084.06375,0.08596
3082.13500,0.08669
3080.20626,0.08729
3078.27751,0.08784
3076.34877,0.08825
3074.42002,0.08873
3072.49127,0.08943
3070.56253,0.09012
3068.63378,0.09087
3066.70504,0.09188
3064.77629,0.09302
3062.84755,0.09410
3060.91880,0.09500
3058.99006,0.09562
3057.06131,0.09607
3055.13257,0.09659
3053.20382,0.09726
3051.27508,0.09799
3049.34633,0.09875
3047.41759,0.09968
3045.48884,0.10069
3043.56009,0.10142
3041.63135,0.10181
3039.70260,0.10226
3037.77386,0.10308
3035.84511,0.10393
3033.91637,0.10453
3031.98762,0.10517
3030.05888,0.10597
3028.13013,0.10673
3026.20139,0.10735
3024.27264,0.10797
3022.34390,0.10865
3020.41515,0.10930
3018.48641,0.10983
3016.55766,0.11030
3014.62892,0.11090
3012.70017,0.11175
3010.77142,0.11270
3008.84268,0.11353
3006.91393,0.11415
3004.98519,0.11469
3003.05644,0.11533
3001.12770,0.11612
2999.19895,0.11701
2997.27021,0.11790
2995.34146,0.11868
2993.41272,0.11932
2991.48397,0.12001
2989.55523,0.12090
2987.62648,0.12183
2985.69774,0.12274
2983.76899,0.12367
2981.84025,0.12454
2979.91150,0.12541
2977.98275,0.12633
2976.05401,0.12723
2974.12526,0.12809
2972.19652,0.12897
2970.26777,0.12995
2968.33903,0.13103
2966.41028,0.13213
2964.48154,0.13320
2962.55279,0.13429
2960.62405,0.13550
2958.69530,0.13674
2956.76656,0.13794
2954.83781,0.13918
2952.90907,0.14051
2950.98032,0.14193
2949.05157,0.14336
2947.12283,0.14475
2945.19408,0.14612
2943.26534,0.14733
2941.33659,0.14836
2939.40785,0.14929
2937.47910,0.15026
2935.55036,0.15152
2933.62161,0.15296
2931.69287,0.15436
2929.76412,0.15562
2927.83538,0.15676
2925.90663,0.15792
2923.97789,0.15923
2922.04914,0.16059
2920.12040,0.16189
2918.19165,0.16332
2916.26290,0.16523
2914.33416,0.16731
2912.40541,0.16883
2910.47667,0.16992
2908.54792,0.17123
2906.61918,0.17286
2904.69043,0.17451
2902.76169,0.17594
2900.83294,0.17712
2898.90420,0.17834
2896.97545,0.17978
2895.04671,0.18123
2893.11796,0.18246
2891.18922,0.18343
2889.26047,0.18431
2887.33172,0.18546
2885.40298,0.18681
2883.47423,0.18798
2881.54549,0.18890
2879.61674,0.18979
2877.68800,0.19063
2875.75925,0.19131
2873.83051,0.19194
2871.90176,0.19268
2869.97302,0.19353
2868.04427,0.19436
2866.11553,0.19516
2864.18678,0.19616
2862.25804,0.19744
2860.32929,0.19872
2858.40055,0.19966
2856.47180,0.20047
2854.54305,0.20153
2852.61431,0.20268
2850.68556,0.20389
2848.75682,0.20573
2846.82807,0.20842
2844.89933,0.21138
2842.97058,0.21397
2841.04184,0.21615
2839.11309,0.21822
2837.18435,0.22028
2835.25560,0.22220
2833.32686,0.22392
2831.39811,0.22562
2829.46937,0.22755
2827.54062,0.22953
2825.61188,0.23133
2823.68313,0.23303
2821.75438,0.23467
2819.82564,0.23618
2817.89689,0.23768
2815.96815,0.23941
2814.03940,0.24149
2812.11066,0.24388
2810.18191,0.24632
2808.25317,0.24848
2806.32442,0.25043
2804.39568,0.25242
2802.46693,0.25454
2800.53819,0.25683
2798.60944,0.25928
2796.68070,0.26156
2794.75195,0.26352
2792.82320,0.26556
2790.89446,0.26789
2788.96571,0.27012
2787.03697,0.27199
2785.10822,0.27384
2783.17948,0.27583
2781.25073,0.27768
2779.32199,0.27927
2777.39324,0.28086
2775.46450,0.28271
2773.53575,0.28461
2771.60701,0.28636
2769.67826,0.28798
2767.74952,0.28953
2765.82077,0.29098
2763.89203,0.29241
2761.96328,0.29378
2760.03453,0.29501
2758.10579,0.29609
2756.17704,0.29728
2754.24830,0.29865
2752.31955,0.30004
2750.39081,0.30141
2748.46206,0.30271
2746.53332,0.30386
2744.60457,0.30496
2742.67583,0.30603
2740.74708,0.30708
2738.81834,0.30819
2736.88959,0.30925
2734.96085,0.31003
2733.03210,0.31063
2731.10336,0.31155
2729.17461,0.31297
2727.24586,0.31444
2725.31712,0.31558
2723.38837,0.31662
2721.45963,0.31783
2719.53088,0.31907
2717.60214,0.32021
2715.67339,0.32120
2713.74465,0.32226
2711.81590,0.32358
2709.88716,0.32489
2707.95841,0.32625
2706.02967,0.32784
2704.10092,0.32939
2702.17218,0.33070
2700.24343,0.33200
2698.31468,0.33339
2696.38594,0.33481
2694.45719,0.33620
2692.52845,0.33771
2690.59970,0.33938
2688.67096,0.34105
2686.74221,0.34269
2684.81347,0.34437
2682.88472,0.34599
2680.95598,0.34751
2679.02723,0.34903
2677.09849,0.35053
2675.16974,0.35202
2673.24100,0.35355
2671.31225,0.35522
2669.38351,0.35710
2667.45476,0.35896
2665.52601,0.36052
2663.59727,0.36182
2661.66852,0.36324
2659.73978,0.36489
2657.81103,0.36647
2655.88229,0.36788
2653.95354,0.36936
2652.02480,0.37085
2650.09605,0.37213
2648.16731,0.37324
2646.23856,0.37436
2644.30982,0.37552
2642.38107,0.37660
2640.45233,0.37758
2638.52358,0.37859
2636.59484,0.37967
2634.66609,0.38063
2632.73734,0.38129
2630.80860,0.38173
2628.87985,0.38218
2626.95111,0.38275
2625.02236,0.38338
2623.09362,0.38377
2621.16487,0.38379
2619.23613,0.38378
2617.30738,0.38401
2615.37864,0.38442
2613.44989,0.38480
2611.52115,0.38494
2609.59240,0.38486
2607.66366,0.38475
2605.73491,0.38472
2603.80616,0.38469
2601.87742,0.38456
2599.94867,0.38446
2598.01993,0.38459
2596.09118,0.38476
2594.16244,0.38475
2592.23369,0.38460
2590.30495,0.38443
2588.37620,0.38429
2586.44746,0.38417
2584.51871,0.38399
2582.58997,0.38370
2580.66122,0.38350
2578.73248,0.38353
2576.80373,0.38365
2574.87499,0.38378
2572.94624,0.38394
2571.01749,0.38404
2569.08875,0.38411
2567.16000,0.38424
2565.23126,0.38453
2563.30251,0.38489
2561.37377,0.38506
2559.44502,0.38507
2557.51628,0.38517
2555.58753,0.38550
2553.65879,0.38604
2551.73004,0.38664
2549.80130,0.38720
2547.87255,0.38775
2545.94381,0.38820
2544.01506,0.38853
2542.08631,0.38896
2540.15757,0.38951
2538.22882,0.38988
2536.30008,0.39011
2534.37133,0.39052
2532.44259,0.39101
2530.51384,0.39140
2528.58510,0.39176
2526.65635,0.39209
2524.72761,0.39248
2522.79886,0.39306
2520.87012,0.39366
2518.94137,0.39417
2517.01263,0.39463
2515.08388,0.39505
2513.15514,0.39541
2511.22639,0.39580
2509.29764,0.39621
2507.36890,0.39657
2505.44015,0.39699
2503.51141,0.39753
2501.58266,0.39804
2499.65392,0.39840
2497.72517,0.39865
2495.79643,0.39897
2493.86768,0.39934
2491.93894,0.39958
2490.01019,0.39973
2488.08145,0.39987
2486.15270,0.39982
2484.22396,0.39961
2482.29521,0.39941
2480.36647,0.39917
2478.43772,0.39881
2476.50897,0.39846
2474.58023,0.39824
2472.65148,0.39797
2470.72274,0.39752
2468.79399,0.39705
2466.86525,0.39663
2464.93650,0.39610
2463.00776,0.39547
2461.07901,0.39492
2459.15027,0.39449
2457.22152,0.39411
2455.29278,0.39364
2453.36403,0.39303
2451.43529,0.39242
2449.50654,0.39181
2447.57779,0.39113
2445.64905,0.39055
2443.72030,0.39021
2441.79156,0.38997
2439.86281,0.38978
2437.93407,0.38954
2436.00532,0.38923
2434.07658,0.38893
2432.14783,0.38867
2430.21909,0.38851
2428.29034,0.38848
2426.36160,0.38860
2424.43285,0.38887
2422.50411,0.38918
2420.57536,0.38944
2418.64662,0.38977
2416.71787,0.39023
2414.78912,0.39072
2412.86038,0.39121
2410.93163,0.39169
2409.00289,0.39224
2407.07414,0.39306
2405.14540,0.39403
2403.21665,0.39488
2401.28791,0.39562
2399.35916,0.39641
2397.43042,0.39731
2395.50167,0.39827
2393.57293,0.39912
2391.64418,0.39983
2389.71544,0.40071
2387.78669,0.40188
2385.85795,0.40305
2383.92920,0.40417
2382.00045,0.40525
2380.07171,0.40610
2378.14296,0.40676
2376.21422,0.40749
2374.28547,0.40828
2372.35673,0.40912
2370.42798,0.40999
2368.49924,0.41076
2366.57049,0.41140
2364.64175,0.41197
2362.71300,0.41248
2360.78426,0.41297
2358.85551,0.41347
2356.92677,0.41388
2354.99802,0.41407
2353.06927,0.41417
2351.14053,0.41429
2349.21178,0.41432
2347.28304,0.41422
2345.35429,0.41396
2343.42555,0.41352
2341.49680,0.41321
2339.56806,0.41336
2337.63931,0.41365
2335.71057,0.41357
2333.78182,0.41314
2331.85308,0.41252
2329.92433,0.41184
2327.99559,0.41128
2326.06684,0.41069
2324.13810,0.41005
2322.20935,0.40950
2320.28060,0.40895
2318.35186,0.40824
2316.42311,0.40747
2314.49437,0.40677
2312.56562,0.40599
2310.63688,0.40520
2308.70813,0.40465
2306.77939,0.40428
2304.85064,0.40395
2302.92190,0.40360
2300.99315,0.40315
2299.06441,0.40260
2297.13566,0.40199
2295.20692,0.40151
2293.27817,0.40129
2291.34943,0.40125
2289.42068,0.40128
2287.49193,0.40141
2285.56319,0.40156
2283.63444,0.40157
2281.70570,0.40151
2279.77695,0.40155
2277.84821,0.40175
2275.91946,0.40221
2273.99072,0.40279
2272.06197,0.40324
2270.13323,0.40371
2268.20448,0.40447
2266.27574,0.40529
2264.34699,0.40578
2262.41825,0.40606
2260.48950,0.40661
2258.56075,0.40756
2256.63201,0.40861
2254.70326,0.40961
2252.77452,0.41061
2250.84577,0.41158
2248.91703,0.41248
2246.98828,0.41324
2245.05954,0.41389
2243.13079,0.41468
2241.20205,0.41558
2239.27330,0.41645
2237.34456,0.41729
2235.41581,0.41798
2233.48707,0.41855
2231.55832,0.41924
2229.62958,0.42003
2227.70083,0.42061
2225.77208,0.42088
2223.84334,0.42105
2221.91459,0.42123
2219.98585,0.42127
2218.05710,0.42129
2216.12836,0.42147
2214.19961,0.42167
2212.27087,0.42167
2210.34212,0.42130
2208.41338,0.42065
2206.48463,0.42002
2204.55589,0.41940
2202.62714,0.41874
2200.69840,0.41818
2198.76965,0.41766
2196.84090,0.41700
2194.91216,0.41618
2192.98341,0.41519
2191.05467,0.41410
2189.12592,0.41299
2187.19718,0.41178
2185.26843,0.41057
2183.33969,0.40952
2181.41094,0.40845
2179.48220,0.40723
2177.55345,0.40606
2175.62471,0.40497
2173.69596,0.40384
2171.76722,0.40266
2169.83847,0.40159
2167.90973,0.40059
2165.98098,0.39950
2164.05223,0.39831
2162.12349,0.39723
2160.19474,0.39639
2158.26600,0.39564
2156.33725,0.39480
2154.40851,0.39406
2152.47976,0.39364
2150.55102,0.39333
2148.62227,0.39285
2146.69353,0.39229
2144.76478,0.39195
2142.83604,0.39190
2140.90729,0.39197
2138.97855,0.39208
2137.04980,0.39230
2135.12106,0.39277
2133.19231,0.39351
2131.26356,0.39431
2129.33482,0.39510
2127.40607,0.39612
2125.47733,0.39740
2123.54858,0.39875
2121.61984,0.40007
2119.69109,0.40141
2117.76235,0.40284
2115.83360,0.40424
2113.90486,0.40549
2111.97611,0.40667
2110.04737,0.40805
2108.11862,0.40961
2106.18988,0.41105
2104.26113,0.41233
2102.33238,0.41359
2100.40364,0.41493
2098.47489,0.41632
2096.54615,0.41763
2094.61740,0.41881
2092.68866,0.41985
2090.75991,0.42086
2088.83117,0.42193
2086.90242,0.42293
2084.97368,0.42380
2083.04493,0.42448
2081.11619,0.42500
2079.18744,0.42540
2077.25870,0.42578
2075.32995,0.42625
2073.40121,0.42676
2071.47246,0.42726
2069.54371,0.42760
2067.61497,0.42752
2065.68622,0.42716
2063.75748,0.42683
2061.82873,0.42639
2059.89999,0.42576
2057.97124,0.42514
2056.04250,0.42462
2054.11375,0.42424
2052.18501,0.42387
2050.25626,0.42330
2048.32752,0.42261
2046.39877,0.42191
2044.47003,0.42112
2042.54128,0.42028
2040.61254,0.41951
2038.68379,0.41879
2036.75504,0.41792
2034.82630,0.41688
2032.89755,0.41595
2030.96881,0.41525
2029.04006,0.41468
2027.11132,0.41413
2025.18257,0.41360
2023.25383,0.41315
2021.32508,0.41287
2019.39634,0.41266
2017.46759,0.41243
2015.53885,0.41239
2013.61010,0.41254
2011.68136,0.41274
2009.75261,0.41302
2007.82386,0.41342
2005.89512,0.41383
2003.96637,0.41425
2002.03763,0.41484
2000.10888,0.41577
1998.18014,0.41697
1996.25139,0.41819
1994.32265,0.41936
1992.39390,0.42059
1990.46516,0.42193
1988.53641,0.42338
1986.60767,0.42486
1984.67892,0.42637
1982.75018,0.42799
1980.82143,0.42969
1978.89269,0.43139
1976.96394,0.43311
1975.03519,0.43493
1973.10645,0.43684
1971.17770,0.43866
1969.24896,0.44033
1967.32021,0.44206
1965.39147,0.44388
1963.46272,0.44553
1961.53398,0.44695
1959.60523,0.44843
1957.67649,0.45009
1955.74774,0.45169
1953.81900,0.45298
1951.89025,0.45414
1949.96151,0.45529
1948.03276,0.45628
1946.10402,0.45704
1944.17527,0.45769
1942.24652,0.45829
1940.31778,0.45872
1938.38903,0.45889
1936.46029,0.45889
1934.53154,0.45877
1932.60280,0.45851
1930.67405,0.45816
1928.74531,0.45782
1926.81656,0.45752
1924.88782,0.45708
1922.95907,0.45619
1921.03033,0.45496
1919.10158,0.45363
1917.17284,0.45232
1915.24409,0.45123
1913.31534,0.45028
1911.38660,0.44902
1909.45785,0.44737
1907.52911,0.44585
1905.60036,0.44462
1903.67162,0.44340
1901.74287,0.44207
1899.81413,0.44063
1897.88538,0.43906
1895.95664,0.43739
1894.02789,0.43588
1892.09915,0.43482
1890.17040,0.43399
1888.24166,0.43308
1886.31291,0.43213
1884.38417,0.43120
1882.45542,0.43034
1880.52667,0.42961
1878.59793,0.42897
1876.66918,0.42834
1874.74044,0.42785
1872.81169,0.42764
1870.88295,0.42764
1868.95420,0.42781
1867.02546,0.42832
1865.09671,0.42916
1863.16797,0.42996
1861.23922,0.43058
1859.31048,0.43128
1857.38173,0.43221
1855.45299,0.43328
1853.52424,0.43450
1851.59549,0.43584
1849.66675,0.43714
1847.73800,0.43845
1845.80926,0.43986
1843.88051,0.44132
1841.95177,0.44279
1840.02302,0.44441
1838.09428,0.44606
1836.16553,0.44748
1834.23679,0.44871
1832.30804,0.44998
1830.37930,0.45126
1828.45055,0.45246
1826.52181,0.45349
1824.59306,0.45436
1822.66432,0.45533
1820.73557,0.45630
1818.80682,0.45699
1816.87808,0.45736
1814.94933,0.45754
1813.02059,0.45746
1811.09184,0.45711
1809.16310,0.45661
1807.23435,0.45589
1805.30561,0.45474
1803.37686,0.45316
1801.44812,0.45127
1799.51937,0.44931
1797.59063,0.44753
1795.66188,0.44601
1793.73314,0.44441
1791.80439,0.44250
1789.87565,0.44085
1787.94690,0.43951
1786.01815,0.43784
1784.08941,0.43567
1782.16066,0.43330
1780.23192,0.43070
1778.30317,0.42786
1776.37443,0.42501
1774.44568,0.42182
1772.51694,0.41792
1770.58819,0.41405
1768.65945,0.41073
1766.73070,0.40750
1764.80196,0.40418
1762.87321,0.40038
1760.94447,0.39612
1759.01572,0.39208
1757.08697,0.38808
1755.15823,0.38402
1753.22948,0.37989
1751.30074,0.37510
1749.37199,0.36995
1747.44325,0.36538
1745.51450,0.36127
1743.58576,0.35725
1741.65701,0.35323
1739.72827,0.34909
1737.79952,0.34511
1735.87078,0.34086
1733.94203,0.33521
1732.01329,0.32903
1730.08454,0.32289
1728.15580,0.31568
1726.22705,0.30745
1724.29830,0.29899
1722.36956,0.29173
1720.44081,0.28698
1718.51207,0.28454
1716.58332,0.28354
1714.65458,0.28270
1712.72583,0.28058
1710.79709,0.27611
1708.86834,0.26900
1706.93960,0.25936
1705.01085,0.24859
1703.08211,0.23934
1701.15336,0.23117
1699.22462,0.22357
1697.29587,0.21845
1695.36713,0.21540
1693.43838,0.21396
1691.50963,0.21380
1689.58089,0.21419
1687.65214,0.21494
1685.72340,0.21595
1683.79465,0.21691
1681.86591,0.21774
1679.93716,0.21834
1678.00842,0.21834
1676.07967,0.21747
1674.15093,0.21606
1672.22218,0.21439
1670.29344,0.21190
1668.36469,0.20856
1666.43595,0.20526
1664.50720,0.20193
1662.57845,0.19804
1660.64971,0.19391
1658.72096,0.18989
1656.79222,0.18604
1654.86347,0.18179
1652.93473,0.17595
1651.00598,0.17048
1649.07724,0.16625
1647.14849,0.16130
1645.21975,0.15596
1643.29100,0.15166
1641.36226,0.14785
1639.43351,0.14404
1637.50477,0.14009
1635.57602,0.13558
1633.64728,0.13124
1631.71853,0.12779
1629.78978,0.12467
1627.86104,0.12166
1625.93229,0.11899
1624.00355,0.11648
1622.07480,0.11401
1620.14606,0.11200
1618.21731,0.11040
1616.28857,0.10892
1614.35982,0.10795
1612.43108,0.10757
1610.50233,0.10763
1608.57359,0.10820
1606.64484,0.10938
1604.71610,0.11102
1602.78735,0.11314
1600.85861,0.11576
1598.92986,0.11868
1597.00111,0.12159
1595.07237,0.12444
1593.14362,0.12726
1591.21488,0.12981
1589.28613,0.13223
1587.35739,0.13486
1585.42864,0.13761
1583.49990,0.14047
1581.57115,0.14369
1579.64241,0.14731
1577.71366,0.15141
1575.78492,0.15637
1573.85617,0.16165
1571.92743,0.16687
1569.99868,0.17274
1568.06993,0.17922
1566.14119,0.18572
1564.21244,0.19225
1562.28370,0.19850
1560.35495,0.20534
1558.42621,0.21396
1556.49746,0.22159
1554.56872,0.22751
1552.63997,0.23282
1550.71123,0.23763
1548.78248,0.24187
1546.85374,0.24513
1544.92499,0.24753
1542.99625,0.24949
1541.06750,0.25133
1539.13876,0.25335
1537.21001,0.25514
1535.28126,0.25613
1533.35252,0.25636
1531.42377,0.25618
1529.49503,0.25556
1527.56628,0.25410
1525.63754,0.25197
1523.70879,0.24958
1521.78005,0.24658
1519.85130,0.24298
1517.92256,0.23935
1515.99381,0.23565
1514.06507,0.23200
1512.13632,0.22837
1510.20758,0.22487
1508.27883,0.22154
1506.35008,0.21793
1504.42134,0.21486
1502.49259,0.21272
1500.56385,0.21058
1498.63510,0.20801
1496.70636,0.20523
1494.77761,0.20271
1492.84887,0.20054
1490.92012,0.19837
1488.99138,0.19609
1487.06263,0.19396
1485.13389,0.19205
1483.20514,0.19048
1481.27640,0.18935
1479.34765,0.18855
1477.41891,0.18776
1475.49016,0.18681
1473.56141,0.18599
1471.63267,0.18569
1469.70392,0.18595
1467.77518,0.18657
1465.84643,0.18767
1463.91769,0.18942
1461.98894,0.19155
1460.06020,0.19395
1458.13145,0.19681
1456.20271,0.20022
1454.27396,0.20391
1452.34522,0.20772
1450.41647,0.21164
1448.48773,0.21552
1446.55898,0.21900
1444.63024,0.22168
1442.70149,0.22335
1440.77274,0.22393
1438.84400,0.22350
1436.91525,0.22204
1434.98651,0.22009
1433.05776,0.21848
1431.12902,0.21720
1429.20027,0.21615
1427.27153,0.21546
1425.34278,0.21499
1423.41404,0.21428
1421.48529,0.21289
1419.55655,0.21052
1417.62780,0.20745
1415.69906,0.20426
1413.77031,0.20091
1411.84156,0.19722
1409.91282,0.19296
1407.98407,0.18806
1406.05533,0.18255
1404.12658,0.17637
1402.19784,0.16975
1400.26909,0.16246
1398.34035,0.15435
1396.41160,0.14585
1394.48286,0.13707
1392.55411,0.12876
1390.62537,0.12135
1388.69662,0.11394
1386.76788,0.10632
1384.83913,0.09951
1382.91039,0.09379
1380.98164,0.08872
1379.05289,0.08408
1377.12415,0.07997
1375.19540,0.07635
1373.26666,0.07315
1371.33791,0.07061
1369.40917,0.06851
1367.48042,0.06656
1365.55168,0.06491
1363.62293,0.06342
1361.69419,0.06180
1359.76544,0.06026
1357.83670,0.05901
1355.90795,0.05789
1353.97921,0.05686
1352.05046,0.05595
1350.12172,0.05505
1348.19297,0.05407
1346.26422,0.05317
1344.33548,0.05248
1342.40673,0.05173
1340.47799,0.05070
1338.54924,0.04948
1336.62050,0.04833
1334.69175,0.04734
1332.76301,0.04641
1330.83426,0.04550
1328.90552,0.04460
1326.97677,0.04376
1325.04803,0.04295
1323.11928,0.04194
1321.19054,0.04068
1319.26179,0.03941
1317.33304,0.03828
1315.40430,0.03727
1313.47555,0.03627
1311.54681,0.03514
1309.61806,0.03385
1307.68932,0.03246
1305.76057,0.03121
1303.83183,0.03027
1301.90308,0.02942
1299.97434,0.02847
1298.04559,0.02747
1296.11685,0.02658
1294.18810,0.02589
1292.25936,0.02534
1290.33061,0.02474
1288.40187,0.02403
1286.47312,0.02336
1284.54437,0.02280
1282.61563,0.02236
1280.68688,0.02205
1278.75814,0.02201
1276.82939,0.02220
1274.90065,0.02236
1272.97190,0.02246
1271.04316,0.02263
1269.11441,0.02289
1267.18567,0.02316
1265.25692,0.02340
1263.32818,0.02367
1261.39943,0.02392
1259.47069,0.02415
1257.54194,0.02428
1255.61320,0.02425
1253.68445,0.02408
1251.75570,0.02396
1249.82696,0.02409
1247.89821,0.02425
1245.96947,0.02422
1244.04072,0.02419
1242.11198,0.02426
1240.18323,0.02431
1238.25449,0.02418
1236.32574,0.02407
1234.39700,0.02414
1232.46825,0.02427
1230.53951,0.02444
1228.61076,0.02454
1226.68202,0.02436
1224.75327,0.02407
1222.82452,0.02392
1220.89578,0.02396
1218.96703,0.02408
1217.03829,0.02411
1215.10954,0.02408
1213.18080,0.02399
1211.25205,0.02378
1209.32331,0.02362
1207.39456,0.02358
1205.46582,0.02360
1203.53707,0.02376
1201.60833,0.02401
1199.67958,0.02409
1197.75084,0.02409
1195.82209,0.02427
1193.89335,0.02450
1191.96460,0.02467
1190.03585,0.02487
1188.10711,0.02506
1186.17836,0.02518
1184.24962,0.02520
1182.32087,0.02517
1180.39213,0.02522
1178.46338,0.02555
1176.53464,0.02602
1174.60589,0.02625
1172.67715,0.02627
1170.74840,0.02647
1168.81966,0.02690
1166.89091,0.02706
1164.96217,0.02692
1163.03342,0.02707
1161.10467,0.02764
1159.17593,0.02809
1157.24718,0.02817
1155.31844,0.02819
1153.38969,0.02838
1151.46095,0.02863
1149.53220,0.02891
1147.60346,0.02932
1145.67471,0.02978
1143.74597,0.03004
1141.81722,0.03014
1139.88848,0.03031
1137.95973,0.03062
1136.03099,0.03086
1134.10224,0.03083
1132.17350,0.03052
1130.24475,0.03048
1128.31600,0.03089
1126.38726,0.03117
1124.45851,0.03128
1122.52977,0.03155
1120.60102,0.03174
1118.67228,0.03147
1116.74353,0.03106
1114.81479,0.03104
1112.88604,0.03142
1110.95730,0.03190
1109.02855,0.03212
1107.09981,0.03190
1105.17106,0.03153
1103.24232,0.03160
1101.31357,0.03212
1099.38483,0.03240
1097.45608,0.03221
1095.52733,0.03193
1093.59859,0.03176
1091.66984,0.03165
1089.74110,0.03144
1087.81235,0.03118
1085.88361,0.03115
1083.95486,0.03119
1082.02612,0.03111
1080.09737,0.03114
1078.16863,0.03124
1076.23988,0.03111
1074.31114,0.03077
1072.38239,0.03047
1070.45365,0.03030
1068.52490,0.03010
1066.59615,0.02994
1064.66741,0.02987
1062.73866,0.02991
1060.80992,0.03006
1058.88117,0.02995
1056.95243,0.02953
1055.02368,0.02920
1053.09494,0.02914
1051.16619,0.02906
1049.23745,0.02886
1047.30870,0.02877
1045.37996,0.02867
1043.45121,0.02830
1041.52247,0.02794
1039.59372,0.02786
1037.66498,0.02778
1035.73623,0.02740
1033.80748,0.02704
1031.87874,0.02702
1029.94999,0.02694
1028.02125,0.02661
1026.09250,0.02652
1024.16376,0.02658
1022.23501,0.02638
1020.30627,0.02595
1018.37752,0.02555
1016.44878,0.02526
1014.52003,0.02492
1012.59129,0.02455
1010.66254,0.02426
1008.73380,0.02405
1006.80505,0.02375
1004.87631,0.02327
1002.94756,0.02276
1001.01881,0.02245
999.09007,0.02233
997.16132,0.02232
995.23258,0.02223
993.30383,0.02189
991.37509,0.02143
989.44634,0.02114
987.51760,0.02121
985.58885,0.02151
983.66011,0.02187
981.73136,0.02205
979.80262,0.02204
977.87387,0.02219
975.94513,0.02252
974.01638,0.02276
972.08763,0.02304
970.15889,0.02348
968.23014,0.02386
966.30140,0.02418
964.37265,0.02480
962.44391,0.02584
960.51516,0.02704
958.58642,0.02806
956.65767,0.02880
954.72893,0.02957
952.80018,0.03068
950.87144,0.03196
948.94269,0.03322
947.01395,0.03463
945.08520,0.03618
943.15646,0.03753
941.22771,0.03863
939.29896,0.03979
937.37022,0.04119
935.44147,0.04270
933.51273,0.04435
931.58398,0.04615
929.65524,0.04777
927.72649,0.04912
925.79775,0.05053
923.86900,0.05231
921.94026,0.05426
920.01151,0.05590
918.08277,0.05741
916.15402,0.05927
914.22528,0.06120
912.29653,0.06273
910.36779,0.06403
908.43904,0.06560
906.51029,0.06745
904.58155,0.06922
902.65280,0.07081
900.72406,0.07244
898.79531,0.07416
896.86657,0.07577
894.93782,0.07734
893.00908,0.07908
891.08033,0.08075
889.15159,0.08198
887.22284,0.08298
885.29410,0.08420
883.36535,0.08565
881.43661,0.08711
879.50786,0.08859
877.57911,0.09008
875.65037,0.09146
873.72162,0.09276
871.79288,0.09419
869.86413,0.09575
867.93539,0.09739
866.00664,0.09897
864.07790,0.10043
862.14915,0.10191
860.22041,0.10323
858.29166,0.10427
856.36292,0.10551
854.43417,0.10710
852.50543,0.10853
850.57668,0.10947
848.64794,0.11039
846.71919,0.11199
844.79044,0.11390
842.86170,0.11518
840.93295,0.11592
839.00421,0.11691
837.07546,0.11812
835.14672,0.11900
833.21797,0.11978
831.28923,0.12092
829.36048,0.12225
827.43174,0.12359
825.50299,0.12488
823.57425,0.12590
821.64550,0.12672
819.71676,0.12761
817.78801,0.12861
815.85926,0.12974
813.93052,0.13093
812.00177,0.13184
810.07303,0.13242
808.14428,0.13305
806.21554,0.13376
804.28679,0.13445
802.35805,0.13520
800.42930,0.13594
798.50056,0.13657
796.57181,0.13719
794.64307,0.13780
792.71432,0.13843
790.78558,0.13911
788.85683,0.13977
786.92809,0.14015
784.99934,0.14020
783.07059,0.14051
781.14185,0.14124
779.21310,0.14180
777.28436,0.14206
775.35561,0.14239
773.42687,0.14281
771.49812,0.14325
769.56938,0.14369
767.64063,0.14398
765.71189,0.14440
763.78314,0.14517
761.85440,0.14581
759.92565,0.14617
757.99691,0.14653
756.06816,0.14711
754.13942,0.14787
752.21067,0.14851
750.28192,0.14887
748.35318,0.14885
746.42443,0.14875
744.49569,0.14932
742.56694,0.15032
740.63820,0.15090
738.70945,0.15110
736.78071,0.15145
734.85196,0.15198
732.92322,0.15243
730.99447,0.15286
729.06573,0.15349
727.13698,0.15421
725.20824,0.15466
723.27949,0.15466
721.35074,0.15427
719.42200,0.15392
717.49325,0.15432
715.56451,0.15541
713.63576,0.15636
711.70702,0.15694
709.77827,0.15762
707.84953,0.15842
705.92078,0.15884
703.99204,0.15906
702.06329,0.15978
700.13455,0.16093
698.20580,0.16173
696.27706,0.16174
694.34831,0.16149
692.41957,0.16166
690.49082,0.16220
688.56207,0.16270
686.63333,0.16293
684.70458,0.16302
682.77584,0.16322
680.84709,0.16374
678.91835,0.16471
676.98960,0.16594
675.06086,0.16662
673.13211,0.16628
671.20337,0.16576
669.27462,0.16594
667.34588,0.16646
665.41713,0.16667
663.48839,0.16694
661.55964,0.16768
659.63090,0.16828
657.70215,0.16816
655.77340,0.16784
653.84466,0.16770
651.91591,0.16771
649.98717,0.16809
648.05842,0.16869
646.12968,0.16927
644.20093,0.16979
642.27219,0.17016
640.34344,0.17044
638.41470,0.17040
636.48595,0.17012
634.55721,0.17041
632.62846,0.17121
630.69972,0.17159
628.77097,0.17170
626.84222,0.17198
624.91348,0.17203
622.98473,0.17228
621.05599,0.17328
619.12724,0.17414
617.19850,0.17439
615.26975,0.17458
613.34101,0.17510
611.41226,0.17590
609.48352,0.17647
607.55477,0.17663
605.62603,0.17735
603.69728,0.17850
601.76854,0.17794
599.83979,0.17631
