7497.03301,0.60433
7495.10426,0.60759
7493.17552,0.60641
7491.24677,0.60035
7489.31803,0.59377
7487.38928,0.59262
7485.46054,0.59762
7483.53179,0.60200
7481.60305,0.60010
7479.67430,0.59587
7477.74556,0.59493
7475.81681,0.59677
7473.88807,0.59978
7471.95932,0.60211
7470.03057,0.60130
7468.10183,0.59823
7466.17308,0.59418
7464.24434,0.59199
7462.31559,0.59491
7460.38685,0.59925
7458.45810,0.60111
7456.52936,0.60123
7454.60061,0.59976
7452.67187,0.59664
7450.74312,0.59474
7448.81438,0.59727
7446.88563,0.60078
7444.95689,0.59895
7443.02814,0.59298
7441.09940,0.58913
7439.17065,0.59030
7437.24190,0.59335
7435.31316,0.59420
7433.38441,0.59336
7431.45567,0.59441
7429.52692,0.59940
7427.59818,0.60419
7425.66943,0.60439
7423.74069,0.60425
7421.81194,0.60672
7419.88320,0.60716
7417.95445,0.60378
7416.02571,0.59976
7414.09696,0.59745
7412.16822,0.59629
7410.23947,0.59477
7408.31073,0.59332
7406.38198,0.59380
7404.45323,0.59733
7402.52449,0.60299
7400.59574,0.60679
7398.66700,0.60648
7396.73825,0.60543
7394.80951,0.60426
7392.88076,0.59979
7390.95202,0.59587
7389.02327,0.59720
7387.09453,0.60039
7385.16578,0.60211
7383.23704,0.60319
7381.30829,0.60448
7379.37955,0.60615
7377.45080,0.60575
7375.52205,0.59968
7373.59331,0.59354
7371.66456,0.59598
7369.73582,0.60100
7367.80707,0.59870
7365.87833,0.59267
7363.94958,0.58931
7362.02084,0.58981
7360.09209,0.59254
7358.16335,0.59445
7356.23460,0.59646
7354.30586,0.59973
7352.37711,0.60187
7350.44837,0.60206
7348.51962,0.60041
7346.59088,0.59912
7344.66213,0.60165
7342.73338,0.60506
7340.80464,0.60493
7338.87589,0.60250
7336.94715,0.59975
7335.01840,0.59789
7333.08966,0.59767
7331.16091,0.59895
7329.23217,0.60177
7327.30342,0.60292
7325.37468,0.60041
7323.44593,0.59862
7321.51719,0.60027
7319.58844,0.60251
7317.65970,0.60145
7315.73095,0.59943
7313.80221,0.60163
7311.87346,0.60388
7309.94471,0.60143
7308.01597,0.59937
7306.08722,0.59893
7304.15848,0.59611
7302.22973,0.59484
7300.30099,0.59808
7298.37224,0.60087
7296.44350,0.60146
7294.51475,0.60066
7292.58601,0.59794
7290.65726,0.59733
7288.72852,0.60098
7286.79977,0.60371
7284.87103,0.60435
7282.94228,0.60449
7281.01353,0.60136
7279.08479,0.59766
7277.15604,0.59875
7275.22730,0.60181
7273.29855,0.60315
7271.36981,0.60291
7269.44106,0.60161
7267.51232,0.60196
7265.58357,0.60551
7263.65483,0.60871
7261.72608,0.60980
7259.79734,0.60979
7257.86859,0.60749
7255.93985,0.60285
7254.01110,0.59855
7252.08236,0.59575
7250.15361,0.59445
7248.22486,0.59386
7246.29612,0.59324
7244.36737,0.59516
7242.43863,0.59908
7240.50988,0.59934
7238.58114,0.59800
7236.65239,0.60095
7234.72365,0.60566
7232.79490,0.60746
7230.86616,0.60574
7228.93741,0.60306
7227.00867,0.60283
7225.07992,0.60291
7223.15118,0.60015
7221.22243,0.59801
7219.29369,0.59751
7217.36494,0.59698
7215.43619,0.59770
7213.50745,0.59815
7211.57870,0.59741
7209.64996,0.59792
7207.72121,0.59930
7205.79247,0.59986
7203.86372,0.59912
7201.93498,0.59835
7200.00623,0.60058
7198.07749,0.60620
7196.14874,0.61162
7194.22000,0.61157
7192.29125,0.60508
7190.36251,0.59951
7188.43376,0.60034
7186.50501,0.60433
7184.57627,0.60637
7182.64752,0.60481
7180.71878,0.60234
7178.79003,0.60281
7176.86129,0.60544
7174.93254,0.60667
7173.00380,0.60525
7171.07505,0.60299
7169.14631,0.60272
7167.21756,0.60427
7165.28882,0.60531
7163.36007,0.60587
7161.43133,0.60513
7159.50258,0.60395
7157.57384,0.60581
7155.64509,0.60780
7153.71634,0.60873
7151.78760,0.61036
7149.85885,0.60826
7147.93011,0.60339
7146.00136,0.60139
7144.07262,0.60164
7142.14387,0.60306
7140.21513,0.60545
7138.28638,0.60718
7136.35764,0.60783
7134.42889,0.60749
7132.50015,0.60743
7130.57140,0.60910
7128.64266,0.61040
7126.71391,0.60961
7124.78516,0.60688
7122.85642,0.60284
7120.92767,0.60141
7118.99893,0.60467
7117.07018,0.60902
7115.14144,0.61213
7113.21269,0.61313
7111.28395,0.61018
7109.35520,0.60630
7107.42646,0.60621
7105.49771,0.60757
7103.56897,0.60642
7101.64022,0.60409
7099.71148,0.60271
7097.78273,0.60098
7095.85399,0.59855
7093.92524,0.59984
7091.99649,0.60504
7090.06775,0.60730
7088.13900,0.60482
7086.21026,0.60188
7084.28151,0.60090
7082.35277,0.60229
7080.42402,0.60535
7078.49528,0.60845
7076.56653,0.60970
7074.63779,0.60751
7072.70904,0.60457
7070.78030,0.60386
7068.85155,0.60365
7066.92281,0.60362
7064.99406,0.60413
7063.06532,0.60319
7061.13657,0.60197
7059.20782,0.60284
7057.27908,0.60427
7055.35033,0.60600
7053.42159,0.60972
7051.49284,0.61279
7049.56410,0.61241
7047.63535,0.61027
7045.70661,0.60824
7043.77786,0.60605
7041.84912,0.60347
7039.92037,0.60305
7037.99163,0.60591
7036.06288,0.60790
7034.13414,0.60633
7032.20539,0.60342
7030.27664,0.60162
7028.34790,0.60203
7026.41915,0.60333
7024.49041,0.60358
7022.56166,0.60433
7020.63292,0.60566
7018.70417,0.60534
7016.77543,0.60489
7014.84668,0.60624
7012.91794,0.60739
7010.98919,0.60645
7009.06045,0.60536
7007.13170,0.60494
7005.20296,0.60428
7003.27421,0.60629
7001.34547,0.61046
6999.41672,0.61078
6997.48797,0.60752
6995.55923,0.60546
6993.63048,0.60565
6991.70174,0.60568
6989.77299,0.60379
6987.84425,0.60222
6985.91550,0.60327
6983.98676,0.60466
6982.05801,0.60384
6980.12927,0.60258
6978.20052,0.60444
6976.27178,0.60793
6974.34303,0.60782
6972.41429,0.60493
6970.48554,0.60412
6968.55680,0.60576
6966.62805,0.60690
6964.69930,0.60595
6962.77056,0.60508
6960.84181,0.60791
6958.91307,0.61277
6956.98432,0.61400
6955.05558,0.61114
6953.12683,0.60915
6951.19809,0.60906
6949.26934,0.60764
6947.34060,0.60590
6945.41185,0.60571
6943.48311,0.60469
6941.55436,0.60327
6939.62562,0.60406
6937.69687,0.60598
6935.76812,0.60724
6933.83938,0.60857
6931.91063,0.60944
6929.98189,0.60731
6928.05314,0.60512
6926.12440,0.60674
6924.19565,0.60930
6922.26691,0.61080
6920.33816,0.61161
6918.40942,0.61044
6916.48067,0.60896
6914.55193,0.61028
6912.62318,0.61253
6910.69444,0.61303
6908.76569,0.61204
6906.83695,0.61079
6904.90820,0.61126
6902.97945,0.61283
6901.05071,0.61436
6899.12196,0.61747
6897.19322,0.62037
6895.26447,0.62010
6893.33573,0.61782
6891.40698,0.61584
6889.47824,0.61486
6887.54949,0.61342
6885.62075,0.61106
6883.69200,0.60877
6881.76326,0.60762
6879.83451,0.61040
6877.90577,0.61676
6875.97702,0.61998
6874.04828,0.61731
6872.11953,0.61467
6870.19078,0.61517
6868.26204,0.61532
6866.33329,0.61430
6864.40455,0.61388
6862.47580,0.61356
6860.54706,0.61322
6858.61831,0.61299
6856.68957,0.61165
6854.76082,0.60978
6852.83208,0.60875
6850.90333,0.60861
6848.97459,0.60886
6847.04584,0.60849
6845.11710,0.60869
6843.18835,0.61157
6841.25960,0.61496
6839.33086,0.61614
6837.40211,0.61551
6835.47337,0.61369
6833.54462,0.61192
6831.61588,0.61265
6829.68713,0.61450
6827.75839,0.61375
6825.82964,0.61110
6823.90090,0.60973
6821.97215,0.61074
6820.04341,0.61273
6818.11466,0.61386
6816.18592,0.61348
6814.25717,0.61175
6812.32843,0.61004
6810.39968,0.61073
6808.47093,0.61378
6806.54219,0.61619
6804.61344,0.61660
6802.68470,0.61555
6800.75595,0.61360
6798.82721,0.61294
6796.89846,0.61307
6794.96972,0.61021
6793.04097,0.60639
6791.11223,0.60671
6789.18348,0.60971
6787.25474,0.61222
6785.32599,0.61488
6783.39725,0.61648
6781.46850,0.61639
6779.53975,0.61728
6777.61101,0.61767
6775.68226,0.61546
6773.75352,0.61392
6771.82477,0.61418
6769.89603,0.61399
6767.96728,0.61358
6766.03854,0.61372
6764.10979,0.61472
6762.18105,0.61725
6760.25230,0.61955
6758.32356,0.61894
6756.39481,0.61514
6754.46607,0.61180
6752.53732,0.61399
6750.60858,0.61975
6748.67983,0.62198
6746.75108,0.61966
6744.82234,0.61778
6742.89359,0.61932
6740.96485,0.62257
6739.03610,0.62331
6737.10736,0.62059
6735.17861,0.61824
6733.24987,0.61858
6731.32112,0.61951
6729.39238,0.61945
6727.46363,0.62080
6725.53489,0.62323
6723.60614,0.62256
6721.67740,0.61986
6719.74865,0.61813
6717.81991,0.61689
6715.89116,0.61662
6713.96241,0.61794
6712.03367,0.61869
6710.10492,0.61730
6708.17618,0.61577
6706.24743,0.61548
6704.31869,0.61590
6702.38994,0.61749
6700.46120,0.61865
6698.53245,0.61823
6696.60371,0.61867
6694.67496,0.61925
6692.74622,0.61821
6690.81747,0.61841
6688.88873,0.62063
6686.95998,0.62192
6685.03123,0.62201
6683.10249,0.62174
6681.17374,0.62058
6679.24500,0.61887
6677.31625,0.61704
6675.38751,0.61516
6673.45876,0.61449
6671.53002,0.61749
6669.60127,0.62241
6667.67253,0.62375
6665.74378,0.62246
6663.81504,0.62258
6661.88629,0.62355
6659.95755,0.62459
6658.02880,0.62477
6656.10006,0.62260
6654.17131,0.61967
6652.24256,0.61890
6650.31382,0.62028
6648.38507,0.62229
6646.45633,0.62479
6644.52758,0.62660
6642.59884,0.62676
6640.67009,0.62585
6638.74135,0.62391
6636.81260,0.62179
6634.88386,0.62009
6632.95511,0.61894
6631.02637,0.61957
6629.09762,0.62134
6627.16888,0.62150
6625.24013,0.61968
6623.31139,0.61879
6621.38264,0.61953
6619.45389,0.61918
6617.52515,0.61814
6615.59640,0.61968
6613.66766,0.62378
6611.73891,0.62720
6609.81017,0.62737
6607.88142,0.62534
6605.95268,0.62422
6604.02393,0.62426
6602.09519,0.62413
6600.16644,0.62395
6598.23770,0.62386
6596.30895,0.62370
6594.38021,0.62269
6592.45146,0.62145
6590.52271,0.62224
6588.59397,0.62400
6586.66522,0.62473
6584.73648,0.62527
6582.80773,0.62574
6580.87899,0.62553
6578.95024,0.62584
6577.02150,0.62701
6575.09275,0.62683
6573.16401,0.62537
6571.23526,0.62476
6569.30652,0.62414
6567.37777,0.62304
6565.44903,0.62315
6563.52028,0.62339
6561.59154,0.62164
6559.66279,0.61996
6557.73404,0.62182
6555.80530,0.62589
6553.87655,0.62756
6551.94781,0.62632
6550.01906,0.62613
6548.09032,0.62731
6546.16157,0.62569
6544.23283,0.62215
6542.30408,0.62191
6540.37534,0.62444
6538.44659,0.62564
6536.51785,0.62625
6534.58910,0.62823
6532.66036,0.62850
6530.73161,0.62560
6528.80287,0.62337
6526.87412,0.62320
6524.94537,0.62333
6523.01663,0.62358
6521.08788,0.62419
6519.15914,0.62521
6517.23039,0.62663
6515.30165,0.62704
6513.37290,0.62608
6511.44416,0.62639
6509.51541,0.62809
6507.58667,0.62786
6505.65792,0.62634
6503.72918,0.62657
6501.80043,0.62821
6499.87169,0.62950
6497.94294,0.62882
6496.01419,0.62668
6494.08545,0.62646
6492.15670,0.62865
6490.22796,0.62967
6488.29921,0.62761
6486.37047,0.62513
6484.44172,0.62489
6482.51298,0.62567
6480.58423,0.62596
6478.65549,0.62659
6476.72674,0.62736
6474.79800,0.62677
6472.86925,0.62523
6470.94051,0.62491
6469.01176,0.62609
6467.08302,0.62770
6465.15427,0.62899
6463.22552,0.62760
6461.29678,0.62394
6459.36803,0.62304
6457.43929,0.62500
6455.51054,0.62698
6453.58180,0.62985
6451.65305,0.63309
6449.72431,0.63422
6447.79556,0.63289
6445.86682,0.63061
6443.93807,0.62962
6442.00933,0.63001
6440.08058,0.62930
6438.15184,0.62769
6436.22309,0.62791
6434.29434,0.62977
6432.36560,0.63081
6430.43685,0.62995
6428.50811,0.62898
6426.57936,0.62965
6424.65062,0.63104
6422.72187,0.63224
6420.79313,0.63269
6418.86438,0.63174
6416.93564,0.62964
6415.00689,0.62715
6413.07815,0.62613
6411.14940,0.62814
6409.22066,0.63089
6407.29191,0.63056
6405.36317,0.62816
6403.43442,0.62829
6401.50567,0.63098
6399.57693,0.63173
6397.64818,0.63015
6395.71944,0.62969
6393.79069,0.63031
6391.86195,0.63069
6389.93320,0.63136
6388.00446,0.63171
6386.07571,0.63100
6384.14697,0.62990
6382.21822,0.62898
6380.28948,0.62853
6378.36073,0.62796
6376.43199,0.62731
6374.50324,0.62820
6372.57450,0.62978
6370.64575,0.63032
6368.71700,0.63063
6366.78826,0.63096
6364.85951,0.63081
6362.93077,0.63082
6361.00202,0.63165
6359.07328,0.63246
6357.14453,0.63201
6355.21579,0.63150
6353.28704,0.63198
6351.35830,0.63249
6349.42955,0.63211
6347.50081,0.63092
6345.57206,0.63020
6343.64332,0.62991
6341.71457,0.62904
6339.78582,0.62865
6337.85708,0.62962
6335.92833,0.63033
6333.99959,0.62928
6332.07084,0.62824
6330.14210,0.62843
6328.21335,0.62788
6326.28461,0.62747
6324.35586,0.62926
6322.42712,0.63066
6320.49837,0.62981
6318.56963,0.62874
6316.64088,0.62875
6314.71214,0.62904
6312.78339,0.62891
6310.85465,0.62947
6308.92590,0.63147
6306.99715,0.63316
6305.06841,0.63320
6303.13966,0.63219
6301.21092,0.63114
6299.28217,0.63106
6297.35343,0.63187
6295.42468,0.63247
6293.49594,0.63281
6291.56719,0.63331
6289.63845,0.63343
6287.70970,0.63274
6285.78096,0.63159
6283.85221,0.63083
6281.92347,0.63114
6279.99472,0.63208
6278.06598,0.63269
6276.13723,0.63221
6274.20848,0.63127
6272.27974,0.63210
6270.35099,0.63413
6268.42225,0.63438
6266.49350,0.63299
6264.56476,0.63158
6262.63601,0.63068
6260.70727,0.63076
6258.77852,0.63216
6256.84978,0.63435
6254.92103,0.63496
6252.99229,0.63304
6251.06354,0.63199
6249.13480,0.63327
6247.20605,0.63389
6245.27730,0.63256
6243.34856,0.63128
6241.41981,0.63128
6239.49107,0.63224
6237.56232,0.63332
6235.63358,0.63341
6233.70483,0.63304
6231.77609,0.63369
6229.84734,0.63477
6227.91860,0.63503
6225.98985,0.63455
6224.06111,0.63418
6222.13236,0.63474
6220.20362,0.63556
6218.27487,0.63543
6216.34613,0.63483
6214.41738,0.63414
6212.48863,0.63281
6210.55989,0.63166
6208.63114,0.63213
6206.70240,0.63394
6204.77365,0.63483
6202.84491,0.63366
6200.91616,0.63185
6198.98742,0.63121
6197.05867,0.63283
6195.12993,0.63563
6193.20118,0.63711
6191.27244,0.63688
6189.34369,0.63647
6187.41495,0.63636
6185.48620,0.63548
6183.55746,0.63432
6181.62871,0.63453
6179.69996,0.63573
6177.77122,0.63673
6175.84247,0.63717
6173.91373,0.63711
6171.98498,0.63650
6170.05624,0.63567
6168.12749,0.63534
6166.19875,0.63561
6164.27000,0.63605
6162.34126,0.63597
6160.41251,0.63525
6158.48377,0.63446
6156.55502,0.63431
6154.62628,0.63589
6152.69753,0.63877
6150.76878,0.64007
6148.84004,0.63848
6146.91129,0.63605
6144.98255,0.63488
6143.05380,0.63558
6141.12506,0.63756
6139.19631,0.63865
6137.26757,0.63785
6135.33882,0.63674
6133.41008,0.63607
6131.48133,0.63572
6129.55259,0.63611
6127.62384,0.63615
6125.69510,0.63576
6123.76635,0.63718
6121.83761,0.63917
6119.90886,0.63943
6117.98011,0.63906
6116.05137,0.63888
6114.12262,0.63894
6112.19388,0.63920
6110.26513,0.63925
6108.33639,0.63935
6106.40764,0.63949
6104.47890,0.63906
6102.55015,0.63781
6100.62141,0.63645
6098.69266,0.63610
6096.76392,0.63688
6094.83517,0.63806
6092.90643,0.63919
6090.97768,0.64040
6089.04893,0.64103
6087.12019,0.64043
6085.19144,0.63956
6083.26270,0.63885
6081.33395,0.63782
6079.40521,0.63649
6077.47646,0.63609
6075.54772,0.63704
6073.61897,0.63710
6071.69023,0.63524
6069.76148,0.63384
6067.83274,0.63471
6065.90399,0.63708
6063.97525,0.63947
6062.04650,0.64036
6060.11776,0.63864
6058.18901,0.63627
6056.26026,0.63655
6054.33152,0.63931
6052.40277,0.64143
6050.47403,0.64077
6048.54528,0.63882
6046.61654,0.63822
6044.68779,0.63881
6042.75905,0.63918
6040.83030,0.63931
6038.90156,0.63976
6036.97281,0.64010
6035.04407,0.63980
6033.11532,0.63986
6031.18658,0.64032
6029.25783,0.63971
6027.32909,0.63874
6025.40034,0.63857
6023.47159,0.63780
6021.54285,0.63603
6019.61410,0.63538
6017.68536,0.63671
6015.75661,0.63858
6013.82787,0.64022
6011.89912,0.64096
6009.97038,0.63983
6008.04163,0.63833
6006.11289,0.63798
6004.18414,0.63785
6002.25540,0.63774
6000.32665,0.63834
5998.39791,0.63944
5996.46916,0.64015
5994.54041,0.63944
5992.61167,0.63816
5990.68292,0.63776
5988.75418,0.63774
5986.82543,0.63853
5984.89669,0.64097
5982.96794,0.64316
5981.03920,0.64328
5979.11045,0.64209
5977.18171,0.64110
5975.25296,0.64060
5973.32422,0.64048
5971.39547,0.64047
5969.46673,0.63954
5967.53798,0.63859
5965.60924,0.63929
5963.68049,0.64038
5961.75174,0.64071
5959.82300,0.64122
5957.89425,0.64159
5955.96551,0.64072
5954.03676,0.63976
5952.10802,0.64033
5950.17927,0.64153
5948.25053,0.64185
5946.32178,0.64172
5944.39304,0.64179
5942.46429,0.64227
5940.53555,0.64303
5938.60680,0.64295
5936.67806,0.64221
5934.74931,0.64217
5932.82057,0.64252
5930.89182,0.64218
5928.96307,0.64135
5927.03433,0.64142
5925.10558,0.64270
5923.17684,0.64371
5921.24809,0.64341
5919.31935,0.64286
5917.39060,0.64338
5915.46186,0.64413
5913.53311,0.64397
5911.60437,0.64280
5909.67562,0.64146
5907.74688,0.64138
5905.81813,0.64270
5903.88939,0.64436
5901.96064,0.64498
5900.03189,0.64423
5898.10315,0.64373
5896.17440,0.64409
5894.24566,0.64389
5892.31691,0.64322
5890.38817,0.64346
5888.45942,0.64418
5886.53068,0.64434
5884.60193,0.64364
5882.67319,0.64215
5880.74444,0.64137
5878.81570,0.64256
5876.88695,0.64455
5874.95821,0.64514
5873.02946,0.64353
5871.10072,0.64169
5869.17197,0.64205
5867.24322,0.64401
5865.31448,0.64493
5863.38573,0.64395
5861.45699,0.64289
5859.52824,0.64299
5857.59950,0.64360
5855.67075,0.64383
5853.74201,0.64388
5851.81326,0.64432
5849.88452,0.64465
5847.95577,0.64410
5846.02703,0.64302
5844.09828,0.64225
5842.16954,0.64279
5840.24079,0.64474
5838.31205,0.64620
5836.38330,0.64591
5834.45455,0.64477
5832.52581,0.64389
5830.59706,0.64354
5828.66832,0.64279
5826.73957,0.64101
5824.81083,0.64046
5822.88208,0.64249
5820.95334,0.64431
5819.02459,0.64414
5817.09585,0.64356
5815.16710,0.64353
5813.23836,0.64354
5811.30961,0.64332
5809.38087,0.64295
5807.45212,0.64286
5805.52337,0.64360
5803.59463,0.64457
5801.66588,0.64430
5799.73714,0.64284
5797.80839,0.64202
5795.87965,0.64308
5793.95090,0.64510
5792.02216,0.64636
5790.09341,0.64630
5788.16467,0.64569
5786.23592,0.64564
5784.30718,0.64594
5782.37843,0.64594
5780.44969,0.64615
5778.52094,0.64602
5776.59220,0.64475
5774.66345,0.64421
5772.73470,0.64523
5770.80596,0.64571
5768.87721,0.64488
5766.94847,0.64392
5765.01972,0.64372
5763.09098,0.64474
5761.16223,0.64669
5759.23349,0.64814
5757.30474,0.64841
5755.37600,0.64819
5753.44725,0.64749
5751.51851,0.64571
5749.58976,0.64341
5747.66102,0.64182
5745.73227,0.64158
5743.80352,0.64251
5741.87478,0.64386
5739.94603,0.64475
5738.01729,0.64510
5736.08854,0.64579
5734.15980,0.64659
5732.23105,0.64592
5730.30231,0.64451
5728.37356,0.64472
5726.44482,0.64618
5724.51607,0.64728
5722.58733,0.64750
5720.65858,0.64674
5718.72984,0.64604
5716.80109,0.64663
5714.87235,0.64765
5712.94360,0.64849
5711.01485,0.64971
5709.08611,0.65022
5707.15736,0.64946
5705.22862,0.64908
5703.29987,0.64912
5701.37113,0.64871
5699.44238,0.64846
5697.51364,0.64891
5695.58489,0.64926
5693.65615,0.64867
5691.72740,0.64780
5689.79866,0.64733
5687.86991,0.64688
5685.94117,0.64653
5684.01242,0.64704
5682.08368,0.64821
5680.15493,0.64865
5678.22618,0.64791
5676.29744,0.64720
5674.36869,0.64768
5672.43995,0.64905
5670.51120,0.64973
5668.58246,0.64910
5666.65371,0.64844
5664.72497,0.64842
5662.79622,0.64852
5660.86748,0.64834
5658.93873,0.64813
5657.00999,0.64850
5655.08124,0.64862
5653.15250,0.64771
5651.22375,0.64726
5649.29500,0.64791
5647.36626,0.64887
5645.43751,0.65002
5643.50877,0.65078
5641.58002,0.64996
5639.65128,0.64807
5637.72253,0.64745
5635.79379,0.64862
5633.86504,0.64978
5631.93630,0.65026
5630.00755,0.65058
5628.07881,0.65110
5626.15006,0.65222
5624.22132,0.65324
5622.29257,0.65299
5620.36383,0.65209
5618.43508,0.65174
5616.50633,0.65197
5614.57759,0.65187
5612.64884,0.65097
5610.72010,0.64986
5608.79135,0.64902
5606.86261,0.64854
5604.93386,0.64851
5603.00512,0.64917
5601.07637,0.65034
5599.14763,0.65131
5597.21888,0.65185
5595.29014,0.65156
5593.36139,0.65068
5591.43265,0.65018
5589.50390,0.64974
5587.57516,0.64937
5585.64641,0.64983
5583.71766,0.65048
5581.78892,0.65017
5579.86017,0.64934
5577.93143,0.64942
5576.00268,0.65037
5574.07394,0.65123
5572.14519,0.65189
5570.21645,0.65265
5568.28770,0.65357
5566.35896,0.65443
5564.43021,0.65458
5562.50147,0.65384
5560.57272,0.65326
5558.64398,0.65352
5556.71523,0.65402
5554.78648,0.65373
5552.85774,0.65221
5550.92899,0.65075
5549.00025,0.65127
5547.07150,0.65316
5545.14276,0.65366
5543.21401,0.65233
5541.28527,0.65150
5539.35652,0.65213
5537.42778,0.65299
5535.49903,0.65305
5533.57029,0.65247
5531.64154,0.65206
5529.71280,0.65223
5527.78405,0.65294
5525.85531,0.65370
5523.92656,0.65386
5521.99781,0.65360
5520.06907,0.65360
5518.14032,0.65386
5516.21158,0.65391
5514.28283,0.65354
5512.35409,0.65304
5510.42534,0.65257
5508.49660,0.65215
5506.56785,0.65213
5504.63911,0.65285
5502.71036,0.65371
5500.78162,0.65413
5498.85287,0.65421
5496.92413,0.65373
5494.99538,0.65288
5493.06664,0.65274
5491.13789,0.65303
5489.20914,0.65308
5487.28040,0.65352
5485.35165,0.65428
5483.42291,0.65444
5481.49416,0.65424
5479.56542,0.65448
5477.63667,0.65486
5475.70793,0.65474
5473.77918,0.65451
5471.85044,0.65464
5469.92169,0.65469
5467.99295,0.65449
5466.06420,0.65431
5464.13546,0.65416
5462.20671,0.65421
5460.27796,0.65462
5458.34922,0.65494
5456.42047,0.65471
5454.49173,0.65433
5452.56298,0.65469
5450.63424,0.65557
5448.70549,0.65569
5446.77675,0.65476
5444.84800,0.65421
5442.91926,0.65480
5440.99051,0.65564
5439.06177,0.65602
5437.13302,0.65581
5435.20428,0.65546
5433.27553,0.65608
5431.34679,0.65693
5429.41804,0.65687
5427.48929,0.65701
5425.56055,0.65763
5423.63180,0.65773
5421.70306,0.65789
5419.77431,0.65869
5417.84557,0.65907
5415.91682,0.65814
5413.98808,0.65671
5412.05933,0.65601
5410.13059,0.65602
5408.20184,0.65607
5406.27310,0.65624
5404.34435,0.65699
5402.41561,0.65771
5400.48686,0.65789
5398.55811,0.65819
5396.62937,0.65806
5394.70062,0.65674
5392.77188,0.65563
5390.84313,0.65588
5388.91439,0.65652
5386.98564,0.65673
5385.05690,0.65673
5383.12815,0.65672
5381.19941,0.65663
5379.27066,0.65666
5377.34192,0.65728
5375.41317,0.65835
5373.48443,0.65876
5371.55568,0.65837
5369.62694,0.65807
5367.69819,0.65807
5365.76944,0.65828
5363.84070,0.65866
5361.91195,0.65841
5359.98321,0.65715
5358.05446,0.65638
5356.12572,0.65705
5354.19697,0.65766
5352.26823,0.65742
5350.33948,0.65759
5348.41074,0.65878
5346.48199,0.65979
5344.55325,0.65939
5342.62450,0.65844
5340.69576,0.65797
5338.76701,0.65753
5336.83827,0.65668
5334.90952,0.65577
5332.98077,0.65586
5331.05203,0.65703
5329.12328,0.65795
5327.19454,0.65816
5325.26579,0.65802
5323.33705,0.65767
5321.40830,0.65765
5319.47956,0.65825
5317.55081,0.65880
5315.62207,0.65870
5313.69332,0.65813
5311.76458,0.65764
5309.83583,0.65747
5307.90709,0.65776
5305.97834,0.65846
5304.04959,0.65879
5302.12085,0.65866
5300.19210,0.65884
5298.26336,0.65928
5296.33461,0.65909
5294.40587,0.65802
5292.47712,0.65711
5290.54838,0.65699
5288.61963,0.65699
5286.69089,0.65661
5284.76214,0.65586
5282.83340,0.65485
5280.90465,0.65412
5278.97591,0.65443
5277.04716,0.65576
5275.11842,0.65673
5273.18967,0.65662
5271.26092,0.65618
5269.33218,0.65569
5267.40343,0.65514
5265.47469,0.65503
5263.54594,0.65519
5261.61720,0.65502
5259.68845,0.65494
5257.75971,0.65535
5255.83096,0.65563
5253.90222,0.65523
5251.97347,0.65448
5250.04473,0.65417
5248.11598,0.65413
5246.18724,0.65345
5244.25849,0.65264
5242.32975,0.65247
5240.40100,0.65279
5238.47225,0.65321
5236.54351,0.65323
5234.61476,0.65324
5232.68602,0.65366
5230.75727,0.65352
5228.82853,0.65230
5226.89978,0.65105
5224.97104,0.65069
5223.04229,0.65084
5221.11355,0.65093
5219.18480,0.65103
5217.25606,0.65106
5215.32731,0.65101
5213.39857,0.65100
5211.46982,0.65056
5209.54107,0.64987
5207.61233,0.64997
5205.68358,0.65053
5203.75484,0.65071
5201.82609,0.65096
5199.89735,0.65133
5197.96860,0.65113
5196.03986,0.65072
5194.11111,0.65112
5192.18237,0.65193
5190.25362,0.65187
5188.32488,0.65111
5186.39613,0.65074
5184.46739,0.65093
5182.53864,0.65123
5180.60990,0.65131
5178.68115,0.65128
5176.75240,0.65157
5174.82366,0.65179
5172.89491,0.65171
5170.96617,0.65152
5169.03742,0.65073
5167.10868,0.64960
5165.17993,0.64950
5163.25119,0.65034
5161.32244,0.65122
5159.39370,0.65224
5157.46495,0.65285
5155.53621,0.65225
5153.60746,0.65142
5151.67872,0.65102
5149.74997,0.65057
5147.82123,0.65032
5145.89248,0.65064
5143.96373,0.65104
5142.03499,0.65104
5140.10624,0.65077
5138.17750,0.65067
5136.24875,0.65119
5134.32001,0.65220
5132.39126,0.65298
5130.46252,0.65328
5128.53377,0.65303
5126.60503,0.65225
5124.67628,0.65119
5122.74754,0.65019
5120.81879,0.64975
5118.89005,0.65021
5116.96130,0.65104
5115.03255,0.65145
5113.10381,0.65193
5111.17506,0.65298
5109.24632,0.65341
5107.31757,0.65279
5105.38883,0.65259
5103.46008,0.65325
5101.53134,0.65355
5099.60259,0.65283
5097.67385,0.65193
5095.74510,0.65190
5093.81636,0.65248
5091.88761,0.65301
5089.95887,0.65371
5088.03012,0.65435
5086.10138,0.65424
5084.17263,0.65381
5082.24388,0.65386
5080.31514,0.65399
5078.38639,0.65371
5076.45765,0.65393
5074.52890,0.65510
5072.60016,0.65590
5070.67141,0.65540
5068.74267,0.65449
5066.81392,0.65453
5064.88518,0.65543
5062.95643,0.65587
5061.02769,0.65562
5059.09894,0.65568
5057.17020,0.65623
5055.24145,0.65662
5053.31270,0.65691
5051.38396,0.65706
5049.45521,0.65677
5047.52647,0.65662
5045.59772,0.65686
5043.66898,0.65683
5041.74023,0.65665
5039.81149,0.65665
5037.88274,0.65639
5035.95400,0.65630
5034.02525,0.65693
5032.09651,0.65751
5030.16776,0.65748
5028.23902,0.65678
5026.31027,0.65605
5024.38153,0.65639
5022.45278,0.65733
5020.52403,0.65780
5018.59529,0.65820
5016.66654,0.65913
5014.73780,0.65979
5012.80905,0.65960
5010.88031,0.65922
5008.95156,0.65938
5007.02282,0.65997
5005.09407,0.65999
5003.16533,0.65935
5001.23658,0.65903
4999.30784,0.65910
4997.37909,0.65923
4995.45035,0.65977
4993.52160,0.66053
4991.59286,0.66054
4989.66411,0.65969
4987.73536,0.65885
4985.80662,0.65907
4983.87787,0.66025
4981.94913,0.66092
4980.02038,0.66083
4978.09164,0.66083
4976.16289,0.66086
4974.23415,0.66085
4972.30540,0.66098
4970.37666,0.66093
4968.44791,0.66049
4966.51917,0.66014
4964.59042,0.66025
4962.66168,0.66088
4960.73293,0.66217
4958.80418,0.66328
4956.87544,0.66294
4954.94669,0.66162
4953.01795,0.66093
4951.08920,0.66125
4949.16046,0.66180
4947.23171,0.66197
4945.30297,0.66172
4943.37422,0.66130
4941.44548,0.66087
4939.51673,0.66077
4937.58799,0.66149
4935.65924,0.66252
4933.73050,0.66274
4931.80175,0.66247
4929.87301,0.66269
4927.94426,0.66323
4926.01551,0.66344
4924.08677,0.66325
4922.15802,0.66304
4920.22928,0.66324
4918.30053,0.66358
4916.37179,0.66332
4914.44304,0.66274
4912.51430,0.66258
4910.58555,0.66263
4908.65681,0.66276
4906.72806,0.66328
4904.79932,0.66374
4902.87057,0.66368
4900.94183,0.66354
4899.01308,0.66364
4897.08434,0.66380
4895.15559,0.66396
4893.22684,0.66423
4891.29810,0.66460
4889.36935,0.66492
4887.44061,0.66520
4885.51186,0.66549
4883.58312,0.66566
4881.65437,0.66572
4879.72563,0.66574
4877.79688,0.66553
4875.86814,0.66546
4873.93939,0.66591
4872.01065,0.66605
4870.08190,0.66539
4868.15316,0.66496
4866.22441,0.66524
4864.29566,0.66530
4862.36692,0.66474
4860.43817,0.66417
4858.50943,0.66411
4856.58068,0.66415
4854.65194,0.66394
4852.72319,0.66421
4850.79445,0.66532
4848.86570,0.66619
4846.93696,0.66609
4845.00821,0.66571
4843.07947,0.66568
4841.15072,0.66565
4839.22198,0.66534
4837.29323,0.66527
4835.36449,0.66577
4833.43574,0.66643
4831.50699,0.66695
4829.57825,0.66742
4827.64950,0.66745
4825.72076,0.66699
4823.79201,0.66672
4821.86327,0.66701
4819.93452,0.66760
4818.00578,0.66796
4816.07703,0.66779
4814.14829,0.66719
4812.21954,0.66653
4810.29080,0.66614
4808.36205,0.66626
4806.43331,0.66691
4804.50456,0.66755
4802.57582,0.66778
4800.64707,0.66760
4798.71832,0.66743
4796.78958,0.66784
4794.86083,0.66843
4792.93209,0.66828
4791.00334,0.66761
4789.07460,0.66726
4787.14585,0.66737
4785.21711,0.66760
4783.28836,0.66795
4781.35962,0.66854
4779.43087,0.66884
4777.50213,0.66845
4775.57338,0.66813
4773.64464,0.66835
4771.71589,0.66865
4769.78714,0.66863
4767.85840,0.66817
4765.92965,0.66769
4764.00091,0.66748
4762.07216,0.66747
4760.14342,0.66783
4758.21467,0.66838
4756.28593,0.66868
4754.35718,0.66899
4752.42844,0.66933
4750.49969,0.66913
4748.57095,0.66875
4746.64220,0.66887
4744.71346,0.66925
4742.78471,0.66955
4740.85597,0.66958
4738.92722,0.66943
4736.99847,0.66955
4735.06973,0.66994
4733.14098,0.67028
4731.21224,0.67033
4729.28349,0.66971
4727.35475,0.66877
4725.42600,0.66836
4723.49726,0.66822
4721.56851,0.66783
4719.63977,0.66757
4717.71102,0.66768
4715.78228,0.66792
4713.85353,0.66804
4711.92479,0.66786
4709.99604,0.66744
4708.06729,0.66701
4706.13855,0.66688
4704.20980,0.66708
4702.28106,0.66738
4700.35231,0.66768
4698.42357,0.66761
4696.49482,0.66708
4694.56608,0.66674
4692.63733,0.66696
4690.70859,0.66750
4688.77984,0.66772
4686.85110,0.66732
4684.92235,0.66691
4682.99361,0.66670
4681.06486,0.66634
4679.13612,0.66602
4677.20737,0.66590
4675.27862,0.66587
4673.34988,0.66598
4671.42113,0.66618
4669.49239,0.66623
4667.56364,0.66618
4665.63490,0.66595
4663.70615,0.66550
4661.77741,0.66531
4659.84866,0.66547
4657.91992,0.66536
4655.99117,0.66480
4654.06243,0.66419
4652.13368,0.66410
4650.20494,0.66455
4648.27619,0.66479
4646.34745,0.66452
4644.41870,0.66422
4642.48995,0.66410
4640.56121,0.66399
4638.63246,0.66393
4636.70372,0.66386
4634.77497,0.66363
4632.84623,0.66335
4630.91748,0.66322
4628.98874,0.66312
4627.05999,0.66258
4625.13125,0.66197
4623.20250,0.66230
4621.27376,0.66328
4619.34501,0.66356
4617.41627,0.66284
4615.48752,0.66193
4613.55877,0.66135
4611.63003,0.66107
4609.70128,0.66131
4607.77254,0.66195
4605.84379,0.66215
4603.91505,0.66199
4601.98630,0.66226
4600.05756,0.66262
4598.12881,0.66249
4596.20007,0.66233
4594.27132,0.66235
4592.34258,0.66223
4590.41383,0.66227
4588.48509,0.66264
4586.55634,0.66251
4584.62760,0.66162
4582.69885,0.66083
4580.77010,0.66050
4578.84136,0.66040
4576.91261,0.66058
4574.98387,0.66081
4573.05512,0.66072
4571.12638,0.66086
4569.19763,0.66154
4567.26889,0.66188
4565.34014,0.66138
4563.41140,0.66058
4561.48265,0.66009
4559.55391,0.66010
4557.62516,0.66069
4555.69642,0.66126
4553.76767,0.66093
4551.83893,0.66012
4549.91018,0.66000
4547.98143,0.66061
4546.05269,0.66105
4544.12394,0.66088
4542.19520,0.66054
4540.26645,0.66054
4538.33771,0.66086
4536.40896,0.66121
4534.48022,0.66131
4532.55147,0.66124
4530.62273,0.66137
4528.69398,0.66160
4526.76524,0.66135
4524.83649,0.66065
4522.90775,0.66025
4520.97900,0.66066
4519.05025,0.66135
4517.12151,0.66137
4515.19276,0.66084
4513.26402,0.66060
4511.33527,0.66079
4509.40653,0.66106
4507.47778,0.66139
4505.54904,0.66165
4503.62029,0.66184
4501.69155,0.66221
4499.76280,0.66234
4497.83406,0.66198
4495.90531,0.66174
4493.97657,0.66182
4492.04782,0.66196
4490.11908,0.66204
4488.19033,0.66185
4486.26158,0.66156
4484.33284,0.66173
4482.40409,0.66187
4480.47535,0.66158
4478.54660,0.66149
4476.61786,0.66178
4474.68911,0.66211
4472.76037,0.66203
4470.83162,0.66142
4468.90288,0.66103
4466.97413,0.66140
4465.04539,0.66201
4463.11664,0.66228
4461.18790,0.66220
4459.25915,0.66211
4457.33041,0.66235
4455.40166,0.66294
4453.47291,0.66337
4451.54417,0.66323
4449.61542,0.66272
4447.68668,0.66235
4445.75793,0.66218
4443.82919,0.66207
4441.90044,0.66236
4439.97170,0.66309
4438.04295,0.66345
4436.11421,0.66337
4434.18546,0.66336
4432.25672,0.66339
4430.32797,0.66336
4428.39923,0.66333
4426.47048,0.66323
4424.54173,0.66296
4422.61299,0.66287
4420.68424,0.66319
4418.75550,0.66330
4416.82675,0.66308
4414.89801,0.66285
4412.96926,0.66251
4411.04052,0.66229
4409.11177,0.66257
4407.18303,0.66295
4405.25428,0.66283
4403.32554,0.66247
4401.39679,0.66268
4399.46805,0.66319
4397.53930,0.66317
4395.61056,0.66261
4393.68181,0.66214
4391.75306,0.66216
4389.82432,0.66230
4387.89557,0.66222
4385.96683,0.66216
4384.03808,0.66232
4382.10934,0.66244
4380.18059,0.66226
4378.25185,0.66197
4376.32310,0.66176
4374.39436,0.66159
4372.46561,0.66144
4370.53687,0.66123
4368.60812,0.66100
4366.67938,0.66096
4364.75063,0.66082
4362.82189,0.66033
4360.89314,0.66002
4358.96439,0.66008
4357.03565,0.66001
4355.10690,0.65973
4353.17816,0.65952
4351.24941,0.65958
4349.32067,0.65980
4347.39192,0.65975
4345.46318,0.65940
4343.53443,0.65907
4341.60569,0.65911
4339.67694,0.65938
4337.74820,0.65929
4335.81945,0.65886
4333.89071,0.65855
4331.96196,0.65848
4330.03321,0.65850
4328.10447,0.65839
4326.17572,0.65809
4324.24698,0.65766
4322.31823,0.65739
4320.38949,0.65748
4318.46074,0.65767
4316.53200,0.65802
4314.60325,0.65871
4312.67451,0.65913
4310.74576,0.65908
4308.81702,0.65903
4306.88827,0.65894
4304.95953,0.65892
4303.03078,0.65915
4301.10204,0.65918
4299.17329,0.65884
4297.24454,0.65855
4295.31580,0.65855
4293.38705,0.65869
4291.45831,0.65862
4289.52956,0.65825
4287.60082,0.65793
4285.67207,0.65792
4283.74333,0.65791
4281.81458,0.65733
4279.88584,0.65655
4277.95709,0.65666
4276.02835,0.65757
4274.09960,0.65813
4272.17086,0.65814
4270.24211,0.65790
4268.31336,0.65746
4266.38462,0.65725
4264.45587,0.65754
4262.52713,0.65777
4260.59838,0.65771
4258.66964,0.65777
4256.74089,0.65766
4254.81215,0.65714
4252.88340,0.65685
4250.95466,0.65692
4249.02591,0.65678
4247.09717,0.65646
4245.16842,0.65638
4243.23968,0.65681
4241.31093,0.65726
4239.38219,0.65689
4237.45344,0.65617
4235.52469,0.65609
4233.59595,0.65625
4231.66720,0.65612
4229.73846,0.65615
4227.80971,0.65654
4225.88097,0.65672
4223.95222,0.65627
4222.02348,0.65552
4220.09473,0.65503
4218.16599,0.65499
4216.23724,0.65523
4214.30850,0.65529
4212.37975,0.65499
4210.45101,0.65469
4208.52226,0.65474
4206.59352,0.65509
4204.66477,0.65557
4202.73602,0.65587
4200.80728,0.65571
4198.87853,0.65533
4196.94979,0.65510
4195.02104,0.65507
4193.09230,0.65520
4191.16355,0.65533
4189.23481,0.65545
4187.30606,0.65535
4185.37732,0.65489
4183.44857,0.65465
4181.51983,0.65485
4179.59108,0.65484
4177.66234,0.65465
4175.73359,0.65464
4173.80484,0.65444
4171.87610,0.65376
4169.94735,0.65316
4168.01861,0.65326
4166.08986,0.65392
4164.16112,0.65431
4162.23237,0.65396
4160.30363,0.65346
4158.37488,0.65354
4156.44614,0.65390
4154.51739,0.65381
4152.58865,0.65328
4150.65990,0.65294
4148.73116,0.65335
4146.80241,0.65418
4144.87367,0.65435
4142.94492,0.65373
4141.01617,0.65321
4139.08743,0.65308
4137.15868,0.65303
4135.22994,0.65305
4133.30119,0.65309
4131.37245,0.65300
4129.44370,0.65302
4127.51496,0.65296
4125.58621,0.65231
4123.65747,0.65165
4121.72872,0.65171
4119.79998,0.65200
4117.87123,0.65197
4115.94249,0.65180
4114.01374,0.65158
4112.08500,0.65115
4110.15625,0.65061
4108.22750,0.65030
4106.29876,0.65009
4104.37001,0.64971
4102.44127,0.64934
4100.51252,0.64915
4098.58378,0.64917
4096.65503,0.64936
4094.72629,0.64927
4092.79754,0.64884
4090.86880,0.64854
4088.94005,0.64846
4087.01131,0.64831
4085.08256,0.64827
4083.15382,0.64859
4081.22507,0.64872
4079.29632,0.64817
4077.36758,0.64730
4075.43883,0.64670
4073.51009,0.64650
4071.58134,0.64661
4069.65260,0.64673
4067.72385,0.64665
4065.79511,0.64650
4063.86636,0.64645
4061.93762,0.64627
4060.00887,0.64572
4058.08013,0.64539
4056.15138,0.64579
4054.22264,0.64627
4052.29389,0.64628
4050.36515,0.64610
4048.43640,0.64590
4046.50765,0.64569
4044.57891,0.64538
4042.65016,0.64498
4040.72142,0.64461
4038.79267,0.64454
4036.86393,0.64494
4034.93518,0.64527
4033.00644,0.64492
4031.07769,0.64409
4029.14895,0.64340
4027.22020,0.64303
4025.29146,0.64279
4023.36271,0.64268
4021.43397,0.64286
4019.50522,0.64318
4017.57648,0.64315
4015.64773,0.64265
4013.71898,0.64219
4011.79024,0.64199
4009.86149,0.64196
4007.93275,0.64200
4006.00400,0.64186
4004.07526,0.64138
4002.14651,0.64107
4000.21777,0.64127
3998.28902,0.64150
3996.36028,0.64131
3994.43153,0.64118
3992.50279,0.64152
3990.57404,0.64177
3988.64530,0.64158
3986.71655,0.64138
3984.78780,0.64134
3982.85906,0.64137
3980.93031,0.64141
3979.00157,0.64147
3977.07282,0.64147
3975.14408,0.64127
3973.21533,0.64087
3971.28659,0.64040
3969.35784,0.64012
3967.42910,0.64020
3965.50035,0.64031
3963.57161,0.64008
3961.64286,0.63967
3959.71412,0.63949
3957.78537,0.63940
3955.85663,0.63902
3953.92788,0.63874
3951.99913,0.63884
3950.07039,0.63889
3948.14164,0.63868
3946.21290,0.63855
3944.28415,0.63859
3942.35541,0.63861
3940.42666,0.63856
3938.49792,0.63865
3936.56917,0.63905
3934.64043,0.63939
3932.71168,0.63908
3930.78294,0.63845
3928.85419,0.63824
3926.92545,0.63824
3924.99670,0.63808
3923.06795,0.63796
3921.13921,0.63817
3919.21046,0.63864
3917.28172,0.63892
3915.35297,0.63860
3913.42423,0.63822
3911.49548,0.63830
3909.56674,0.63840
3907.63799,0.63806
3905.70925,0.63745
3903.78050,0.63693
3901.85176,0.63677
3899.92301,0.63688
3897.99427,0.63712
3896.06552,0.63754
3894.13678,0.63783
3892.20803,0.63754
3890.27928,0.63709
3888.35054,0.63702
3886.42179,0.63695
3884.49305,0.63674
3882.56430,0.63690
3880.63556,0.63707
3878.70681,0.63702
3876.77807,0.63696
3874.84932,0.63659
3872.92058,0.63615
3870.99183,0.63595
3869.06309,0.63580
3867.13434,0.63594
3865.20560,0.63606
3863.27685,0.63575
3861.34811,0.63554
3859.41936,0.63560
3857.49061,0.63568
3855.56187,0.63531
3853.63312,0.63389
3851.70438,0.63287
3849.77563,0.63355
3847.84689,0.63458
3845.91814,0.63503
3843.98940,0.63485
3842.06065,0.63425
3840.13191,0.63355
3838.20316,0.63284
3836.27442,0.63229
3834.34567,0.63211
3832.41693,0.63201
3830.48818,0.63201
3828.55943,0.63214
3826.63069,0.63201
3824.70194,0.63170
3822.77320,0.63124
3820.84445,0.63031
3818.91571,0.62975
3816.98696,0.62956
3815.05822,0.62904
3813.12947,0.62865
3811.20073,0.62857
3809.27198,0.62828
3807.34324,0.62745
3805.41449,0.62667
3803.48575,0.62649
3801.55700,0.62612
3799.62826,0.62531
3797.69951,0.62464
3795.77076,0.62406
3793.84202,0.62366
3791.91327,0.62331
3789.98453,0.62273
3788.05578,0.62207
3786.12704,0.62124
3784.19829,0.62033
3782.26955,0.61966
3780.34080,0.61886
3778.41206,0.61769
3776.48331,0.61676
3774.55457,0.61614
3772.62582,0.61522
3770.69708,0.61368
3768.76833,0.61176
3766.83959,0.61013
3764.91084,0.60888
3762.98209,0.60751
3761.05335,0.60569
3759.12460,0.60332
3757.19586,0.60098
3755.26711,0.59915
3753.33837,0.59731
3751.40962,0.59444
3749.48088,0.59103
3747.55213,0.58864
3745.62339,0.58617
3743.69464,0.58262
3741.76590,0.57959
3739.83715,0.57706
3737.90841,0.57354
3735.97966,0.56888
3734.05091,0.56385
3732.12217,0.55867
3730.19342,0.55386
3728.26468,0.54915
3726.33593,0.54339
3724.40719,0.53650
3722.47844,0.52894
3720.54970,0.52075
3718.62095,0.51222
3716.69221,0.50380
3714.76346,0.49520
3712.83472,0.48509
3710.90597,0.47327
3708.97723,0.46164
3707.04848,0.45073
3705.11974,0.43988
3703.19099,0.42818
3701.26224,0.41520
3699.33350,0.40230
3697.40475,0.39033
3695.47601,0.37870
3693.54726,0.36724
3691.61852,0.35557
3689.68977,0.34253
3687.76103,0.32869
3685.83228,0.31651
3683.90354,0.30597
3681.97479,0.29525
3680.04605,0.28391
3678.11730,0.27246
3676.18856,0.25973
3674.25981,0.24639
3672.33107,0.23511
3670.40232,0.22398
3668.47357,0.21206
3666.54483,0.20159
3664.61608,0.19233
3662.68734,0.18328
3660.75859,0.17442
3658.82985,0.16600
3656.90110,0.15764
3654.97236,0.14949
3653.04361,0.14256
3651.11487,0.13588
3649.18612,0.12815
3647.25738,0.12075
3645.32863,0.11509
3643.39989,0.11049
3641.47114,0.10593
3639.54239,0.10134
3637.61365,0.09713
3635.68490,0.09340
3633.75616,0.09004
3631.82741,0.08697
3629.89867,0.08394
3627.96992,0.08108
3626.04118,0.07895
3624.11243,0.07717
3622.18369,0.07539
3620.25494,0.07362
3618.32620,0.07183
3616.39745,0.07026
3614.46871,0.06894
3612.53996,0.06773
3610.61122,0.06674
3608.68247,0.06579
3606.75372,0.06462
3604.82498,0.06341
3602.89623,0.06228
3600.96749,0.06125
3599.03874,0.06042
3597.11000,0.05974
3595.18125,0.05913
3593.25251,0.05865
3591.32376,0.05847
3589.39502,0.05828
3587.46627,0.05761
3585.53753,0.05682
3583.60878,0.05640
3581.68004,0.05621
3579.75129,0.05604
3577.82254,0.05579
3575.89380,0.05541
3573.96505,0.05501
3572.03631,0.05477
3570.10756,0.05465
3568.17882,0.05451
3566.25007,0.05424
3564.32133,0.05394
3562.39258,0.05361
3560.46384,0.05321
3558.53509,0.05277
3556.60635,0.05231
3554.67760,0.05202
3552.74886,0.05208
3550.82011,0.05226
3548.89137,0.05244
3546.96262,0.05261
3545.03387,0.05263
3543.10513,0.05243
3541.17638,0.05214
3539.24764,0.05193
3537.31889,0.05193
3535.39015,0.05198
3533.46140,0.05181
3531.53266,0.05151
3529.60391,0.05134
3527.67517,0.05113
3525.74642,0.05088
3523.81768,0.05079
3521.88893,0.05069
3519.96019,0.05037
3518.03144,0.04989
3516.10270,0.04959
3514.17395,0.04979
3512.24520,0.05026
3510.31646,0.05062
3508.38771,0.05060
3506.45897,0.05034
3504.53022,0.05011
3502.60148,0.05019
3500.67273,0.05049
3498.74399,0.05055
3496.81524,0.05021
3494.88650,0.04983
3492.95775,0.04983
3491.02901,0.05017
3489.10026,0.05039
3487.17152,0.05035
3485.24277,0.05031
3483.31402,0.05029
3481.38528,0.04998
3479.45653,0.04957
3477.52779,0.04939
3475.59904,0.04924
3473.67030,0.04924
3471.74155,0.04962
3469.81281,0.04986
3467.88406,0.04965
3465.95532,0.04938
3464.02657,0.04927
3462.09783,0.04915
3460.16908,0.04903
3458.24034,0.04912
3456.31159,0.04930
3454.38285,0.04933
3452.45410,0.04947
3450.52535,0.04999
3448.59661,0.05037
3446.66786,0.05013
3444.73912,0.04956
3442.81037,0.04920
3440.88163,0.04938
3438.95288,0.04995
3437.02414,0.05033
3435.09539,0.05035
3433.16665,0.05023
3431.23790,0.05018
3429.30916,0.05036
3427.38041,0.05058
3425.45167,0.05053
3423.52292,0.05019
3421.59418,0.04976
3419.66543,0.04956
3417.73668,0.04988
3415.80794,0.05050
3413.87919,0.05081
3411.95045,0.05071
3410.02170,0.05065
3408.09296,0.05077
3406.16421,0.05069
3404.23547,0.05034
3402.30672,0.05003
3400.37798,0.05001
3398.44923,0.05038
3396.52049,0.05078
3394.59174,0.05099
3392.66300,0.05122
3390.73425,0.05132
3388.80550,0.05109
3386.87676,0.05072
3384.94801,0.05047
3383.01927,0.05044
3381.09052,0.05057
3379.16178,0.05071
3377.23303,0.05071
3375.30429,0.05079
3373.37554,0.05112
3371.44680,0.05115
3369.51805,0.05067
3367.58931,0.05049
3365.66056,0.05081
3363.73182,0.05098
3361.80307,0.05086
3359.87433,0.05086
3357.94558,0.05106
3356.01683,0.05124
3354.08809,0.05138
3352.15934,0.05158
3350.23060,0.05175
3348.30185,0.05163
3346.37311,0.05131
3344.44436,0.05109
3342.51562,0.05114
3340.58687,0.05148
3338.65813,0.05188
3336.72938,0.05205
3334.80064,0.05200
3332.87189,0.05184
3330.94315,0.05176
3329.01440,0.05192
3327.08566,0.05226
3325.15691,0.05250
3323.22816,0.05266
3321.29942,0.05288
3319.37067,0.05289
3317.44193,0.05256
3315.51318,0.05241
3313.58444,0.05253
3311.65569,0.05262
3309.72695,0.05273
3307.79820,0.05297
3305.86946,0.05324
3303.94071,0.05330
3302.01197,0.05323
3300.08322,0.05334
3298.15448,0.05360
3296.22573,0.05369
3294.29698,0.05358
3292.36824,0.05343
3290.43949,0.05327
3288.51075,0.05327
3286.58200,0.05347
3284.65326,0.05361
3282.72451,0.05373
3280.79577,0.05406
3278.86702,0.05440
3276.93828,0.05444
3275.00953,0.05426
3273.08079,0.05418
3271.15204,0.05418
3269.22330,0.05420
3267.29455,0.05452
3265.36581,0.05511
3263.43706,0.05546
3261.50831,0.05536
3259.57957,0.05507
3257.65082,0.05519
3255.72208,0.05595
3253.79333,0.05647
3251.86459,0.05621
3249.93584,0.05586
3248.00710,0.05587
3246.07835,0.05585
3244.14961,0.05562
3242.22086,0.05571
3240.29212,0.05638
3238.36337,0.05703
3236.43463,0.05716
3234.50588,0.05713
3232.57713,0.05750
3230.64839,0.05809
3228.71964,0.05844
3226.79090,0.05853
3224.86215,0.05856
3222.93341,0.05860
3221.00466,0.05882
3219.07592,0.05934
3217.14717,0.05979
3215.21843,0.05982
3213.28968,0.05973
3211.36094,0.05977
3209.43219,0.05993
3207.50345,0.06032
3205.57470,0.06081
3203.64596,0.06110
3201.71721,0.06132
3199.78846,0.06167
3197.85972,0.06211
3195.93097,0.06251
3194.00223,0.06272
3192.07348,0.06272
3190.14474,0.06270
3188.21599,0.06290
3186.28725,0.06324
3184.35850,0.06362
3182.42976,0.06406
3180.50101,0.06436
3178.57227,0.06443
3176.64352,0.06457
3174.71478,0.06501
3172.78603,0.06548
3170.85729,0.06559
3168.92854,0.06546
3166.99979,0.06554
3165.07105,0.06588
3163.14230,0.06630
3161.21356,0.06674
3159.28481,0.06699
3157.35607,0.06708
3155.42732,0.06736
3153.49858,0.06785
3151.56983,0.06831
3149.64109,0.06861
3147.71234,0.06880
3145.78360,0.06909
3143.85485,0.06947
3141.92611,0.06977
3139.99736,0.07013
3138.06861,0.07065
3136.13987,0.07126
3134.21112,0.07185
3132.28238,0.07229
3130.35363,0.07250
3128.42489,0.07266
3126.49614,0.07285
3124.56740,0.07313
3122.63865,0.07346
3120.70991,0.07388
3118.78116,0.07451
3116.85242,0.07539
3114.92367,0.07627
3112.99493,0.07681
3111.06618,0.07698
3109.13744,0.07725
3107.20869,0.07781
3105.27994,0.07834
3103.35120,0.07888
3101.42245,0.07959
3099.49371,0.08029
3097.56496,0.08079
3095.63622,0.08138
3093.70747,0.08238
3091.77873,0.08356
3089.84998,0.08449
3087.92124,0.08515
3085.99249,0.08580
3084.06375,0.08647
3082.13500,0.08693
3080.20626,0.08731
3078.27751,0.08793
3076.34877,0.08878
3074.42002,0.08961
3072.49127,0.09027
3070.56253,0.09089
3068.63378,0.09166
3066.70504,0.09243
3064.77629,0.09308
3062.84755,0.09371
3060.91880,0.09444
3058.99006,0.09536
3057.06131,0.09632
3055.13257,0.09710
3053.20382,0.09779
3051.27508,0.09853
3049.34633,0.09922
3047.41759,0.09973
3045.48884,0.10020
3043.56009,0.10091
3041.63135,0.10190
3039.70260,0.10291
3037.77386,0.10373
3035.84511,0.10435
3033.91637,0.10484
3031.98762,0.10544
3030.05888,0.10637
3028.13013,0.10736
3026.20139,0.10810
3024.27264,0.10863
3022.34390,0.10924
3020.41515,0.11004
3018.48641,0.11083
3016.55766,0.11149
3014.62892,0.11205
3012.70017,0.11260
3010.77142,0.11318
3008.84268,0.11381
3006.91393,0.11453
3004.98519,0.11523
3003.05644,0.11580
3001.12770,0.11644
2999.19895,0.11715
2997.27021,0.11788
2995.34146,0.11869
2993.41272,0.11959
2991.48397,0.12044
2989.55523,0.12120
2987.62648,0.12210
2985.69774,0.12314
2983.76899,0.12408
2981.84025,0.12495
2979.91150,0.12589
2977.98275,0.12691
2976.05401,0.12788
2974.12526,0.12861
2972.19652,0.12934
2970.26777,0.13053
2968.33903,0.13201
2966.41028,0.13322
2964.48154,0.13420
2962.55279,0.13524
2960.62405,0.13634
2958.69530,0.13743
2956.76656,0.13846
2954.83781,0.13948
2952.90907,0.14064
2950.98032,0.14202
2949.05157,0.14355
2947.12283,0.14500
2945.19408,0.14626
2943.26534,0.14742
2941.33659,0.14864
2939.40785,0.14992
2937.47910,0.15100
2935.55036,0.15188
2933.62161,0.15297
2931.69287,0.15431
2929.76412,0.15560
2927.83538,0.15687
2925.90663,0.15808
2923.97789,0.15916
2922.04914,0.16046
2920.12040,0.16215
2918.19165,0.16378
2916.26290,0.16519
2914.33416,0.16677
2912.40541,0.16863
2910.47667,0.17048
2908.54792,0.17214
2906.61918,0.17353
2904.69043,0.17466
2902.76169,0.17573
2900.83294,0.17690
2898.90420,0.17817
2896.97545,0.17954
2895.04671,0.18096
2893.11796,0.18233
2891.18922,0.18358
2889.26047,0.18477
2887.33172,0.18591
2885.40298,0.18688
2883.47423,0.18767
2881.54549,0.18852
2879.61674,0.18956
2877.68800,0.19068
2875.75925,0.19161
2873.83051,0.19237
2871.90176,0.19315
2869.97302,0.19407
2868.04427,0.19507
2866.11553,0.19597
2864.18678,0.19690
2862.25804,0.19809
2860.32929,0.19926
2858.40055,0.20010
2856.47180,0.20073
2854.54305,0.20146
2852.61431,0.20259
2850.68556,0.20425
2848.75682,0.20632
2846.82807,0.20871
2844.89933,0.21128
2842.97058,0.21382
2841.04184,0.21625
2839.11309,0.21866
2837.18435,0.22108
2835.25560,0.22326
2833.32686,0.22504
2831.39811,0.22657
2829.46937,0.22810
2827.54062,0.22971
2825.61188,0.23130
2823.68313,0.23291
2821.75438,0.23469
2819.82564,0.23666
2817.89689,0.23866
2815.96815,0.24055
2814.03940,0.24241
2812.11066,0.24442
2810.18191,0.24660
2808.25317,0.24896
2806.32442,0.25138
2804.39568,0.25357
2802.46693,0.25551
2800.53819,0.25748
2798.60944,0.25964
2796.68070,0.26185
2794.75195,0.26395
2792.82320,0.26599
2790.89446,0.26810
2788.96571,0.27037
2787.03697,0.27266
2785.10822,0.27458
2783.17948,0.27621
2781.25073,0.27798
2779.32199,0.27994
2777.39324,0.28181
2775.46450,0.28350
2773.53575,0.28512
2771.60701,0.28661
2769.67826,0.28798
2767.74952,0.28954
2765.82077,0.29117
2763.89203,0.29248
2761.96328,0.29366
2760.03453,0.29502
2758.10579,0.29652
2756.17704,0.29790
2754.24830,0.29908
2752.31955,0.30019
2750.39081,0.30127
2748.46206,0.30244
2746.53332,0.30378
2744.60457,0.30499
2742.67583,0.30586
2740.74708,0.30674
2738.81834,0.30791
2736.88959,0.30910
2734.96085,0.31027
2733.03210,0.31149
2731.10336,0.31261
2729.17461,0.31365
2727.24586,0.31474
2725.31712,0.31581
2723.38837,0.31695
2721.45963,0.31823
2719.53088,0.31932
2717.60214,0.32016
2715.67339,0.32115
2713.74465,0.32244
2711.81590,0.32383
2709.88716,0.32532
2707.95841,0.32681
2706.02967,0.32813
2704.10092,0.32937
2702.17218,0.33069
2700.24343,0.33208
2698.31468,0.33362
2696.38594,0.33532
2694.45719,0.33694
2692.52845,0.33838
2690.59970,0.33990
2688.67096,0.34153
2686.74221,0.34297
2684.81347,0.34429
2682.88472,0.34583
2680.95598,0.34759
2679.02723,0.34934
2677.09849,0.35111
2675.16974,0.35286
2673.24100,0.35445
2671.31225,0.35600
2669.38351,0.35765
2667.45476,0.35938
2665.52601,0.36100
2663.59727,0.36237
2661.66852,0.36367
2659.73978,0.36511
2657.81103,0.36668
2655.88229,0.36826
2653.95354,0.36966
2652.02480,0.37096
2650.09605,0.37243
2648.16731,0.37382
2646.23856,0.37488
2644.30982,0.37592
2642.38107,0.37711
2640.45233,0.37828
2638.52358,0.37928
2636.59484,0.38008
2634.66609,0.38067
2632.73734,0.38102
2630.80860,0.38142
2628.87985,0.38218
2626.95111,0.38300
2625.02236,0.38358
2623.09362,0.38402
2621.16487,0.38438
2619.23613,0.38470
2617.30738,0.38497
2615.37864,0.38514
2613.44989,0.38523
2611.52115,0.38528
2609.59240,0.38535
2607.66366,0.38540
2605.73491,0.38535
2603.80616,0.38520
2601.87742,0.38499
2599.94867,0.38477
2598.01993,0.38465
2596.09118,0.38458
2594.16244,0.38447
2592.23369,0.38442
2590.30495,0.38451
2588.37620,0.38462
2586.44746,0.38473
2584.51871,0.38483
2582.58997,0.38476
2580.66122,0.38459
2578.73248,0.38449
2576.80373,0.38441
2574.87499,0.38432
2572.94624,0.38427
2571.01749,0.38430
2569.08875,0.38446
2567.16000,0.38482
2565.23126,0.38520
2563.30251,0.38542
2561.37377,0.38555
2559.44502,0.38567
2557.51628,0.38581
2555.58753,0.38617
2553.65879,0.38673
2551.73004,0.38725
2549.80130,0.38766
2547.87255,0.38807
2545.94381,0.38849
2544.01506,0.38888
2542.08631,0.38931
2540.15757,0.38979
2538.22882,0.39027
2536.30008,0.39071
2534.37133,0.39108
2532.44259,0.39134
2530.51384,0.39164
2528.58510,0.39210
2526.65635,0.39264
2524.72761,0.39310
2522.79886,0.39347
2520.87012,0.39385
2518.94137,0.39428
2517.01263,0.39474
2515.08388,0.39523
2513.15514,0.39567
2511.22639,0.39613
2509.29764,0.39664
2507.36890,0.39703
2505.44015,0.39737
2503.51141,0.39782
2501.58266,0.39827
2499.65392,0.39867
2497.72517,0.39909
2495.79643,0.39940
2493.86768,0.39945
2491.93894,0.39938
2490.01019,0.39939
2488.08145,0.39947
2486.15270,0.39949
2484.22396,0.39930
2482.29521,0.39908
2480.36647,0.39913
2478.43772,0.39931
2476.50897,0.39922
2474.58023,0.39896
2472.65148,0.39866
2470.72274,0.39816
2468.79399,0.39740
2466.86525,0.39676
2464.93650,0.39636
2463.00776,0.39593
2461.07901,0.39541
2459.15027,0.39487
2457.22152,0.39429
2455.29278,0.39364
2453.36403,0.39299
2451.43529,0.39243
2449.50654,0.39193
2447.57779,0.39153
2445.64905,0.39116
2443.72030,0.39078
2441.79156,0.39054
2439.86281,0.39040
2437.93407,0.39007
2436.00532,0.38953
2434.07658,0.38915
2432.14783,0.38906
2430.21909,0.38911
2428.29034,0.38924
2426.36160,0.38935
2424.43285,0.38940
2422.50411,0.38954
2420.57536,0.38984
2418.64662,0.39017
2416.71787,0.39056
2414.78912,0.39105
2412.86038,0.39150
2410.93163,0.39200
2409.00289,0.39271
2407.07414,0.39346
2405.14540,0.39418
2403.21665,0.39499
2401.28791,0.39583
2399.35916,0.39663
2397.43042,0.39748
2395.50167,0.39839
2393.57293,0.39931
2391.64418,0.40033
2389.71544,0.40135
2387.78669,0.40229
2385.85795,0.40329
2383.92920,0.40443
2382.00045,0.40549
2380.07171,0.40633
2378.14296,0.40706
2376.21422,0.40775
2374.28547,0.40845
2372.35673,0.40918
2370.42798,0.40981
2368.49924,0.41041
2366.57049,0.41111
2364.64175,0.41189
2362.71300,0.41265
2360.78426,0.41323
2358.85551,0.41337
2356.92677,0.41326
2354.99802,0.41346
2353.06927,0.41400
2351.14053,0.41445
2349.21178,0.41464
2347.28304,0.41469
2345.35429,0.41460
2343.42555,0.41434
2341.49680,0.41405
2339.56806,0.41377
2337.63931,0.41339
2335.71057,0.41304
2333.78182,0.41277
2331.85308,0.41244
2329.92433,0.41201
2327.99559,0.41160
2326.06684,0.41108
2324.13810,0.41041
2322.20935,0.40981
2320.28060,0.40930
2318.35186,0.40871
2316.42311,0.40801
2314.49437,0.40727
2312.56562,0.40648
2310.63688,0.40571
2308.70813,0.40511
2306.77939,0.40471
2304.85064,0.40430
2302.92190,0.40381
2300.99315,0.40335
2299.06441,0.40306
2297.13566,0.40286
2295.20692,0.40259
2293.27817,0.40230
2291.34943,0.40206
2289.42068,0.40187
2287.49193,0.40176
2285.56319,0.40171
2283.63444,0.40165
2281.70570,0.40171
2279.77695,0.40199
2277.84821,0.40229
2275.91946,0.40248
2273.99072,0.40272
2272.06197,0.40317
2270.13323,0.40382
2268.20448,0.40455
2266.27574,0.40529
2264.34699,0.40598
2262.41825,0.40670
2260.48950,0.40748
2258.56075,0.40843
2256.63201,0.40949
2254.70326,0.41047
2252.77452,0.41141
2250.84577,0.41234
2248.91703,0.41310
2246.98828,0.41372
2245.05954,0.41450
2243.13079,0.41548
2241.20205,0.41632
2239.27330,0.41699
2237.34456,0.41774
2235.41581,0.41856
2233.48707,0.41931
2231.55832,0.41991
2229.62958,0.42036
2227.70083,0.42075
2225.77208,0.42117
2223.84334,0.42154
2221.91459,0.42167
2219.98585,0.42159
2218.05710,0.42158
2216.12836,0.42166
2214.19961,0.42163
2212.27087,0.42155
2210.34212,0.42146
2208.41338,0.42114
2206.48463,0.42058
2204.55589,0.41996
2202.62714,0.41927
2200.69840,0.41849
2198.76965,0.41778
2196.84090,0.41711
2194.91216,0.41632
2192.98341,0.41545
2191.05467,0.41454
2189.12592,0.41349
2187.19718,0.41233
2185.26843,0.41111
2183.33969,0.40988
2181.41094,0.40868
2179.48220,0.40754
2177.55345,0.40643
2175.62471,0.40526
2173.69596,0.40404
2171.76722,0.40293
2169.83847,0.40192
2167.90973,0.40086
2165.98098,0.39969
2164.05223,0.39858
2162.12349,0.39768
2160.19474,0.39686
2158.26600,0.39599
2156.33725,0.39524
2154.40851,0.39467
2152.47976,0.39413
2150.55102,0.39357
2148.62227,0.39304
2146.69353,0.39260
2144.76478,0.39234
2142.83604,0.39230
2140.90729,0.39240
2138.97855,0.39260
2137.04980,0.39295
2135.12106,0.39348
2133.19231,0.39418
2131.26356,0.39501
2129.33482,0.39592
2127.40607,0.39687
2125.47733,0.39784
2123.54858,0.39888
2121.61984,0.40014
2119.69109,0.40156
2117.76235,0.40295
2115.83360,0.40428
2113.90486,0.40567
2111.97611,0.40705
2110.04737,0.40831
2108.11862,0.40968
2106.18988,0.41136
2104.26113,0.41297
2102.33238,0.41424
2100.40364,0.41545
2098.47489,0.41679
2096.54615,0.41807
2094.61740,0.41910
2092.68866,0.41997
2090.75991,0.42095
2088.83117,0.42215
2086.90242,0.42336
2084.97368,0.42438
2083.04493,0.42504
2081.11619,0.42538
2079.18744,0.42573
2077.25870,0.42632
2075.32995,0.42695
2073.40121,0.42738
2071.47246,0.42765
2069.54371,0.42778
2067.61497,0.42762
2065.68622,0.42730
2063.75748,0.42707
2061.82873,0.42680
2059.89999,0.42624
2057.97124,0.42560
2056.04250,0.42514
2054.11375,0.42469
2052.18501,0.42409
2050.25626,0.42338
2048.32752,0.42254
2046.39877,0.42173
2044.47003,0.42108
2042.54128,0.42044
2040.61254,0.41966
2038.68379,0.41880
2036.75504,0.41799
2034.82630,0.41726
2032.89755,0.41652
2030.96881,0.41574
2029.04006,0.41506
2027.11132,0.41448
2025.18257,0.41395
2023.25383,0.41346
2021.32508,0.41310
2019.39634,0.41291
2017.46759,0.41276
2015.53885,0.41254
2013.61010,0.41241
2011.68136,0.41262
2009.75261,0.41317
2007.82386,0.41373
2005.89512,0.41411
2003.96637,0.41452
2002.03763,0.41522
2000.10888,0.41619
1998.18014,0.41726
1996.25139,0.41833
1994.32265,0.41945
1992.39390,0.42063
1990.46516,0.42189
1988.53641,0.42340
1986.60767,0.42522
1984.67892,0.42707
1982.75018,0.42868
1980.82143,0.43022
1978.89269,0.43193
1976.96394,0.43371
1975.03519,0.43540
1973.10645,0.43712
1971.17770,0.43898
1969.24896,0.44090
1967.32021,0.44283
1965.39147,0.44463
1963.46272,0.44607
1961.53398,0.44731
1959.60523,0.44870
1957.67649,0.45022
1955.74774,0.45158
1953.81900,0.45274
1951.89025,0.45390
1949.96151,0.45503
1948.03276,0.45603
1946.10402,0.45688
1944.17527,0.45760
1942.24652,0.45828
1940.31778,0.45888
1938.38903,0.45916
1936.46029,0.45920
1934.53154,0.45923
1932.60280,0.45923
1930.67405,0.45906
1928.74531,0.45857
1926.81656,0.45784
1924.88782,0.45704
1922.95907,0.45625
1921.03033,0.45539
1919.10158,0.45430
1917.17284,0.45310
1915.24409,0.45203
1913.31534,0.45094
1911.38660,0.44956
1909.45785,0.44803
1907.52911,0.44663
1905.60036,0.44523
1903.67162,0.44363
1901.74287,0.44189
1899.81413,0.44030
1897.88538,0.43901
1895.95664,0.43787
1894.02789,0.43664
1892.09915,0.43534
1890.17040,0.43407
1888.24166,0.43301
1886.31291,0.43212
1884.38417,0.43118
1882.45542,0.43030
1880.52667,0.42968
1878.59793,0.42918
1876.66918,0.42881
1874.74044,0.42864
1872.81169,0.42857
1870.88295,0.42849
1868.95420,0.42850
1867.02546,0.42880
1865.09671,0.42942
1863.16797,0.43012
1861.23922,0.43075
1859.31048,0.43141
1857.38173,0.43231
1855.45299,0.43353
1853.52424,0.43484
1851.59549,0.43605
1849.66675,0.43736
1847.73800,0.43879
1845.80926,0.44015
1843.88051,0.44151
1841.95177,0.44306
1840.02302,0.44469
1838.09428,0.44641
1836.16553,0.44813
1834.23679,0.44959
1832.30804,0.45074
1830.37930,0.45169
1828.45055,0.45263
1826.52181,0.45361
1824.59306,0.45460
1822.66432,0.45566
1820.73557,0.45663
1818.80682,0.45730
1816.87808,0.45767
1814.94933,0.45788
1813.02059,0.45791
1811.09184,0.45758
1809.16310,0.45685
1807.23435,0.45590
1805.30561,0.45478
1803.37686,0.45328
1801.44812,0.45144
1799.51937,0.44966
1797.59063,0.44821
1795.66188,0.44679
1793.73314,0.44487
1791.80439,0.44260
1789.87565,0.44099
1787.94690,0.43993
1786.01815,0.43840
1784.08941,0.43620
1782.16066,0.43378
1780.23192,0.43123
1778.30317,0.42847
1776.37443,0.42553
1774.44568,0.42234
1772.51694,0.41863
1770.58819,0.41475
1768.65945,0.41114
1766.73070,0.40755
1764.80196,0.40399
1762.87321,0.40026
1760.94447,0.39626
1759.01572,0.39236
1757.08697,0.38836
1755.15823,0.38429
1753.22948,0.38025
1751.30074,0.37564
1749.37199,0.37063
1747.44325,0.36593
1745.51450,0.36162
1743.58576,0.35765
1741.65701,0.35375
1739.72827,0.34957
1737.79952,0.34566
1735.87078,0.34164
1733.94203,0.33588
1732.01329,0.32926
1730.08454,0.32294
1728.15580,0.31585
1726.22705,0.30786
1724.29830,0.29964
1722.36956,0.29251
1720.44081,0.28760
1718.51207,0.28471
1716.58332,0.28344
1714.65458,0.28284
1712.72583,0.28101
1710.79709,0.27655
1708.86834,0.26930
1706.93960,0.25954
1705.01085,0.24876
1703.08211,0.23936
1701.15336,0.23101
1699.22462,0.22361
1697.29587,0.21876
1695.36713,0.21565
1693.43838,0.21406
1691.50963,0.21392
1689.58089,0.21443
1687.65214,0.21530
1685.72340,0.21624
1683.79465,0.21708
1681.86591,0.21798
1679.93716,0.21874
1678.00842,0.21897
1676.07967,0.21820
1674.15093,0.21648
1672.22218,0.21436
1670.29344,0.21174
1668.36469,0.20860
1666.43595,0.20559
1664.50720,0.20246
1662.57845,0.19856
1660.64971,0.19437
1658.72096,0.19046
1656.79222,0.18668
1654.86347,0.18210
1652.93473,0.17549
1651.00598,0.16975
1649.07724,0.16579
1647.14849,0.16111
1645.21975,0.15596
1643.29100,0.15192
1641.36226,0.14832
1639.43351,0.14450
1637.50477,0.14028
1635.57602,0.13531
1633.64728,0.13084
1631.71853,0.12768
1629.78978,0.12476
1627.86104,0.12174
1625.93229,0.11905
1624.00355,0.11662
1622.07480,0.11432
1620.14606,0.11246
1618.21731,0.11089
1616.28857,0.10931
1614.35982,0.10817
1612.43108,0.10767
1610.50233,0.10772
1608.57359,0.10836
1606.64484,0.10956
1604.71610,0.11129
1602.78735,0.11347
1600.85861,0.11600
1598.92986,0.11876
1597.00111,0.12174
1595.07237,0.12486
1593.14362,0.12777
1591.21488,0.13030
1589.28613,0.13275
1587.35739,0.13532
1585.42864,0.13796
1583.49990,0.14070
1581.57115,0.14376
1579.64241,0.14729
1577.71366,0.15152
1575.78492,0.15672
1573.85617,0.16197
1571.92743,0.16708
1569.99868,0.17309
1568.06993,0.17981
1566.14119,0.18651
1564.21244,0.19316
1562.28370,0.19936
1560.35495,0.20588
1558.42621,0.21405
1556.49746,0.22150
1554.56872,0.22755
1552.63997,0.23309
1550.71123,0.23792
1548.78248,0.24200
1546.85374,0.24534
1544.92499,0.24808
1542.99625,0.25033
1541.06750,0.25219
1539.13876,0.25383
1537.21001,0.25525
1535.28126,0.25625
1533.35252,0.25667
1531.42377,0.25652
1529.49503,0.25575
1527.56628,0.25418
1525.63754,0.25201
1523.70879,0.24954
1521.78005,0.24644
1519.85130,0.24288
1517.92256,0.23933
1515.99381,0.23554
1514.06507,0.23168
1512.13632,0.22807
1510.20758,0.22486
1508.27883,0.22158
1506.35008,0.21769
1504.42134,0.21466
1502.49259,0.21268
1500.56385,0.21061
1498.63510,0.20811
1496.70636,0.20537
1494.77761,0.20278
1492.84887,0.20054
1490.92012,0.19834
1488.99138,0.19603
1487.06263,0.19392
1485.13389,0.19226
1483.20514,0.19097
1481.27640,0.18974
1479.34765,0.18856
1477.41891,0.18765
1475.49016,0.18693
1473.56141,0.18628
1471.63267,0.18592
1469.70392,0.18612
1467.77518,0.18685
1465.84643,0.18811
1463.91769,0.18976
1461.98894,0.19155
1460.06020,0.19351
1458.13145,0.19604
1456.20271,0.19964
1454.27396,0.20382
1452.34522,0.20807
1450.41647,0.21226
1448.48773,0.21614
1446.55898,0.21960
1444.63024,0.22227
1442.70149,0.22383
1440.77274,0.22431
1438.84400,0.22386
1436.91525,0.22235
1434.98651,0.22026
1433.05776,0.21868
1431.12902,0.21764
1429.20027,0.21674
1427.27153,0.21602
1425.34278,0.21525
1423.41404,0.21405
1421.48529,0.21236
1419.55655,0.21013
1417.62780,0.20738
1415.69906,0.20445
1413.77031,0.20123
1411.84156,0.19746
1409.91282,0.19314
1407.98407,0.18829
1406.05533,0.18267
1404.12658,0.17623
1402.19784,0.16942
1400.26909,0.16199
1398.34035,0.15376
1396.41160,0.14540
1394.48286,0.13701
1392.55411,0.12890
1390.62537,0.12151
1388.69662,0.11426
1386.76788,0.10686
1384.83913,0.10007
1382.91039,0.09409
1380.98164,0.08871
1379.05289,0.08392
1377.12415,0.07978
1375.19540,0.07622
1373.26666,0.07324
1371.33791,0.07091
1369.40917,0.06885
1367.48042,0.06681
1365.55168,0.06493
1363.62293,0.06322
1361.69419,0.06162
1359.76544,0.06025
1357.83670,0.05914
1355.90795,0.05802
1353.97921,0.05686
1352.05046,0.05574
1350.12172,0.05472
1348.19297,0.05383
1346.26422,0.05302
1344.33548,0.05224
1342.40673,0.05145
1340.47799,0.05066
1338.54924,0.04979
1336.62050,0.04880
1334.69175,0.04776
1332.76301,0.04668
1330.83426,0.04557
1328.90552,0.04445
1326.97677,0.04339
1325.04803,0.04230
1323.11928,0.04113
1321.19054,0.04012
1319.26179,0.03919
1317.33304,0.03818
1315.40430,0.03715
1313.47555,0.03615
1311.54681,0.03503
1309.61806,0.03376
1307.68932,0.03255
1305.76057,0.03150
1303.83183,0.03050
1301.90308,0.02939
1299.97434,0.02832
1298.04559,0.02739
1296.11685,0.02652
1294.18810,0.02569
1292.25936,0.02497
1290.33061,0.02439
1288.40187,0.02387
1286.47312,0.02341
1284.54437,0.02302
1282.61563,0.02277
1280.68688,0.02269
1278.75814,0.02264
1276.82939,0.02255
1274.90065,0.02251
1272.97190,0.02254
1271.04316,0.02270
1269.11441,0.02300
1267.18567,0.02333
1265.25692,0.02367
1263.32818,0.02394
1261.39943,0.02399
1259.47069,0.02381
1257.54194,0.02370
1255.61320,0.02396
1253.68445,0.02429
1251.75570,0.02430
1249.82696,0.02412
1247.89821,0.02408
1245.96947,0.02421
1244.04072,0.02443
1242.11198,0.02456
1240.18323,0.02447
1238.25449,0.02419
1236.32574,0.02399
1234.39700,0.02412
1232.46825,0.02431
1230.53951,0.02420
1228.61076,0.02389
1226.68202,0.02364
1224.75327,0.02357
1222.82452,0.02366
1220.89578,0.02379
1218.96703,0.02384
1217.03829,0.02375
1215.10954,0.02364
1213.18080,0.02362
1211.25205,0.02368
1209.32331,0.02377
1207.39456,0.02380
1205.46582,0.02370
1203.53707,0.02365
1201.60833,0.02375
1199.67958,0.02389
1197.75084,0.02410
1195.82209,0.02442
1193.89335,0.02453
1191.96460,0.02437
1190.03585,0.02432
1188.10711,0.02459
1186.17836,0.02494
1184.24962,0.02520
1182.32087,0.02542
1180.39213,0.02555
1178.46338,0.02561
1176.53464,0.02571
1174.60589,0.02589
1172.67715,0.02617
1170.74840,0.02648
1168.81966,0.02681
1166.89091,0.02727
1164.96217,0.02775
1163.03342,0.02786
1161.10467,0.02759
1159.17593,0.02752
1157.24718,0.02792
1155.31844,0.02840
1153.38969,0.02855
1151.46095,0.02851
1149.53220,0.02875
1147.60346,0.02930
1145.67471,0.02984
1143.74597,0.03015
1141.81722,0.03019
1139.88848,0.03019
1137.95973,0.03034
1136.03099,0.03058
1134.10224,0.03071
1132.17350,0.03071
1130.24475,0.03065
1128.31600,0.03058
1126.38726,0.03052
1124.45851,0.03042
1122.52977,0.03036
1120.60102,0.03064
1118.67228,0.03139
1116.74353,0.03215
1114.81479,0.03234
1112.88604,0.03207
1110.95730,0.03184
1109.02855,0.03182
1107.09981,0.03177
1105.17106,0.03147
1103.24232,0.03121
1101.31357,0.03138
1099.38483,0.03160
1097.45608,0.03139
1095.52733,0.03107
1093.59859,0.03094
1091.66984,0.03101
1089.74110,0.03124
1087.81235,0.03153
1085.88361,0.03177
1083.95486,0.03164
1082.02612,0.03120
1080.09737,0.03092
1078.16863,0.03076
1076.23988,0.03054
1074.31114,0.03045
1072.38239,0.03044
1070.45365,0.03035
1068.52490,0.03024
1066.59615,0.03013
1064.66741,0.02980
1062.73866,0.02913
1060.80992,0.02863
1058.88117,0.02869
1056.95243,0.02902
1055.02368,0.02919
1053.09494,0.02920
1051.16619,0.02924
1049.23745,0.02917
1047.30870,0.02892
1045.37996,0.02874
1043.45121,0.02874
1041.52247,0.02869
1039.59372,0.02836
1037.66498,0.02786
1035.73623,0.02758
1033.80748,0.02773
1031.87874,0.02798
1029.94999,0.02790
1028.02125,0.02750
1026.09250,0.02703
1024.16376,0.02672
1022.23501,0.02645
1020.30627,0.02577
1018.37752,0.02491
1016.44878,0.02438
1014.52003,0.02411
1012.59129,0.02379
1010.66254,0.02338
1008.73380,0.02293
1006.80505,0.02262
1004.87631,0.02243
1002.94756,0.02215
1001.01881,0.02185
999.09007,0.02172
997.16132,0.02171
995.23258,0.02165
993.30383,0.02154
991.37509,0.02147
989.44634,0.02158
987.51760,0.02174
985.58885,0.02168
983.66011,0.02156
981.73136,0.02169
979.80262,0.02193
977.87387,0.02219
975.94513,0.02251
974.01638,0.02286
972.08763,0.02324
970.15889,0.02350
968.23014,0.02358
966.30140,0.02376
964.37265,0.02445
962.44391,0.02561
960.51516,0.02679
958.58642,0.02778
956.65767,0.02873
954.72893,0.02970
952.80018,0.03065
950.87144,0.03173
948.94269,0.03307
947.01395,0.03460
945.08520,0.03601
943.15646,0.03725
941.22771,0.03853
939.29896,0.03993
937.37022,0.04146
935.44147,0.04311
933.51273,0.04471
931.58398,0.04627
929.65524,0.04776
927.72649,0.04906
925.79775,0.05043
923.86900,0.05227
921.94026,0.05423
920.01151,0.05588
918.08277,0.05738
916.15402,0.05893
914.22528,0.06045
912.29653,0.06200
910.36779,0.06383
908.43904,0.06576
906.51029,0.06739
904.58155,0.06879
902.65280,0.07040
900.72406,0.07231
898.79531,0.07420
896.86657,0.07589
894.93782,0.07740
893.00908,0.07876
891.08033,0.08008
889.15159,0.08129
887.22284,0.08239
885.29410,0.08361
883.36535,0.08500
881.43661,0.08647
879.50786,0.08821
877.57911,0.09022
875.65037,0.09197
873.72162,0.09322
871.79288,0.09444
869.86413,0.09600
867.93539,0.09768
866.00664,0.09906
864.07790,0.10022
862.14915,0.10158
860.22041,0.10310
858.29166,0.10467
856.36292,0.10628
854.43417,0.10766
852.50543,0.10863
850.57668,0.10951
848.64794,0.11072
846.71919,0.11226
844.79044,0.11380
842.86170,0.11505
840.93295,0.11610
839.00421,0.11713
837.07546,0.11813
835.14672,0.11919
833.21797,0.12035
831.28923,0.12151
829.36048,0.12264
827.43174,0.12372
825.50299,0.12469
823.57425,0.12563
821.64550,0.12668
819.71676,0.12782
817.78801,0.12908
815.85926,0.13038
813.93052,0.13138
812.00177,0.13201
810.07303,0.13257
808.14428,0.13330
806.21554,0.13420
804.28679,0.13492
802.35805,0.13536
800.42930,0.13584
798.50056,0.13668
796.57181,0.13780
794.64307,0.13854
792.71432,0.13882
790.78558,0.13921
788.85683,0.13974
786.92809,0.14024
784.99934,0.14083
783.07059,0.14127
781.14185,0.14134
779.21310,0.14157
777.28436,0.14218
775.35561,0.14264
773.42687,0.14300
771.49812,0.14374
769.56938,0.14463
767.64063,0.14523
765.71189,0.14548
763.78314,0.14568
761.85440,0.14619
759.92565,0.14679
757.99691,0.14697
756.06816,0.14681
754.13942,0.14678
752.21067,0.14713
750.28192,0.14782
748.35318,0.14855
746.42443,0.14894
744.49569,0.14913
742.56694,0.14937
740.63820,0.14984
738.70945,0.15056
736.78071,0.15138
734.85196,0.15211
732.92322,0.15279
730.99447,0.15362
729.06573,0.15438
727.13698,0.15458
725.20824,0.15449
723.27949,0.15471
721.35074,0.15526
719.42200,0.15593
717.49325,0.15661
715.56451,0.15699
713.63576,0.15713
711.70702,0.15770
709.77827,0.15846
707.84953,0.15858
705.92078,0.15835
703.99204,0.15852
702.06329,0.15924
700.13455,0.16043
698.20580,0.16168
696.27706,0.16245
694.34831,0.16257
692.41957,0.16240
690.49082,0.16242
688.56207,0.16257
686.63333,0.16276
684.70458,0.16308
682.77584,0.16355
680.84709,0.16435
678.91835,0.16510
676.98960,0.16530
675.06086,0.16542
673.13211,0.16575
671.20337,0.16597
669.27462,0.16629
667.34588,0.16720
665.41713,0.16826
663.48839,0.16880
661.55964,0.16880
659.63090,0.16859
657.70215,0.16842
655.77340,0.16814
653.84466,0.16788
651.91591,0.16838
649.98717,0.16926
648.05842,0.16944
646.12968,0.16952
644.20093,0.16994
642.27219,0.16995
640.34344,0.16987
638.41470,0.17011
636.48595,0.17028
634.55721,0.17029
632.62846,0.17038
630.69972,0.17068
628.77097,0.17072
626.84222,0.17036
624.91348,0.17052
622.98473,0.17120
621.05599,0.17148
619.12724,0.17161
617.19850,0.17263
615.26975,0.17436
613.34101,0.17552
611.41226,0.17607
609.48352,0.17716
607.55477,0.17799
605.62603,0.17746
603.69728,0.17685
601.76854,0.17695
599.83979,0.17738
