7497.03301,0.59408
7495.10426,0.59551
7493.17552,0.59611
7491.24677,0.59759
7489.31803,0.59972
7487.38928,0.60319
7485.46054,0.60790
7483.53179,0.60849
7481.60305,0.60501
7479.67430,0.60502
7477.74556,0.61012
7475.81681,0.61379
7473.88807,0.61082
7471.95932,0.60477
7470.03057,0.60171
7468.10183,0.60017
7466.17308,0.59782
7464.24434,0.59784
7462.31559,0.60276
7460.38685,0.60775
7458.45810,0.60549
7456.52936,0.59911
7454.60061,0.59538
7452.67187,0.59398
7450.74312,0.59394
7448.81438,0.59569
7446.88563,0.59943
7444.95689,0.60364
7443.02814,0.60541
7441.09940,0.60635
7439.17065,0.60719
7437.24190,0.60459
7435.31316,0.60045
7433.38441,0.59988
7431.45567,0.60233
7429.52692,0.60439
7427.59818,0.60521
7425.66943,0.60532
7423.74069,0.60544
7421.81194,0.60675
7419.88320,0.60874
7417.95445,0.60603
7416.02571,0.59791
7414.09696,0.59361
7412.16822,0.59544
7410.23947,0.59784
7408.31073,0.60103
7406.38198,0.60626
7404.45323,0.60902
7402.52449,0.60617
7400.59574,0.60155
7398.66700,0.59753
7396.73825,0.59204
7394.80951,0.58884
7392.88076,0.59149
7390.95202,0.59410
7389.02327,0.59326
7387.09453,0.59333
7385.16578,0.59703
7383.23704,0.60412
7381.30829,0.61063
7379.37955,0.60966
7377.45080,0.60182
7375.52205,0.59492
7373.59331,0.59313
7371.66456,0.59520
7369.73582,0.60021
7367.80707,0.60629
7365.87833,0.60806
7363.94958,0.60535
7362.02084,0.60343
7360.09209,0.60404
7358.16335,0.60586
7356.23460,0.60641
7354.30586,0.60508
7352.37711,0.60596
7350.44837,0.60819
7348.51962,0.60477
7346.59088,0.59673
7344.66213,0.59227
7342.73338,0.59522
7340.80464,0.60330
7338.87589,0.60932
7336.94715,0.60769
7335.01840,0.60226
7333.08966,0.59954
7331.16091,0.59936
7329.23217,0.59686
7327.30342,0.59109
7325.37468,0.58771
7323.44593,0.59099
7321.51719,0.59729
7319.58844,0.60054
7317.65970,0.60095
7315.73095,0.60347
7313.80221,0.60729
7311.87346,0.60541
7309.94471,0.59831
7308.01597,0.59481
7306.08722,0.59880
7304.15848,0.60478
7302.22973,0.60694
7300.30099,0.60596
7298.37224,0.60313
7296.44350,0.59912
7294.51475,0.59583
7292.58601,0.59394
7290.65726,0.59571
7288.72852,0.60100
7286.79977,0.60360
7284.87103,0.60083
7282.94228,0.59809
7281.01353,0.59995
7279.08479,0.60179
7277.15604,0.59865
7275.22730,0.59732
7273.29855,0.60230
7271.36981,0.60590
7269.44106,0.60388
7267.51232,0.59901
7265.58357,0.59560
7263.65483,0.59748
7261.72608,0.60097
7259.79734,0.60392
7257.86859,0.60958
7255.93985,0.61364
7254.01110,0.61057
7252.08236,0.60357
7250.15361,0.59895
7248.22486,0.59767
7246.29612,0.59788
7244.36737,0.59997
7242.43863,0.60222
7240.50988,0.60398
7238.58114,0.60597
7236.65239,0.60529
7234.72365,0.60342
7232.79490,0.60364
7230.86616,0.60295
7228.93741,0.60106
7227.00867,0.60164
7225.07992,0.60392
7223.15118,0.60485
7221.22243,0.60220
7219.29369,0.59678
7217.36494,0.59538
7215.43619,0.60060
7213.50745,0.60503
7211.57870,0.60302
7209.64996,0.59833
7207.72121,0.59720
7205.79247,0.59877
7203.86372,0.59933
7201.93498,0.60039
7200.00623,0.60278
7198.07749,0.60561
7196.14874,0.60837
7194.22000,0.60750
7192.29125,0.60368
7190.36251,0.60161
7188.43376,0.60051
7186.50501,0.59761
7184.57627,0.59418
7182.64752,0.59467
7180.71878,0.59947
7178.79003,0.60285
7176.86129,0.60319
7174.93254,0.60362
7173.00380,0.60475
7171.07505,0.60525
7169.14631,0.60515
7167.21756,0.60462
7165.28882,0.60318
7163.36007,0.60207
7161.43133,0.60284
7159.50258,0.60442
7157.57384,0.60465
7155.64509,0.60280
7153.71634,0.59938
7151.78760,0.59714
7149.85885,0.59799
7147.93011,0.59911
7146.00136,0.59844
7144.07262,0.59734
7142.14387,0.59710
7140.21513,0.59823
7138.28638,0.60053
7136.35764,0.60289
7134.42889,0.60379
7132.50015,0.60234
7130.57140,0.60060
7128.64266,0.60158
7126.71391,0.60365
7124.78516,0.60425
7122.85642,0.60542
7120.92767,0.60622
7118.99893,0.60318
7117.07018,0.59962
7115.14144,0.59826
7113.21269,0.59741
7111.28395,0.59868
7109.35520,0.60258
7107.42646,0.60468
7105.49771,0.60331
7103.56897,0.60207
7101.64022,0.60326
7099.71148,0.60500
7097.78273,0.60771
7095.85399,0.61239
7093.92524,0.61466
7091.99649,0.61233
7090.06775,0.60816
7088.13900,0.60454
7086.21026,0.60278
7084.28151,0.60278
7082.35277,0.60397
7080.42402,0.60561
7078.49528,0.60667
7076.56653,0.60712
7074.63779,0.60667
7072.70904,0.60500
7070.78030,0.60339
7068.85155,0.60227
7066.92281,0.60196
7064.99406,0.60463
7063.06532,0.60804
7061.13657,0.60660
7059.20782,0.60219
7057.27908,0.60101
7055.35033,0.60311
7053.42159,0.60541
7051.49284,0.60747
7049.56410,0.60863
7047.63535,0.60799
7045.70661,0.60615
7043.77786,0.60416
7041.84912,0.60440
7039.92037,0.60643
7037.99163,0.60528
7036.06288,0.60238
7034.13414,0.60370
7032.20539,0.60744
7030.27664,0.61000
7028.34790,0.61173
7026.41915,0.61237
7024.49041,0.61248
7022.56166,0.61197
7020.63292,0.60847
7018.70417,0.60398
7016.77543,0.60316
7014.84668,0.60458
7012.91794,0.60391
7010.98919,0.60170
7009.06045,0.60039
7007.13170,0.60007
7005.20296,0.60146
7003.27421,0.60514
7001.34547,0.60898
6999.41672,0.61188
6997.48797,0.61328
6995.55923,0.61154
6993.63048,0.60860
6991.70174,0.60763
6989.77299,0.60814
6987.84425,0.60930
6985.91550,0.61108
6983.98676,0.61231
6982.05801,0.61153
6980.12927,0.60911
6978.20052,0.60766
6976.27178,0.60832
6974.34303,0.60871
6972.41429,0.60872
6970.48554,0.60989
6968.55680,0.61072
6966.62805,0.61064
6964.69930,0.60998
6962.77056,0.60957
6960.84181,0.61066
6958.91307,0.61198
6956.98432,0.61284
6955.05558,0.61201
6953.12683,0.60782
6951.19809,0.60470
6949.26934,0.60688
6947.34060,0.61090
6945.41185,0.61197
6943.48311,0.61050
6941.55436,0.60993
6939.62562,0.60993
6937.69687,0.60769
6935.76812,0.60504
6933.83938,0.60407
6931.91063,0.60406
6929.98189,0.60582
6928.05314,0.60983
6926.12440,0.61365
6924.19565,0.61373
6922.26691,0.61076
6920.33816,0.60966
6918.40942,0.61142
6916.48067,0.61188
6914.55193,0.60848
6912.62318,0.60563
6910.69444,0.60750
6908.76569,0.61029
6906.83695,0.61024
6904.90820,0.60854
6902.97945,0.60761
6901.05071,0.60962
6899.12196,0.61415
6897.19322,0.61744
6895.26447,0.61597
6893.33573,0.61105
6891.40698,0.60731
6889.47824,0.60633
6887.54949,0.60681
6885.62075,0.60822
6883.69200,0.61015
6881.76326,0.61045
6879.83451,0.60767
6877.90577,0.60581
6875.97702,0.60894
6874.04828,0.61299
6872.11953,0.61238
6870.19078,0.60895
6868.26204,0.60779
6866.33329,0.60980
6864.40455,0.61234
6862.47580,0.61333
6860.54706,0.61228
6858.61831,0.61069
6856.68957,0.61056
6854.76082,0.61229
6852.83208,0.61544
6850.90333,0.61734
6848.97459,0.61538
6847.04584,0.61214
6845.11710,0.61090
6843.18835,0.61133
6841.25960,0.61268
6839.33086,0.61412
6837.40211,0.61451
6835.47337,0.61401
6833.54462,0.61369
6831.61588,0.61399
6829.68713,0.61356
6827.75839,0.61236
6825.82964,0.61167
6823.90090,0.61076
6821.97215,0.61042
6820.04341,0.61298
6818.11466,0.61708
6816.18592,0.62000
6814.25717,0.62107
6812.32843,0.61921
6810.39968,0.61533
6808.47093,0.61289
6806.54219,0.61125
6804.61344,0.61072
6802.68470,0.61430
6800.75595,0.61852
6798.82721,0.61878
6796.89846,0.61663
6794.96972,0.61517
6793.04097,0.61553
6791.11223,0.61684
6789.18348,0.61811
6787.25474,0.61843
6785.32599,0.61689
6783.39725,0.61481
6781.46850,0.61451
6779.53975,0.61620
6777.61101,0.61807
6775.68226,0.61733
6773.75352,0.61400
6771.82477,0.61263
6769.89603,0.61481
6767.96728,0.61700
6766.03854,0.61734
6764.10979,0.61649
6762.18105,0.61450
6760.25230,0.61182
6758.32356,0.61085
6756.39481,0.61282
6754.46607,0.61573
6752.53732,0.61853
6750.60858,0.62109
6748.67983,0.62055
6746.75108,0.61701
6744.82234,0.61499
6742.89359,0.61526
6740.96485,0.61602
6739.03610,0.61715
6737.10736,0.61766
6735.17861,0.61596
6733.24987,0.61384
6731.32112,0.61484
6729.39238,0.61713
6727.46363,0.61598
6725.53489,0.61426
6723.60614,0.61612
6721.67740,0.61783
6719.74865,0.61695
6717.81991,0.61525
6715.89116,0.61380
6713.96241,0.61502
6712.03367,0.61803
6710.10492,0.61787
6708.17618,0.61537
6706.24743,0.61642
6704.31869,0.62245
6702.38994,0.62734
6700.46120,0.62623
6698.53245,0.62195
6696.60371,0.61908
6694.67496,0.61875
6692.74622,0.61978
6690.81747,0.62088
6688.88873,0.62048
6686.95998,0.61747
6685.03123,0.61333
6683.10249,0.61069
6681.17374,0.61138
6679.24500,0.61569
6677.31625,0.62082
6675.38751,0.62326
6673.45876,0.62311
6671.53002,0.62236
6669.60127,0.62212
6667.67253,0.62193
6665.74378,0.62013
6663.81504,0.61729
6661.88629,0.61636
6659.95755,0.61776
6658.02880,0.61816
6656.10006,0.61590
6654.17131,0.61414
6652.24256,0.61515
6650.31382,0.61721
6648.38507,0.61847
6646.45633,0.61931
6644.52758,0.62123
6642.59884,0.62355
6640.67009,0.62316
6638.74135,0.61892
6636.81260,0.61479
6634.88386,0.61533
6632.95511,0.61868
6631.02637,0.62057
6629.09762,0.62089
6627.16888,0.62082
6625.24013,0.62025
6623.31139,0.61917
6621.38264,0.61895
6619.45389,0.62053
6617.52515,0.62208
6615.59640,0.62205
6613.66766,0.62150
6611.73891,0.62168
6609.81017,0.62179
6607.88142,0.62104
6605.95268,0.62005
6604.02393,0.61875
6602.09519,0.61736
6600.16644,0.61759
6598.23770,0.61975
6596.30895,0.62099
6594.38021,0.61957
6592.45146,0.61834
6590.52271,0.61981
6588.59397,0.62266
6586.66522,0.62382
6584.73648,0.62185
6582.80773,0.61812
6580.87899,0.61496
6578.95024,0.61521
6577.02150,0.61835
6575.09275,0.62120
6573.16401,0.62321
6571.23526,0.62409
6569.30652,0.62398
6567.37777,0.62451
6565.44903,0.62513
6563.52028,0.62439
6561.59154,0.62328
6559.66279,0.62333
6557.73404,0.62356
6555.80530,0.62271
6553.87655,0.62104
6551.94781,0.61910
6550.01906,0.61815
6548.09032,0.61965
6546.16157,0.62316
6544.23283,0.62586
6542.30408,0.62591
6540.37534,0.62593
6538.44659,0.62797
6536.51785,0.62914
6534.58910,0.62856
6532.66036,0.62847
6530.73161,0.62862
6528.80287,0.62832
6526.87412,0.62787
6524.94537,0.62834
6523.01663,0.63074
6521.08788,0.63223
6519.15914,0.63025
6517.23039,0.62645
6515.30165,0.62378
6513.37290,0.62434
6511.44416,0.62712
6509.51541,0.62947
6507.58667,0.63045
6505.65792,0.62989
6503.72918,0.62786
6501.80043,0.62616
6499.87169,0.62709
6497.94294,0.62866
6496.01419,0.62678
6494.08545,0.62300
6492.15670,0.62205
6490.22796,0.62374
6488.29921,0.62548
6486.37047,0.62714
6484.44172,0.62773
6482.51298,0.62643
6480.58423,0.62615
6478.65549,0.62735
6476.72674,0.62754
6474.79800,0.62739
6472.86925,0.62792
6470.94051,0.62804
6469.01176,0.62736
6467.08302,0.62663
6465.15427,0.62630
6463.22552,0.62611
6461.29678,0.62623
6459.36803,0.62709
6457.43929,0.62774
6455.51054,0.62739
6453.58180,0.62763
6451.65305,0.62929
6449.72431,0.62913
6447.79556,0.62595
6445.86682,0.62414
6443.93807,0.62512
6442.00933,0.62616
6440.08058,0.62714
6438.15184,0.62865
6436.22309,0.62922
6434.29434,0.62851
6432.36560,0.62702
6430.43685,0.62518
6428.50811,0.62429
6426.57936,0.62467
6424.65062,0.62583
6422.72187,0.62837
6420.79313,0.63101
6418.86438,0.63002
6416.93564,0.62677
6415.00689,0.62695
6413.07815,0.62990
6411.14940,0.63025
6409.22066,0.62728
6407.29191,0.62492
6405.36317,0.62554
6403.43442,0.62707
6401.50567,0.62775
6399.57693,0.62799
6397.64818,0.62919
6395.71944,0.63231
6393.79069,0.63440
6391.86195,0.63266
6389.93320,0.62948
6388.00446,0.62784
6386.07571,0.62821
6384.14697,0.62899
6382.21822,0.62844
6380.28948,0.62789
6378.36073,0.62898
6376.43199,0.62932
6374.50324,0.62790
6372.57450,0.62816
6370.64575,0.63058
6368.71700,0.63160
6366.78826,0.63015
6364.85951,0.62808
6362.93077,0.62707
6361.00202,0.62785
6359.07328,0.62933
6357.14453,0.62950
6355.21579,0.62876
6353.28704,0.62874
6351.35830,0.62898
6349.42955,0.62864
6347.50081,0.62813
6345.57206,0.62801
6343.64332,0.62960
6341.71457,0.63216
6339.78582,0.63257
6337.85708,0.63055
6335.92833,0.62824
6333.99959,0.62786
6332.07084,0.62958
6330.14210,0.63133
6328.21335,0.63247
6326.28461,0.63354
6324.35586,0.63441
6322.42712,0.63397
6320.49837,0.63207
6318.56963,0.63094
6316.64088,0.63223
6314.71214,0.63508
6312.78339,0.63621
6310.85465,0.63399
6308.92590,0.63172
6306.99715,0.63163
6305.06841,0.63203
6303.13966,0.63120
6301.21092,0.62872
6299.28217,0.62681
6297.35343,0.62814
6295.42468,0.63108
6293.49594,0.63264
6291.56719,0.63239
6289.63845,0.63182
6287.70970,0.63289
6285.78096,0.63449
6283.85221,0.63405
6281.92347,0.63275
6279.99472,0.63224
6278.06598,0.63249
6276.13723,0.63398
6274.20848,0.63511
6272.27974,0.63417
6270.35099,0.63347
6268.42225,0.63404
6266.49350,0.63336
6264.56476,0.63149
6262.63601,0.63078
6260.70727,0.63173
6258.77852,0.63387
6256.84978,0.63512
6254.92103,0.63381
6252.99229,0.63214
6251.06354,0.63191
6249.13480,0.63239
6247.20605,0.63282
6245.27730,0.63316
6243.34856,0.63336
6241.41981,0.63309
6239.49107,0.63360
6237.56232,0.63551
6235.63358,0.63696
6233.70483,0.63675
6231.77609,0.63524
6229.84734,0.63332
6227.91860,0.63158
6225.98985,0.63022
6224.06111,0.62995
6222.13236,0.63106
6220.20362,0.63202
6218.27487,0.63163
6216.34613,0.63118
6214.41738,0.63115
6212.48863,0.63054
6210.55989,0.63034
6208.63114,0.63149
6206.70240,0.63283
6204.77365,0.63399
6202.84491,0.63457
6200.91616,0.63384
6198.98742,0.63420
6197.05867,0.63644
6195.12993,0.63612
6193.20118,0.63284
6191.27244,0.63108
6189.34369,0.63155
6187.41495,0.63250
6185.48620,0.63356
6183.55746,0.63505
6181.62871,0.63674
6179.69996,0.63793
6177.77122,0.63859
6175.84247,0.63819
6173.91373,0.63650
6171.98498,0.63569
6170.05624,0.63621
6168.12749,0.63586
6166.19875,0.63464
6164.27000,0.63416
6162.34126,0.63492
6160.41251,0.63644
6158.48377,0.63777
6156.55502,0.63807
6154.62628,0.63710
6152.69753,0.63542
6150.76878,0.63487
6148.84004,0.63600
6146.91129,0.63654
6144.98255,0.63565
6143.05380,0.63505
6141.12506,0.63550
6139.19631,0.63588
6137.26757,0.63559
6135.33882,0.63616
6133.41008,0.63851
6131.48133,0.64043
6129.55259,0.64017
6127.62384,0.63957
6125.69510,0.63952
6123.76635,0.63843
6121.83761,0.63635
6119.90886,0.63487
6117.98011,0.63543
6116.05137,0.63707
6114.12262,0.63726
6112.19388,0.63667
6110.26513,0.63700
6108.33639,0.63768
6106.40764,0.63800
6104.47890,0.63813
6102.55015,0.63795
6100.62141,0.63757
6098.69266,0.63798
6096.76392,0.63889
6094.83517,0.63905
6092.90643,0.63874
6090.97768,0.63843
6089.04893,0.63774
6087.12019,0.63700
6085.19144,0.63731
6083.26270,0.63822
6081.33395,0.63808
6079.40521,0.63762
6077.47646,0.63826
6075.54772,0.63904
6073.61897,0.63949
6071.69023,0.63979
6069.76148,0.63925
6067.83274,0.63853
6065.90399,0.63876
6063.97525,0.63875
6062.04650,0.63746
6060.11776,0.63618
6058.18901,0.63699
6056.26026,0.63928
6054.33152,0.63976
6052.40277,0.63878
6050.47403,0.63891
6048.54528,0.63883
6046.61654,0.63695
6044.68779,0.63485
6042.75905,0.63447
6040.83030,0.63656
6038.90156,0.64004
6036.97281,0.64248
6035.04407,0.64218
6033.11532,0.64004
6031.18658,0.63838
6029.25783,0.63788
6027.32909,0.63771
6025.40034,0.63704
6023.47159,0.63623
6021.54285,0.63690
6019.61410,0.63856
6017.68536,0.63958
6015.75661,0.64021
6013.82787,0.64052
6011.89912,0.64042
6009.97038,0.64085
6008.04163,0.64165
6006.11289,0.64165
6004.18414,0.64082
6002.25540,0.64026
6000.32665,0.64027
5998.39791,0.64058
5996.46916,0.64111
5994.54041,0.64107
5992.61167,0.63976
5990.68292,0.63834
5988.75418,0.63836
5986.82543,0.63928
5984.89669,0.63935
5982.96794,0.63890
5981.03920,0.63951
5979.11045,0.64018
5977.18171,0.63950
5975.25296,0.63930
5973.32422,0.64065
5971.39547,0.64195
5969.46673,0.64240
5967.53798,0.64173
5965.60924,0.64044
5963.68049,0.64043
5961.75174,0.64108
5959.82300,0.64081
5957.89425,0.64108
5955.96551,0.64234
5954.03676,0.64267
5952.10802,0.64183
5950.17927,0.64092
5948.25053,0.64011
5946.32178,0.63943
5944.39304,0.63940
5942.46429,0.63963
5940.53555,0.63962
5938.60680,0.64040
5936.67806,0.64207
5934.74931,0.64291
5932.82057,0.64254
5930.89182,0.64205
5928.96307,0.64179
5927.03433,0.64150
5925.10558,0.64106
5923.17684,0.64088
5921.24809,0.64150
5919.31935,0.64283
5917.39060,0.64367
5915.46186,0.64293
5913.53311,0.64180
5911.60437,0.64201
5909.67562,0.64287
5907.74688,0.64334
5905.81813,0.64334
5903.88939,0.64322
5901.96064,0.64338
5900.03189,0.64362
5898.10315,0.64388
5896.17440,0.64411
5894.24566,0.64426
5892.31691,0.64391
5890.38817,0.64232
5888.45942,0.64085
5886.53068,0.64101
5884.60193,0.64198
5882.67319,0.64304
5880.74444,0.64394
5878.81570,0.64376
5876.88695,0.64252
5874.95821,0.64195
5873.02946,0.64226
5871.10072,0.64229
5869.17197,0.64241
5867.24322,0.64288
5865.31448,0.64266
5863.38573,0.64171
5861.45699,0.64126
5859.52824,0.64147
5857.59950,0.64160
5855.67075,0.64147
5853.74201,0.64125
5851.81326,0.64162
5849.88452,0.64285
5847.95577,0.64360
5846.02703,0.64324
5844.09828,0.64317
5842.16954,0.64410
5840.24079,0.64442
5838.31205,0.64332
5836.38330,0.64253
5834.45455,0.64279
5832.52581,0.64328
5830.59706,0.64417
5828.66832,0.64508
5826.73957,0.64444
5824.81083,0.64253
5822.88208,0.64140
5820.95334,0.64193
5819.02459,0.64279
5817.09585,0.64323
5815.16710,0.64425
5813.23836,0.64583
5811.30961,0.64623
5809.38087,0.64488
5807.45212,0.64329
5805.52337,0.64283
5803.59463,0.64350
5801.66588,0.64444
5799.73714,0.64467
5797.80839,0.64431
5795.87965,0.64452
5793.95090,0.64532
5792.02216,0.64565
5790.09341,0.64563
5788.16467,0.64581
5786.23592,0.64583
5784.30718,0.64548
5782.37843,0.64480
5780.44969,0.64395
5778.52094,0.64379
5776.59220,0.64443
5774.66345,0.64468
5772.73470,0.64460
5770.80596,0.64537
5768.87721,0.64639
5766.94847,0.64617
5765.01972,0.64542
5763.09098,0.64528
5761.16223,0.64504
5759.23349,0.64463
5757.30474,0.64483
5755.37600,0.64509
5753.44725,0.64500
5751.51851,0.64459
5749.58976,0.64371
5747.66102,0.64297
5745.73227,0.64343
5743.80352,0.64550
5741.87478,0.64783
5739.94603,0.64855
5738.01729,0.64809
5736.08854,0.64791
5734.15980,0.64821
5732.23105,0.64785
5730.30231,0.64633
5728.37356,0.64526
5726.44482,0.64546
5724.51607,0.64575
5722.58733,0.64571
5720.65858,0.64613
5718.72984,0.64679
5716.80109,0.64696
5714.87235,0.64669
5712.94360,0.64647
5711.01485,0.64643
5709.08611,0.64653
5707.15736,0.64676
5705.22862,0.64732
5703.29987,0.64818
5701.37113,0.64845
5699.44238,0.64775
5697.51364,0.64743
5695.58489,0.64846
5693.65615,0.65010
5691.72740,0.65126
5689.79866,0.65121
5687.86991,0.65014
5685.94117,0.64912
5684.01242,0.64859
5682.08368,0.64835
5680.15493,0.64817
5678.22618,0.64785
5676.29744,0.64753
5674.36869,0.64741
5672.43995,0.64801
5670.51120,0.64904
5668.58246,0.64902
5666.65371,0.64864
5664.72497,0.64964
5662.79622,0.65070
5660.86748,0.65027
5658.93873,0.64936
5657.00999,0.64906
5655.08124,0.64960
5653.15250,0.65039
5651.22375,0.65036
5649.29500,0.65003
5647.36626,0.65033
5645.43751,0.65053
5643.50877,0.65022
5641.58002,0.65005
5639.65128,0.65009
5637.72253,0.64988
5635.79379,0.64963
5633.86504,0.65035
5631.93630,0.65163
5630.00755,0.65187
5628.07881,0.65129
5626.15006,0.65076
5624.22132,0.65002
5622.29257,0.64940
5620.36383,0.64946
5618.43508,0.64997
5616.50633,0.65084
5614.57759,0.65158
5612.64884,0.65128
5610.72010,0.64983
5608.79135,0.64796
5606.86261,0.64674
5604.93386,0.64641
5603.00512,0.64678
5601.07637,0.64839
5599.14763,0.65023
5597.21888,0.65067
5595.29014,0.65044
5593.36139,0.65060
5591.43265,0.65122
5589.50390,0.65205
5587.57516,0.65229
5585.64641,0.65192
5583.71766,0.65182
5581.78892,0.65208
5579.86017,0.65246
5577.93143,0.65270
5576.00268,0.65221
5574.07394,0.65172
5572.14519,0.65221
5570.21645,0.65296
5568.28770,0.65302
5566.35896,0.65243
5564.43021,0.65208
5562.50147,0.65208
5560.57272,0.65145
5558.64398,0.65041
5556.71523,0.64985
5554.78648,0.64982
5552.85774,0.65037
5550.92899,0.65129
5549.00025,0.65144
5547.07150,0.65083
5545.14276,0.65085
5543.21401,0.65161
5541.28527,0.65240
5539.35652,0.65328
5537.42778,0.65378
5535.49903,0.65310
5533.57029,0.65233
5531.64154,0.65278
5529.71280,0.65370
5527.78405,0.65438
5525.85531,0.65444
5523.92656,0.65383
5521.99781,0.65349
5520.06907,0.65351
5518.14032,0.65330
5516.21158,0.65311
5514.28283,0.65343
5512.35409,0.65444
5510.42534,0.65526
5508.49660,0.65515
5506.56785,0.65488
5504.63911,0.65490
5502.71036,0.65444
5500.78162,0.65359
5498.85287,0.65363
5496.92413,0.65443
5494.99538,0.65460
5493.06664,0.65396
5491.13789,0.65320
5489.20914,0.65266
5487.28040,0.65266
5485.35165,0.65368
5483.42291,0.65523
5481.49416,0.65581
5479.56542,0.65533
5477.63667,0.65509
5475.70793,0.65544
5473.77918,0.65607
5471.85044,0.65675
5469.92169,0.65692
5467.99295,0.65614
5466.06420,0.65506
5464.13546,0.65460
5462.20671,0.65464
5460.27796,0.65457
5458.34922,0.65424
5456.42047,0.65396
5454.49173,0.65418
5452.56298,0.65500
5450.63424,0.65582
5448.70549,0.65640
5446.77675,0.65659
5444.84800,0.65610
5442.91926,0.65574
5440.99051,0.65568
5439.06177,0.65534
5437.13302,0.65514
5435.20428,0.65550
5433.27553,0.65608
5431.34679,0.65623
5429.41804,0.65587
5427.48929,0.65578
5425.56055,0.65577
5423.63180,0.65521
5421.70306,0.65505
5419.77431,0.65588
5417.84557,0.65674
5415.91682,0.65679
5413.98808,0.65618
5412.05933,0.65594
5410.13059,0.65654
5408.20184,0.65688
5406.27310,0.65642
5404.34435,0.65594
5402.41561,0.65601
5400.48686,0.65621
5398.55811,0.65624
5396.62937,0.65668
5394.70062,0.65747
5392.77188,0.65792
5390.84313,0.65763
5388.91439,0.65652
5386.98564,0.65548
5385.05690,0.65553
5383.12815,0.65646
5381.19941,0.65722
5379.27066,0.65758
5377.34192,0.65816
5375.41317,0.65847
5373.48443,0.65743
5371.55568,0.65601
5369.62694,0.65563
5367.69819,0.65618
5365.76944,0.65704
5363.84070,0.65780
5361.91195,0.65831
5359.98321,0.65830
5358.05446,0.65768
5356.12572,0.65716
5354.19697,0.65686
5352.26823,0.65655
5350.33948,0.65677
5348.41074,0.65760
5346.48199,0.65801
5344.55325,0.65778
5342.62450,0.65772
5340.69576,0.65766
5338.76701,0.65706
5336.83827,0.65672
5334.90952,0.65748
5332.98077,0.65853
5331.05203,0.65910
5329.12328,0.65933
5327.19454,0.65850
5325.26579,0.65722
5323.33705,0.65745
5321.40830,0.65862
5319.47956,0.65919
5317.55081,0.65913
5315.62207,0.65896
5313.69332,0.65866
5311.76458,0.65812
5309.83583,0.65754
5307.90709,0.65722
5305.97834,0.65794
5304.04959,0.65965
5302.12085,0.66032
5300.19210,0.65909
5298.26336,0.65742
5296.33461,0.65659
5294.40587,0.65679
5292.47712,0.65716
5290.54838,0.65688
5288.61963,0.65658
5286.69089,0.65673
5284.76214,0.65663
5282.83340,0.65613
5280.90465,0.65604
5278.97591,0.65654
5277.04716,0.65702
5275.11842,0.65714
5273.18967,0.65672
5271.26092,0.65585
5269.33218,0.65507
5267.40343,0.65469
5265.47469,0.65444
5263.54594,0.65403
5261.61720,0.65372
5259.68845,0.65355
5257.75971,0.65329
5255.83096,0.65320
5253.90222,0.65302
5251.97347,0.65241
5250.04473,0.65226
5248.11598,0.65320
5246.18724,0.65444
5244.25849,0.65498
5242.32975,0.65467
5240.40100,0.65404
5238.47225,0.65379
5236.54351,0.65368
5234.61476,0.65298
5232.68602,0.65203
5230.75727,0.65141
5228.82853,0.65111
5226.89978,0.65105
5224.97104,0.65086
5223.04229,0.65046
5221.11355,0.65049
5219.18480,0.65107
5217.25606,0.65144
5215.32731,0.65107
5213.39857,0.65084
5211.46982,0.65119
5209.54107,0.65128
5207.61233,0.65139
5205.68358,0.65174
5203.75484,0.65154
5201.82609,0.65106
5199.89735,0.65046
5197.96860,0.64971
5196.03986,0.64946
5194.11111,0.64946
5192.18237,0.64927
5190.25362,0.64922
5188.32488,0.64922
5186.39613,0.64918
5184.46739,0.64955
5182.53864,0.65022
5180.60990,0.65040
5178.68115,0.64986
5176.75240,0.64959
5174.82366,0.65040
5172.89491,0.65127
5170.96617,0.65115
5169.03742,0.65052
5167.10868,0.65027
5165.17993,0.65045
5163.25119,0.65050
5161.32244,0.65019
5159.39370,0.65015
5157.46495,0.65068
5155.53621,0.65092
5153.60746,0.65071
5151.67872,0.65097
5149.74997,0.65169
5147.82123,0.65185
5145.89248,0.65085
5143.96373,0.64969
5142.03499,0.64969
5140.10624,0.65048
5138.17750,0.65093
5136.24875,0.65084
5134.32001,0.65088
5132.39126,0.65134
5130.46252,0.65159
5128.53377,0.65127
5126.60503,0.65110
5124.67628,0.65127
5122.74754,0.65146
5120.81879,0.65209
5118.89005,0.65272
5116.96130,0.65242
5115.03255,0.65201
5113.10381,0.65212
5111.17506,0.65210
5109.24632,0.65207
5107.31757,0.65266
5105.38883,0.65310
5103.46008,0.65260
5101.53134,0.65205
5099.60259,0.65237
5097.67385,0.65282
5095.74510,0.65273
5093.81636,0.65299
5091.88761,0.65358
5089.95887,0.65358
5088.03012,0.65332
5086.10138,0.65299
5084.17263,0.65261
5082.24388,0.65276
5080.31514,0.65366
5078.38639,0.65473
5076.45765,0.65511
5074.52890,0.65472
5072.60016,0.65450
5070.67141,0.65458
5068.74267,0.65434
5066.81392,0.65397
5064.88518,0.65382
5062.95643,0.65378
5061.02769,0.65414
5059.09894,0.65528
5057.17020,0.65650
5055.24145,0.65658
5053.31270,0.65586
5051.38396,0.65564
5049.45521,0.65600
5047.52647,0.65599
5045.59772,0.65549
5043.66898,0.65547
5041.74023,0.65638
5039.81149,0.65729
5037.88274,0.65706
5035.95400,0.65638
5034.02525,0.65680
5032.09651,0.65800
5030.16776,0.65888
5028.23902,0.65900
5026.31027,0.65813
5024.38153,0.65717
5022.45278,0.65707
5020.52403,0.65738
5018.59529,0.65789
5016.66654,0.65861
5014.73780,0.65871
5012.80905,0.65816
5010.88031,0.65805
5008.95156,0.65840
5007.02282,0.65857
5005.09407,0.65882
5003.16533,0.65917
5001.23658,0.65900
4999.30784,0.65856
4997.37909,0.65835
4995.45035,0.65857
4993.52160,0.65894
4991.59286,0.65894
4989.66411,0.65923
4987.73536,0.66034
4985.80662,0.66118
4983.87787,0.66098
4981.94913,0.66006
4980.02038,0.65946
4978.09164,0.66006
4976.16289,0.66098
4974.23415,0.66082
4972.30540,0.66007
4970.37666,0.66002
4968.44791,0.66073
4966.51917,0.66151
4964.59042,0.66184
4962.66168,0.66152
4960.73293,0.66090
4958.80418,0.66078
4956.87544,0.66129
4954.94669,0.66152
4953.01795,0.66162
4951.08920,0.66229
4949.16046,0.66279
4947.23171,0.66247
4945.30297,0.66186
4943.37422,0.66168
4941.44548,0.66195
4939.51673,0.66220
4937.58799,0.66249
4935.65924,0.66293
4933.73050,0.66290
4931.80175,0.66243
4929.87301,0.66231
4927.94426,0.66232
4926.01551,0.66184
4924.08677,0.66163
4922.15802,0.66232
4920.22928,0.66293
4918.30053,0.66308
4916.37179,0.66330
4914.44304,0.66342
4912.51430,0.66332
4910.58555,0.66305
4908.65681,0.66266
4906.72806,0.66291
4904.79932,0.66368
4902.87057,0.66395
4900.94183,0.66370
4899.01308,0.66343
4897.08434,0.66326
4895.15559,0.66328
4893.22684,0.66360
4891.29810,0.66377
4889.36935,0.66329
4887.44061,0.66278
4885.51186,0.66309
4883.58312,0.66376
4881.65437,0.66404
4879.72563,0.66400
4877.79688,0.66420
4875.86814,0.66478
4873.93939,0.66535
4872.01065,0.66568
4870.08190,0.66567
4868.15316,0.66536
4866.22441,0.66506
4864.29566,0.66490
4862.36692,0.66468
4860.43817,0.66446
4858.50943,0.66467
4856.58068,0.66517
4854.65194,0.66573
4852.72319,0.66652
4850.79445,0.66691
4848.86570,0.66657
4846.93696,0.66636
4845.00821,0.66629
4843.07947,0.66557
4841.15072,0.66482
4839.22198,0.66498
4837.29323,0.66562
4835.36449,0.66608
4833.43574,0.66636
4831.50699,0.66629
4829.57825,0.66590
4827.64950,0.66558
4825.72076,0.66518
4823.79201,0.66467
4821.86327,0.66476
4819.93452,0.66552
4818.00578,0.66596
4816.07703,0.66583
4814.14829,0.66601
4812.21954,0.66686
4810.29080,0.66759
4808.36205,0.66781
4806.43331,0.66775
4804.50456,0.66742
4802.57582,0.66693
4800.64707,0.66647
4798.71832,0.66611
4796.78958,0.66592
4794.86083,0.66608
4792.93209,0.66678
4791.00334,0.66763
4789.07460,0.66801
4787.14585,0.66818
4785.21711,0.66827
4783.28836,0.66792
4781.35962,0.66767
4779.43087,0.66816
4777.50213,0.66831
4775.57338,0.66750
4773.64464,0.66683
4771.71589,0.66695
4769.78714,0.66747
4767.85840,0.66775
4765.92965,0.66741
4764.00091,0.66677
4762.07216,0.66654
4760.14342,0.66699
4758.21467,0.66762
4756.28593,0.66781
4754.35718,0.66749
4752.42844,0.66709
4750.49969,0.66720
4748.57095,0.66796
4746.64220,0.66878
4744.71346,0.66891
4742.78471,0.66836
4740.85597,0.66802
4738.92722,0.66832
4736.99847,0.66878
4735.06973,0.66897
4733.14098,0.66893
4731.21224,0.66893
4729.28349,0.66913
4727.35475,0.66910
4725.42600,0.66859
4723.49726,0.66815
4721.56851,0.66807
4719.63977,0.66803
4717.71102,0.66788
4715.78228,0.66766
4713.85353,0.66757
4711.92479,0.66785
4709.99604,0.66805
4708.06729,0.66765
4706.13855,0.66727
4704.20980,0.66737
4702.28106,0.66745
4700.35231,0.66721
4698.42357,0.66695
4696.49482,0.66717
4694.56608,0.66783
4692.63733,0.66796
4690.70859,0.66701
4688.77984,0.66624
4686.85110,0.66667
4684.92235,0.66729
4682.99361,0.66716
4681.06486,0.66662
4679.13612,0.66610
4677.20737,0.66559
4675.27862,0.66508
4673.34988,0.66486
4671.42113,0.66516
4669.49239,0.66552
4667.56364,0.66550
4665.63490,0.66534
4663.70615,0.66517
4661.77741,0.66494
4659.84866,0.66442
4657.91992,0.66377
4655.99117,0.66369
4654.06243,0.66391
4652.13368,0.66380
4650.20494,0.66367
4648.27619,0.66382
4646.34745,0.66417
4644.41870,0.66444
4642.48995,0.66421
4640.56121,0.66380
4638.63246,0.66380
4636.70372,0.66371
4634.77497,0.66325
4632.84623,0.66300
4630.91748,0.66272
4628.98874,0.66199
4627.05999,0.66141
4625.13125,0.66157
4623.20250,0.66216
4621.27376,0.66265
4619.34501,0.66273
4617.41627,0.66264
4615.48752,0.66266
4613.55877,0.66256
4611.63003,0.66228
4609.70128,0.66225
4607.77254,0.66252
4605.84379,0.66260
4603.91505,0.66226
4601.98630,0.66181
4600.05756,0.66145
4598.12881,0.66125
4596.20007,0.66143
4594.27132,0.66162
4592.34258,0.66136
4590.41383,0.66109
4588.48509,0.66132
4586.55634,0.66167
4584.62760,0.66156
4582.69885,0.66123
4580.77010,0.66129
4578.84136,0.66157
4576.91261,0.66129
4574.98387,0.66075
4573.05512,0.66073
4571.12638,0.66071
4569.19763,0.66013
4567.26889,0.65976
4565.34014,0.66020
4563.41140,0.66075
4561.48265,0.66052
4559.55391,0.66002
4557.62516,0.66031
4555.69642,0.66108
4553.76767,0.66133
4551.83893,0.66101
4549.91018,0.66087
4547.98143,0.66114
4546.05269,0.66140
4544.12394,0.66128
4542.19520,0.66108
4540.26645,0.66129
4538.33771,0.66157
4536.40896,0.66149
4534.48022,0.66139
4532.55147,0.66144
4530.62273,0.66146
4528.69398,0.66151
4526.76524,0.66154
4524.83649,0.66137
4522.90775,0.66114
4520.97900,0.66094
4519.05025,0.66059
4517.12151,0.66041
4515.19276,0.66074
4513.26402,0.66106
4511.33527,0.66110
4509.40653,0.66124
4507.47778,0.66122
4505.54904,0.66080
4503.62029,0.66058
4501.69155,0.66095
4499.76280,0.66153
4497.83406,0.66170
4495.90531,0.66145
4493.97657,0.66122
4492.04782,0.66133
4490.11908,0.66176
4488.19033,0.66190
4486.26158,0.66143
4484.33284,0.66111
4482.40409,0.66119
4480.47535,0.66123
4478.54660,0.66138
4476.61786,0.66181
4474.68911,0.66216
4472.76037,0.66210
4470.83162,0.66175
4468.90288,0.66156
4466.97413,0.66187
4465.04539,0.66243
4463.11664,0.66258
4461.18790,0.66222
4459.25915,0.66197
4457.33041,0.66232
4455.40166,0.66291
4453.47291,0.66291
4451.54417,0.66242
4449.61542,0.66242
4447.68668,0.66301
4445.75793,0.66333
4443.82919,0.66326
4441.90044,0.66322
4439.97170,0.66313
4438.04295,0.66296
4436.11421,0.66291
4434.18546,0.66297
4432.25672,0.66297
4430.32797,0.66297
4428.39923,0.66309
4426.47048,0.66306
4424.54173,0.66279
4422.61299,0.66237
4420.68424,0.66196
4418.75550,0.66196
4416.82675,0.66235
4414.89801,0.66270
4412.96926,0.66272
4411.04052,0.66255
4409.11177,0.66245
4407.18303,0.66244
4405.25428,0.66251
4403.32554,0.66267
4401.39679,0.66274
4399.46805,0.66273
4397.53930,0.66301
4395.61056,0.66344
4393.68181,0.66345
4391.75306,0.66316
4389.82432,0.66283
4387.89557,0.66227
4385.96683,0.66181
4384.03808,0.66206
4382.10934,0.66258
4380.18059,0.66251
4378.25185,0.66185
4376.32310,0.66109
4374.39436,0.66057
4372.46561,0.66033
4370.53687,0.66029
4368.60812,0.66060
4366.67938,0.66096
4364.75063,0.66076
4362.82189,0.66016
4360.89314,0.65974
4358.96439,0.65976
4357.03565,0.65998
4355.10690,0.65982
4353.17816,0.65919
4351.24941,0.65863
4349.32067,0.65862
4347.39192,0.65923
4345.46318,0.65967
4343.53443,0.65918
4341.60569,0.65827
4339.67694,0.65782
4337.74820,0.65777
4335.81945,0.65773
4333.89071,0.65773
4331.96196,0.65777
4330.03321,0.65785
4328.10447,0.65799
4326.17572,0.65800
4324.24698,0.65780
4322.31823,0.65760
4320.38949,0.65747
4318.46074,0.65736
4316.53200,0.65739
4314.60325,0.65783
4312.67451,0.65857
4310.74576,0.65908
4308.81702,0.65896
4306.88827,0.65845
4304.95953,0.65833
4303.03078,0.65871
4301.10204,0.65905
4299.17329,0.65905
4297.24454,0.65873
4295.31580,0.65834
4293.38705,0.65808
4291.45831,0.65788
4289.52956,0.65772
4287.60082,0.65761
4285.67207,0.65757
4283.74333,0.65756
4281.81458,0.65745
4279.88584,0.65743
4277.95709,0.65758
4276.02835,0.65760
4274.09960,0.65769
4272.17086,0.65798
4270.24211,0.65794
4268.31336,0.65759
4266.38462,0.65746
4264.45587,0.65741
4262.52713,0.65714
4260.59838,0.65703
4258.66964,0.65722
4256.74089,0.65735
4254.81215,0.65735
4252.88340,0.65712
4250.95466,0.65663
4249.02591,0.65632
4247.09717,0.65639
4245.16842,0.65677
4243.23968,0.65711
4241.31093,0.65694
4239.38219,0.65650
4237.45344,0.65630
4235.52469,0.65621
4233.59595,0.65592
4231.66720,0.65573
4229.73846,0.65577
4227.80971,0.65574
4225.88097,0.65567
4223.95222,0.65574
4222.02348,0.65559
4220.09473,0.65511
4218.16599,0.65486
4216.23724,0.65518
4214.30850,0.65574
4212.37975,0.65599
4210.45101,0.65586
4208.52226,0.65583
4206.59352,0.65582
4204.66477,0.65560
4202.73602,0.65532
4200.80728,0.65489
4198.87853,0.65442
4196.94979,0.65435
4195.02104,0.65461
4193.09230,0.65487
4191.16355,0.65496
4189.23481,0.65492
4187.30606,0.65489
4185.37732,0.65468
4183.44857,0.65433
4181.51983,0.65417
4179.59108,0.65408
4177.66234,0.65393
4175.73359,0.65386
4173.80484,0.65396
4171.87610,0.65421
4169.94735,0.65430
4168.01861,0.65394
4166.08986,0.65353
4164.16112,0.65338
4162.23237,0.65314
4160.30363,0.65271
4158.37488,0.65252
4156.44614,0.65287
4154.51739,0.65348
4152.58865,0.65368
4150.65990,0.65321
4148.73116,0.65262
4146.80241,0.65250
4144.87367,0.65262
4142.94492,0.65256
4141.01617,0.65243
4139.08743,0.65252
4137.15868,0.65260
4135.22994,0.65237
4133.30119,0.65192
4131.37245,0.65165
4129.44370,0.65170
4127.51496,0.65201
4125.58621,0.65267
4123.65747,0.65344
4121.72872,0.65354
4119.79998,0.65286
4117.87123,0.65214
4115.94249,0.65178
4114.01374,0.65158
4112.08500,0.65139
4110.15625,0.65116
4108.22750,0.65083
4106.29876,0.65034
4104.37001,0.64982
4102.44127,0.64969
4100.51252,0.64981
4098.58378,0.64957
4096.65503,0.64913
4094.72629,0.64887
4092.79754,0.64854
4090.86880,0.64821
4088.94005,0.64824
4087.01131,0.64818
4085.08256,0.64769
4083.15382,0.64738
4081.22507,0.64746
4079.29632,0.64730
4077.36758,0.64685
4075.43883,0.64672
4073.51009,0.64717
4071.58134,0.64768
4069.65260,0.64752
4067.72385,0.64681
4065.79511,0.64640
4063.86636,0.64648
4061.93762,0.64663
4060.00887,0.64663
4058.08013,0.64661
4056.15138,0.64663
4054.22264,0.64639
4052.29389,0.64589
4050.36515,0.64541
4048.43640,0.64507
4046.50765,0.64493
4044.57891,0.64487
4042.65016,0.64450
4040.72142,0.64382
4038.79267,0.64326
4036.86393,0.64310
4034.93518,0.64334
4033.00644,0.64363
4031.07769,0.64349
4029.14895,0.64327
4027.22020,0.64339
4025.29146,0.64339
4023.36271,0.64301
4021.43397,0.64264
4019.50522,0.64230
4017.57648,0.64189
4015.64773,0.64178
4013.71898,0.64206
4011.79024,0.64236
4009.86149,0.64240
4007.93275,0.64215
4006.00400,0.64178
4004.07526,0.64162
4002.14651,0.64179
4000.21777,0.64204
3998.28902,0.64206
3996.36028,0.64175
3994.43153,0.64128
3992.50279,0.64099
3990.57404,0.64088
3988.64530,0.64091
3986.71655,0.64126
3984.78780,0.64150
3982.85906,0.64111
3980.93031,0.64050
3979.00157,0.64031
3977.07282,0.64038
3975.14408,0.64040
3973.21533,0.64025
3971.28659,0.63986
3969.35784,0.63944
3967.42910,0.63937
3965.50035,0.63951
3963.57161,0.63949
3961.64286,0.63935
3959.71412,0.63923
3957.78537,0.63895
3955.85663,0.63848
3953.92788,0.63823
3951.99913,0.63822
3950.07039,0.63815
3948.14164,0.63822
3946.21290,0.63879
3944.28415,0.63938
3942.35541,0.63924
3940.42666,0.63852
3938.49792,0.63807
3936.56917,0.63817
3934.64043,0.63831
3932.71168,0.63808
3930.78294,0.63770
3928.85419,0.63760
3926.92545,0.63781
3924.99670,0.63791
3923.06795,0.63787
3921.13921,0.63796
3919.21046,0.63792
3917.28172,0.63749
3915.35297,0.63721
3913.42423,0.63765
3911.49548,0.63834
3909.56674,0.63843
3907.63799,0.63809
3905.70925,0.63771
3903.78050,0.63714
3901.85176,0.63652
3899.92301,0.63614
3897.99427,0.63600
3896.06552,0.63633
3894.13678,0.63691
3892.20803,0.63690
3890.27928,0.63650
3888.35054,0.63659
3886.42179,0.63690
3884.49305,0.63680
3882.56430,0.63650
3880.63556,0.63636
3878.70681,0.63666
3876.77807,0.63708
3874.84932,0.63678
3872.92058,0.63609
3870.99183,0.63574
3869.06309,0.63553
3867.13434,0.63526
3865.20560,0.63485
3863.27685,0.63450
3861.34811,0.63471
3859.41936,0.63531
3857.49061,0.63582
3855.56187,0.63572
3853.63312,0.63436
3851.70438,0.63303
3849.77563,0.63324
3847.84689,0.63406
3845.91814,0.63447
3843.98940,0.63429
3842.06065,0.63377
3840.13191,0.63305
3838.20316,0.63211
3836.27442,0.63148
3834.34567,0.63180
3832.41693,0.63232
3830.48818,0.63219
3828.55943,0.63168
3826.63069,0.63129
3824.70194,0.63113
3822.77320,0.63066
3820.84445,0.62953
3818.91571,0.62866
3816.98696,0.62841
3815.05822,0.62826
3813.12947,0.62813
3811.20073,0.62811
3809.27198,0.62793
3807.34324,0.62720
3805.41449,0.62653
3803.48575,0.62642
3801.55700,0.62592
3799.62826,0.62505
3797.69951,0.62447
3795.77076,0.62391
3793.84202,0.62347
3791.91327,0.62300
3789.98453,0.62219
3788.05578,0.62138
3786.12704,0.62052
3784.19829,0.61950
3782.26955,0.61879
3780.34080,0.61834
3778.41206,0.61754
3776.48331,0.61634
3774.55457,0.61507
3772.62582,0.61383
3770.69708,0.61264
3768.76833,0.61144
3766.83959,0.61010
3764.91084,0.60858
3762.98209,0.60701
3761.05335,0.60544
3759.12460,0.60360
3757.19586,0.60182
3755.26711,0.60023
3753.33837,0.59805
3751.40962,0.59476
3749.48088,0.59150
3747.55213,0.58943
3745.62339,0.58703
3743.69464,0.58329
3741.76590,0.57993
3739.83715,0.57732
3737.90841,0.57411
3735.97966,0.56958
3734.05091,0.56442
3732.12217,0.55960
3730.19342,0.55503
3728.26468,0.54965
3726.33593,0.54306
3724.40719,0.53614
3722.47844,0.52894
3720.54970,0.52077
3718.62095,0.51212
3716.69221,0.50361
3714.76346,0.49484
3712.83472,0.48479
3710.90597,0.47319
3708.97723,0.46157
3707.04848,0.45061
3705.11974,0.43972
3703.19099,0.42811
3701.26224,0.41564
3699.33350,0.40335
3697.40475,0.39157
3695.47601,0.37985
3693.54726,0.36839
3691.61852,0.35695
3689.68977,0.34414
3687.76103,0.33010
3685.83228,0.31725
3683.90354,0.30590
3681.97479,0.29464
3680.04605,0.28328
3678.11730,0.27193
3676.18856,0.25911
3674.25981,0.24615
3672.33107,0.23561
3670.40232,0.22482
3668.47357,0.21306
3666.54483,0.20282
3664.61608,0.19343
3662.68734,0.18391
3660.75859,0.17458
3658.82985,0.16559
3656.90110,0.15671
3654.97236,0.14856
3653.04361,0.14196
3651.11487,0.13556
3649.18612,0.12810
3647.25738,0.12090
3645.32863,0.11514
3643.39989,0.11038
3641.47114,0.10579
3639.54239,0.10117
3637.61365,0.09689
3635.68490,0.09316
3633.75616,0.08991
3631.82741,0.08706
3629.89867,0.08429
3627.96992,0.08124
3626.04118,0.07856
3624.11243,0.07641
3622.18369,0.07440
3620.25494,0.07251
3618.32620,0.07092
3616.39745,0.06979
3614.46871,0.06874
3612.53996,0.06744
3610.61122,0.06600
3608.68247,0.06468
3606.75372,0.06375
3604.82498,0.06312
3602.89623,0.06249
3600.96749,0.06175
3599.03874,0.06087
3597.11000,0.05986
3595.18125,0.05897
3593.25251,0.05847
3591.32376,0.05813
3589.39502,0.05771
3587.46627,0.05726
3585.53753,0.05689
3583.60878,0.05657
3581.68004,0.05630
3579.75129,0.05605
3577.82254,0.05561
3575.89380,0.05512
3573.96505,0.05486
3572.03631,0.05457
3570.10756,0.05410
3568.17882,0.05380
3566.25007,0.05371
3564.32133,0.05358
3562.39258,0.05337
3560.46384,0.05322
3558.53509,0.05319
3556.60635,0.05322
3554.67760,0.05311
3552.74886,0.05276
3550.82011,0.05230
3548.89137,0.05198
3546.96262,0.05186
3545.03387,0.05181
3543.10513,0.05192
3541.17638,0.05215
3539.24764,0.05212
3537.31889,0.05179
3535.39015,0.05140
3533.46140,0.05106
3531.53266,0.05100
3529.60391,0.05126
3527.67517,0.05135
3525.74642,0.05114
3523.81768,0.05085
3521.88893,0.05073
3519.96019,0.05083
3518.03144,0.05087
3516.10270,0.05063
3514.17395,0.05040
3512.24520,0.05026
3510.31646,0.05000
3508.38771,0.04968
3506.45897,0.04938
3504.53022,0.04929
3502.60148,0.04960
3500.67273,0.04982
3498.74399,0.04965
3496.81524,0.04960
3494.88650,0.04975
3492.95775,0.04982
3491.02901,0.04985
3489.10026,0.04994
3487.17152,0.05005
3485.24277,0.05002
3483.31402,0.04973
3481.38528,0.04955
3479.45653,0.04977
3477.52779,0.04999
3475.59904,0.04983
3473.67030,0.04955
3471.74155,0.04950
3469.81281,0.04965
3467.88406,0.04984
3465.95532,0.04988
3464.02657,0.04953
3462.09783,0.04908
3460.16908,0.04896
3458.24034,0.04922
3456.31159,0.04955
3454.38285,0.04955
3452.45410,0.04934
3450.52535,0.04939
3448.59661,0.04962
3446.66786,0.04955
3444.73912,0.04924
3442.81037,0.04919
3440.88163,0.04929
3438.95288,0.04911
3437.02414,0.04884
3435.09539,0.04898
3433.16665,0.04939
3431.23790,0.04968
3429.30916,0.04983
3427.38041,0.04996
3425.45167,0.05003
3423.52292,0.05004
3421.59418,0.04999
3419.66543,0.04987
3417.73668,0.04984
3415.80794,0.04983
3413.87919,0.04976
3411.95045,0.04987
3410.02170,0.05029
3408.09296,0.05061
3406.16421,0.05054
3404.23547,0.05032
3402.30672,0.05036
3400.37798,0.05058
3398.44923,0.05057
3396.52049,0.05022
3394.59174,0.04997
3392.66300,0.05017
3390.73425,0.05057
3388.80550,0.05082
3386.87676,0.05098
3384.94801,0.05113
3383.01927,0.05106
3381.09052,0.05097
3379.16178,0.05114
3377.23303,0.05114
3375.30429,0.05078
3373.37554,0.05056
3371.44680,0.05079
3369.51805,0.05117
3367.58931,0.05138
3365.66056,0.05131
3363.73182,0.05112
3361.80307,0.05105
3359.87433,0.05115
3357.94558,0.05112
3356.01683,0.05100
3354.08809,0.05114
3352.15934,0.05143
3350.23060,0.05154
3348.30185,0.05144
3346.37311,0.05126
3344.44436,0.05123
3342.51562,0.05140
3340.58687,0.05150
3338.65813,0.05137
3336.72938,0.05129
3334.80064,0.05142
3332.87189,0.05163
3330.94315,0.05175
3329.01440,0.05195
3327.08566,0.05225
3325.15691,0.05234
3323.22816,0.05234
3321.29942,0.05238
3319.37067,0.05226
3317.44193,0.05205
3315.51318,0.05196
3313.58444,0.05214
3311.65569,0.05255
3309.72695,0.05297
3307.79820,0.05312
3305.86946,0.05302
3303.94071,0.05308
3302.01197,0.05338
3300.08322,0.05355
3298.15448,0.05333
3296.22573,0.05303
3294.29698,0.05295
3292.36824,0.05309
3290.43949,0.05330
3288.51075,0.05353
3286.58200,0.05369
3284.65326,0.05360
3282.72451,0.05338
3280.79577,0.05325
3278.86702,0.05320
3276.93828,0.05329
3275.00953,0.05352
3273.08079,0.05372
3271.15204,0.05405
3269.22330,0.05449
3267.29455,0.05469
3265.36581,0.05466
3263.43706,0.05459
3261.50831,0.05471
3259.57957,0.05538
3257.65082,0.05630
3255.72208,0.05677
3253.79333,0.05677
3251.86459,0.05654
3249.93584,0.05632
3248.00710,0.05655
3246.07835,0.05713
3244.14961,0.05729
3242.22086,0.05686
3240.29212,0.05663
3238.36337,0.05706
3236.43463,0.05753
3234.50588,0.05739
3232.57713,0.05699
3230.64839,0.05689
3228.71964,0.05712
3226.79090,0.05754
3224.86215,0.05799
3222.93341,0.05838
3221.00466,0.05890
3219.07592,0.05942
3217.14717,0.05968
3215.21843,0.05976
3213.28968,0.05976
3211.36094,0.05989
3209.43219,0.06026
3207.50345,0.06057
3205.57470,0.06068
3203.64596,0.06073
3201.71721,0.06083
3199.78846,0.06119
3197.85972,0.06165
3195.93097,0.06184
3194.00223,0.06201
3192.07348,0.06250
3190.14474,0.06291
3188.21599,0.06296
3186.28725,0.06303
3184.35850,0.06333
3182.42976,0.06363
3180.50101,0.06387
3178.57227,0.06403
3176.64352,0.06411
3174.71478,0.06428
3172.78603,0.06449
3170.85729,0.06482
3168.92854,0.06534
3166.99979,0.06579
3165.07105,0.06591
3163.14230,0.06586
3161.21356,0.06602
3159.28481,0.06637
3157.35607,0.06665
3155.42732,0.06693
3153.49858,0.06722
3151.56983,0.06756
3149.64109,0.06795
3147.71234,0.06824
3145.78360,0.06866
3143.85485,0.06920
3141.92611,0.06961
3139.99736,0.07002
3138.06861,0.07052
3136.13987,0.07095
3134.21112,0.07124
3132.28238,0.07133
3130.35363,0.07134
3128.42489,0.07158
3126.49614,0.07212
3124.56740,0.07268
3122.63865,0.07304
3120.70991,0.07360
3118.78116,0.07463
3116.85242,0.07554
3114.92367,0.07600
3112.99493,0.07632
3111.06618,0.07662
3109.13744,0.07686
3107.20869,0.07713
3105.27994,0.07745
3103.35120,0.07793
3101.42245,0.07871
3099.49371,0.07941
3097.56496,0.07990
3095.63622,0.08057
3093.70747,0.08151
3091.77873,0.08253
3089.84998,0.08346
3087.92124,0.08422
3085.99249,0.08482
3084.06375,0.08532
3082.13500,0.08593
3080.20626,0.08654
3078.27751,0.08709
3076.34877,0.08787
3074.42002,0.08885
3072.49127,0.08981
3070.56253,0.09075
3068.63378,0.09154
3066.70504,0.09213
3064.77629,0.09285
3062.84755,0.09371
3060.91880,0.09433
3058.99006,0.09472
3057.06131,0.09519
3055.13257,0.09593
3053.20382,0.09692
3051.27508,0.09791
3049.34633,0.09863
3047.41759,0.09926
3045.48884,0.10007
3043.56009,0.10090
3041.63135,0.10149
3039.70260,0.10194
3037.77386,0.10255
3035.84511,0.10338
3033.91637,0.10421
3031.98762,0.10485
3030.05888,0.10533
3028.13013,0.10576
3026.20139,0.10631
3024.27264,0.10712
3022.34390,0.10789
3020.41515,0.10853
3018.48641,0.10933
3016.55766,0.11022
3014.62892,0.11094
3012.70017,0.11160
3010.77142,0.11232
3008.84268,0.11303
3006.91393,0.11371
3004.98519,0.11438
3003.05644,0.11504
3001.12770,0.11568
2999.19895,0.11639
2997.27021,0.11725
2995.34146,0.11816
2993.41272,0.11901
2991.48397,0.11970
2989.55523,0.12031
2987.62648,0.12103
2985.69774,0.12192
2983.76899,0.12285
2981.84025,0.12367
2979.91150,0.12444
2977.98275,0.12531
2976.05401,0.12631
2974.12526,0.12748
2972.19652,0.12876
2970.26777,0.12993
2968.33903,0.13077
2966.41028,0.13157
2964.48154,0.13269
2962.55279,0.13411
2960.62405,0.13551
2958.69530,0.13660
2956.76656,0.13753
2954.83781,0.13879
2952.90907,0.14034
2950.98032,0.14169
2949.05157,0.14273
2947.12283,0.14390
2945.19408,0.14525
2943.26534,0.14659
2941.33659,0.14780
2939.40785,0.14878
2937.47910,0.14977
2935.55036,0.15112
2933.62161,0.15253
2931.69287,0.15377
2929.76412,0.15505
2927.83538,0.15628
2925.90663,0.15730
2923.97789,0.15835
2922.04914,0.15977
2920.12040,0.16138
2918.19165,0.16290
2916.26290,0.16449
2914.33416,0.16619
2912.40541,0.16782
2910.47667,0.16943
2908.54792,0.17113
2906.61918,0.17284
2904.69043,0.17427
2902.76169,0.17522
2900.83294,0.17616
2898.90420,0.17743
2896.97545,0.17861
2895.04671,0.17960
2893.11796,0.18090
2891.18922,0.18253
2889.26047,0.18396
2887.33172,0.18505
2885.40298,0.18611
2883.47423,0.18713
2881.54549,0.18798
2879.61674,0.18877
2877.68800,0.18957
2875.75925,0.19045
2873.83051,0.19140
2871.90176,0.19228
2869.97302,0.19309
2868.04427,0.19404
2866.11553,0.19517
2864.18678,0.19632
2862.25804,0.19734
2860.32929,0.19826
2858.40055,0.19915
2856.47180,0.19991
2854.54305,0.20069
2852.61431,0.20194
2850.68556,0.20375
2848.75682,0.20583
2846.82807,0.20812
2844.89933,0.21069
2842.97058,0.21335
2841.04184,0.21586
2839.11309,0.21802
2837.18435,0.21986
2835.25560,0.22167
2833.32686,0.22351
2831.39811,0.22513
2829.46937,0.22662
2827.54062,0.22839
2825.61188,0.23044
2823.68313,0.23246
2821.75438,0.23416
2819.82564,0.23560
2817.89689,0.23722
2815.96815,0.23913
2814.03940,0.24111
2812.11066,0.24320
2810.18191,0.24545
2808.25317,0.24777
2806.32442,0.24998
2804.39568,0.25204
2802.46693,0.25404
2800.53819,0.25620
2798.60944,0.25854
2796.68070,0.26083
2794.75195,0.26307
2792.82320,0.26538
2790.89446,0.26771
2788.96571,0.26988
2787.03697,0.27174
2785.10822,0.27345
2783.17948,0.27524
2781.25073,0.27723
2779.32199,0.27931
2777.39324,0.28118
2775.46450,0.28277
2773.53575,0.28435
2771.60701,0.28606
2769.67826,0.28768
2767.74952,0.28908
2765.82077,0.29035
2763.89203,0.29167
2761.96328,0.29311
2760.03453,0.29450
2758.10579,0.29584
2756.17704,0.29727
2754.24830,0.29872
2752.31955,0.29998
2750.39081,0.30099
2748.46206,0.30175
2746.53332,0.30255
2744.60457,0.30374
2742.67583,0.30513
2740.74708,0.30637
2738.81834,0.30748
2736.88959,0.30854
2734.96085,0.30961
2733.03210,0.31068
2731.10336,0.31160
2729.17461,0.31256
2727.24586,0.31370
2725.31712,0.31490
2723.38837,0.31617
2721.45963,0.31745
2719.53088,0.31856
2717.60214,0.31964
2715.67339,0.32092
2713.74465,0.32221
2711.81590,0.32320
2709.88716,0.32406
2707.95841,0.32517
2706.02967,0.32666
2704.10092,0.32831
2702.17218,0.32988
2700.24343,0.33132
2698.31468,0.33279
2696.38594,0.33435
2694.45719,0.33597
2692.52845,0.33758
2690.59970,0.33918
2688.67096,0.34076
2686.74221,0.34224
2684.81347,0.34362
2682.88472,0.34511
2680.95598,0.34676
2679.02723,0.34838
2677.09849,0.34992
2675.16974,0.35155
2673.24100,0.35330
2671.31225,0.35505
2669.38351,0.35666
2667.45476,0.35811
2665.52601,0.35973
2663.59727,0.36159
2661.66852,0.36344
2659.73978,0.36514
2657.81103,0.36661
2655.88229,0.36787
2653.95354,0.36909
2652.02480,0.37033
2650.09605,0.37153
2648.16731,0.37271
2646.23856,0.37402
2644.30982,0.37545
2642.38107,0.37669
2640.45233,0.37761
2638.52358,0.37841
2636.59484,0.37913
2634.66609,0.37967
2632.73734,0.38009
2630.80860,0.38068
2628.87985,0.38157
2626.95111,0.38249
2625.02236,0.38312
2623.09362,0.38344
2621.16487,0.38374
2619.23613,0.38412
2617.30738,0.38444
2615.37864,0.38452
2613.44989,0.38440
2611.52115,0.38433
2609.59240,0.38440
2607.66366,0.38455
2605.73491,0.38463
2603.80616,0.38461
2601.87742,0.38462
2599.94867,0.38465
2598.01993,0.38451
2596.09118,0.38418
2594.16244,0.38384
2592.23369,0.38365
2590.30495,0.38365
2588.37620,0.38365
2586.44746,0.38349
2584.51871,0.38341
2582.58997,0.38361
2580.66122,0.38374
2578.73248,0.38349
2576.80373,0.38327
2574.87499,0.38359
2572.94624,0.38401
2571.01749,0.38404
2569.08875,0.38399
2567.16000,0.38412
2565.23126,0.38436
2563.30251,0.38446
2561.37377,0.38444
2559.44502,0.38458
2557.51628,0.38492
2555.58753,0.38541
2553.65879,0.38607
2551.73004,0.38672
2549.80130,0.38720
2547.87255,0.38749
2545.94381,0.38766
2544.01506,0.38781
2542.08631,0.38816
2540.15757,0.38880
2538.22882,0.38941
2536.30008,0.38987
2534.37133,0.39039
2532.44259,0.39088
2530.51384,0.39112
2528.58510,0.39135
2526.65635,0.39182
2524.72761,0.39237
2522.79886,0.39285
2520.87012,0.39336
2518.94137,0.39400
2517.01263,0.39456
2515.08388,0.39483
2513.15514,0.39498
2511.22639,0.39525
2509.29764,0.39558
2507.36890,0.39592
2505.44015,0.39642
2503.51141,0.39705
2501.58266,0.39758
2499.65392,0.39801
2497.72517,0.39838
2495.79643,0.39861
2493.86768,0.39871
2491.93894,0.39878
2490.01019,0.39876
2488.08145,0.39874
2486.15270,0.39886
2484.22396,0.39902
2482.29521,0.39903
2480.36647,0.39886
2478.43772,0.39861
2476.50897,0.39836
2474.58023,0.39808
2472.65148,0.39782
2470.72274,0.39755
2468.79399,0.39710
2466.86525,0.39651
2464.93650,0.39587
2463.00776,0.39533
2461.07901,0.39487
2459.15027,0.39433
2457.22152,0.39380
2455.29278,0.39337
2453.36403,0.39292
2451.43529,0.39236
2449.50654,0.39169
2447.57779,0.39103
2445.64905,0.39049
2443.72030,0.39009
2441.79156,0.38961
2439.86281,0.38910
2437.93407,0.38876
2436.00532,0.38851
2434.07658,0.38826
2432.14783,0.38811
2430.21909,0.38812
2428.29034,0.38831
2426.36160,0.38863
2424.43285,0.38883
2422.50411,0.38888
2420.57536,0.38902
2418.64662,0.38926
2416.71787,0.38961
2414.78912,0.39020
2412.86038,0.39092
2410.93163,0.39145
2409.00289,0.39191
2407.07414,0.39247
2405.14540,0.39306
2403.21665,0.39381
2401.28791,0.39475
2399.35916,0.39578
2397.43042,0.39685
2395.50167,0.39780
2393.57293,0.39861
2391.64418,0.39939
2389.71544,0.40026
2387.78669,0.40132
2385.85795,0.40250
2383.92920,0.40352
2382.00045,0.40430
2380.07171,0.40503
2378.14296,0.40579
2376.21422,0.40666
2374.28547,0.40767
2372.35673,0.40857
2370.42798,0.40920
2368.49924,0.40982
2366.57049,0.41057
2364.64175,0.41129
2362.71300,0.41177
2360.78426,0.41203
2358.85551,0.41230
2356.92677,0.41273
2354.99802,0.41315
2353.06927,0.41342
2351.14053,0.41367
2349.21178,0.41392
2347.28304,0.41393
2345.35429,0.41363
2343.42555,0.41333
2341.49680,0.41318
2339.56806,0.41290
2337.63931,0.41252
2335.71057,0.41227
2333.78182,0.41206
2331.85308,0.41182
2329.92433,0.41151
2327.99559,0.41101
2326.06684,0.41040
2324.13810,0.40977
2322.20935,0.40915
2320.28060,0.40850
2318.35186,0.40774
2316.42311,0.40700
2314.49437,0.40645
2312.56562,0.40594
2310.63688,0.40534
2308.70813,0.40476
2306.77939,0.40431
2304.85064,0.40395
2302.92190,0.40359
2300.99315,0.40320
2299.06441,0.40275
2297.13566,0.40224
2295.20692,0.40182
2293.27817,0.40158
2291.34943,0.40142
2289.42068,0.40130
2287.49193,0.40126
2285.56319,0.40126
2283.63444,0.40127
2281.70570,0.40128
2279.77695,0.40139
2277.84821,0.40171
2275.91946,0.40212
2273.99072,0.40251
2272.06197,0.40299
2270.13323,0.40350
2268.20448,0.40394
2266.27574,0.40440
2264.34699,0.40504
2262.41825,0.40583
2260.48950,0.40656
2258.56075,0.40728
2256.63201,0.40818
2254.70326,0.40915
2252.77452,0.40998
2250.84577,0.41074
2248.91703,0.41162
2246.98828,0.41264
2245.05954,0.41364
2243.13079,0.41449
2241.20205,0.41523
2239.27330,0.41609
2237.34456,0.41706
2235.41581,0.41790
2233.48707,0.41862
2231.55832,0.41925
2229.62958,0.41966
2227.70083,0.41993
2225.77208,0.42025
2223.84334,0.42057
2221.91459,0.42080
2219.98585,0.42101
2218.05710,0.42114
2216.12836,0.42103
2214.19961,0.42077
2212.27087,0.42052
2210.34212,0.42035
2208.41338,0.42017
2206.48463,0.41988
2204.55589,0.41945
2202.62714,0.41887
2200.69840,0.41817
2198.76965,0.41742
2196.84090,0.41661
2194.91216,0.41565
2192.98341,0.41459
2191.05467,0.41360
2189.12592,0.41256
2187.19718,0.41128
2185.26843,0.40999
2183.33969,0.40884
2181.41094,0.40765
2179.48220,0.40639
2177.55345,0.40525
2175.62471,0.40427
2173.69596,0.40333
2171.76722,0.40233
2169.83847,0.40129
2167.90973,0.40021
2165.98098,0.39905
2164.05223,0.39792
2162.12349,0.39694
2160.19474,0.39608
2158.26600,0.39526
2156.33725,0.39446
2154.40851,0.39378
2152.47976,0.39318
2150.55102,0.39260
2148.62227,0.39211
2146.69353,0.39178
2144.76478,0.39153
2142.83604,0.39135
2140.90729,0.39140
2138.97855,0.39172
2137.04980,0.39227
2135.12106,0.39298
2133.19231,0.39369
2131.26356,0.39438
2129.33482,0.39510
2127.40607,0.39587
2125.47733,0.39686
2123.54858,0.39818
2121.61984,0.39959
2119.69109,0.40082
2117.76235,0.40194
2115.83360,0.40314
2113.90486,0.40453
2111.97611,0.40604
2110.04737,0.40753
2108.11862,0.40896
2106.18988,0.41040
2104.26113,0.41186
2102.33238,0.41327
2100.40364,0.41464
2098.47489,0.41603
2096.54615,0.41727
2094.61740,0.41827
2092.68866,0.41923
2090.75991,0.42028
2088.83117,0.42129
2086.90242,0.42216
2084.97368,0.42290
2083.04493,0.42369
2081.11619,0.42461
2079.18744,0.42537
2077.25870,0.42582
2075.32995,0.42618
2073.40121,0.42656
2071.47246,0.42674
2069.54371,0.42675
2067.61497,0.42681
2065.68622,0.42678
2063.75748,0.42647
2061.82873,0.42600
2059.89999,0.42557
2057.97124,0.42523
2056.04250,0.42477
2054.11375,0.42414
2052.18501,0.42351
2050.25626,0.42293
2048.32752,0.42233
2046.39877,0.42162
2044.47003,0.42075
2042.54128,0.41978
2040.61254,0.41881
2038.68379,0.41798
2036.75504,0.41725
2034.82630,0.41645
2032.89755,0.41566
2030.96881,0.41487
2029.04006,0.41412
2027.11132,0.41360
2025.18257,0.41320
2023.25383,0.41274
2021.32508,0.41233
2019.39634,0.41204
2017.46759,0.41183
2015.53885,0.41174
2013.61010,0.41181
2011.68136,0.41205
2009.75261,0.41241
2007.82386,0.41281
2005.89512,0.41321
2003.96637,0.41367
2002.03763,0.41429
2000.10888,0.41509
1998.18014,0.41609
1996.25139,0.41729
1994.32265,0.41852
1992.39390,0.41967
1990.46516,0.42091
1988.53641,0.42237
1986.60767,0.42395
1984.67892,0.42565
1982.75018,0.42744
1980.82143,0.42930
1978.89269,0.43118
1976.96394,0.43296
1975.03519,0.43470
1973.10645,0.43651
1971.17770,0.43823
1969.24896,0.43982
1967.32021,0.44143
1965.39147,0.44310
1963.46272,0.44468
1961.53398,0.44621
1959.60523,0.44778
1957.67649,0.44935
1955.74774,0.45085
1953.81900,0.45218
1951.89025,0.45334
1949.96151,0.45447
1948.03276,0.45553
1946.10402,0.45630
1944.17527,0.45686
1942.24652,0.45746
1940.31778,0.45804
1938.38903,0.45833
1936.46029,0.45843
1934.53154,0.45843
1932.60280,0.45825
1930.67405,0.45798
1928.74531,0.45766
1926.81656,0.45716
1924.88782,0.45650
1922.95907,0.45577
1921.03033,0.45482
1919.10158,0.45354
1917.17284,0.45227
1915.24409,0.45119
1913.31534,0.45007
1911.38660,0.44883
1909.45785,0.44749
1907.52911,0.44603
1905.60036,0.44460
1903.67162,0.44327
1901.74287,0.44181
1899.81413,0.44022
1897.88538,0.43868
1895.95664,0.43728
1894.02789,0.43602
1892.09915,0.43473
1890.17040,0.43340
1888.24166,0.43230
1886.31291,0.43148
1884.38417,0.43074
1882.45542,0.42994
1880.52667,0.42914
1878.59793,0.42854
1876.66918,0.42813
1874.74044,0.42781
1872.81169,0.42767
1870.88295,0.42769
1868.95420,0.42784
1867.02546,0.42818
1865.09671,0.42878
1863.16797,0.42951
1861.23922,0.43014
1859.31048,0.43071
1857.38173,0.43153
1855.45299,0.43271
1853.52424,0.43400
1851.59549,0.43526
1849.66675,0.43666
1847.73800,0.43822
1845.80926,0.43957
1843.88051,0.44070
1841.95177,0.44209
1840.02302,0.44379
1838.09428,0.44558
1836.16553,0.44713
1834.23679,0.44833
1832.30804,0.44944
1830.37930,0.45065
1828.45055,0.45188
1826.52181,0.45305
1824.59306,0.45415
1822.66432,0.45515
1820.73557,0.45604
1818.80682,0.45673
1816.87808,0.45717
1814.94933,0.45736
1813.02059,0.45733
1811.09184,0.45708
1809.16310,0.45654
1807.23435,0.45559
1805.30561,0.45428
1803.37686,0.45277
1801.44812,0.45114
1799.51937,0.44944
1797.59063,0.44772
1795.66188,0.44591
1793.73314,0.44386
1791.80439,0.44181
1789.87565,0.44042
1787.94690,0.43933
1786.01815,0.43781
1784.08941,0.43581
1782.16066,0.43351
1780.23192,0.43078
1778.30317,0.42779
1776.37443,0.42491
1774.44568,0.42182
1772.51694,0.41798
1770.58819,0.41408
1768.65945,0.41087
1766.73070,0.40780
1764.80196,0.40435
1762.87321,0.40029
1760.94447,0.39590
1759.01572,0.39177
1757.08697,0.38770
1755.15823,0.38374
1753.22948,0.37972
1751.30074,0.37484
1749.37199,0.36964
1747.44325,0.36524
1745.51450,0.36130
1743.58576,0.35725
1741.65701,0.35296
1739.72827,0.34848
1737.79952,0.34445
1735.87078,0.34046
1733.94203,0.33490
1732.01329,0.32847
1730.08454,0.32208
1728.15580,0.31489
1726.22705,0.30700
1724.29830,0.29887
1722.36956,0.29166
1720.44081,0.28670
1718.51207,0.28389
1716.58332,0.28272
1714.65458,0.28209
1712.72583,0.28016
1710.79709,0.27562
1708.86834,0.26826
1706.93960,0.25860
1705.01085,0.24815
1703.08211,0.23894
1701.15336,0.23033
1699.22462,0.22250
1697.29587,0.21759
1695.36713,0.21470
1693.43838,0.21318
1691.50963,0.21291
1689.58089,0.21333
1687.65214,0.21414
1685.72340,0.21495
1683.79465,0.21581
1681.86591,0.21690
1679.93716,0.21764
1678.00842,0.21764
1676.07967,0.21685
1674.15093,0.21547
1672.22218,0.21367
1670.29344,0.21110
1668.36469,0.20782
1666.43595,0.20468
1664.50720,0.20153
1662.57845,0.19779
1660.64971,0.19383
1658.72096,0.18998
1656.79222,0.18617
1654.86347,0.18161
1652.93473,0.17511
1651.00598,0.16939
1649.07724,0.16546
1647.14849,0.16089
1645.21975,0.15559
1643.29100,0.15107
1641.36226,0.14707
1639.43351,0.14318
1637.50477,0.13925
1635.57602,0.13480
1633.64728,0.13057
1631.71853,0.12724
1629.78978,0.12429
1627.86104,0.12141
1625.93229,0.11869
1624.00355,0.11616
1622.07480,0.11384
1620.14606,0.11193
1618.21731,0.11023
1616.28857,0.10857
1614.35982,0.10747
1612.43108,0.10711
1610.50233,0.10731
1608.57359,0.10799
1606.64484,0.10919
1604.71610,0.11090
1602.78735,0.11309
1600.85861,0.11566
1598.92986,0.11842
1597.00111,0.12124
1595.07237,0.12409
1593.14362,0.12685
1591.21488,0.12953
1589.28613,0.13219
1587.35739,0.13474
1585.42864,0.13730
1583.49990,0.14014
1581.57115,0.14327
1579.64241,0.14662
1577.71366,0.15056
1575.78492,0.15558
1573.85617,0.16076
1571.92743,0.16577
1569.99868,0.17177
1568.06993,0.17865
1566.14119,0.18560
1564.21244,0.19256
1562.28370,0.19904
1560.35495,0.20572
1558.42621,0.21372
1556.49746,0.22076
1554.56872,0.22649
1552.63997,0.23191
1550.71123,0.23685
1548.78248,0.24114
1546.85374,0.24456
1544.92499,0.24721
1542.99625,0.24938
1541.06750,0.25131
1539.13876,0.25326
1537.21001,0.25490
1535.28126,0.25575
1533.35252,0.25584
1531.42377,0.25561
1529.49503,0.25492
1527.56628,0.25338
1525.63754,0.25127
1523.70879,0.24899
1521.78005,0.24603
1519.85130,0.24244
1517.92256,0.23894
1515.99381,0.23523
1514.06507,0.23141
1512.13632,0.22785
1510.20758,0.22463
1508.27883,0.22144
1506.35008,0.21782
1504.42134,0.21472
1502.49259,0.21252
1500.56385,0.21039
1498.63510,0.20795
1496.70636,0.20520
1494.77761,0.20254
1492.84887,0.20025
1490.92012,0.19801
1488.99138,0.19561
1487.06263,0.19341
1485.13389,0.19165
1483.20514,0.19034
1481.27640,0.18927
1479.34765,0.18821
1477.41891,0.18715
1475.49016,0.18619
1473.56141,0.18537
1471.63267,0.18482
1469.70392,0.18489
1467.77518,0.18558
1465.84643,0.18678
1463.91769,0.18846
1461.98894,0.19050
1460.06020,0.19279
1458.13145,0.19567
1456.20271,0.19953
1454.27396,0.20363
1452.34522,0.20760
1450.41647,0.21155
1448.48773,0.21529
1446.55898,0.21864
1444.63024,0.22129
1442.70149,0.22290
1440.77274,0.22337
1438.84400,0.22275
1436.91525,0.22116
1434.98651,0.21935
1433.05776,0.21801
1431.12902,0.21694
1429.20027,0.21610
1427.27153,0.21546
1425.34278,0.21468
1423.41404,0.21369
1421.48529,0.21241
1419.55655,0.21036
1417.62780,0.20743
1415.69906,0.20417
1413.77031,0.20068
1411.84156,0.19683
1409.91282,0.19260
1407.98407,0.18786
1406.05533,0.18241
1404.12658,0.17625
1402.19784,0.16962
1400.26909,0.16221
1398.34035,0.15403
1396.41160,0.14571
1394.48286,0.13723
1392.55411,0.12890
1390.62537,0.12123
1388.69662,0.11375
1386.76788,0.10621
1384.83913,0.09940
1382.91039,0.09363
1380.98164,0.08853
1379.05289,0.08400
1377.12415,0.08009
1375.19540,0.07654
1373.26666,0.07318
1371.33791,0.07043
1369.40917,0.06838
1367.48042,0.06666
1365.55168,0.06496
1363.62293,0.06331
1361.69419,0.06179
1359.76544,0.06027
1357.83670,0.05881
1355.90795,0.05755
1353.97921,0.05645
1352.05046,0.05538
1350.12172,0.05448
1348.19297,0.05375
1346.26422,0.05286
1344.33548,0.05185
1342.40673,0.05099
1340.47799,0.05017
1338.54924,0.04926
1336.62050,0.04832
1334.69175,0.04737
1332.76301,0.04639
1330.83426,0.04536
1328.90552,0.04429
1326.97677,0.04332
1325.04803,0.04250
1323.11928,0.04159
1321.19054,0.04051
1319.26179,0.03944
1317.33304,0.03831
1315.40430,0.03711
1313.47555,0.03597
1311.54681,0.03493
1309.61806,0.03391
1307.68932,0.03280
1305.76057,0.03161
1303.83183,0.03048
1301.90308,0.02947
1299.97434,0.02849
1298.04559,0.02753
1296.11685,0.02672
1294.18810,0.02601
1292.25936,0.02518
1290.33061,0.02433
1288.40187,0.02364
1286.47312,0.02315
1284.54437,0.02277
1282.61563,0.02246
1280.68688,0.02227
1278.75814,0.02223
1276.82939,0.02240
1274.90065,0.02259
1272.97190,0.02262
1271.04316,0.02260
1269.11441,0.02276
1267.18567,0.02308
1265.25692,0.02341
1263.32818,0.02365
1261.39943,0.02369
1259.47069,0.02374
1257.54194,0.02406
1255.61320,0.02435
1253.68445,0.02429
1251.75570,0.02404
1249.82696,0.02387
1247.89821,0.02382
1245.96947,0.02392
1244.04072,0.02414
1242.11198,0.02441
1240.18323,0.02462
1238.25449,0.02463
1236.32574,0.02439
1234.39700,0.02409
1232.46825,0.02403
1230.53951,0.02406
1228.61076,0.02389
1226.68202,0.02369
1224.75327,0.02374
1222.82452,0.02395
1220.89578,0.02409
1218.96703,0.02410
1217.03829,0.02402
1215.10954,0.02389
1213.18080,0.02372
1211.25205,0.02364
1209.32331,0.02364
1207.39456,0.02360
1205.46582,0.02354
1203.53707,0.02357
1201.60833,0.02370
1199.67958,0.02384
1197.75084,0.02390
1195.82209,0.02400
1193.89335,0.02427
1191.96460,0.02449
1190.03585,0.02448
1188.10711,0.02444
1186.17836,0.02464
1184.24962,0.02513
1182.32087,0.02559
1180.39213,0.02565
1178.46338,0.02562
1176.53464,0.02583
1174.60589,0.02603
1172.67715,0.02613
1170.74840,0.02631
1168.81966,0.02652
1166.89091,0.02664
1164.96217,0.02681
1163.03342,0.02718
1161.10467,0.02760
1159.17593,0.02795
1157.24718,0.02820
1155.31844,0.02842
1153.38969,0.02869
1151.46095,0.02904
1149.53220,0.02949
1147.60346,0.02982
1145.67471,0.02971
1143.74597,0.02941
1141.81722,0.02942
1139.88848,0.02960
1137.95973,0.02973
1136.03099,0.02997
1134.10224,0.03022
1132.17350,0.03022
1130.24475,0.03015
1128.31600,0.03034
1126.38726,0.03073
1124.45851,0.03096
1122.52977,0.03111
1120.60102,0.03144
1118.67228,0.03182
1116.74353,0.03205
1114.81479,0.03201
1112.88604,0.03174
1110.95730,0.03165
1109.02855,0.03199
1107.09981,0.03224
1105.17106,0.03194
1103.24232,0.03152
1101.31357,0.03151
1099.38483,0.03167
1097.45608,0.03158
1095.52733,0.03127
1093.59859,0.03094
1091.66984,0.03076
1089.74110,0.03070
1087.81235,0.03060
1085.88361,0.03061
1083.95486,0.03091
1082.02612,0.03121
1080.09737,0.03108
1078.16863,0.03064
1076.23988,0.03030
1074.31114,0.03003
1072.38239,0.02973
1070.45365,0.02966
1068.52490,0.02976
1066.59615,0.02966
1064.66741,0.02936
1062.73866,0.02929
1060.80992,0.02948
1058.88117,0.02944
1056.95243,0.02898
1055.02368,0.02872
1053.09494,0.02903
1051.16619,0.02919
1049.23745,0.02883
1047.30870,0.02869
1045.37996,0.02884
1043.45121,0.02877
1041.52247,0.02871
1039.59372,0.02877
1037.66498,0.02863
1035.73623,0.02828
1033.80748,0.02781
1031.87874,0.02733
1029.94999,0.02715
1028.02125,0.02716
1026.09250,0.02698
1024.16376,0.02647
1022.23501,0.02580
1020.30627,0.02533
1018.37752,0.02510
1016.44878,0.02479
1014.52003,0.02422
1012.59129,0.02355
1010.66254,0.02297
1008.73380,0.02262
1006.80505,0.02238
1004.87631,0.02207
1002.94756,0.02196
1001.01881,0.02204
999.09007,0.02181
997.16132,0.02150
995.23258,0.02175
993.30383,0.02233
991.37509,0.02263
989.44634,0.02249
987.51760,0.02207
985.58885,0.02164
983.66011,0.02151
981.73136,0.02158
979.80262,0.02173
977.87387,0.02209
975.94513,0.02245
974.01638,0.02260
972.08763,0.02293
970.15889,0.02369
968.23014,0.02441
966.30140,0.02473
964.37265,0.02504
962.44391,0.02565
960.51516,0.02646
958.58642,0.02746
956.65767,0.02853
954.72893,0.02949
952.80018,0.03046
950.87144,0.03151
948.94269,0.03276
947.01395,0.03417
945.08520,0.03542
943.15646,0.03650
941.22771,0.03776
939.29896,0.03941
937.37022,0.04124
935.44147,0.04294
933.51273,0.04443
931.58398,0.04585
929.65524,0.04742
927.72649,0.04927
925.79775,0.05122
923.86900,0.05299
921.94026,0.05451
920.01151,0.05594
918.08277,0.05739
916.15402,0.05891
914.22528,0.06057
912.29653,0.06245
910.36779,0.06425
908.43904,0.06574
906.51029,0.06714
904.58155,0.06881
902.65280,0.07076
900.72406,0.07256
898.79531,0.07390
896.86657,0.07509
894.93782,0.07650
893.00908,0.07794
891.08033,0.07921
889.15159,0.08051
887.22284,0.08210
885.29410,0.08381
883.36535,0.08541
881.43661,0.08693
879.50786,0.08845
877.57911,0.08992
875.65037,0.09129
873.72162,0.09255
871.79288,0.09383
869.86413,0.09534
867.93539,0.09725
866.00664,0.09936
864.07790,0.10109
862.14915,0.10234
860.22041,0.10369
858.29166,0.10525
856.36292,0.10650
854.43417,0.10735
852.50543,0.10821
850.57668,0.10933
848.64794,0.11055
846.71919,0.11166
844.79044,0.11291
842.86170,0.11450
840.93295,0.11596
839.00421,0.11686
837.07546,0.11759
835.14672,0.11881
833.21797,0.12038
831.28923,0.12185
829.36048,0.12310
827.43174,0.12419
825.50299,0.12525
823.57425,0.12636
821.64550,0.12737
819.71676,0.12824
817.78801,0.12912
815.85926,0.13005
813.93052,0.13087
812.00177,0.13162
810.07303,0.13243
808.14428,0.13312
806.21554,0.13368
804.28679,0.13450
802.35805,0.13552
800.42930,0.13635
798.50056,0.13696
796.57181,0.13748
794.64307,0.13788
792.71432,0.13826
790.78558,0.13873
788.85683,0.13914
786.92809,0.13942
784.99934,0.13988
783.07059,0.14061
781.14185,0.14134
779.21310,0.14189
777.28436,0.14229
775.35561,0.14266
773.42687,0.14322
771.49812,0.14399
769.56938,0.14461
767.64063,0.14477
765.71189,0.14480
763.78314,0.14521
761.85440,0.14589
759.92565,0.14656
757.99691,0.14717
756.06816,0.14754
754.13942,0.14750
752.21067,0.14743
750.28192,0.14775
748.35318,0.14824
746.42443,0.14877
744.49569,0.14946
742.56694,0.15015
740.63820,0.15074
738.70945,0.15144
736.78071,0.15211
734.85196,0.15252
732.92322,0.15293
730.99447,0.15354
729.06573,0.15410
727.13698,0.15449
725.20824,0.15469
723.27949,0.15491
721.35074,0.15528
719.42200,0.15547
717.49325,0.15516
715.56451,0.15468
713.63576,0.15491
711.70702,0.15607
709.77827,0.15752
707.84953,0.15882
705.92078,0.15999
703.99204,0.16091
702.06329,0.16130
700.13455,0.16117
698.20580,0.16100
696.27706,0.16136
694.34831,0.16231
692.41957,0.16310
690.49082,0.16319
688.56207,0.16311
686.63333,0.16359
684.70458,0.16454
682.77584,0.16525
680.84709,0.16547
678.91835,0.16544
676.98960,0.16538
675.06086,0.16546
673.13211,0.16573
671.20337,0.16601
669.27462,0.16613
667.34588,0.16620
665.41713,0.16621
663.48839,0.16622
661.55964,0.16670
659.63090,0.16733
657.70215,0.16723
655.77340,0.16703
653.84466,0.16766
651.91591,0.16850
649.98717,0.16884
648.05842,0.16902
646.12968,0.16941
644.20093,0.16983
642.27219,0.16999
640.34344,0.16992
638.41470,0.17010
636.48595,0.17055
634.55721,0.17070
632.62846,0.17079
630.69972,0.17124
628.77097,0.17155
626.84222,0.17108
624.91348,0.17033
622.98473,0.17038
621.05599,0.17184
619.12724,0.17419
617.19850,0.17587
615.26975,0.17626
613.34101,0.17585
611.41226,0.17540
609.48352,0.17568
607.55477,0.17614
605.62603,0.17572
603.69728,0.17531
601.76854,0.17614
599.83979,0.17706
