7497.03301,0.60555
7495.10426,0.60546
7493.17552,0.60856
7491.24677,0.61313
7489.31803,0.61342
7487.38928,0.61081
7485.46054,0.61006
7483.53179,0.61043
7481.60305,0.60835
7479.67430,0.60345
7477.74556,0.59966
7475.81681,0.60042
7473.88807,0.60248
7471.95932,0.60107
7470.03057,0.59802
7468.10183,0.59804
7466.17308,0.60278
7464.24434,0.60775
7462.31559,0.60740
7460.38685,0.60492
7458.45810,0.60326
7456.52936,0.59970
7454.60061,0.59697
7452.67187,0.59843
7450.74312,0.60041
7448.81438,0.59958
7446.88563,0.59878
7444.95689,0.60157
7443.02814,0.60392
7441.09940,0.60216
7439.17065,0.60113
7437.24190,0.60333
7435.31316,0.60532
7433.38441,0.60644
7431.45567,0.60740
7429.52692,0.60619
7427.59818,0.60515
7425.66943,0.60611
7423.74069,0.60444
7421.81194,0.60108
7419.88320,0.59893
7417.95445,0.59759
7416.02571,0.59889
7414.09696,0.60097
7412.16822,0.59988
7410.23947,0.59740
7408.31073,0.59884
7406.38198,0.60419
7404.45323,0.60758
7402.52449,0.60838
7400.59574,0.60641
7398.66700,0.60006
7396.73825,0.59459
7394.80951,0.59434
7392.88076,0.59767
7390.95202,0.60049
7389.02327,0.60123
7387.09453,0.60048
7385.16578,0.59665
7383.23704,0.59442
7381.30829,0.60054
7379.37955,0.60872
7377.45080,0.61074
7375.52205,0.60833
7373.59331,0.60626
7371.66456,0.60577
7369.73582,0.60391
7367.80707,0.59955
7365.87833,0.59720
7363.94958,0.59803
7362.02084,0.59850
7360.09209,0.59902
7358.16335,0.60038
7356.23460,0.60031
7354.30586,0.59990
7352.37711,0.60219
7350.44837,0.60370
7348.51962,0.59818
7346.59088,0.58917
7344.66213,0.58730
7342.73338,0.59422
7340.80464,0.60091
7338.87589,0.60152
7336.94715,0.59959
7335.01840,0.59915
7333.08966,0.59813
7331.16091,0.59298
7329.23217,0.58807
7327.30342,0.58981
7325.37468,0.59517
7323.44593,0.59881
7321.51719,0.60075
7319.58844,0.60171
7317.65970,0.60194
7315.73095,0.60338
7313.80221,0.60574
7311.87346,0.60648
7309.94471,0.60580
7308.01597,0.60384
7306.08722,0.60056
7304.15848,0.59937
7302.22973,0.60179
7300.30099,0.60311
7298.37224,0.60165
7296.44350,0.60482
7294.51475,0.61357
7292.58601,0.61654
7290.65726,0.61130
7288.72852,0.60748
7286.79977,0.60765
7284.87103,0.60636
7282.94228,0.60427
7281.01353,0.60482
7279.08479,0.60353
7277.15604,0.59764
7275.22730,0.59433
7273.29855,0.59786
7271.36981,0.60279
7269.44106,0.60402
7267.51232,0.60201
7265.58357,0.59934
7263.65483,0.59836
7261.72608,0.60114
7259.79734,0.60685
7257.86859,0.60929
7255.93985,0.60629
7254.01110,0.60326
7252.08236,0.60305
7250.15361,0.60484
7248.22486,0.60631
7246.29612,0.60479
7244.36737,0.60269
7242.43863,0.60458
7240.50988,0.60800
7238.58114,0.60833
7236.65239,0.60664
7234.72365,0.60411
7232.79490,0.60090
7230.86616,0.59877
7228.93741,0.59873
7227.00867,0.60078
7225.07992,0.60271
7223.15118,0.60265
7221.22243,0.60212
7219.29369,0.60215
7217.36494,0.60158
7215.43619,0.59990
7213.50745,0.60029
7211.57870,0.60332
7209.64996,0.60477
7207.72121,0.60481
7205.79247,0.60387
7203.86372,0.60033
7201.93498,0.59744
7200.00623,0.59887
7198.07749,0.60272
7196.14874,0.60452
7194.22000,0.60531
7192.29125,0.60845
7190.36251,0.61092
7188.43376,0.61094
7186.50501,0.61132
7184.57627,0.61084
7182.64752,0.60749
7180.71878,0.60495
7178.79003,0.60481
7176.86129,0.60436
7174.93254,0.60361
7173.00380,0.60236
7171.07505,0.60167
7169.14631,0.60508
7167.21756,0.60849
7165.28882,0.60621
7163.36007,0.60265
7161.43133,0.60340
7159.50258,0.60615
7157.57384,0.60606
7155.64509,0.60362
7153.71634,0.60161
7151.78760,0.60075
7149.85885,0.60186
7147.93011,0.60503
7146.00136,0.60748
7144.07262,0.60708
7142.14387,0.60419
7140.21513,0.60106
7138.28638,0.60182
7136.35764,0.60722
7134.42889,0.61254
7132.50015,0.61278
7130.57140,0.60736
7128.64266,0.60207
7126.71391,0.60121
7124.78516,0.60205
7122.85642,0.60325
7120.92767,0.60570
7118.99893,0.60697
7117.07018,0.60593
7115.14144,0.60446
7113.21269,0.60377
7111.28395,0.60421
7109.35520,0.60425
7107.42646,0.60177
7105.49771,0.59975
7103.56897,0.60210
7101.64022,0.60538
7099.71148,0.60528
7097.78273,0.60382
7095.85399,0.60467
7093.92524,0.60813
7091.99649,0.61108
7090.06775,0.61018
7088.13900,0.60617
7086.21026,0.60330
7084.28151,0.60315
7082.35277,0.60470
7080.42402,0.60756
7078.49528,0.60824
7076.56653,0.60528
7074.63779,0.60491
7072.70904,0.60842
7070.78030,0.60982
7068.85155,0.60798
7066.92281,0.60603
7064.99406,0.60560
7063.06532,0.60547
7061.13657,0.60503
7059.20782,0.60655
7057.27908,0.60844
7055.35033,0.60692
7053.42159,0.60373
7051.49284,0.60194
7049.56410,0.60198
7047.63535,0.60272
7045.70661,0.60216
7043.77786,0.60151
7041.84912,0.60366
7039.92037,0.60720
7037.99163,0.61030
7036.06288,0.61255
7034.13414,0.61260
7032.20539,0.61125
7030.27664,0.61012
7028.34790,0.60862
7026.41915,0.60715
7024.49041,0.60709
7022.56166,0.60835
7020.63292,0.61105
7018.70417,0.61334
7016.77543,0.61083
7014.84668,0.60486
7012.91794,0.60170
7010.98919,0.60323
7009.06045,0.60594
7007.13170,0.60667
7005.20296,0.60624
7003.27421,0.60718
7001.34547,0.60931
6999.41672,0.60857
6997.48797,0.60534
6995.55923,0.60564
6993.63048,0.60908
6991.70174,0.61030
6989.77299,0.60821
6987.84425,0.60638
6985.91550,0.60850
6983.98676,0.61249
6982.05801,0.61261
6980.12927,0.60988
6978.20052,0.61131
6976.27178,0.61570
6974.34303,0.61561
6972.41429,0.61176
6970.48554,0.60977
6968.55680,0.61133
6966.62805,0.61325
6964.69930,0.61165
6962.77056,0.60766
6960.84181,0.60464
6958.91307,0.60420
6956.98432,0.60517
6955.05558,0.60505
6953.12683,0.60458
6951.19809,0.60632
6949.26934,0.60950
6947.34060,0.61141
6945.41185,0.61146
6943.48311,0.61151
6941.55436,0.61287
6939.62562,0.61420
6937.69687,0.61332
6935.76812,0.61035
6933.83938,0.60825
6931.91063,0.60903
6929.98189,0.61164
6928.05314,0.61324
6926.12440,0.61187
6924.19565,0.60940
6922.26691,0.60901
6920.33816,0.61033
6918.40942,0.61111
6916.48067,0.61219
6914.55193,0.61454
6912.62318,0.61527
6910.69444,0.61406
6908.76569,0.61320
6906.83695,0.61235
6904.90820,0.61164
6902.97945,0.61150
6901.05071,0.61078
6899.12196,0.60893
6897.19322,0.60719
6895.26447,0.60753
6893.33573,0.60949
6891.40698,0.61142
6889.47824,0.61375
6887.54949,0.61624
6885.62075,0.61712
6883.69200,0.61599
6881.76326,0.61384
6879.83451,0.61176
6877.90577,0.61066
6875.97702,0.61053
6874.04828,0.61091
6872.11953,0.61248
6870.19078,0.61447
6868.26204,0.61498
6866.33329,0.61437
6864.40455,0.61350
6862.47580,0.61314
6860.54706,0.61357
6858.61831,0.61316
6856.68957,0.61149
6854.76082,0.60990
6852.83208,0.60858
6850.90333,0.60820
6848.97459,0.60981
6847.04584,0.61161
6845.11710,0.61287
6843.18835,0.61540
6841.25960,0.61749
6839.33086,0.61638
6837.40211,0.61438
6835.47337,0.61438
6833.54462,0.61441
6831.61588,0.61261
6829.68713,0.61178
6827.75839,0.61286
6825.82964,0.61357
6823.90090,0.61510
6821.97215,0.61825
6820.04341,0.62025
6818.11466,0.62108
6816.18592,0.62162
6814.25717,0.61939
6812.32843,0.61445
6810.39968,0.61163
6808.47093,0.61279
6806.54219,0.61445
6804.61344,0.61519
6802.68470,0.61695
6800.75595,0.61879
6798.82721,0.61799
6796.89846,0.61574
6794.96972,0.61420
6793.04097,0.61267
6791.11223,0.61151
6789.18348,0.61213
6787.25474,0.61397
6785.32599,0.61600
6783.39725,0.61726
6781.46850,0.61638
6779.53975,0.61388
6777.61101,0.61259
6775.68226,0.61361
6773.75352,0.61489
6771.82477,0.61512
6769.89603,0.61545
6767.96728,0.61663
6766.03854,0.61662
6764.10979,0.61505
6762.18105,0.61460
6760.25230,0.61520
6758.32356,0.61557
6756.39481,0.61689
6754.46607,0.61822
6752.53732,0.61721
6750.60858,0.61601
6748.67983,0.61637
6746.75108,0.61561
6744.82234,0.61398
6742.89359,0.61360
6740.96485,0.61369
6739.03610,0.61469
6737.10736,0.61772
6735.17861,0.62051
6733.24987,0.62060
6731.32112,0.61964
6729.39238,0.61964
6727.46363,0.61947
6725.53489,0.61959
6723.60614,0.62124
6721.67740,0.62230
6719.74865,0.62131
6717.81991,0.61909
6715.89116,0.61676
6713.96241,0.61487
6712.03367,0.61380
6710.10492,0.61458
6708.17618,0.61680
6706.24743,0.61905
6704.31869,0.62150
6702.38994,0.62417
6700.46120,0.62479
6698.53245,0.62187
6696.60371,0.61904
6694.67496,0.61932
6692.74622,0.62003
6690.81747,0.61968
6688.88873,0.61949
6686.95998,0.61882
6685.03123,0.61727
6683.10249,0.61682
6681.17374,0.61835
6679.24500,0.62008
6677.31625,0.62094
6675.38751,0.62188
6673.45876,0.62321
6671.53002,0.62431
6669.60127,0.62575
6667.67253,0.62645
6665.74378,0.62418
6663.81504,0.62165
6661.88629,0.62318
6659.95755,0.62710
6658.02880,0.62864
6656.10006,0.62607
6654.17131,0.62208
6652.24256,0.62071
6650.31382,0.62247
6648.38507,0.62424
6646.45633,0.62427
6644.52758,0.62357
6642.59884,0.62279
6640.67009,0.62132
6638.74135,0.62010
6636.81260,0.62057
6634.88386,0.62145
6632.95511,0.62146
6631.02637,0.62151
6629.09762,0.62253
6627.16888,0.62377
6625.24013,0.62471
6623.31139,0.62569
6621.38264,0.62597
6619.45389,0.62534
6617.52515,0.62463
6615.59640,0.62381
6613.66766,0.62437
6611.73891,0.62681
6609.81017,0.62656
6607.88142,0.62302
6605.95268,0.62166
6604.02393,0.62305
6602.09519,0.62406
6600.16644,0.62430
6598.23770,0.62562
6596.30895,0.62956
6594.38021,0.63307
6592.45146,0.63226
6590.52271,0.62931
6588.59397,0.62709
6586.66522,0.62429
6584.73648,0.62105
6582.80773,0.62071
6580.87899,0.62372
6578.95024,0.62702
6577.02150,0.62852
6575.09275,0.62787
6573.16401,0.62666
6571.23526,0.62678
6569.30652,0.62732
6567.37777,0.62601
6565.44903,0.62327
6563.52028,0.62258
6561.59154,0.62457
6559.66279,0.62618
6557.73404,0.62620
6555.80530,0.62522
6553.87655,0.62487
6551.94781,0.62563
6550.01906,0.62521
6548.09032,0.62455
6546.16157,0.62519
6544.23283,0.62461
6542.30408,0.62337
6540.37534,0.62425
6538.44659,0.62575
6536.51785,0.62613
6534.58910,0.62689
6532.66036,0.62816
6530.73161,0.62859
6528.80287,0.62849
6526.87412,0.62885
6524.94537,0.62941
6523.01663,0.62893
6521.08788,0.62772
6519.15914,0.62712
6517.23039,0.62609
6515.30165,0.62391
6513.37290,0.62328
6511.44416,0.62526
6509.51541,0.62720
6507.58667,0.62768
6505.65792,0.62678
6503.72918,0.62491
6501.80043,0.62445
6499.87169,0.62676
6497.94294,0.62940
6496.01419,0.62929
6494.08545,0.62622
6492.15670,0.62332
6490.22796,0.62345
6488.29921,0.62567
6486.37047,0.62792
6484.44172,0.62874
6482.51298,0.62709
6480.58423,0.62526
6478.65549,0.62656
6476.72674,0.62960
6474.79800,0.63048
6472.86925,0.62974
6470.94051,0.63038
6469.01176,0.63122
6467.08302,0.63017
6465.15427,0.62806
6463.22552,0.62694
6461.29678,0.62810
6459.36803,0.63046
6457.43929,0.63172
6455.51054,0.63028
6453.58180,0.62753
6451.65305,0.62658
6449.72431,0.62719
6447.79556,0.62718
6445.86682,0.62735
6443.93807,0.62852
6442.00933,0.62857
6440.08058,0.62757
6438.15184,0.62764
6436.22309,0.62883
6434.29434,0.63011
6432.36560,0.63011
6430.43685,0.62984
6428.50811,0.63108
6426.57936,0.63188
6424.65062,0.63166
6422.72187,0.63338
6420.79313,0.63690
6418.86438,0.63725
6416.93564,0.63285
6415.00689,0.62855
6413.07815,0.62712
6411.14940,0.62763
6409.22066,0.63057
6407.29191,0.63462
6405.36317,0.63522
6403.43442,0.63177
6401.50567,0.62920
6399.57693,0.63041
6397.64818,0.63260
6395.71944,0.63291
6393.79069,0.63171
6391.86195,0.63001
6389.93320,0.62866
6388.00446,0.62879
6386.07571,0.63044
6384.14697,0.63175
6382.21822,0.63179
6380.28948,0.63138
6378.36073,0.63133
6376.43199,0.63225
6374.50324,0.63274
6372.57450,0.63100
6370.64575,0.62820
6368.71700,0.62594
6366.78826,0.62566
6364.85951,0.62791
6362.93077,0.63003
6361.00202,0.63073
6359.07328,0.63228
6357.14453,0.63480
6355.21579,0.63616
6353.28704,0.63572
6351.35830,0.63357
6349.42955,0.63080
6347.50081,0.63017
6345.57206,0.63222
6343.64332,0.63395
6341.71457,0.63359
6339.78582,0.63253
6337.85708,0.63192
6335.92833,0.63169
6333.99959,0.63208
6332.07084,0.63335
6330.14210,0.63433
6328.21335,0.63347
6326.28461,0.63153
6324.35586,0.63089
6322.42712,0.63099
6320.49837,0.62979
6318.56963,0.62875
6316.64088,0.62903
6314.71214,0.62990
6312.78339,0.63162
6310.85465,0.63407
6308.92590,0.63605
6306.99715,0.63587
6305.06841,0.63383
6303.13966,0.63301
6301.21092,0.63417
6299.28217,0.63539
6297.35343,0.63597
6295.42468,0.63609
6293.49594,0.63590
6291.56719,0.63530
6289.63845,0.63402
6287.70970,0.63343
6285.78096,0.63436
6283.85221,0.63420
6281.92347,0.63179
6279.99472,0.63052
6278.06598,0.63206
6276.13723,0.63358
6274.20848,0.63375
6272.27974,0.63353
6270.35099,0.63253
6268.42225,0.63073
6266.49350,0.63023
6264.56476,0.63172
6262.63601,0.63247
6260.70727,0.63184
6258.77852,0.63211
6256.84978,0.63319
6254.92103,0.63407
6252.99229,0.63427
6251.06354,0.63360
6249.13480,0.63340
6247.20605,0.63425
6245.27730,0.63503
6243.34856,0.63476
6241.41981,0.63368
6239.49107,0.63238
6237.56232,0.63124
6235.63358,0.63105
6233.70483,0.63234
6231.77609,0.63513
6229.84734,0.63825
6227.91860,0.63952
6225.98985,0.63823
6224.06111,0.63556
6222.13236,0.63340
6220.20362,0.63324
6218.27487,0.63413
6216.34613,0.63471
6214.41738,0.63597
6212.48863,0.63741
6210.55989,0.63732
6208.63114,0.63628
6206.70240,0.63517
6204.77365,0.63452
6202.84491,0.63490
6200.91616,0.63597
6198.98742,0.63642
6197.05867,0.63587
6195.12993,0.63568
6193.20118,0.63610
6191.27244,0.63669
6189.34369,0.63730
6187.41495,0.63669
6185.48620,0.63536
6183.55746,0.63537
6181.62871,0.63607
6179.69996,0.63669
6177.77122,0.63834
6175.84247,0.63978
6173.91373,0.63961
6171.98498,0.63985
6170.05624,0.64020
6168.12749,0.63809
6166.19875,0.63582
6164.27000,0.63654
6162.34126,0.63805
6160.41251,0.63725
6158.48377,0.63496
6156.55502,0.63414
6154.62628,0.63551
6152.69753,0.63650
6150.76878,0.63502
6148.84004,0.63298
6146.91129,0.63351
6144.98255,0.63572
6143.05380,0.63668
6141.12506,0.63571
6139.19631,0.63480
6137.26757,0.63589
6135.33882,0.63770
6133.41008,0.63821
6131.48133,0.63784
6129.55259,0.63843
6127.62384,0.63972
6125.69510,0.63894
6123.76635,0.63668
6121.83761,0.63649
6119.90886,0.63831
6117.98011,0.63951
6116.05137,0.63911
6114.12262,0.63718
6112.19388,0.63482
6110.26513,0.63485
6108.33639,0.63762
6106.40764,0.64007
6104.47890,0.64094
6102.55015,0.64088
6100.62141,0.64023
6098.69266,0.63920
6096.76392,0.63882
6094.83517,0.63978
6092.90643,0.64050
6090.97768,0.63990
6089.04893,0.63937
6087.12019,0.63992
6085.19144,0.64096
6083.26270,0.64147
6081.33395,0.64168
6079.40521,0.64260
6077.47646,0.64298
6075.54772,0.64163
6073.61897,0.63951
6071.69023,0.63789
6069.76148,0.63779
6067.83274,0.63848
6065.90399,0.63931
6063.97525,0.64062
6062.04650,0.64052
6060.11776,0.63905
6058.18901,0.63892
6056.26026,0.63976
6054.33152,0.64010
6052.40277,0.64037
6050.47403,0.64055
6048.54528,0.63950
6046.61654,0.63809
6044.68779,0.63797
6042.75905,0.63835
6040.83030,0.63869
6038.90156,0.64001
6036.97281,0.64192
6035.04407,0.64300
6033.11532,0.64332
6031.18658,0.64327
6029.25783,0.64235
6027.32909,0.64130
6025.40034,0.64119
6023.47159,0.64187
6021.54285,0.64199
6019.61410,0.64039
6017.68536,0.63873
6015.75661,0.63831
6013.82787,0.63768
6011.89912,0.63726
6009.97038,0.63897
6008.04163,0.64165
6006.11289,0.64255
6004.18414,0.64158
6002.25540,0.64029
6000.32665,0.63889
5998.39791,0.63789
5996.46916,0.63801
5994.54041,0.63875
5992.61167,0.63921
5990.68292,0.63893
5988.75418,0.63914
5986.82543,0.64097
5984.89669,0.64267
5982.96794,0.64273
5981.03920,0.64248
5979.11045,0.64269
5977.18171,0.64277
5975.25296,0.64308
5973.32422,0.64380
5971.39547,0.64425
5969.46673,0.64414
5967.53798,0.64397
5965.60924,0.64435
5963.68049,0.64497
5961.75174,0.64541
5959.82300,0.64563
5957.89425,0.64541
5955.96551,0.64439
5954.03676,0.64288
5952.10802,0.64201
5950.17927,0.64230
5948.25053,0.64292
5946.32178,0.64278
5944.39304,0.64222
5942.46429,0.64221
5940.53555,0.64287
5938.60680,0.64341
5936.67806,0.64316
5934.74931,0.64349
5932.82057,0.64528
5930.89182,0.64658
5928.96307,0.64662
5927.03433,0.64585
5925.10558,0.64405
5923.17684,0.64229
5921.24809,0.64200
5919.31935,0.64281
5917.39060,0.64393
5915.46186,0.64476
5913.53311,0.64511
5911.60437,0.64572
5909.67562,0.64635
5907.74688,0.64569
5905.81813,0.64407
5903.88939,0.64359
5901.96064,0.64486
5900.03189,0.64572
5898.10315,0.64520
5896.17440,0.64486
5894.24566,0.64562
5892.31691,0.64677
5890.38817,0.64681
5888.45942,0.64545
5886.53068,0.64413
5884.60193,0.64357
5882.67319,0.64294
5880.74444,0.64193
5878.81570,0.64186
5876.88695,0.64335
5874.95821,0.64489
5873.02946,0.64533
5871.10072,0.64504
5869.17197,0.64438
5867.24322,0.64332
5865.31448,0.64208
5863.38573,0.64132
5861.45699,0.64140
5859.52824,0.64221
5857.59950,0.64344
5855.67075,0.64426
5853.74201,0.64395
5851.81326,0.64339
5849.88452,0.64378
5847.95577,0.64508
5846.02703,0.64647
5844.09828,0.64717
5842.16954,0.64700
5840.24079,0.64664
5838.31205,0.64688
5836.38330,0.64696
5834.45455,0.64566
5832.52581,0.64389
5830.59706,0.64321
5828.66832,0.64356
5826.73957,0.64372
5824.81083,0.64337
5822.88208,0.64319
5820.95334,0.64292
5819.02459,0.64225
5817.09585,0.64197
5815.16710,0.64283
5813.23836,0.64418
5811.30961,0.64489
5809.38087,0.64514
5807.45212,0.64509
5805.52337,0.64499
5803.59463,0.64613
5801.66588,0.64814
5799.73714,0.64871
5797.80839,0.64709
5795.87965,0.64525
5793.95090,0.64501
5792.02216,0.64609
5790.09341,0.64718
5788.16467,0.64748
5786.23592,0.64741
5784.30718,0.64724
5782.37843,0.64679
5780.44969,0.64681
5778.52094,0.64746
5776.59220,0.64734
5774.66345,0.64635
5772.73470,0.64610
5770.80596,0.64697
5768.87721,0.64818
5766.94847,0.64884
5765.01972,0.64839
5763.09098,0.64785
5761.16223,0.64792
5759.23349,0.64796
5757.30474,0.64759
5755.37600,0.64680
5753.44725,0.64654
5751.51851,0.64729
5749.58976,0.64793
5747.66102,0.64823
5745.73227,0.64823
5743.80352,0.64748
5741.87478,0.64660
5739.94603,0.64650
5738.01729,0.64700
5736.08854,0.64731
5734.15980,0.64688
5732.23105,0.64626
5730.30231,0.64649
5728.37356,0.64751
5726.44482,0.64835
5724.51607,0.64849
5722.58733,0.64824
5720.65858,0.64848
5718.72984,0.65002
5716.80109,0.65196
5714.87235,0.65228
5712.94360,0.65106
5711.01485,0.64964
5709.08611,0.64912
5707.15736,0.65065
5705.22862,0.65306
5703.29987,0.65342
5701.37113,0.65196
5699.44238,0.65084
5697.51364,0.65010
5695.58489,0.64964
5693.65615,0.65036
5691.72740,0.65092
5689.79866,0.64983
5687.86991,0.64853
5685.94117,0.64851
5684.01242,0.64916
5682.08368,0.64933
5680.15493,0.64962
5678.22618,0.65042
5676.29744,0.65054
5674.36869,0.64993
5672.43995,0.64922
5670.51120,0.64909
5668.58246,0.64989
5666.65371,0.65026
5664.72497,0.64965
5662.79622,0.64911
5660.86748,0.64902
5658.93873,0.64912
5657.00999,0.64940
5655.08124,0.64964
5653.15250,0.64934
5651.22375,0.64878
5649.29500,0.64837
5647.36626,0.64812
5645.43751,0.64852
5643.50877,0.64948
5641.58002,0.65052
5639.65128,0.65201
5637.72253,0.65313
5635.79379,0.65263
5633.86504,0.65180
5631.93630,0.65181
5630.00755,0.65161
5628.07881,0.65123
5626.15006,0.65177
5624.22132,0.65269
5622.29257,0.65272
5620.36383,0.65248
5618.43508,0.65285
5616.50633,0.65340
5614.57759,0.65379
5612.64884,0.65375
5610.72010,0.65312
5608.79135,0.65237
5606.86261,0.65169
5604.93386,0.65130
5603.00512,0.65159
5601.07637,0.65213
5599.14763,0.65247
5597.21888,0.65242
5595.29014,0.65172
5593.36139,0.65124
5591.43265,0.65200
5589.50390,0.65301
5587.57516,0.65284
5585.64641,0.65208
5583.71766,0.65227
5581.78892,0.65298
5579.86017,0.65299
5577.93143,0.65284
5576.00268,0.65295
5574.07394,0.65262
5572.14519,0.65238
5570.21645,0.65316
5568.28770,0.65401
5566.35896,0.65370
5564.43021,0.65293
5562.50147,0.65291
5560.57272,0.65332
5558.64398,0.65360
5556.71523,0.65387
5554.78648,0.65371
5552.85774,0.65280
5550.92899,0.65253
5549.00025,0.65374
5547.07150,0.65498
5545.14276,0.65524
5543.21401,0.65559
5541.28527,0.65652
5539.35652,0.65683
5537.42778,0.65601
5535.49903,0.65550
5533.57029,0.65584
5531.64154,0.65577
5529.71280,0.65464
5527.78405,0.65334
5525.85531,0.65330
5523.92656,0.65421
5521.99781,0.65472
5520.06907,0.65473
5518.14032,0.65447
5516.21158,0.65445
5514.28283,0.65529
5512.35409,0.65612
5510.42534,0.65638
5508.49660,0.65631
5506.56785,0.65583
5504.63911,0.65558
5502.71036,0.65625
5500.78162,0.65701
5498.85287,0.65712
5496.92413,0.65698
5494.99538,0.65660
5493.06664,0.65596
5491.13789,0.65573
5489.20914,0.65579
5487.28040,0.65524
5485.35165,0.65496
5483.42291,0.65609
5481.49416,0.65705
5479.56542,0.65651
5477.63667,0.65561
5475.70793,0.65535
5473.77918,0.65564
5471.85044,0.65610
5469.92169,0.65635
5467.99295,0.65605
5466.06420,0.65583
5464.13546,0.65679
5462.20671,0.65801
5460.27796,0.65803
5458.34922,0.65751
5456.42047,0.65743
5454.49173,0.65761
5452.56298,0.65767
5450.63424,0.65754
5448.70549,0.65741
5446.77675,0.65733
5444.84800,0.65737
5442.91926,0.65794
5440.99051,0.65862
5439.06177,0.65868
5437.13302,0.65857
5435.20428,0.65810
5433.27553,0.65697
5431.34679,0.65607
5429.41804,0.65563
5427.48929,0.65565
5425.56055,0.65614
5423.63180,0.65642
5421.70306,0.65667
5419.77431,0.65786
5417.84557,0.65909
5415.91682,0.65858
5413.98808,0.65707
5412.05933,0.65654
5410.13059,0.65738
5408.20184,0.65842
5406.27310,0.65876
5404.34435,0.65942
5402.41561,0.66074
5400.48686,0.66125
5398.55811,0.66095
5396.62937,0.66053
5394.70062,0.65967
5392.77188,0.65842
5390.84313,0.65768
5388.91439,0.65774
5386.98564,0.65808
5385.05690,0.65821
5383.12815,0.65818
5381.19941,0.65860
5379.27066,0.65921
5377.34192,0.65939
5375.41317,0.65980
5373.48443,0.66041
5371.55568,0.66036
5369.62694,0.65993
5367.69819,0.65975
5365.76944,0.65978
5363.84070,0.65968
5361.91195,0.65958
5359.98321,0.65982
5358.05446,0.66011
5356.12572,0.65985
5354.19697,0.65867
5352.26823,0.65744
5350.33948,0.65789
5348.41074,0.65962
5346.48199,0.66066
5344.55325,0.66065
5342.62450,0.66042
5340.69576,0.66009
5338.76701,0.65933
5336.83827,0.65872
5334.90952,0.65913
5332.98077,0.66015
5331.05203,0.66069
5329.12328,0.66038
5327.19454,0.65946
5325.26579,0.65870
5323.33705,0.65894
5321.40830,0.65973
5319.47956,0.65973
5317.55081,0.65880
5315.62207,0.65820
5313.69332,0.65852
5311.76458,0.65910
5309.83583,0.65942
5307.90709,0.65950
5305.97834,0.65949
5304.04959,0.65952
5302.12085,0.65983
5300.19210,0.66035
5298.26336,0.66017
5296.33461,0.65938
5294.40587,0.65935
5292.47712,0.65958
5290.54838,0.65896
5288.61963,0.65853
5286.69089,0.65878
5284.76214,0.65863
5282.83340,0.65793
5280.90465,0.65713
5278.97591,0.65642
5277.04716,0.65633
5275.11842,0.65716
5273.18967,0.65838
5271.26092,0.65910
5269.33218,0.65859
5267.40343,0.65757
5265.47469,0.65740
5263.54594,0.65730
5261.61720,0.65620
5259.68845,0.65539
5257.75971,0.65577
5255.83096,0.65624
5253.90222,0.65621
5251.97347,0.65623
5250.04473,0.65600
5248.11598,0.65525
5246.18724,0.65475
5244.25849,0.65456
5242.32975,0.65411
5240.40100,0.65344
5238.47225,0.65306
5236.54351,0.65323
5234.61476,0.65340
5232.68602,0.65319
5230.75727,0.65313
5228.82853,0.65322
5226.89978,0.65252
5224.97104,0.65106
5223.04229,0.65040
5221.11355,0.65109
5219.18480,0.65173
5217.25606,0.65172
5215.32731,0.65198
5213.39857,0.65250
5211.46982,0.65252
5209.54107,0.65178
5207.61233,0.65078
5205.68358,0.65048
5203.75484,0.65095
5201.82609,0.65137
5199.89735,0.65126
5197.96860,0.65090
5196.03986,0.65102
5194.11111,0.65163
5192.18237,0.65193
5190.25362,0.65157
5188.32488,0.65079
5186.39613,0.65037
5184.46739,0.65071
5182.53864,0.65126
5180.60990,0.65152
5178.68115,0.65167
5176.75240,0.65199
5174.82366,0.65240
5172.89491,0.65241
5170.96617,0.65196
5169.03742,0.65139
5167.10868,0.65111
5165.17993,0.65139
5163.25119,0.65160
5161.32244,0.65139
5159.39370,0.65194
5157.46495,0.65341
5155.53621,0.65423
5153.60746,0.65401
5151.67872,0.65348
5149.74997,0.65265
5147.82123,0.65216
5145.89248,0.65295
5143.96373,0.65371
5142.03499,0.65308
5140.10624,0.65232
5138.17750,0.65239
5136.24875,0.65225
5134.32001,0.65157
5132.39126,0.65125
5130.46252,0.65143
5128.53377,0.65173
5126.60503,0.65231
5124.67628,0.65317
5122.74754,0.65356
5120.81879,0.65306
5118.89005,0.65266
5116.96130,0.65316
5115.03255,0.65365
5113.10381,0.65354
5111.17506,0.65370
5109.24632,0.65420
5107.31757,0.65431
5105.38883,0.65405
5103.46008,0.65396
5101.53134,0.65401
5099.60259,0.65400
5097.67385,0.65420
5095.74510,0.65468
5093.81636,0.65503
5091.88761,0.65483
5089.95887,0.65415
5088.03012,0.65372
5086.10138,0.65410
5084.17263,0.65515
5082.24388,0.65611
5080.31514,0.65589
5078.38639,0.65496
5076.45765,0.65512
5074.52890,0.65630
5072.60016,0.65669
5070.67141,0.65594
5068.74267,0.65533
5066.81392,0.65560
5064.88518,0.65641
5062.95643,0.65724
5061.02769,0.65793
5059.09894,0.65826
5057.17020,0.65766
5055.24145,0.65644
5053.31270,0.65608
5051.38396,0.65673
5049.45521,0.65708
5047.52647,0.65705
5045.59772,0.65739
5043.66898,0.65806
5041.74023,0.65876
5039.81149,0.65910
5037.88274,0.65883
5035.95400,0.65884
5034.02525,0.65954
5032.09651,0.66012
5030.16776,0.66006
5028.23902,0.65925
5026.31027,0.65823
5024.38153,0.65798
5022.45278,0.65834
5020.52403,0.65876
5018.59529,0.65945
5016.66654,0.66005
5014.73780,0.65960
5012.80905,0.65876
5010.88031,0.65898
5008.95156,0.65991
5007.02282,0.66043
5005.09407,0.66069
5003.16533,0.66109
5001.23658,0.66113
4999.30784,0.66078
4997.37909,0.66091
4995.45035,0.66144
4993.52160,0.66168
4991.59286,0.66183
4989.66411,0.66221
4987.73536,0.66221
4985.80662,0.66151
4983.87787,0.66074
4981.94913,0.66068
4980.02038,0.66112
4978.09164,0.66131
4976.16289,0.66124
4974.23415,0.66120
4972.30540,0.66100
4970.37666,0.66067
4968.44791,0.66071
4966.51917,0.66132
4964.59042,0.66199
4962.66168,0.66238
4960.73293,0.66271
4958.80418,0.66293
4956.87544,0.66304
4954.94669,0.66319
4953.01795,0.66340
4951.08920,0.66335
4949.16046,0.66296
4947.23171,0.66285
4945.30297,0.66321
4943.37422,0.66347
4941.44548,0.66350
4939.51673,0.66358
4937.58799,0.66370
4935.65924,0.66388
4933.73050,0.66442
4931.80175,0.66517
4929.87301,0.66560
4927.94426,0.66562
4926.01551,0.66534
4924.08677,0.66503
4922.15802,0.66486
4920.22928,0.66459
4918.30053,0.66453
4916.37179,0.66485
4914.44304,0.66492
4912.51430,0.66481
4910.58555,0.66507
4908.65681,0.66531
4906.72806,0.66489
4904.79932,0.66413
4902.87057,0.66373
4900.94183,0.66375
4899.01308,0.66402
4897.08434,0.66491
4895.15559,0.66639
4893.22684,0.66730
4891.29810,0.66698
4889.36935,0.66636
4887.44061,0.66624
4885.51186,0.66617
4883.58312,0.66591
4881.65437,0.66600
4879.72563,0.66647
4877.79688,0.66694
4875.86814,0.66702
4873.93939,0.66654
4872.01065,0.66595
4870.08190,0.66578
4868.15316,0.66577
4866.22441,0.66576
4864.29566,0.66620
4862.36692,0.66697
4860.43817,0.66739
4858.50943,0.66740
4856.58068,0.66719
4854.65194,0.66681
4852.72319,0.66672
4850.79445,0.66710
4848.86570,0.66724
4846.93696,0.66700
4845.00821,0.66684
4843.07947,0.66677
4841.15072,0.66691
4839.22198,0.66726
4837.29323,0.66732
4835.36449,0.66733
4833.43574,0.66782
4831.50699,0.66842
4829.57825,0.66854
4827.64950,0.66827
4825.72076,0.66812
4823.79201,0.66849
4821.86327,0.66909
4819.93452,0.66951
4818.00578,0.66956
4816.07703,0.66898
4814.14829,0.66794
4812.21954,0.66735
4810.29080,0.66748
4808.36205,0.66759
4806.43331,0.66761
4804.50456,0.66807
4802.57582,0.66854
4800.64707,0.66858
4798.71832,0.66857
4796.78958,0.66864
4794.86083,0.66867
4792.93209,0.66901
4791.00334,0.66950
4789.07460,0.66923
4787.14585,0.66835
4785.21711,0.66813
4783.28836,0.66861
4781.35962,0.66875
4779.43087,0.66854
4777.50213,0.66855
4775.57338,0.66862
4773.64464,0.66868
4771.71589,0.66885
4769.78714,0.66886
4767.85840,0.66852
4765.92965,0.66823
4764.00091,0.66824
4762.07216,0.66830
4760.14342,0.66854
4758.21467,0.66905
4756.28593,0.66955
4754.35718,0.66993
4752.42844,0.67001
4750.49969,0.66966
4748.57095,0.66939
4746.64220,0.66959
4744.71346,0.66977
4742.78471,0.66981
4740.85597,0.66999
4738.92722,0.67003
4736.99847,0.66981
4735.06973,0.66966
4733.14098,0.66967
4731.21224,0.66971
4729.28349,0.66977
4727.35475,0.66989
4725.42600,0.66996
4723.49726,0.66991
4721.56851,0.66974
4719.63977,0.66938
4717.71102,0.66913
4715.78228,0.66946
4713.85353,0.66996
4711.92479,0.66988
4709.99604,0.66937
4708.06729,0.66914
4706.13855,0.66918
4704.20980,0.66899
4702.28106,0.66851
4700.35231,0.66813
4698.42357,0.66810
4696.49482,0.66818
4694.56608,0.66813
4692.63733,0.66823
4690.70859,0.66837
4688.77984,0.66808
4686.85110,0.66778
4684.92235,0.66779
4682.99361,0.66764
4681.06486,0.66732
4679.13612,0.66730
4677.20737,0.66750
4675.27862,0.66755
4673.34988,0.66767
4671.42113,0.66795
4669.49239,0.66792
4667.56364,0.66766
4665.63490,0.66750
4663.70615,0.66725
4661.77741,0.66667
4659.84866,0.66603
4657.91992,0.66572
4655.99117,0.66570
4654.06243,0.66583
4652.13368,0.66601
4650.20494,0.66614
4648.27619,0.66639
4646.34745,0.66649
4644.41870,0.66580
4642.48995,0.66488
4640.56121,0.66456
4638.63246,0.66466
4636.70372,0.66477
4634.77497,0.66473
4632.84623,0.66463
4630.91748,0.66466
4628.98874,0.66472
4627.05999,0.66447
4625.13125,0.66385
4623.20250,0.66329
4621.27376,0.66327
4619.34501,0.66353
4617.41627,0.66360
4615.48752,0.66375
4613.55877,0.66430
4611.63003,0.66483
4609.70128,0.66472
4607.77254,0.66385
4605.84379,0.66286
4603.91505,0.66237
4601.98630,0.66234
4600.05756,0.66263
4598.12881,0.66320
4596.20007,0.66370
4594.27132,0.66372
4592.34258,0.66348
4590.41383,0.66339
4588.48509,0.66351
4586.55634,0.66361
4584.62760,0.66326
4582.69885,0.66265
4580.77010,0.66231
4578.84136,0.66212
4576.91261,0.66200
4574.98387,0.66206
4573.05512,0.66203
4571.12638,0.66190
4569.19763,0.66215
4567.26889,0.66272
4565.34014,0.66284
4563.41140,0.66237
4561.48265,0.66206
4559.55391,0.66226
4557.62516,0.66226
4555.69642,0.66181
4553.76767,0.66174
4551.83893,0.66234
4549.91018,0.66259
4547.98143,0.66209
4546.05269,0.66186
4544.12394,0.66229
4542.19520,0.66289
4540.26645,0.66337
4538.33771,0.66336
4536.40896,0.66274
4534.48022,0.66206
4532.55147,0.66210
4530.62273,0.66292
4528.69398,0.66337
4526.76524,0.66294
4524.83649,0.66253
4522.90775,0.66258
4520.97900,0.66295
4519.05025,0.66322
4517.12151,0.66300
4515.19276,0.66252
4513.26402,0.66231
4511.33527,0.66252
4509.40653,0.66287
4507.47778,0.66291
4505.54904,0.66253
4503.62029,0.66225
4501.69155,0.66256
4499.76280,0.66309
4497.83406,0.66316
4495.90531,0.66266
4493.97657,0.66206
4492.04782,0.66189
4490.11908,0.66207
4488.19033,0.66221
4486.26158,0.66251
4484.33284,0.66324
4482.40409,0.66408
4480.47535,0.66447
4478.54660,0.66423
4476.61786,0.66389
4474.68911,0.66382
4472.76037,0.66391
4470.83162,0.66387
4468.90288,0.66366
4466.97413,0.66356
4465.04539,0.66349
4463.11664,0.66351
4461.18790,0.66403
4459.25915,0.66477
4457.33041,0.66504
4455.40166,0.66483
4453.47291,0.66440
4451.54417,0.66400
4449.61542,0.66385
4447.68668,0.66386
4445.75793,0.66388
4443.82919,0.66386
4441.90044,0.66368
4439.97170,0.66357
4438.04295,0.66393
4436.11421,0.66442
4434.18546,0.66439
4432.25672,0.66412
4430.32797,0.66416
4428.39923,0.66433
4426.47048,0.66428
4424.54173,0.66413
4422.61299,0.66399
4420.68424,0.66385
4418.75550,0.66377
4416.82675,0.66382
4414.89801,0.66396
4412.96926,0.66400
4411.04052,0.66402
4409.11177,0.66435
4407.18303,0.66462
4405.25428,0.66428
4403.32554,0.66372
4401.39679,0.66378
4399.46805,0.66440
4397.53930,0.66488
4395.61056,0.66488
4393.68181,0.66450
4391.75306,0.66398
4389.82432,0.66345
4387.89557,0.66316
4385.96683,0.66332
4384.03808,0.66348
4382.10934,0.66319
4380.18059,0.66267
4378.25185,0.66229
4376.32310,0.66215
4374.39436,0.66222
4372.46561,0.66234
4370.53687,0.66238
4368.60812,0.66259
4366.67938,0.66280
4364.75063,0.66239
4362.82189,0.66184
4360.89314,0.66193
4358.96439,0.66225
4357.03565,0.66213
4355.10690,0.66163
4353.17816,0.66113
4351.24941,0.66084
4349.32067,0.66073
4347.39192,0.66065
4345.46318,0.66041
4343.53443,0.66002
4341.60569,0.65987
4339.67694,0.66017
4337.74820,0.66053
4335.81945,0.66067
4333.89071,0.66057
4331.96196,0.66015
4330.03321,0.65969
4328.10447,0.65940
4326.17572,0.65904
4324.24698,0.65862
4322.31823,0.65834
4320.38949,0.65843
4318.46074,0.65907
4316.53200,0.65991
4314.60325,0.66027
4312.67451,0.66039
4310.74576,0.66083
4308.81702,0.66096
4306.88827,0.66036
4304.95953,0.65992
4303.03078,0.65993
4301.10204,0.65989
4299.17329,0.65976
4297.24454,0.65958
4295.31580,0.65950
4293.38705,0.65977
4291.45831,0.65982
4289.52956,0.65946
4287.60082,0.65927
4285.67207,0.65901
4283.74333,0.65863
4281.81458,0.65872
4279.88584,0.65896
4277.95709,0.65879
4276.02835,0.65865
4274.09960,0.65882
4272.17086,0.65887
4270.24211,0.65882
4268.31336,0.65901
4266.38462,0.65910
4264.45587,0.65892
4262.52713,0.65873
4260.59838,0.65848
4258.66964,0.65826
4256.74089,0.65830
4254.81215,0.65846
4252.88340,0.65848
4250.95466,0.65831
4249.02591,0.65806
4247.09717,0.65789
4245.16842,0.65785
4243.23968,0.65800
4241.31093,0.65832
4239.38219,0.65847
4237.45344,0.65828
4235.52469,0.65809
4233.59595,0.65796
4231.66720,0.65776
4229.73846,0.65763
4227.80971,0.65741
4225.88097,0.65702
4223.95222,0.65678
4222.02348,0.65692
4220.09473,0.65727
4218.16599,0.65750
4216.23724,0.65735
4214.30850,0.65691
4212.37975,0.65651
4210.45101,0.65629
4208.52226,0.65603
4206.59352,0.65586
4204.66477,0.65609
4202.73602,0.65648
4200.80728,0.65667
4198.87853,0.65666
4196.94979,0.65661
4195.02104,0.65665
4193.09230,0.65659
4191.16355,0.65618
4189.23481,0.65580
4187.30606,0.65583
4185.37732,0.65598
4183.44857,0.65591
4181.51983,0.65584
4179.59108,0.65599
4177.66234,0.65611
4175.73359,0.65576
4173.80484,0.65516
4171.87610,0.65498
4169.94735,0.65533
4168.01861,0.65572
4166.08986,0.65576
4164.16112,0.65547
4162.23237,0.65515
4160.30363,0.65492
4158.37488,0.65482
4156.44614,0.65491
4154.51739,0.65496
4152.58865,0.65489
4150.65990,0.65486
4148.73116,0.65480
4146.80241,0.65449
4144.87367,0.65410
4142.94492,0.65399
4141.01617,0.65406
4139.08743,0.65394
4137.15868,0.65367
4135.22994,0.65351
4133.30119,0.65347
4131.37245,0.65341
4129.44370,0.65319
4127.51496,0.65304
4125.58621,0.65318
4123.65747,0.65340
4121.72872,0.65351
4119.79998,0.65330
4117.87123,0.65285
4115.94249,0.65271
4114.01374,0.65287
4112.08500,0.65274
4110.15625,0.65235
4108.22750,0.65197
4106.29876,0.65165
4104.37001,0.65156
4102.44127,0.65132
4100.51252,0.65062
4098.58378,0.65018
4096.65503,0.65031
4094.72629,0.65054
4092.79754,0.65073
4090.86880,0.65076
4088.94005,0.65049
4087.01131,0.65034
4085.08256,0.65028
4083.15382,0.64974
4081.22507,0.64904
4079.29632,0.64874
4077.36758,0.64863
4075.43883,0.64847
4073.51009,0.64832
4071.58134,0.64807
4069.65260,0.64768
4067.72385,0.64733
4065.79511,0.64710
4063.86636,0.64721
4061.93762,0.64758
4060.00887,0.64769
4058.08013,0.64738
4056.15138,0.64693
4054.22264,0.64675
4052.29389,0.64677
4050.36515,0.64653
4048.43640,0.64603
4046.50765,0.64576
4044.57891,0.64572
4042.65016,0.64554
4040.72142,0.64536
4038.79267,0.64554
4036.86393,0.64578
4034.93518,0.64566
4033.00644,0.64533
4031.07769,0.64503
4029.14895,0.64485
4027.22020,0.64493
4025.29146,0.64519
4023.36271,0.64527
4021.43397,0.64494
4019.50522,0.64434
4017.57648,0.64375
4015.64773,0.64353
4013.71898,0.64373
4011.79024,0.64393
4009.86149,0.64394
4007.93275,0.64386
4006.00400,0.64349
4004.07526,0.64285
4002.14651,0.64259
4000.21777,0.64281
3998.28902,0.64299
3996.36028,0.64304
3994.43153,0.64301
3992.50279,0.64277
3990.57404,0.64251
3988.64530,0.64253
3986.71655,0.64272
3984.78780,0.64266
3982.85906,0.64243
3980.93031,0.64243
3979.00157,0.64249
3977.07282,0.64245
3975.14408,0.64249
3973.21533,0.64257
3971.28659,0.64249
3969.35784,0.64231
3967.42910,0.64211
3965.50035,0.64186
3963.57161,0.64159
3961.64286,0.64126
3959.71412,0.64084
3957.78537,0.64051
3955.85663,0.64044
3953.92788,0.64048
3951.99913,0.64056
3950.07039,0.64084
3948.14164,0.64096
3946.21290,0.64068
3944.28415,0.64034
3942.35541,0.64019
3940.42666,0.64014
3938.49792,0.63991
3936.56917,0.63955
3934.64043,0.63957
3932.71168,0.63994
3930.78294,0.64008
3928.85419,0.63986
3926.92545,0.63952
3924.99670,0.63905
3923.06795,0.63858
3921.13921,0.63854
3919.21046,0.63875
3917.28172,0.63886
3915.35297,0.63905
3913.42423,0.63928
3911.49548,0.63922
3909.56674,0.63930
3907.63799,0.63973
3905.70925,0.63973
3903.78050,0.63914
3901.85176,0.63869
3899.92301,0.63848
3897.99427,0.63835
3896.06552,0.63851
3894.13678,0.63881
3892.20803,0.63880
3890.27928,0.63853
3888.35054,0.63840
3886.42179,0.63820
3884.49305,0.63778
3882.56430,0.63752
3880.63556,0.63736
3878.70681,0.63731
3876.77807,0.63771
3874.84932,0.63818
3872.92058,0.63821
3870.99183,0.63789
3869.06309,0.63754
3867.13434,0.63740
3865.20560,0.63730
3863.27685,0.63715
3861.34811,0.63699
3859.41936,0.63694
3857.49061,0.63705
3855.56187,0.63678
3853.63312,0.63548
3851.70438,0.63471
3849.77563,0.63549
3847.84689,0.63631
3845.91814,0.63620
3843.98940,0.63538
3842.06065,0.63470
3840.13191,0.63450
3838.20316,0.63444
3836.27442,0.63434
3834.34567,0.63411
3832.41693,0.63362
3830.48818,0.63326
3828.55943,0.63323
3826.63069,0.63327
3824.70194,0.63328
3822.77320,0.63286
3820.84445,0.63192
3818.91571,0.63140
3816.98696,0.63109
3815.05822,0.63047
3813.12947,0.63014
3811.20073,0.63024
3809.27198,0.63004
3807.34324,0.62918
3805.41449,0.62844
3803.48575,0.62808
3801.55700,0.62727
3799.62826,0.62632
3797.69951,0.62583
3795.77076,0.62543
3793.84202,0.62491
3791.91327,0.62423
3789.98453,0.62346
3788.05578,0.62292
3786.12704,0.62250
3784.19829,0.62187
3782.26955,0.62087
3780.34080,0.61948
3778.41206,0.61819
3776.48331,0.61744
3774.55457,0.61667
3772.62582,0.61519
3770.69708,0.61335
3768.76833,0.61200
3766.83959,0.61109
3764.91084,0.60989
3762.98209,0.60844
3761.05335,0.60701
3759.12460,0.60515
3757.19586,0.60300
3755.26711,0.60103
3753.33837,0.59884
3751.40962,0.59581
3749.48088,0.59272
3747.55213,0.59067
3745.62339,0.58812
3743.69464,0.58403
3741.76590,0.58067
3739.83715,0.57844
3737.90841,0.57536
3735.97966,0.57068
3734.05091,0.56533
3732.12217,0.55998
3730.19342,0.55506
3728.26468,0.55017
3726.33593,0.54423
3724.40719,0.53732
3722.47844,0.52980
3720.54970,0.52153
3718.62095,0.51290
3716.69221,0.50443
3714.76346,0.49578
3712.83472,0.48564
3710.90597,0.47374
3708.97723,0.46192
3707.04848,0.45093
3705.11974,0.44001
3703.19099,0.42817
3701.26224,0.41535
3699.33350,0.40290
3697.40475,0.39111
3695.47601,0.37941
3693.54726,0.36784
3691.61852,0.35619
3689.68977,0.34352
3687.76103,0.32992
3685.83228,0.31732
3683.90354,0.30610
3681.97479,0.29514
3680.04605,0.28422
3678.11730,0.27308
3676.18856,0.26000
3674.25981,0.24635
3672.33107,0.23523
3670.40232,0.22449
3668.47357,0.21300
3666.54483,0.20268
3664.61608,0.19313
3662.68734,0.18352
3660.75859,0.17433
3658.82985,0.16594
3656.90110,0.15764
3654.97236,0.14929
3653.04361,0.14184
3651.11487,0.13466
3649.18612,0.12703
3647.25738,0.12038
3645.32863,0.11529
3643.39989,0.11088
3641.47114,0.10634
3639.54239,0.10168
3637.61365,0.09745
3635.68490,0.09377
3633.75616,0.09048
3631.82741,0.08750
3629.89867,0.08439
3627.96992,0.08115
3626.04118,0.07869
3624.11243,0.07682
3622.18369,0.07515
3620.25494,0.07371
3618.32620,0.07215
3616.39745,0.07048
3614.46871,0.06912
3612.53996,0.06794
3610.61122,0.06647
3608.68247,0.06509
3606.75372,0.06436
3604.82498,0.06392
3602.89623,0.06322
3600.96749,0.06212
3599.03874,0.06102
3597.11000,0.06043
3595.18125,0.06010
3593.25251,0.05941
3591.32376,0.05840
3589.39502,0.05758
3587.46627,0.05701
3585.53753,0.05667
3583.60878,0.05655
3581.68004,0.05646
3579.75129,0.05619
3577.82254,0.05584
3575.89380,0.05556
3573.96505,0.05535
3572.03631,0.05517
3570.10756,0.05502
3568.17882,0.05495
3566.25007,0.05487
3564.32133,0.05444
3562.39258,0.05362
3560.46384,0.05297
3558.53509,0.05286
3556.60635,0.05289
3554.67760,0.05283
3552.74886,0.05275
3550.82011,0.05256
3548.89137,0.05232
3546.96262,0.05204
3545.03387,0.05163
3543.10513,0.05126
3541.17638,0.05123
3539.24764,0.05145
3537.31889,0.05147
3535.39015,0.05131
3533.46140,0.05136
3531.53266,0.05173
3529.60391,0.05202
3527.67517,0.05179
3525.74642,0.05126
3523.81768,0.05089
3521.88893,0.05076
3519.96019,0.05080
3518.03144,0.05073
3516.10270,0.05039
3514.17395,0.05022
3512.24520,0.05044
3510.31646,0.05052
3508.38771,0.05019
3506.45897,0.04994
3504.53022,0.05011
3502.60148,0.05032
3500.67273,0.05029
3498.74399,0.05026
3496.81524,0.05025
3494.88650,0.05024
3492.95775,0.05034
3491.02901,0.05035
3489.10026,0.05002
3487.17152,0.04962
3485.24277,0.04960
3483.31402,0.04985
3481.38528,0.05004
3479.45653,0.05028
3477.52779,0.05037
3475.59904,0.05011
3473.67030,0.04990
3471.74155,0.04992
3469.81281,0.04999
3467.88406,0.05013
3465.95532,0.05019
3464.02657,0.04993
3462.09783,0.04961
3460.16908,0.04964
3458.24034,0.04985
3456.31159,0.04980
3454.38285,0.04975
3452.45410,0.05001
3450.52535,0.05018
3448.59661,0.05003
3446.66786,0.04980
3444.73912,0.04975
3442.81037,0.04983
3440.88163,0.04984
3438.95288,0.04976
3437.02414,0.04966
3435.09539,0.04973
3433.16665,0.05007
3431.23790,0.05032
3429.30916,0.05027
3427.38041,0.05021
3425.45167,0.05027
3423.52292,0.05016
3421.59418,0.04999
3419.66543,0.05007
3417.73668,0.05029
3415.80794,0.05023
3413.87919,0.04984
3411.95045,0.04963
3410.02170,0.04994
3408.09296,0.05041
3406.16421,0.05043
3404.23547,0.04991
3402.30672,0.04955
3400.37798,0.05000
3398.44923,0.05070
3396.52049,0.05085
3394.59174,0.05065
3392.66300,0.05057
3390.73425,0.05051
3388.80550,0.05035
3386.87676,0.05031
3384.94801,0.05040
3383.01927,0.05035
3381.09052,0.05035
3379.16178,0.05069
3377.23303,0.05106
3375.30429,0.05112
3373.37554,0.05107
3371.44680,0.05122
3369.51805,0.05128
3367.58931,0.05107
3365.66056,0.05084
3363.73182,0.05079
3361.80307,0.05100
3359.87433,0.05127
3357.94558,0.05131
3356.01683,0.05141
3354.08809,0.05176
3352.15934,0.05208
3350.23060,0.05219
3348.30185,0.05199
3346.37311,0.05175
3344.44436,0.05184
3342.51562,0.05197
3340.58687,0.05195
3338.65813,0.05198
3336.72938,0.05214
3334.80064,0.05223
3332.87189,0.05219
3330.94315,0.05205
3329.01440,0.05193
3327.08566,0.05206
3325.15691,0.05228
3323.22816,0.05230
3321.29942,0.05243
3319.37067,0.05268
3317.44193,0.05258
3315.51318,0.05221
3313.58444,0.05188
3311.65569,0.05178
3309.72695,0.05208
3307.79820,0.05256
3305.86946,0.05262
3303.94071,0.05243
3302.01197,0.05267
3300.08322,0.05315
3298.15448,0.05328
3296.22573,0.05317
3294.29698,0.05311
3292.36824,0.05297
3290.43949,0.05277
3288.51075,0.05295
3286.58200,0.05359
3284.65326,0.05417
3282.72451,0.05437
3280.79577,0.05439
3278.86702,0.05447
3276.93828,0.05463
3275.00953,0.05474
3273.08079,0.05470
3271.15204,0.05462
3269.22330,0.05467
3267.29455,0.05480
3265.36581,0.05485
3263.43706,0.05480
3261.50831,0.05471
3259.57957,0.05483
3257.65082,0.05527
3255.72208,0.05569
3253.79333,0.05587
3251.86459,0.05598
3249.93584,0.05612
3248.00710,0.05631
3246.07835,0.05650
3244.14961,0.05675
3242.22086,0.05710
3240.29212,0.05749
3238.36337,0.05781
3236.43463,0.05787
3234.50588,0.05774
3232.57713,0.05771
3230.64839,0.05794
3228.71964,0.05836
3226.79090,0.05861
3224.86215,0.05862
3222.93341,0.05883
3221.00466,0.05924
3219.07592,0.05953
3217.14717,0.05973
3215.21843,0.05993
3213.28968,0.06011
3211.36094,0.06022
3209.43219,0.06012
3207.50345,0.06016
3205.57470,0.06060
3203.64596,0.06097
3201.71721,0.06127
3199.78846,0.06183
3197.85972,0.06220
3195.93097,0.06219
3194.00223,0.06234
3192.07348,0.06282
3190.14474,0.06345
3188.21599,0.06396
3186.28725,0.06408
3184.35850,0.06398
3182.42976,0.06408
3180.50101,0.06443
3178.57227,0.06479
3176.64352,0.06504
3174.71478,0.06521
3172.78603,0.06542
3170.85729,0.06568
3168.92854,0.06597
3166.99979,0.06632
3165.07105,0.06658
3163.14230,0.06666
3161.21356,0.06683
3159.28481,0.06719
3157.35607,0.06744
3155.42732,0.06756
3153.49858,0.06768
3151.56983,0.06781
3149.64109,0.06806
3147.71234,0.06852
3145.78360,0.06921
3143.85485,0.06997
3141.92611,0.07042
3139.99736,0.07054
3138.06861,0.07070
3136.13987,0.07095
3134.21112,0.07104
3132.28238,0.07116
3130.35363,0.07175
3128.42489,0.07259
3126.49614,0.07316
3124.56740,0.07346
3122.63865,0.07380
3120.70991,0.07449
3118.78116,0.07536
3116.85242,0.07590
3114.92367,0.07618
3112.99493,0.07659
3111.06618,0.07713
3109.13744,0.07767
3107.20869,0.07823
3105.27994,0.07885
3103.35120,0.07938
3101.42245,0.07976
3099.49371,0.08025
3097.56496,0.08096
3095.63622,0.08161
3093.70747,0.08225
3091.77873,0.08292
3089.84998,0.08369
3087.92124,0.08477
3085.99249,0.08596
3084.06375,0.08682
3082.13500,0.08731
3080.20626,0.08759
3078.27751,0.08792
3076.34877,0.08862
3074.42002,0.08947
3072.49127,0.09008
3070.56253,0.09068
3068.63378,0.09152
3066.70504,0.09236
3064.77629,0.09314
3062.84755,0.09406
3060.91880,0.09520
3058.99006,0.09620
3057.06131,0.09675
3055.13257,0.09703
3053.20382,0.09751
3051.27508,0.09842
3049.34633,0.09947
3047.41759,0.10035
3045.48884,0.10112
3043.56009,0.10182
3041.63135,0.10236
3039.70260,0.10285
3037.77386,0.10345
3035.84511,0.10415
3033.91637,0.10487
3031.98762,0.10548
3030.05888,0.10609
3028.13013,0.10690
3026.20139,0.10766
3024.27264,0.10820
3022.34390,0.10868
3020.41515,0.10925
3018.48641,0.11001
3016.55766,0.11091
3014.62892,0.11168
3012.70017,0.11223
3010.77142,0.11288
3008.84268,0.11371
3006.91393,0.11448
3004.98519,0.11521
3003.05644,0.11614
3001.12770,0.11717
2999.19895,0.11801
2997.27021,0.11867
2995.34146,0.11931
2993.41272,0.12001
2991.48397,0.12080
2989.55523,0.12159
2987.62648,0.12224
2985.69774,0.12287
2983.76899,0.12373
2981.84025,0.12471
2979.91150,0.12561
2977.98275,0.12654
2976.05401,0.12768
2974.12526,0.12889
2972.19652,0.12988
2970.26777,0.13072
2968.33903,0.13179
2966.41028,0.13305
2964.48154,0.13427
2962.55279,0.13537
2960.62405,0.13639
2958.69530,0.13752
2956.76656,0.13889
2954.83781,0.14033
2952.90907,0.14161
2950.98032,0.14278
2949.05157,0.14409
2947.12283,0.14554
2945.19408,0.14691
2943.26534,0.14812
2941.33659,0.14931
2939.40785,0.15054
2937.47910,0.15171
2935.55036,0.15272
2933.62161,0.15375
2931.69287,0.15502
2929.76412,0.15638
2927.83538,0.15763
2925.90663,0.15879
2923.97789,0.15994
2922.04914,0.16114
2920.12040,0.16245
2918.19165,0.16398
2916.26290,0.16571
2914.33416,0.16744
2912.40541,0.16909
2910.47667,0.17060
2908.54792,0.17198
2906.61918,0.17335
2904.69043,0.17476
2902.76169,0.17613
2900.83294,0.17740
2898.90420,0.17864
2896.97545,0.17999
2895.04671,0.18153
2893.11796,0.18308
2891.18922,0.18433
2889.26047,0.18534
2887.33172,0.18644
2885.40298,0.18762
2883.47423,0.18866
2881.54549,0.18966
2879.61674,0.19069
2877.68800,0.19166
2875.75925,0.19258
2873.83051,0.19349
2871.90176,0.19436
2869.97302,0.19515
2868.04427,0.19595
2866.11553,0.19680
2864.18678,0.19754
2862.25804,0.19819
2860.32929,0.19903
2858.40055,0.20008
2856.47180,0.20118
2854.54305,0.20232
2852.61431,0.20349
2850.68556,0.20479
2848.75682,0.20662
2846.82807,0.20917
2844.89933,0.21201
2842.97058,0.21465
2841.04184,0.21704
2839.11309,0.21924
2837.18435,0.22128
2835.25560,0.22333
2833.32686,0.22529
2831.39811,0.22691
2829.46937,0.22841
2827.54062,0.23009
2825.61188,0.23190
2823.68313,0.23381
2821.75438,0.23590
2819.82564,0.23786
2817.89689,0.23952
2815.96815,0.24114
2814.03940,0.24291
2812.11066,0.24490
2810.18191,0.24704
2808.25317,0.24912
2806.32442,0.25118
2804.39568,0.25355
2802.46693,0.25619
2800.53819,0.25860
2798.60944,0.26060
2796.68070,0.26245
2794.75195,0.26443
2792.82320,0.26655
2790.89446,0.26863
2788.96571,0.27070
2787.03697,0.27289
2785.10822,0.27504
2783.17948,0.27690
2781.25073,0.27860
2779.32199,0.28042
2777.39324,0.28234
2775.46450,0.28414
2773.53575,0.28566
2771.60701,0.28705
2769.67826,0.28869
2767.74952,0.29043
2765.82077,0.29203
2763.89203,0.29354
2761.96328,0.29502
2760.03453,0.29641
2758.10579,0.29770
2756.17704,0.29888
2754.24830,0.30003
2752.31955,0.30122
2750.39081,0.30246
2748.46206,0.30365
2746.53332,0.30468
2744.60457,0.30567
2742.67583,0.30675
2740.74708,0.30784
2738.81834,0.30901
2736.88959,0.31035
2734.96085,0.31157
2733.03210,0.31251
2731.10336,0.31329
2729.17461,0.31409
2727.24586,0.31507
2725.31712,0.31625
2723.38837,0.31756
2721.45963,0.31885
2719.53088,0.31988
2717.60214,0.32085
2715.67339,0.32210
2713.74465,0.32353
2711.81590,0.32488
2709.88716,0.32612
2707.95841,0.32737
2706.02967,0.32878
2704.10092,0.33019
2702.17218,0.33143
2700.24343,0.33268
2698.31468,0.33415
2696.38594,0.33572
2694.45719,0.33725
2692.52845,0.33880
2690.59970,0.34054
2688.67096,0.34244
2686.74221,0.34425
2684.81347,0.34580
2682.88472,0.34723
2680.95598,0.34875
2679.02723,0.35043
2677.09849,0.35216
2675.16974,0.35375
2673.24100,0.35519
2671.31225,0.35672
2669.38351,0.35841
2667.45476,0.36015
2665.52601,0.36179
2663.59727,0.36318
2661.66852,0.36447
2659.73978,0.36593
2657.81103,0.36759
2655.88229,0.36938
2653.95354,0.37104
2652.02480,0.37234
2650.09605,0.37335
2648.16731,0.37441
2646.23856,0.37564
2644.30982,0.37691
2642.38107,0.37809
2640.45233,0.37910
2638.52358,0.37989
2636.59484,0.38046
2634.66609,0.38101
2632.73734,0.38173
2630.80860,0.38254
2628.87985,0.38322
2626.95111,0.38375
2625.02236,0.38422
2623.09362,0.38456
2621.16487,0.38480
2619.23613,0.38514
2617.30738,0.38544
2615.37864,0.38557
2613.44989,0.38558
2611.52115,0.38557
2609.59240,0.38570
2607.66366,0.38584
2605.73491,0.38577
2603.80616,0.38564
2601.87742,0.38563
2599.94867,0.38568
2598.01993,0.38577
2596.09118,0.38581
2594.16244,0.38570
2592.23369,0.38560
2590.30495,0.38566
2588.37620,0.38576
2586.44746,0.38566
2584.51871,0.38543
2582.58997,0.38532
2580.66122,0.38531
2578.73248,0.38521
2576.80373,0.38512
2574.87499,0.38524
2572.94624,0.38544
2571.01749,0.38558
2569.08875,0.38563
2567.16000,0.38559
2565.23126,0.38559
2563.30251,0.38578
2561.37377,0.38617
2559.44502,0.38665
2557.51628,0.38714
2555.58753,0.38762
2553.65879,0.38801
2551.73004,0.38829
2549.80130,0.38859
2547.87255,0.38893
2545.94381,0.38939
2544.01506,0.38994
2542.08631,0.39049
2540.15757,0.39098
2538.22882,0.39139
2536.30008,0.39160
2534.37133,0.39181
2532.44259,0.39234
2530.51384,0.39309
2528.58510,0.39373
2526.65635,0.39405
2524.72761,0.39419
2522.79886,0.39448
2520.87012,0.39498
2518.94137,0.39550
2517.01263,0.39600
2515.08388,0.39654
2513.15514,0.39703
2511.22639,0.39735
2509.29764,0.39757
2507.36890,0.39795
2505.44015,0.39845
2503.51141,0.39897
2501.58266,0.39948
2499.65392,0.39990
2497.72517,0.40025
2495.79643,0.40067
2493.86768,0.40098
2491.93894,0.40098
2490.01019,0.40075
2488.08145,0.40051
2486.15270,0.40046
2484.22396,0.40052
2482.29521,0.40033
2480.36647,0.39982
2478.43772,0.39932
2476.50897,0.39908
2474.58023,0.39900
2472.65148,0.39879
2470.72274,0.39843
2468.79399,0.39806
2466.86525,0.39771
2464.93650,0.39724
2463.00776,0.39669
2461.07901,0.39620
2459.15027,0.39572
2457.22152,0.39511
2455.29278,0.39449
2453.36403,0.39400
2451.43529,0.39356
2449.50654,0.39319
2447.57779,0.39283
2445.64905,0.39230
2443.72030,0.39179
2441.79156,0.39149
2439.86281,0.39116
2437.93407,0.39072
2436.00532,0.39037
2434.07658,0.39019
2432.14783,0.39010
2430.21909,0.39000
2428.29034,0.38985
2426.36160,0.38976
2424.43285,0.38982
2422.50411,0.39014
2420.57536,0.39065
2418.64662,0.39111
2416.71787,0.39141
2414.78912,0.39181
2412.86038,0.39243
2410.93163,0.39308
2409.00289,0.39360
2407.07414,0.39407
2405.14540,0.39461
2403.21665,0.39528
2401.28791,0.39614
2399.35916,0.39712
2397.43042,0.39809
2395.50167,0.39914
2393.57293,0.40025
2391.64418,0.40128
2389.71544,0.40224
2387.78669,0.40322
2385.85795,0.40419
2383.92920,0.40513
2382.00045,0.40604
2380.07171,0.40696
2378.14296,0.40794
2376.21422,0.40887
2374.28547,0.40968
2372.35673,0.41046
2370.42798,0.41130
2368.49924,0.41217
2366.57049,0.41289
2364.64175,0.41339
2362.71300,0.41378
2360.78426,0.41419
2358.85551,0.41463
2356.92677,0.41502
2354.99802,0.41528
2353.06927,0.41541
2351.14053,0.41549
2349.21178,0.41546
2347.28304,0.41526
2345.35429,0.41503
2343.42555,0.41496
2341.49680,0.41483
2339.56806,0.41447
2337.63931,0.41413
2335.71057,0.41392
2333.78182,0.41363
2331.85308,0.41322
2329.92433,0.41282
2327.99559,0.41231
2326.06684,0.41163
2324.13810,0.41101
2322.20935,0.41055
2320.28060,0.41008
2318.35186,0.40942
2316.42311,0.40861
2314.49437,0.40793
2312.56562,0.40748
2310.63688,0.40712
2308.70813,0.40674
2306.77939,0.40621
2304.85064,0.40545
2302.92190,0.40469
2300.99315,0.40419
2299.06441,0.40383
2297.13566,0.40344
2295.20692,0.40317
2293.27817,0.40304
2291.34943,0.40293
2289.42068,0.40281
2287.49193,0.40270
2285.56319,0.40263
2283.63444,0.40258
2281.70570,0.40256
2279.77695,0.40277
2277.84821,0.40324
2275.91946,0.40366
2273.99072,0.40394
2272.06197,0.40435
2270.13323,0.40496
2268.20448,0.40561
2266.27574,0.40630
2264.34699,0.40708
2262.41825,0.40789
2260.48950,0.40875
2258.56075,0.40966
2256.63201,0.41041
2254.70326,0.41112
2252.77452,0.41203
2250.84577,0.41306
2248.91703,0.41399
2246.98828,0.41479
2245.05954,0.41561
2243.13079,0.41659
2241.20205,0.41756
2239.27330,0.41835
2237.34456,0.41898
2235.41581,0.41965
2233.48707,0.42045
2231.55832,0.42106
2229.62958,0.42132
2227.70083,0.42154
2225.77208,0.42192
2223.84334,0.42241
2221.91459,0.42282
2219.98585,0.42299
2218.05710,0.42291
2216.12836,0.42275
2214.19961,0.42262
2212.27087,0.42249
2210.34212,0.42224
2208.41338,0.42179
2206.48463,0.42118
2204.55589,0.42057
2202.62714,0.42008
2200.69840,0.41956
2198.76965,0.41886
2196.84090,0.41804
2194.91216,0.41717
2192.98341,0.41624
2191.05467,0.41522
2189.12592,0.41420
2187.19718,0.41319
2185.26843,0.41200
2183.33969,0.41064
2181.41094,0.40932
2179.48220,0.40809
2177.55345,0.40692
2175.62471,0.40579
2173.69596,0.40465
2171.76722,0.40360
2169.83847,0.40267
2167.90973,0.40175
2165.98098,0.40076
2164.05223,0.39966
2162.12349,0.39851
2160.19474,0.39759
2158.26600,0.39694
2156.33725,0.39630
2154.40851,0.39551
2152.47976,0.39472
2150.55102,0.39411
2148.62227,0.39374
2146.69353,0.39358
2144.76478,0.39352
2142.83604,0.39341
2140.90729,0.39337
2138.97855,0.39366
2137.04980,0.39419
2135.12106,0.39470
2133.19231,0.39514
2131.26356,0.39570
2129.33482,0.39649
2127.40607,0.39738
2125.47733,0.39835
2123.54858,0.39943
2121.61984,0.40070
2119.69109,0.40228
2117.76235,0.40392
2115.83360,0.40538
2113.90486,0.40687
2111.97611,0.40851
2110.04737,0.41006
2108.11862,0.41140
2106.18988,0.41264
2104.26113,0.41396
2102.33238,0.41533
2100.40364,0.41659
2098.47489,0.41775
2096.54615,0.41898
2094.61740,0.42030
2092.68866,0.42150
2090.75991,0.42252
2088.83117,0.42342
2086.90242,0.42434
2084.97368,0.42532
2083.04493,0.42614
2081.11619,0.42656
2079.18744,0.42690
2077.25870,0.42739
2075.32995,0.42788
2073.40121,0.42826
2071.47246,0.42838
2069.54371,0.42826
2067.61497,0.42816
2065.68622,0.42813
2063.75748,0.42800
2061.82873,0.42768
2059.89999,0.42736
2057.97124,0.42703
2056.04250,0.42645
2054.11375,0.42577
2052.18501,0.42518
2050.25626,0.42450
2048.32752,0.42359
2046.39877,0.42264
2044.47003,0.42184
2042.54128,0.42119
2040.61254,0.42051
2038.68379,0.41975
2036.75504,0.41895
2034.82630,0.41808
2032.89755,0.41723
2030.96881,0.41653
2029.04006,0.41580
2027.11132,0.41508
2025.18257,0.41464
2023.25383,0.41449
2021.32508,0.41432
2019.39634,0.41404
2017.46759,0.41378
2015.53885,0.41367
2013.61010,0.41367
2011.68136,0.41374
2009.75261,0.41395
2007.82386,0.41429
2005.89512,0.41477
2003.96637,0.41551
2002.03763,0.41649
2000.10888,0.41742
1998.18014,0.41831
1996.25139,0.41937
1994.32265,0.42063
1992.39390,0.42188
1990.46516,0.42314
1988.53641,0.42456
1986.60767,0.42605
1984.67892,0.42753
1982.75018,0.42908
1980.82143,0.43077
1978.89269,0.43265
1976.96394,0.43472
1975.03519,0.43676
1973.10645,0.43860
1971.17770,0.44027
1969.24896,0.44185
1967.32021,0.44339
1965.39147,0.44497
1963.46272,0.44662
1961.53398,0.44836
1959.60523,0.45007
1957.67649,0.45152
1955.74774,0.45267
1953.81900,0.45381
1951.89025,0.45511
1949.96151,0.45641
1948.03276,0.45748
1946.10402,0.45829
1944.17527,0.45893
1942.24652,0.45937
1940.31778,0.45971
1938.38903,0.46001
1936.46029,0.46010
1934.53154,0.45997
1932.60280,0.45984
1930.67405,0.45964
1928.74531,0.45923
1926.81656,0.45868
1924.88782,0.45807
1922.95907,0.45724
1921.03033,0.45611
1919.10158,0.45489
1917.17284,0.45374
1915.24409,0.45265
1913.31534,0.45141
1911.38660,0.44996
1909.45785,0.44858
1907.52911,0.44726
1905.60036,0.44587
1903.67162,0.44463
1901.74287,0.44349
1899.81413,0.44202
1897.88538,0.44021
1895.95664,0.43857
1894.02789,0.43735
1892.09915,0.43628
1890.17040,0.43510
1888.24166,0.43394
1886.31291,0.43288
1884.38417,0.43193
1882.45542,0.43115
1880.52667,0.43065
1878.59793,0.43043
1876.66918,0.43025
1874.74044,0.42993
1872.81169,0.42959
1870.88295,0.42936
1868.95420,0.42930
1867.02546,0.42961
1865.09671,0.43026
1863.16797,0.43104
1861.23922,0.43187
1859.31048,0.43269
1857.38173,0.43355
1855.45299,0.43462
1853.52424,0.43591
1851.59549,0.43731
1849.66675,0.43869
1847.73800,0.43994
1845.80926,0.44120
1843.88051,0.44265
1841.95177,0.44420
1840.02302,0.44569
1838.09428,0.44720
1836.16553,0.44878
1834.23679,0.45031
1832.30804,0.45167
1830.37930,0.45293
1828.45055,0.45408
1826.52181,0.45505
1824.59306,0.45612
1822.66432,0.45735
1820.73557,0.45840
1818.80682,0.45906
1816.87808,0.45948
1814.94933,0.45961
1813.02059,0.45935
1811.09184,0.45883
1809.16310,0.45815
1807.23435,0.45729
1805.30561,0.45620
1803.37686,0.45472
1801.44812,0.45274
1799.51937,0.45068
1797.59063,0.44905
1795.66188,0.44761
1793.73314,0.44584
1791.80439,0.44392
1789.87565,0.44238
1787.94690,0.44092
1786.01815,0.43911
1784.08941,0.43697
1782.16066,0.43460
1780.23192,0.43208
1778.30317,0.42940
1776.37443,0.42644
1774.44568,0.42306
1772.51694,0.41925
1770.58819,0.41562
1768.65945,0.41232
1766.73070,0.40880
1764.80196,0.40520
1762.87321,0.40146
1760.94447,0.39743
1759.01572,0.39339
1757.08697,0.38923
1755.15823,0.38505
1753.22948,0.38091
1751.30074,0.37619
1749.37199,0.37126
1747.44325,0.36694
1745.51450,0.36281
1743.58576,0.35861
1741.65701,0.35445
1739.72827,0.35031
1737.79952,0.34655
1735.87078,0.34267
1733.94203,0.33707
1732.01329,0.33046
1730.08454,0.32397
1728.15580,0.31667
1726.22705,0.30852
1724.29830,0.30020
1722.36956,0.29295
1720.44081,0.28787
1718.51207,0.28502
1716.58332,0.28415
1714.65458,0.28388
1712.72583,0.28205
1710.79709,0.27743
1708.86834,0.26999
1706.93960,0.26017
1705.01085,0.24954
1703.08211,0.24046
1701.15336,0.23224
1699.22462,0.22464
1697.29587,0.21969
1695.36713,0.21666
1693.43838,0.21499
1691.50963,0.21473
1689.58089,0.21526
1687.65214,0.21618
1685.72340,0.21715
1683.79465,0.21806
1681.86591,0.21882
1679.93716,0.21924
1678.00842,0.21927
1676.07967,0.21868
1674.15093,0.21723
1672.22218,0.21517
1670.29344,0.21249
1668.36469,0.20923
1666.43595,0.20608
1664.50720,0.20291
1662.57845,0.19911
1660.64971,0.19501
1658.72096,0.19104
1656.79222,0.18719
1654.86347,0.18273
1652.93473,0.17652
1651.00598,0.17082
1649.07724,0.16656
1647.14849,0.16181
1645.21975,0.15668
1643.29100,0.15236
1641.36226,0.14846
1639.43351,0.14455
1637.50477,0.14044
1635.57602,0.13572
1633.64728,0.13143
1631.71853,0.12830
1629.78978,0.12538
1627.86104,0.12225
1625.93229,0.11939
1624.00355,0.11691
1622.07480,0.11460
1620.14606,0.11267
1618.21731,0.11106
1616.28857,0.10958
1614.35982,0.10854
1612.43108,0.10802
1610.50233,0.10798
1608.57359,0.10852
1606.64484,0.10965
1604.71610,0.11136
1602.78735,0.11367
1600.85861,0.11635
1598.92986,0.11914
1597.00111,0.12195
1595.07237,0.12481
1593.14362,0.12769
1591.21488,0.13055
1589.28613,0.13327
1587.35739,0.13575
1585.42864,0.13826
1583.49990,0.14113
1581.57115,0.14444
1579.64241,0.14804
1577.71366,0.15209
1575.78492,0.15713
1573.85617,0.16248
1571.92743,0.16768
1569.99868,0.17365
1568.06993,0.18029
1566.14119,0.18704
1564.21244,0.19401
1562.28370,0.20056
1560.35495,0.20711
1558.42621,0.21517
1556.49746,0.22272
1554.56872,0.22871
1552.63997,0.23391
1550.71123,0.23854
1548.78248,0.24277
1546.85374,0.24640
1544.92499,0.24932
1542.99625,0.25154
1541.06750,0.25327
1539.13876,0.25490
1537.21001,0.25620
1535.28126,0.25696
1533.35252,0.25725
1531.42377,0.25710
1529.49503,0.25637
1527.56628,0.25486
1525.63754,0.25271
1523.70879,0.25022
1521.78005,0.24718
1519.85130,0.24368
1517.92256,0.24018
1515.99381,0.23650
1514.06507,0.23281
1512.13632,0.22920
1510.20758,0.22571
1508.27883,0.22225
1506.35008,0.21856
1504.42134,0.21573
1502.49259,0.21366
1500.56385,0.21143
1498.63510,0.20891
1496.70636,0.20618
1494.77761,0.20358
1492.84887,0.20140
1490.92012,0.19914
1488.99138,0.19664
1487.06263,0.19453
1485.13389,0.19299
1483.20514,0.19165
1481.27640,0.19029
1479.34765,0.18904
1477.41891,0.18813
1475.49016,0.18747
1473.56141,0.18680
1471.63267,0.18628
1469.70392,0.18638
1467.77518,0.18712
1465.84643,0.18839
1463.91769,0.19021
1461.98894,0.19232
1460.06020,0.19447
1458.13145,0.19702
1456.20271,0.20067
1454.27396,0.20485
1452.34522,0.20894
1450.41647,0.21297
1448.48773,0.21678
1446.55898,0.22004
1444.63024,0.22248
1442.70149,0.22404
1440.77274,0.22471
1438.84400,0.22443
1436.91525,0.22303
1434.98651,0.22102
1433.05776,0.21925
1431.12902,0.21776
1429.20027,0.21667
1427.27153,0.21598
1425.34278,0.21534
1423.41404,0.21449
1421.48529,0.21322
1419.55655,0.21109
1417.62780,0.20811
1415.69906,0.20485
1413.77031,0.20137
1411.84156,0.19750
1409.91282,0.19316
1407.98407,0.18836
1406.05533,0.18293
1404.12658,0.17668
1402.19784,0.16997
1400.26909,0.16270
1398.34035,0.15464
1396.41160,0.14610
1394.48286,0.13732
1392.55411,0.12904
1390.62537,0.12168
1388.69662,0.11447
1386.76788,0.10696
1384.83913,0.10001
1382.91039,0.09415
1380.98164,0.08897
1379.05289,0.08421
1377.12415,0.08012
1375.19540,0.07672
1373.26666,0.07369
1371.33791,0.07105
1369.40917,0.06882
1367.48042,0.06679
1365.55168,0.06485
1363.62293,0.06308
1361.69419,0.06163
1359.76544,0.06036
1357.83670,0.05906
1355.90795,0.05775
1353.97921,0.05657
1352.05046,0.05552
1350.12172,0.05458
1348.19297,0.05374
1346.26422,0.05282
1344.33548,0.05190
1342.40673,0.05112
1340.47799,0.05035
1338.54924,0.04935
1336.62050,0.04819
1334.69175,0.04722
1332.76301,0.04652
1330.83426,0.04576
1328.90552,0.04468
1326.97677,0.04349
1325.04803,0.04237
1323.11928,0.04131
1321.19054,0.04021
1319.26179,0.03913
1317.33304,0.03812
1315.40430,0.03708
1313.47555,0.03597
1311.54681,0.03490
1309.61806,0.03379
1307.68932,0.03264
1305.76057,0.03157
1303.83183,0.03055
1301.90308,0.02946
1299.97434,0.02838
1298.04559,0.02739
1296.11685,0.02649
1294.18810,0.02566
1292.25936,0.02493
1290.33061,0.02428
1288.40187,0.02371
1286.47312,0.02328
1284.54437,0.02298
1282.61563,0.02271
1280.68688,0.02254
1278.75814,0.02255
1276.82939,0.02266
1274.90065,0.02273
1272.97190,0.02279
1271.04316,0.02288
1269.11441,0.02301
1267.18567,0.02317
1265.25692,0.02327
1263.32818,0.02341
1261.39943,0.02368
1259.47069,0.02399
1257.54194,0.02420
1255.61320,0.02431
1253.68445,0.02449
1251.75570,0.02466
1249.82696,0.02465
1247.89821,0.02456
1245.96947,0.02450
1244.04072,0.02448
1242.11198,0.02443
1240.18323,0.02426
1238.25449,0.02398
1236.32574,0.02391
1234.39700,0.02398
1232.46825,0.02394
1230.53951,0.02390
1228.61076,0.02398
1226.68202,0.02393
1224.75327,0.02373
1222.82452,0.02367
1220.89578,0.02375
1218.96703,0.02370
1217.03829,0.02353
1215.10954,0.02349
1213.18080,0.02361
1211.25205,0.02379
1209.32331,0.02401
1207.39456,0.02412
1205.46582,0.02399
1203.53707,0.02369
1201.60833,0.02341
1199.67958,0.02334
1197.75084,0.02354
1195.82209,0.02383
1193.89335,0.02403
1191.96460,0.02419
1190.03585,0.02432
1188.10711,0.02448
1186.17836,0.02485
1184.24962,0.02525
1182.32087,0.02544
1180.39213,0.02548
1178.46338,0.02551
1176.53464,0.02561
1174.60589,0.02581
1172.67715,0.02604
1170.74840,0.02635
1168.81966,0.02674
1166.89091,0.02703
1164.96217,0.02719
1163.03342,0.02743
1161.10467,0.02770
1159.17593,0.02777
1157.24718,0.02779
1155.31844,0.02809
1153.38969,0.02858
1151.46095,0.02892
1149.53220,0.02914
1147.60346,0.02946
1145.67471,0.02968
1143.74597,0.02960
1141.81722,0.02963
1139.88848,0.03000
1137.95973,0.03033
1136.03099,0.03040
1134.10224,0.03047
1132.17350,0.03057
1130.24475,0.03051
1128.31600,0.03041
1126.38726,0.03054
1124.45851,0.03081
1122.52977,0.03113
1120.60102,0.03142
1118.67228,0.03164
1116.74353,0.03197
1114.81479,0.03231
1112.88604,0.03231
1110.95730,0.03212
1109.02855,0.03199
1107.09981,0.03172
1105.17106,0.03133
1103.24232,0.03119
1101.31357,0.03135
1099.38483,0.03150
1097.45608,0.03162
1095.52733,0.03165
1093.59859,0.03135
1091.66984,0.03118
1089.74110,0.03141
1087.81235,0.03143
1085.88361,0.03114
1083.95486,0.03098
1082.02612,0.03099
1080.09737,0.03090
1078.16863,0.03056
1076.23988,0.03014
1074.31114,0.03002
1072.38239,0.03031
1070.45365,0.03067
1068.52490,0.03061
1066.59615,0.03005
1064.66741,0.02938
1062.73866,0.02895
1060.80992,0.02886
1058.88117,0.02913
1056.95243,0.02945
1055.02368,0.02938
1053.09494,0.02901
1051.16619,0.02862
1049.23745,0.02843
1047.30870,0.02853
1045.37996,0.02862
1043.45121,0.02838
1041.52247,0.02796
1039.59372,0.02782
1037.66498,0.02787
1035.73623,0.02771
1033.80748,0.02734
1031.87874,0.02695
1029.94999,0.02678
1028.02125,0.02688
1026.09250,0.02697
1024.16376,0.02670
1022.23501,0.02610
1020.30627,0.02558
1018.37752,0.02541
1016.44878,0.02534
1014.52003,0.02503
1012.59129,0.02437
1010.66254,0.02356
1008.73380,0.02294
1006.80505,0.02278
1004.87631,0.02273
1002.94756,0.02230
1001.01881,0.02174
999.09007,0.02147
997.16132,0.02128
995.23258,0.02113
993.30383,0.02128
991.37509,0.02158
989.44634,0.02166
987.51760,0.02153
985.58885,0.02152
983.66011,0.02168
981.73136,0.02171
979.80262,0.02179
977.87387,0.02220
975.94513,0.02260
974.01638,0.02290
972.08763,0.02329
970.15889,0.02365
968.23014,0.02389
966.30140,0.02425
964.37265,0.02494
962.44391,0.02575
960.51516,0.02646
958.58642,0.02721
956.65767,0.02812
954.72893,0.02920
952.80018,0.03045
950.87144,0.03172
948.94269,0.03281
947.01395,0.03387
945.08520,0.03523
943.15646,0.03674
941.22771,0.03824
939.29896,0.03985
937.37022,0.04159
935.44147,0.04326
933.51273,0.04469
931.58398,0.04596
929.65524,0.04733
927.72649,0.04895
925.79775,0.05081
923.86900,0.05275
921.94026,0.05458
920.01151,0.05626
918.08277,0.05775
916.15402,0.05908
914.22528,0.06048
912.29653,0.06204
910.36779,0.06366
908.43904,0.06543
906.51029,0.06725
904.58155,0.06898
902.65280,0.07068
900.72406,0.07222
898.79531,0.07364
896.86657,0.07532
894.93782,0.07711
893.00908,0.07850
891.08033,0.07977
889.15159,0.08144
887.22284,0.08320
885.29410,0.08476
883.36535,0.08619
881.43661,0.08739
879.50786,0.08870
877.57911,0.09035
875.65037,0.09192
873.72162,0.09329
871.79288,0.09477
869.86413,0.09642
867.93539,0.09799
866.00664,0.09922
864.07790,0.10032
862.14915,0.10166
860.22041,0.10332
858.29166,0.10508
856.36292,0.10652
854.43417,0.10771
852.50543,0.10899
850.57668,0.11012
848.64794,0.11116
846.71919,0.11256
844.79044,0.11399
842.86170,0.11497
840.93295,0.11585
839.00421,0.11714
837.07546,0.11860
835.14672,0.11971
833.21797,0.12051
831.28923,0.12127
829.36048,0.12201
827.43174,0.12284
825.50299,0.12393
823.57425,0.12540
821.64550,0.12700
819.71676,0.12823
817.78801,0.12908
815.85926,0.12980
813.93052,0.13056
812.00177,0.13152
810.07303,0.13281
808.14428,0.13418
806.21554,0.13510
804.28679,0.13560
802.35805,0.13600
800.42930,0.13615
798.50056,0.13628
796.57181,0.13688
794.64307,0.13776
792.71432,0.13856
790.78558,0.13909
788.85683,0.13943
786.92809,0.13998
784.99934,0.14059
783.07059,0.14090
781.14185,0.14106
779.21310,0.14144
777.28436,0.14213
775.35561,0.14281
773.42687,0.14311
771.49812,0.14322
769.56938,0.14368
767.64063,0.14459
765.71189,0.14562
763.78314,0.14656
761.85440,0.14694
759.92565,0.14648
757.99691,0.14598
756.06816,0.14630
754.13942,0.14729
752.21067,0.14824
750.28192,0.14857
748.35318,0.14853
746.42443,0.14885
744.49569,0.14958
742.56694,0.15015
740.63820,0.15048
738.70945,0.15087
736.78071,0.15113
734.85196,0.15146
732.92322,0.15224
730.99447,0.15319
729.06573,0.15409
727.13698,0.15477
725.20824,0.15498
723.27949,0.15484
721.35074,0.15458
719.42200,0.15458
717.49325,0.15521
715.56451,0.15620
713.63576,0.15685
711.70702,0.15715
709.77827,0.15785
707.84953,0.15904
705.92078,0.16008
703.99204,0.16073
702.06329,0.16111
700.13455,0.16111
698.20580,0.16092
696.27706,0.16095
694.34831,0.16111
692.41957,0.16155
690.49082,0.16263
688.56207,0.16375
686.63333,0.16428
684.70458,0.16433
682.77584,0.16425
680.84709,0.16418
678.91835,0.16424
676.98960,0.16484
675.06086,0.16589
673.13211,0.16656
671.20337,0.16674
669.27462,0.16702
667.34588,0.16764
665.41713,0.16822
663.48839,0.16821
661.55964,0.16775
659.63090,0.16732
657.70215,0.16697
655.77340,0.16695
653.84466,0.16746
651.91591,0.16804
649.98717,0.16868
648.05842,0.16925
646.12968,0.16913
644.20093,0.16898
642.27219,0.16982
640.34344,0.17112
638.41470,0.17167
636.48595,0.17143
634.55721,0.17103
632.62846,0.17096
630.69972,0.17108
628.77097,0.17119
626.84222,0.17183
624.91348,0.17288
622.98473,0.17333
621.05599,0.17342
619.12724,0.17394
617.19850,0.17496
615.26975,0.17607
613.34101,0.17615
611.41226,0.17497
609.48352,0.17433
607.55477,0.17533
605.62603,0.17676
603.69728,0.17798
601.76854,0.17948
599.83979,0.18014
