7497.03301,0.32170
7495.10426,0.32171
7493.17552,0.32333
7491.24677,0.32505
7489.31803,0.32294
7487.38928,0.31702
7485.46054,0.31470
7483.53179,0.31611
7481.60305,0.31498
7479.67430,0.31211
7477.74556,0.30968
7475.81681,0.30781
7473.88807,0.31039
7471.95932,0.31811
7470.03057,0.32168
7468.10183,0.31659
7466.17308,0.31194
7464.24434,0.31188
7462.31559,0.31129
7460.38685,0.31195
7458.45810,0.31575
7456.52936,0.31760
7454.60061,0.31716
7452.67187,0.31675
7450.74312,0.31559
7448.81438,0.31556
7446.88563,0.31618
7444.95689,0.31358
7443.02814,0.31113
7441.09940,0.31343
7439.17065,0.31677
7437.24190,0.31840
7435.31316,0.31935
7433.38441,0.31733
7431.45567,0.31269
7429.52692,0.30955
7427.59818,0.30726
7425.66943,0.30637
7423.74069,0.31063
7421.81194,0.31778
7419.88320,0.32231
7417.95445,0.32218
7416.02571,0.31903
7414.09696,0.31669
7412.16822,0.31770
7410.23947,0.32065
7408.31073,0.32290
7406.38198,0.32413
7404.45323,0.32496
7402.52449,0.32450
7400.59574,0.32194
7398.66700,0.32042
7396.73825,0.32222
7394.80951,0.32215
7392.88076,0.31568
7390.95202,0.30720
7389.02327,0.30430
7387.09453,0.30964
7385.16578,0.31866
7383.23704,0.32277
7381.30829,0.31879
7379.37955,0.31414
7377.45080,0.31406
7375.52205,0.31548
7373.59331,0.31608
7371.66456,0.31628
7369.73582,0.31585
7367.80707,0.31456
7365.87833,0.31391
7363.94958,0.31374
7362.02084,0.31123
7360.09209,0.30922
7358.16335,0.31121
7356.23460,0.31342
7354.30586,0.31431
7352.37711,0.31597
7350.44837,0.31718
7348.51962,0.31610
7346.59088,0.31321
7344.66213,0.31021
7342.73338,0.30899
7340.80464,0.31071
7338.87589,0.31358
7336.94715,0.31611
7335.01840,0.31828
7333.08966,0.31756
7331.16091,0.31503
7329.23217,0.31446
7327.30342,0.31248
7325.37468,0.30704
7323.44593,0.30490
7321.51719,0.30871
7319.58844,0.31242
7317.65970,0.31298
7315.73095,0.31123
7313.80221,0.30710
7311.87346,0.30319
7309.94471,0.30336
7308.01597,0.30636
7306.08722,0.30906
7304.15848,0.31069
7302.22973,0.31212
7300.30099,0.31395
7298.37224,0.31408
7296.44350,0.31127
7294.51475,0.30869
7292.58601,0.30734
7290.65726,0.30639
7288.72852,0.30772
7286.79977,0.31060
7284.87103,0.31087
7282.94228,0.30847
7281.01353,0.30722
7279.08479,0.30738
7277.15604,0.30765
7275.22730,0.30855
7273.29855,0.30938
7271.36981,0.31040
7269.44106,0.31222
7267.51232,0.31226
7265.58357,0.30857
7263.65483,0.30435
7261.72608,0.30451
7259.79734,0.30829
7257.86859,0.31086
7255.93985,0.30979
7254.01110,0.30759
7252.08236,0.30800
7250.15361,0.30953
7248.22486,0.31048
7246.29612,0.31215
7244.36737,0.31334
7242.43863,0.31301
7240.50988,0.31244
7238.58114,0.31184
7236.65239,0.31159
7234.72365,0.31251
7232.79490,0.31407
7230.86616,0.31429
7228.93741,0.31200
7227.00867,0.30815
7225.07992,0.30357
7223.15118,0.29897
7221.22243,0.29758
7219.29369,0.30123
7217.36494,0.30560
7215.43619,0.30637
7213.50745,0.30616
7211.57870,0.30816
7209.64996,0.31055
7207.72121,0.31088
7205.79247,0.30903
7203.86372,0.30720
7201.93498,0.30725
7200.00623,0.30754
7198.07749,0.30714
7196.14874,0.30737
7194.22000,0.30748
7192.29125,0.30631
7190.36251,0.30497
7188.43376,0.30532
7186.50501,0.30807
7184.57627,0.31032
7182.64752,0.30847
7180.71878,0.30560
7178.79003,0.30567
7176.86129,0.30644
7174.93254,0.30694
7173.00380,0.30854
7171.07505,0.31085
7169.14631,0.31362
7167.21756,0.31487
7165.28882,0.31289
7163.36007,0.30995
7161.43133,0.30770
7159.50258,0.30648
7157.57384,0.30687
7155.64509,0.30763
7153.71634,0.30710
7151.78760,0.30664
7149.85885,0.30812
7147.93011,0.30947
7146.00136,0.30821
7144.07262,0.30669
7142.14387,0.30679
7140.21513,0.30487
7138.28638,0.29965
7136.35764,0.29800
7134.42889,0.30436
7132.50015,0.31179
7130.57140,0.31247
7128.64266,0.30928
7126.71391,0.30788
7124.78516,0.30772
7122.85642,0.30744
7120.92767,0.30904
7118.99893,0.31212
7117.07018,0.31305
7115.14144,0.31165
7113.21269,0.31045
7111.28395,0.31023
7109.35520,0.31094
7107.42646,0.31275
7105.49771,0.31470
7103.56897,0.31471
7101.64022,0.31240
7099.71148,0.31026
7097.78273,0.30997
7095.85399,0.30968
7093.92524,0.30741
7091.99649,0.30471
7090.06775,0.30492
7088.13900,0.30831
7086.21026,0.31052
7084.28151,0.30950
7082.35277,0.30796
7080.42402,0.30637
7078.49528,0.30507
7076.56653,0.30609
7074.63779,0.30859
7072.70904,0.31106
7070.78030,0.31164
7068.85155,0.30952
7066.92281,0.30913
7064.99406,0.31089
7063.06532,0.30939
7061.13657,0.30607
7059.20782,0.30603
7057.27908,0.30849
7055.35033,0.30985
7053.42159,0.30939
7051.49284,0.30893
7049.56410,0.30924
7047.63535,0.31033
7045.70661,0.31151
7043.77786,0.31122
7041.84912,0.31093
7039.92037,0.31199
7037.99163,0.31207
7036.06288,0.31228
7034.13414,0.31476
7032.20539,0.31626
7030.27664,0.31516
7028.34790,0.31430
7026.41915,0.31405
7024.49041,0.31258
7022.56166,0.31212
7020.63292,0.31419
7018.70417,0.31406
7016.77543,0.31054
7014.84668,0.30899
7012.91794,0.30969
7010.98919,0.30917
7009.06045,0.30802
7007.13170,0.30688
7005.20296,0.30663
7003.27421,0.30976
7001.34547,0.31366
6999.41672,0.31413
6997.48797,0.31328
6995.55923,0.31396
6993.63048,0.31385
6991.70174,0.31055
6989.77299,0.30687
6987.84425,0.30720
6985.91550,0.31076
6983.98676,0.31285
6982.05801,0.31312
6980.12927,0.31366
6978.20052,0.31340
6976.27178,0.31195
6974.34303,0.31080
6972.41429,0.31101
6970.48554,0.31189
6968.55680,0.31178
6966.62805,0.31094
6964.69930,0.30937
6962.77056,0.30759
6960.84181,0.30892
6958.91307,0.31233
6956.98432,0.31302
6955.05558,0.31113
6953.12683,0.30947
6951.19809,0.30947
6949.26934,0.31133
6947.34060,0.31273
6945.41185,0.31147
6943.48311,0.30925
6941.55436,0.30886
6939.62562,0.30968
6937.69687,0.30943
6935.76812,0.30856
6933.83938,0.30872
6931.91063,0.30985
6929.98189,0.31104
6928.05314,0.31179
6926.12440,0.31124
6924.19565,0.31020
6922.26691,0.31129
6920.33816,0.31267
6918.40942,0.31194
6916.48067,0.31121
6914.55193,0.31163
6912.62318,0.31250
6910.69444,0.31320
6908.76569,0.31296
6906.83695,0.31309
6904.90820,0.31435
6902.97945,0.31396
6901.05071,0.31233
6899.12196,0.31287
6897.19322,0.31412
6895.26447,0.31327
6893.33573,0.31137
6891.40698,0.31036
6889.47824,0.31058
6887.54949,0.31101
6885.62075,0.31037
6883.69200,0.30898
6881.76326,0.30885
6879.83451,0.31081
6877.90577,0.31340
6875.97702,0.31457
6874.04828,0.31286
6872.11953,0.30939
6870.19078,0.30760
6868.26204,0.30827
6866.33329,0.30911
6864.40455,0.30858
6862.47580,0.30734
6860.54706,0.30707
6858.61831,0.30749
6856.68957,0.30741
6854.76082,0.30721
6852.83208,0.30807
6850.90333,0.31083
6848.97459,0.31380
6847.04584,0.31471
6845.11710,0.31390
6843.18835,0.31283
6841.25960,0.31211
6839.33086,0.31189
6837.40211,0.31283
6835.47337,0.31412
6833.54462,0.31301
6831.61588,0.31005
6829.68713,0.30860
6827.75839,0.30881
6825.82964,0.30890
6823.90090,0.30932
6821.97215,0.31077
6820.04341,0.31254
6818.11466,0.31299
6816.18592,0.31224
6814.25717,0.31260
6812.32843,0.31363
6810.39968,0.31264
6808.47093,0.31013
6806.54219,0.30974
6804.61344,0.31228
6802.68470,0.31340
6800.75595,0.31080
6798.82721,0.30834
6796.89846,0.30917
6794.96972,0.31097
6793.04097,0.31230
6791.11223,0.31519
6789.18348,0.31839
6787.25474,0.31799
6785.32599,0.31498
6783.39725,0.31296
6781.46850,0.31236
6779.53975,0.31334
6777.61101,0.31547
6775.68226,0.31577
6773.75352,0.31392
6771.82477,0.31208
6769.89603,0.31110
6767.96728,0.31079
6766.03854,0.31116
6764.10979,0.31248
6762.18105,0.31350
6760.25230,0.31306
6758.32356,0.31182
6756.39481,0.31085
6754.46607,0.31080
6752.53732,0.31073
6750.60858,0.30994
6748.67983,0.30992
6746.75108,0.31123
6744.82234,0.31271
6742.89359,0.31330
6740.96485,0.31353
6739.03610,0.31389
6737.10736,0.31309
6735.17861,0.31182
6733.24987,0.31152
6731.32112,0.31052
6729.39238,0.30857
6727.46363,0.30835
6725.53489,0.31026
6723.60614,0.31202
6721.67740,0.31226
6719.74865,0.31106
6717.81991,0.30912
6715.89116,0.30743
6713.96241,0.30646
6712.03367,0.30722
6710.10492,0.30960
6708.17618,0.31094
6706.24743,0.31014
6704.31869,0.30835
6702.38994,0.30707
6700.46120,0.30798
6698.53245,0.31040
6696.60371,0.31129
6694.67496,0.31028
6692.74622,0.30941
6690.81747,0.30949
6688.88873,0.31046
6686.95998,0.31167
6685.03123,0.31252
6683.10249,0.31314
6681.17374,0.31180
6679.24500,0.30809
6677.31625,0.30615
6675.38751,0.30732
6673.45876,0.30910
6671.53002,0.31094
6669.60127,0.31222
6667.67253,0.31246
6665.74378,0.31228
6663.81504,0.31113
6661.88629,0.31073
6659.95755,0.31277
6658.02880,0.31473
6656.10006,0.31557
6654.17131,0.31641
6652.24256,0.31582
6650.31382,0.31322
6648.38507,0.31119
6646.45633,0.31081
6644.52758,0.31062
6642.59884,0.30988
6640.67009,0.30929
6638.74135,0.30959
6636.81260,0.31037
6634.88386,0.31159
6632.95511,0.31350
6631.02637,0.31399
6629.09762,0.31116
6627.16888,0.30746
6625.24013,0.30689
6623.31139,0.30924
6621.38264,0.31057
6619.45389,0.30965
6617.52515,0.30975
6615.59640,0.31149
6613.66766,0.31090
6611.73891,0.30753
6609.81017,0.30580
6607.88142,0.30733
6605.95268,0.30880
6604.02393,0.30733
6602.09519,0.30486
6600.16644,0.30505
6598.23770,0.30782
6596.30895,0.31084
6594.38021,0.31342
6592.45146,0.31615
6590.52271,0.31827
6588.59397,0.31754
6586.66522,0.31504
6584.73648,0.31427
6582.80773,0.31442
6580.87899,0.31306
6578.95024,0.31161
6577.02150,0.31195
6575.09275,0.31277
6573.16401,0.31255
6571.23526,0.31168
6569.30652,0.31133
6567.37777,0.31179
6565.44903,0.31233
6563.52028,0.31332
6561.59154,0.31553
6559.66279,0.31712
6557.73404,0.31660
6555.80530,0.31600
6553.87655,0.31603
6551.94781,0.31510
6550.01906,0.31444
6548.09032,0.31457
6546.16157,0.31384
6544.23283,0.31351
6542.30408,0.31364
6540.37534,0.31142
6538.44659,0.30825
6536.51785,0.30825
6534.58910,0.31131
6532.66036,0.31348
6530.73161,0.31249
6528.80287,0.31014
6526.87412,0.30919
6524.94537,0.30985
6523.01663,0.31108
6521.08788,0.31255
6519.15914,0.31413
6517.23039,0.31464
6515.30165,0.31355
6513.37290,0.31240
6511.44416,0.31156
6509.51541,0.31026
6507.58667,0.30946
6505.65792,0.31048
6503.72918,0.31227
6501.80043,0.31262
6499.87169,0.31145
6497.94294,0.30984
6496.01419,0.30863
6494.08545,0.30841
6492.15670,0.30905
6490.22796,0.31000
6488.29921,0.31024
6486.37047,0.30945
6484.44172,0.30863
6482.51298,0.30893
6480.58423,0.31027
6478.65549,0.31151
6476.72674,0.31294
6474.79800,0.31362
6472.86925,0.31159
6470.94051,0.30928
6469.01176,0.30938
6467.08302,0.31025
6465.15427,0.31038
6463.22552,0.30970
6461.29678,0.30874
6459.36803,0.30881
6457.43929,0.30975
6455.51054,0.31047
6453.58180,0.31157
6451.65305,0.31339
6449.72431,0.31470
6447.79556,0.31450
6445.86682,0.31366
6443.93807,0.31329
6442.00933,0.31286
6440.08058,0.31225
6438.15184,0.31145
6436.22309,0.31092
6434.29434,0.31174
6432.36560,0.31251
6430.43685,0.31169
6428.50811,0.31061
6426.57936,0.31089
6424.65062,0.31297
6422.72187,0.31556
6420.79313,0.31587
6418.86438,0.31343
6416.93564,0.31111
6415.00689,0.30985
6413.07815,0.30875
6411.14940,0.30920
6409.22066,0.31110
6407.29191,0.31141
6405.36317,0.30997
6403.43442,0.30929
6401.50567,0.31000
6399.57693,0.31077
6397.64818,0.31020
6395.71944,0.30875
6393.79069,0.30837
6391.86195,0.30904
6389.93320,0.30990
6388.00446,0.31156
6386.07571,0.31277
6384.14697,0.31132
6382.21822,0.30917
6380.28948,0.30911
6378.36073,0.30983
6376.43199,0.30986
6374.50324,0.31018
6372.57450,0.31090
6370.64575,0.31160
6368.71700,0.31168
6366.78826,0.31024
6364.85951,0.30870
6362.93077,0.30912
6361.00202,0.31107
6359.07328,0.31281
6357.14453,0.31331
6355.21579,0.31329
6353.28704,0.31333
6351.35830,0.31230
6349.42955,0.31090
6347.50081,0.31080
6345.57206,0.31089
6343.64332,0.30996
6341.71457,0.30861
6339.78582,0.30806
6337.85708,0.30894
6335.92833,0.30967
6333.99959,0.30862
6332.07084,0.30732
6330.14210,0.30801
6328.21335,0.30994
6326.28461,0.31089
6324.35586,0.31013
6322.42712,0.30836
6320.49837,0.30678
6318.56963,0.30624
6316.64088,0.30665
6314.71214,0.30749
6312.78339,0.30820
6310.85465,0.30860
6308.92590,0.30906
6306.99715,0.30986
6305.06841,0.31145
6303.13966,0.31330
6301.21092,0.31375
6299.28217,0.31313
6297.35343,0.31261
6295.42468,0.31209
6293.49594,0.31132
6291.56719,0.31034
6289.63845,0.30993
6287.70970,0.31004
6285.78096,0.30946
6283.85221,0.30855
6281.92347,0.30904
6279.99472,0.31068
6278.06598,0.31159
6276.13723,0.31193
6274.20848,0.31291
6272.27974,0.31332
6270.35099,0.31197
6268.42225,0.31043
6266.49350,0.31017
6264.56476,0.31046
6262.63601,0.31065
6260.70727,0.31108
6258.77852,0.31176
6256.84978,0.31177
6254.92103,0.31080
6252.99229,0.31013
6251.06354,0.31050
6249.13480,0.31161
6247.20605,0.31204
6245.27730,0.31051
6243.34856,0.30827
6241.41981,0.30678
6239.49107,0.30632
6237.56232,0.30688
6235.63358,0.30746
6233.70483,0.30760
6231.77609,0.30832
6229.84734,0.30990
6227.91860,0.31118
6225.98985,0.31158
6224.06111,0.31126
6222.13236,0.31021
6220.20362,0.30932
6218.27487,0.30905
6216.34613,0.30865
6214.41738,0.30818
6212.48863,0.30787
6210.55989,0.30806
6208.63114,0.30871
6206.70240,0.30795
6204.77365,0.30619
6202.84491,0.30623
6200.91616,0.30790
6198.98742,0.30908
6197.05867,0.30883
6195.12993,0.30805
6193.20118,0.30822
6191.27244,0.30888
6189.34369,0.30888
6187.41495,0.30871
6185.48620,0.30884
6183.55746,0.30850
6181.62871,0.30768
6179.69996,0.30726
6177.77122,0.30760
6175.84247,0.30823
6173.91373,0.30736
6171.98498,0.30490
6170.05624,0.30318
6168.12749,0.30279
6166.19875,0.30357
6164.27000,0.30585
6162.34126,0.30832
6160.41251,0.30934
6158.48377,0.30916
6156.55502,0.30923
6154.62628,0.30957
6152.69753,0.30879
6150.76878,0.30694
6148.84004,0.30620
6146.91129,0.30766
6144.98255,0.30927
6143.05380,0.30938
6141.12506,0.30887
6139.19631,0.30828
6137.26757,0.30748
6135.33882,0.30677
6133.41008,0.30609
6131.48133,0.30562
6129.55259,0.30676
6127.62384,0.30927
6125.69510,0.31020
6123.76635,0.30861
6121.83761,0.30693
6119.90886,0.30670
6117.98011,0.30714
6116.05137,0.30802
6114.12262,0.30900
6112.19388,0.30823
6110.26513,0.30616
6108.33639,0.30523
6106.40764,0.30613
6104.47890,0.30848
6102.55015,0.31028
6100.62141,0.30947
6098.69266,0.30799
6096.76392,0.30799
6094.83517,0.30760
6092.90643,0.30591
6090.97768,0.30538
6089.04893,0.30670
6087.12019,0.30756
6085.19144,0.30701
6083.26270,0.30557
6081.33395,0.30423
6079.40521,0.30510
6077.47646,0.30732
6075.54772,0.30766
6073.61897,0.30691
6071.69023,0.30703
6069.76148,0.30671
6067.83274,0.30565
6065.90399,0.30541
6063.97525,0.30624
6062.04650,0.30757
6060.11776,0.30886
6058.18901,0.30928
6056.26026,0.30801
6054.33152,0.30563
6052.40277,0.30452
6050.47403,0.30575
6048.54528,0.30737
6046.61654,0.30808
6044.68779,0.30844
6042.75905,0.30812
6040.83030,0.30685
6038.90156,0.30583
6036.97281,0.30514
6035.04407,0.30410
6033.11532,0.30312
6031.18658,0.30327
6029.25783,0.30446
6027.32909,0.30543
6025.40034,0.30632
6023.47159,0.30704
6021.54285,0.30620
6019.61410,0.30490
6017.68536,0.30479
6015.75661,0.30499
6013.82787,0.30478
6011.89912,0.30479
6009.97038,0.30551
6008.04163,0.30645
6006.11289,0.30685
6004.18414,0.30707
6002.25540,0.30738
6000.32665,0.30659
5998.39791,0.30490
5996.46916,0.30397
5994.54041,0.30325
5992.61167,0.30191
5990.68292,0.30180
5988.75418,0.30368
5986.82543,0.30442
5984.89669,0.30276
5982.96794,0.30220
5981.03920,0.30374
5979.11045,0.30456
5977.18171,0.30431
5975.25296,0.30425
5973.32422,0.30445
5971.39547,0.30543
5969.46673,0.30695
5967.53798,0.30704
5965.60924,0.30554
5963.68049,0.30423
5961.75174,0.30352
5959.82300,0.30313
5957.89425,0.30319
5955.96551,0.30300
5954.03676,0.30205
5952.10802,0.30137
5950.17927,0.30130
5948.25053,0.30030
5946.32178,0.29861
5944.39304,0.29858
5942.46429,0.29939
5940.53555,0.29904
5938.60680,0.29841
5936.67806,0.29821
5934.74931,0.29811
5932.82057,0.29762
5930.89182,0.29588
5928.96307,0.29347
5927.03433,0.29195
5925.10558,0.29062
5923.17684,0.28827
5921.24809,0.28557
5919.31935,0.28310
5917.39060,0.28070
5915.46186,0.27841
5913.53311,0.27634
5911.60437,0.27479
5909.67562,0.27395
5907.74688,0.27386
5905.81813,0.27361
5903.88939,0.27241
5901.96064,0.27145
5900.03189,0.27153
5898.10315,0.27214
5896.17440,0.27281
5894.24566,0.27302
5892.31691,0.27269
5890.38817,0.27261
5888.45942,0.27354
5886.53068,0.27467
5884.60193,0.27438
5882.67319,0.27313
5880.74444,0.27248
5878.81570,0.27179
5876.88695,0.27024
5874.95821,0.26892
5873.02946,0.26808
5871.10072,0.26674
5869.17197,0.26438
5867.24322,0.26080
5865.31448,0.25669
5863.38573,0.25438
5861.45699,0.25483
5859.52824,0.25598
5857.59950,0.25602
5855.67075,0.25579
5853.74201,0.25677
5851.81326,0.25844
5849.88452,0.25980
5847.95577,0.26125
5846.02703,0.26302
5844.09828,0.26464
5842.16954,0.26519
5840.24079,0.26459
5838.31205,0.26505
5836.38330,0.26716
5834.45455,0.26822
5832.52581,0.26715
5830.59706,0.26635
5828.66832,0.26726
5826.73957,0.26836
5824.81083,0.26843
5822.88208,0.26793
5820.95334,0.26676
5819.02459,0.26517
5817.09585,0.26397
5815.16710,0.26264
5813.23836,0.26117
5811.30961,0.26061
5809.38087,0.26068
5807.45212,0.26021
5805.52337,0.25842
5803.59463,0.25567
5801.66588,0.25374
5799.73714,0.25364
5797.80839,0.25412
5795.87965,0.25392
5793.95090,0.25383
5792.02216,0.25446
5790.09341,0.25534
5788.16467,0.25654
5786.23592,0.25803
5784.30718,0.25897
5782.37843,0.25935
5780.44969,0.25947
5778.52094,0.25920
5776.59220,0.25909
5774.66345,0.25959
5772.73470,0.26024
5770.80596,0.26040
5768.87721,0.25962
5766.94847,0.25831
5765.01972,0.25778
5763.09098,0.25836
5761.16223,0.25855
5759.23349,0.25783
5757.30474,0.25746
5755.37600,0.25744
5753.44725,0.25732
5751.51851,0.25824
5749.58976,0.26037
5747.66102,0.26234
5745.73227,0.26372
5743.80352,0.26500
5741.87478,0.26659
5739.94603,0.26846
5738.01729,0.26982
5736.08854,0.27067
5734.15980,0.27164
5732.23105,0.27246
5730.30231,0.27313
5728.37356,0.27448
5726.44482,0.27624
5724.51607,0.27723
5722.58733,0.27742
5720.65858,0.27711
5718.72984,0.27631
5716.80109,0.27589
5714.87235,0.27625
5712.94360,0.27697
5711.01485,0.27740
5709.08611,0.27698
5707.15736,0.27645
5705.22862,0.27659
5703.29987,0.27655
5701.37113,0.27591
5699.44238,0.27584
5697.51364,0.27671
5695.58489,0.27702
5693.65615,0.27630
5691.72740,0.27603
5689.79866,0.27666
5687.86991,0.27701
5685.94117,0.27677
5684.01242,0.27633
5682.08368,0.27589
5680.15493,0.27602
5678.22618,0.27681
5676.29744,0.27753
5674.36869,0.27784
5672.43995,0.27787
5670.51120,0.27786
5668.58246,0.27779
5666.65371,0.27719
5664.72497,0.27625
5662.79622,0.27599
5660.86748,0.27685
5658.93873,0.27803
5657.00999,0.27864
5655.08124,0.27897
5653.15250,0.27954
5651.22375,0.28033
5649.29500,0.28097
5647.36626,0.28087
5645.43751,0.28008
5643.50877,0.27937
5641.58002,0.27934
5639.65128,0.27966
5637.72253,0.27965
5635.79379,0.27952
5633.86504,0.27979
5631.93630,0.28039
5630.00755,0.28075
5628.07881,0.28063
5626.15006,0.28083
5624.22132,0.28170
5622.29257,0.28248
5620.36383,0.28295
5618.43508,0.28343
5616.50633,0.28355
5614.57759,0.28287
5612.64884,0.28249
5610.72010,0.28303
5608.79135,0.28316
5606.86261,0.28272
5604.93386,0.28272
5603.00512,0.28283
5601.07637,0.28285
5599.14763,0.28334
5597.21888,0.28430
5595.29014,0.28530
5593.36139,0.28538
5591.43265,0.28435
5589.50390,0.28386
5587.57516,0.28479
5585.64641,0.28554
5583.71766,0.28492
5581.78892,0.28418
5579.86017,0.28428
5577.93143,0.28444
5576.00268,0.28442
5574.07394,0.28477
5572.14519,0.28547
5570.21645,0.28609
5568.28770,0.28650
5566.35896,0.28656
5564.43021,0.28604
5562.50147,0.28545
5560.57272,0.28508
5558.64398,0.28427
5556.71523,0.28351
5554.78648,0.28376
5552.85774,0.28454
5550.92899,0.28544
5549.00025,0.28600
5547.07150,0.28544
5545.14276,0.28465
5543.21401,0.28441
5541.28527,0.28380
5539.35652,0.28310
5537.42778,0.28349
5535.49903,0.28435
5533.57029,0.28458
5531.64154,0.28424
5529.71280,0.28404
5527.78405,0.28447
5525.85531,0.28508
5523.92656,0.28494
5521.99781,0.28385
5520.06907,0.28281
5518.14032,0.28279
5516.21158,0.28338
5514.28283,0.28369
5512.35409,0.28381
5510.42534,0.28406
5508.49660,0.28425
5506.56785,0.28424
5504.63911,0.28415
5502.71036,0.28433
5500.78162,0.28481
5498.85287,0.28478
5496.92413,0.28392
5494.99538,0.28312
5493.06664,0.28293
5491.13789,0.28301
5489.20914,0.28294
5487.28040,0.28257
5485.35165,0.28238
5483.42291,0.28251
5481.49416,0.28250
5479.56542,0.28233
5477.63667,0.28250
5475.70793,0.28307
5473.77918,0.28362
5471.85044,0.28390
5469.92169,0.28415
5467.99295,0.28451
5466.06420,0.28477
5464.13546,0.28472
5462.20671,0.28439
5460.27796,0.28377
5458.34922,0.28305
5456.42047,0.28264
5454.49173,0.28305
5452.56298,0.28430
5450.63424,0.28572
5448.70549,0.28672
5446.77675,0.28727
5444.84800,0.28735
5442.91926,0.28668
5440.99051,0.28570
5439.06177,0.28563
5437.13302,0.28628
5435.20428,0.28648
5433.27553,0.28622
5431.34679,0.28611
5429.41804,0.28612
5427.48929,0.28626
5425.56055,0.28685
5423.63180,0.28763
5421.70306,0.28817
5419.77431,0.28848
5417.84557,0.28862
5415.91682,0.28883
5413.98808,0.28883
5412.05933,0.28808
5410.13059,0.28776
5408.20184,0.28876
5406.27310,0.28977
5404.34435,0.28994
5402.41561,0.29013
5400.48686,0.29076
5398.55811,0.29117
5396.62937,0.29139
5394.70062,0.29190
5392.77188,0.29247
5390.84313,0.29300
5388.91439,0.29331
5386.98564,0.29270
5385.05690,0.29127
5383.12815,0.29034
5381.19941,0.29064
5379.27066,0.29121
5377.34192,0.29124
5375.41317,0.29130
5373.48443,0.29119
5371.55568,0.29040
5369.62694,0.29015
5367.69819,0.29120
5365.76944,0.29281
5363.84070,0.29413
5361.91195,0.29438
5359.98321,0.29345
5358.05446,0.29236
5356.12572,0.29156
5354.19697,0.29090
5352.26823,0.29107
5350.33948,0.29220
5348.41074,0.29302
5346.48199,0.29299
5344.55325,0.29236
5342.62450,0.29166
5340.69576,0.29173
5338.76701,0.29222
5336.83827,0.29198
5334.90952,0.29112
5332.98077,0.29038
5331.05203,0.28995
5329.12328,0.29011
5327.19454,0.29068
5325.26579,0.29057
5323.33705,0.28988
5321.40830,0.28990
5319.47956,0.29054
5317.55081,0.29082
5315.62207,0.29103
5313.69332,0.29137
5311.76458,0.29125
5309.83583,0.29083
5307.90709,0.29077
5305.97834,0.29129
5304.04959,0.29210
5302.12085,0.29219
5300.19210,0.29151
5298.26336,0.29139
5296.33461,0.29201
5294.40587,0.29220
5292.47712,0.29155
5290.54838,0.29103
5288.61963,0.29166
5286.69089,0.29243
5284.76214,0.29189
5282.83340,0.29097
5280.90465,0.29085
5278.97591,0.29089
5277.04716,0.29067
5275.11842,0.29060
5273.18967,0.29109
5271.26092,0.29200
5269.33218,0.29266
5267.40343,0.29294
5265.47469,0.29288
5263.54594,0.29218
5261.61720,0.29117
5259.68845,0.29058
5257.75971,0.29098
5255.83096,0.29189
5253.90222,0.29224
5251.97347,0.29234
5250.04473,0.29269
5248.11598,0.29277
5246.18724,0.29241
5244.25849,0.29216
5242.32975,0.29249
5240.40100,0.29276
5238.47225,0.29211
5236.54351,0.29110
5234.61476,0.29060
5232.68602,0.29033
5230.75727,0.29010
5228.82853,0.29021
5226.89978,0.29068
5224.97104,0.29108
5223.04229,0.29077
5221.11355,0.28994
5219.18480,0.28939
5217.25606,0.28947
5215.32731,0.29014
5213.39857,0.29113
5211.46982,0.29195
5209.54107,0.29212
5207.61233,0.29143
5205.68358,0.29035
5203.75484,0.28987
5201.82609,0.29023
5199.89735,0.29102
5197.96860,0.29158
5196.03986,0.29132
5194.11111,0.29088
5192.18237,0.29113
5190.25362,0.29201
5188.32488,0.29300
5186.39613,0.29303
5184.46739,0.29175
5182.53864,0.29066
5180.60990,0.29054
5178.68115,0.29058
5176.75240,0.29061
5174.82366,0.29091
5172.89491,0.29122
5170.96617,0.29121
5169.03742,0.29117
5167.10868,0.29154
5165.17993,0.29186
5163.25119,0.29155
5161.32244,0.29086
5159.39370,0.29031
5157.46495,0.29035
5155.53621,0.29069
5153.60746,0.29057
5151.67872,0.29036
5149.74997,0.29063
5147.82123,0.29083
5145.89248,0.29076
5143.96373,0.29086
5142.03499,0.29101
5140.10624,0.29105
5138.17750,0.29075
5136.24875,0.29001
5134.32001,0.28976
5132.39126,0.29030
5130.46252,0.29037
5128.53377,0.28992
5126.60503,0.29028
5124.67628,0.29101
5122.74754,0.29093
5120.81879,0.29060
5118.89005,0.29104
5116.96130,0.29196
5115.03255,0.29223
5113.10381,0.29151
5111.17506,0.29067
5109.24632,0.29029
5107.31757,0.28998
5105.38883,0.28987
5103.46008,0.29044
5101.53134,0.29106
5099.60259,0.29109
5097.67385,0.29071
5095.74510,0.29003
5093.81636,0.28960
5091.88761,0.28987
5089.95887,0.29010
5088.03012,0.29003
5086.10138,0.29021
5084.17263,0.29078
5082.24388,0.29146
5080.31514,0.29167
5078.38639,0.29145
5076.45765,0.29136
5074.52890,0.29129
5072.60016,0.29106
5070.67141,0.29075
5068.74267,0.29051
5066.81392,0.29044
5064.88518,0.29027
5062.95643,0.28973
5061.02769,0.28914
5059.09894,0.28908
5057.17020,0.28978
5055.24145,0.29069
5053.31270,0.29085
5051.38396,0.29030
5049.45521,0.28968
5047.52647,0.28921
5045.59772,0.28923
5043.66898,0.28989
5041.74023,0.29060
5039.81149,0.29098
5037.88274,0.29096
5035.95400,0.29046
5034.02525,0.28994
5032.09651,0.29005
5030.16776,0.29048
5028.23902,0.29070
5026.31027,0.29063
5024.38153,0.29064
5022.45278,0.29112
5020.52403,0.29159
5018.59529,0.29151
5016.66654,0.29136
5014.73780,0.29135
5012.80905,0.29127
5010.88031,0.29097
5008.95156,0.29049
5007.02282,0.29043
5005.09407,0.29073
5003.16533,0.29064
5001.23658,0.29069
4999.30784,0.29142
4997.37909,0.29213
4995.45035,0.29238
4993.52160,0.29223
4991.59286,0.29201
4989.66411,0.29210
4987.73536,0.29240
4985.80662,0.29260
4983.87787,0.29262
4981.94913,0.29274
4980.02038,0.29294
4978.09164,0.29268
4976.16289,0.29198
4974.23415,0.29171
4972.30540,0.29213
4970.37666,0.29266
4968.44791,0.29307
4966.51917,0.29351
4964.59042,0.29364
4962.66168,0.29312
4960.73293,0.29242
4958.80418,0.29234
4956.87544,0.29269
4954.94669,0.29275
4953.01795,0.29246
4951.08920,0.29213
4949.16046,0.29189
4947.23171,0.29182
4945.30297,0.29222
4943.37422,0.29284
4941.44548,0.29293
4939.51673,0.29264
4937.58799,0.29270
4935.65924,0.29284
4933.73050,0.29267
4931.80175,0.29248
4929.87301,0.29249
4927.94426,0.29273
4926.01551,0.29319
4924.08677,0.29345
4922.15802,0.29351
4920.22928,0.29361
4918.30053,0.29333
4916.37179,0.29289
4914.44304,0.29277
4912.51430,0.29257
4910.58555,0.29240
4908.65681,0.29249
4906.72806,0.29239
4904.79932,0.29212
4902.87057,0.29206
4900.94183,0.29221
4899.01308,0.29248
4897.08434,0.29280
4895.15559,0.29298
4893.22684,0.29289
4891.29810,0.29270
4889.36935,0.29285
4887.44061,0.29345
4885.51186,0.29394
4883.58312,0.29392
4881.65437,0.29350
4879.72563,0.29302
4877.79688,0.29280
4875.86814,0.29268
4873.93939,0.29261
4872.01065,0.29290
4870.08190,0.29316
4868.15316,0.29300
4866.22441,0.29265
4864.29566,0.29216
4862.36692,0.29158
4860.43817,0.29141
4858.50943,0.29181
4856.58068,0.29247
4854.65194,0.29302
4852.72319,0.29320
4850.79445,0.29323
4848.86570,0.29326
4846.93696,0.29297
4845.00821,0.29226
4843.07947,0.29168
4841.15072,0.29179
4839.22198,0.29253
4837.29323,0.29333
4835.36449,0.29380
4833.43574,0.29379
4831.50699,0.29339
4829.57825,0.29304
4827.64950,0.29297
4825.72076,0.29295
4823.79201,0.29262
4821.86327,0.29221
4819.93452,0.29219
4818.00578,0.29210
4816.07703,0.29163
4814.14829,0.29160
4812.21954,0.29232
4810.29080,0.29287
4808.36205,0.29260
4806.43331,0.29206
4804.50456,0.29203
4802.57582,0.29251
4800.64707,0.29305
4798.71832,0.29343
4796.78958,0.29360
4794.86083,0.29353
4792.93209,0.29314
4791.00334,0.29266
4789.07460,0.29229
4787.14585,0.29187
4785.21711,0.29175
4783.28836,0.29221
4781.35962,0.29267
4779.43087,0.29282
4777.50213,0.29271
4775.57338,0.29209
4773.64464,0.29143
4771.71589,0.29160
4769.78714,0.29226
4767.85840,0.29263
4765.92965,0.29281
4764.00091,0.29299
4762.07216,0.29286
4760.14342,0.29231
4758.21467,0.29184
4756.28593,0.29196
4754.35718,0.29262
4752.42844,0.29337
4750.49969,0.29387
4748.57095,0.29389
4746.64220,0.29362
4744.71346,0.29342
4742.78471,0.29343
4740.85597,0.29366
4738.92722,0.29358
4736.99847,0.29290
4735.06973,0.29221
4733.14098,0.29200
4731.21224,0.29212
4729.28349,0.29219
4727.35475,0.29218
4725.42600,0.29239
4723.49726,0.29269
4721.56851,0.29280
4719.63977,0.29258
4717.71102,0.29211
4715.78228,0.29172
4713.85353,0.29164
4711.92479,0.29181
4709.99604,0.29202
4708.06729,0.29221
4706.13855,0.29241
4704.20980,0.29252
4702.28106,0.29224
4700.35231,0.29159
4698.42357,0.29128
4696.49482,0.29153
4694.56608,0.29198
4692.63733,0.29250
4690.70859,0.29263
4688.77984,0.29213
4686.85110,0.29180
4684.92235,0.29178
4682.99361,0.29158
4681.06486,0.29146
4679.13612,0.29165
4677.20737,0.29168
4675.27862,0.29140
4673.34988,0.29115
4671.42113,0.29087
4669.49239,0.29055
4667.56364,0.29057
4665.63490,0.29086
4663.70615,0.29117
4661.77741,0.29131
4659.84866,0.29105
4657.91992,0.29082
4655.99117,0.29101
4654.06243,0.29143
4652.13368,0.29178
4650.20494,0.29176
4648.27619,0.29111
4646.34745,0.29020
4644.41870,0.28949
4642.48995,0.28905
4640.56121,0.28895
4638.63246,0.28916
4636.70372,0.28929
4634.77497,0.28934
4632.84623,0.28947
4630.91748,0.28968
4628.98874,0.28999
4627.05999,0.29006
4625.13125,0.28980
4623.20250,0.28959
4621.27376,0.28923
4619.34501,0.28866
4617.41627,0.28838
4615.48752,0.28825
4613.55877,0.28785
4611.63003,0.28737
4609.70128,0.28699
4607.77254,0.28686
4605.84379,0.28720
4603.91505,0.28769
4601.98630,0.28763
4600.05756,0.28714
4598.12881,0.28696
4596.20007,0.28718
4594.27132,0.28720
4592.34258,0.28672
4590.41383,0.28610
4588.48509,0.28573
4586.55634,0.28555
4584.62760,0.28531
4582.69885,0.28508
4580.77010,0.28480
4578.84136,0.28438
4576.91261,0.28413
4574.98387,0.28442
4573.05512,0.28498
4571.12638,0.28522
4569.19763,0.28498
4567.26889,0.28467
4565.34014,0.28449
4563.41140,0.28421
4561.48265,0.28394
4559.55391,0.28396
4557.62516,0.28414
4555.69642,0.28418
4553.76767,0.28410
4551.83893,0.28398
4549.91018,0.28386
4547.98143,0.28379
4546.05269,0.28373
4544.12394,0.28372
4542.19520,0.28387
4540.26645,0.28382
4538.33771,0.28341
4536.40896,0.28324
4534.48022,0.28331
4532.55147,0.28320
4530.62273,0.28307
4528.69398,0.28297
4526.76524,0.28273
4524.83649,0.28255
4522.90775,0.28277
4520.97900,0.28332
4519.05025,0.28353
4517.12151,0.28308
4515.19276,0.28255
4513.26402,0.28246
4511.33527,0.28254
4509.40653,0.28235
4507.47778,0.28205
4505.54904,0.28191
4503.62029,0.28195
4501.69155,0.28229
4499.76280,0.28257
4497.83406,0.28222
4495.90531,0.28175
4493.97657,0.28175
4492.04782,0.28168
4490.11908,0.28128
4488.19033,0.28113
4486.26158,0.28127
4484.33284,0.28140
4482.40409,0.28133
4480.47535,0.28092
4478.54660,0.28040
4476.61786,0.28003
4474.68911,0.27962
4472.76037,0.27905
4470.83162,0.27855
4468.90288,0.27829
4466.97413,0.27813
4465.04539,0.27796
4463.11664,0.27777
4461.18790,0.27726
4459.25915,0.27624
4457.33041,0.27506
4455.40166,0.27408
4453.47291,0.27329
4451.54417,0.27260
4449.61542,0.27188
4447.68668,0.27085
4445.75793,0.26955
4443.82919,0.26808
4441.90044,0.26627
4439.97170,0.26422
4438.04295,0.26220
4436.11421,0.26011
4434.18546,0.25753
4432.25672,0.25438
4430.32797,0.25097
4428.39923,0.24742
4426.47048,0.24374
4424.54173,0.24000
4422.61299,0.23642
4420.68424,0.23298
4418.75550,0.22955
4416.82675,0.22615
4414.89801,0.22268
4412.96926,0.21919
4411.04052,0.21593
4409.11177,0.21295
4407.18303,0.20990
4405.25428,0.20660
4403.32554,0.20314
4401.39679,0.19959
4399.46805,0.19590
4397.53930,0.19223
4395.61056,0.18873
4393.68181,0.18567
4391.75306,0.18400
4389.82432,0.18447
4387.89557,0.18641
4385.96683,0.18851
4384.03808,0.19032
4382.10934,0.19226
4380.18059,0.19449
4378.25185,0.19660
4376.32310,0.19842
4374.39436,0.19992
4372.46561,0.20110
4370.53687,0.20222
4368.60812,0.20349
4366.67938,0.20498
4364.75063,0.20621
4362.82189,0.20657
4360.89314,0.20622
4358.96439,0.20578
4357.03565,0.20551
4355.10690,0.20501
4353.17816,0.20369
4351.24941,0.20133
4349.32067,0.19814
4347.39192,0.19443
4345.46318,0.19013
4343.53443,0.18505
4341.60569,0.17939
4339.67694,0.17337
4337.74820,0.16725
4335.81945,0.16179
4333.89071,0.15740
4331.96196,0.15357
4330.03321,0.15009
4328.10447,0.14745
4326.17572,0.14600
4324.24698,0.14581
4322.31823,0.14678
4320.38949,0.14812
4318.46074,0.14894
4316.53200,0.14934
4314.60325,0.14977
4312.67451,0.15057
4310.74576,0.15206
4308.81702,0.15410
4306.88827,0.15640
4304.95953,0.15909
4303.03078,0.16235
4301.10204,0.16600
4299.17329,0.16962
4297.24454,0.17251
4295.31580,0.17413
4293.38705,0.17474
4291.45831,0.17510
4289.52956,0.17562
4287.60082,0.17615
4285.67207,0.17643
4283.74333,0.17639
4281.81458,0.17633
4279.88584,0.17646
4277.95709,0.17667
4276.02835,0.17693
4274.09960,0.17709
4272.17086,0.17688
4270.24211,0.17622
4268.31336,0.17533
4266.38462,0.17454
4264.45587,0.17370
4262.52713,0.17252
4260.59838,0.17084
4258.66964,0.16849
4256.74089,0.16572
4254.81215,0.16290
4252.88340,0.16003
4250.95466,0.15723
4249.02591,0.15493
4247.09717,0.15310
4245.16842,0.15162
4243.23968,0.15077
4241.31093,0.15065
4239.38219,0.15126
4237.45344,0.15294
4235.52469,0.15573
4233.59595,0.15894
4231.66720,0.16191
4229.73846,0.16444
4227.80971,0.16642
4225.88097,0.16773
4223.95222,0.16837
4222.02348,0.16856
4220.09473,0.16859
4218.16599,0.16880
4216.23724,0.16920
4214.30850,0.16951
4212.37975,0.16996
4210.45101,0.17071
4208.52226,0.17142
4206.59352,0.17220
4204.66477,0.17347
4202.73602,0.17503
4200.80728,0.17658
4198.87853,0.17813
4196.94979,0.17975
4195.02104,0.18150
4193.09230,0.18313
4191.16355,0.18444
4189.23481,0.18547
4187.30606,0.18598
4185.37732,0.18579
4183.44857,0.18509
4181.51983,0.18394
4179.59108,0.18266
4177.66234,0.18165
4175.73359,0.18070
4173.80484,0.17939
4171.87610,0.17790
4169.94735,0.17662
4168.01861,0.17588
4166.08986,0.17599
4164.16112,0.17705
4162.23237,0.17864
4160.30363,0.18015
4158.37488,0.18141
4156.44614,0.18250
4154.51739,0.18356
4152.58865,0.18471
4150.65990,0.18586
4148.73116,0.18689
4146.80241,0.18779
4144.87367,0.18859
4142.94492,0.18934
4141.01617,0.19001
4139.08743,0.19049
4137.15868,0.19055
4135.22994,0.19032
4133.30119,0.19014
4131.37245,0.18991
4129.44370,0.18932
4127.51496,0.18837
4125.58621,0.18728
4123.65747,0.18630
4121.72872,0.18553
4119.79998,0.18502
4117.87123,0.18499
4115.94249,0.18542
4114.01374,0.18632
4112.08500,0.18757
4110.15625,0.18887
4108.22750,0.19016
4106.29876,0.19162
4104.37001,0.19324
4102.44127,0.19474
4100.51252,0.19596
4098.58378,0.19694
4096.65503,0.19772
4094.72629,0.19810
4092.79754,0.19791
4090.86880,0.19711
4088.94005,0.19569
4087.01131,0.19405
4085.08256,0.19248
4083.15382,0.19050
4081.22507,0.18792
4079.29632,0.18536
4077.36758,0.18313
4075.43883,0.18099
4073.51009,0.17876
4071.58134,0.17654
4069.65260,0.17435
4067.72385,0.17212
4065.79511,0.16972
4063.86636,0.16713
4061.93762,0.16502
4060.00887,0.16418
4058.08013,0.16467
4056.15138,0.16636
4054.22264,0.16933
4052.29389,0.17345
4050.36515,0.17813
4048.43640,0.18264
4046.50765,0.18675
4044.57891,0.19037
4042.65016,0.19327
4040.72142,0.19550
4038.79267,0.19734
4036.86393,0.19902
4034.93518,0.20052
4033.00644,0.20150
4031.07769,0.20212
4029.14895,0.20290
4027.22020,0.20370
4025.29146,0.20406
4023.36271,0.20401
4021.43397,0.20422
4019.50522,0.20504
4017.57648,0.20612
4015.64773,0.20712
4013.71898,0.20806
4011.79024,0.20919
4009.86149,0.21031
4007.93275,0.21090
4006.00400,0.21099
4004.07526,0.21093
4002.14651,0.21056
4000.21777,0.20974
3998.28902,0.20891
3996.36028,0.20839
3994.43153,0.20820
3992.50279,0.20850
3990.57404,0.20928
3988.64530,0.21039
3986.71655,0.21187
3984.78780,0.21360
3982.85906,0.21524
3980.93031,0.21650
3979.00157,0.21743
3977.07282,0.21831
3975.14408,0.21926
3973.21533,0.22006
3971.28659,0.22044
3969.35784,0.22054
3967.42910,0.22093
3965.50035,0.22155
3963.57161,0.22180
3961.64286,0.22164
3959.71412,0.22156
3957.78537,0.22193
3955.85663,0.22272
3953.92788,0.22354
3951.99913,0.22407
3950.07039,0.22413
3948.14164,0.22366
3946.21290,0.22294
3944.28415,0.22247
3942.35541,0.22220
3940.42666,0.22169
3938.49792,0.22090
3936.56917,0.22026
3934.64043,0.22025
3932.71168,0.22065
3930.78294,0.22087
3928.85419,0.22101
3926.92545,0.22134
3924.99670,0.22162
3923.06795,0.22198
3921.13921,0.22256
3919.21046,0.22319
3917.28172,0.22384
3915.35297,0.22458
3913.42423,0.22553
3911.49548,0.22653
3909.56674,0.22726
3907.63799,0.22780
3905.70925,0.22833
3903.78050,0.22884
3901.85176,0.22927
3899.92301,0.22940
3897.99427,0.22916
3896.06552,0.22889
3894.13678,0.22866
3892.20803,0.22857
3890.27928,0.22891
3888.35054,0.22944
3886.42179,0.22969
3884.49305,0.22954
3882.56430,0.22934
3880.63556,0.22926
3878.70681,0.22942
3876.77807,0.22985
3874.84932,0.23024
3872.92058,0.23045
3870.99183,0.23062
3869.06309,0.23084
3867.13434,0.23120
3865.20560,0.23179
3863.27685,0.23251
3861.34811,0.23315
3859.41936,0.23386
3857.49061,0.23489
3855.56187,0.23580
3853.63312,0.23613
3851.70438,0.23622
3849.77563,0.23636
3847.84689,0.23643
3845.91814,0.23638
3843.98940,0.23620
3842.06065,0.23593
3840.13191,0.23559
3838.20316,0.23518
3836.27442,0.23496
3834.34567,0.23496
3832.41693,0.23495
3830.48818,0.23497
3828.55943,0.23500
3826.63069,0.23482
3824.70194,0.23445
3822.77320,0.23410
3820.84445,0.23379
3818.91571,0.23347
3816.98696,0.23323
3815.05822,0.23335
3813.12947,0.23371
3811.20073,0.23389
3809.27198,0.23413
3807.34324,0.23478
3805.41449,0.23555
3803.48575,0.23598
3801.55700,0.23607
3799.62826,0.23610
3797.69951,0.23616
3795.77076,0.23610
3793.84202,0.23594
3791.91327,0.23605
3789.98453,0.23655
3788.05578,0.23713
3786.12704,0.23757
3784.19829,0.23787
3782.26955,0.23795
3780.34080,0.23751
3778.41206,0.23649
3776.48331,0.23530
3774.55457,0.23434
3772.62582,0.23371
3770.69708,0.23310
3768.76833,0.23219
3766.83959,0.23130
3764.91084,0.23078
3762.98209,0.23060
3761.05335,0.23078
3759.12460,0.23133
3757.19586,0.23212
3755.26711,0.23305
3753.33837,0.23416
3751.40962,0.23529
3749.48088,0.23623
3747.55213,0.23706
3745.62339,0.23779
3743.69464,0.23810
3741.76590,0.23813
3739.83715,0.23827
3737.90841,0.23856
3735.97966,0.23900
3734.05091,0.23950
3732.12217,0.23994
3730.19342,0.24048
3728.26468,0.24096
3726.33593,0.24126
3724.40719,0.24158
3722.47844,0.24178
3720.54970,0.24159
3718.62095,0.24133
3716.69221,0.24140
3714.76346,0.24165
3712.83472,0.24176
3710.90597,0.24174
3708.97723,0.24191
3707.04848,0.24219
3705.11974,0.24218
3703.19099,0.24189
3701.26224,0.24174
3699.33350,0.24173
3697.40475,0.24163
3695.47601,0.24167
3693.54726,0.24195
3691.61852,0.24227
3689.68977,0.24263
3687.76103,0.24314
3685.83228,0.24367
3683.90354,0.24401
3681.97479,0.24425
3680.04605,0.24475
3678.11730,0.24572
3676.18856,0.24702
3674.25981,0.24826
3672.33107,0.24932
3670.40232,0.25043
3668.47357,0.25160
3666.54483,0.25262
3664.61608,0.25336
3662.68734,0.25398
3660.75859,0.25480
3658.82985,0.25554
3656.90110,0.25584
3654.97236,0.25586
3653.04361,0.25579
3651.11487,0.25558
3649.18612,0.25535
3647.25738,0.25515
3645.32863,0.25468
3643.39989,0.25386
3641.47114,0.25300
3639.54239,0.25231
3637.61365,0.25174
3635.68490,0.25148
3633.75616,0.25150
3631.82741,0.25149
3629.89867,0.25155
3627.96992,0.25238
3626.04118,0.25401
3624.11243,0.25562
3622.18369,0.25664
3620.25494,0.25712
3618.32620,0.25744
3616.39745,0.25767
3614.46871,0.25785
3612.53996,0.25803
3610.61122,0.25793
3608.68247,0.25747
3606.75372,0.25716
3604.82498,0.25708
3602.89623,0.25679
3600.96749,0.25625
3599.03874,0.25586
3597.11000,0.25570
3595.18125,0.25547
3593.25251,0.25504
3591.32376,0.25460
3589.39502,0.25432
3587.46627,0.25409
3585.53753,0.25378
3583.60878,0.25361
3581.68004,0.25393
3579.75129,0.25463
3577.82254,0.25540
3575.89380,0.25601
3573.96505,0.25628
3572.03631,0.25651
3570.10756,0.25687
3568.17882,0.25702
3566.25007,0.25690
3564.32133,0.25683
3562.39258,0.25671
3560.46384,0.25643
3558.53509,0.25619
3556.60635,0.25600
3554.67760,0.25584
3552.74886,0.25576
3550.82011,0.25559
3548.89137,0.25529
3546.96262,0.25508
3545.03387,0.25491
3543.10513,0.25451
3541.17638,0.25402
3539.24764,0.25349
3537.31889,0.25285
3535.39015,0.25243
3533.46140,0.25238
3531.53266,0.25221
3529.60391,0.25172
3527.67517,0.25142
3525.74642,0.25138
3523.81768,0.25131
3521.88893,0.25116
3519.96019,0.25101
3518.03144,0.25086
3516.10270,0.25069
3514.17395,0.25052
3512.24520,0.25045
3510.31646,0.25034
3508.38771,0.24991
3506.45897,0.24943
3504.53022,0.24931
3502.60148,0.24934
3500.67273,0.24919
3498.74399,0.24890
3496.81524,0.24856
3494.88650,0.24825
3492.95775,0.24791
3491.02901,0.24738
3489.10026,0.24685
3487.17152,0.24647
3485.24277,0.24594
3483.31402,0.24526
3481.38528,0.24466
3479.45653,0.24410
3477.52779,0.24370
3475.59904,0.24348
3473.67030,0.24315
3471.74155,0.24262
3469.81281,0.24187
3467.88406,0.24092
3465.95532,0.23987
3464.02657,0.23908
3462.09783,0.23858
3460.16908,0.23802
3458.24034,0.23742
3456.31159,0.23686
3454.38285,0.23605
3452.45410,0.23498
3450.52535,0.23393
3448.59661,0.23305
3446.66786,0.23232
3444.73912,0.23155
3442.81037,0.23047
3440.88163,0.22923
3438.95288,0.22823
3437.02414,0.22743
3435.09539,0.22661
3433.16665,0.22573
3431.23790,0.22471
3429.30916,0.22361
3427.38041,0.22267
3425.45167,0.22185
3423.52292,0.22095
3421.59418,0.22001
3419.66543,0.21913
3417.73668,0.21840
3415.80794,0.21810
3413.87919,0.21812
3411.95045,0.21784
3410.02170,0.21725
3408.09296,0.21709
3406.16421,0.21768
3404.23547,0.21866
3402.30672,0.21954
3400.37798,0.22003
3398.44923,0.22012
3396.52049,0.22019
3394.59174,0.22061
3392.66300,0.22114
3390.73425,0.22124
3388.80550,0.22076
3386.87676,0.22008
3384.94801,0.21955
3383.01927,0.21902
3381.09052,0.21829
3379.16178,0.21742
3377.23303,0.21660
3375.30429,0.21584
3373.37554,0.21489
3371.44680,0.21392
3369.51805,0.21332
3367.58931,0.21289
3365.66056,0.21223
3363.73182,0.21143
3361.80307,0.21075
3359.87433,0.21015
3357.94558,0.20959
3356.01683,0.20917
3354.08809,0.20864
3352.15934,0.20771
3350.23060,0.20668
3348.30185,0.20603
3346.37311,0.20590
3344.44436,0.20600
3342.51562,0.20597
3340.58687,0.20613
3338.65813,0.20673
3336.72938,0.20741
3334.80064,0.20781
3332.87189,0.20794
3330.94315,0.20805
3329.01440,0.20822
3327.08566,0.20819
3325.15691,0.20759
3323.22816,0.20635
3321.29942,0.20470
3319.37067,0.20276
3317.44193,0.20015
3315.51318,0.19662
3313.58444,0.19243
3311.65569,0.18786
3309.72695,0.18298
3307.79820,0.17749
3305.86946,0.17128
3303.94071,0.16539
3302.01197,0.16138
3300.08322,0.16011
3298.15448,0.16145
3296.22573,0.16468
3294.29698,0.16908
3292.36824,0.17407
3290.43949,0.17895
3288.51075,0.18330
3286.58200,0.18708
3284.65326,0.19008
3282.72451,0.19230
3280.79577,0.19414
3278.86702,0.19582
3276.93828,0.19730
3275.00953,0.19843
3273.08079,0.19925
3271.15204,0.20010
3269.22330,0.20137
3267.29455,0.20282
3265.36581,0.20393
3263.43706,0.20464
3261.50831,0.20510
3259.57957,0.20544
3257.65082,0.20580
3255.72208,0.20622
3253.79333,0.20662
3251.86459,0.20686
3249.93584,0.20683
3248.00710,0.20662
3246.07835,0.20644
3244.14961,0.20601
3242.22086,0.20484
3240.29212,0.20301
3238.36337,0.20117
3236.43463,0.19959
3234.50588,0.19795
3232.57713,0.19583
3230.64839,0.19321
3228.71964,0.19046
3226.79090,0.18774
3224.86215,0.18499
3222.93341,0.18232
3221.00466,0.17976
3219.07592,0.17716
3217.14717,0.17455
3215.21843,0.17204
3213.28968,0.16953
3211.36094,0.16689
3209.43219,0.16441
3207.50345,0.16245
3205.57470,0.16097
3203.64596,0.15973
3201.71721,0.15849
3199.78846,0.15729
3197.85972,0.15632
3195.93097,0.15562
3194.00223,0.15517
3192.07348,0.15514
3190.14474,0.15553
3188.21599,0.15605
3186.28725,0.15660
3184.35850,0.15719
3182.42976,0.15778
3180.50101,0.15844
3178.57227,0.15925
3176.64352,0.16001
3174.71478,0.16049
3172.78603,0.16085
3170.85729,0.16131
3168.92854,0.16176
3166.99979,0.16214
3165.07105,0.16231
3163.14230,0.16197
3161.21356,0.16126
3159.28481,0.16071
3157.35607,0.16039
3155.42732,0.16006
3153.49858,0.15957
3151.56983,0.15878
3149.64109,0.15781
3147.71234,0.15710
3145.78360,0.15684
3143.85485,0.15671
3141.92611,0.15658
3139.99736,0.15679
3138.06861,0.15743
3136.13987,0.15821
3134.21112,0.15892
3132.28238,0.15962
3130.35363,0.16041
3128.42489,0.16136
3126.49614,0.16245
3124.56740,0.16362
3122.63865,0.16476
3120.70991,0.16558
3118.78116,0.16601
3116.85242,0.16641
3114.92367,0.16703
3112.99493,0.16759
3111.06618,0.16767
3109.13744,0.16731
3107.20869,0.16697
3105.27994,0.16693
3103.35120,0.16709
3101.42245,0.16718
3099.49371,0.16708
3097.56496,0.16685
3095.63622,0.16667
3093.70747,0.16661
3091.77873,0.16648
3089.84998,0.16618
3087.92124,0.16582
3085.99249,0.16566
3084.06375,0.16563
3082.13500,0.16528
3080.20626,0.16449
3078.27751,0.16346
3076.34877,0.16243
3074.42002,0.16158
3072.49127,0.16095
3070.56253,0.16030
3068.63378,0.15952
3066.70504,0.15866
3064.77629,0.15772
3062.84755,0.15665
3060.91880,0.15553
3058.99006,0.15442
3057.06131,0.15322
3055.13257,0.15197
3053.20382,0.15080
3051.27508,0.14965
3049.34633,0.14845
3047.41759,0.14734
3045.48884,0.14636
3043.56009,0.14522
3041.63135,0.14382
3039.70260,0.14234
3037.77386,0.14081
3035.84511,0.13927
3033.91637,0.13768
3031.98762,0.13580
3030.05888,0.13349
3028.13013,0.13071
3026.20139,0.12754
3024.27264,0.12419
3022.34390,0.12097
3020.41515,0.11779
3018.48641,0.11424
3016.55766,0.11047
3014.62892,0.10678
3012.70017,0.10279
3010.77142,0.09849
3008.84268,0.09432
3006.91393,0.09026
3004.98519,0.08608
3003.05644,0.08163
3001.12770,0.07689
2999.19895,0.07197
2997.27021,0.06694
2995.34146,0.06185
2993.41272,0.05680
2991.48397,0.05183
2989.55523,0.04722
2987.62648,0.04330
2985.69774,0.03983
2983.76899,0.03650
2981.84025,0.03345
2979.91150,0.03087
2977.98275,0.02871
2976.05401,0.02704
2974.12526,0.02584
2972.19652,0.02499
2970.26777,0.02449
2968.33903,0.02444
2966.41028,0.02498
2964.48154,0.02613
2962.55279,0.02757
2960.62405,0.02897
2958.69530,0.03007
2956.76656,0.03060
2954.83781,0.03076
2952.90907,0.03111
2950.98032,0.03191
2949.05157,0.03273
2947.12283,0.03309
2945.19408,0.03282
2943.26534,0.03208
2941.33659,0.03132
2939.40785,0.03081
2937.47910,0.03041
2935.55036,0.02992
2933.62161,0.02936
2931.69287,0.02891
2929.76412,0.02879
2927.83538,0.02915
2925.90663,0.02995
2923.97789,0.03106
2922.04914,0.03237
2920.12040,0.03396
2918.19165,0.03559
2916.26290,0.03658
2914.33416,0.03670
2912.40541,0.03629
2910.47667,0.03576
2908.54792,0.03540
2906.61918,0.03533
2904.69043,0.03534
2902.76169,0.03534
2900.83294,0.03547
2898.90420,0.03560
2896.97545,0.03544
2895.04671,0.03496
2893.11796,0.03450
2891.18922,0.03424
2889.26047,0.03411
2887.33172,0.03398
2885.40298,0.03371
2883.47423,0.03333
2881.54549,0.03315
2879.61674,0.03329
2877.68800,0.03349
2875.75925,0.03368
2873.83051,0.03390
2871.90176,0.03405
2869.97302,0.03410
2868.04427,0.03429
2866.11553,0.03481
2864.18678,0.03548
2862.25804,0.03597
2860.32929,0.03642
2858.40055,0.03697
2856.47180,0.03742
2854.54305,0.03756
2852.61431,0.03723
2850.68556,0.03627
2848.75682,0.03505
2846.82807,0.03409
2844.89933,0.03349
2842.97058,0.03330
2841.04184,0.03363
2839.11309,0.03440
2837.18435,0.03538
2835.25560,0.03640
2833.32686,0.03759
2831.39811,0.03917
2829.46937,0.04097
2827.54062,0.04273
2825.61188,0.04460
2823.68313,0.04694
2821.75438,0.04960
2819.82564,0.05218
2817.89689,0.05454
2815.96815,0.05660
2814.03940,0.05826
2812.11066,0.05976
2810.18191,0.06129
2808.25317,0.06300
2806.32442,0.06518
2804.39568,0.06808
2802.46693,0.07154
2800.53819,0.07487
2798.60944,0.07747
2796.68070,0.07931
2794.75195,0.08092
2792.82320,0.08305
2790.89446,0.08623
2788.96571,0.09046
2787.03697,0.09523
2785.10822,0.09991
2783.17948,0.10420
2781.25073,0.10811
2779.32199,0.11162
2777.39324,0.11472
2775.46450,0.11742
2773.53575,0.11959
2771.60701,0.12119
2769.67826,0.12228
2767.74952,0.12306
2765.82077,0.12388
2763.89203,0.12503
2761.96328,0.12648
2760.03453,0.12789
2758.10579,0.12901
2756.17704,0.12992
2754.24830,0.13057
2752.31955,0.13070
2750.39081,0.13031
2748.46206,0.12964
2746.53332,0.12849
2744.60457,0.12657
2742.67583,0.12410
2740.74708,0.12119
2738.81834,0.11780
2736.88959,0.11437
2734.96085,0.11136
2733.03210,0.10853
2731.10336,0.10538
2729.17461,0.10160
2727.24586,0.09725
2725.31712,0.09321
2723.38837,0.09100
2721.45963,0.09161
2719.53088,0.09476
2717.60214,0.09945
2715.67339,0.10452
2713.74465,0.10921
2711.81590,0.11350
2709.88716,0.11743
2707.95841,0.12074
2706.02967,0.12341
2704.10092,0.12588
2702.17218,0.12842
2700.24343,0.13070
2698.31468,0.13235
2696.38594,0.13322
2694.45719,0.13346
2692.52845,0.13327
2690.59970,0.13292
2688.67096,0.13279
2686.74221,0.13295
2684.81347,0.13307
2682.88472,0.13293
2680.95598,0.13269
2679.02723,0.13252
2677.09849,0.13245
2675.16974,0.13255
2673.24100,0.13300
2671.31225,0.13374
2669.38351,0.13438
2667.45476,0.13454
2665.52601,0.13431
2663.59727,0.13387
2661.66852,0.13342
2659.73978,0.13343
2657.81103,0.13434
2655.88229,0.13602
2653.95354,0.13804
2652.02480,0.13995
2650.09605,0.14140
2648.16731,0.14238
2646.23856,0.14313
2644.30982,0.14383
2642.38107,0.14461
2640.45233,0.14556
2638.52358,0.14644
2636.59484,0.14657
2634.66609,0.14567
2632.73734,0.14404
2630.80860,0.14180
2628.87985,0.13908
2626.95111,0.13619
2625.02236,0.13339
2623.09362,0.13083
2621.16487,0.12861
2619.23613,0.12669
2617.30738,0.12499
2615.37864,0.12358
2613.44989,0.12259
2611.52115,0.12214
2609.59240,0.12227
2607.66366,0.12273
2605.73491,0.12317
2603.80616,0.12357
2601.87742,0.12384
2599.94867,0.12368
2598.01993,0.12309
2596.09118,0.12228
2594.16244,0.12126
2592.23369,0.11993
2590.30495,0.11816
2588.37620,0.11584
2586.44746,0.11332
2584.51871,0.11124
2582.58997,0.11001
2580.66122,0.10966
2578.73248,0.11030
2576.80373,0.11188
2574.87499,0.11390
2572.94624,0.11603
2571.01749,0.11802
2569.08875,0.11959
2567.16000,0.12078
2565.23126,0.12175
2563.30251,0.12250
2561.37377,0.12287
2559.44502,0.12293
2557.51628,0.12287
2555.58753,0.12268
2553.65879,0.12246
2551.73004,0.12240
2549.80130,0.12252
2547.87255,0.12279
2545.94381,0.12303
2544.01506,0.12315
2542.08631,0.12293
2540.15757,0.12170
2538.22882,0.11879
2536.30008,0.11426
2534.37133,0.10899
2532.44259,0.10376
2530.51384,0.09876
2528.58510,0.09411
2526.65635,0.09015
2524.72761,0.08692
2522.79886,0.08414
2520.87012,0.08180
2518.94137,0.08014
2517.01263,0.07908
2515.08388,0.07841
2513.15514,0.07823
2511.22639,0.07864
2509.29764,0.07972
2507.36890,0.08196
2505.44015,0.08562
2503.51141,0.09025
2501.58266,0.09569
2499.65392,0.10205
2497.72517,0.10921
2495.79643,0.11687
2493.86768,0.12461
2491.93894,0.13191
2490.01019,0.13840
2488.08145,0.14397
2486.15270,0.14878
2484.22396,0.15325
2482.29521,0.15774
2480.36647,0.16231
2478.43772,0.16691
2476.50897,0.17160
2474.58023,0.17633
2472.65148,0.18075
2470.72274,0.18452
2468.79399,0.18742
2466.86525,0.18955
2464.93650,0.19110
2463.00776,0.19223
2461.07901,0.19316
2459.15027,0.19396
2457.22152,0.19439
2455.29278,0.19458
2453.36403,0.19485
2451.43529,0.19517
2449.50654,0.19541
2447.57779,0.19554
2445.64905,0.19558
2443.72030,0.19547
2441.79156,0.19503
2439.86281,0.19417
2437.93407,0.19293
2436.00532,0.19142
2434.07658,0.18981
2432.14783,0.18841
2430.21909,0.18774
2428.29034,0.18798
2426.36160,0.18880
2424.43285,0.18979
2422.50411,0.19096
2420.57536,0.19254
2418.64662,0.19427
2416.71787,0.19562
2414.78912,0.19651
2412.86038,0.19709
2410.93163,0.19730
2409.00289,0.19709
2407.07414,0.19662
2405.14540,0.19623
2403.21665,0.19598
2401.28791,0.19569
2399.35916,0.19550
2397.43042,0.19566
2395.50167,0.19617
2393.57293,0.19710
2391.64418,0.19838
2389.71544,0.19947
2387.78669,0.20003
2385.85795,0.20027
2383.92920,0.20039
2382.00045,0.20050
2380.07171,0.20051
2378.14296,0.20031
2376.21422,0.20001
2374.28547,0.19977
2372.35673,0.19970
2370.42798,0.19973
2368.49924,0.19962
2366.57049,0.19930
2364.64175,0.19889
2362.71300,0.19850
2360.78426,0.19852
2358.85551,0.19904
2356.92677,0.19968
2354.99802,0.20034
2353.06927,0.20122
2351.14053,0.20238
2349.21178,0.20370
2347.28304,0.20506
2345.35429,0.20635
2343.42555,0.20737
2341.49680,0.20812
2339.56806,0.20872
2337.63931,0.20924
2335.71057,0.20966
2333.78182,0.20996
2331.85308,0.21032
2329.92433,0.21098
2327.99559,0.21189
2326.06684,0.21283
2324.13810,0.21387
2322.20935,0.21527
2320.28060,0.21684
2318.35186,0.21807
2316.42311,0.21876
2314.49437,0.21920
2312.56562,0.21968
2310.63688,0.22021
2308.70813,0.22052
2306.77939,0.22052
2304.85064,0.22044
2302.92190,0.22038
2300.99315,0.22029
2299.06441,0.22027
2297.13566,0.22047
2295.20692,0.22087
2293.27817,0.22138
2291.34943,0.22190
2289.42068,0.22241
2287.49193,0.22288
2285.56319,0.22316
2283.63444,0.22316
2281.70570,0.22289
2279.77695,0.22213
2277.84821,0.22079
2275.91946,0.21921
2273.99072,0.21772
2272.06197,0.21640
2270.13323,0.21535
2268.20448,0.21459
2266.27574,0.21401
2264.34699,0.21336
2262.41825,0.21243
2260.48950,0.21133
2258.56075,0.21042
2256.63201,0.20990
2254.70326,0.20987
2252.77452,0.21055
2250.84577,0.21209
2248.91703,0.21416
2246.98828,0.21615
2245.05954,0.21760
2243.13079,0.21839
2241.20205,0.21859
2239.27330,0.21837
2237.34456,0.21784
2235.41581,0.21710
2233.48707,0.21618
2231.55832,0.21531
2229.62958,0.21500
2227.70083,0.21547
2225.77208,0.21636
2223.84334,0.21717
2221.91459,0.21775
2219.98585,0.21805
2218.05710,0.21802
2216.12836,0.21777
2214.19961,0.21759
2212.27087,0.21740
2210.34212,0.21697
2208.41338,0.21632
2206.48463,0.21560
2204.55589,0.21478
2202.62714,0.21387
2200.69840,0.21314
2198.76965,0.21287
2196.84090,0.21284
2194.91216,0.21267
2192.98341,0.21219
2191.05467,0.21166
2189.12592,0.21143
2187.19718,0.21129
2185.26843,0.21101
2183.33969,0.21085
2181.41094,0.21086
2179.48220,0.21074
2177.55345,0.21032
2175.62471,0.20967
2173.69596,0.20913
2171.76722,0.20895
2169.83847,0.20915
2167.90973,0.20974
2165.98098,0.21068
2164.05223,0.21162
2162.12349,0.21226
2160.19474,0.21252
2158.26600,0.21239
2156.33725,0.21193
2154.40851,0.21137
2152.47976,0.21099
2150.55102,0.21071
2148.62227,0.21032
2146.69353,0.20989
2144.76478,0.20951
2142.83604,0.20894
2140.90729,0.20791
2138.97855,0.20648
2137.04980,0.20505
2135.12106,0.20408
2133.19231,0.20390
2131.26356,0.20460
2129.33482,0.20622
2127.40607,0.20896
2125.47733,0.21277
2123.54858,0.21712
2121.61984,0.22143
2119.69109,0.22525
2117.76235,0.22827
2115.83360,0.23047
2113.90486,0.23215
2111.97611,0.23350
2110.04737,0.23440
2108.11862,0.23478
2106.18988,0.23493
2104.26113,0.23513
2102.33238,0.23547
2100.40364,0.23582
2098.47489,0.23600
2096.54615,0.23606
2094.61740,0.23610
2092.68866,0.23614
2090.75991,0.23632
2088.83117,0.23671
2086.90242,0.23724
2084.97368,0.23811
2083.04493,0.23936
2081.11619,0.24074
2079.18744,0.24209
2077.25870,0.24325
2075.32995,0.24410
2073.40121,0.24477
2071.47246,0.24540
2069.54371,0.24591
2067.61497,0.24630
2065.68622,0.24662
2063.75748,0.24668
2061.82873,0.24644
2059.89999,0.24615
2057.97124,0.24593
2056.04250,0.24573
2054.11375,0.24552
2052.18501,0.24528
2050.25626,0.24496
2048.32752,0.24468
2046.39877,0.24453
2044.47003,0.24450
2042.54128,0.24462
2040.61254,0.24476
2038.68379,0.24473
2036.75504,0.24459
2034.82630,0.24444
2032.89755,0.24411
2030.96881,0.24362
2029.04006,0.24331
2027.11132,0.24338
2025.18257,0.24371
2023.25383,0.24405
2021.32508,0.24434
2019.39634,0.24464
2017.46759,0.24496
2015.53885,0.24523
2013.61010,0.24537
2011.68136,0.24544
2009.75261,0.24550
2007.82386,0.24549
2005.89512,0.24540
2003.96637,0.24519
2002.03763,0.24479
2000.10888,0.24426
1998.18014,0.24384
1996.25139,0.24356
1994.32265,0.24330
1992.39390,0.24317
1990.46516,0.24332
1988.53641,0.24367
1986.60767,0.24410
1984.67892,0.24445
1982.75018,0.24472
1980.82143,0.24499
1978.89269,0.24531
1976.96394,0.24555
1975.03519,0.24552
1973.10645,0.24524
1971.17770,0.24482
1969.24896,0.24415
1967.32021,0.24308
1965.39147,0.24157
1963.46272,0.23959
1961.53398,0.23778
1959.60523,0.23734
1957.67649,0.23838
1955.74774,0.23986
1953.81900,0.24111
1951.89025,0.24195
1949.96151,0.24229
1948.03276,0.24225
1946.10402,0.24216
1944.17527,0.24212
1942.24652,0.24204
1940.31778,0.24188
1938.38903,0.24171
1936.46029,0.24156
1934.53154,0.24135
1932.60280,0.24101
1930.67405,0.24049
1928.74531,0.23980
1926.81656,0.23915
1924.88782,0.23865
1922.95907,0.23809
1921.03033,0.23733
1919.10158,0.23655
1917.17284,0.23592
1915.24409,0.23546
1913.31534,0.23506
1911.38660,0.23458
1909.45785,0.23408
1907.52911,0.23369
1905.60036,0.23344
1903.67162,0.23315
1901.74287,0.23261
1899.81413,0.23177
1897.88538,0.23064
1895.95664,0.22936
1894.02789,0.22843
1892.09915,0.22841
1890.17040,0.22936
1888.24166,0.23074
1886.31291,0.23202
1884.38417,0.23303
1882.45542,0.23366
1880.52667,0.23394
1878.59793,0.23404
1876.66918,0.23401
1874.74044,0.23387
1872.81169,0.23364
1870.88295,0.23334
1868.95420,0.23291
1867.02546,0.23233
1865.09671,0.23162
1863.16797,0.23086
1861.23922,0.23008
1859.31048,0.22915
1857.38173,0.22817
1855.45299,0.22732
1853.52424,0.22655
1851.59549,0.22576
1849.66675,0.22501
1847.73800,0.22426
1845.80926,0.22334
1843.88051,0.22220
1841.95177,0.22092
1840.02302,0.21948
1838.09428,0.21783
1836.16553,0.21607
1834.23679,0.21448
1832.30804,0.21322
1830.37930,0.21222
1828.45055,0.21145
1826.52181,0.21085
1824.59306,0.21017
1822.66432,0.20916
1820.73557,0.20762
1818.80682,0.20547
1816.87808,0.20274
1814.94933,0.19939
1813.02059,0.19515
1811.09184,0.18909
1809.16310,0.18011
1807.23435,0.16702
1805.30561,0.14855
1803.37686,0.12514
1801.44812,0.10073
1799.51937,0.08193
1797.59063,0.07223
1795.66188,0.06912
1793.73314,0.07022
1791.80439,0.07801
1789.87565,0.09425
1787.94690,0.11471
1786.01815,0.13443
1784.08941,0.15041
1782.16066,0.16198
1780.23192,0.17017
1778.30317,0.17577
1776.37443,0.17923
1774.44568,0.18132
1772.51694,0.18250
1770.58819,0.18259
1768.65945,0.18147
1766.73070,0.17963
1764.80196,0.17763
1762.87321,0.17537
1760.94447,0.17267
1759.01572,0.17005
1757.08697,0.16761
1755.15823,0.16514
1753.22948,0.16262
1751.30074,0.15993
1749.37199,0.15705
1747.44325,0.15408
1745.51450,0.15098
1743.58576,0.14773
1741.65701,0.14366
1739.72827,0.13833
1737.79952,0.13442
1735.87078,0.13527
1733.94203,0.13991
1732.01329,0.14236
1730.08454,0.14152
1728.15580,0.14263
1726.22705,0.14800
1724.29830,0.15450
1722.36956,0.15896
1720.44081,0.16140
1718.51207,0.16289
1716.58332,0.16373
1714.65458,0.16417
1712.72583,0.16445
1710.79709,0.16457
1708.86834,0.16467
1706.93960,0.16479
1705.01085,0.16489
1703.08211,0.16517
1701.15336,0.16553
1699.22462,0.16557
1697.29587,0.16527
1695.36713,0.16492
1693.43838,0.16478
1691.50963,0.16485
1689.58089,0.16506
1687.65214,0.16541
1685.72340,0.16574
1683.79465,0.16563
1681.86591,0.16535
1679.93716,0.16543
1678.00842,0.16567
1676.07967,0.16594
1674.15093,0.16624
1672.22218,0.16649
1670.29344,0.16661
1668.36469,0.16654
1666.43595,0.16620
1664.50720,0.16555
1662.57845,0.16453
1660.64971,0.16320
1658.72096,0.16168
1656.79222,0.16005
1654.86347,0.15784
1652.93473,0.15412
1651.00598,0.15025
1649.07724,0.14696
1647.14849,0.14227
1645.21975,0.13544
1643.29100,0.12828
1641.36226,0.12249
1639.43351,0.11983
1637.50477,0.12185
1635.57602,0.12833
1633.64728,0.13549
1631.71853,0.14039
1629.78978,0.14370
1627.86104,0.14609
1625.93229,0.14775
1624.00355,0.14894
1622.07480,0.14958
1620.14606,0.14972
1618.21731,0.14973
1616.28857,0.14973
1614.35982,0.14974
1612.43108,0.14985
1610.50233,0.15007
1608.57359,0.15027
1606.64484,0.15033
1604.71610,0.15029
1602.78735,0.15016
1600.85861,0.14984
1598.92986,0.14940
1597.00111,0.14872
1595.07237,0.14739
1593.14362,0.14519
1591.21488,0.14234
1589.28613,0.13952
1587.35739,0.13780
1585.42864,0.13758
1583.49990,0.13828
1581.57115,0.13938
1579.64241,0.14101
1577.71366,0.14324
1575.78492,0.14552
1573.85617,0.14704
1571.92743,0.14773
1569.99868,0.14768
1568.06993,0.14705
1566.14119,0.14624
1564.21244,0.14533
1562.28370,0.14435
1560.35495,0.14323
1558.42621,0.14191
1556.49746,0.14111
1554.56872,0.14112
1552.63997,0.14155
1550.71123,0.14175
1548.78248,0.14112
1546.85374,0.13973
1544.92499,0.13807
1542.99625,0.13635
1541.06750,0.13423
1539.13876,0.13158
1537.21001,0.12930
1535.28126,0.12746
1533.35252,0.12532
1531.42377,0.12280
1529.49503,0.12028
1527.56628,0.11772
1525.63754,0.11520
1523.70879,0.11277
1521.78005,0.11006
1519.85130,0.10714
1517.92256,0.10427
1515.99381,0.10122
1514.06507,0.09814
1512.13632,0.09538
1510.20758,0.09312
1508.27883,0.09095
1506.35008,0.08797
1504.42134,0.08483
1502.49259,0.08237
1500.56385,0.08002
1498.63510,0.07739
1496.70636,0.07457
1494.77761,0.07172
1492.84887,0.06901
1490.92012,0.06628
1488.99138,0.06359
1487.06263,0.06118
1485.13389,0.05891
1483.20514,0.05668
1481.27640,0.05454
1479.34765,0.05255
1477.41891,0.05062
1475.49016,0.04865
1473.56141,0.04664
1471.63267,0.04459
1469.70392,0.04278
1467.77518,0.04135
1465.84643,0.04038
1463.91769,0.03986
1461.98894,0.03966
1460.06020,0.03972
1458.13145,0.03997
1456.20271,0.04019
1454.27396,0.04044
1452.34522,0.04098
1450.41647,0.04174
1448.48773,0.04255
1446.55898,0.04334
1444.63024,0.04407
1442.70149,0.04466
1440.77274,0.04506
1438.84400,0.04539
1436.91525,0.04577
1434.98651,0.04634
1433.05776,0.04717
1431.12902,0.04818
1429.20027,0.04924
1427.27153,0.05031
1425.34278,0.05132
1423.41404,0.05224
1421.48529,0.05332
1419.55655,0.05481
1417.62780,0.05642
1415.69906,0.05789
1413.77031,0.05923
1411.84156,0.06032
1409.91282,0.06098
1407.98407,0.06101
1406.05533,0.06028
1404.12658,0.05889
1402.19784,0.05752
1400.26909,0.05678
1398.34035,0.05671
1396.41160,0.05710
1394.48286,0.05783
1392.55411,0.05844
1390.62537,0.05858
1388.69662,0.05812
1386.76788,0.05675
1384.83913,0.05412
1382.91039,0.05029
1380.98164,0.04610
1379.05289,0.04318
1377.12415,0.04275
1375.19540,0.04483
1373.26666,0.04861
1371.33791,0.05315
1369.40917,0.05785
1367.48042,0.06199
1365.55168,0.06455
1363.62293,0.06498
1361.69419,0.06397
1359.76544,0.06337
1357.83670,0.06490
1355.90795,0.06910
1353.97921,0.07504
1352.05046,0.08108
1350.12172,0.08644
1348.19297,0.09114
1346.26422,0.09539
1344.33548,0.09936
1342.40673,0.10287
1340.47799,0.10560
1338.54924,0.10742
1336.62050,0.10850
1334.69175,0.10860
1332.76301,0.10749
1330.83426,0.10606
1328.90552,0.10585
1326.97677,0.10749
1325.04803,0.11060
1323.11928,0.11435
1321.19054,0.11777
1319.26179,0.12042
1317.33304,0.12257
1315.40430,0.12468
1313.47555,0.12652
1311.54681,0.12706
1309.61806,0.12465
1307.68932,0.11831
1305.76057,0.11108
1303.83183,0.10916
1301.90308,0.11400
1299.97434,0.12052
1298.04559,0.12489
1296.11685,0.12799
1294.18810,0.13199
1292.25936,0.13726
1290.33061,0.14251
1288.40187,0.14669
1286.47312,0.14989
1284.54437,0.15257
1282.61563,0.15502
1280.68688,0.15753
1278.75814,0.16026
1276.82939,0.16282
1274.90065,0.16459
1272.97190,0.16494
1271.04316,0.16359
1269.11441,0.16121
1267.18567,0.15883
1265.25692,0.15663
1263.32818,0.15368
1261.39943,0.14844
1259.47069,0.13983
1257.54194,0.12999
1255.61320,0.12522
1253.68445,0.13005
1251.75570,0.14121
1249.82696,0.15177
1247.89821,0.15868
1245.96947,0.16278
1244.04072,0.16540
1242.11198,0.16722
1240.18323,0.16873
1238.25449,0.17025
1236.32574,0.17170
1234.39700,0.17283
1232.46825,0.17345
1230.53951,0.17332
1228.61076,0.17234
1226.68202,0.17048
1224.75327,0.16756
1222.82452,0.16379
1220.89578,0.16043
1218.96703,0.15929
1217.03829,0.16129
1215.10954,0.16542
1213.18080,0.16962
1211.25205,0.17273
1209.32331,0.17482
1207.39456,0.17603
1205.46582,0.17637
1203.53707,0.17594
1201.60833,0.17472
1199.67958,0.17282
1197.75084,0.17076
1195.82209,0.16915
1193.89335,0.16795
1191.96460,0.16646
1190.03585,0.16415
1188.10711,0.16106
1186.17836,0.15703
1184.24962,0.15160
1182.32087,0.14498
1180.39213,0.13767
1178.46338,0.12931
1176.53464,0.11874
1174.60589,0.10482
1172.67715,0.08822
1170.74840,0.07271
1168.81966,0.06279
1166.89091,0.06018
1164.96217,0.06369
1163.03342,0.07075
1161.10467,0.07876
1159.17593,0.08609
1157.24718,0.09206
1155.31844,0.09654
1153.38969,0.10064
1151.46095,0.10634
1149.53220,0.11482
1147.60346,0.12566
1145.67471,0.13783
1143.74597,0.15065
1141.81722,0.16368
1139.88848,0.17603
1137.95973,0.18671
1136.03099,0.19546
1134.10224,0.20242
1132.17350,0.20758
1130.24475,0.21098
1128.31600,0.21283
1126.38726,0.21353
1124.45851,0.21350
1122.52977,0.21283
1120.60102,0.21104
1118.67228,0.20785
1116.74353,0.20392
1114.81479,0.20007
1112.88604,0.19619
1110.95730,0.19136
1109.02855,0.18447
1107.09981,0.17503
1105.17106,0.16493
1103.24232,0.15861
1101.31357,0.15973
1099.38483,0.16784
1097.45608,0.17891
1095.52733,0.18899
1093.59859,0.19676
1091.66984,0.20234
1089.74110,0.20563
1087.81235,0.20710
1085.88361,0.20811
1083.95486,0.20982
1082.02612,0.21243
1080.09737,0.21501
1078.16863,0.21641
1076.23988,0.21668
1074.31114,0.21639
1072.38239,0.21578
1070.45365,0.21494
1068.52490,0.21401
1066.59615,0.21319
1064.66741,0.21253
1062.73866,0.21188
1060.80992,0.21115
1058.88117,0.21018
1056.95243,0.20840
1055.02368,0.20547
1053.09494,0.20163
1051.16619,0.19660
1049.23745,0.18937
1047.30870,0.18020
1045.37996,0.17250
1043.45121,0.17097
1041.52247,0.17605
1039.59372,0.18282
1037.66498,0.18712
1035.73623,0.18914
1033.80748,0.19059
1031.87874,0.19164
1029.94999,0.19152
1028.02125,0.19024
1026.09250,0.18844
1024.16376,0.18624
1022.23501,0.18360
1020.30627,0.18080
1018.37752,0.17756
1016.44878,0.17326
1014.52003,0.16807
1012.59129,0.16225
1010.66254,0.15535
1008.73380,0.14641
1006.80505,0.13435
1004.87631,0.11869
1002.94756,0.09999
1001.01881,0.08086
999.09007,0.06708
997.16132,0.06476
995.23258,0.07514
993.30383,0.09360
991.37509,0.11353
989.44634,0.12992
987.51760,0.14019
985.58885,0.14328
983.66011,0.13904
981.73136,0.12755
979.80262,0.10989
977.87387,0.08957
975.94513,0.07189
974.01638,0.06172
972.08763,0.06255
970.15889,0.07562
968.23014,0.09752
966.30140,0.12153
964.37265,0.14231
962.44391,0.15801
960.51516,0.16929
958.58642,0.17796
956.65767,0.18517
954.72893,0.19070
952.80018,0.19437
950.87144,0.19658
948.94269,0.19726
947.01395,0.19588
945.08520,0.19215
943.15646,0.18658
941.22771,0.18195
939.29896,0.18287
937.37022,0.19097
935.44147,0.20225
933.51273,0.21170
931.58398,0.21794
929.65524,0.22222
927.72649,0.22550
925.79775,0.22787
923.86900,0.22948
921.94026,0.23051
920.01151,0.23095
918.08277,0.23060
916.15402,0.22926
914.22528,0.22681
912.29653,0.22334
910.36779,0.21867
908.43904,0.21175
906.51029,0.20036
904.58155,0.18241
902.65280,0.16010
900.72406,0.14164
898.79531,0.13631
896.86657,0.14659
894.93782,0.16530
893.00908,0.18176
891.08033,0.18880
889.15159,0.18102
887.22284,0.15494
885.29410,0.11774
883.36535,0.08526
881.43661,0.06520
879.50786,0.05382
877.57911,0.04744
875.65037,0.04629
873.72162,0.05109
871.79288,0.06234
869.86413,0.08052
867.93539,0.10352
866.00664,0.12637
864.07790,0.14489
862.14915,0.15793
860.22041,0.16622
858.29166,0.17089
856.36292,0.17255
854.43417,0.17059
852.50543,0.16182
850.57668,0.14343
848.64794,0.12309
846.71919,0.11131
844.79044,0.10161
842.86170,0.08633
840.93295,0.07837
839.00421,0.09127
837.07546,0.11777
835.14672,0.14221
833.21797,0.15856
831.28923,0.16946
829.36048,0.17754
827.43174,0.18357
825.50299,0.18775
823.57425,0.19018
821.64550,0.19077
819.71676,0.18871
817.78801,0.18294
815.85926,0.17250
813.93052,0.15716
812.00177,0.13996
810.07303,0.12794
808.14428,0.12714
806.21554,0.13748
804.28679,0.15305
802.35805,0.16743
800.42930,0.17823
798.50056,0.18604
796.57181,0.19194
794.64307,0.19682
792.71432,0.20132
790.78558,0.20564
788.85683,0.20980
786.92809,0.21396
784.99934,0.21811
783.07059,0.22188
781.14185,0.22486
779.21310,0.22697
777.28436,0.22853
775.35561,0.22997
773.42687,0.23151
771.49812,0.23307
769.56938,0.23487
767.64063,0.23707
765.71189,0.23909
763.78314,0.24069
761.85440,0.24230
759.92565,0.24393
757.99691,0.24507
756.06816,0.24556
754.13942,0.24560
752.21067,0.24524
750.28192,0.24458
748.35318,0.24371
746.42443,0.24286
744.49569,0.24184
742.56694,0.24006
740.63820,0.23783
738.70945,0.23571
736.78071,0.23341
734.85196,0.23053
732.92322,0.22704
730.99447,0.22261
729.06573,0.21670
727.13698,0.20904
725.20824,0.19936
723.27949,0.18644
721.35074,0.16823
719.42200,0.14275
717.49325,0.11058
715.56451,0.07868
713.63576,0.05971
711.70702,0.06388
709.77827,0.09046
707.84953,0.12761
705.92078,0.16208
703.99204,0.18789
702.06329,0.20513
700.13455,0.21605
698.20580,0.22347
696.27706,0.22885
694.34831,0.23286
692.41957,0.23653
690.49082,0.23979
688.56207,0.24183
686.63333,0.24259
684.70458,0.24272
682.77584,0.24286
680.84709,0.24310
678.91835,0.24326
676.98960,0.24373
675.06086,0.24470
673.13211,0.24509
671.20337,0.24482
669.27462,0.24501
667.34588,0.24511
665.41713,0.24423
663.48839,0.24303
661.55964,0.24209
659.63090,0.24157
657.70215,0.24142
655.77340,0.24105
653.84466,0.24022
651.91591,0.23907
649.98717,0.23750
648.05842,0.23607
646.12968,0.23564
644.20093,0.23543
642.27219,0.23460
640.34344,0.23395
638.41470,0.23396
636.48595,0.23366
634.55721,0.23216
632.62846,0.23006
630.69972,0.22848
628.77097,0.22723
626.84222,0.22576
624.91348,0.22456
622.98473,0.22398
621.05599,0.22357
619.12724,0.22291
617.19850,0.22175
615.26975,0.22005
613.34101,0.21797
611.41226,0.21609
609.48352,0.21492
607.55477,0.21415
605.62603,0.21312
603.69728,0.21153
601.76854,0.20925
599.83979,0.20662
