7497.03301,0.31885
7495.10426,0.31780
7493.17552,0.31915
7491.24677,0.31967
7489.31803,0.31587
7487.38928,0.31219
7485.46054,0.31378
7483.53179,0.31606
7481.60305,0.31471
7479.67430,0.31202
7477.74556,0.30948
7475.81681,0.30817
7473.88807,0.30963
7471.95932,0.31111
7470.03057,0.30945
7468.10183,0.30706
7466.17308,0.30764
7464.24434,0.30998
7462.31559,0.31186
7460.38685,0.31522
7458.45810,0.32034
7456.52936,0.32202
7454.60061,0.31805
7452.67187,0.31492
7450.74312,0.31810
7448.81438,0.32432
7446.88563,0.32798
7444.95689,0.32663
7443.02814,0.32219
7441.09940,0.31926
7439.17065,0.31800
7437.24190,0.31368
7435.31316,0.30691
7433.38441,0.30517
7431.45567,0.31010
7429.52692,0.31599
7427.59818,0.31895
7425.66943,0.31855
7423.74069,0.31766
7421.81194,0.31888
7419.88320,0.32079
7417.95445,0.32190
7416.02571,0.32034
7414.09696,0.31617
7412.16822,0.31485
7410.23947,0.31843
7408.31073,0.32165
7406.38198,0.31993
7404.45323,0.31631
7402.52449,0.31539
7400.59574,0.31426
7398.66700,0.31132
7396.73825,0.31011
7394.80951,0.30979
7392.88076,0.30776
7390.95202,0.30519
7389.02327,0.30467
7387.09453,0.30765
7385.16578,0.31049
7383.23704,0.30981
7381.30829,0.31089
7379.37955,0.31623
7377.45080,0.31984
7375.52205,0.31975
7373.59331,0.31863
7371.66456,0.31752
7369.73582,0.31549
7367.80707,0.31312
7365.87833,0.31404
7363.94958,0.31826
7362.02084,0.32155
7360.09209,0.32195
7358.16335,0.31938
7356.23460,0.31503
7354.30586,0.31323
7352.37711,0.31562
7350.44837,0.31624
7348.51962,0.31210
7346.59088,0.30918
7344.66213,0.31033
7342.73338,0.31147
7340.80464,0.31087
7338.87589,0.31082
7336.94715,0.31246
7335.01840,0.31415
7333.08966,0.31322
7331.16091,0.31020
7329.23217,0.30803
7327.30342,0.30702
7325.37468,0.30822
7323.44593,0.31267
7321.51719,0.31647
7319.58844,0.31592
7317.65970,0.31216
7315.73095,0.30874
7313.80221,0.30814
7311.87346,0.30895
7309.94471,0.30833
7308.01597,0.30607
7306.08722,0.30598
7304.15848,0.31055
7302.22973,0.31513
7300.30099,0.31511
7298.37224,0.31331
7296.44350,0.31416
7294.51475,0.31693
7292.58601,0.31788
7290.65726,0.31631
7288.72852,0.31466
7286.79977,0.31508
7284.87103,0.31731
7282.94228,0.31879
7281.01353,0.31758
7279.08479,0.31372
7277.15604,0.31036
7275.22730,0.31024
7273.29855,0.31137
7271.36981,0.31260
7269.44106,0.31481
7267.51232,0.31603
7265.58357,0.31620
7263.65483,0.31840
7261.72608,0.32053
7259.79734,0.31876
7257.86859,0.31509
7255.93985,0.31209
7254.01110,0.30990
7252.08236,0.30942
7250.15361,0.31119
7248.22486,0.31357
7246.29612,0.31414
7244.36737,0.31135
7242.43863,0.30728
7240.50988,0.30650
7238.58114,0.30793
7236.65239,0.30816
7234.72365,0.30910
7232.79490,0.31173
7230.86616,0.31286
7228.93741,0.31206
7227.00867,0.31158
7225.07992,0.31153
7223.15118,0.31068
7221.22243,0.31042
7219.29369,0.31204
7217.36494,0.31328
7215.43619,0.31282
7213.50745,0.31128
7211.57870,0.30987
7209.64996,0.31078
7207.72121,0.31260
7205.79247,0.31164
7203.86372,0.30916
7201.93498,0.30747
7200.00623,0.30451
7198.07749,0.30191
7196.14874,0.30456
7194.22000,0.30928
7192.29125,0.31033
7190.36251,0.30924
7188.43376,0.30949
7186.50501,0.31028
7184.57627,0.30885
7182.64752,0.30611
7180.71878,0.30392
7178.79003,0.30251
7176.86129,0.30368
7174.93254,0.30700
7173.00380,0.30867
7171.07505,0.30730
7169.14631,0.30485
7167.21756,0.30370
7165.28882,0.30409
7163.36007,0.30419
7161.43133,0.30488
7159.50258,0.30878
7157.57384,0.31178
7155.64509,0.31069
7153.71634,0.31057
7151.78760,0.31247
7149.85885,0.31198
7147.93011,0.30926
7146.00136,0.30781
7144.07262,0.30820
7142.14387,0.30817
7140.21513,0.30765
7138.28638,0.30868
7136.35764,0.31074
7134.42889,0.31218
7132.50015,0.31325
7130.57140,0.31353
7128.64266,0.31263
7126.71391,0.31201
7124.78516,0.31117
7122.85642,0.30889
7120.92767,0.30715
7118.99893,0.30701
7117.07018,0.30627
7115.14144,0.30426
7113.21269,0.30392
7111.28395,0.30620
7109.35520,0.30776
7107.42646,0.30734
7105.49771,0.30701
7103.56897,0.30755
7101.64022,0.30858
7099.71148,0.30909
7097.78273,0.30782
7095.85399,0.30583
7093.92524,0.30611
7091.99649,0.30831
7090.06775,0.30980
7088.13900,0.31114
7086.21026,0.31241
7084.28151,0.31166
7082.35277,0.30980
7080.42402,0.30898
7078.49528,0.30988
7076.56653,0.31126
7074.63779,0.31135
7072.70904,0.31081
7070.78030,0.31111
7068.85155,0.31096
7066.92281,0.30877
7064.99406,0.30544
7063.06532,0.30293
7061.13657,0.30369
7059.20782,0.30808
7057.27908,0.31311
7055.35033,0.31615
7053.42159,0.31615
7051.49284,0.31371
7049.56410,0.31107
7047.63535,0.30960
7045.70661,0.30918
7043.77786,0.30979
7041.84912,0.31150
7039.92037,0.31345
7037.99163,0.31342
7036.06288,0.31031
7034.13414,0.30729
7032.20539,0.30727
7030.27664,0.30883
7028.34790,0.30980
7026.41915,0.31018
7024.49041,0.31122
7022.56166,0.31233
7020.63292,0.31225
7018.70417,0.31218
7016.77543,0.31228
7014.84668,0.31095
7012.91794,0.30842
7010.98919,0.30792
7009.06045,0.30969
7007.13170,0.30847
7005.20296,0.30581
7003.27421,0.30792
7001.34547,0.31099
6999.41672,0.31021
6997.48797,0.30937
6995.55923,0.31182
6993.63048,0.31443
6991.70174,0.31228
6989.77299,0.30720
6987.84425,0.30463
6985.91550,0.30555
6983.98676,0.30806
6982.05801,0.31044
6980.12927,0.31168
6978.20052,0.31265
6976.27178,0.31458
6974.34303,0.31554
6972.41429,0.31364
6970.48554,0.31162
6968.55680,0.31109
6966.62805,0.31016
6964.69930,0.30885
6962.77056,0.30816
6960.84181,0.30814
6958.91307,0.30973
6956.98432,0.31215
6955.05558,0.31315
6953.12683,0.31319
6951.19809,0.31274
6949.26934,0.31101
6947.34060,0.30984
6945.41185,0.31088
6943.48311,0.31121
6941.55436,0.30898
6939.62562,0.30800
6937.69687,0.31023
6935.76812,0.31206
6933.83938,0.31158
6931.91063,0.31127
6929.98189,0.31086
6928.05314,0.30806
6926.12440,0.30582
6924.19565,0.30770
6922.26691,0.31123
6920.33816,0.31352
6918.40942,0.31565
6916.48067,0.31725
6914.55193,0.31619
6912.62318,0.31376
6910.69444,0.31322
6908.76569,0.31499
6906.83695,0.31547
6904.90820,0.31289
6902.97945,0.31027
6901.05071,0.31056
6899.12196,0.31299
6897.19322,0.31256
6895.26447,0.30789
6893.33573,0.30537
6891.40698,0.30789
6889.47824,0.31100
6887.54949,0.31173
6885.62075,0.31196
6883.69200,0.31325
6881.76326,0.31389
6879.83451,0.31374
6877.90577,0.31513
6875.97702,0.31573
6874.04828,0.31321
6872.11953,0.31220
6870.19078,0.31342
6868.26204,0.31210
6866.33329,0.30914
6864.40455,0.30670
6862.47580,0.30476
6860.54706,0.30518
6858.61831,0.30757
6856.68957,0.30986
6854.76082,0.31156
6852.83208,0.31157
6850.90333,0.31019
6848.97459,0.30918
6847.04584,0.30867
6845.11710,0.30906
6843.18835,0.31063
6841.25960,0.31115
6839.33086,0.30920
6837.40211,0.30720
6835.47337,0.30675
6833.54462,0.30711
6831.61588,0.30929
6829.68713,0.31231
6827.75839,0.31232
6825.82964,0.31039
6823.90090,0.31008
6821.97215,0.31062
6820.04341,0.30973
6818.11466,0.30837
6816.18592,0.30907
6814.25717,0.31108
6812.32843,0.31176
6810.39968,0.31044
6808.47093,0.30781
6806.54219,0.30596
6804.61344,0.30676
6802.68470,0.30853
6800.75595,0.30853
6798.82721,0.30679
6796.89846,0.30596
6794.96972,0.30746
6793.04097,0.30991
6791.11223,0.31109
6789.18348,0.31045
6787.25474,0.31037
6785.32599,0.31154
6783.39725,0.31158
6781.46850,0.31107
6779.53975,0.31219
6777.61101,0.31409
6775.68226,0.31520
6773.75352,0.31569
6771.82477,0.31541
6769.89603,0.31380
6767.96728,0.31157
6766.03854,0.30943
6764.10979,0.30912
6762.18105,0.31209
6760.25230,0.31459
6758.32356,0.31377
6756.39481,0.31247
6754.46607,0.31245
6752.53732,0.31260
6750.60858,0.31273
6748.67983,0.31295
6746.75108,0.31329
6744.82234,0.31436
6742.89359,0.31608
6740.96485,0.31601
6739.03610,0.31315
6737.10736,0.31103
6735.17861,0.31108
6733.24987,0.31135
6731.32112,0.31213
6729.39238,0.31353
6727.46363,0.31387
6725.53489,0.31296
6723.60614,0.31182
6721.67740,0.31106
6719.74865,0.31069
6717.81991,0.31011
6715.89116,0.30944
6713.96241,0.30976
6712.03367,0.31053
6710.10492,0.31156
6708.17618,0.31252
6706.24743,0.31113
6704.31869,0.30899
6702.38994,0.30843
6700.46120,0.30812
6698.53245,0.30798
6696.60371,0.30806
6694.67496,0.30724
6692.74622,0.30733
6690.81747,0.31047
6688.88873,0.31372
6686.95998,0.31350
6685.03123,0.31230
6683.10249,0.31351
6681.17374,0.31532
6679.24500,0.31534
6677.31625,0.31392
6675.38751,0.31244
6673.45876,0.31302
6671.53002,0.31443
6669.60127,0.31231
6667.67253,0.30800
6665.74378,0.30624
6663.81504,0.30779
6661.88629,0.31010
6659.95755,0.31061
6658.02880,0.31006
6656.10006,0.31096
6654.17131,0.31263
6652.24256,0.31289
6650.31382,0.31264
6648.38507,0.31311
6646.45633,0.31288
6644.52758,0.31172
6642.59884,0.31112
6640.67009,0.31089
6638.74135,0.31019
6636.81260,0.30927
6634.88386,0.30824
6632.95511,0.30760
6631.02637,0.30896
6629.09762,0.31144
6627.16888,0.31208
6625.24013,0.31087
6623.31139,0.31000
6621.38264,0.31065
6619.45389,0.31208
6617.52515,0.31344
6615.59640,0.31544
6613.66766,0.31631
6611.73891,0.31353
6609.81017,0.31018
6607.88142,0.31011
6605.95268,0.31131
6604.02393,0.31040
6602.09519,0.30862
6600.16644,0.30948
6598.23770,0.31282
6596.30895,0.31505
6594.38021,0.31483
6592.45146,0.31330
6590.52271,0.31092
6588.59397,0.30893
6586.66522,0.30821
6584.73648,0.30757
6582.80773,0.30725
6580.87899,0.30813
6578.95024,0.30950
6577.02150,0.31056
6575.09275,0.31139
6573.16401,0.31293
6571.23526,0.31433
6569.30652,0.31327
6567.37777,0.31117
6565.44903,0.31094
6563.52028,0.31131
6561.59154,0.31037
6559.66279,0.30953
6557.73404,0.31016
6555.80530,0.31099
6553.87655,0.31060
6551.94781,0.30930
6550.01906,0.30823
6548.09032,0.30863
6546.16157,0.31107
6544.23283,0.31423
6542.30408,0.31576
6540.37534,0.31473
6538.44659,0.31217
6536.51785,0.31037
6534.58910,0.31089
6532.66036,0.31183
6530.73161,0.31183
6528.80287,0.31268
6526.87412,0.31391
6524.94537,0.31289
6523.01663,0.31054
6521.08788,0.31062
6519.15914,0.31245
6517.23039,0.31179
6515.30165,0.30920
6513.37290,0.30806
6511.44416,0.30858
6509.51541,0.30904
6507.58667,0.30892
6505.65792,0.30880
6503.72918,0.30910
6501.80043,0.31010
6499.87169,0.31207
6497.94294,0.31456
6496.01419,0.31634
6494.08545,0.31716
6492.15670,0.31686
6490.22796,0.31453
6488.29921,0.31192
6486.37047,0.31088
6484.44172,0.31039
6482.51298,0.31080
6480.58423,0.31205
6478.65549,0.31241
6476.72674,0.31222
6474.79800,0.31154
6472.86925,0.30988
6470.94051,0.30888
6469.01176,0.30981
6467.08302,0.31121
6465.15427,0.31048
6463.22552,0.30867
6461.29678,0.30954
6459.36803,0.31208
6457.43929,0.31308
6455.51054,0.31268
6453.58180,0.31189
6451.65305,0.31088
6449.72431,0.31092
6447.79556,0.31301
6445.86682,0.31455
6443.93807,0.31362
6442.00933,0.31210
6440.08058,0.31106
6438.15184,0.31018
6436.22309,0.31055
6434.29434,0.31243
6432.36560,0.31352
6430.43685,0.31333
6428.50811,0.31266
6426.57936,0.31056
6424.65062,0.30841
6422.72187,0.30880
6420.79313,0.31115
6418.86438,0.31296
6416.93564,0.31304
6415.00689,0.31293
6413.07815,0.31313
6411.14940,0.31279
6409.22066,0.31299
6407.29191,0.31341
6405.36317,0.31270
6403.43442,0.31122
6401.50567,0.30967
6399.57693,0.30928
6397.64818,0.30990
6395.71944,0.30965
6393.79069,0.30900
6391.86195,0.30953
6389.93320,0.31069
6388.00446,0.31110
6386.07571,0.31109
6384.14697,0.31171
6382.21822,0.31237
6380.28948,0.31258
6378.36073,0.31325
6376.43199,0.31375
6374.50324,0.31256
6372.57450,0.31095
6370.64575,0.31030
6368.71700,0.30997
6366.78826,0.31028
6364.85951,0.31030
6362.93077,0.30787
6361.00202,0.30546
6359.07328,0.30594
6357.14453,0.30769
6355.21579,0.30907
6353.28704,0.30975
6351.35830,0.30959
6349.42955,0.30988
6347.50081,0.31122
6345.57206,0.31163
6343.64332,0.31008
6341.71457,0.30909
6339.78582,0.31056
6337.85708,0.31233
6335.92833,0.31240
6333.99959,0.31197
6332.07084,0.31194
6330.14210,0.31179
6328.21335,0.31094
6326.28461,0.30933
6324.35586,0.30848
6322.42712,0.30941
6320.49837,0.31019
6318.56963,0.31033
6316.64088,0.31110
6314.71214,0.31095
6312.78339,0.30908
6310.85465,0.30758
6308.92590,0.30758
6306.99715,0.30902
6305.06841,0.31052
6303.13966,0.31097
6301.21092,0.31164
6299.28217,0.31236
6297.35343,0.31119
6295.42468,0.30900
6293.49594,0.30783
6291.56719,0.30790
6289.63845,0.30876
6287.70970,0.31000
6285.78096,0.31018
6283.85221,0.30847
6281.92347,0.30715
6279.99472,0.30799
6278.06598,0.30954
6276.13723,0.31070
6274.20848,0.31116
6272.27974,0.31054
6270.35099,0.31026
6268.42225,0.31096
6266.49350,0.31111
6264.56476,0.31038
6262.63601,0.30938
6260.70727,0.30794
6258.77852,0.30739
6256.84978,0.30879
6254.92103,0.30959
6252.99229,0.30879
6251.06354,0.30839
6249.13480,0.30852
6247.20605,0.30817
6245.27730,0.30794
6243.34856,0.30883
6241.41981,0.30983
6239.49107,0.31005
6237.56232,0.31018
6235.63358,0.30960
6233.70483,0.30852
6231.77609,0.30866
6229.84734,0.30930
6227.91860,0.30922
6225.98985,0.30939
6224.06111,0.31022
6222.13236,0.31037
6220.20362,0.30899
6218.27487,0.30767
6216.34613,0.30855
6214.41738,0.31129
6212.48863,0.31363
6210.55989,0.31348
6208.63114,0.31098
6206.70240,0.30915
6204.77365,0.30904
6202.84491,0.30865
6200.91616,0.30783
6198.98742,0.30780
6197.05867,0.30819
6195.12993,0.30823
6193.20118,0.30807
6191.27244,0.30784
6189.34369,0.30738
6187.41495,0.30676
6185.48620,0.30633
6183.55746,0.30675
6181.62871,0.30814
6179.69996,0.30934
6177.77122,0.30936
6175.84247,0.30916
6173.91373,0.30994
6171.98498,0.31075
6170.05624,0.31084
6168.12749,0.31080
6166.19875,0.31065
6164.27000,0.31033
6162.34126,0.30975
6160.41251,0.30889
6158.48377,0.30865
6156.55502,0.30880
6154.62628,0.30837
6152.69753,0.30759
6150.76878,0.30700
6148.84004,0.30702
6146.91129,0.30788
6144.98255,0.30902
6143.05380,0.30928
6141.12506,0.30865
6139.19631,0.30861
6137.26757,0.30904
6135.33882,0.30843
6133.41008,0.30713
6131.48133,0.30634
6129.55259,0.30609
6127.62384,0.30593
6125.69510,0.30622
6123.76635,0.30710
6121.83761,0.30728
6119.90886,0.30666
6117.98011,0.30713
6116.05137,0.30834
6114.12262,0.30799
6112.19388,0.30567
6110.26513,0.30352
6108.33639,0.30368
6106.40764,0.30578
6104.47890,0.30773
6102.55015,0.30790
6100.62141,0.30665
6098.69266,0.30628
6096.76392,0.30708
6094.83517,0.30718
6092.90643,0.30694
6090.97768,0.30797
6089.04893,0.30918
6087.12019,0.30846
6085.19144,0.30670
6083.26270,0.30593
6081.33395,0.30630
6079.40521,0.30684
6077.47646,0.30690
6075.54772,0.30679
6073.61897,0.30646
6071.69023,0.30588
6069.76148,0.30590
6067.83274,0.30658
6065.90399,0.30734
6063.97525,0.30762
6062.04650,0.30745
6060.11776,0.30792
6058.18901,0.30857
6056.26026,0.30816
6054.33152,0.30760
6052.40277,0.30740
6050.47403,0.30662
6048.54528,0.30563
6046.61654,0.30522
6044.68779,0.30564
6042.75905,0.30650
6040.83030,0.30608
6038.90156,0.30436
6036.97281,0.30407
6035.04407,0.30512
6033.11532,0.30483
6031.18658,0.30348
6029.25783,0.30309
6027.32909,0.30361
6025.40034,0.30408
6023.47159,0.30406
6021.54285,0.30389
6019.61410,0.30481
6017.68536,0.30634
6015.75661,0.30649
6013.82787,0.30573
6011.89912,0.30537
6009.97038,0.30498
6008.04163,0.30468
6006.11289,0.30518
6004.18414,0.30510
6002.25540,0.30394
6000.32665,0.30408
5998.39791,0.30584
5996.46916,0.30654
5994.54041,0.30547
5992.61167,0.30415
5990.68292,0.30326
5988.75418,0.30294
5986.82543,0.30382
5984.89669,0.30540
5982.96794,0.30641
5981.03920,0.30618
5979.11045,0.30495
5977.18171,0.30450
5975.25296,0.30529
5973.32422,0.30536
5971.39547,0.30451
5969.46673,0.30366
5967.53798,0.30272
5965.60924,0.30218
5963.68049,0.30253
5961.75174,0.30291
5959.82300,0.30314
5957.89425,0.30373
5955.96551,0.30428
5954.03676,0.30385
5952.10802,0.30191
5950.17927,0.29990
5948.25053,0.30029
5946.32178,0.30243
5944.39304,0.30284
5942.46429,0.30042
5940.53555,0.29835
5938.60680,0.29894
5936.67806,0.29956
5934.74931,0.29741
5932.82057,0.29435
5930.89182,0.29267
5928.96307,0.29171
5927.03433,0.29071
5925.10558,0.28978
5923.17684,0.28866
5921.24809,0.28723
5919.31935,0.28555
5917.39060,0.28251
5915.46186,0.27840
5913.53311,0.27553
5911.60437,0.27411
5909.67562,0.27317
5907.74688,0.27254
5905.81813,0.27161
5903.88939,0.27069
5901.96064,0.27133
5900.03189,0.27301
5898.10315,0.27377
5896.17440,0.27389
5894.24566,0.27461
5892.31691,0.27568
5890.38817,0.27605
5888.45942,0.27512
5886.53068,0.27370
5884.60193,0.27258
5882.67319,0.27119
5880.74444,0.26972
5878.81570,0.26890
5876.88695,0.26817
5874.95821,0.26677
5873.02946,0.26496
5871.10072,0.26297
5869.17197,0.26084
5867.24322,0.25886
5865.31448,0.25748
5863.38573,0.25695
5861.45699,0.25689
5859.52824,0.25702
5857.59950,0.25752
5855.67075,0.25812
5853.74201,0.25853
5851.81326,0.25851
5849.88452,0.25847
5847.95577,0.25912
5846.02703,0.25985
5844.09828,0.26107
5842.16954,0.26337
5840.24079,0.26475
5838.31205,0.26461
5836.38330,0.26518
5834.45455,0.26700
5832.52581,0.26851
5830.59706,0.26917
5828.66832,0.26899
5826.73957,0.26781
5824.81083,0.26704
5822.88208,0.26747
5820.95334,0.26735
5819.02459,0.26535
5817.09585,0.26233
5815.16710,0.25972
5813.23836,0.25810
5811.30961,0.25752
5809.38087,0.25748
5807.45212,0.25708
5805.52337,0.25653
5803.59463,0.25666
5801.66588,0.25696
5799.73714,0.25641
5797.80839,0.25552
5795.87965,0.25533
5793.95090,0.25611
5792.02216,0.25704
5790.09341,0.25744
5788.16467,0.25785
5786.23592,0.25833
5784.30718,0.25851
5782.37843,0.25897
5780.44969,0.25982
5778.52094,0.26013
5776.59220,0.25935
5774.66345,0.25844
5772.73470,0.25837
5770.80596,0.25867
5768.87721,0.25884
5766.94847,0.25890
5765.01972,0.25863
5763.09098,0.25815
5761.16223,0.25820
5759.23349,0.25897
5757.30474,0.25974
5755.37600,0.25977
5753.44725,0.25916
5751.51851,0.25917
5749.58976,0.26049
5747.66102,0.26281
5745.73227,0.26542
5743.80352,0.26725
5741.87478,0.26832
5739.94603,0.27005
5738.01729,0.27237
5736.08854,0.27357
5734.15980,0.27401
5732.23105,0.27495
5730.30231,0.27561
5728.37356,0.27514
5726.44482,0.27452
5724.51607,0.27506
5722.58733,0.27638
5720.65858,0.27721
5718.72984,0.27698
5716.80109,0.27629
5714.87235,0.27644
5712.94360,0.27760
5711.01485,0.27829
5709.08611,0.27756
5707.15736,0.27654
5705.22862,0.27692
5703.29987,0.27815
5701.37113,0.27846
5699.44238,0.27756
5697.51364,0.27686
5695.58489,0.27725
5693.65615,0.27754
5691.72740,0.27723
5689.79866,0.27731
5687.86991,0.27775
5685.94117,0.27825
5684.01242,0.27882
5682.08368,0.27871
5680.15493,0.27806
5678.22618,0.27792
5676.29744,0.27798
5674.36869,0.27792
5672.43995,0.27816
5670.51120,0.27812
5668.58246,0.27707
5666.65371,0.27569
5664.72497,0.27527
5662.79622,0.27641
5660.86748,0.27794
5658.93873,0.27835
5657.00999,0.27792
5655.08124,0.27728
5653.15250,0.27693
5651.22375,0.27766
5649.29500,0.27841
5647.36626,0.27833
5645.43751,0.27900
5643.50877,0.28035
5641.58002,0.28077
5639.65128,0.28058
5637.72253,0.28075
5635.79379,0.28124
5633.86504,0.28166
5631.93630,0.28174
5630.00755,0.28151
5628.07881,0.28118
5626.15006,0.28141
5624.22132,0.28273
5622.29257,0.28404
5620.36383,0.28413
5618.43508,0.28372
5616.50633,0.28364
5614.57759,0.28390
5612.64884,0.28478
5610.72010,0.28553
5608.79135,0.28494
5606.86261,0.28431
5604.93386,0.28516
5603.00512,0.28570
5601.07637,0.28440
5599.14763,0.28310
5597.21888,0.28373
5595.29014,0.28499
5593.36139,0.28495
5591.43265,0.28404
5589.50390,0.28363
5587.57516,0.28390
5585.64641,0.28454
5583.71766,0.28545
5581.78892,0.28584
5579.86017,0.28520
5577.93143,0.28455
5576.00268,0.28458
5574.07394,0.28474
5572.14519,0.28427
5570.21645,0.28342
5568.28770,0.28347
5566.35896,0.28449
5564.43021,0.28500
5562.50147,0.28500
5560.57272,0.28535
5558.64398,0.28529
5556.71523,0.28501
5554.78648,0.28581
5552.85774,0.28633
5550.92899,0.28509
5549.00025,0.28374
5547.07150,0.28370
5545.14276,0.28404
5543.21401,0.28409
5541.28527,0.28409
5539.35652,0.28400
5537.42778,0.28414
5535.49903,0.28453
5533.57029,0.28440
5531.64154,0.28377
5529.71280,0.28308
5527.78405,0.28273
5525.85531,0.28282
5523.92656,0.28308
5521.99781,0.28376
5520.06907,0.28461
5518.14032,0.28505
5516.21158,0.28538
5514.28283,0.28542
5512.35409,0.28452
5510.42534,0.28299
5508.49660,0.28189
5506.56785,0.28163
5504.63911,0.28147
5502.71036,0.28115
5500.78162,0.28120
5498.85287,0.28142
5496.92413,0.28142
5494.99538,0.28154
5493.06664,0.28186
5491.13789,0.28237
5489.20914,0.28306
5487.28040,0.28320
5485.35165,0.28294
5483.42291,0.28324
5481.49416,0.28366
5479.56542,0.28361
5477.63667,0.28341
5475.70793,0.28336
5473.77918,0.28361
5471.85044,0.28371
5469.92169,0.28333
5467.99295,0.28333
5466.06420,0.28404
5464.13546,0.28447
5462.20671,0.28410
5460.27796,0.28358
5458.34922,0.28360
5456.42047,0.28454
5454.49173,0.28585
5452.56298,0.28605
5450.63424,0.28531
5448.70549,0.28568
5446.77675,0.28713
5444.84800,0.28769
5442.91926,0.28690
5440.99051,0.28562
5439.06177,0.28449
5437.13302,0.28394
5435.20428,0.28433
5433.27553,0.28547
5431.34679,0.28620
5429.41804,0.28620
5427.48929,0.28644
5425.56055,0.28702
5423.63180,0.28748
5421.70306,0.28797
5419.77431,0.28826
5417.84557,0.28827
5415.91682,0.28867
5413.98808,0.28931
5412.05933,0.28940
5410.13059,0.28922
5408.20184,0.28923
5406.27310,0.28929
5404.34435,0.28902
5402.41561,0.28811
5400.48686,0.28741
5398.55811,0.28816
5396.62937,0.28932
5394.70062,0.28916
5392.77188,0.28868
5390.84313,0.28904
5388.91439,0.28975
5386.98564,0.29064
5385.05690,0.29148
5383.12815,0.29127
5381.19941,0.29032
5379.27066,0.29027
5377.34192,0.29127
5375.41317,0.29208
5373.48443,0.29203
5371.55568,0.29128
5369.62694,0.29049
5367.69819,0.29029
5365.76944,0.29085
5363.84070,0.29157
5361.91195,0.29148
5359.98321,0.29125
5358.05446,0.29189
5356.12572,0.29272
5354.19697,0.29286
5352.26823,0.29222
5350.33948,0.29121
5348.41074,0.29011
5346.48199,0.28907
5344.55325,0.28857
5342.62450,0.28872
5340.69576,0.28946
5338.76701,0.29114
5336.83827,0.29303
5334.90952,0.29365
5332.98077,0.29307
5331.05203,0.29238
5329.12328,0.29198
5327.19454,0.29144
5325.26579,0.29087
5323.33705,0.29072
5321.40830,0.29079
5319.47956,0.29091
5317.55081,0.29105
5315.62207,0.29085
5313.69332,0.29020
5311.76458,0.28959
5309.83583,0.28965
5307.90709,0.29056
5305.97834,0.29162
5304.04959,0.29194
5302.12085,0.29156
5300.19210,0.29118
5298.26336,0.29130
5296.33461,0.29168
5294.40587,0.29173
5292.47712,0.29143
5290.54838,0.29129
5288.61963,0.29150
5286.69089,0.29172
5284.76214,0.29160
5282.83340,0.29128
5280.90465,0.29136
5278.97591,0.29203
5277.04716,0.29270
5275.11842,0.29263
5273.18967,0.29160
5271.26092,0.29001
5269.33218,0.28899
5267.40343,0.28950
5265.47469,0.29092
5263.54594,0.29196
5261.61720,0.29206
5259.68845,0.29168
5257.75971,0.29157
5255.83096,0.29173
5253.90222,0.29155
5251.97347,0.29102
5250.04473,0.29084
5248.11598,0.29138
5246.18724,0.29187
5244.25849,0.29155
5242.32975,0.29091
5240.40100,0.29089
5238.47225,0.29137
5236.54351,0.29158
5234.61476,0.29143
5232.68602,0.29106
5230.75727,0.29067
5228.82853,0.29068
5226.89978,0.29104
5224.97104,0.29149
5223.04229,0.29186
5221.11355,0.29182
5219.18480,0.29136
5217.25606,0.29098
5215.32731,0.29117
5213.39857,0.29175
5211.46982,0.29179
5209.54107,0.29104
5207.61233,0.29037
5205.68358,0.29004
5203.75484,0.29002
5201.82609,0.29066
5199.89735,0.29141
5197.96860,0.29172
5196.03986,0.29205
5194.11111,0.29240
5192.18237,0.29219
5190.25362,0.29163
5188.32488,0.29138
5186.39613,0.29160
5184.46739,0.29174
5182.53864,0.29131
5180.60990,0.29086
5178.68115,0.29117
5176.75240,0.29167
5174.82366,0.29173
5172.89491,0.29163
5170.96617,0.29137
5169.03742,0.29109
5167.10868,0.29144
5165.17993,0.29190
5163.25119,0.29169
5161.32244,0.29143
5159.39370,0.29162
5157.46495,0.29158
5155.53621,0.29100
5153.60746,0.29058
5151.67872,0.29079
5149.74997,0.29135
5147.82123,0.29192
5145.89248,0.29228
5143.96373,0.29205
5142.03499,0.29169
5140.10624,0.29180
5138.17750,0.29166
5136.24875,0.29099
5134.32001,0.29075
5132.39126,0.29107
5130.46252,0.29124
5128.53377,0.29099
5126.60503,0.29062
5124.67628,0.29052
5122.74754,0.29058
5120.81879,0.29057
5118.89005,0.29067
5116.96130,0.29114
5115.03255,0.29153
5113.10381,0.29120
5111.17506,0.29055
5109.24632,0.29030
5107.31757,0.29039
5105.38883,0.29076
5103.46008,0.29136
5101.53134,0.29148
5099.60259,0.29089
5097.67385,0.29030
5095.74510,0.29019
5093.81636,0.29034
5091.88761,0.29051
5089.95887,0.29097
5088.03012,0.29172
5086.10138,0.29204
5084.17263,0.29168
5082.24388,0.29100
5080.31514,0.29049
5078.38639,0.29049
5076.45765,0.29091
5074.52890,0.29144
5072.60016,0.29161
5070.67141,0.29101
5068.74267,0.29018
5066.81392,0.28993
5064.88518,0.29014
5062.95643,0.29028
5061.02769,0.29014
5059.09894,0.28960
5057.17020,0.28880
5055.24145,0.28867
5053.31270,0.28939
5051.38396,0.28993
5049.45521,0.28985
5047.52647,0.28937
5045.59772,0.28893
5043.66898,0.28924
5041.74023,0.28998
5039.81149,0.29013
5037.88274,0.28974
5035.95400,0.28960
5034.02525,0.28986
5032.09651,0.29035
5030.16776,0.29091
5028.23902,0.29113
5026.31027,0.29112
5024.38153,0.29154
5022.45278,0.29218
5020.52403,0.29230
5018.59529,0.29197
5016.66654,0.29173
5014.73780,0.29152
5012.80905,0.29100
5010.88031,0.29051
5008.95156,0.29065
5007.02282,0.29116
5005.09407,0.29137
5003.16533,0.29125
5001.23658,0.29136
4999.30784,0.29177
4997.37909,0.29172
4995.45035,0.29124
4993.52160,0.29138
4991.59286,0.29212
4989.66411,0.29243
4987.73536,0.29233
4985.80662,0.29256
4983.87787,0.29308
4981.94913,0.29343
4980.02038,0.29334
4978.09164,0.29297
4976.16289,0.29261
4974.23415,0.29221
4972.30540,0.29203
4970.37666,0.29239
4968.44791,0.29251
4966.51917,0.29184
4964.59042,0.29130
4962.66168,0.29156
4960.73293,0.29211
4958.80418,0.29226
4956.87544,0.29195
4954.94669,0.29166
4953.01795,0.29170
4951.08920,0.29229
4949.16046,0.29299
4947.23171,0.29307
4945.30297,0.29299
4943.37422,0.29320
4941.44548,0.29330
4939.51673,0.29317
4937.58799,0.29301
4935.65924,0.29311
4933.73050,0.29323
4931.80175,0.29293
4929.87301,0.29258
4927.94426,0.29261
4926.01551,0.29275
4924.08677,0.29267
4922.15802,0.29243
4920.22928,0.29243
4918.30053,0.29289
4916.37179,0.29323
4914.44304,0.29295
4912.51430,0.29250
4910.58555,0.29238
4908.65681,0.29239
4906.72806,0.29247
4904.79932,0.29264
4902.87057,0.29277
4900.94183,0.29302
4899.01308,0.29341
4897.08434,0.29356
4895.15559,0.29352
4893.22684,0.29353
4891.29810,0.29354
4889.36935,0.29348
4887.44061,0.29320
4885.51186,0.29271
4883.58312,0.29233
4881.65437,0.29217
4879.72563,0.29208
4877.79688,0.29198
4875.86814,0.29203
4873.93939,0.29239
4872.01065,0.29279
4870.08190,0.29319
4868.15316,0.29354
4866.22441,0.29317
4864.29566,0.29215
4862.36692,0.29155
4860.43817,0.29171
4858.50943,0.29202
4856.58068,0.29221
4854.65194,0.29228
4852.72319,0.29220
4850.79445,0.29206
4848.86570,0.29193
4846.93696,0.29184
4845.00821,0.29193
4843.07947,0.29225
4841.15072,0.29259
4839.22198,0.29254
4837.29323,0.29222
4835.36449,0.29230
4833.43574,0.29267
4831.50699,0.29252
4829.57825,0.29203
4827.64950,0.29195
4825.72076,0.29191
4823.79201,0.29150
4821.86327,0.29143
4819.93452,0.29195
4818.00578,0.29230
4816.07703,0.29217
4814.14829,0.29192
4812.21954,0.29181
4810.29080,0.29180
4808.36205,0.29196
4806.43331,0.29226
4804.50456,0.29245
4802.57582,0.29244
4800.64707,0.29250
4798.71832,0.29273
4796.78958,0.29241
4794.86083,0.29163
4792.93209,0.29170
4791.00334,0.29240
4789.07460,0.29219
4787.14585,0.29120
4785.21711,0.29086
4783.28836,0.29138
4781.35962,0.29186
4779.43087,0.29189
4777.50213,0.29144
4775.57338,0.29106
4773.64464,0.29128
4771.71589,0.29163
4769.78714,0.29180
4767.85840,0.29212
4765.92965,0.29251
4764.00091,0.29253
4762.07216,0.29209
4760.14342,0.29174
4758.21467,0.29178
4756.28593,0.29188
4754.35718,0.29193
4752.42844,0.29202
4750.49969,0.29201
4748.57095,0.29202
4746.64220,0.29204
4744.71346,0.29188
4742.78471,0.29216
4740.85597,0.29292
4738.92722,0.29315
4736.99847,0.29256
4735.06973,0.29205
4733.14098,0.29215
4731.21224,0.29252
4729.28349,0.29277
4727.35475,0.29261
4725.42600,0.29209
4723.49726,0.29198
4721.56851,0.29247
4719.63977,0.29279
4717.71102,0.29264
4715.78228,0.29225
4713.85353,0.29194
4711.92479,0.29214
4709.99604,0.29260
4708.06729,0.29267
4706.13855,0.29232
4704.20980,0.29178
4702.28106,0.29133
4700.35231,0.29121
4698.42357,0.29145
4696.49482,0.29188
4694.56608,0.29192
4692.63733,0.29132
4690.70859,0.29082
4688.77984,0.29112
4686.85110,0.29183
4684.92235,0.29228
4682.99361,0.29245
4681.06486,0.29220
4679.13612,0.29150
4677.20737,0.29117
4675.27862,0.29159
4673.34988,0.29187
4671.42113,0.29156
4669.49239,0.29127
4667.56364,0.29133
4665.63490,0.29120
4663.70615,0.29076
4661.77741,0.29067
4659.84866,0.29101
4657.91992,0.29118
4655.99117,0.29103
4654.06243,0.29077
4652.13368,0.29065
4650.20494,0.29066
4648.27619,0.29045
4646.34745,0.29002
4644.41870,0.28998
4642.48995,0.29031
4640.56121,0.29014
4638.63246,0.28964
4636.70372,0.28947
4634.77497,0.28933
4632.84623,0.28902
4630.91748,0.28898
4628.98874,0.28919
4627.05999,0.28916
4625.13125,0.28900
4623.20250,0.28911
4621.27376,0.28908
4619.34501,0.28837
4617.41627,0.28764
4615.48752,0.28764
4613.55877,0.28790
4611.63003,0.28784
4609.70128,0.28777
4607.77254,0.28796
4605.84379,0.28814
4603.91505,0.28807
4601.98630,0.28795
4600.05756,0.28779
4598.12881,0.28732
4596.20007,0.28673
4594.27132,0.28646
4592.34258,0.28630
4590.41383,0.28609
4588.48509,0.28608
4586.55634,0.28607
4584.62760,0.28561
4582.69885,0.28488
4580.77010,0.28451
4578.84136,0.28456
4576.91261,0.28445
4574.98387,0.28419
4573.05512,0.28428
4571.12638,0.28454
4569.19763,0.28445
4567.26889,0.28412
4565.34014,0.28390
4563.41140,0.28378
4561.48265,0.28375
4559.55391,0.28376
4557.62516,0.28378
4555.69642,0.28408
4553.76767,0.28451
4551.83893,0.28436
4549.91018,0.28377
4547.98143,0.28357
4546.05269,0.28384
4544.12394,0.28384
4542.19520,0.28332
4540.26645,0.28294
4538.33771,0.28312
4536.40896,0.28342
4534.48022,0.28349
4532.55147,0.28348
4530.62273,0.28365
4528.69398,0.28399
4526.76524,0.28400
4524.83649,0.28345
4522.90775,0.28314
4520.97900,0.28347
4519.05025,0.28348
4517.12151,0.28283
4515.19276,0.28216
4513.26402,0.28180
4511.33527,0.28182
4509.40653,0.28206
4507.47778,0.28221
4505.54904,0.28217
4503.62029,0.28194
4501.69155,0.28170
4499.76280,0.28169
4497.83406,0.28199
4495.90531,0.28238
4493.97657,0.28238
4492.04782,0.28197
4490.11908,0.28171
4488.19033,0.28167
4486.26158,0.28135
4484.33284,0.28079
4482.40409,0.28035
4480.47535,0.27996
4478.54660,0.27947
4476.61786,0.27895
4474.68911,0.27854
4472.76037,0.27835
4470.83162,0.27824
4468.90288,0.27809
4466.97413,0.27786
4465.04539,0.27759
4463.11664,0.27764
4461.18790,0.27783
4459.25915,0.27715
4457.33041,0.27551
4455.40166,0.27402
4453.47291,0.27327
4451.54417,0.27283
4449.61542,0.27200
4447.68668,0.27044
4445.75793,0.26871
4443.82919,0.26736
4441.90044,0.26599
4439.97170,0.26410
4438.04295,0.26197
4436.11421,0.25977
4434.18546,0.25710
4432.25672,0.25385
4430.32797,0.25049
4428.39923,0.24724
4426.47048,0.24384
4424.54173,0.24016
4422.61299,0.23641
4420.68424,0.23277
4418.75550,0.22926
4416.82675,0.22558
4414.89801,0.22165
4412.96926,0.21815
4411.04052,0.21536
4409.11177,0.21268
4407.18303,0.20958
4405.25428,0.20601
4403.32554,0.20224
4401.39679,0.19853
4399.46805,0.19494
4397.53930,0.19138
4395.61056,0.18790
4393.68181,0.18518
4391.75306,0.18410
4389.82432,0.18479
4387.89557,0.18657
4385.96683,0.18862
4384.03808,0.19046
4382.10934,0.19222
4380.18059,0.19406
4378.25185,0.19586
4376.32310,0.19760
4374.39436,0.19937
4372.46561,0.20101
4370.53687,0.20236
4368.60812,0.20341
4366.67938,0.20425
4364.75063,0.20499
4362.82189,0.20556
4360.89314,0.20589
4358.96439,0.20606
4357.03565,0.20597
4355.10690,0.20514
4353.17816,0.20320
4351.24941,0.20036
4349.32067,0.19715
4347.39192,0.19371
4345.46318,0.18986
4343.53443,0.18520
4341.60569,0.17955
4339.67694,0.17346
4337.74820,0.16763
4335.81945,0.16227
4333.89071,0.15735
4331.96196,0.15298
4330.03321,0.14949
4328.10447,0.14727
4326.17572,0.14638
4324.24698,0.14626
4322.31823,0.14643
4320.38949,0.14699
4318.46074,0.14801
4316.53200,0.14899
4314.60325,0.14950
4312.67451,0.14998
4310.74576,0.15123
4308.81702,0.15347
4306.88827,0.15623
4304.95953,0.15910
4303.03078,0.16219
4301.10204,0.16565
4299.17329,0.16902
4297.24454,0.17169
4295.31580,0.17358
4293.38705,0.17488
4291.45831,0.17566
4289.52956,0.17590
4287.60082,0.17575
4285.67207,0.17541
4283.74333,0.17509
4281.81458,0.17511
4279.88584,0.17552
4277.95709,0.17595
4276.02835,0.17616
4274.09960,0.17636
4272.17086,0.17662
4270.24211,0.17648
4268.31336,0.17568
4266.38462,0.17450
4264.45587,0.17312
4262.52713,0.17150
4260.59838,0.16950
4258.66964,0.16728
4256.74089,0.16522
4254.81215,0.16336
4252.88340,0.16142
4250.95466,0.15914
4249.02591,0.15659
4247.09717,0.15413
4245.16842,0.15215
4243.23968,0.15108
4241.31093,0.15108
4239.38219,0.15205
4237.45344,0.15398
4235.52469,0.15657
4233.59595,0.15937
4231.66720,0.16213
4229.73846,0.16444
4227.80971,0.16609
4225.88097,0.16726
4223.95222,0.16817
4222.02348,0.16894
4220.09473,0.16947
4218.16599,0.16959
4216.23724,0.16945
4214.30850,0.16942
4212.37975,0.16983
4210.45101,0.17069
4208.52226,0.17172
4206.59352,0.17274
4204.66477,0.17399
4202.73602,0.17546
4200.80728,0.17690
4198.87853,0.17834
4196.94979,0.17976
4195.02104,0.18126
4193.09230,0.18303
4191.16355,0.18461
4189.23481,0.18554
4187.30606,0.18593
4185.37732,0.18593
4183.44857,0.18534
4181.51983,0.18414
4179.59108,0.18282
4177.66234,0.18176
4175.73359,0.18063
4173.80484,0.17914
4171.87610,0.17745
4169.94735,0.17608
4168.01861,0.17548
4166.08986,0.17558
4164.16112,0.17662
4162.23237,0.17847
4160.30363,0.18015
4158.37488,0.18148
4156.44614,0.18283
4154.51739,0.18390
4152.58865,0.18471
4150.65990,0.18592
4148.73116,0.18739
4146.80241,0.18845
4144.87367,0.18901
4142.94492,0.18946
4141.01617,0.18993
4139.08743,0.19025
4137.15868,0.19038
4135.22994,0.19031
4133.30119,0.18993
4131.37245,0.18942
4129.44370,0.18875
4127.51496,0.18777
4125.58621,0.18676
4123.65747,0.18592
4121.72872,0.18518
4119.79998,0.18468
4117.87123,0.18468
4115.94249,0.18527
4114.01374,0.18625
4112.08500,0.18725
4110.15625,0.18813
4108.22750,0.18904
4106.29876,0.19040
4104.37001,0.19226
4102.44127,0.19419
4100.51252,0.19592
4098.58378,0.19728
4096.65503,0.19802
4094.72629,0.19813
4092.79754,0.19784
4090.86880,0.19721
4088.94005,0.19605
4087.01131,0.19451
4085.08256,0.19264
4083.15382,0.19028
4081.22507,0.18782
4079.29632,0.18548
4077.36758,0.18308
4075.43883,0.18074
4073.51009,0.17858
4071.58134,0.17634
4069.65260,0.17384
4067.72385,0.17127
4065.79511,0.16889
4063.86636,0.16670
4061.93762,0.16484
4060.00887,0.16389
4058.08013,0.16432
4056.15138,0.16616
4054.22264,0.16931
4052.29389,0.17347
4050.36515,0.17801
4048.43640,0.18239
4046.50765,0.18638
4044.57891,0.18991
4042.65016,0.19301
4040.72142,0.19553
4038.79267,0.19739
4036.86393,0.19865
4034.93518,0.19945
4033.00644,0.20021
4031.07769,0.20125
4029.14895,0.20242
4027.22020,0.20330
4025.29146,0.20382
4023.36271,0.20423
4021.43397,0.20479
4019.50522,0.20561
4017.57648,0.20658
4015.64773,0.20755
4013.71898,0.20844
4011.79024,0.20936
4009.86149,0.21022
4007.93275,0.21084
4006.00400,0.21123
4004.07526,0.21135
4002.14651,0.21104
4000.21777,0.21024
3998.28902,0.20914
3996.36028,0.20833
3994.43153,0.20816
3992.50279,0.20840
3990.57404,0.20894
3988.64530,0.20993
3986.71655,0.21130
3984.78780,0.21286
3982.85906,0.21462
3980.93031,0.21642
3979.00157,0.21772
3977.07282,0.21851
3975.14408,0.21923
3973.21533,0.21986
3971.28659,0.22039
3969.35784,0.22090
3967.42910,0.22127
3965.50035,0.22146
3963.57161,0.22159
3961.64286,0.22177
3959.71412,0.22215
3957.78537,0.22264
3955.85663,0.22299
3953.92788,0.22325
3951.99913,0.22359
3950.07039,0.22384
3948.14164,0.22378
3946.21290,0.22352
3944.28415,0.22320
3942.35541,0.22270
3940.42666,0.22209
3938.49792,0.22156
3936.56917,0.22102
3934.64043,0.22050
3932.71168,0.22020
3930.78294,0.22029
3928.85419,0.22073
3926.92545,0.22118
3924.99670,0.22134
3923.06795,0.22133
3921.13921,0.22158
3919.21046,0.22206
3917.28172,0.22272
3915.35297,0.22365
3913.42423,0.22475
3911.49548,0.22573
3909.56674,0.22649
3907.63799,0.22720
3905.70925,0.22781
3903.78050,0.22807
3901.85176,0.22811
3899.92301,0.22813
3897.99427,0.22807
3896.06552,0.22791
3894.13678,0.22797
3892.20803,0.22846
3890.27928,0.22900
3888.35054,0.22928
3886.42179,0.22944
3884.49305,0.22947
3882.56430,0.22947
3880.63556,0.22957
3878.70681,0.22972
3876.77807,0.22996
3874.84932,0.23035
3872.92058,0.23070
3870.99183,0.23092
3869.06309,0.23130
3867.13434,0.23190
3865.20560,0.23235
3863.27685,0.23256
3861.34811,0.23304
3859.41936,0.23392
3857.49061,0.23487
3855.56187,0.23570
3853.63312,0.23628
3851.70438,0.23636
3849.77563,0.23623
3847.84689,0.23617
3845.91814,0.23619
3843.98940,0.23616
3842.06065,0.23598
3840.13191,0.23566
3838.20316,0.23519
3836.27442,0.23462
3834.34567,0.23448
3832.41693,0.23482
3830.48818,0.23505
3828.55943,0.23505
3826.63069,0.23503
3824.70194,0.23493
3822.77320,0.23455
3820.84445,0.23408
3818.91571,0.23383
3816.98696,0.23372
3815.05822,0.23357
3813.12947,0.23349
3811.20073,0.23382
3809.27198,0.23451
3807.34324,0.23495
3805.41449,0.23490
3803.48575,0.23479
3801.55700,0.23484
3799.62826,0.23505
3797.69951,0.23546
3795.77076,0.23606
3793.84202,0.23677
3791.91327,0.23729
3789.98453,0.23738
3788.05578,0.23729
3786.12704,0.23750
3784.19829,0.23789
3782.26955,0.23782
3780.34080,0.23729
3778.41206,0.23682
3776.48331,0.23633
3774.55457,0.23548
3772.62582,0.23444
3770.69708,0.23331
3768.76833,0.23193
3766.83959,0.23068
3764.91084,0.23020
3762.98209,0.23048
3761.05335,0.23108
3759.12460,0.23179
3757.19586,0.23256
3755.26711,0.23331
3753.33837,0.23412
3751.40962,0.23520
3749.48088,0.23625
3747.55213,0.23678
3745.62339,0.23716
3743.69464,0.23779
3741.76590,0.23853
3739.83715,0.23923
3737.90841,0.23970
3735.97966,0.23985
3734.05091,0.24006
3732.12217,0.24057
3730.19342,0.24110
3728.26468,0.24123
3726.33593,0.24086
3724.40719,0.24067
3722.47844,0.24100
3720.54970,0.24127
3718.62095,0.24130
3716.69221,0.24128
3714.76346,0.24124
3712.83472,0.24131
3710.90597,0.24146
3708.97723,0.24169
3707.04848,0.24203
3705.11974,0.24231
3703.19099,0.24249
3701.26224,0.24247
3699.33350,0.24206
3697.40475,0.24167
3695.47601,0.24170
3693.54726,0.24192
3691.61852,0.24219
3689.68977,0.24261
3687.76103,0.24295
3685.83228,0.24314
3683.90354,0.24356
3681.97479,0.24431
3680.04605,0.24514
3678.11730,0.24577
3676.18856,0.24627
3674.25981,0.24703
3672.33107,0.24799
3670.40232,0.24916
3668.47357,0.25073
3666.54483,0.25222
3664.61608,0.25325
3662.68734,0.25382
3660.75859,0.25415
3658.82985,0.25454
3656.90110,0.25505
3654.97236,0.25561
3653.04361,0.25620
3651.11487,0.25648
3649.18612,0.25591
3647.25738,0.25496
3645.32863,0.25441
3643.39989,0.25400
3641.47114,0.25331
3639.54239,0.25237
3637.61365,0.25157
3635.68490,0.25114
3633.75616,0.25103
3631.82741,0.25139
3629.89867,0.25231
3627.96992,0.25334
3626.04118,0.25415
3624.11243,0.25493
3622.18369,0.25573
3620.25494,0.25655
3618.32620,0.25740
3616.39745,0.25816
3614.46871,0.25854
3612.53996,0.25842
3610.61122,0.25815
3608.68247,0.25792
3606.75372,0.25745
3604.82498,0.25688
3602.89623,0.25662
3600.96749,0.25666
3599.03874,0.25662
3597.11000,0.25627
3595.18125,0.25581
3593.25251,0.25550
3591.32376,0.25515
3589.39502,0.25447
3587.46627,0.25393
3585.53753,0.25387
3583.60878,0.25394
3581.68004,0.25410
3579.75129,0.25455
3577.82254,0.25518
3575.89380,0.25580
3573.96505,0.25618
3572.03631,0.25643
3570.10756,0.25675
3568.17882,0.25700
3566.25007,0.25711
3564.32133,0.25705
3562.39258,0.25659
3560.46384,0.25593
3558.53509,0.25561
3556.60635,0.25555
3554.67760,0.25537
3552.74886,0.25527
3550.82011,0.25548
3548.89137,0.25555
3546.96262,0.25519
3545.03387,0.25478
3543.10513,0.25454
3541.17638,0.25419
3539.24764,0.25365
3537.31889,0.25308
3535.39015,0.25256
3533.46140,0.25212
3531.53266,0.25177
3529.60391,0.25142
3527.67517,0.25111
3525.74642,0.25103
3523.81768,0.25105
3521.88893,0.25101
3519.96019,0.25090
3518.03144,0.25063
3516.10270,0.25029
3514.17395,0.25019
3512.24520,0.25005
3510.31646,0.24948
3508.38771,0.24897
3506.45897,0.24894
3504.53022,0.24906
3502.60148,0.24911
3500.67273,0.24915
3498.74399,0.24892
3496.81524,0.24826
3494.88650,0.24747
3492.95775,0.24693
3491.02901,0.24655
3489.10026,0.24614
3487.17152,0.24570
3485.24277,0.24546
3483.31402,0.24536
3481.38528,0.24512
3479.45653,0.24473
3477.52779,0.24427
3475.59904,0.24364
3473.67030,0.24273
3471.74155,0.24181
3469.81281,0.24130
3467.88406,0.24107
3465.95532,0.24055
3464.02657,0.23970
3462.09783,0.23876
3460.16908,0.23779
3458.24034,0.23696
3456.31159,0.23627
3454.38285,0.23545
3452.45410,0.23450
3450.52535,0.23373
3448.59661,0.23300
3446.66786,0.23196
3444.73912,0.23074
3442.81037,0.22976
3440.88163,0.22904
3438.95288,0.22828
3437.02414,0.22729
3435.09539,0.22621
3433.16665,0.22545
3431.23790,0.22494
3429.30916,0.22415
3427.38041,0.22302
3425.45167,0.22186
3423.52292,0.22086
3421.59418,0.22010
3419.66543,0.21934
3417.73668,0.21851
3415.80794,0.21792
3413.87919,0.21760
3411.95045,0.21738
3410.02170,0.21728
3408.09296,0.21735
3406.16421,0.21748
3404.23547,0.21783
3402.30672,0.21852
3400.37798,0.21936
3398.44923,0.22024
3396.52049,0.22091
3394.59174,0.22110
3392.66300,0.22102
3390.73425,0.22090
3388.80550,0.22070
3386.87676,0.22041
3384.94801,0.22003
3383.01927,0.21928
3381.09052,0.21800
3379.16178,0.21663
3377.23303,0.21592
3375.30429,0.21580
3373.37554,0.21539
3371.44680,0.21437
3369.51805,0.21338
3367.58931,0.21288
3365.66056,0.21261
3363.73182,0.21211
3361.80307,0.21129
3359.87433,0.21033
3357.94558,0.20942
3356.01683,0.20870
3354.08809,0.20821
3352.15934,0.20770
3350.23060,0.20698
3348.30185,0.20617
3346.37311,0.20559
3344.44436,0.20537
3342.51562,0.20534
3340.58687,0.20548
3338.65813,0.20586
3336.72938,0.20636
3334.80064,0.20701
3332.87189,0.20790
3330.94315,0.20867
3329.01440,0.20890
3327.08566,0.20866
3325.15691,0.20800
3323.22816,0.20671
3321.29942,0.20476
3319.37067,0.20223
3317.44193,0.19923
3315.51318,0.19593
3313.58444,0.19206
3311.65569,0.18729
3309.72695,0.18190
3307.79820,0.17622
3305.86946,0.17056
3303.94071,0.16546
3302.01197,0.16159
3300.08322,0.15999
3298.15448,0.16122
3296.22573,0.16470
3294.29698,0.16947
3292.36824,0.17457
3290.43949,0.17911
3288.51075,0.18302
3286.58200,0.18647
3284.65326,0.18930
3282.72451,0.19160
3280.79577,0.19363
3278.86702,0.19538
3276.93828,0.19690
3275.00953,0.19835
3273.08079,0.19970
3271.15204,0.20080
3269.22330,0.20153
3267.29455,0.20224
3265.36581,0.20333
3263.43706,0.20451
3261.50831,0.20533
3259.57957,0.20577
3257.65082,0.20610
3255.72208,0.20645
3253.79333,0.20676
3251.86459,0.20689
3249.93584,0.20675
3248.00710,0.20635
3246.07835,0.20578
3244.14961,0.20496
3242.22086,0.20392
3240.29212,0.20280
3238.36337,0.20157
3236.43463,0.19999
3234.50588,0.19785
3232.57713,0.19522
3230.64839,0.19260
3228.71964,0.19039
3226.79090,0.18834
3224.86215,0.18586
3222.93341,0.18282
3221.00466,0.17975
3219.07592,0.17696
3217.14717,0.17430
3215.21843,0.17176
3213.28968,0.16957
3211.36094,0.16769
3209.43219,0.16566
3207.50345,0.16326
3205.57470,0.16092
3203.64596,0.15916
3201.71721,0.15796
3199.78846,0.15708
3197.85972,0.15642
3195.93097,0.15580
3194.00223,0.15534
3192.07348,0.15527
3190.14474,0.15535
3188.21599,0.15541
3186.28725,0.15570
3184.35850,0.15637
3182.42976,0.15729
3180.50101,0.15832
3178.57227,0.15941
3176.64352,0.16048
3174.71478,0.16130
3172.78603,0.16188
3170.85729,0.16226
3168.92854,0.16238
3166.99979,0.16229
3165.07105,0.16222
3163.14230,0.16226
3161.21356,0.16207
3159.28481,0.16134
3157.35607,0.16026
3155.42732,0.15919
3153.49858,0.15827
3151.56983,0.15752
3149.64109,0.15697
3147.71234,0.15659
3145.78360,0.15640
3143.85485,0.15640
3141.92611,0.15641
3139.99736,0.15657
3138.06861,0.15716
3136.13987,0.15799
3134.21112,0.15864
3132.28238,0.15919
3130.35363,0.15998
3128.42489,0.16105
3126.49614,0.16221
3124.56740,0.16338
3122.63865,0.16453
3120.70991,0.16554
3118.78116,0.16629
3116.85242,0.16679
3114.92367,0.16712
3112.99493,0.16736
3111.06618,0.16757
3109.13744,0.16760
3107.20869,0.16747
3105.27994,0.16752
3103.35120,0.16784
3101.42245,0.16799
3099.49371,0.16776
3097.56496,0.16748
3095.63622,0.16743
3093.70747,0.16743
3091.77873,0.16715
3089.84998,0.16655
3087.92124,0.16593
3085.99249,0.16550
3084.06375,0.16523
3082.13500,0.16497
3080.20626,0.16453
3078.27751,0.16377
3076.34877,0.16291
3074.42002,0.16198
3072.49127,0.16089
3070.56253,0.15991
3068.63378,0.15925
3066.70504,0.15861
3064.77629,0.15772
3062.84755,0.15662
3060.91880,0.15529
3058.99006,0.15379
3057.06131,0.15253
3055.13257,0.15150
3053.20382,0.15045
3051.27508,0.14945
3049.34633,0.14841
3047.41759,0.14716
3045.48884,0.14594
3043.56009,0.14488
3041.63135,0.14381
3039.70260,0.14252
3037.77386,0.14099
3035.84511,0.13936
3033.91637,0.13764
3031.98762,0.13552
3030.05888,0.13283
3028.13013,0.12993
3026.20139,0.12720
3024.27264,0.12434
3022.34390,0.12103
3020.41515,0.11745
3018.48641,0.11392
3016.55766,0.11032
3014.62892,0.10641
3012.70017,0.10232
3010.77142,0.09822
3008.84268,0.09407
3006.91393,0.08975
3004.98519,0.08541
3003.05644,0.08126
3001.12770,0.07701
2999.19895,0.07225
2997.27021,0.06711
2995.34146,0.06193
2993.41272,0.05682
2991.48397,0.05182
2989.55523,0.04708
2987.62648,0.04275
2985.69774,0.03902
2983.76899,0.03584
2981.84025,0.03298
2979.91150,0.03033
2977.98275,0.02813
2976.05401,0.02653
2974.12526,0.02529
2972.19652,0.02437
2970.26777,0.02404
2968.33903,0.02421
2966.41028,0.02468
2964.48154,0.02555
2962.55279,0.02691
2960.62405,0.02861
2958.69530,0.03003
2956.76656,0.03056
2954.83781,0.03055
2952.90907,0.03089
2950.98032,0.03184
2949.05157,0.03274
2947.12283,0.03298
2945.19408,0.03263
2943.26534,0.03204
2941.33659,0.03149
2939.40785,0.03108
2937.47910,0.03057
2935.55036,0.03001
2933.62161,0.02967
2931.69287,0.02952
2929.76412,0.02940
2927.83538,0.02943
2925.90663,0.02977
2923.97789,0.03054
2922.04914,0.03178
2920.12040,0.03347
2918.19165,0.03540
2916.26290,0.03680
2914.33416,0.03713
2912.40541,0.03666
2910.47667,0.03610
2908.54792,0.03581
2906.61918,0.03576
2904.69043,0.03577
2902.76169,0.03568
2900.83294,0.03547
2898.90420,0.03520
2896.97545,0.03497
2895.04671,0.03491
2893.11796,0.03487
2891.18922,0.03468
2889.26047,0.03444
2887.33172,0.03409
2885.40298,0.03356
2883.47423,0.03317
2881.54549,0.03313
2879.61674,0.03325
2877.68800,0.03334
2875.75925,0.03349
2873.83051,0.03365
2871.90176,0.03367
2869.97302,0.03364
2868.04427,0.03379
2866.11553,0.03439
2864.18678,0.03528
2862.25804,0.03603
2860.32929,0.03655
2858.40055,0.03684
2856.47180,0.03690
2854.54305,0.03679
2852.61431,0.03651
2850.68556,0.03618
2848.75682,0.03582
2846.82807,0.03517
2844.89933,0.03418
2842.97058,0.03342
2841.04184,0.03349
2839.11309,0.03434
2837.18435,0.03545
2835.25560,0.03636
2833.32686,0.03711
2831.39811,0.03815
2829.46937,0.03981
2827.54062,0.04201
2825.61188,0.04450
2823.68313,0.04699
2821.75438,0.04931
2819.82564,0.05156
2817.89689,0.05395
2815.96815,0.05624
2814.03940,0.05801
2812.11066,0.05942
2810.18191,0.06094
2808.25317,0.06286
2806.32442,0.06536
2804.39568,0.06851
2802.46693,0.07183
2800.53819,0.07458
2798.60944,0.07657
2796.68070,0.07821
2794.75195,0.08002
2792.82320,0.08244
2790.89446,0.08575
2788.96571,0.08990
2787.03697,0.09450
2785.10822,0.09916
2783.17948,0.10364
2781.25073,0.10777
2779.32199,0.11153
2777.39324,0.11485
2775.46450,0.11756
2773.53575,0.11961
2771.60701,0.12101
2769.67826,0.12199
2767.74952,0.12294
2765.82077,0.12398
2763.89203,0.12513
2761.96328,0.12643
2760.03453,0.12770
2758.10579,0.12874
2756.17704,0.12954
2754.24830,0.13010
2752.31955,0.13035
2750.39081,0.13037
2748.46206,0.13012
2746.53332,0.12915
2744.60457,0.12709
2742.67583,0.12416
2740.74708,0.12087
2738.81834,0.11755
2736.88959,0.11437
2734.96085,0.11140
2733.03210,0.10852
2731.10336,0.10543
2729.17461,0.10180
2727.24586,0.09764
2725.31712,0.09367
2723.38837,0.09111
2721.45963,0.09121
2719.53088,0.09424
2717.60214,0.09911
2715.67339,0.10436
2713.74465,0.10913
2711.81590,0.11321
2709.88716,0.11682
2707.95841,0.12012
2706.02967,0.12319
2704.10092,0.12610
2702.17218,0.12880
2700.24343,0.13092
2698.31468,0.13233
2696.38594,0.13327
2694.45719,0.13374
2692.52845,0.13363
2690.59970,0.13326
2688.67096,0.13293
2686.74221,0.13262
2684.81347,0.13239
2682.88472,0.13219
2680.95598,0.13194
2679.02723,0.13178
2677.09849,0.13173
2675.16974,0.13198
2673.24100,0.13282
2671.31225,0.13382
2669.38351,0.13437
2667.45476,0.13447
2665.52601,0.13414
2663.59727,0.13351
2661.66852,0.13319
2659.73978,0.13347
2657.81103,0.13424
2655.88229,0.13563
2653.95354,0.13766
2652.02480,0.13973
2650.09605,0.14117
2648.16731,0.14201
2646.23856,0.14266
2644.30982,0.14339
2642.38107,0.14434
2640.45233,0.14543
2638.52358,0.14617
2636.59484,0.14611
2634.66609,0.14521
2632.73734,0.14366
2630.80860,0.14153
2628.87985,0.13896
2626.95111,0.13616
2625.02236,0.13330
2623.09362,0.13066
2621.16487,0.12843
2619.23613,0.12649
2617.30738,0.12491
2615.37864,0.12392
2613.44989,0.12336
2611.52115,0.12294
2609.59240,0.12274
2607.66366,0.12284
2605.73491,0.12310
2603.80616,0.12354
2601.87742,0.12398
2599.94867,0.12398
2598.01993,0.12327
2596.09118,0.12206
2594.16244,0.12074
2592.23369,0.11948
2590.30495,0.11806
2588.37620,0.11606
2586.44746,0.11359
2584.51871,0.11123
2582.58997,0.10970
2580.66122,0.10957
2578.73248,0.11060
2576.80373,0.11219
2574.87499,0.11408
2572.94624,0.11624
2571.01749,0.11843
2569.08875,0.12026
2567.16000,0.12148
2565.23126,0.12220
2563.30251,0.12269
2561.37377,0.12301
2559.44502,0.12306
2557.51628,0.12288
2555.58753,0.12264
2553.65879,0.12242
2551.73004,0.12233
2549.80130,0.12244
2547.87255,0.12252
2545.94381,0.12249
2544.01506,0.12260
2542.08631,0.12271
2540.15757,0.12189
2538.22882,0.11919
2536.30008,0.11471
2534.37133,0.10939
2532.44259,0.10402
2530.51384,0.09888
2528.58510,0.09416
2526.65635,0.09000
2524.72761,0.08637
2522.79886,0.08346
2520.87012,0.08144
2518.94137,0.08013
2517.01263,0.07918
2515.08388,0.07848
2513.15514,0.07808
2511.22639,0.07823
2509.29764,0.07941
2507.36890,0.08192
2505.44015,0.08561
2503.51141,0.09034
2501.58266,0.09601
2499.65392,0.10240
2497.72517,0.10930
2495.79643,0.11669
2493.86768,0.12448
2491.93894,0.13213
2490.01019,0.13888
2488.08145,0.14445
2486.15270,0.14921
2484.22396,0.15353
2482.29521,0.15762
2480.36647,0.16185
2478.43772,0.16646
2476.50897,0.17133
2474.58023,0.17621
2472.65148,0.18083
2470.72274,0.18483
2468.79399,0.18789
2466.86525,0.19001
2464.93650,0.19147
2463.00776,0.19254
2461.07901,0.19329
2459.15027,0.19370
2457.22152,0.19403
2455.29278,0.19446
2453.36403,0.19486
2451.43529,0.19522
2449.50654,0.19555
2447.57779,0.19566
2445.64905,0.19561
2443.72030,0.19547
2441.79156,0.19495
2439.86281,0.19396
2437.93407,0.19269
2436.00532,0.19118
2434.07658,0.18956
2432.14783,0.18835
2430.21909,0.18787
2428.29034,0.18804
2426.36160,0.18870
2424.43285,0.18968
2422.50411,0.19089
2420.57536,0.19239
2418.64662,0.19408
2416.71787,0.19558
2414.78912,0.19655
2412.86038,0.19701
2410.93163,0.19714
2409.00289,0.19699
2407.07414,0.19668
2405.14540,0.19629
2403.21665,0.19580
2401.28791,0.19544
2399.35916,0.19549
2397.43042,0.19582
2395.50167,0.19627
2393.57293,0.19701
2391.64418,0.19816
2389.71544,0.19930
2387.78669,0.20000
2385.85795,0.20035
2383.92920,0.20061
2382.00045,0.20084
2380.07171,0.20092
2378.14296,0.20072
2376.21422,0.20026
2374.28547,0.19993
2372.35673,0.19994
2370.42798,0.20004
2368.49924,0.19994
2366.57049,0.19963
2364.64175,0.19918
2362.71300,0.19880
2360.78426,0.19864
2358.85551,0.19878
2356.92677,0.19929
2354.99802,0.20003
2353.06927,0.20099
2351.14053,0.20228
2349.21178,0.20360
2347.28304,0.20472
2345.35429,0.20586
2343.42555,0.20702
2341.49680,0.20787
2339.56806,0.20831
2337.63931,0.20866
2335.71057,0.20925
2333.78182,0.21003
2331.85308,0.21083
2329.92433,0.21151
2327.99559,0.21213
2326.06684,0.21296
2324.13810,0.21415
2322.20935,0.21550
2320.28060,0.21680
2318.35186,0.21795
2316.42311,0.21892
2314.49437,0.21971
2312.56562,0.22020
2310.63688,0.22038
2308.70813,0.22050
2306.77939,0.22062
2304.85064,0.22058
2302.92190,0.22035
2300.99315,0.22019
2299.06441,0.22021
2297.13566,0.22028
2295.20692,0.22034
2293.27817,0.22068
2291.34943,0.22145
2289.42068,0.22237
2287.49193,0.22301
2285.56319,0.22323
2283.63444,0.22310
2281.70570,0.22275
2279.77695,0.22210
2277.84821,0.22096
2275.91946,0.21945
2273.99072,0.21792
2272.06197,0.21653
2270.13323,0.21530
2268.20448,0.21445
2266.27574,0.21411
2264.34699,0.21375
2262.41825,0.21286
2260.48950,0.21171
2258.56075,0.21072
2256.63201,0.21009
2254.70326,0.21000
2252.77452,0.21062
2250.84577,0.21195
2248.91703,0.21376
2246.98828,0.21556
2245.05954,0.21691
2243.13079,0.21774
2241.20205,0.21817
2239.27330,0.21825
2237.34456,0.21791
2235.41581,0.21721
2233.48707,0.21639
2231.55832,0.21570
2229.62958,0.21529
2227.70083,0.21537
2225.77208,0.21594
2223.84334,0.21670
2221.91459,0.21733
2219.98585,0.21767
2218.05710,0.21774
2216.12836,0.21766
2214.19961,0.21739
2212.27087,0.21698
2210.34212,0.21653
2208.41338,0.21606
2206.48463,0.21552
2204.55589,0.21484
2202.62714,0.21409
2200.69840,0.21346
2198.76965,0.21300
2196.84090,0.21273
2194.91216,0.21261
2192.98341,0.21247
2191.05467,0.21213
2189.12592,0.21162
2187.19718,0.21124
2185.26843,0.21109
2183.33969,0.21097
2181.41094,0.21083
2179.48220,0.21072
2177.55345,0.21042
2175.62471,0.20988
2173.69596,0.20941
2171.76722,0.20923
2169.83847,0.20934
2167.90973,0.20977
2165.98098,0.21052
2164.05223,0.21146
2162.12349,0.21225
2160.19474,0.21256
2158.26600,0.21234
2156.33725,0.21184
2154.40851,0.21138
2152.47976,0.21112
2150.55102,0.21094
2148.62227,0.21058
2146.69353,0.20998
2144.76478,0.20927
2142.83604,0.20845
2140.90729,0.20760
2138.97855,0.20671
2137.04980,0.20561
2135.12106,0.20453
2133.19231,0.20410
2131.26356,0.20467
2129.33482,0.20633
2127.40607,0.20922
2125.47733,0.21310
2123.54858,0.21726
2121.61984,0.22123
2119.69109,0.22489
2117.76235,0.22798
2115.83360,0.23036
2113.90486,0.23213
2111.97611,0.23334
2110.04737,0.23415
2108.11862,0.23481
2106.18988,0.23524
2104.26113,0.23543
2102.33238,0.23559
2100.40364,0.23576
2098.47489,0.23587
2096.54615,0.23594
2094.61740,0.23603
2092.68866,0.23612
2090.75991,0.23618
2088.83117,0.23640
2086.90242,0.23696
2084.97368,0.23793
2083.04493,0.23919
2081.11619,0.24055
2079.18744,0.24183
2077.25870,0.24294
2075.32995,0.24398
2073.40121,0.24472
2071.47246,0.24517
2069.54371,0.24566
2067.61497,0.24616
2065.68622,0.24649
2063.75748,0.24668
2061.82873,0.24666
2059.89999,0.24629
2057.97124,0.24566
2056.04250,0.24517
2054.11375,0.24489
2052.18501,0.24460
2050.25626,0.24435
2048.32752,0.24432
2046.39877,0.24445
2044.47003,0.24459
2042.54128,0.24467
2040.61254,0.24460
2038.68379,0.24436
2036.75504,0.24402
2034.82630,0.24363
2032.89755,0.24321
2030.96881,0.24293
2029.04006,0.24293
2027.11132,0.24314
2025.18257,0.24351
2023.25383,0.24397
2021.32508,0.24437
2019.39634,0.24476
2017.46759,0.24502
2015.53885,0.24498
2013.61010,0.24480
2011.68136,0.24471
2009.75261,0.24483
2007.82386,0.24508
2005.89512,0.24508
2003.96637,0.24474
2002.03763,0.24431
2000.10888,0.24395
1998.18014,0.24361
1996.25139,0.24327
1994.32265,0.24307
1992.39390,0.24302
1990.46516,0.24307
1988.53641,0.24329
1986.60767,0.24365
1984.67892,0.24392
1982.75018,0.24423
1980.82143,0.24470
1978.89269,0.24509
1976.96394,0.24521
1975.03519,0.24522
1973.10645,0.24524
1971.17770,0.24507
1969.24896,0.24445
1967.32021,0.24341
1965.39147,0.24192
1963.46272,0.23991
1961.53398,0.23810
1959.60523,0.23757
1957.67649,0.23843
1955.74774,0.23978
1953.81900,0.24087
1951.89025,0.24159
1949.96151,0.24200
1948.03276,0.24213
1946.10402,0.24218
1944.17527,0.24225
1942.24652,0.24218
1940.31778,0.24194
1938.38903,0.24171
1936.46029,0.24154
1934.53154,0.24136
1932.60280,0.24095
1930.67405,0.24024
1928.74531,0.23941
1926.81656,0.23860
1924.88782,0.23777
1922.95907,0.23702
1921.03033,0.23653
1919.10158,0.23617
1917.17284,0.23573
1915.24409,0.23523
1913.31534,0.23478
1911.38660,0.23446
1909.45785,0.23428
1907.52911,0.23408
1905.60036,0.23376
1903.67162,0.23338
1901.74287,0.23281
1899.81413,0.23184
1897.88538,0.23056
1895.95664,0.22921
1894.02789,0.22817
1892.09915,0.22794
1890.17040,0.22872
1888.24166,0.23011
1886.31291,0.23151
1884.38417,0.23262
1882.45542,0.23330
1880.52667,0.23359
1878.59793,0.23369
1876.66918,0.23371
1874.74044,0.23364
1872.81169,0.23343
1870.88295,0.23309
1868.95420,0.23269
1867.02546,0.23225
1865.09671,0.23168
1863.16797,0.23096
1861.23922,0.23018
1859.31048,0.22929
1857.38173,0.22827
1855.45299,0.22723
1853.52424,0.22620
1851.59549,0.22526
1849.66675,0.22446
1847.73800,0.22374
1845.80926,0.22292
1843.88051,0.22185
1841.95177,0.22053
1840.02302,0.21901
1838.09428,0.21731
1836.16553,0.21562
1834.23679,0.21413
1832.30804,0.21285
1830.37930,0.21179
1828.45055,0.21107
1826.52181,0.21056
1824.59306,0.21001
1822.66432,0.20911
1820.73557,0.20766
1818.80682,0.20556
1816.87808,0.20281
1814.94933,0.19941
1813.02059,0.19491
1811.09184,0.18852
1809.16310,0.17949
1807.23435,0.16665
1805.30561,0.14862
1803.37686,0.12556
1801.44812,0.10100
1799.51937,0.08171
1797.59063,0.07181
1795.66188,0.06891
1793.73314,0.07022
1791.80439,0.07802
1789.87565,0.09415
1787.94690,0.11459
1786.01815,0.13446
1784.08941,0.15053
1782.16066,0.16202
1780.23192,0.17004
1778.30317,0.17550
1776.37443,0.17906
1774.44568,0.18138
1772.51694,0.18263
1770.58819,0.18268
1768.65945,0.18155
1766.73070,0.17962
1764.80196,0.17748
1762.87321,0.17525
1760.94447,0.17272
1759.01572,0.17012
1757.08697,0.16757
1755.15823,0.16509
1753.22948,0.16266
1751.30074,0.16010
1749.37199,0.15730
1747.44325,0.15420
1745.51450,0.15092
1743.58576,0.14765
1741.65701,0.14374
1739.72827,0.13861
1737.79952,0.13468
1735.87078,0.13528
1733.94203,0.13975
1732.01329,0.14229
1730.08454,0.14153
1728.15580,0.14263
1726.22705,0.14802
1724.29830,0.15451
1722.36956,0.15896
1720.44081,0.16136
1718.51207,0.16273
1716.58332,0.16354
1714.65458,0.16387
1712.72583,0.16408
1710.79709,0.16447
1708.86834,0.16487
1706.93960,0.16505
1705.01085,0.16513
1703.08211,0.16534
1701.15336,0.16548
1699.22462,0.16528
1697.29587,0.16506
1695.36713,0.16501
1693.43838,0.16499
1691.50963,0.16498
1689.58089,0.16506
1687.65214,0.16527
1685.72340,0.16550
1683.79465,0.16556
1681.86591,0.16555
1679.93716,0.16564
1678.00842,0.16579
1676.07967,0.16604
1674.15093,0.16643
1672.22218,0.16684
1670.29344,0.16703
1668.36469,0.16680
1666.43595,0.16627
1664.50720,0.16556
1662.57845,0.16452
1660.64971,0.16319
1658.72096,0.16175
1656.79222,0.16014
1654.86347,0.15788
1652.93473,0.15425
1651.00598,0.15041
1649.07724,0.14701
1647.14849,0.14225
1645.21975,0.13552
1643.29100,0.12849
1641.36226,0.12268
1639.43351,0.11982
1637.50477,0.12152
1635.57602,0.12773
1633.64728,0.13511
1631.71853,0.14052
1629.78978,0.14403
1627.86104,0.14616
1625.93229,0.14741
1624.00355,0.14834
1622.07480,0.14905
1620.14606,0.14939
1618.21731,0.14960
1616.28857,0.14990
1614.35982,0.15003
1612.43108,0.14996
1610.50233,0.14990
1608.57359,0.14994
1606.64484,0.14996
1604.71610,0.15002
1602.78735,0.15026
1600.85861,0.15032
1598.92986,0.14989
1597.00111,0.14900
1595.07237,0.14758
1593.14362,0.14543
1591.21488,0.14259
1589.28613,0.13971
1587.35739,0.13788
1585.42864,0.13744
1583.49990,0.13783
1581.57115,0.13872
1579.64241,0.14036
1577.71366,0.14286
1575.78492,0.14557
1573.85617,0.14732
1571.92743,0.14803
1569.99868,0.14794
1568.06993,0.14714
1566.14119,0.14601
1564.21244,0.14497
1562.28370,0.14417
1560.35495,0.14318
1558.42621,0.14175
1556.49746,0.14090
1554.56872,0.14107
1552.63997,0.14164
1550.71123,0.14178
1548.78248,0.14108
1546.85374,0.13979
1544.92499,0.13822
1542.99625,0.13638
1541.06750,0.13401
1539.13876,0.13122
1537.21001,0.12912
1535.28126,0.12752
1533.35252,0.12546
1531.42377,0.12302
1529.49503,0.12063
1527.56628,0.11802
1525.63754,0.11531
1523.70879,0.11286
1521.78005,0.11014
1519.85130,0.10689
1517.92256,0.10376
1515.99381,0.10089
1514.06507,0.09816
1512.13632,0.09547
1510.20758,0.09288
1508.27883,0.09039
1506.35008,0.08762
1504.42134,0.08483
1502.49259,0.08247
1500.56385,0.08026
1498.63510,0.07777
1496.70636,0.07482
1494.77761,0.07186
1492.84887,0.06921
1490.92012,0.06650
1488.99138,0.06362
1487.06263,0.06097
1485.13389,0.05867
1483.20514,0.05653
1481.27640,0.05438
1479.34765,0.05233
1477.41891,0.05045
1475.49016,0.04861
1473.56141,0.04665
1471.63267,0.04459
1469.70392,0.04274
1467.77518,0.04131
1465.84643,0.04023
1463.91769,0.03954
1461.98894,0.03939
1460.06020,0.03964
1458.13145,0.03996
1456.20271,0.04024
1454.27396,0.04059
1452.34522,0.04112
1450.41647,0.04179
1448.48773,0.04261
1446.55898,0.04353
1444.63024,0.04419
1442.70149,0.04455
1440.77274,0.04495
1438.84400,0.04547
1436.91525,0.04598
1434.98651,0.04653
1433.05776,0.04721
1431.12902,0.04804
1429.20027,0.04903
1427.27153,0.05016
1425.34278,0.05129
1423.41404,0.05240
1421.48529,0.05358
1419.55655,0.05487
1417.62780,0.05611
1415.69906,0.05741
1413.77031,0.05887
1411.84156,0.06010
1409.91282,0.06076
1407.98407,0.06075
1406.05533,0.05995
1404.12658,0.05855
1402.19784,0.05720
1400.26909,0.05641
1398.34035,0.05632
1396.41160,0.05669
1394.48286,0.05725
1392.55411,0.05773
1390.62537,0.05797
1388.69662,0.05777
1386.76788,0.05662
1384.83913,0.05398
1382.91039,0.05001
1380.98164,0.04581
1379.05289,0.04307
1377.12415,0.04288
1375.19540,0.04506
1373.26666,0.04875
1371.33791,0.05329
1369.40917,0.05815
1367.48042,0.06224
1365.55168,0.06463
1363.62293,0.06522
1361.69419,0.06455
1359.76544,0.06397
1357.83670,0.06518
1355.90795,0.06892
1353.97921,0.07443
1352.05046,0.08043
1350.12172,0.08613
1348.19297,0.09119
1346.26422,0.09559
1344.33548,0.09953
1342.40673,0.10296
1340.47799,0.10578
1338.54924,0.10799
1336.62050,0.10924
1334.69175,0.10908
1332.76301,0.10765
1330.83426,0.10611
1328.90552,0.10605
1326.97677,0.10786
1325.04803,0.11088
1323.11928,0.11441
1321.19054,0.11771
1319.26179,0.12029
1317.33304,0.12250
1315.40430,0.12478
1313.47555,0.12687
1311.54681,0.12761
1309.61806,0.12514
1307.68932,0.11852
1305.76057,0.11105
1303.83183,0.10909
1301.90308,0.11396
1299.97434,0.12036
1298.04559,0.12452
1296.11685,0.12752
1294.18810,0.13159
1292.25936,0.13709
1290.33061,0.14262
1288.40187,0.14704
1286.47312,0.15037
1284.54437,0.15297
1282.61563,0.15513
1280.68688,0.15739
1278.75814,0.15996
1276.82939,0.16241
1274.90065,0.16411
1272.97190,0.16453
1271.04316,0.16338
1269.11441,0.16115
1267.18567,0.15875
1265.25692,0.15654
1263.32818,0.15366
1261.39943,0.14839
1259.47069,0.13970
1257.54194,0.12985
1255.61320,0.12510
1253.68445,0.13005
1251.75570,0.14118
1249.82696,0.15145
1247.89821,0.15820
1245.96947,0.16243
1244.04072,0.16512
1242.11198,0.16693
1240.18323,0.16854
1238.25449,0.17034
1236.32574,0.17214
1234.39700,0.17343
1232.46825,0.17393
1230.53951,0.17367
1228.61076,0.17269
1226.68202,0.17082
1224.75327,0.16772
1222.82452,0.16370
1220.89578,0.16030
1218.96703,0.15928
1217.03829,0.16125
1215.10954,0.16527
1213.18080,0.16964
1211.25205,0.17296
1209.32331,0.17498
1207.39456,0.17599
1205.46582,0.17599
1203.53707,0.17513
1201.60833,0.17393
1199.67958,0.17239
1197.75084,0.17051
1195.82209,0.16891
1193.89335,0.16773
1191.96460,0.16618
1190.03585,0.16395
1188.10711,0.16118
1186.17836,0.15734
1184.24962,0.15186
1182.32087,0.14512
1180.39213,0.13787
1178.46338,0.12964
1176.53464,0.11881
1174.60589,0.10446
1172.67715,0.08779
1170.74840,0.07239
1168.81966,0.06248
1166.89091,0.06000
1164.96217,0.06371
1163.03342,0.07087
1161.10467,0.07888
1159.17593,0.08611
1157.24718,0.09189
1155.31844,0.09637
1153.38969,0.10069
1151.46095,0.10655
1149.53220,0.11512
1147.60346,0.12613
1145.67471,0.13832
1143.74597,0.15079
1141.81722,0.16337
1139.88848,0.17576
1137.95973,0.18702
1136.03099,0.19612
1134.10224,0.20275
1132.17350,0.20735
1130.24475,0.21047
1128.31600,0.21251
1126.38726,0.21347
1124.45851,0.21341
1122.52977,0.21253
1120.60102,0.21078
1118.67228,0.20804
1116.74353,0.20458
1114.81479,0.20078
1112.88604,0.19662
1110.95730,0.19177
1109.02855,0.18514
1107.09981,0.17589
1105.17106,0.16593
1103.24232,0.15975
1101.31357,0.16081
1099.38483,0.16855
1097.45608,0.17925
1095.52733,0.18934
1093.59859,0.19711
1091.66984,0.20232
1089.74110,0.20544
1087.81235,0.20720
1085.88361,0.20830
1083.95486,0.20964
1082.02612,0.21209
1080.09737,0.21504
1078.16863,0.21687
1076.23988,0.21718
1074.31114,0.21665
1072.38239,0.21582
1070.45365,0.21487
1068.52490,0.21388
1066.59615,0.21315
1064.66741,0.21275
1062.73866,0.21231
1060.80992,0.21155
1058.88117,0.21028
1056.95243,0.20832
1055.02368,0.20558
1053.09494,0.20178
1051.16619,0.19635
1049.23745,0.18868
1047.30870,0.17949
1045.37996,0.17227
1043.45121,0.17119
1041.52247,0.17634
1039.59372,0.18314
1037.66498,0.18767
1035.73623,0.18979
1033.80748,0.19107
1031.87874,0.19195
1029.94999,0.19186
1028.02125,0.19063
1026.09250,0.18860
1024.16376,0.18616
1022.23501,0.18355
1020.30627,0.18063
1018.37752,0.17720
1016.44878,0.17305
1014.52003,0.16821
1012.59129,0.16279
1010.66254,0.15606
1008.73380,0.14717
1006.80505,0.13554
1004.87631,0.12011
1002.94756,0.10071
1001.01881,0.08068
999.09007,0.06657
997.16132,0.06428
995.23258,0.07482
993.30383,0.09343
991.37509,0.11336
989.44634,0.12967
987.51760,0.13984
985.58885,0.14289
983.66011,0.13854
981.73136,0.12697
979.80262,0.10954
977.87387,0.08948
975.94513,0.07162
974.01638,0.06102
972.08763,0.06177
970.15889,0.07526
968.23014,0.09785
966.30140,0.12231
964.37265,0.14311
962.44391,0.15877
960.51516,0.17009
958.58642,0.17859
956.65767,0.18529
954.72893,0.19051
952.80018,0.19433
950.87144,0.19669
948.94269,0.19738
947.01395,0.19618
945.08520,0.19272
943.15646,0.18715
941.22771,0.18226
939.29896,0.18294
937.37022,0.19076
935.44147,0.20172
933.51273,0.21103
931.58398,0.21724
929.65524,0.22154
927.72649,0.22506
925.79775,0.22773
923.86900,0.22929
921.94026,0.22994
920.01151,0.23005
918.08277,0.22985
916.15402,0.22898
914.22528,0.22684
912.29653,0.22338
910.36779,0.21864
908.43904,0.21161
906.51029,0.20015
904.58155,0.18244
902.65280,0.16023
900.72406,0.14130
898.79531,0.13557
896.86657,0.14604
894.93782,0.16515
893.00908,0.18192
891.08033,0.18926
889.15159,0.18157
887.22284,0.15496
885.29410,0.11703
883.36535,0.08438
881.43661,0.06475
879.50786,0.05408
877.57911,0.04852
875.65037,0.04792
873.72162,0.05251
871.79288,0.06294
869.86413,0.08051
867.93539,0.10343
866.00664,0.12637
864.07790,0.14503
862.14915,0.15829
860.22041,0.16678
858.29166,0.17154
856.36292,0.17308
854.43417,0.17073
852.50543,0.16149
850.57668,0.14281
848.64794,0.12265
846.71919,0.11130
844.79044,0.10176
842.86170,0.08675
840.93295,0.07951
839.00421,0.09271
837.07546,0.11867
835.14672,0.14272
833.21797,0.15931
831.28923,0.17024
829.36048,0.17792
827.43174,0.18373
825.50299,0.18814
823.57425,0.19068
821.64550,0.19068
819.71676,0.18800
817.78801,0.18231
815.85926,0.17240
813.93052,0.15758
812.00177,0.14076
810.07303,0.12889
808.14428,0.12791
806.21554,0.13789
804.28679,0.15336
802.35805,0.16790
800.42930,0.17855
798.50056,0.18585
796.57181,0.19163
794.64307,0.19721
792.71432,0.20264
790.78558,0.20731
788.85683,0.21102
786.92809,0.21450
784.99934,0.21830
783.07059,0.22175
781.14185,0.22424
779.21310,0.22639
777.28436,0.22866
775.35561,0.23060
773.42687,0.23209
771.49812,0.23355
769.56938,0.23528
767.64063,0.23728
765.71189,0.23926
763.78314,0.24092
761.85440,0.24240
759.92565,0.24396
757.99691,0.24516
756.06816,0.24566
754.13942,0.24581
752.21067,0.24562
750.28192,0.24492
748.35318,0.24387
746.42443,0.24261
744.49569,0.24141
742.56694,0.24013
740.63820,0.23825
738.70945,0.23602
736.78071,0.23387
734.85196,0.23131
732.92322,0.22771
730.99447,0.22287
729.06573,0.21671
727.13698,0.20903
725.20824,0.19927
723.27949,0.18600
721.35074,0.16749
719.42200,0.14218
717.49325,0.11034
715.56451,0.07839
713.63576,0.05918
711.70702,0.06372
709.77827,0.09102
707.84953,0.12804
705.92078,0.16165
703.99204,0.18719
702.06329,0.20490
700.13455,0.21609
698.20580,0.22330
696.27706,0.22862
694.34831,0.23292
692.41957,0.23677
690.49082,0.23999
688.56207,0.24196
686.63333,0.24273
684.70458,0.24301
682.77584,0.24326
680.84709,0.24361
678.91835,0.24387
676.98960,0.24399
675.06086,0.24426
673.13211,0.24454
671.20337,0.24447
669.27462,0.24409
667.34588,0.24359
665.41713,0.24342
663.48839,0.24342
661.55964,0.24301
659.63090,0.24231
657.70215,0.24143
655.77340,0.24047
653.84466,0.23979
651.91591,0.23912
649.98717,0.23798
648.05842,0.23675
646.12968,0.23587
644.20093,0.23498
642.27219,0.23393
640.34344,0.23303
638.41470,0.23192
636.48595,0.23035
634.55721,0.22890
632.62846,0.22832
630.69972,0.22821
628.77097,0.22753
626.84222,0.22632
624.91348,0.22523
622.98473,0.22447
621.05599,0.22379
619.12724,0.22259
617.19850,0.22130
615.26975,0.22065
613.34101,0.21935
611.41226,0.21679
609.48352,0.21491
607.55477,0.21413
605.62603,0.21231
603.69728,0.20930
601.76854,0.20743
599.83979,0.20644
