7497.03301,0.31435
7495.10426,0.31786
7493.17552,0.31797
7491.24677,0.31412
7489.31803,0.31215
7487.38928,0.31571
7485.46054,0.32035
7483.53179,0.31997
7481.60305,0.31613
7479.67430,0.31387
7477.74556,0.31360
7475.81681,0.31359
7473.88807,0.31522
7471.95932,0.31889
7470.03057,0.32183
7468.10183,0.32304
7466.17308,0.32254
7464.24434,0.32101
7462.31559,0.31962
7460.38685,0.31646
7458.45810,0.31273
7456.52936,0.31415
7454.60061,0.31907
7452.67187,0.32144
7450.74312,0.32030
7448.81438,0.31713
7446.88563,0.31404
7444.95689,0.31342
7443.02814,0.31471
7441.09940,0.31504
7439.17065,0.31340
7437.24190,0.31220
7435.31316,0.31372
7433.38441,0.31800
7431.45567,0.32334
7429.52692,0.32613
7427.59818,0.32572
7425.66943,0.32598
7423.74069,0.32620
7421.81194,0.32198
7419.88320,0.31550
7417.95445,0.31306
7416.02571,0.31486
7414.09696,0.31535
7412.16822,0.31427
7410.23947,0.31608
7408.31073,0.32008
7406.38198,0.32046
7404.45323,0.31393
7402.52449,0.30579
7400.59574,0.30306
7398.66700,0.30667
7396.73825,0.31348
7394.80951,0.31675
7392.88076,0.31301
7390.95202,0.30700
7389.02327,0.30372
7387.09453,0.30560
7385.16578,0.31125
7383.23704,0.31587
7381.30829,0.31760
7379.37955,0.31880
7377.45080,0.32021
7375.52205,0.31973
7373.59331,0.31780
7371.66456,0.31639
7369.73582,0.31523
7367.80707,0.31386
7365.87833,0.31261
7363.94958,0.31302
7362.02084,0.31566
7360.09209,0.31750
7358.16335,0.31612
7356.23460,0.31289
7354.30586,0.31081
7352.37711,0.31191
7350.44837,0.31514
7348.51962,0.31605
7346.59088,0.31202
7344.66213,0.30815
7342.73338,0.30949
7340.80464,0.31288
7338.87589,0.31508
7336.94715,0.31714
7335.01840,0.31733
7333.08966,0.31470
7331.16091,0.31280
7329.23217,0.31200
7327.30342,0.31108
7325.37468,0.31203
7323.44593,0.31460
7321.51719,0.31667
7319.58844,0.31734
7317.65970,0.31720
7315.73095,0.31724
7313.80221,0.31513
7311.87346,0.31114
7309.94471,0.30996
7308.01597,0.30950
7306.08722,0.30856
7304.15848,0.31176
7302.22973,0.31703
7300.30099,0.32012
7298.37224,0.31891
7296.44350,0.31227
7294.51475,0.30662
7292.58601,0.30758
7290.65726,0.31160
7288.72852,0.31457
7286.79977,0.31546
7284.87103,0.31466
7282.94228,0.31506
7281.01353,0.31779
7279.08479,0.31704
7277.15604,0.31050
7275.22730,0.30617
7273.29855,0.30635
7271.36981,0.30613
7269.44106,0.30659
7267.51232,0.30907
7265.58357,0.31021
7263.65483,0.30871
7261.72608,0.30838
7259.79734,0.31291
7257.86859,0.31803
7255.93985,0.31683
7254.01110,0.31089
7252.08236,0.30703
7250.15361,0.30752
7248.22486,0.31076
7246.29612,0.31544
7244.36737,0.31716
7242.43863,0.31359
7240.50988,0.31124
7238.58114,0.31372
7236.65239,0.31669
7234.72365,0.31645
7232.79490,0.31379
7230.86616,0.31208
7228.93741,0.31255
7227.00867,0.31357
7225.07992,0.31329
7223.15118,0.30968
7221.22243,0.30428
7219.29369,0.30183
7217.36494,0.30369
7215.43619,0.30783
7213.50745,0.31099
7211.57870,0.31085
7209.64996,0.30914
7207.72121,0.30718
7205.79247,0.30503
7203.86372,0.30437
7201.93498,0.30568
7200.00623,0.30716
7198.07749,0.30764
7196.14874,0.30748
7194.22000,0.30594
7192.29125,0.30217
7190.36251,0.30026
7188.43376,0.30383
7186.50501,0.30963
7184.57627,0.31236
7182.64752,0.31055
7180.71878,0.30791
7178.79003,0.30894
7176.86129,0.31160
7174.93254,0.31118
7173.00380,0.30891
7171.07505,0.30859
7169.14631,0.30836
7167.21756,0.30581
7165.28882,0.30261
7163.36007,0.30090
7161.43133,0.30327
7159.50258,0.30859
7157.57384,0.31193
7155.64509,0.31250
7153.71634,0.31225
7151.78760,0.31195
7149.85885,0.31067
7147.93011,0.30869
7146.00136,0.30756
7144.07262,0.30642
7142.14387,0.30657
7140.21513,0.30963
7138.28638,0.31225
7136.35764,0.31241
7134.42889,0.31134
7132.50015,0.31024
7130.57140,0.30852
7128.64266,0.30598
7126.71391,0.30590
7124.78516,0.30807
7122.85642,0.30919
7120.92767,0.31028
7118.99893,0.31191
7117.07018,0.31285
7115.14144,0.31318
7113.21269,0.31273
7111.28395,0.31142
7109.35520,0.30989
7107.42646,0.30821
7105.49771,0.30541
7103.56897,0.30288
7101.64022,0.30469
7099.71148,0.30963
7097.78273,0.31251
7095.85399,0.31273
7093.92524,0.31143
7091.99649,0.30901
7090.06775,0.30866
7088.13900,0.31203
7086.21026,0.31750
7084.28151,0.32285
7082.35277,0.32386
7080.42402,0.31937
7078.49528,0.31356
7076.56653,0.30870
7074.63779,0.30590
7072.70904,0.30594
7070.78030,0.30652
7068.85155,0.30581
7066.92281,0.30480
7064.99406,0.30550
7063.06532,0.30906
7061.13657,0.31392
7059.20782,0.31668
7057.27908,0.31568
7055.35033,0.31385
7053.42159,0.31471
7051.49284,0.31751
7049.56410,0.31902
7047.63535,0.31634
7045.70661,0.31115
7043.77786,0.30846
7041.84912,0.30924
7039.92037,0.31148
7037.99163,0.31336
7036.06288,0.31333
7034.13414,0.31169
7032.20539,0.31086
7030.27664,0.31179
7028.34790,0.31164
7026.41915,0.31115
7024.49041,0.31415
7022.56166,0.31731
7020.63292,0.31577
7018.70417,0.31205
7016.77543,0.31047
7014.84668,0.31080
7012.91794,0.31186
7010.98919,0.31370
7009.06045,0.31460
7007.13170,0.31340
7005.20296,0.31134
7003.27421,0.31030
7001.34547,0.30970
6999.41672,0.30639
6997.48797,0.30234
6995.55923,0.30202
6993.63048,0.30560
6991.70174,0.31021
6989.77299,0.31253
6987.84425,0.31320
6985.91550,0.31389
6983.98676,0.31325
6982.05801,0.31151
6980.12927,0.31050
6978.20052,0.31090
6976.27178,0.31108
6974.34303,0.30927
6972.41429,0.30671
6970.48554,0.30521
6968.55680,0.30551
6966.62805,0.30798
6964.69930,0.31121
6962.77056,0.31166
6960.84181,0.30915
6958.91307,0.30833
6956.98432,0.30979
6955.05558,0.31024
6953.12683,0.30997
6951.19809,0.31028
6949.26934,0.31061
6947.34060,0.31116
6945.41185,0.31232
6943.48311,0.31410
6941.55436,0.31652
6939.62562,0.31743
6937.69687,0.31467
6935.76812,0.31036
6933.83938,0.30952
6931.91063,0.31334
6929.98189,0.31620
6928.05314,0.31503
6926.12440,0.31374
6924.19565,0.31406
6922.26691,0.31239
6920.33816,0.30870
6918.40942,0.30696
6916.48067,0.30708
6914.55193,0.30810
6912.62318,0.31033
6910.69444,0.31217
6908.76569,0.31324
6906.83695,0.31386
6904.90820,0.31349
6902.97945,0.31225
6901.05071,0.31060
6899.12196,0.30983
6897.19322,0.31140
6895.26447,0.31359
6893.33573,0.31349
6891.40698,0.31251
6889.47824,0.31233
6887.54949,0.31162
6885.62075,0.31050
6883.69200,0.30987
6881.76326,0.31021
6879.83451,0.31129
6877.90577,0.31126
6875.97702,0.31025
6874.04828,0.31056
6872.11953,0.31243
6870.19078,0.31411
6868.26204,0.31397
6866.33329,0.31250
6864.40455,0.31172
6862.47580,0.31109
6860.54706,0.31059
6858.61831,0.31295
6856.68957,0.31516
6854.76082,0.31290
6852.83208,0.30960
6850.90333,0.30873
6848.97459,0.30969
6847.04584,0.31083
6845.11710,0.31101
6843.18835,0.31156
6841.25960,0.31311
6839.33086,0.31420
6837.40211,0.31435
6835.47337,0.31277
6833.54462,0.30953
6831.61588,0.30836
6829.68713,0.31095
6827.75839,0.31323
6825.82964,0.31209
6823.90090,0.30977
6821.97215,0.30841
6820.04341,0.30825
6818.11466,0.31057
6816.18592,0.31413
6814.25717,0.31472
6812.32843,0.31170
6810.39968,0.30809
6808.47093,0.30636
6806.54219,0.30751
6804.61344,0.31004
6802.68470,0.31201
6800.75595,0.31496
6798.82721,0.31816
6796.89846,0.31865
6794.96972,0.31786
6793.04097,0.31718
6791.11223,0.31542
6789.18348,0.31243
6787.25474,0.30929
6785.32599,0.30784
6783.39725,0.30914
6781.46850,0.31192
6779.53975,0.31403
6777.61101,0.31458
6775.68226,0.31355
6773.75352,0.31178
6771.82477,0.31200
6769.89603,0.31430
6767.96728,0.31468
6766.03854,0.31156
6764.10979,0.30746
6762.18105,0.30596
6760.25230,0.30899
6758.32356,0.31431
6756.39481,0.31732
6754.46607,0.31690
6752.53732,0.31547
6750.60858,0.31411
6748.67983,0.31337
6746.75108,0.31365
6744.82234,0.31313
6742.89359,0.31199
6740.96485,0.31249
6739.03610,0.31357
6737.10736,0.31310
6735.17861,0.31169
6733.24987,0.31051
6731.32112,0.30984
6729.39238,0.31026
6727.46363,0.31147
6725.53489,0.31283
6723.60614,0.31426
6721.67740,0.31374
6719.74865,0.31090
6717.81991,0.31006
6715.89116,0.31209
6713.96241,0.31241
6712.03367,0.30953
6710.10492,0.30654
6708.17618,0.30590
6706.24743,0.30676
6704.31869,0.30810
6702.38994,0.31052
6700.46120,0.31229
6698.53245,0.31253
6696.60371,0.31378
6694.67496,0.31517
6692.74622,0.31409
6690.81747,0.31134
6688.88873,0.30900
6686.95998,0.30902
6685.03123,0.31119
6683.10249,0.31222
6681.17374,0.31079
6679.24500,0.30863
6677.31625,0.30642
6675.38751,0.30487
6673.45876,0.30576
6671.53002,0.30865
6669.60127,0.31109
6667.67253,0.31142
6665.74378,0.31113
6663.81504,0.31244
6661.88629,0.31388
6659.95755,0.31366
6658.02880,0.31193
6656.10006,0.31019
6654.17131,0.31082
6652.24256,0.31250
6650.31382,0.31275
6648.38507,0.31227
6646.45633,0.31286
6644.52758,0.31592
6642.59884,0.31869
6640.67009,0.31748
6638.74135,0.31435
6636.81260,0.31257
6634.88386,0.31264
6632.95511,0.31303
6631.02637,0.31185
6629.09762,0.31017
6627.16888,0.31008
6625.24013,0.30997
6623.31139,0.30822
6621.38264,0.30745
6619.45389,0.30898
6617.52515,0.31021
6615.59640,0.30999
6613.66766,0.30995
6611.73891,0.31122
6609.81017,0.31241
6607.88142,0.31172
6605.95268,0.31003
6604.02393,0.30891
6602.09519,0.30882
6600.16644,0.30954
6598.23770,0.30971
6596.30895,0.30916
6594.38021,0.30873
6592.45146,0.30773
6590.52271,0.30655
6588.59397,0.30727
6586.66522,0.30979
6584.73648,0.31225
6582.80773,0.31337
6580.87899,0.31336
6578.95024,0.31366
6577.02150,0.31406
6575.09275,0.31255
6573.16401,0.31005
6571.23526,0.30922
6569.30652,0.30995
6567.37777,0.31099
6565.44903,0.31254
6563.52028,0.31485
6561.59154,0.31663
6559.66279,0.31625
6557.73404,0.31445
6555.80530,0.31279
6553.87655,0.31174
6551.94781,0.31178
6550.01906,0.31265
6548.09032,0.31265
6546.16157,0.31130
6544.23283,0.31055
6542.30408,0.31127
6540.37534,0.31120
6538.44659,0.30977
6536.51785,0.30955
6534.58910,0.31103
6532.66036,0.31268
6530.73161,0.31379
6528.80287,0.31349
6526.87412,0.31205
6524.94537,0.31099
6523.01663,0.31064
6521.08788,0.31154
6519.15914,0.31386
6517.23039,0.31448
6515.30165,0.31211
6513.37290,0.31079
6511.44416,0.31097
6509.51541,0.30934
6507.58667,0.30795
6505.65792,0.31002
6503.72918,0.31302
6501.80043,0.31367
6499.87169,0.31273
6497.94294,0.31213
6496.01419,0.31227
6494.08545,0.31277
6492.15670,0.31251
6490.22796,0.31178
6488.29921,0.31299
6486.37047,0.31543
6484.44172,0.31546
6482.51298,0.31310
6480.58423,0.31136
6478.65549,0.31131
6476.72674,0.31247
6474.79800,0.31348
6472.86925,0.31395
6470.94051,0.31522
6469.01176,0.31600
6467.08302,0.31468
6465.15427,0.31310
6463.22552,0.31274
6461.29678,0.31254
6459.36803,0.31113
6457.43929,0.30986
6455.51054,0.31078
6453.58180,0.31236
6451.65305,0.31217
6449.72431,0.31066
6447.79556,0.30990
6445.86682,0.31109
6443.93807,0.31325
6442.00933,0.31384
6440.08058,0.31329
6438.15184,0.31428
6436.22309,0.31502
6434.29434,0.31261
6432.36560,0.30929
6430.43685,0.30850
6428.50811,0.31018
6426.57936,0.31226
6424.65062,0.31315
6422.72187,0.31249
6420.79313,0.31129
6418.86438,0.31102
6416.93564,0.31164
6415.00689,0.31186
6413.07815,0.31154
6411.14940,0.31176
6409.22066,0.31253
6407.29191,0.31351
6405.36317,0.31467
6403.43442,0.31464
6401.50567,0.31282
6399.57693,0.31084
6397.64818,0.31012
6395.71944,0.31057
6393.79069,0.31054
6391.86195,0.31005
6389.93320,0.31077
6388.00446,0.31221
6386.07571,0.31367
6384.14697,0.31499
6382.21822,0.31438
6380.28948,0.31165
6378.36073,0.30951
6376.43199,0.30950
6374.50324,0.31067
6372.57450,0.31175
6370.64575,0.31237
6368.71700,0.31194
6366.78826,0.31021
6364.85951,0.30998
6362.93077,0.31272
6361.00202,0.31516
6359.07328,0.31516
6357.14453,0.31346
6355.21579,0.31100
6353.28704,0.30874
6351.35830,0.30796
6349.42955,0.30824
6347.50081,0.30737
6345.57206,0.30633
6343.64332,0.30766
6341.71457,0.31060
6339.78582,0.31276
6337.85708,0.31327
6335.92833,0.31309
6333.99959,0.31234
6332.07084,0.31043
6330.14210,0.30929
6328.21335,0.31051
6326.28461,0.31216
6324.35586,0.31197
6322.42712,0.31042
6320.49837,0.30949
6318.56963,0.30999
6316.64088,0.31148
6314.71214,0.31330
6312.78339,0.31331
6310.85465,0.31072
6308.92590,0.30893
6306.99715,0.30946
6305.06841,0.31029
6303.13966,0.31115
6301.21092,0.31244
6299.28217,0.31254
6297.35343,0.31084
6295.42468,0.31010
6293.49594,0.31124
6291.56719,0.31183
6289.63845,0.31116
6287.70970,0.31019
6285.78096,0.30932
6283.85221,0.30864
6281.92347,0.30841
6279.99472,0.30917
6278.06598,0.30928
6276.13723,0.30690
6274.20848,0.30449
6272.27974,0.30488
6270.35099,0.30689
6268.42225,0.30835
6266.49350,0.30941
6264.56476,0.31051
6262.63601,0.31020
6260.70727,0.30824
6258.77852,0.30732
6256.84978,0.30866
6254.92103,0.30999
6252.99229,0.30983
6251.06354,0.30899
6249.13480,0.30791
6247.20605,0.30689
6245.27730,0.30602
6243.34856,0.30577
6241.41981,0.30702
6239.49107,0.30868
6237.56232,0.30956
6235.63358,0.31061
6233.70483,0.31163
6231.77609,0.31066
6229.84734,0.30872
6227.91860,0.30829
6225.98985,0.30827
6224.06111,0.30750
6222.13236,0.30745
6220.20362,0.30829
6218.27487,0.30830
6216.34613,0.30760
6214.41738,0.30816
6212.48863,0.30968
6210.55989,0.31016
6208.63114,0.30980
6206.70240,0.30976
6204.77365,0.30941
6202.84491,0.30853
6200.91616,0.30810
6198.98742,0.30832
6197.05867,0.30914
6195.12993,0.31027
6193.20118,0.31126
6191.27244,0.31238
6189.34369,0.31346
6187.41495,0.31317
6185.48620,0.31144
6183.55746,0.30975
6181.62871,0.30840
6179.69996,0.30743
6177.77122,0.30755
6175.84247,0.30827
6173.91373,0.30822
6171.98498,0.30745
6170.05624,0.30767
6168.12749,0.30857
6166.19875,0.30791
6164.27000,0.30660
6162.34126,0.30660
6160.41251,0.30636
6158.48377,0.30518
6156.55502,0.30598
6154.62628,0.30837
6152.69753,0.30868
6150.76878,0.30733
6148.84004,0.30673
6146.91129,0.30652
6144.98255,0.30603
6143.05380,0.30642
6141.12506,0.30778
6139.19631,0.30859
6137.26757,0.30834
6135.33882,0.30747
6133.41008,0.30678
6131.48133,0.30657
6129.55259,0.30617
6127.62384,0.30598
6125.69510,0.30665
6123.76635,0.30733
6121.83761,0.30796
6119.90886,0.30866
6117.98011,0.30818
6116.05137,0.30649
6114.12262,0.30487
6112.19388,0.30471
6110.26513,0.30635
6108.33639,0.30760
6106.40764,0.30724
6104.47890,0.30662
6102.55015,0.30697
6100.62141,0.30800
6098.69266,0.30795
6096.76392,0.30672
6094.83517,0.30596
6092.90643,0.30596
6090.97768,0.30643
6089.04893,0.30757
6087.12019,0.30822
6085.19144,0.30760
6083.26270,0.30716
6081.33395,0.30718
6079.40521,0.30693
6077.47646,0.30633
6075.54772,0.30524
6073.61897,0.30479
6071.69023,0.30607
6069.76148,0.30780
6067.83274,0.30824
6065.90399,0.30693
6063.97525,0.30519
6062.04650,0.30469
6060.11776,0.30482
6058.18901,0.30395
6056.26026,0.30303
6054.33152,0.30439
6052.40277,0.30693
6050.47403,0.30735
6048.54528,0.30560
6046.61654,0.30470
6044.68779,0.30548
6042.75905,0.30572
6040.83030,0.30483
6038.90156,0.30433
6036.97281,0.30451
6035.04407,0.30521
6033.11532,0.30609
6031.18658,0.30530
6029.25783,0.30291
6027.32909,0.30187
6025.40034,0.30268
6023.47159,0.30303
6021.54285,0.30242
6019.61410,0.30265
6017.68536,0.30449
6015.75661,0.30648
6013.82787,0.30712
6011.89912,0.30659
6009.97038,0.30557
6008.04163,0.30519
6006.11289,0.30626
6004.18414,0.30726
6002.25540,0.30718
6000.32665,0.30639
5998.39791,0.30525
5996.46916,0.30463
5994.54041,0.30451
5992.61167,0.30472
5990.68292,0.30551
5988.75418,0.30588
5986.82543,0.30554
5984.89669,0.30479
5982.96794,0.30368
5981.03920,0.30339
5979.11045,0.30480
5977.18171,0.30662
5975.25296,0.30663
5973.32422,0.30508
5971.39547,0.30411
5969.46673,0.30360
5967.53798,0.30252
5965.60924,0.30169
5963.68049,0.30218
5961.75174,0.30377
5959.82300,0.30466
5957.89425,0.30329
5955.96551,0.30119
5954.03676,0.30082
5952.10802,0.30211
5950.17927,0.30344
5948.25053,0.30382
5946.32178,0.30346
5944.39304,0.30227
5942.46429,0.30028
5940.53555,0.29914
5938.60680,0.29926
5936.67806,0.29899
5934.74931,0.29777
5932.82057,0.29639
5930.89182,0.29558
5928.96307,0.29474
5927.03433,0.29271
5925.10558,0.29019
5923.17684,0.28855
5921.24809,0.28743
5919.31935,0.28565
5917.39060,0.28260
5915.46186,0.27881
5913.53311,0.27559
5911.60437,0.27364
5909.67562,0.27259
5907.74688,0.27229
5905.81813,0.27297
5903.88939,0.27417
5901.96064,0.27485
5900.03189,0.27458
5898.10315,0.27413
5896.17440,0.27403
5894.24566,0.27331
5892.31691,0.27169
5890.38817,0.27095
5888.45942,0.27124
5886.53068,0.27090
5884.60193,0.27043
5882.67319,0.27044
5880.74444,0.26989
5878.81570,0.26881
5876.88695,0.26778
5874.95821,0.26680
5873.02946,0.26542
5871.10072,0.26319
5869.17197,0.26088
5867.24322,0.25971
5865.31448,0.25958
5863.38573,0.25943
5861.45699,0.25863
5859.52824,0.25742
5857.59950,0.25656
5855.67075,0.25632
5853.74201,0.25591
5851.81326,0.25549
5849.88452,0.25681
5847.95577,0.25953
5846.02703,0.26080
5844.09828,0.26092
5842.16954,0.26215
5840.24079,0.26359
5838.31205,0.26405
5836.38330,0.26421
5834.45455,0.26462
5832.52581,0.26548
5830.59706,0.26656
5828.66832,0.26724
5826.73957,0.26713
5824.81083,0.26618
5822.88208,0.26526
5820.95334,0.26524
5819.02459,0.26510
5817.09585,0.26381
5815.16710,0.26232
5813.23836,0.26127
5811.30961,0.26044
5809.38087,0.25978
5807.45212,0.25938
5805.52337,0.25891
5803.59463,0.25737
5801.66588,0.25509
5799.73714,0.25387
5797.80839,0.25421
5795.87965,0.25498
5793.95090,0.25532
5792.02216,0.25606
5790.09341,0.25789
5788.16467,0.25914
5786.23592,0.25900
5784.30718,0.25905
5782.37843,0.25974
5780.44969,0.26000
5778.52094,0.25959
5776.59220,0.25860
5774.66345,0.25760
5772.73470,0.25803
5770.80596,0.25921
5768.87721,0.25900
5766.94847,0.25800
5765.01972,0.25779
5763.09098,0.25833
5761.16223,0.25907
5759.23349,0.25946
5757.30474,0.25911
5755.37600,0.25888
5753.44725,0.25974
5751.51851,0.26083
5749.58976,0.26127
5747.66102,0.26211
5745.73227,0.26393
5743.80352,0.26568
5741.87478,0.26733
5739.94603,0.26960
5738.01729,0.27156
5736.08854,0.27231
5734.15980,0.27260
5732.23105,0.27323
5730.30231,0.27385
5728.37356,0.27408
5726.44482,0.27443
5724.51607,0.27497
5722.58733,0.27513
5720.65858,0.27526
5718.72984,0.27581
5716.80109,0.27625
5714.87235,0.27643
5712.94360,0.27684
5711.01485,0.27737
5709.08611,0.27759
5707.15736,0.27731
5705.22862,0.27590
5703.29987,0.27414
5701.37113,0.27422
5699.44238,0.27592
5697.51364,0.27756
5695.58489,0.27849
5693.65615,0.27834
5691.72740,0.27775
5689.79866,0.27784
5687.86991,0.27832
5685.94117,0.27838
5684.01242,0.27794
5682.08368,0.27734
5680.15493,0.27748
5678.22618,0.27908
5676.29744,0.28058
5674.36869,0.28034
5672.43995,0.27918
5670.51120,0.27825
5668.58246,0.27803
5666.65371,0.27843
5664.72497,0.27873
5662.79622,0.27855
5660.86748,0.27801
5658.93873,0.27756
5657.00999,0.27747
5655.08124,0.27765
5653.15250,0.27806
5651.22375,0.27864
5649.29500,0.27909
5647.36626,0.27924
5645.43751,0.27929
5643.50877,0.27962
5641.58002,0.27973
5639.65128,0.27939
5637.72253,0.27990
5635.79379,0.28122
5633.86504,0.28162
5631.93630,0.28098
5630.00755,0.28072
5628.07881,0.28122
5626.15006,0.28125
5624.22132,0.28051
5622.29257,0.28030
5620.36383,0.28061
5618.43508,0.28064
5616.50633,0.28082
5614.57759,0.28148
5612.64884,0.28211
5610.72010,0.28224
5608.79135,0.28213
5606.86261,0.28235
5604.93386,0.28302
5603.00512,0.28372
5601.07637,0.28419
5599.14763,0.28482
5597.21888,0.28539
5595.29014,0.28494
5593.36139,0.28388
5591.43265,0.28350
5589.50390,0.28401
5587.57516,0.28479
5585.64641,0.28539
5583.71766,0.28563
5581.78892,0.28520
5579.86017,0.28422
5577.93143,0.28369
5576.00268,0.28447
5574.07394,0.28588
5572.14519,0.28660
5570.21645,0.28658
5568.28770,0.28622
5566.35896,0.28528
5564.43021,0.28407
5562.50147,0.28356
5560.57272,0.28403
5558.64398,0.28513
5556.71523,0.28615
5554.78648,0.28624
5552.85774,0.28577
5550.92899,0.28547
5549.00025,0.28518
5547.07150,0.28486
5545.14276,0.28501
5543.21401,0.28564
5541.28527,0.28608
5539.35652,0.28606
5537.42778,0.28577
5535.49903,0.28501
5533.57029,0.28383
5531.64154,0.28283
5529.71280,0.28264
5527.78405,0.28301
5525.85531,0.28329
5523.92656,0.28368
5521.99781,0.28394
5520.06907,0.28367
5518.14032,0.28360
5516.21158,0.28385
5514.28283,0.28383
5512.35409,0.28353
5510.42534,0.28316
5508.49660,0.28268
5506.56785,0.28237
5504.63911,0.28281
5502.71036,0.28381
5500.78162,0.28437
5498.85287,0.28413
5496.92413,0.28349
5494.99538,0.28311
5493.06664,0.28324
5491.13789,0.28314
5489.20914,0.28275
5487.28040,0.28274
5485.35165,0.28316
5483.42291,0.28385
5481.49416,0.28432
5479.56542,0.28394
5477.63667,0.28329
5475.70793,0.28350
5473.77918,0.28463
5471.85044,0.28534
5469.92169,0.28467
5467.99295,0.28351
5466.06420,0.28289
5464.13546,0.28300
5462.20671,0.28363
5460.27796,0.28420
5458.34922,0.28441
5456.42047,0.28453
5454.49173,0.28492
5452.56298,0.28527
5450.63424,0.28534
5448.70549,0.28562
5446.77675,0.28586
5444.84800,0.28578
5442.91926,0.28548
5440.99051,0.28470
5439.06177,0.28418
5437.13302,0.28457
5435.20428,0.28533
5433.27553,0.28605
5431.34679,0.28655
5429.41804,0.28677
5427.48929,0.28704
5425.56055,0.28784
5423.63180,0.28847
5421.70306,0.28800
5419.77431,0.28720
5417.84557,0.28707
5415.91682,0.28754
5413.98808,0.28783
5412.05933,0.28782
5410.13059,0.28824
5408.20184,0.28907
5406.27310,0.28987
5404.34435,0.29054
5402.41561,0.29094
5400.48686,0.29083
5398.55811,0.29041
5396.62937,0.29027
5394.70062,0.29051
5392.77188,0.29110
5390.84313,0.29160
5388.91439,0.29098
5386.98564,0.29006
5385.05690,0.29035
5383.12815,0.29090
5381.19941,0.29082
5379.27066,0.29086
5377.34192,0.29136
5375.41317,0.29194
5373.48443,0.29201
5371.55568,0.29153
5369.62694,0.29152
5367.69819,0.29220
5365.76944,0.29266
5363.84070,0.29272
5361.91195,0.29280
5359.98321,0.29291
5358.05446,0.29280
5356.12572,0.29241
5354.19697,0.29164
5352.26823,0.29058
5350.33948,0.29001
5348.41074,0.29064
5346.48199,0.29187
5344.55325,0.29213
5342.62450,0.29163
5340.69576,0.29219
5338.76701,0.29343
5336.83827,0.29362
5334.90952,0.29292
5332.98077,0.29246
5331.05203,0.29237
5329.12328,0.29225
5327.19454,0.29194
5325.26579,0.29136
5323.33705,0.29063
5321.40830,0.29014
5319.47956,0.29032
5317.55081,0.29113
5315.62207,0.29181
5313.69332,0.29187
5311.76458,0.29190
5309.83583,0.29200
5307.90709,0.29132
5305.97834,0.29013
5304.04959,0.28971
5302.12085,0.29033
5300.19210,0.29099
5298.26336,0.29096
5296.33461,0.29077
5294.40587,0.29092
5292.47712,0.29091
5290.54838,0.29062
5288.61963,0.29090
5286.69089,0.29184
5284.76214,0.29231
5282.83340,0.29184
5280.90465,0.29106
5278.97591,0.29043
5277.04716,0.29021
5275.11842,0.29055
5273.18967,0.29096
5271.26092,0.29093
5269.33218,0.29082
5267.40343,0.29079
5265.47469,0.29076
5263.54594,0.29129
5261.61720,0.29214
5259.68845,0.29239
5257.75971,0.29218
5255.83096,0.29167
5253.90222,0.29090
5251.97347,0.29087
5250.04473,0.29165
5248.11598,0.29218
5246.18724,0.29254
5244.25849,0.29290
5242.32975,0.29231
5240.40100,0.29122
5238.47225,0.29115
5236.54351,0.29165
5234.61476,0.29158
5232.68602,0.29144
5230.75727,0.29172
5228.82853,0.29192
5226.89978,0.29179
5224.97104,0.29154
5223.04229,0.29115
5221.11355,0.29074
5219.18480,0.29058
5217.25606,0.29055
5215.32731,0.29047
5213.39857,0.29059
5211.46982,0.29096
5209.54107,0.29114
5207.61233,0.29110
5205.68358,0.29121
5203.75484,0.29136
5201.82609,0.29139
5199.89735,0.29135
5197.96860,0.29123
5196.03986,0.29088
5194.11111,0.29038
5192.18237,0.29045
5190.25362,0.29113
5188.32488,0.29171
5186.39613,0.29178
5184.46739,0.29147
5182.53864,0.29135
5180.60990,0.29156
5178.68115,0.29160
5176.75240,0.29151
5174.82366,0.29144
5172.89491,0.29115
5170.96617,0.29103
5169.03742,0.29152
5167.10868,0.29177
5165.17993,0.29138
5163.25119,0.29104
5161.32244,0.29105
5159.39370,0.29122
5157.46495,0.29125
5155.53621,0.29111
5153.60746,0.29096
5151.67872,0.29080
5149.74997,0.29072
5147.82123,0.29060
5145.89248,0.29024
5143.96373,0.29011
5142.03499,0.29048
5140.10624,0.29112
5138.17750,0.29176
5136.24875,0.29211
5134.32001,0.29207
5132.39126,0.29191
5130.46252,0.29181
5128.53377,0.29157
5126.60503,0.29113
5124.67628,0.29094
5122.74754,0.29128
5120.81879,0.29168
5118.89005,0.29174
5116.96130,0.29164
5115.03255,0.29104
5113.10381,0.28976
5111.17506,0.28893
5109.24632,0.28916
5107.31757,0.28988
5105.38883,0.29055
5103.46008,0.29079
5101.53134,0.29071
5099.60259,0.29101
5097.67385,0.29138
5095.74510,0.29102
5093.81636,0.29030
5091.88761,0.28989
5089.95887,0.28978
5088.03012,0.28981
5086.10138,0.28970
5084.17263,0.28930
5082.24388,0.28904
5080.31514,0.28939
5078.38639,0.29012
5076.45765,0.29044
5074.52890,0.29015
5072.60016,0.28993
5070.67141,0.29014
5068.74267,0.29042
5066.81392,0.29031
5064.88518,0.28980
5062.95643,0.28924
5061.02769,0.28880
5059.09894,0.28863
5057.17020,0.28866
5055.24145,0.28860
5053.31270,0.28872
5051.38396,0.28938
5049.45521,0.29029
5047.52647,0.29084
5045.59772,0.29068
5043.66898,0.29033
5041.74023,0.29038
5039.81149,0.29024
5037.88274,0.28955
5035.95400,0.28950
5034.02525,0.29038
5032.09651,0.29093
5030.16776,0.29079
5028.23902,0.29029
5026.31027,0.28992
5024.38153,0.29037
5022.45278,0.29113
5020.52403,0.29115
5018.59529,0.29066
5016.66654,0.29043
5014.73780,0.29042
5012.80905,0.29032
5010.88031,0.29040
5008.95156,0.29092
5007.02282,0.29160
5005.09407,0.29189
5003.16533,0.29171
5001.23658,0.29133
4999.30784,0.29119
4997.37909,0.29169
4995.45035,0.29232
4993.52160,0.29238
4991.59286,0.29232
4989.66411,0.29247
4987.73536,0.29240
4985.80662,0.29195
4983.87787,0.29147
4981.94913,0.29114
4980.02038,0.29112
4978.09164,0.29146
4976.16289,0.29190
4974.23415,0.29222
4972.30540,0.29216
4970.37666,0.29187
4968.44791,0.29187
4966.51917,0.29202
4964.59042,0.29197
4962.66168,0.29178
4960.73293,0.29155
4958.80418,0.29161
4956.87544,0.29207
4954.94669,0.29253
4953.01795,0.29286
4951.08920,0.29314
4949.16046,0.29336
4947.23171,0.29342
4945.30297,0.29315
4943.37422,0.29295
4941.44548,0.29338
4939.51673,0.29400
4937.58799,0.29401
4935.65924,0.29352
4933.73050,0.29329
4931.80175,0.29341
4929.87301,0.29342
4927.94426,0.29318
4926.01551,0.29302
4924.08677,0.29296
4922.15802,0.29266
4920.22928,0.29256
4918.30053,0.29313
4916.37179,0.29371
4914.44304,0.29380
4912.51430,0.29363
4910.58555,0.29328
4908.65681,0.29306
4906.72806,0.29323
4904.79932,0.29329
4902.87057,0.29302
4900.94183,0.29270
4899.01308,0.29247
4897.08434,0.29250
4895.15559,0.29281
4893.22684,0.29297
4891.29810,0.29261
4889.36935,0.29233
4887.44061,0.29301
4885.51186,0.29386
4883.58312,0.29374
4881.65437,0.29318
4879.72563,0.29324
4877.79688,0.29377
4875.86814,0.29373
4873.93939,0.29312
4872.01065,0.29284
4870.08190,0.29281
4868.15316,0.29279
4866.22441,0.29316
4864.29566,0.29361
4862.36692,0.29342
4860.43817,0.29299
4858.50943,0.29293
4856.58068,0.29291
4854.65194,0.29256
4852.72319,0.29235
4850.79445,0.29255
4848.86570,0.29259
4846.93696,0.29226
4845.00821,0.29186
4843.07947,0.29162
4841.15072,0.29157
4839.22198,0.29156
4837.29323,0.29168
4835.36449,0.29214
4833.43574,0.29297
4831.50699,0.29396
4829.57825,0.29459
4827.64950,0.29434
4825.72076,0.29310
4823.79201,0.29171
4821.86327,0.29145
4819.93452,0.29208
4818.00578,0.29210
4816.07703,0.29140
4814.14829,0.29091
4812.21954,0.29082
4810.29080,0.29096
4808.36205,0.29116
4806.43331,0.29138
4804.50456,0.29165
4802.57582,0.29182
4800.64707,0.29202
4798.71832,0.29237
4796.78958,0.29273
4794.86083,0.29293
4792.93209,0.29275
4791.00334,0.29226
4789.07460,0.29183
4787.14585,0.29163
4785.21711,0.29169
4783.28836,0.29206
4781.35962,0.29261
4779.43087,0.29293
4777.50213,0.29286
4775.57338,0.29281
4773.64464,0.29284
4771.71589,0.29238
4769.78714,0.29180
4767.85840,0.29168
4765.92965,0.29158
4764.00091,0.29145
4762.07216,0.29184
4760.14342,0.29259
4758.21467,0.29295
4756.28593,0.29257
4754.35718,0.29191
4752.42844,0.29169
4750.49969,0.29201
4748.57095,0.29236
4746.64220,0.29226
4744.71346,0.29199
4742.78471,0.29214
4740.85597,0.29230
4738.92722,0.29199
4736.99847,0.29174
4735.06973,0.29208
4733.14098,0.29265
4731.21224,0.29273
4729.28349,0.29214
4727.35475,0.29160
4725.42600,0.29174
4723.49726,0.29214
4721.56851,0.29241
4719.63977,0.29271
4717.71102,0.29287
4715.78228,0.29283
4713.85353,0.29282
4711.92479,0.29278
4709.99604,0.29270
4708.06729,0.29263
4706.13855,0.29241
4704.20980,0.29205
4702.28106,0.29161
4700.35231,0.29124
4698.42357,0.29151
4696.49482,0.29227
4694.56608,0.29250
4692.63733,0.29177
4690.70859,0.29073
4688.77984,0.29034
4686.85110,0.29097
4684.92235,0.29191
4682.99361,0.29228
4681.06486,0.29218
4679.13612,0.29206
4677.20737,0.29176
4675.27862,0.29132
4673.34988,0.29113
4671.42113,0.29114
4669.49239,0.29086
4667.56364,0.29030
4665.63490,0.29001
4663.70615,0.29011
4661.77741,0.29029
4659.84866,0.29044
4657.91992,0.29057
4655.99117,0.29064
4654.06243,0.29070
4652.13368,0.29069
4650.20494,0.29033
4648.27619,0.28980
4646.34745,0.28951
4644.41870,0.28932
4642.48995,0.28926
4640.56121,0.28962
4638.63246,0.28999
4636.70372,0.29011
4634.77497,0.29034
4632.84623,0.29028
4630.91748,0.28947
4628.98874,0.28867
4627.05999,0.28845
4625.13125,0.28857
4623.20250,0.28866
4621.27376,0.28863
4619.34501,0.28869
4617.41627,0.28861
4615.48752,0.28818
4613.55877,0.28799
4611.63003,0.28816
4609.70128,0.28800
4607.77254,0.28758
4605.84379,0.28738
4603.91505,0.28739
4601.98630,0.28730
4600.05756,0.28693
4598.12881,0.28640
4596.20007,0.28601
4594.27132,0.28608
4592.34258,0.28628
4590.41383,0.28616
4588.48509,0.28598
4586.55634,0.28605
4584.62760,0.28609
4582.69885,0.28588
4580.77010,0.28556
4578.84136,0.28517
4576.91261,0.28478
4574.98387,0.28449
4573.05512,0.28432
4571.12638,0.28430
4569.19763,0.28421
4567.26889,0.28404
4565.34014,0.28400
4563.41140,0.28391
4561.48265,0.28369
4559.55391,0.28354
4557.62516,0.28365
4555.69642,0.28408
4553.76767,0.28442
4551.83893,0.28430
4549.91018,0.28395
4547.98143,0.28366
4546.05269,0.28369
4544.12394,0.28396
4542.19520,0.28404
4540.26645,0.28381
4538.33771,0.28348
4536.40896,0.28331
4534.48022,0.28344
4532.55147,0.28364
4530.62273,0.28365
4528.69398,0.28347
4526.76524,0.28323
4524.83649,0.28304
4522.90775,0.28311
4520.97900,0.28346
4519.05025,0.28372
4517.12151,0.28376
4515.19276,0.28371
4513.26402,0.28349
4511.33527,0.28297
4509.40653,0.28240
4507.47778,0.28214
4505.54904,0.28224
4503.62029,0.28231
4501.69155,0.28191
4499.76280,0.28144
4497.83406,0.28174
4495.90531,0.28232
4493.97657,0.28223
4492.04782,0.28177
4490.11908,0.28155
4488.19033,0.28135
4486.26158,0.28115
4484.33284,0.28128
4482.40409,0.28144
4480.47535,0.28104
4478.54660,0.28021
4476.61786,0.27962
4474.68911,0.27949
4472.76037,0.27931
4470.83162,0.27874
4468.90288,0.27788
4466.97413,0.27707
4465.04539,0.27668
4463.11664,0.27654
4461.18790,0.27623
4459.25915,0.27583
4457.33041,0.27540
4455.40166,0.27466
4453.47291,0.27372
4451.54417,0.27280
4449.61542,0.27164
4447.68668,0.27026
4445.75793,0.26896
4443.82919,0.26738
4441.90044,0.26511
4439.97170,0.26277
4438.04295,0.26092
4436.11421,0.25897
4434.18546,0.25636
4432.25672,0.25319
4430.32797,0.24975
4428.39923,0.24642
4426.47048,0.24314
4424.54173,0.23964
4422.61299,0.23602
4420.68424,0.23236
4418.75550,0.22873
4416.82675,0.22516
4414.89801,0.22165
4412.96926,0.21822
4411.04052,0.21462
4409.11177,0.21074
4407.18303,0.20731
4405.25428,0.20478
4403.32554,0.20224
4401.39679,0.19890
4399.46805,0.19525
4397.53930,0.19172
4395.61056,0.18811
4393.68181,0.18508
4391.75306,0.18369
4389.82432,0.18408
4387.89557,0.18593
4385.96683,0.18864
4384.03808,0.19135
4382.10934,0.19373
4380.18059,0.19590
4378.25185,0.19774
4376.32310,0.19921
4374.39436,0.20059
4372.46561,0.20184
4370.53687,0.20278
4368.60812,0.20359
4366.67938,0.20429
4364.75063,0.20480
4362.82189,0.20525
4360.89314,0.20573
4358.96439,0.20596
4357.03565,0.20557
4355.10690,0.20456
4353.17816,0.20301
4351.24941,0.20104
4349.32067,0.19857
4347.39192,0.19512
4345.46318,0.19048
4343.53443,0.18498
4341.60569,0.17920
4339.67694,0.17360
4337.74820,0.16805
4335.81945,0.16236
4333.89071,0.15708
4331.96196,0.15292
4330.03321,0.14977
4328.10447,0.14747
4326.17572,0.14642
4324.24698,0.14650
4322.31823,0.14696
4320.38949,0.14753
4318.46074,0.14824
4316.53200,0.14895
4314.60325,0.14978
4312.67451,0.15082
4310.74576,0.15196
4308.81702,0.15356
4306.88827,0.15596
4304.95953,0.15897
4303.03078,0.16240
4301.10204,0.16586
4299.17329,0.16895
4297.24454,0.17166
4295.31580,0.17388
4293.38705,0.17536
4291.45831,0.17580
4289.52956,0.17546
4287.60082,0.17520
4285.67207,0.17532
4283.74333,0.17541
4281.81458,0.17547
4279.88584,0.17592
4277.95709,0.17649
4276.02835,0.17658
4274.09960,0.17643
4272.17086,0.17651
4270.24211,0.17633
4268.31336,0.17549
4266.38462,0.17424
4264.45587,0.17281
4262.52713,0.17128
4260.59838,0.16981
4258.66964,0.16812
4256.74089,0.16568
4254.81215,0.16269
4252.88340,0.15995
4250.95466,0.15762
4249.02591,0.15554
4247.09717,0.15367
4245.16842,0.15191
4243.23968,0.15042
4241.31093,0.15001
4239.38219,0.15111
4237.45344,0.15328
4235.52469,0.15613
4233.59595,0.15933
4231.66720,0.16237
4229.73846,0.16494
4227.80971,0.16692
4225.88097,0.16811
4223.95222,0.16854
4222.02348,0.16854
4220.09473,0.16854
4218.16599,0.16867
4216.23724,0.16893
4214.30850,0.16945
4212.37975,0.17026
4210.45101,0.17114
4208.52226,0.17191
4206.59352,0.17263
4204.66477,0.17363
4202.73602,0.17503
4200.80728,0.17648
4198.87853,0.17803
4196.94979,0.17995
4195.02104,0.18200
4193.09230,0.18375
4191.16355,0.18491
4189.23481,0.18557
4187.30606,0.18602
4185.37732,0.18600
4183.44857,0.18525
4181.51983,0.18409
4179.59108,0.18280
4177.66234,0.18142
4175.73359,0.17988
4173.80484,0.17835
4171.87610,0.17702
4169.94735,0.17596
4168.01861,0.17546
4166.08986,0.17583
4164.16112,0.17698
4162.23237,0.17849
4160.30363,0.17994
4158.37488,0.18117
4156.44614,0.18236
4154.51739,0.18352
4152.58865,0.18434
4150.65990,0.18497
4148.73116,0.18600
4146.80241,0.18738
4144.87367,0.18843
4142.94492,0.18912
4141.01617,0.18964
4139.08743,0.18987
4137.15868,0.19008
4135.22994,0.19040
4133.30119,0.19021
4131.37245,0.18943
4129.44370,0.18846
4127.51496,0.18733
4125.58621,0.18632
4123.65747,0.18575
4121.72872,0.18540
4119.79998,0.18522
4117.87123,0.18524
4115.94249,0.18546
4114.01374,0.18607
4112.08500,0.18698
4110.15625,0.18800
4108.22750,0.18924
4106.29876,0.19071
4104.37001,0.19247
4102.44127,0.19447
4100.51252,0.19617
4098.58378,0.19727
4096.65503,0.19781
4094.72629,0.19790
4092.79754,0.19767
4090.86880,0.19701
4088.94005,0.19574
4087.01131,0.19395
4085.08256,0.19191
4083.15382,0.19004
4081.22507,0.18844
4079.29632,0.18649
4077.36758,0.18398
4075.43883,0.18143
4073.51009,0.17910
4071.58134,0.17675
4069.65260,0.17421
4067.72385,0.17143
4065.79511,0.16875
4063.86636,0.16649
4061.93762,0.16467
4060.00887,0.16348
4058.08013,0.16356
4056.15138,0.16561
4054.22264,0.16935
4052.29389,0.17355
4050.36515,0.17774
4048.43640,0.18220
4046.50765,0.18656
4044.57891,0.19020
4042.65016,0.19297
4040.72142,0.19500
4038.79267,0.19669
4036.86393,0.19841
4034.93518,0.20005
4033.00644,0.20117
4031.07769,0.20190
4029.14895,0.20256
4027.22020,0.20304
4025.29146,0.20332
4023.36271,0.20370
4021.43397,0.20444
4019.50522,0.20540
4017.57648,0.20638
4015.64773,0.20752
4013.71898,0.20879
4011.79024,0.20975
4009.86149,0.21042
4007.93275,0.21097
4006.00400,0.21134
4004.07526,0.21149
4002.14651,0.21123
4000.21777,0.21052
3998.28902,0.20972
3996.36028,0.20906
3994.43153,0.20869
3992.50279,0.20885
3990.57404,0.20951
3988.64530,0.21059
3986.71655,0.21197
3984.78780,0.21339
3982.85906,0.21480
3980.93031,0.21633
3979.00157,0.21783
3977.07282,0.21896
3975.14408,0.21963
3973.21533,0.21998
3971.28659,0.22015
3969.35784,0.22038
3967.42910,0.22088
3965.50035,0.22140
3963.57161,0.22163
3961.64286,0.22176
3959.71412,0.22214
3957.78537,0.22277
3955.85663,0.22346
3953.92788,0.22395
3951.99913,0.22395
3950.07039,0.22360
3948.14164,0.22326
3946.21290,0.22285
3944.28415,0.22216
3942.35541,0.22161
3940.42666,0.22144
3938.49792,0.22110
3936.56917,0.22056
3934.64043,0.22037
3932.71168,0.22050
3930.78294,0.22074
3928.85419,0.22116
3926.92545,0.22159
3924.99670,0.22160
3923.06795,0.22130
3921.13921,0.22135
3919.21046,0.22213
3917.28172,0.22323
3915.35297,0.22424
3913.42423,0.22518
3911.49548,0.22606
3909.56674,0.22684
3907.63799,0.22764
3905.70925,0.22844
3903.78050,0.22882
3901.85176,0.22873
3899.92301,0.22856
3897.99427,0.22840
3896.06552,0.22828
3894.13678,0.22831
3892.20803,0.22849
3890.27928,0.22858
3888.35054,0.22847
3886.42179,0.22873
3884.49305,0.22941
3882.56430,0.22970
3880.63556,0.22962
3878.70681,0.22970
3876.77807,0.22994
3874.84932,0.23010
3872.92058,0.23023
3870.99183,0.23074
3869.06309,0.23146
3867.13434,0.23175
3865.20560,0.23178
3863.27685,0.23200
3861.34811,0.23258
3859.41936,0.23368
3857.49061,0.23496
3855.56187,0.23577
3853.63312,0.23600
3851.70438,0.23618
3849.77563,0.23652
3847.84689,0.23669
3845.91814,0.23644
3843.98940,0.23605
3842.06065,0.23600
3840.13191,0.23603
3838.20316,0.23566
3836.27442,0.23528
3834.34567,0.23526
3832.41693,0.23534
3830.48818,0.23539
3828.55943,0.23532
3826.63069,0.23502
3824.70194,0.23448
3822.77320,0.23378
3820.84445,0.23349
3818.91571,0.23387
3816.98696,0.23406
3815.05822,0.23379
3813.12947,0.23358
3811.20073,0.23356
3809.27198,0.23366
3807.34324,0.23400
3805.41449,0.23469
3803.48575,0.23535
3801.55700,0.23566
3799.62826,0.23591
3797.69951,0.23608
3795.77076,0.23594
3793.84202,0.23593
3791.91327,0.23631
3789.98453,0.23689
3788.05578,0.23746
3786.12704,0.23778
3784.19829,0.23778
3782.26955,0.23773
3780.34080,0.23764
3778.41206,0.23716
3776.48331,0.23627
3774.55457,0.23538
3772.62582,0.23451
3770.69708,0.23341
3768.76833,0.23219
3766.83959,0.23117
3764.91084,0.23071
3762.98209,0.23085
3761.05335,0.23111
3759.12460,0.23141
3757.19586,0.23212
3755.26711,0.23313
3753.33837,0.23418
3751.40962,0.23529
3749.48088,0.23627
3747.55213,0.23682
3745.62339,0.23712
3743.69464,0.23752
3741.76590,0.23799
3739.83715,0.23850
3737.90841,0.23905
3735.97966,0.23944
3734.05091,0.23975
3732.12217,0.24023
3730.19342,0.24071
3728.26468,0.24082
3726.33593,0.24064
3724.40719,0.24078
3722.47844,0.24134
3720.54970,0.24171
3718.62095,0.24162
3716.69221,0.24153
3714.76346,0.24177
3712.83472,0.24201
3710.90597,0.24210
3708.97723,0.24223
3707.04848,0.24223
3705.11974,0.24204
3703.19099,0.24183
3701.26224,0.24160
3699.33350,0.24141
3697.40475,0.24146
3695.47601,0.24168
3693.54726,0.24189
3691.61852,0.24213
3689.68977,0.24245
3687.76103,0.24284
3685.83228,0.24336
3683.90354,0.24380
3681.97479,0.24418
3680.04605,0.24492
3678.11730,0.24602
3676.18856,0.24700
3674.25981,0.24779
3672.33107,0.24873
3670.40232,0.25009
3668.47357,0.25157
3666.54483,0.25255
3664.61608,0.25317
3662.68734,0.25379
3660.75859,0.25445
3658.82985,0.25512
3656.90110,0.25580
3654.97236,0.25623
3653.04361,0.25618
3651.11487,0.25585
3649.18612,0.25542
3647.25738,0.25489
3645.32863,0.25436
3643.39989,0.25371
3641.47114,0.25271
3639.54239,0.25162
3637.61365,0.25091
3635.68490,0.25062
3633.75616,0.25074
3631.82741,0.25146
3629.89867,0.25277
3627.96992,0.25416
3626.04118,0.25520
3624.11243,0.25594
3622.18369,0.25655
3620.25494,0.25714
3618.32620,0.25755
3616.39745,0.25755
3614.46871,0.25740
3612.53996,0.25739
3610.61122,0.25749
3608.68247,0.25748
3606.75372,0.25737
3604.82498,0.25715
3602.89623,0.25672
3600.96749,0.25624
3599.03874,0.25588
3597.11000,0.25546
3595.18125,0.25487
3593.25251,0.25438
3591.32376,0.25403
3589.39502,0.25378
3587.46627,0.25366
3585.53753,0.25371
3583.60878,0.25409
3581.68004,0.25461
3579.75129,0.25486
3577.82254,0.25491
3575.89380,0.25512
3573.96505,0.25543
3572.03631,0.25567
3570.10756,0.25581
3568.17882,0.25592
3566.25007,0.25600
3564.32133,0.25604
3562.39258,0.25617
3560.46384,0.25622
3558.53509,0.25604
3556.60635,0.25590
3554.67760,0.25588
3552.74886,0.25572
3550.82011,0.25527
3548.89137,0.25485
3546.96262,0.25483
3545.03387,0.25500
3543.10513,0.25479
3541.17638,0.25420
3539.24764,0.25362
3537.31889,0.25314
3535.39015,0.25270
3533.46140,0.25254
3531.53266,0.25269
3529.60391,0.25263
3527.67517,0.25212
3525.74642,0.25154
3523.81768,0.25120
3521.88893,0.25105
3519.96019,0.25078
3518.03144,0.25023
3516.10270,0.25006
3514.17395,0.25051
3512.24520,0.25072
3510.31646,0.25036
3508.38771,0.24995
3506.45897,0.24958
3504.53022,0.24904
3502.60148,0.24856
3500.67273,0.24830
3498.74399,0.24794
3496.81524,0.24742
3494.88650,0.24708
3492.95775,0.24697
3491.02901,0.24681
3489.10026,0.24646
3487.17152,0.24594
3485.24277,0.24555
3483.31402,0.24551
3481.38528,0.24530
3479.45653,0.24453
3477.52779,0.24364
3475.59904,0.24307
3473.67030,0.24267
3471.74155,0.24223
3469.81281,0.24172
3467.88406,0.24102
3465.95532,0.24006
3464.02657,0.23916
3462.09783,0.23848
3460.16908,0.23771
3458.24034,0.23686
3456.31159,0.23609
3454.38285,0.23521
3452.45410,0.23424
3450.52535,0.23338
3448.59661,0.23256
3446.66786,0.23178
3444.73912,0.23086
3442.81037,0.22978
3440.88163,0.22889
3438.95288,0.22826
3437.02414,0.22753
3435.09539,0.22657
3433.16665,0.22559
3431.23790,0.22468
3429.30916,0.22386
3427.38041,0.22299
3425.45167,0.22192
3423.52292,0.22076
3421.59418,0.21995
3419.66543,0.21951
3417.73668,0.21894
3415.80794,0.21805
3413.87919,0.21743
3411.95045,0.21731
3410.02170,0.21724
3408.09296,0.21716
3406.16421,0.21742
3404.23547,0.21806
3402.30672,0.21888
3400.37798,0.21965
3398.44923,0.22020
3396.52049,0.22076
3394.59174,0.22148
3392.66300,0.22183
3390.73425,0.22144
3388.80550,0.22085
3386.87676,0.22045
3384.94801,0.21994
3383.01927,0.21929
3381.09052,0.21859
3379.16178,0.21766
3377.23303,0.21657
3375.30429,0.21567
3373.37554,0.21491
3371.44680,0.21401
3369.51805,0.21297
3367.58931,0.21213
3365.66056,0.21174
3363.73182,0.21159
3361.80307,0.21117
3359.87433,0.21029
3357.94558,0.20935
3356.01683,0.20862
3354.08809,0.20787
3352.15934,0.20708
3350.23060,0.20643
3348.30185,0.20585
3346.37311,0.20532
3344.44436,0.20487
3342.51562,0.20469
3340.58687,0.20496
3338.65813,0.20566
3336.72938,0.20653
3334.80064,0.20720
3332.87189,0.20750
3330.94315,0.20762
3329.01440,0.20772
3327.08566,0.20766
3325.15691,0.20721
3323.22816,0.20624
3321.29942,0.20471
3319.37067,0.20255
3317.44193,0.19970
3315.51318,0.19618
3313.58444,0.19211
3311.65569,0.18747
3309.72695,0.18221
3307.79820,0.17655
3305.86946,0.17077
3303.94071,0.16547
3302.01197,0.16160
3300.08322,0.16004
3298.15448,0.16107
3296.22573,0.16420
3294.29698,0.16872
3292.36824,0.17402
3290.43949,0.17917
3288.51075,0.18347
3286.58200,0.18674
3284.65326,0.18932
3282.72451,0.19189
3280.79577,0.19429
3278.86702,0.19590
3276.93828,0.19695
3275.00953,0.19799
3273.08079,0.19922
3271.15204,0.20046
3269.22330,0.20134
3267.29455,0.20187
3265.36581,0.20266
3263.43706,0.20379
3261.50831,0.20468
3259.57957,0.20516
3257.65082,0.20551
3255.72208,0.20582
3253.79333,0.20599
3251.86459,0.20609
3249.93584,0.20625
3248.00710,0.20628
3246.07835,0.20592
3244.14961,0.20523
3242.22086,0.20425
3240.29212,0.20292
3238.36337,0.20126
3236.43463,0.19940
3234.50588,0.19748
3232.57713,0.19552
3230.64839,0.19326
3228.71964,0.19056
3226.79090,0.18774
3224.86215,0.18512
3222.93341,0.18251
3221.00466,0.17969
3219.07592,0.17678
3217.14717,0.17390
3215.21843,0.17126
3213.28968,0.16885
3211.36094,0.16649
3209.43219,0.16429
3207.50345,0.16242
3205.57470,0.16085
3203.64596,0.15966
3201.71721,0.15890
3199.78846,0.15810
3197.85972,0.15703
3195.93097,0.15627
3194.00223,0.15613
3192.07348,0.15597
3190.14474,0.15555
3188.21599,0.15573
3186.28725,0.15668
3184.35850,0.15749
3182.42976,0.15784
3180.50101,0.15821
3178.57227,0.15888
3176.64352,0.15973
3174.71478,0.16053
3172.78603,0.16118
3170.85729,0.16170
3168.92854,0.16214
3166.99979,0.16243
3165.07105,0.16230
3163.14230,0.16178
3161.21356,0.16132
3159.28481,0.16109
3157.35607,0.16082
3155.42732,0.16039
3153.49858,0.15979
3151.56983,0.15891
3149.64109,0.15783
3147.71234,0.15697
3145.78360,0.15652
3143.85485,0.15625
3141.92611,0.15611
3139.99736,0.15628
3138.06861,0.15680
3136.13987,0.15757
3134.21112,0.15850
3132.28238,0.15952
3130.35363,0.16056
3128.42489,0.16153
3126.49614,0.16250
3124.56740,0.16365
3122.63865,0.16478
3120.70991,0.16560
3118.78116,0.16614
3116.85242,0.16657
3114.92367,0.16690
3112.99493,0.16723
3111.06618,0.16776
3109.13744,0.16821
3107.20869,0.16831
3105.27994,0.16824
3103.35120,0.16818
3101.42245,0.16793
3099.49371,0.16745
3097.56496,0.16705
3095.63622,0.16690
3093.70747,0.16686
3091.77873,0.16690
3089.84998,0.16695
3087.92124,0.16658
3085.99249,0.16571
3084.06375,0.16492
3082.13500,0.16448
3080.20626,0.16416
3078.27751,0.16370
3076.34877,0.16290
3074.42002,0.16187
3072.49127,0.16095
3070.56253,0.16024
3068.63378,0.15954
3066.70504,0.15862
3064.77629,0.15754
3062.84755,0.15654
3060.91880,0.15546
3058.99006,0.15413
3057.06131,0.15287
3055.13257,0.15184
3053.20382,0.15071
3051.27508,0.14947
3049.34633,0.14829
3047.41759,0.14723
3045.48884,0.14623
3043.56009,0.14516
3041.63135,0.14388
3039.70260,0.14245
3037.77386,0.14091
3035.84511,0.13920
3033.91637,0.13724
3031.98762,0.13505
3030.05888,0.13266
3028.13013,0.12992
3026.20139,0.12694
3024.27264,0.12386
3022.34390,0.12063
3020.41515,0.11729
3018.48641,0.11385
3016.55766,0.11025
3014.62892,0.10650
3012.70017,0.10258
3010.77142,0.09857
3008.84268,0.09449
3006.91393,0.09022
3004.98519,0.08575
3003.05644,0.08123
3001.12770,0.07668
2999.19895,0.07210
2997.27021,0.06735
2995.34146,0.06229
2993.41272,0.05707
2991.48397,0.05193
2989.55523,0.04725
2987.62648,0.04328
2985.69774,0.03973
2983.76899,0.03623
2981.84025,0.03301
2979.91150,0.03056
2977.98275,0.02877
2976.05401,0.02729
2974.12526,0.02605
2972.19652,0.02510
2970.26777,0.02446
2968.33903,0.02437
2966.41028,0.02497
2964.48154,0.02615
2962.55279,0.02775
2960.62405,0.02931
2958.69530,0.03018
2956.76656,0.03036
2954.83781,0.03045
2952.90907,0.03087
2950.98032,0.03173
2949.05157,0.03272
2947.12283,0.03316
2945.19408,0.03275
2943.26534,0.03204
2941.33659,0.03144
2939.40785,0.03081
2937.47910,0.03014
2935.55036,0.02959
2933.62161,0.02929
2931.69287,0.02930
2929.76412,0.02944
2927.83538,0.02957
2925.90663,0.03001
2923.97789,0.03100
2922.04914,0.03224
2920.12040,0.03359
2918.19165,0.03521
2916.26290,0.03664
2914.33416,0.03705
2912.40541,0.03665
2910.47667,0.03614
2908.54792,0.03584
2906.61918,0.03566
2904.69043,0.03546
2902.76169,0.03514
2900.83294,0.03489
2898.90420,0.03488
2896.97545,0.03491
2895.04671,0.03484
2893.11796,0.03466
2891.18922,0.03440
2889.26047,0.03406
2887.33172,0.03374
2885.40298,0.03363
2883.47423,0.03368
2881.54549,0.03368
2879.61674,0.03370
2877.68800,0.03380
2875.75925,0.03390
2873.83051,0.03396
2871.90176,0.03382
2869.97302,0.03353
2868.04427,0.03369
2866.11553,0.03449
2864.18678,0.03546
2862.25804,0.03621
2860.32929,0.03667
2858.40055,0.03696
2856.47180,0.03716
2854.54305,0.03710
2852.61431,0.03666
2850.68556,0.03599
2848.75682,0.03521
2846.82807,0.03443
2844.89933,0.03386
2842.97058,0.03369
2841.04184,0.03399
2839.11309,0.03461
2837.18435,0.03543
2835.25560,0.03640
2833.32686,0.03735
2831.39811,0.03835
2829.46937,0.03990
2827.54062,0.04217
2825.61188,0.04472
2823.68313,0.04713
2821.75438,0.04953
2819.82564,0.05199
2817.89689,0.05423
2815.96815,0.05609
2814.03940,0.05778
2812.11066,0.05953
2810.18191,0.06129
2808.25317,0.06309
2806.32442,0.06537
2804.39568,0.06834
2802.46693,0.07164
2800.53819,0.07470
2798.60944,0.07699
2796.68070,0.07859
2794.75195,0.08020
2792.82320,0.08252
2790.89446,0.08589
2788.96571,0.09023
2787.03697,0.09514
2785.10822,0.10007
2783.17948,0.10447
2781.25073,0.10820
2779.32199,0.11155
2777.39324,0.11466
2775.46450,0.11740
2773.53575,0.11961
2771.60701,0.12119
2769.67826,0.12235
2767.74952,0.12343
2765.82077,0.12441
2763.89203,0.12540
2761.96328,0.12667
2760.03453,0.12796
2758.10579,0.12900
2756.17704,0.12980
2754.24830,0.13033
2752.31955,0.13053
2750.39081,0.13023
2748.46206,0.12950
2746.53332,0.12834
2744.60457,0.12652
2742.67583,0.12392
2740.74708,0.12079
2738.81834,0.11747
2736.88959,0.11430
2734.96085,0.11143
2733.03210,0.10871
2731.10336,0.10575
2729.17461,0.10215
2727.24586,0.09782
2725.31712,0.09363
2723.38837,0.09117
2721.45963,0.09161
2719.53088,0.09477
2717.60214,0.09945
2715.67339,0.10444
2713.74465,0.10921
2711.81590,0.11362
2709.88716,0.11740
2707.95841,0.12051
2706.02967,0.12325
2704.10092,0.12594
2702.17218,0.12853
2700.24343,0.13076
2698.31468,0.13233
2696.38594,0.13325
2694.45719,0.13360
2692.52845,0.13338
2690.59970,0.13291
2688.67096,0.13264
2686.74221,0.13266
2684.81347,0.13274
2682.88472,0.13259
2680.95598,0.13224
2679.02723,0.13196
2677.09849,0.13208
2675.16974,0.13257
2673.24100,0.13317
2671.31225,0.13377
2669.38351,0.13431
2667.45476,0.13453
2665.52601,0.13429
2663.59727,0.13376
2661.66852,0.13336
2659.73978,0.13350
2657.81103,0.13426
2655.88229,0.13559
2653.95354,0.13744
2652.02480,0.13956
2650.09605,0.14139
2648.16731,0.14257
2646.23856,0.14333
2644.30982,0.14397
2642.38107,0.14472
2640.45233,0.14562
2638.52358,0.14628
2636.59484,0.14631
2634.66609,0.14557
2632.73734,0.14391
2630.80860,0.14150
2628.87985,0.13884
2626.95111,0.13623
2625.02236,0.13360
2623.09362,0.13099
2621.16487,0.12872
2619.23613,0.12690
2617.30738,0.12527
2615.37864,0.12377
2613.44989,0.12266
2611.52115,0.12220
2609.59240,0.12234
2607.66366,0.12277
2605.73491,0.12321
2603.80616,0.12348
2601.87742,0.12364
2599.94867,0.12373
2598.01993,0.12350
2596.09118,0.12275
2594.16244,0.12144
2592.23369,0.11967
2590.30495,0.11771
2588.37620,0.11563
2586.44746,0.11341
2584.51871,0.11134
2582.58997,0.10994
2580.66122,0.10972
2578.73248,0.11073
2576.80373,0.11244
2574.87499,0.11429
2572.94624,0.11616
2571.01749,0.11810
2569.08875,0.11983
2567.16000,0.12100
2565.23126,0.12180
2563.30251,0.12235
2561.37377,0.12259
2559.44502,0.12275
2557.51628,0.12284
2555.58753,0.12274
2553.65879,0.12270
2551.73004,0.12287
2549.80130,0.12299
2547.87255,0.12290
2545.94381,0.12280
2544.01506,0.12283
2542.08631,0.12263
2540.15757,0.12138
2538.22882,0.11849
2536.30008,0.11400
2534.37133,0.10854
2532.44259,0.10315
2530.51384,0.09838
2528.58510,0.09409
2526.65635,0.09021
2524.72761,0.08692
2522.79886,0.08422
2520.87012,0.08204
2518.94137,0.08057
2517.01263,0.07973
2515.08388,0.07904
2513.15514,0.07838
2511.22639,0.07835
2509.29764,0.07951
2507.36890,0.08188
2505.44015,0.08544
2503.51141,0.09014
2501.58266,0.09564
2499.65392,0.10182
2497.72517,0.10892
2495.79643,0.11684
2493.86768,0.12483
2491.93894,0.13217
2490.01019,0.13867
2488.08145,0.14435
2486.15270,0.14924
2484.22396,0.15364
2482.29521,0.15790
2480.36647,0.16217
2478.43772,0.16666
2476.50897,0.17148
2474.58023,0.17625
2472.65148,0.18060
2470.72274,0.18447
2468.79399,0.18763
2466.86525,0.18995
2464.93650,0.19160
2463.00776,0.19267
2461.07901,0.19329
2459.15027,0.19364
2457.22152,0.19394
2455.29278,0.19447
2453.36403,0.19507
2451.43529,0.19539
2449.50654,0.19548
2447.57779,0.19546
2445.64905,0.19527
2443.72030,0.19499
2441.79156,0.19461
2439.86281,0.19384
2437.93407,0.19254
2436.00532,0.19099
2434.07658,0.18959
2432.14783,0.18848
2430.21909,0.18774
2428.29034,0.18764
2426.36160,0.18830
2424.43285,0.18950
2422.50411,0.19102
2420.57536,0.19259
2418.64662,0.19411
2416.71787,0.19554
2414.78912,0.19651
2412.86038,0.19685
2410.93163,0.19689
2409.00289,0.19685
2407.07414,0.19667
2405.14540,0.19626
2403.21665,0.19572
2401.28791,0.19538
2399.35916,0.19548
2397.43042,0.19588
2395.50167,0.19643
2393.57293,0.19725
2391.64418,0.19825
2389.71544,0.19920
2387.78669,0.19990
2385.85795,0.20029
2383.92920,0.20052
2382.00045,0.20077
2380.07171,0.20083
2378.14296,0.20053
2376.21422,0.20015
2374.28547,0.19995
2372.35673,0.19989
2370.42798,0.19994
2368.49924,0.19985
2366.57049,0.19938
2364.64175,0.19875
2362.71300,0.19840
2360.78426,0.19855
2358.85551,0.19894
2356.92677,0.19933
2354.99802,0.19991
2353.06927,0.20086
2351.14053,0.20208
2349.21178,0.20323
2347.28304,0.20437
2345.35429,0.20580
2343.42555,0.20731
2341.49680,0.20847
2339.56806,0.20915
2337.63931,0.20935
2335.71057,0.20935
2333.78182,0.20964
2331.85308,0.21024
2329.92433,0.21098
2327.99559,0.21187
2326.06684,0.21292
2324.13810,0.21409
2322.20935,0.21530
2320.28060,0.21643
2318.35186,0.21743
2316.42311,0.21838
2314.49437,0.21917
2312.56562,0.21967
2310.63688,0.21992
2308.70813,0.22002
2306.77939,0.22008
2304.85064,0.22014
2302.92190,0.22021
2300.99315,0.22032
2299.06441,0.22041
2297.13566,0.22047
2295.20692,0.22073
2293.27817,0.22117
2291.34943,0.22166
2289.42068,0.22218
2287.49193,0.22262
2285.56319,0.22287
2283.63444,0.22296
2281.70570,0.22281
2279.77695,0.22222
2277.84821,0.22113
2275.91946,0.21955
2273.99072,0.21774
2272.06197,0.21610
2270.13323,0.21486
2268.20448,0.21402
2266.27574,0.21351
2264.34699,0.21310
2262.41825,0.21249
2260.48950,0.21155
2258.56075,0.21047
2256.63201,0.20967
2254.70326,0.20957
2252.77452,0.21041
2250.84577,0.21213
2248.91703,0.21419
2246.98828,0.21603
2245.05954,0.21733
2243.13079,0.21814
2241.20205,0.21865
2239.27330,0.21881
2237.34456,0.21841
2235.41581,0.21739
2233.48707,0.21612
2231.55832,0.21527
2229.62958,0.21509
2227.70083,0.21534
2225.77208,0.21589
2223.84334,0.21664
2221.91459,0.21729
2219.98585,0.21769
2218.05710,0.21788
2216.12836,0.21782
2214.19961,0.21741
2212.27087,0.21693
2210.34212,0.21662
2208.41338,0.21631
2206.48463,0.21570
2204.55589,0.21475
2202.62714,0.21381
2200.69840,0.21323
2198.76965,0.21292
2196.84090,0.21269
2194.91216,0.21251
2192.98341,0.21221
2191.05467,0.21177
2189.12592,0.21149
2187.19718,0.21139
2185.26843,0.21126
2183.33969,0.21103
2181.41094,0.21072
2179.48220,0.21034
2177.55345,0.21005
2175.62471,0.20983
2173.69596,0.20956
2171.76722,0.20925
2169.83847,0.20920
2167.90973,0.20968
2165.98098,0.21058
2164.05223,0.21148
2162.12349,0.21198
2160.19474,0.21200
2158.26600,0.21174
2156.33725,0.21143
2154.40851,0.21119
2152.47976,0.21092
2150.55102,0.21046
2148.62227,0.20993
2146.69353,0.20946
2144.76478,0.20899
2142.83604,0.20835
2140.90729,0.20740
2138.97855,0.20623
2137.04980,0.20508
2135.12106,0.20420
2133.19231,0.20398
2131.26356,0.20464
2129.33482,0.20629
2127.40607,0.20905
2125.47733,0.21280
2123.54858,0.21706
2121.61984,0.22129
2119.69109,0.22509
2117.76235,0.22823
2115.83360,0.23071
2113.90486,0.23250
2111.97611,0.23358
2110.04737,0.23427
2108.11862,0.23485
2106.18988,0.23528
2104.26113,0.23553
2102.33238,0.23569
2100.40364,0.23593
2098.47489,0.23621
2096.54615,0.23642
2094.61740,0.23648
2092.68866,0.23645
2090.75991,0.23641
2088.83117,0.23647
2086.90242,0.23686
2084.97368,0.23774
2083.04493,0.23907
2081.11619,0.24063
2079.18744,0.24205
2077.25870,0.24310
2075.32995,0.24381
2073.40121,0.24444
2071.47246,0.24510
2069.54371,0.24569
2067.61497,0.24616
2065.68622,0.24651
2063.75748,0.24663
2061.82873,0.24641
2059.89999,0.24600
2057.97124,0.24567
2056.04250,0.24538
2054.11375,0.24504
2052.18501,0.24477
2050.25626,0.24462
2048.32752,0.24449
2046.39877,0.24438
2044.47003,0.24434
2042.54128,0.24439
2040.61254,0.24440
2038.68379,0.24424
2036.75504,0.24394
2034.82630,0.24366
2032.89755,0.24353
2030.96881,0.24342
2029.04006,0.24330
2027.11132,0.24336
2025.18257,0.24368
2023.25383,0.24408
2021.32508,0.24441
2019.39634,0.24462
2017.46759,0.24470
2015.53885,0.24469
2013.61010,0.24470
2011.68136,0.24480
2009.75261,0.24497
2007.82386,0.24512
2005.89512,0.24511
2003.96637,0.24492
2002.03763,0.24462
2000.10888,0.24421
1998.18014,0.24375
1996.25139,0.24334
1994.32265,0.24313
1992.39390,0.24320
1990.46516,0.24343
1988.53641,0.24360
1986.60767,0.24373
1984.67892,0.24407
1982.75018,0.24456
1980.82143,0.24496
1978.89269,0.24518
1976.96394,0.24529
1975.03519,0.24529
1973.10645,0.24514
1971.17770,0.24480
1969.24896,0.24428
1967.32021,0.24335
1965.39147,0.24174
1963.46272,0.23962
1961.53398,0.23789
1959.60523,0.23757
1957.67649,0.23850
1955.74774,0.23979
1953.81900,0.24093
1951.89025,0.24177
1949.96151,0.24221
1948.03276,0.24238
1946.10402,0.24240
1944.17527,0.24225
1942.24652,0.24203
1940.31778,0.24194
1938.38903,0.24189
1936.46029,0.24168
1934.53154,0.24129
1932.60280,0.24083
1930.67405,0.24030
1928.74531,0.23957
1926.81656,0.23873
1924.88782,0.23797
1922.95907,0.23726
1921.03033,0.23662
1919.10158,0.23605
1917.17284,0.23548
1915.24409,0.23495
1913.31534,0.23458
1911.38660,0.23432
1909.45785,0.23418
1907.52911,0.23410
1905.60036,0.23386
1903.67162,0.23336
1901.74287,0.23256
1899.81413,0.23144
1897.88538,0.23022
1895.95664,0.22917
1894.02789,0.22847
1892.09915,0.22829
1890.17040,0.22882
1888.24166,0.22998
1886.31291,0.23129
1884.38417,0.23240
1882.45542,0.23322
1880.52667,0.23371
1878.59793,0.23387
1876.66918,0.23385
1874.74044,0.23378
1872.81169,0.23363
1870.88295,0.23328
1868.95420,0.23274
1867.02546,0.23216
1865.09671,0.23155
1863.16797,0.23083
1861.23922,0.22998
1859.31048,0.22901
1857.38173,0.22799
1855.45299,0.22706
1853.52424,0.22626
1851.59549,0.22549
1849.66675,0.22476
1847.73800,0.22407
1845.80926,0.22323
1843.88051,0.22208
1841.95177,0.22064
1840.02302,0.21902
1838.09428,0.21728
1836.16553,0.21562
1834.23679,0.21429
1832.30804,0.21331
1830.37930,0.21249
1828.45055,0.21162
1826.52181,0.21074
1824.59306,0.20991
1822.66432,0.20893
1820.73557,0.20743
1818.80682,0.20523
1816.87808,0.20247
1814.94933,0.19916
1813.02059,0.19484
1811.09184,0.18870
1809.16310,0.17976
1807.23435,0.16679
1805.30561,0.14853
1803.37686,0.12517
1801.44812,0.10045
1799.51937,0.08130
1797.59063,0.07157
1795.66188,0.06868
1793.73314,0.07003
1791.80439,0.07804
1789.87565,0.09440
1787.94690,0.11481
1786.01815,0.13448
1784.08941,0.15052
1782.16066,0.16219
1780.23192,0.17039
1778.30317,0.17589
1776.37443,0.17927
1774.44568,0.18139
1772.51694,0.18262
1770.58819,0.18267
1768.65945,0.18153
1766.73070,0.17961
1764.80196,0.17756
1762.87321,0.17535
1760.94447,0.17268
1759.01572,0.16989
1757.08697,0.16718
1755.15823,0.16468
1753.22948,0.16242
1751.30074,0.15991
1749.37199,0.15705
1747.44325,0.15414
1745.51450,0.15108
1743.58576,0.14775
1741.65701,0.14368
1739.72827,0.13845
1737.79952,0.13438
1735.87078,0.13490
1733.94203,0.13946
1732.01329,0.14214
1730.08454,0.14152
1728.15580,0.14277
1726.22705,0.14827
1724.29830,0.15481
1722.36956,0.15920
1720.44081,0.16155
1718.51207,0.16295
1716.58332,0.16378
1714.65458,0.16413
1712.72583,0.16422
1710.79709,0.16432
1708.86834,0.16456
1706.93960,0.16490
1705.01085,0.16512
1703.08211,0.16509
1701.15336,0.16497
1699.22462,0.16512
1697.29587,0.16541
1695.36713,0.16538
1693.43838,0.16516
1691.50963,0.16511
1689.58089,0.16514
1687.65214,0.16514
1685.72340,0.16520
1683.79465,0.16534
1681.86591,0.16547
1679.93716,0.16557
1678.00842,0.16568
1676.07967,0.16585
1674.15093,0.16613
1672.22218,0.16651
1670.29344,0.16689
1668.36469,0.16695
1666.43595,0.16655
1664.50720,0.16581
1662.57845,0.16465
1660.64971,0.16311
1658.72096,0.16144
1656.79222,0.15978
1654.86347,0.15772
1652.93473,0.15421
1651.00598,0.15019
1649.07724,0.14661
1647.14849,0.14191
1645.21975,0.13542
1643.29100,0.12851
1641.36226,0.12275
1639.43351,0.12017
1637.50477,0.12224
1635.57602,0.12842
1633.64728,0.13529
1631.71853,0.14026
1629.78978,0.14373
1627.86104,0.14617
1625.93229,0.14764
1624.00355,0.14844
1622.07480,0.14904
1620.14606,0.14948
1618.21731,0.14963
1616.28857,0.14952
1614.35982,0.14935
1612.43108,0.14929
1610.50233,0.14952
1608.57359,0.15005
1606.64484,0.15050
1604.71610,0.15062
1602.78735,0.15045
1600.85861,0.15017
1598.92986,0.14975
1597.00111,0.14894
1595.07237,0.14754
1593.14362,0.14535
1591.21488,0.14245
1589.28613,0.13966
1587.35739,0.13792
1585.42864,0.13749
1583.49990,0.13797
1581.57115,0.13899
1579.64241,0.14063
1577.71366,0.14305
1575.78492,0.14550
1573.85617,0.14691
1571.92743,0.14752
1569.99868,0.14753
1568.06993,0.14677
1566.14119,0.14566
1564.21244,0.14480
1562.28370,0.14426
1560.35495,0.14350
1558.42621,0.14201
1556.49746,0.14084
1554.56872,0.14089
1552.63997,0.14154
1550.71123,0.14184
1548.78248,0.14127
1546.85374,0.13991
1544.92499,0.13805
1542.99625,0.13599
1541.06750,0.13381
1539.13876,0.13147
1537.21001,0.12947
1535.28126,0.12757
1533.35252,0.12509
1531.42377,0.12236
1529.49503,0.12000
1527.56628,0.11770
1525.63754,0.11514
1523.70879,0.11254
1521.78005,0.10981
1519.85130,0.10694
1517.92256,0.10411
1515.99381,0.10124
1514.06507,0.09850
1512.13632,0.09599
1510.20758,0.09363
1508.27883,0.09107
1506.35008,0.08774
1504.42134,0.08450
1502.49259,0.08214
1500.56385,0.08001
1498.63510,0.07749
1496.70636,0.07452
1494.77761,0.07163
1492.84887,0.06908
1490.92012,0.06647
1488.99138,0.06374
1487.06263,0.06122
1485.13389,0.05882
1483.20514,0.05651
1481.27640,0.05435
1479.34765,0.05235
1477.41891,0.05047
1475.49016,0.04870
1473.56141,0.04686
1471.63267,0.04477
1469.70392,0.04285
1467.77518,0.04144
1465.84643,0.04040
1463.91769,0.03965
1461.98894,0.03939
1460.06020,0.03949
1458.13145,0.03973
1456.20271,0.04004
1454.27396,0.04039
1452.34522,0.04082
1450.41647,0.04135
1448.48773,0.04208
1446.55898,0.04295
1444.63024,0.04377
1442.70149,0.04438
1440.77274,0.04482
1438.84400,0.04526
1436.91525,0.04586
1434.98651,0.04669
1433.05776,0.04767
1431.12902,0.04864
1429.20027,0.04945
1427.27153,0.05022
1425.34278,0.05119
1423.41404,0.05237
1421.48529,0.05365
1419.55655,0.05506
1417.62780,0.05645
1415.69906,0.05773
1413.77031,0.05906
1411.84156,0.06030
1409.91282,0.06102
1407.98407,0.06091
1406.05533,0.05993
1404.12658,0.05852
1402.19784,0.05736
1400.26909,0.05677
1398.34035,0.05681
1396.41160,0.05727
1394.48286,0.05774
1392.55411,0.05804
1390.62537,0.05814
1388.69662,0.05783
1386.76788,0.05672
1384.83913,0.05438
1382.91039,0.05072
1380.98164,0.04649
1379.05289,0.04332
1377.12415,0.04277
1375.19540,0.04493
1373.26666,0.04873
1371.33791,0.05327
1369.40917,0.05805
1367.48042,0.06217
1365.55168,0.06456
1363.62293,0.06493
1361.69419,0.06394
1359.76544,0.06322
1357.83670,0.06458
1355.90795,0.06863
1353.97921,0.07449
1352.05046,0.08075
1350.12172,0.08635
1348.19297,0.09107
1346.26422,0.09525
1344.33548,0.09913
1342.40673,0.10264
1340.47799,0.10574
1338.54924,0.10815
1336.62050,0.10938
1334.69175,0.10915
1332.76301,0.10760
1330.83426,0.10592
1328.90552,0.10577
1326.97677,0.10766
1325.04803,0.11078
1323.11928,0.11430
1321.19054,0.11764
1319.26179,0.12046
1317.33304,0.12288
1315.40430,0.12507
1313.47555,0.12686
1311.54681,0.12747
1309.61806,0.12522
1307.68932,0.11882
1305.76057,0.11129
1303.83183,0.10913
1301.90308,0.11398
1299.97434,0.12061
1298.04559,0.12497
1296.11685,0.12799
1294.18810,0.13189
1292.25936,0.13714
1290.33061,0.14253
1288.40187,0.14690
1286.47312,0.15013
1284.54437,0.15261
1282.61563,0.15476
1280.68688,0.15710
1278.75814,0.15993
1276.82939,0.16279
1274.90065,0.16478
1272.97190,0.16523
1271.04316,0.16405
1269.11441,0.16166
1267.18567,0.15897
1265.25692,0.15655
1263.32818,0.15362
1261.39943,0.14839
1259.47069,0.13973
1257.54194,0.12991
1255.61320,0.12531
1253.68445,0.13028
1251.75570,0.14121
1249.82696,0.15142
1247.89821,0.15824
1245.96947,0.16245
1244.04072,0.16509
1242.11198,0.16683
1240.18323,0.16837
1238.25449,0.17018
1236.32574,0.17212
1234.39700,0.17358
1232.46825,0.17412
1230.53951,0.17382
1228.61076,0.17283
1226.68202,0.17088
1224.75327,0.16766
1222.82452,0.16354
1220.89578,0.16000
1218.96703,0.15900
1217.03829,0.16122
1215.10954,0.16547
1213.18080,0.16988
1211.25205,0.17305
1209.32331,0.17468
1207.39456,0.17527
1205.46582,0.17524
1203.53707,0.17471
1201.60833,0.17375
1199.67958,0.17234
1197.75084,0.17062
1195.82209,0.16910
1193.89335,0.16780
1191.96460,0.16617
1190.03585,0.16403
1188.10711,0.16132
1186.17836,0.15731
1184.24962,0.15154
1182.32087,0.14479
1180.39213,0.13770
1178.46338,0.12956
1176.53464,0.11897
1174.60589,0.10501
1172.67715,0.08846
1170.74840,0.07278
1168.81966,0.06255
1166.89091,0.06001
1164.96217,0.06377
1163.03342,0.07082
1161.10467,0.07859
1159.17593,0.08567
1157.24718,0.09165
1155.31844,0.09666
1153.38969,0.10131
1151.46095,0.10697
1149.53220,0.11503
1147.60346,0.12574
1145.67471,0.13816
1143.74597,0.15121
1141.81722,0.16416
1139.88848,0.17643
1137.95973,0.18732
1136.03099,0.19619
1134.10224,0.20288
1132.17350,0.20772
1130.24475,0.21120
1128.31600,0.21342
1126.38726,0.21421
1124.45851,0.21382
1122.52977,0.21266
1120.60102,0.21056
1118.67228,0.20748
1116.74353,0.20395
1114.81479,0.20014
1112.88604,0.19576
1110.95730,0.19051
1109.02855,0.18383
1107.09981,0.17507
1105.17106,0.16535
1103.24232,0.15882
1101.31357,0.15974
1099.38483,0.16799
1097.45608,0.17925
1095.52733,0.18931
1093.59859,0.19666
1091.66984,0.20175
1089.74110,0.20519
1087.81235,0.20718
1085.88361,0.20829
1083.95486,0.20977
1082.02612,0.21251
1080.09737,0.21556
1078.16863,0.21720
1076.23988,0.21739
1074.31114,0.21697
1072.38239,0.21631
1070.45365,0.21532
1068.52490,0.21414
1066.59615,0.21334
1064.66741,0.21299
1062.73866,0.21233
1060.80992,0.21115
1058.88117,0.20965
1056.95243,0.20774
1055.02368,0.20526
1053.09494,0.20175
1051.16619,0.19650
1049.23745,0.18901
1047.30870,0.17981
1045.37996,0.17227
1043.45121,0.17084
1041.52247,0.17573
1039.59372,0.18245
1037.66498,0.18717
1035.73623,0.18951
1033.80748,0.19076
1031.87874,0.19141
1029.94999,0.19110
1028.02125,0.18987
1026.09250,0.18815
1024.16376,0.18622
1022.23501,0.18389
1020.30627,0.18075
1018.37752,0.17690
1016.44878,0.17273
1014.52003,0.16827
1012.59129,0.16305
1010.66254,0.15646
1008.73380,0.14773
1006.80505,0.13580
1004.87631,0.11996
1002.94756,0.10073
1001.01881,0.08126
999.09007,0.06740
997.16132,0.06478
995.23258,0.07480
993.30383,0.09330
991.37509,0.11340
989.44634,0.12979
987.51760,0.14013
985.58885,0.14354
983.66011,0.13937
981.73136,0.12754
979.80262,0.10972
977.87387,0.08972
975.94513,0.07237
974.01638,0.06205
972.08763,0.06258
970.15889,0.07586
968.23014,0.09837
966.30140,0.12245
964.37265,0.14270
962.44391,0.15816
960.51516,0.16964
958.58642,0.17833
956.65767,0.18522
954.72893,0.19053
952.80018,0.19420
950.87144,0.19629
948.94269,0.19681
947.01395,0.19554
945.08520,0.19190
943.15646,0.18624
941.22771,0.18164
939.29896,0.18269
937.37022,0.19074
935.44147,0.20184
933.51273,0.21120
931.58398,0.21746
929.65524,0.22171
927.72649,0.22502
925.79775,0.22754
923.86900,0.22917
921.94026,0.23006
920.01151,0.23041
918.08277,0.23012
916.15402,0.22882
914.22528,0.22628
912.29653,0.22267
910.36779,0.21809
908.43904,0.21148
906.51029,0.20032
904.58155,0.18262
902.65280,0.16049
900.72406,0.14176
898.79531,0.13592
896.86657,0.14616
894.93782,0.16541
893.00908,0.18237
891.08033,0.18917
889.15159,0.18065
887.22284,0.15406
885.29410,0.11708
883.36535,0.08529
881.43661,0.06566
879.50786,0.05426
877.57911,0.04807
875.65037,0.04733
873.72162,0.05211
871.79288,0.06300
869.86413,0.08095
867.93539,0.10382
866.00664,0.12650
864.07790,0.14508
862.14915,0.15856
860.22041,0.16715
858.29166,0.17147
856.36292,0.17236
854.43417,0.16975
852.50543,0.16080
850.57668,0.14273
848.64794,0.12279
846.71919,0.11107
844.79044,0.10114
842.86170,0.08574
840.93295,0.07817
839.00421,0.09152
837.07546,0.11786
835.14672,0.14195
833.21797,0.15828
831.28923,0.16917
829.36048,0.17720
827.43174,0.18333
825.50299,0.18784
823.57425,0.19039
821.64550,0.19042
819.71676,0.18776
817.78801,0.18193
815.85926,0.17175
813.93052,0.15680
812.00177,0.14013
810.07303,0.12834
808.14428,0.12724
806.21554,0.13731
804.28679,0.15317
802.35805,0.16806
800.42930,0.17904
798.50056,0.18665
796.57181,0.19233
794.64307,0.19734
792.71432,0.20213
790.78558,0.20658
788.85683,0.21080
786.92809,0.21490
784.99934,0.21877
783.07059,0.22212
781.14185,0.22470
779.21310,0.22686
777.28436,0.22904
775.35561,0.23113
773.42687,0.23296
771.49812,0.23462
769.56938,0.23611
767.64063,0.23750
765.71189,0.23893
763.78314,0.24045
761.85440,0.24208
759.92565,0.24378
757.99691,0.24507
756.06816,0.24569
754.13942,0.24587
752.21067,0.24558
750.28192,0.24471
748.35318,0.24338
746.42443,0.24184
744.49569,0.24052
742.56694,0.23933
740.63820,0.23783
738.70945,0.23579
736.78071,0.23340
734.85196,0.23116
732.92322,0.22829
730.99447,0.22345
729.06573,0.21692
727.13698,0.20929
725.20824,0.19952
723.27949,0.18584
721.35074,0.16685
719.42200,0.14129
717.49325,0.10955
715.56451,0.07795
713.63576,0.05908
711.70702,0.06349
709.77827,0.09028
707.84953,0.12732
705.92078,0.16153
703.99204,0.18715
702.06329,0.20421
700.13455,0.21518
698.20580,0.22317
696.27706,0.22919
694.34831,0.23328
692.41957,0.23668
690.49082,0.23987
688.56207,0.24204
686.63333,0.24317
684.70458,0.24384
682.77584,0.24412
680.84709,0.24407
678.91835,0.24410
676.98960,0.24415
675.06086,0.24393
673.13211,0.24382
671.20337,0.24440
669.27462,0.24527
667.34588,0.24517
665.41713,0.24373
663.48839,0.24235
661.55964,0.24180
659.63090,0.24155
657.70215,0.24136
655.77340,0.24094
653.84466,0.23998
651.91591,0.23885
649.98717,0.23821
648.05842,0.23821
646.12968,0.23789
644.20093,0.23658
642.27219,0.23485
640.34344,0.23322
638.41470,0.23195
636.48595,0.23112
634.55721,0.23025
632.62846,0.22867
630.69972,0.22651
628.77097,0.22516
626.84222,0.22528
624.91348,0.22572
622.98473,0.22551
621.05599,0.22492
619.12724,0.22387
617.19850,0.22191
615.26975,0.21968
613.34101,0.21856
611.41226,0.21880
609.48352,0.21911
607.55477,0.21791
605.62603,0.21474
603.69728,0.21042
601.76854,0.20679
599.83979,0.20519
