7497.03301,0.31263
7495.10426,0.30946
7493.17552,0.31142
7491.24677,0.31823
7489.31803,0.32243
7487.38928,0.32050
7485.46054,0.31792
7483.53179,0.31721
7481.60305,0.31549
7479.67430,0.31310
7477.74556,0.31288
7475.81681,0.31588
7473.88807,0.31997
7471.95932,0.32114
7470.03057,0.31871
7468.10183,0.31540
7466.17308,0.31478
7464.24434,0.31847
7462.31559,0.32097
7460.38685,0.31752
7458.45810,0.31240
7456.52936,0.31104
7454.60061,0.31294
7452.67187,0.31546
7450.74312,0.31666
7448.81438,0.31387
7446.88563,0.30969
7444.95689,0.31054
7443.02814,0.31360
7441.09940,0.31281
7439.17065,0.30933
7437.24190,0.30862
7435.31316,0.31389
7433.38441,0.32126
7431.45567,0.32298
7429.52692,0.31826
7427.59818,0.31567
7425.66943,0.31839
7423.74069,0.32057
7421.81194,0.31999
7419.88320,0.31788
7417.95445,0.31580
7416.02571,0.31488
7414.09696,0.31457
7412.16822,0.31657
7410.23947,0.31927
7408.31073,0.31812
7406.38198,0.31665
7404.45323,0.31903
7402.52449,0.32144
7400.59574,0.32050
7398.66700,0.31730
7396.73825,0.31391
7394.80951,0.31243
7392.88076,0.31288
7390.95202,0.31418
7389.02327,0.31545
7387.09453,0.31533
7385.16578,0.31343
7383.23704,0.31014
7381.30829,0.30696
7379.37955,0.30683
7377.45080,0.30981
7375.52205,0.31328
7373.59331,0.31683
7371.66456,0.31871
7369.73582,0.31530
7367.80707,0.31110
7365.87833,0.31229
7363.94958,0.31458
7362.02084,0.31397
7360.09209,0.31309
7358.16335,0.31203
7356.23460,0.30991
7354.30586,0.30887
7352.37711,0.30917
7350.44837,0.30883
7348.51962,0.30893
7346.59088,0.31212
7344.66213,0.31682
7342.73338,0.31932
7340.80464,0.31839
7338.87589,0.31562
7336.94715,0.31434
7335.01840,0.31568
7333.08966,0.31758
7331.16091,0.31739
7329.23217,0.31401
7327.30342,0.31031
7325.37468,0.31014
7323.44593,0.31172
7321.51719,0.31188
7319.58844,0.31216
7317.65970,0.31206
7315.73095,0.30952
7313.80221,0.30764
7311.87346,0.30771
7309.94471,0.30848
7308.01597,0.30975
7306.08722,0.31038
7304.15848,0.31126
7302.22973,0.31368
7300.30099,0.31502
7298.37224,0.31386
7296.44350,0.31256
7294.51475,0.31239
7292.58601,0.31293
7290.65726,0.31293
7288.72852,0.31023
7286.79977,0.30673
7284.87103,0.30667
7282.94228,0.30924
7281.01353,0.31102
7279.08479,0.31131
7277.15604,0.31095
7275.22730,0.30969
7273.29855,0.30819
7271.36981,0.30788
7269.44106,0.30748
7267.51232,0.30613
7265.58357,0.30565
7263.65483,0.30637
7261.72608,0.30775
7259.79734,0.30969
7257.86859,0.31075
7255.93985,0.31030
7254.01110,0.30829
7252.08236,0.30578
7250.15361,0.30690
7248.22486,0.31043
7246.29612,0.31113
7244.36737,0.31041
7242.43863,0.30996
7240.50988,0.30908
7238.58114,0.31001
7236.65239,0.31228
7234.72365,0.31381
7232.79490,0.31525
7230.86616,0.31590
7228.93741,0.31507
7227.00867,0.31382
7225.07992,0.31172
7223.15118,0.30917
7221.22243,0.30874
7219.29369,0.31005
7217.36494,0.31062
7215.43619,0.31108
7213.50745,0.31294
7211.57870,0.31399
7209.64996,0.31085
7207.72121,0.30601
7205.79247,0.30527
7203.86372,0.30771
7201.93498,0.30955
7200.00623,0.31184
7198.07749,0.31367
7196.14874,0.31150
7194.22000,0.30873
7192.29125,0.30932
7190.36251,0.30981
7188.43376,0.30850
7186.50501,0.30867
7184.57627,0.31045
7182.64752,0.31090
7180.71878,0.30813
7178.79003,0.30342
7176.86129,0.30233
7174.93254,0.30747
7173.00380,0.31233
7171.07505,0.31268
7169.14631,0.31288
7167.21756,0.31555
7165.28882,0.31795
7163.36007,0.31726
7161.43133,0.31301
7159.50258,0.30849
7157.57384,0.30738
7155.64509,0.30725
7153.71634,0.30543
7151.78760,0.30405
7149.85885,0.30418
7147.93011,0.30656
7146.00136,0.31039
7144.07262,0.31168
7142.14387,0.31059
7140.21513,0.30959
7138.28638,0.30842
7136.35764,0.30624
7134.42889,0.30383
7132.50015,0.30382
7130.57140,0.30595
7128.64266,0.30644
7126.71391,0.30504
7124.78516,0.30505
7122.85642,0.30838
7120.92767,0.31343
7118.99893,0.31526
7117.07018,0.31262
7115.14144,0.31085
7113.21269,0.31191
7111.28395,0.31178
7109.35520,0.30993
7107.42646,0.31105
7105.49771,0.31523
7103.56897,0.31772
7101.64022,0.31806
7099.71148,0.31785
7097.78273,0.31630
7095.85399,0.31431
7093.92524,0.31413
7091.99649,0.31467
7090.06775,0.31358
7088.13900,0.31113
7086.21026,0.30922
7084.28151,0.30827
7082.35277,0.30709
7080.42402,0.30648
7078.49528,0.30824
7076.56653,0.31001
7074.63779,0.30891
7072.70904,0.30684
7070.78030,0.30546
7068.85155,0.30377
7066.92281,0.30258
7064.99406,0.30456
7063.06532,0.31017
7061.13657,0.31606
7059.20782,0.31722
7057.27908,0.31268
7055.35033,0.30924
7053.42159,0.31081
7051.49284,0.31066
7049.56410,0.30639
7047.63535,0.30411
7045.70661,0.30469
7043.77786,0.30563
7041.84912,0.30777
7039.92037,0.31044
7037.99163,0.31093
7036.06288,0.31070
7034.13414,0.31219
7032.20539,0.31260
7030.27664,0.31019
7028.34790,0.30874
7026.41915,0.30970
7024.49041,0.31003
7022.56166,0.30959
7020.63292,0.30978
7018.70417,0.30816
7016.77543,0.30515
7014.84668,0.30587
7012.91794,0.31014
7010.98919,0.31275
7009.06045,0.31224
7007.13170,0.31063
7005.20296,0.30990
7003.27421,0.31080
7001.34547,0.31145
6999.41672,0.31079
6997.48797,0.31090
6995.55923,0.31162
6993.63048,0.31048
6991.70174,0.30800
6989.77299,0.30581
6987.84425,0.30474
6985.91550,0.30667
6983.98676,0.31069
6982.05801,0.31213
6980.12927,0.30973
6978.20052,0.30746
6976.27178,0.30822
6974.34303,0.31126
6972.41429,0.31419
6970.48554,0.31373
6968.55680,0.30999
6966.62805,0.30730
6964.69930,0.30716
6962.77056,0.30778
6960.84181,0.30790
6958.91307,0.30785
6956.98432,0.30866
6955.05558,0.31045
6953.12683,0.31234
6951.19809,0.31331
6949.26934,0.31257
6947.34060,0.30964
6945.41185,0.30651
6943.48311,0.30682
6941.55436,0.31005
6939.62562,0.31288
6937.69687,0.31348
6935.76812,0.31097
6933.83938,0.30674
6931.91063,0.30510
6929.98189,0.30682
6928.05314,0.30823
6926.12440,0.30869
6924.19565,0.30994
6922.26691,0.31063
6920.33816,0.30901
6918.40942,0.30730
6916.48067,0.30781
6914.55193,0.30864
6912.62318,0.30914
6910.69444,0.31133
6908.76569,0.31392
6906.83695,0.31402
6904.90820,0.31241
6902.97945,0.31051
6901.05071,0.30817
6899.12196,0.30718
6897.19322,0.30875
6895.26447,0.31021
6893.33573,0.31008
6891.40698,0.31045
6889.47824,0.31194
6887.54949,0.31178
6885.62075,0.30987
6883.69200,0.31013
6881.76326,0.31313
6879.83451,0.31531
6877.90577,0.31603
6875.97702,0.31527
6874.04828,0.31274
6872.11953,0.31214
6870.19078,0.31343
6868.26204,0.31327
6866.33329,0.31358
6864.40455,0.31440
6862.47580,0.31316
6860.54706,0.31247
6858.61831,0.31409
6856.68957,0.31509
6854.76082,0.31393
6852.83208,0.31191
6850.90333,0.31076
6848.97459,0.31097
6847.04584,0.31109
6845.11710,0.31015
6843.18835,0.30907
6841.25960,0.31002
6839.33086,0.31340
6837.40211,0.31589
6835.47337,0.31491
6833.54462,0.31220
6831.61588,0.31090
6829.68713,0.31060
6827.75839,0.30868
6825.82964,0.30647
6823.90090,0.30664
6821.97215,0.30843
6820.04341,0.31046
6818.11466,0.31188
6816.18592,0.31240
6814.25717,0.31316
6812.32843,0.31409
6810.39968,0.31424
6808.47093,0.31409
6806.54219,0.31310
6804.61344,0.31034
6802.68470,0.30737
6800.75595,0.30654
6798.82721,0.30771
6796.89846,0.30912
6794.96972,0.31078
6793.04097,0.31352
6791.11223,0.31567
6789.18348,0.31513
6787.25474,0.31318
6785.32599,0.31130
6783.39725,0.30927
6781.46850,0.30862
6779.53975,0.31026
6777.61101,0.31167
6775.68226,0.31053
6773.75352,0.30845
6771.82477,0.30792
6769.89603,0.30864
6767.96728,0.31037
6766.03854,0.31264
6764.10979,0.31384
6762.18105,0.31400
6760.25230,0.31318
6758.32356,0.31193
6756.39481,0.31192
6754.46607,0.31265
6752.53732,0.31287
6750.60858,0.31260
6748.67983,0.31165
6746.75108,0.31059
6744.82234,0.31047
6742.89359,0.31050
6740.96485,0.31054
6739.03610,0.31224
6737.10736,0.31433
6735.17861,0.31428
6733.24987,0.31363
6731.32112,0.31406
6729.39238,0.31443
6727.46363,0.31440
6725.53489,0.31405
6723.60614,0.31351
6721.67740,0.31300
6719.74865,0.31128
6717.81991,0.30841
6715.89116,0.30673
6713.96241,0.30702
6712.03367,0.30763
6710.10492,0.30840
6708.17618,0.31013
6706.24743,0.31061
6704.31869,0.30832
6702.38994,0.30605
6700.46120,0.30561
6698.53245,0.30576
6696.60371,0.30695
6694.67496,0.30941
6692.74622,0.31131
6690.81747,0.31286
6688.88873,0.31359
6686.95998,0.31193
6685.03123,0.30991
6683.10249,0.30906
6681.17374,0.30844
6679.24500,0.30855
6677.31625,0.31013
6675.38751,0.31142
6673.45876,0.31006
6671.53002,0.30727
6669.60127,0.30581
6667.67253,0.30591
6665.74378,0.30693
6663.81504,0.30859
6661.88629,0.31063
6659.95755,0.31284
6658.02880,0.31449
6656.10006,0.31537
6654.17131,0.31538
6652.24256,0.31427
6650.31382,0.31310
6648.38507,0.31291
6646.45633,0.31387
6644.52758,0.31432
6642.59884,0.31237
6640.67009,0.31069
6638.74135,0.31191
6636.81260,0.31355
6634.88386,0.31365
6632.95511,0.31376
6631.02637,0.31388
6629.09762,0.31284
6627.16888,0.31181
6625.24013,0.31095
6623.31139,0.30899
6621.38264,0.30712
6619.45389,0.30793
6617.52515,0.31084
6615.59640,0.31253
6613.66766,0.31252
6611.73891,0.31270
6609.81017,0.31316
6607.88142,0.31296
6605.95268,0.31202
6604.02393,0.31058
6602.09519,0.30892
6600.16644,0.30846
6598.23770,0.30900
6596.30895,0.30863
6594.38021,0.30800
6592.45146,0.30794
6590.52271,0.30819
6588.59397,0.30936
6586.66522,0.31058
6584.73648,0.31075
6582.80773,0.31092
6580.87899,0.31174
6578.95024,0.31248
6577.02150,0.31245
6575.09275,0.31206
6573.16401,0.31250
6571.23526,0.31403
6569.30652,0.31612
6567.37777,0.31712
6565.44903,0.31582
6563.52028,0.31397
6561.59154,0.31286
6559.66279,0.31198
6557.73404,0.31151
6555.80530,0.31174
6553.87655,0.31195
6551.94781,0.31120
6550.01906,0.30996
6548.09032,0.31011
6546.16157,0.31205
6544.23283,0.31355
6542.30408,0.31442
6540.37534,0.31562
6538.44659,0.31520
6536.51785,0.31289
6534.58910,0.31114
6532.66036,0.31109
6530.73161,0.31244
6528.80287,0.31422
6526.87412,0.31489
6524.94537,0.31298
6523.01663,0.31007
6521.08788,0.30968
6519.15914,0.31131
6517.23039,0.31166
6515.30165,0.31072
6513.37290,0.31025
6511.44416,0.31028
6509.51541,0.31119
6507.58667,0.31228
6505.65792,0.31136
6503.72918,0.31014
6501.80043,0.31082
6499.87169,0.31150
6497.94294,0.31134
6496.01419,0.31165
6494.08545,0.31224
6492.15670,0.31231
6490.22796,0.31170
6488.29921,0.31109
6486.37047,0.31193
6484.44172,0.31350
6482.51298,0.31362
6480.58423,0.31264
6478.65549,0.31238
6476.72674,0.31302
6474.79800,0.31381
6472.86925,0.31464
6470.94051,0.31524
6469.01176,0.31466
6467.08302,0.31239
6465.15427,0.30967
6463.22552,0.30899
6461.29678,0.31020
6459.36803,0.31083
6457.43929,0.31115
6455.51054,0.31229
6453.58180,0.31329
6451.65305,0.31368
6449.72431,0.31377
6447.79556,0.31334
6445.86682,0.31312
6443.93807,0.31354
6442.00933,0.31272
6440.08058,0.31020
6438.15184,0.30877
6436.22309,0.30964
6434.29434,0.31088
6432.36560,0.31037
6430.43685,0.30958
6428.50811,0.31065
6426.57936,0.31107
6424.65062,0.30976
6422.72187,0.30979
6420.79313,0.31105
6418.86438,0.31164
6416.93564,0.31240
6415.00689,0.31414
6413.07815,0.31542
6411.14940,0.31501
6409.22066,0.31360
6407.29191,0.31195
6405.36317,0.31051
6403.43442,0.31017
6401.50567,0.31081
6399.57693,0.31118
6397.64818,0.31074
6395.71944,0.31019
6393.79069,0.31003
6391.86195,0.30946
6389.93320,0.30840
6388.00446,0.30787
6386.07571,0.30802
6384.14697,0.30884
6382.21822,0.30961
6380.28948,0.30956
6378.36073,0.30932
6376.43199,0.30893
6374.50324,0.30803
6372.57450,0.30732
6370.64575,0.30798
6368.71700,0.31011
6366.78826,0.31206
6364.85951,0.31178
6362.93077,0.30910
6361.00202,0.30645
6359.07328,0.30644
6357.14453,0.30908
6355.21579,0.31126
6353.28704,0.31050
6351.35830,0.30872
6349.42955,0.30804
6347.50081,0.30737
6345.57206,0.30661
6343.64332,0.30758
6341.71457,0.30962
6339.78582,0.31030
6337.85708,0.30927
6335.92833,0.30778
6333.99959,0.30687
6332.07084,0.30683
6330.14210,0.30748
6328.21335,0.30793
6326.28461,0.30826
6324.35586,0.30956
6322.42712,0.31081
6320.49837,0.31056
6318.56963,0.30988
6316.64088,0.31041
6314.71214,0.31112
6312.78339,0.30982
6310.85465,0.30867
6308.92590,0.31022
6306.99715,0.31166
6305.06841,0.31102
6303.13966,0.31046
6301.21092,0.31052
6299.28217,0.30983
6297.35343,0.30898
6295.42468,0.30944
6293.49594,0.31087
6291.56719,0.31212
6289.63845,0.31213
6287.70970,0.31063
6285.78096,0.30859
6283.85221,0.30740
6281.92347,0.30817
6279.99472,0.30954
6278.06598,0.30913
6276.13723,0.30827
6274.20848,0.30929
6272.27974,0.31044
6270.35099,0.30976
6268.42225,0.30905
6266.49350,0.30955
6264.56476,0.30974
6262.63601,0.30904
6260.70727,0.30838
6258.77852,0.30850
6256.84978,0.30863
6254.92103,0.30807
6252.99229,0.30897
6251.06354,0.31196
6249.13480,0.31321
6247.20605,0.31154
6245.27730,0.31019
6243.34856,0.31050
6241.41981,0.31105
6239.49107,0.31083
6237.56232,0.30949
6235.63358,0.30710
6233.70483,0.30506
6231.77609,0.30564
6229.84734,0.30881
6227.91860,0.31119
6225.98985,0.31112
6224.06111,0.31085
6222.13236,0.31072
6220.20362,0.30940
6218.27487,0.30852
6216.34613,0.30876
6214.41738,0.30861
6212.48863,0.30834
6210.55989,0.30851
6208.63114,0.30868
6206.70240,0.30896
6204.77365,0.30896
6202.84491,0.30809
6200.91616,0.30683
6198.98742,0.30566
6197.05867,0.30479
6195.12993,0.30512
6193.20118,0.30690
6191.27244,0.30825
6189.34369,0.30766
6187.41495,0.30654
6185.48620,0.30655
6183.55746,0.30765
6181.62871,0.30849
6179.69996,0.30741
6177.77122,0.30532
6175.84247,0.30435
6173.91373,0.30506
6171.98498,0.30695
6170.05624,0.30820
6168.12749,0.30805
6166.19875,0.30829
6164.27000,0.30954
6162.34126,0.31041
6160.41251,0.30962
6158.48377,0.30785
6156.55502,0.30690
6154.62628,0.30702
6152.69753,0.30749
6150.76878,0.30777
6148.84004,0.30706
6146.91129,0.30601
6144.98255,0.30650
6143.05380,0.30833
6141.12506,0.30939
6139.19631,0.30807
6137.26757,0.30511
6135.33882,0.30378
6133.41008,0.30546
6131.48133,0.30797
6129.55259,0.30894
6127.62384,0.30826
6125.69510,0.30718
6123.76635,0.30612
6121.83761,0.30517
6119.90886,0.30546
6117.98011,0.30688
6116.05137,0.30719
6114.12262,0.30613
6112.19388,0.30605
6110.26513,0.30714
6108.33639,0.30758
6106.40764,0.30759
6104.47890,0.30852
6102.55015,0.30929
6100.62141,0.30826
6098.69266,0.30632
6096.76392,0.30485
6094.83517,0.30431
6092.90643,0.30484
6090.97768,0.30618
6089.04893,0.30764
6087.12019,0.30838
6085.19144,0.30854
6083.26270,0.30824
6081.33395,0.30726
6079.40521,0.30642
6077.47646,0.30629
6075.54772,0.30681
6073.61897,0.30715
6071.69023,0.30614
6069.76148,0.30499
6067.83274,0.30526
6065.90399,0.30593
6063.97525,0.30590
6062.04650,0.30568
6060.11776,0.30551
6058.18901,0.30481
6056.26026,0.30387
6054.33152,0.30379
6052.40277,0.30438
6050.47403,0.30450
6048.54528,0.30451
6046.61654,0.30532
6044.68779,0.30614
6042.75905,0.30623
6040.83030,0.30660
6038.90156,0.30731
6036.97281,0.30703
6035.04407,0.30613
6033.11532,0.30573
6031.18658,0.30569
6029.25783,0.30562
6027.32909,0.30589
6025.40034,0.30696
6023.47159,0.30788
6021.54285,0.30751
6019.61410,0.30652
6017.68536,0.30606
6015.75661,0.30635
6013.82787,0.30686
6011.89912,0.30655
6009.97038,0.30545
6008.04163,0.30513
6006.11289,0.30614
6004.18414,0.30726
6002.25540,0.30784
6000.32665,0.30815
5998.39791,0.30830
5996.46916,0.30825
5994.54041,0.30803
5992.61167,0.30743
5990.68292,0.30607
5988.75418,0.30502
5986.82543,0.30523
5984.89669,0.30509
5982.96794,0.30326
5981.03920,0.30134
5979.11045,0.30115
5977.18171,0.30235
5975.25296,0.30417
5973.32422,0.30571
5971.39547,0.30525
5969.46673,0.30322
5967.53798,0.30261
5965.60924,0.30393
5963.68049,0.30441
5961.75174,0.30346
5959.82300,0.30259
5957.89425,0.30218
5955.96551,0.30241
5954.03676,0.30303
5952.10802,0.30305
5950.17927,0.30226
5948.25053,0.30125
5946.32178,0.30034
5944.39304,0.29960
5942.46429,0.29912
5940.53555,0.29916
5938.60680,0.29982
5936.67806,0.30053
5934.74931,0.30036
5932.82057,0.29893
5930.89182,0.29725
5928.96307,0.29611
5927.03433,0.29412
5925.10558,0.29073
5923.17684,0.28780
5921.24809,0.28622
5919.31935,0.28476
5917.39060,0.28271
5915.46186,0.28019
5913.53311,0.27727
5911.60437,0.27510
5909.67562,0.27457
5907.74688,0.27414
5905.81813,0.27279
5903.88939,0.27189
5901.96064,0.27206
5900.03189,0.27204
5898.10315,0.27131
5896.17440,0.27084
5894.24566,0.27185
5892.31691,0.27367
5890.38817,0.27442
5888.45942,0.27396
5886.53068,0.27328
5884.60193,0.27296
5882.67319,0.27281
5880.74444,0.27175
5878.81570,0.26929
5876.88695,0.26668
5874.95821,0.26512
5873.02946,0.26396
5871.10072,0.26225
5869.17197,0.26080
5867.24322,0.26055
5865.31448,0.26051
5863.38573,0.25948
5861.45699,0.25818
5859.52824,0.25776
5857.59950,0.25754
5855.67075,0.25684
5853.74201,0.25654
5851.81326,0.25671
5849.88452,0.25665
5847.95577,0.25736
5846.02703,0.25948
5844.09828,0.26158
5842.16954,0.26297
5840.24079,0.26423
5838.31205,0.26478
5836.38330,0.26469
5834.45455,0.26549
5832.52581,0.26662
5830.59706,0.26674
5828.66832,0.26654
5826.73957,0.26678
5824.81083,0.26746
5822.88208,0.26822
5820.95334,0.26790
5819.02459,0.26605
5817.09585,0.26397
5815.16710,0.26277
5813.23836,0.26233
5811.30961,0.26183
5809.38087,0.26044
5807.45212,0.25830
5805.52337,0.25671
5803.59463,0.25641
5801.66588,0.25615
5799.73714,0.25480
5797.80839,0.25354
5795.87965,0.25363
5793.95090,0.25500
5792.02216,0.25722
5790.09341,0.25903
5788.16467,0.25979
5786.23592,0.26027
5784.30718,0.26046
5782.37843,0.26025
5780.44969,0.25997
5778.52094,0.25936
5776.59220,0.25889
5774.66345,0.25927
5772.73470,0.26032
5770.80596,0.26151
5768.87721,0.26220
5766.94847,0.26198
5765.01972,0.26105
5763.09098,0.26010
5761.16223,0.25922
5759.23349,0.25829
5757.30474,0.25799
5755.37600,0.25811
5753.44725,0.25798
5751.51851,0.25866
5749.58976,0.26137
5747.66102,0.26488
5745.73227,0.26664
5743.80352,0.26657
5741.87478,0.26639
5739.94603,0.26648
5738.01729,0.26733
5736.08854,0.26977
5734.15980,0.27246
5732.23105,0.27413
5730.30231,0.27529
5728.37356,0.27599
5726.44482,0.27592
5724.51607,0.27559
5722.58733,0.27578
5720.65858,0.27668
5718.72984,0.27722
5716.80109,0.27698
5714.87235,0.27688
5712.94360,0.27711
5711.01485,0.27718
5709.08611,0.27660
5707.15736,0.27557
5705.22862,0.27597
5703.29987,0.27795
5701.37113,0.27892
5699.44238,0.27820
5697.51364,0.27736
5695.58489,0.27723
5693.65615,0.27743
5691.72740,0.27747
5689.79866,0.27759
5687.86991,0.27798
5685.94117,0.27845
5684.01242,0.27856
5682.08368,0.27800
5680.15493,0.27727
5678.22618,0.27680
5676.29744,0.27640
5674.36869,0.27646
5672.43995,0.27757
5670.51120,0.27907
5668.58246,0.27949
5666.65371,0.27870
5664.72497,0.27781
5662.79622,0.27757
5660.86748,0.27841
5658.93873,0.27981
5657.00999,0.28015
5655.08124,0.27889
5653.15250,0.27692
5651.22375,0.27571
5649.29500,0.27636
5647.36626,0.27793
5645.43751,0.27853
5643.50877,0.27788
5641.58002,0.27731
5639.65128,0.27803
5637.72253,0.27929
5635.79379,0.27965
5633.86504,0.28017
5631.93630,0.28174
5630.00755,0.28281
5628.07881,0.28209
5626.15006,0.28060
5624.22132,0.28048
5622.29257,0.28184
5620.36383,0.28297
5618.43508,0.28316
5616.50633,0.28308
5614.57759,0.28321
5612.64884,0.28323
5610.72010,0.28340
5608.79135,0.28403
5606.86261,0.28416
5604.93386,0.28387
5603.00512,0.28427
5601.07637,0.28508
5599.14763,0.28539
5597.21888,0.28528
5595.29014,0.28521
5593.36139,0.28513
5591.43265,0.28493
5589.50390,0.28498
5587.57516,0.28535
5585.64641,0.28556
5583.71766,0.28525
5581.78892,0.28449
5579.86017,0.28394
5577.93143,0.28389
5576.00268,0.28403
5574.07394,0.28431
5572.14519,0.28444
5570.21645,0.28429
5568.28770,0.28446
5566.35896,0.28497
5564.43021,0.28521
5562.50147,0.28489
5560.57272,0.28398
5558.64398,0.28318
5556.71523,0.28339
5554.78648,0.28389
5552.85774,0.28399
5550.92899,0.28453
5549.00025,0.28584
5547.07150,0.28691
5545.14276,0.28689
5543.21401,0.28600
5541.28527,0.28459
5539.35652,0.28326
5537.42778,0.28312
5535.49903,0.28377
5533.57029,0.28397
5531.64154,0.28388
5529.71280,0.28389
5527.78405,0.28388
5525.85531,0.28361
5523.92656,0.28327
5521.99781,0.28317
5520.06907,0.28274
5518.14032,0.28220
5516.21158,0.28252
5514.28283,0.28306
5512.35409,0.28288
5510.42534,0.28248
5508.49660,0.28242
5506.56785,0.28248
5504.63911,0.28278
5502.71036,0.28361
5500.78162,0.28390
5498.85287,0.28314
5496.92413,0.28269
5494.99538,0.28284
5493.06664,0.28270
5491.13789,0.28272
5489.20914,0.28322
5487.28040,0.28314
5485.35165,0.28268
5483.42291,0.28302
5481.49416,0.28379
5479.56542,0.28424
5477.63667,0.28444
5475.70793,0.28445
5473.77918,0.28421
5471.85044,0.28340
5469.92169,0.28217
5467.99295,0.28157
5466.06420,0.28179
5464.13546,0.28215
5462.20671,0.28286
5460.27796,0.28396
5458.34922,0.28478
5456.42047,0.28484
5454.49173,0.28413
5452.56298,0.28366
5450.63424,0.28403
5448.70549,0.28447
5446.77675,0.28454
5444.84800,0.28466
5442.91926,0.28522
5440.99051,0.28593
5439.06177,0.28626
5437.13302,0.28611
5435.20428,0.28598
5433.27553,0.28618
5431.34679,0.28648
5429.41804,0.28690
5427.48929,0.28717
5425.56055,0.28700
5423.63180,0.28713
5421.70306,0.28782
5419.77431,0.28855
5417.84557,0.28916
5415.91682,0.28930
5413.98808,0.28891
5412.05933,0.28872
5410.13059,0.28906
5408.20184,0.28950
5406.27310,0.28955
5404.34435,0.28936
5402.41561,0.28919
5400.48686,0.28861
5398.55811,0.28815
5396.62937,0.28863
5394.70062,0.28939
5392.77188,0.29006
5390.84313,0.29081
5388.91439,0.29106
5386.98564,0.29070
5385.05690,0.29051
5383.12815,0.29110
5381.19941,0.29203
5379.27066,0.29219
5377.34192,0.29139
5375.41317,0.29039
5373.48443,0.28958
5371.55568,0.28915
5369.62694,0.28943
5367.69819,0.29010
5365.76944,0.29050
5363.84070,0.29098
5361.91195,0.29180
5359.98321,0.29201
5358.05446,0.29123
5356.12572,0.29074
5354.19697,0.29111
5352.26823,0.29130
5350.33948,0.29116
5348.41074,0.29134
5346.48199,0.29167
5344.55325,0.29193
5342.62450,0.29183
5340.69576,0.29135
5338.76701,0.29117
5336.83827,0.29125
5334.90952,0.29105
5332.98077,0.29096
5331.05203,0.29125
5329.12328,0.29140
5327.19454,0.29141
5325.26579,0.29151
5323.33705,0.29140
5321.40830,0.29107
5319.47956,0.29075
5317.55081,0.29064
5315.62207,0.29113
5313.69332,0.29170
5311.76458,0.29156
5309.83583,0.29125
5307.90709,0.29138
5305.97834,0.29162
5304.04959,0.29168
5302.12085,0.29187
5300.19210,0.29227
5298.26336,0.29207
5296.33461,0.29117
5294.40587,0.29061
5292.47712,0.29072
5290.54838,0.29102
5288.61963,0.29114
5286.69089,0.29107
5284.76214,0.29116
5282.83340,0.29138
5280.90465,0.29131
5278.97591,0.29078
5277.04716,0.29033
5275.11842,0.29046
5273.18967,0.29065
5271.26092,0.29056
5269.33218,0.29101
5267.40343,0.29179
5265.47469,0.29169
5263.54594,0.29070
5261.61720,0.28961
5259.68845,0.28920
5257.75971,0.29016
5255.83096,0.29156
5253.90222,0.29157
5251.97347,0.29058
5250.04473,0.29069
5248.11598,0.29215
5246.18724,0.29309
5244.25849,0.29246
5242.32975,0.29141
5240.40100,0.29149
5238.47225,0.29236
5236.54351,0.29260
5234.61476,0.29202
5232.68602,0.29141
5230.75727,0.29089
5228.82853,0.29020
5226.89978,0.28965
5224.97104,0.28978
5223.04229,0.29058
5221.11355,0.29108
5219.18480,0.29086
5217.25606,0.29088
5215.32731,0.29145
5213.39857,0.29180
5211.46982,0.29135
5209.54107,0.29031
5207.61233,0.28964
5205.68358,0.28943
5203.75484,0.28928
5201.82609,0.28977
5199.89735,0.29100
5197.96860,0.29187
5196.03986,0.29216
5194.11111,0.29235
5192.18237,0.29217
5190.25362,0.29174
5188.32488,0.29179
5186.39613,0.29187
5184.46739,0.29099
5182.53864,0.29006
5180.60990,0.29022
5178.68115,0.29048
5176.75240,0.29001
5174.82366,0.28963
5172.89491,0.29012
5170.96617,0.29096
5169.03742,0.29146
5167.10868,0.29138
5165.17993,0.29090
5163.25119,0.29073
5161.32244,0.29065
5159.39370,0.29014
5157.46495,0.28997
5155.53621,0.29030
5153.60746,0.29045
5151.67872,0.29044
5149.74997,0.29053
5147.82123,0.29060
5145.89248,0.29074
5143.96373,0.29110
5142.03499,0.29118
5140.10624,0.29067
5138.17750,0.29021
5136.24875,0.29038
5134.32001,0.29099
5132.39126,0.29126
5130.46252,0.29090
5128.53377,0.29063
5126.60503,0.29077
5124.67628,0.29087
5122.74754,0.29074
5120.81879,0.29046
5118.89005,0.29038
5116.96130,0.29081
5115.03255,0.29134
5113.10381,0.29122
5111.17506,0.29064
5109.24632,0.29058
5107.31757,0.29118
5105.38883,0.29133
5103.46008,0.29073
5101.53134,0.29025
5099.60259,0.29015
5097.67385,0.29009
5095.74510,0.29015
5093.81636,0.29044
5091.88761,0.29058
5089.95887,0.29028
5088.03012,0.28963
5086.10138,0.28908
5084.17263,0.28938
5082.24388,0.29026
5080.31514,0.29047
5078.38639,0.28959
5076.45765,0.28850
5074.52890,0.28840
5072.60016,0.28920
5070.67141,0.28957
5068.74267,0.28913
5066.81392,0.28858
5064.88518,0.28865
5062.95643,0.28914
5061.02769,0.28907
5059.09894,0.28848
5057.17020,0.28846
5055.24145,0.28916
5053.31270,0.28982
5051.38396,0.29014
5049.45521,0.29027
5047.52647,0.29003
5045.59772,0.28957
5043.66898,0.28932
5041.74023,0.28916
5039.81149,0.28919
5037.88274,0.28992
5035.95400,0.29068
5034.02525,0.29073
5032.09651,0.29069
5030.16776,0.29112
5028.23902,0.29187
5026.31027,0.29241
5024.38153,0.29249
5022.45278,0.29235
5020.52403,0.29206
5018.59529,0.29176
5016.66654,0.29178
5014.73780,0.29191
5012.80905,0.29182
5010.88031,0.29172
5008.95156,0.29173
5007.02282,0.29164
5005.09407,0.29154
5003.16533,0.29143
5001.23658,0.29132
4999.30784,0.29166
4997.37909,0.29224
4995.45035,0.29229
4993.52160,0.29181
4991.59286,0.29153
4989.66411,0.29158
4987.73536,0.29155
4985.80662,0.29175
4983.87787,0.29233
4981.94913,0.29269
4980.02038,0.29273
4978.09164,0.29276
4976.16289,0.29264
4974.23415,0.29236
4972.30540,0.29225
4970.37666,0.29229
4968.44791,0.29214
4966.51917,0.29187
4964.59042,0.29204
4962.66168,0.29246
4960.73293,0.29239
4958.80418,0.29222
4956.87544,0.29287
4954.94669,0.29371
4953.01795,0.29357
4951.08920,0.29266
4949.16046,0.29196
4947.23171,0.29198
4945.30297,0.29242
4943.37422,0.29247
4941.44548,0.29218
4939.51673,0.29232
4937.58799,0.29252
4935.65924,0.29220
4933.73050,0.29209
4931.80175,0.29260
4929.87301,0.29299
4927.94426,0.29293
4926.01551,0.29297
4924.08677,0.29313
4922.15802,0.29281
4920.22928,0.29227
4918.30053,0.29250
4916.37179,0.29326
4914.44304,0.29344
4912.51430,0.29312
4910.58555,0.29304
4908.65681,0.29348
4906.72806,0.29408
4904.79932,0.29418
4902.87057,0.29371
4900.94183,0.29312
4899.01308,0.29289
4897.08434,0.29293
4895.15559,0.29281
4893.22684,0.29269
4891.29810,0.29263
4889.36935,0.29230
4887.44061,0.29203
4885.51186,0.29202
4883.58312,0.29201
4881.65437,0.29209
4879.72563,0.29259
4877.79688,0.29301
4875.86814,0.29282
4873.93939,0.29274
4872.01065,0.29298
4870.08190,0.29283
4868.15316,0.29258
4866.22441,0.29256
4864.29566,0.29246
4862.36692,0.29247
4860.43817,0.29269
4858.50943,0.29278
4856.58068,0.29262
4854.65194,0.29230
4852.72319,0.29201
4850.79445,0.29208
4848.86570,0.29230
4846.93696,0.29221
4845.00821,0.29202
4843.07947,0.29207
4841.15072,0.29222
4839.22198,0.29238
4837.29323,0.29247
4835.36449,0.29238
4833.43574,0.29213
4831.50699,0.29178
4829.57825,0.29172
4827.64950,0.29222
4825.72076,0.29255
4823.79201,0.29200
4821.86327,0.29126
4819.93452,0.29128
4818.00578,0.29184
4816.07703,0.29228
4814.14829,0.29241
4812.21954,0.29249
4810.29080,0.29273
4808.36205,0.29278
4806.43331,0.29228
4804.50456,0.29164
4802.57582,0.29128
4800.64707,0.29141
4798.71832,0.29199
4796.78958,0.29224
4794.86083,0.29201
4792.93209,0.29195
4791.00334,0.29204
4789.07460,0.29208
4787.14585,0.29218
4785.21711,0.29226
4783.28836,0.29216
4781.35962,0.29195
4779.43087,0.29176
4777.50213,0.29160
4775.57338,0.29153
4773.64464,0.29158
4771.71589,0.29169
4769.78714,0.29190
4767.85840,0.29205
4765.92965,0.29178
4764.00091,0.29150
4762.07216,0.29172
4760.14342,0.29212
4758.21467,0.29223
4756.28593,0.29208
4754.35718,0.29186
4752.42844,0.29173
4750.49969,0.29185
4748.57095,0.29224
4746.64220,0.29250
4744.71346,0.29223
4742.78471,0.29191
4740.85597,0.29196
4738.92722,0.29196
4736.99847,0.29165
4735.06973,0.29159
4733.14098,0.29210
4731.21224,0.29263
4729.28349,0.29266
4727.35475,0.29239
4725.42600,0.29205
4723.49726,0.29169
4721.56851,0.29152
4719.63977,0.29146
4717.71102,0.29129
4715.78228,0.29128
4713.85353,0.29174
4711.92479,0.29238
4709.99604,0.29268
4708.06729,0.29258
4706.13855,0.29230
4704.20980,0.29204
4702.28106,0.29212
4700.35231,0.29246
4698.42357,0.29247
4696.49482,0.29207
4694.56608,0.29159
4692.63733,0.29145
4690.70859,0.29182
4688.77984,0.29222
4686.85110,0.29230
4684.92235,0.29234
4682.99361,0.29234
4681.06486,0.29202
4679.13612,0.29150
4677.20737,0.29103
4675.27862,0.29080
4673.34988,0.29092
4671.42113,0.29111
4669.49239,0.29109
4667.56364,0.29086
4665.63490,0.29042
4663.70615,0.29028
4661.77741,0.29078
4659.84866,0.29127
4657.91992,0.29127
4655.99117,0.29096
4654.06243,0.29035
4652.13368,0.28955
4650.20494,0.28920
4648.27619,0.28944
4646.34745,0.28960
4644.41870,0.28958
4642.48995,0.28943
4640.56121,0.28897
4638.63246,0.28883
4636.70372,0.28947
4634.77497,0.29012
4632.84623,0.29005
4630.91748,0.28957
4628.98874,0.28939
4627.05999,0.28941
4625.13125,0.28911
4623.20250,0.28861
4621.27376,0.28833
4619.34501,0.28828
4617.41627,0.28834
4615.48752,0.28840
4613.55877,0.28828
4611.63003,0.28803
4609.70128,0.28803
4607.77254,0.28830
4605.84379,0.28828
4603.91505,0.28785
4601.98630,0.28740
4600.05756,0.28693
4598.12881,0.28654
4596.20007,0.28658
4594.27132,0.28676
4592.34258,0.28664
4590.41383,0.28615
4588.48509,0.28541
4586.55634,0.28492
4584.62760,0.28524
4582.69885,0.28592
4580.77010,0.28587
4578.84136,0.28508
4576.91261,0.28441
4574.98387,0.28415
4573.05512,0.28427
4571.12638,0.28467
4569.19763,0.28480
4567.26889,0.28447
4565.34014,0.28418
4563.41140,0.28409
4561.48265,0.28403
4559.55391,0.28397
4557.62516,0.28398
4555.69642,0.28408
4553.76767,0.28416
4551.83893,0.28415
4549.91018,0.28417
4547.98143,0.28427
4546.05269,0.28434
4544.12394,0.28425
4542.19520,0.28401
4540.26645,0.28372
4538.33771,0.28352
4536.40896,0.28359
4534.48022,0.28371
4532.55147,0.28354
4530.62273,0.28340
4528.69398,0.28360
4526.76524,0.28365
4524.83649,0.28358
4522.90775,0.28361
4520.97900,0.28320
4519.05025,0.28256
4517.12151,0.28251
4515.19276,0.28267
4513.26402,0.28235
4511.33527,0.28193
4509.40653,0.28191
4507.47778,0.28201
4505.54904,0.28197
4503.62029,0.28191
4501.69155,0.28179
4499.76280,0.28159
4497.83406,0.28146
4495.90531,0.28151
4493.97657,0.28171
4492.04782,0.28189
4490.11908,0.28178
4488.19033,0.28112
4486.26158,0.28028
4484.33284,0.27989
4482.40409,0.27988
4480.47535,0.27985
4478.54660,0.27982
4476.61786,0.27986
4474.68911,0.27957
4472.76037,0.27893
4470.83162,0.27833
4468.90288,0.27774
4466.97413,0.27725
4465.04539,0.27719
4463.11664,0.27721
4461.18790,0.27677
4459.25915,0.27597
4457.33041,0.27522
4455.40166,0.27472
4453.47291,0.27408
4451.54417,0.27291
4449.61542,0.27150
4447.68668,0.27006
4445.75793,0.26847
4443.82919,0.26691
4441.90044,0.26549
4439.97170,0.26389
4438.04295,0.26182
4436.11421,0.25950
4434.18546,0.25710
4432.25672,0.25418
4430.32797,0.25052
4428.39923,0.24689
4426.47048,0.24376
4424.54173,0.24026
4422.61299,0.23600
4420.68424,0.23189
4418.75550,0.22847
4416.82675,0.22530
4414.89801,0.22186
4412.96926,0.21817
4411.04052,0.21463
4409.11177,0.21140
4407.18303,0.20834
4405.25428,0.20527
4403.32554,0.20197
4401.39679,0.19850
4399.46805,0.19512
4397.53930,0.19195
4395.61056,0.18886
4393.68181,0.18596
4391.75306,0.18420
4389.82432,0.18433
4387.89557,0.18582
4385.96683,0.18794
4384.03808,0.19035
4382.10934,0.19279
4380.18059,0.19500
4378.25185,0.19670
4376.32310,0.19797
4374.39436,0.19913
4372.46561,0.20039
4370.53687,0.20181
4368.60812,0.20314
4366.67938,0.20411
4364.75063,0.20493
4362.82189,0.20577
4360.89314,0.20637
4358.96439,0.20642
4357.03565,0.20584
4355.10690,0.20468
4353.17816,0.20301
4351.24941,0.20078
4349.32067,0.19765
4347.39192,0.19386
4345.46318,0.18972
4343.53443,0.18490
4341.60569,0.17939
4339.67694,0.17351
4337.74820,0.16760
4335.81945,0.16226
4333.89071,0.15775
4331.96196,0.15384
4330.03321,0.15061
4328.10447,0.14823
4326.17572,0.14666
4324.24698,0.14595
4322.31823,0.14607
4320.38949,0.14651
4318.46074,0.14717
4316.53200,0.14832
4314.60325,0.14963
4312.67451,0.15077
4310.74576,0.15199
4308.81702,0.15374
4306.88827,0.15644
4304.95953,0.15976
4303.03078,0.16301
4301.10204,0.16601
4299.17329,0.16890
4297.24454,0.17149
4295.31580,0.17343
4293.38705,0.17471
4291.45831,0.17551
4289.52956,0.17577
4287.60082,0.17567
4285.67207,0.17562
4283.74333,0.17570
4281.81458,0.17566
4279.88584,0.17569
4277.95709,0.17599
4276.02835,0.17619
4274.09960,0.17626
4272.17086,0.17638
4270.24211,0.17612
4268.31336,0.17532
4266.38462,0.17431
4264.45587,0.17305
4262.52713,0.17143
4260.59838,0.16964
4258.66964,0.16774
4256.74089,0.16553
4254.81215,0.16288
4252.88340,0.16001
4250.95466,0.15736
4249.02591,0.15508
4247.09717,0.15308
4245.16842,0.15144
4243.23968,0.15035
4241.31093,0.15012
4239.38219,0.15096
4237.45344,0.15284
4235.52469,0.15573
4233.59595,0.15924
4231.66720,0.16261
4229.73846,0.16518
4227.80971,0.16671
4225.88097,0.16752
4223.95222,0.16796
4222.02348,0.16816
4220.09473,0.16830
4218.16599,0.16867
4216.23724,0.16932
4214.30850,0.17005
4212.37975,0.17076
4210.45101,0.17141
4208.52226,0.17199
4206.59352,0.17259
4204.66477,0.17353
4202.73602,0.17499
4200.80728,0.17647
4198.87853,0.17752
4196.94979,0.17870
4195.02104,0.18062
4193.09230,0.18278
4191.16355,0.18439
4189.23481,0.18531
4187.30606,0.18560
4185.37732,0.18531
4183.44857,0.18452
4181.51983,0.18340
4179.59108,0.18226
4177.66234,0.18115
4175.73359,0.17997
4173.80484,0.17858
4171.87610,0.17709
4169.94735,0.17598
4168.01861,0.17568
4166.08986,0.17612
4164.16112,0.17710
4162.23237,0.17849
4160.30363,0.17974
4158.37488,0.18061
4156.44614,0.18167
4154.51739,0.18288
4152.58865,0.18368
4150.65990,0.18444
4148.73116,0.18576
4146.80241,0.18723
4144.87367,0.18843
4142.94492,0.18946
4141.01617,0.19035
4139.08743,0.19088
4137.15868,0.19107
4135.22994,0.19099
4133.30119,0.19042
4131.37245,0.18944
4129.44370,0.18850
4127.51496,0.18761
4125.58621,0.18662
4123.65747,0.18584
4121.72872,0.18547
4119.79998,0.18530
4117.87123,0.18523
4115.94249,0.18550
4114.01374,0.18614
4112.08500,0.18697
4110.15625,0.18804
4108.22750,0.18950
4106.29876,0.19136
4104.37001,0.19338
4102.44127,0.19503
4100.51252,0.19627
4098.58378,0.19738
4096.65503,0.19808
4094.72629,0.19807
4092.79754,0.19741
4090.86880,0.19642
4088.94005,0.19544
4087.01131,0.19424
4085.08256,0.19236
4083.15382,0.19009
4081.22507,0.18795
4079.29632,0.18582
4077.36758,0.18350
4075.43883,0.18098
4073.51009,0.17845
4071.58134,0.17615
4069.65260,0.17410
4067.72385,0.17197
4065.79511,0.16948
4063.86636,0.16695
4061.93762,0.16487
4060.00887,0.16364
4058.08013,0.16401
4056.15138,0.16621
4054.22264,0.16967
4052.29389,0.17397
4050.36515,0.17854
4048.43640,0.18279
4046.50765,0.18653
4044.57891,0.18975
4042.65016,0.19261
4040.72142,0.19528
4038.79267,0.19757
4036.86393,0.19933
4034.93518,0.20058
4033.00644,0.20147
4031.07769,0.20221
4029.14895,0.20280
4027.22020,0.20318
4025.29146,0.20339
4023.36271,0.20369
4021.43397,0.20440
4019.50522,0.20559
4017.57648,0.20686
4015.64773,0.20787
4013.71898,0.20878
4011.79024,0.20980
4009.86149,0.21063
4007.93275,0.21108
4006.00400,0.21141
4004.07526,0.21168
4002.14651,0.21146
4000.21777,0.21044
3998.28902,0.20904
3996.36028,0.20804
3994.43153,0.20794
3992.50279,0.20861
3990.57404,0.20952
3988.64530,0.21041
3986.71655,0.21154
3984.78780,0.21289
3982.85906,0.21432
3980.93031,0.21582
3979.00157,0.21726
3977.07282,0.21853
3975.14408,0.21951
3973.21533,0.21991
3971.28659,0.21990
3969.35784,0.22005
3967.42910,0.22058
3965.50035,0.22124
3963.57161,0.22174
3961.64286,0.22186
3959.71412,0.22181
3957.78537,0.22209
3955.85663,0.22274
3953.92788,0.22327
3951.99913,0.22348
3950.07039,0.22363
3948.14164,0.22371
3946.21290,0.22344
3944.28415,0.22284
3942.35541,0.22190
3940.42666,0.22087
3938.49792,0.22040
3936.56917,0.22040
3934.64043,0.22038
3932.71168,0.22032
3930.78294,0.22027
3928.85419,0.22015
3926.92545,0.22014
3924.99670,0.22039
3923.06795,0.22082
3921.13921,0.22142
3919.21046,0.22230
3917.28172,0.22337
3915.35297,0.22451
3913.42423,0.22557
3911.49548,0.22627
3909.56674,0.22669
3907.63799,0.22723
3905.70925,0.22787
3903.78050,0.22818
3901.85176,0.22817
3899.92301,0.22833
3897.99427,0.22865
3896.06552,0.22879
3894.13678,0.22879
3892.20803,0.22871
3890.27928,0.22855
3888.35054,0.22850
3886.42179,0.22864
3884.49305,0.22889
3882.56430,0.22919
3880.63556,0.22955
3878.70681,0.22971
3876.77807,0.22974
3874.84932,0.23006
3872.92058,0.23061
3870.99183,0.23111
3869.06309,0.23137
3867.13434,0.23148
3865.20560,0.23181
3863.27685,0.23239
3861.34811,0.23277
3859.41936,0.23312
3857.49061,0.23395
3855.56187,0.23512
3853.63312,0.23618
3851.70438,0.23668
3849.77563,0.23661
3847.84689,0.23631
3845.91814,0.23599
3843.98940,0.23564
3842.06065,0.23531
3840.13191,0.23507
3838.20316,0.23486
3836.27442,0.23458
3834.34567,0.23443
3832.41693,0.23454
3830.48818,0.23470
3828.55943,0.23484
3826.63069,0.23516
3824.70194,0.23531
3822.77320,0.23491
3820.84445,0.23422
3818.91571,0.23367
3816.98696,0.23325
3815.05822,0.23303
3813.12947,0.23327
3811.20073,0.23388
3809.27198,0.23444
3807.34324,0.23485
3805.41449,0.23525
3803.48575,0.23542
3801.55700,0.23529
3799.62826,0.23520
3797.69951,0.23538
3795.77076,0.23568
3793.84202,0.23592
3791.91327,0.23610
3789.98453,0.23638
3788.05578,0.23681
3786.12704,0.23724
3784.19829,0.23759
3782.26955,0.23782
3780.34080,0.23763
3778.41206,0.23692
3776.48331,0.23600
3774.55457,0.23501
3772.62582,0.23404
3770.69708,0.23309
3768.76833,0.23205
3766.83959,0.23100
3764.91084,0.23028
3762.98209,0.23027
3761.05335,0.23096
3759.12460,0.23187
3757.19586,0.23259
3755.26711,0.23316
3753.33837,0.23395
3751.40962,0.23519
3749.48088,0.23641
3747.55213,0.23712
3745.62339,0.23763
3743.69464,0.23818
3741.76590,0.23849
3739.83715,0.23859
3737.90841,0.23884
3735.97966,0.23930
3734.05091,0.23989
3732.12217,0.24045
3730.19342,0.24075
3728.26468,0.24074
3726.33593,0.24068
3724.40719,0.24091
3722.47844,0.24137
3720.54970,0.24178
3718.62095,0.24201
3716.69221,0.24205
3714.76346,0.24206
3712.83472,0.24199
3710.90597,0.24165
3708.97723,0.24135
3707.04848,0.24145
3705.11974,0.24183
3703.19099,0.24194
3701.26224,0.24162
3699.33350,0.24130
3697.40475,0.24110
3695.47601,0.24100
3693.54726,0.24107
3691.61852,0.24135
3689.68977,0.24187
3687.76103,0.24249
3685.83228,0.24302
3683.90354,0.24337
3681.97479,0.24359
3680.04605,0.24402
3678.11730,0.24495
3676.18856,0.24649
3674.25981,0.24811
3672.33107,0.24919
3670.40232,0.25009
3668.47357,0.25115
3666.54483,0.25213
3664.61608,0.25300
3662.68734,0.25385
3660.75859,0.25445
3658.82985,0.25468
3656.90110,0.25488
3654.97236,0.25539
3653.04361,0.25591
3651.11487,0.25585
3649.18612,0.25524
3647.25738,0.25482
3645.32863,0.25454
3643.39989,0.25374
3641.47114,0.25260
3639.54239,0.25183
3637.61365,0.25137
3635.68490,0.25072
3633.75616,0.25025
3631.82741,0.25049
3629.89867,0.25145
3627.96992,0.25273
3626.04118,0.25365
3624.11243,0.25425
3622.18369,0.25504
3620.25494,0.25607
3618.32620,0.25695
3616.39745,0.25746
3614.46871,0.25760
3612.53996,0.25741
3610.61122,0.25711
3608.68247,0.25676
3606.75372,0.25626
3604.82498,0.25587
3602.89623,0.25571
3600.96749,0.25559
3599.03874,0.25546
3597.11000,0.25540
3595.18125,0.25518
3593.25251,0.25465
3591.32376,0.25406
3589.39502,0.25385
3587.46627,0.25398
3585.53753,0.25412
3583.60878,0.25435
3581.68004,0.25464
3579.75129,0.25459
3577.82254,0.25447
3575.89380,0.25493
3573.96505,0.25565
3572.03631,0.25610
3570.10756,0.25629
3568.17882,0.25632
3566.25007,0.25642
3564.32133,0.25656
3562.39258,0.25646
3560.46384,0.25623
3558.53509,0.25589
3556.60635,0.25535
3554.67760,0.25487
3552.74886,0.25474
3550.82011,0.25476
3548.89137,0.25480
3546.96262,0.25490
3545.03387,0.25493
3543.10513,0.25469
3541.17638,0.25419
3539.24764,0.25358
3537.31889,0.25302
3535.39015,0.25260
3533.46140,0.25222
3531.53266,0.25174
3529.60391,0.25143
3527.67517,0.25146
3525.74642,0.25131
3523.81768,0.25089
3521.88893,0.25080
3519.96019,0.25102
3518.03144,0.25108
3516.10270,0.25092
3514.17395,0.25073
3512.24520,0.25047
3510.31646,0.25009
3508.38771,0.24982
3506.45897,0.24966
3504.53022,0.24925
3502.60148,0.24868
3500.67273,0.24838
3498.74399,0.24829
3496.81524,0.24794
3494.88650,0.24726
3492.95775,0.24671
3491.02901,0.24658
3489.10026,0.24656
3487.17152,0.24632
3485.24277,0.24579
3483.31402,0.24510
3481.38528,0.24437
3479.45653,0.24376
3477.52779,0.24334
3475.59904,0.24295
3473.67030,0.24226
3471.74155,0.24128
3469.81281,0.24033
3467.88406,0.23955
3465.95532,0.23890
3464.02657,0.23838
3462.09783,0.23782
3460.16908,0.23705
3458.24034,0.23630
3456.31159,0.23576
3454.38285,0.23524
3452.45410,0.23444
3450.52535,0.23328
3448.59661,0.23209
3446.66786,0.23126
3444.73912,0.23060
3442.81037,0.22988
3440.88163,0.22903
3438.95288,0.22803
3437.02414,0.22723
3435.09539,0.22679
3433.16665,0.22615
3431.23790,0.22498
3429.30916,0.22366
3427.38041,0.22253
3425.45167,0.22155
3423.52292,0.22076
3421.59418,0.22000
3419.66543,0.21910
3417.73668,0.21829
3415.80794,0.21785
3413.87919,0.21763
3411.95045,0.21747
3410.02170,0.21734
3408.09296,0.21730
3406.16421,0.21742
3404.23547,0.21785
3402.30672,0.21879
3400.37798,0.21991
3398.44923,0.22063
3396.52049,0.22088
3394.59174,0.22096
3392.66300,0.22107
3390.73425,0.22112
3388.80550,0.22073
3386.87676,0.22016
3384.94801,0.21981
3383.01927,0.21943
3381.09052,0.21867
3379.16178,0.21756
3377.23303,0.21637
3375.30429,0.21536
3373.37554,0.21460
3371.44680,0.21399
3369.51805,0.21348
3367.58931,0.21300
3365.66056,0.21244
3363.73182,0.21189
3361.80307,0.21132
3359.87433,0.21040
3357.94558,0.20937
3356.01683,0.20880
3354.08809,0.20830
3352.15934,0.20730
3350.23060,0.20628
3348.30185,0.20585
3346.37311,0.20580
3344.44436,0.20567
3342.51562,0.20571
3340.58687,0.20621
3338.65813,0.20682
3336.72938,0.20727
3334.80064,0.20750
3332.87189,0.20742
3330.94315,0.20734
3329.01440,0.20769
3327.08566,0.20804
3325.15691,0.20771
3323.22816,0.20652
3321.29942,0.20461
3319.37067,0.20230
3317.44193,0.19973
3315.51318,0.19675
3313.58444,0.19302
3311.65569,0.18825
3309.72695,0.18269
3307.79820,0.17686
3305.86946,0.17108
3303.94071,0.16569
3302.01197,0.16152
3300.08322,0.15979
3298.15448,0.16102
3296.22573,0.16454
3294.29698,0.16923
3292.36824,0.17425
3290.43949,0.17907
3288.51075,0.18331
3286.58200,0.18685
3284.65326,0.18971
3282.72451,0.19183
3280.79577,0.19363
3278.86702,0.19551
3276.93828,0.19714
3275.00953,0.19827
3273.08079,0.19923
3271.15204,0.20030
3269.22330,0.20141
3267.29455,0.20231
3265.36581,0.20296
3263.43706,0.20350
3261.50831,0.20401
3259.57957,0.20460
3257.65082,0.20527
3255.72208,0.20588
3253.79333,0.20629
3251.86459,0.20648
3249.93584,0.20657
3248.00710,0.20664
3246.07835,0.20642
3244.14961,0.20561
3242.22086,0.20430
3240.29212,0.20281
3238.36337,0.20118
3236.43463,0.19950
3234.50588,0.19781
3232.57713,0.19575
3230.64839,0.19311
3228.71964,0.19043
3226.79090,0.18787
3224.86215,0.18507
3222.93341,0.18218
3221.00466,0.17939
3219.07592,0.17639
3217.14717,0.17337
3215.21843,0.17079
3213.28968,0.16845
3211.36094,0.16624
3209.43219,0.16447
3207.50345,0.16287
3205.57470,0.16105
3203.64596,0.15933
3201.71721,0.15820
3199.78846,0.15745
3197.85972,0.15659
3195.93097,0.15578
3194.00223,0.15536
3192.07348,0.15527
3190.14474,0.15542
3188.21599,0.15575
3186.28725,0.15612
3184.35850,0.15657
3182.42976,0.15722
3180.50101,0.15786
3178.57227,0.15846
3176.64352,0.15927
3174.71478,0.16012
3172.78603,0.16089
3170.85729,0.16160
3168.92854,0.16203
3166.99979,0.16219
3165.07105,0.16216
3163.14230,0.16188
3161.21356,0.16149
3159.28481,0.16096
3157.35607,0.16023
3155.42732,0.15953
3153.49858,0.15891
3151.56983,0.15833
3149.64109,0.15784
3147.71234,0.15742
3145.78360,0.15705
3143.85485,0.15672
3141.92611,0.15642
3139.99736,0.15637
3138.06861,0.15674
3136.13987,0.15735
3134.21112,0.15803
3132.28238,0.15875
3130.35363,0.15962
3128.42489,0.16074
3126.49614,0.16195
3124.56740,0.16302
3122.63865,0.16403
3120.70991,0.16496
3118.78116,0.16571
3116.85242,0.16643
3114.92367,0.16704
3112.99493,0.16743
3111.06618,0.16762
3109.13744,0.16767
3107.20869,0.16773
3105.27994,0.16780
3103.35120,0.16781
3101.42245,0.16765
3099.49371,0.16722
3097.56496,0.16680
3095.63622,0.16669
3093.70747,0.16664
3091.77873,0.16643
3089.84998,0.16600
3087.92124,0.16558
3085.99249,0.16549
3084.06375,0.16542
3082.13500,0.16494
3080.20626,0.16425
3078.27751,0.16344
3076.34877,0.16240
3074.42002,0.16136
3072.49127,0.16060
3070.56253,0.16002
3068.63378,0.15934
3066.70504,0.15850
3064.77629,0.15757
3062.84755,0.15650
3060.91880,0.15532
3058.99006,0.15413
3057.06131,0.15298
3055.13257,0.15193
3053.20382,0.15087
3051.27508,0.14965
3049.34633,0.14843
3047.41759,0.14725
3045.48884,0.14610
3043.56009,0.14501
3041.63135,0.14396
3039.70260,0.14287
3037.77386,0.14141
3035.84511,0.13942
3033.91637,0.13735
3031.98762,0.13540
3030.05888,0.13317
3028.13013,0.13044
3026.20139,0.12749
3024.27264,0.12449
3022.34390,0.12133
3020.41515,0.11777
3018.48641,0.11392
3016.55766,0.11006
3014.62892,0.10623
3012.70017,0.10233
3010.77142,0.09842
3008.84268,0.09441
3006.91393,0.09016
3004.98519,0.08584
3003.05644,0.08147
3001.12770,0.07685
2999.19895,0.07184
2997.27021,0.06661
2995.34146,0.06154
2993.41272,0.05659
2991.48397,0.05169
2989.55523,0.04719
2987.62648,0.04321
2985.69774,0.03966
2983.76899,0.03654
2981.84025,0.03383
2979.91150,0.03136
2977.98275,0.02893
2976.05401,0.02687
2974.12526,0.02557
2972.19652,0.02488
2970.26777,0.02448
2968.33903,0.02434
2966.41028,0.02453
2964.48154,0.02516
2962.55279,0.02651
2960.62405,0.02847
2958.69530,0.03019
2956.76656,0.03091
2954.83781,0.03085
2952.90907,0.03092
2950.98032,0.03157
2949.05157,0.03249
2947.12283,0.03307
2945.19408,0.03296
2943.26534,0.03239
2941.33659,0.03180
2939.40785,0.03125
2937.47910,0.03062
2935.55036,0.02998
2933.62161,0.02927
2931.69287,0.02859
2929.76412,0.02856
2927.83538,0.02924
2925.90663,0.03016
2923.97789,0.03123
2922.04914,0.03250
2920.12040,0.03399
2918.19165,0.03571
2916.26290,0.03708
2914.33416,0.03753
2912.40541,0.03709
2910.47667,0.03628
2908.54792,0.03562
2906.61918,0.03539
2904.69043,0.03550
2902.76169,0.03569
2900.83294,0.03569
2898.90420,0.03549
2896.97545,0.03517
2895.04671,0.03491
2893.11796,0.03474
2891.18922,0.03459
2889.26047,0.03441
2887.33172,0.03422
2885.40298,0.03398
2883.47423,0.03375
2881.54549,0.03359
2879.61674,0.03350
2877.68800,0.03348
2875.75925,0.03356
2873.83051,0.03386
2871.90176,0.03420
2869.97302,0.03416
2868.04427,0.03388
2866.11553,0.03409
2864.18678,0.03488
2862.25804,0.03582
2860.32929,0.03664
2858.40055,0.03720
2856.47180,0.03738
2854.54305,0.03732
2852.61431,0.03703
2850.68556,0.03644
2848.75682,0.03557
2846.82807,0.03457
2844.89933,0.03370
2842.97058,0.03335
2841.04184,0.03361
2839.11309,0.03425
2837.18435,0.03513
2835.25560,0.03612
2833.32686,0.03712
2831.39811,0.03842
2829.46937,0.04034
2827.54062,0.04262
2825.61188,0.04489
2823.68313,0.04718
2821.75438,0.04952
2819.82564,0.05185
2817.89689,0.05415
2815.96815,0.05621
2814.03940,0.05793
2812.11066,0.05961
2810.18191,0.06139
2808.25317,0.06333
2806.32442,0.06577
2804.39568,0.06878
2802.46693,0.07197
2800.53819,0.07485
2798.60944,0.07709
2796.68070,0.07876
2794.75195,0.08049
2792.82320,0.08304
2790.89446,0.08656
2788.96571,0.09069
2787.03697,0.09505
2785.10822,0.09945
2783.17948,0.10372
2781.25073,0.10770
2779.32199,0.11135
2777.39324,0.11461
2775.46450,0.11715
2773.53575,0.11908
2771.60701,0.12072
2769.67826,0.12199
2767.74952,0.12289
2765.82077,0.12390
2763.89203,0.12524
2761.96328,0.12670
2760.03453,0.12803
2758.10579,0.12910
2756.17704,0.12984
2754.24830,0.13027
2752.31955,0.13038
2750.39081,0.13012
2748.46206,0.12954
2746.53332,0.12856
2744.60457,0.12683
2742.67583,0.12421
2740.74708,0.12096
2738.81834,0.11737
2736.88959,0.11377
2734.96085,0.11062
2733.03210,0.10800
2731.10336,0.10519
2729.17461,0.10153
2727.24586,0.09731
2725.31712,0.09356
2723.38837,0.09134
2721.45963,0.09147
2719.53088,0.09421
2717.60214,0.09884
2715.67339,0.10413
2713.74465,0.10907
2711.81590,0.11327
2709.88716,0.11687
2707.95841,0.12005
2706.02967,0.12285
2704.10092,0.12554
2702.17218,0.12830
2700.24343,0.13081
2698.31468,0.13268
2696.38594,0.13374
2694.45719,0.13393
2692.52845,0.13341
2690.59970,0.13276
2688.67096,0.13248
2686.74221,0.13244
2684.81347,0.13229
2682.88472,0.13208
2680.95598,0.13191
2679.02723,0.13176
2677.09849,0.13188
2675.16974,0.13251
2673.24100,0.13337
2671.31225,0.13398
2669.38351,0.13425
2667.45476,0.13425
2665.52601,0.13389
2663.59727,0.13328
2661.66852,0.13287
2659.73978,0.13301
2657.81103,0.13383
2655.88229,0.13538
2653.95354,0.13745
2652.02480,0.13953
2650.09605,0.14124
2648.16731,0.14241
2646.23856,0.14302
2644.30982,0.14345
2642.38107,0.14423
2640.45233,0.14532
2638.52358,0.14610
2636.59484,0.14609
2634.66609,0.14535
2632.73734,0.14390
2630.80860,0.14163
2628.87985,0.13883
2626.95111,0.13594
2625.02236,0.13320
2623.09362,0.13077
2621.16487,0.12868
2619.23613,0.12680
2617.30738,0.12504
2615.37864,0.12356
2613.44989,0.12262
2611.52115,0.12224
2609.59240,0.12225
2607.66366,0.12254
2605.73491,0.12308
2603.80616,0.12363
2601.87742,0.12380
2599.94867,0.12344
2598.01993,0.12275
2596.09118,0.12190
2594.16244,0.12089
2592.23369,0.11957
2590.30495,0.11796
2588.37620,0.11595
2586.44746,0.11354
2584.51871,0.11120
2582.58997,0.10968
2580.66122,0.10938
2578.73248,0.11021
2576.80373,0.11184
2574.87499,0.11396
2572.94624,0.11614
2571.01749,0.11803
2569.08875,0.11962
2567.16000,0.12091
2565.23126,0.12176
2563.30251,0.12217
2561.37377,0.12243
2559.44502,0.12272
2557.51628,0.12287
2555.58753,0.12272
2553.65879,0.12241
2551.73004,0.12222
2549.80130,0.12224
2547.87255,0.12226
2545.94381,0.12224
2544.01506,0.12239
2542.08631,0.12236
2540.15757,0.12124
2538.22882,0.11834
2536.30008,0.11384
2534.37133,0.10859
2532.44259,0.10340
2530.51384,0.09857
2528.58510,0.09406
2526.65635,0.09003
2524.72761,0.08676
2522.79886,0.08420
2520.87012,0.08214
2518.94137,0.08052
2517.01263,0.07931
2515.08388,0.07848
2513.15514,0.07813
2511.22639,0.07831
2509.29764,0.07936
2507.36890,0.08177
2505.44015,0.08546
2503.51141,0.09009
2501.58266,0.09564
2499.65392,0.10210
2497.72517,0.10918
2495.79643,0.11662
2493.86768,0.12431
2491.93894,0.13198
2490.01019,0.13889
2488.08145,0.14456
2486.15270,0.14922
2484.22396,0.15348
2482.29521,0.15776
2480.36647,0.16212
2478.43772,0.16653
2476.50897,0.17115
2474.58023,0.17585
2472.65148,0.18026
2470.72274,0.18413
2468.79399,0.18733
2466.86525,0.18976
2464.93650,0.19145
2463.00776,0.19248
2461.07901,0.19304
2459.15027,0.19353
2457.22152,0.19409
2455.29278,0.19460
2453.36403,0.19513
2451.43529,0.19559
2449.50654,0.19577
2447.57779,0.19568
2445.64905,0.19543
2443.72030,0.19510
2441.79156,0.19466
2439.86281,0.19402
2437.93407,0.19291
2436.00532,0.19134
2434.07658,0.18969
2432.14783,0.18839
2430.21909,0.18779
2428.29034,0.18787
2426.36160,0.18843
2424.43285,0.18948
2422.50411,0.19092
2420.57536,0.19250
2418.64662,0.19404
2416.71787,0.19534
2414.78912,0.19627
2412.86038,0.19678
2410.93163,0.19696
2409.00289,0.19693
2407.07414,0.19671
2405.14540,0.19633
2403.21665,0.19590
2401.28791,0.19546
2399.35916,0.19525
2397.43042,0.19555
2395.50167,0.19628
2393.57293,0.19712
2391.64418,0.19803
2389.71544,0.19901
2387.78669,0.19987
2385.85795,0.20045
2383.92920,0.20066
2382.00045,0.20060
2380.07171,0.20042
2378.14296,0.20006
2376.21422,0.19967
2374.28547,0.19953
2372.35673,0.19973
2370.42798,0.20002
2368.49924,0.20007
2366.57049,0.19976
2364.64175,0.19915
2362.71300,0.19862
2360.78426,0.19863
2358.85551,0.19904
2356.92677,0.19951
2354.99802,0.20013
2353.06927,0.20099
2351.14053,0.20199
2349.21178,0.20324
2347.28304,0.20472
2345.35429,0.20606
2343.42555,0.20706
2341.49680,0.20786
2339.56806,0.20844
2337.63931,0.20878
2335.71057,0.20906
2333.78182,0.20941
2331.85308,0.20999
2329.92433,0.21091
2327.99559,0.21202
2326.06684,0.21313
2324.13810,0.21418
2322.20935,0.21522
2320.28060,0.21636
2318.35186,0.21749
2316.42311,0.21848
2314.49437,0.21925
2312.56562,0.21973
2310.63688,0.21999
2308.70813,0.22010
2306.77939,0.22013
2304.85064,0.22016
2302.92190,0.22007
2300.99315,0.21987
2299.06441,0.21979
2297.13566,0.21995
2295.20692,0.22033
2293.27817,0.22078
2291.34943,0.22118
2289.42068,0.22162
2287.49193,0.22219
2285.56319,0.22267
2283.63444,0.22277
2281.70570,0.22246
2279.77695,0.22173
2277.84821,0.22058
2275.91946,0.21911
2273.99072,0.21757
2272.06197,0.21613
2270.13323,0.21485
2268.20448,0.21388
2266.27574,0.21337
2264.34699,0.21299
2262.41825,0.21229
2260.48950,0.21121
2258.56075,0.21014
2256.63201,0.20959
2254.70326,0.20982
2252.77452,0.21071
2250.84577,0.21207
2248.91703,0.21377
2246.98828,0.21556
2245.05954,0.21701
2243.13079,0.21785
2241.20205,0.21814
2239.27330,0.21805
2237.34456,0.21774
2235.41581,0.21717
2233.48707,0.21628
2231.55832,0.21536
2229.62958,0.21501
2227.70083,0.21542
2225.77208,0.21621
2223.84334,0.21696
2221.91459,0.21751
2219.98585,0.21772
2218.05710,0.21758
2216.12836,0.21725
2214.19961,0.21697
2212.27087,0.21679
2210.34212,0.21649
2208.41338,0.21589
2206.48463,0.21510
2204.55589,0.21444
2202.62714,0.21398
2200.69840,0.21351
2198.76965,0.21307
2196.84090,0.21275
2194.91216,0.21248
2192.98341,0.21229
2191.05467,0.21213
2189.12592,0.21186
2187.19718,0.21148
2185.26843,0.21104
2183.33969,0.21055
2181.41094,0.21023
2179.48220,0.21015
2177.55345,0.20999
2175.62471,0.20960
2173.69596,0.20925
2171.76722,0.20912
2169.83847,0.20920
2167.90973,0.20958
2165.98098,0.21028
2164.05223,0.21113
2162.12349,0.21176
2160.19474,0.21199
2158.26600,0.21198
2156.33725,0.21177
2154.40851,0.21130
2152.47976,0.21078
2150.55102,0.21033
2148.62227,0.20998
2146.69353,0.20966
2144.76478,0.20913
2142.83604,0.20829
2140.90729,0.20736
2138.97855,0.20639
2137.04980,0.20526
2135.12106,0.20418
2133.19231,0.20363
2131.26356,0.20410
2129.33482,0.20589
2127.40607,0.20891
2125.47733,0.21280
2123.54858,0.21711
2121.61984,0.22119
2119.69109,0.22469
2117.76235,0.22769
2115.83360,0.23020
2113.90486,0.23211
2111.97611,0.23336
2110.04737,0.23408
2108.11862,0.23461
2106.18988,0.23508
2104.26113,0.23536
2102.33238,0.23549
2100.40364,0.23562
2098.47489,0.23578
2096.54615,0.23594
2094.61740,0.23609
2092.68866,0.23614
2090.75991,0.23613
2088.83117,0.23626
2086.90242,0.23675
2084.97368,0.23777
2083.04493,0.23925
2081.11619,0.24082
2079.18744,0.24209
2077.25870,0.24297
2075.32995,0.24369
2073.40121,0.24438
2071.47246,0.24496
2069.54371,0.24543
2067.61497,0.24589
2065.68622,0.24627
2063.75748,0.24647
2061.82873,0.24634
2059.89999,0.24588
2057.97124,0.24539
2056.04250,0.24504
2054.11375,0.24469
2052.18501,0.24426
2050.25626,0.24388
2048.32752,0.24376
2046.39877,0.24394
2044.47003,0.24418
2042.54128,0.24436
2040.61254,0.24445
2038.68379,0.24435
2036.75504,0.24418
2034.82630,0.24405
2032.89755,0.24387
2030.96881,0.24358
2029.04006,0.24331
2027.11132,0.24329
2025.18257,0.24358
2023.25383,0.24400
2021.32508,0.24430
2019.39634,0.24450
2017.46759,0.24468
2015.53885,0.24478
2013.61010,0.24485
2011.68136,0.24494
2009.75261,0.24499
2007.82386,0.24494
2005.89512,0.24479
2003.96637,0.24459
2002.03763,0.24434
2000.10888,0.24396
1998.18014,0.24346
1996.25139,0.24307
1994.32265,0.24286
1992.39390,0.24278
1990.46516,0.24289
1988.53641,0.24314
1986.60767,0.24340
1984.67892,0.24377
1982.75018,0.24425
1980.82143,0.24456
1978.89269,0.24470
1976.96394,0.24481
1975.03519,0.24494
1973.10645,0.24501
1971.17770,0.24480
1969.24896,0.24422
1967.32021,0.24328
1965.39147,0.24168
1963.46272,0.23936
1961.53398,0.23744
1959.60523,0.23724
1957.67649,0.23848
1955.74774,0.23987
1953.81900,0.24079
1951.89025,0.24132
1949.96151,0.24159
1948.03276,0.24172
1946.10402,0.24183
1944.17527,0.24188
1942.24652,0.24179
1940.31778,0.24165
1938.38903,0.24149
1936.46029,0.24127
1934.53154,0.24098
1932.60280,0.24064
1930.67405,0.24003
1928.74531,0.23914
1926.81656,0.23840
1924.88782,0.23785
1922.95907,0.23722
1921.03033,0.23662
1919.10158,0.23620
1917.17284,0.23574
1915.24409,0.23516
1913.31534,0.23471
1911.38660,0.23440
1909.45785,0.23417
1907.52911,0.23399
1905.60036,0.23365
1903.67162,0.23316
1901.74287,0.23253
1899.81413,0.23157
1897.88538,0.23027
1895.95664,0.22893
1894.02789,0.22792
1892.09915,0.22763
1890.17040,0.22832
1888.24166,0.22980
1886.31291,0.23133
1884.38417,0.23229
1882.45542,0.23279
1880.52667,0.23320
1878.59793,0.23354
1876.66918,0.23364
1874.74044,0.23353
1872.81169,0.23332
1870.88295,0.23305
1868.95420,0.23267
1867.02546,0.23216
1865.09671,0.23142
1863.16797,0.23045
1861.23922,0.22951
1859.31048,0.22867
1857.38173,0.22771
1855.45299,0.22669
1853.52424,0.22590
1851.59549,0.22536
1849.66675,0.22475
1847.73800,0.22400
1845.80926,0.22326
1843.88051,0.22233
1841.95177,0.22091
1840.02302,0.21919
1838.09428,0.21742
1836.16553,0.21571
1834.23679,0.21417
1832.30804,0.21291
1830.37930,0.21197
1828.45055,0.21129
1826.52181,0.21069
1824.59306,0.20995
1822.66432,0.20888
1820.73557,0.20738
1818.80682,0.20529
1816.87808,0.20254
1814.94933,0.19908
1813.02059,0.19466
1811.09184,0.18855
1809.16310,0.17966
1807.23435,0.16671
1805.30561,0.14848
1803.37686,0.12525
1801.44812,0.10070
1799.51937,0.08162
1797.59063,0.07184
1795.66188,0.06879
1793.73314,0.06994
1791.80439,0.07779
1789.87565,0.09404
1787.94690,0.11438
1786.01815,0.13399
1784.08941,0.15006
1782.16066,0.16189
1780.23192,0.17014
1778.30317,0.17562
1776.37443,0.17919
1774.44568,0.18142
1772.51694,0.18248
1770.58819,0.18238
1768.65945,0.18122
1766.73070,0.17935
1764.80196,0.17739
1762.87321,0.17532
1760.94447,0.17270
1759.01572,0.16992
1757.08697,0.16731
1755.15823,0.16482
1753.22948,0.16244
1751.30074,0.15989
1749.37199,0.15701
1747.44325,0.15385
1745.51450,0.15059
1743.58576,0.14736
1741.65701,0.14350
1739.72827,0.13835
1737.79952,0.13437
1735.87078,0.13499
1733.94203,0.13952
1732.01329,0.14206
1730.08454,0.14132
1728.15580,0.14253
1726.22705,0.14804
1724.29830,0.15460
1722.36956,0.15898
1720.44081,0.16127
1718.51207,0.16256
1716.58332,0.16329
1714.65458,0.16372
1712.72583,0.16417
1710.79709,0.16459
1708.86834,0.16483
1706.93960,0.16500
1705.01085,0.16517
1703.08211,0.16536
1701.15336,0.16551
1699.22462,0.16548
1697.29587,0.16535
1695.36713,0.16521
1693.43838,0.16510
1691.50963,0.16509
1689.58089,0.16516
1687.65214,0.16534
1685.72340,0.16562
1683.79465,0.16567
1681.86591,0.16536
1679.93716,0.16514
1678.00842,0.16523
1676.07967,0.16551
1674.15093,0.16584
1672.22218,0.16617
1670.29344,0.16643
1668.36469,0.16638
1666.43595,0.16604
1664.50720,0.16550
1662.57845,0.16455
1660.64971,0.16309
1658.72096,0.16138
1656.79222,0.15961
1654.86347,0.15745
1652.93473,0.15406
1651.00598,0.15023
1649.07724,0.14667
1647.14849,0.14183
1645.21975,0.13516
1643.29100,0.12817
1641.36226,0.12227
1639.43351,0.11950
1637.50477,0.12168
1635.57602,0.12830
1633.64728,0.13542
1631.71853,0.14030
1629.78978,0.14358
1627.86104,0.14581
1625.93229,0.14730
1624.00355,0.14840
1622.07480,0.14908
1620.14606,0.14945
1618.21731,0.14979
1616.28857,0.14998
1614.35982,0.14986
1612.43108,0.14975
1610.50233,0.14986
1608.57359,0.15017
1606.64484,0.15044
1604.71610,0.15056
1602.78735,0.15062
1600.85861,0.15060
1598.92986,0.15016
1597.00111,0.14907
1595.07237,0.14742
1593.14362,0.14522
1591.21488,0.14248
1589.28613,0.13983
1587.35739,0.13815
1585.42864,0.13773
1583.49990,0.13822
1581.57115,0.13915
1579.64241,0.14045
1577.71366,0.14242
1575.78492,0.14483
1573.85617,0.14660
1571.92743,0.14743
1569.99868,0.14752
1568.06993,0.14700
1566.14119,0.14612
1564.21244,0.14523
1562.28370,0.14447
1560.35495,0.14336
1558.42621,0.14157
1556.49746,0.14045
1554.56872,0.14058
1552.63997,0.14127
1550.71123,0.14160
1548.78248,0.14101
1546.85374,0.13966
1544.92499,0.13796
1542.99625,0.13617
1541.06750,0.13418
1539.13876,0.13169
1537.21001,0.12925
1535.28126,0.12725
1533.35252,0.12521
1531.42377,0.12285
1529.49503,0.12037
1527.56628,0.11777
1525.63754,0.11520
1523.70879,0.11283
1521.78005,0.11011
1519.85130,0.10695
1517.92256,0.10392
1515.99381,0.10097
1514.06507,0.09808
1512.13632,0.09548
1510.20758,0.09316
1508.27883,0.09066
1506.35008,0.08741
1504.42134,0.08427
1502.49259,0.08188
1500.56385,0.07966
1498.63510,0.07714
1496.70636,0.07418
1494.77761,0.07135
1492.84887,0.06896
1490.92012,0.06643
1488.99138,0.06356
1487.06263,0.06088
1485.13389,0.05865
1483.20514,0.05670
1481.27640,0.05471
1479.34765,0.05259
1477.41891,0.05053
1475.49016,0.04866
1473.56141,0.04684
1471.63267,0.04484
1469.70392,0.04298
1467.77518,0.04154
1465.84643,0.04048
1463.91769,0.03988
1461.98894,0.03971
1460.06020,0.03970
1458.13145,0.03979
1456.20271,0.04015
1454.27396,0.04072
1452.34522,0.04123
1450.41647,0.04170
1448.48773,0.04237
1446.55898,0.04327
1444.63024,0.04407
1442.70149,0.04455
1440.77274,0.04482
1438.84400,0.04515
1436.91525,0.04575
1434.98651,0.04665
1433.05776,0.04761
1431.12902,0.04844
1429.20027,0.04930
1427.27153,0.05025
1425.34278,0.05119
1423.41404,0.05217
1421.48529,0.05338
1419.55655,0.05493
1417.62780,0.05663
1415.69906,0.05820
1413.77031,0.05953
1411.84156,0.06048
1409.91282,0.06091
1407.98407,0.06081
1406.05533,0.06009
1404.12658,0.05881
1402.19784,0.05753
1400.26909,0.05688
1398.34035,0.05702
1396.41160,0.05754
1394.48286,0.05793
1392.55411,0.05810
1390.62537,0.05819
1388.69662,0.05807
1386.76788,0.05716
1384.83913,0.05466
1382.91039,0.05042
1380.98164,0.04567
1379.05289,0.04248
1377.12415,0.04211
1375.19540,0.04436
1373.26666,0.04813
1371.33791,0.05261
1369.40917,0.05744
1367.48042,0.06177
1365.55168,0.06454
1363.62293,0.06529
1361.69419,0.06449
1359.76544,0.06366
1357.83670,0.06472
1355.90795,0.06847
1353.97921,0.07413
1352.05046,0.08019
1350.12172,0.08581
1348.19297,0.09087
1346.26422,0.09540
1344.33548,0.09938
1342.40673,0.10281
1340.47799,0.10561
1338.54924,0.10757
1336.62050,0.10852
1334.69175,0.10839
1332.76301,0.10714
1330.83426,0.10563
1328.90552,0.10548
1326.97677,0.10733
1325.04803,0.11055
1323.11928,0.11427
1321.19054,0.11765
1319.26179,0.12030
1317.33304,0.12255
1315.40430,0.12476
1313.47555,0.12658
1311.54681,0.12702
1309.61806,0.12466
1307.68932,0.11849
1305.76057,0.11129
1303.83183,0.10916
1301.90308,0.11378
1299.97434,0.12020
1298.04559,0.12445
1296.11685,0.12754
1294.18810,0.13169
1292.25936,0.13700
1290.33061,0.14231
1288.40187,0.14671
1286.47312,0.15000
1284.54437,0.15262
1282.61563,0.15505
1280.68688,0.15744
1278.75814,0.15993
1276.82939,0.16245
1274.90065,0.16426
1272.97190,0.16458
1271.04316,0.16329
1269.11441,0.16096
1267.18567,0.15857
1265.25692,0.15648
1263.32818,0.15365
1261.39943,0.14835
1259.47069,0.13971
1257.54194,0.12991
1255.61320,0.12513
1253.68445,0.12992
1251.75570,0.14085
1249.82696,0.15102
1247.89821,0.15780
1245.96947,0.16210
1244.04072,0.16482
1242.11198,0.16653
1240.18323,0.16800
1238.25449,0.16981
1236.32574,0.17182
1234.39700,0.17326
1232.46825,0.17363
1230.53951,0.17316
1228.61076,0.17218
1226.68202,0.17044
1224.75327,0.16746
1222.82452,0.16351
1220.89578,0.16008
1218.96703,0.15912
1217.03829,0.16113
1215.10954,0.16503
1213.18080,0.16932
1211.25205,0.17269
1209.32331,0.17461
1207.39456,0.17547
1205.46582,0.17569
1203.53707,0.17517
1201.60833,0.17380
1199.67958,0.17207
1197.75084,0.17047
1195.82209,0.16906
1193.89335,0.16774
1191.96460,0.16622
1190.03585,0.16411
1188.10711,0.16122
1186.17836,0.15720
1184.24962,0.15156
1182.32087,0.14478
1180.39213,0.13763
1178.46338,0.12941
1176.53464,0.11850
1174.60589,0.10428
1172.67715,0.08803
1170.74840,0.07300
1168.81966,0.06297
1166.89091,0.06011
1164.96217,0.06373
1163.03342,0.07095
1161.10467,0.07895
1159.17593,0.08607
1157.24718,0.09174
1155.31844,0.09612
1153.38969,0.10025
1151.46095,0.10592
1149.53220,0.11455
1147.60346,0.12586
1145.67471,0.13849
1143.74597,0.15129
1141.81722,0.16375
1139.88848,0.17559
1137.95973,0.18638
1136.03099,0.19556
1134.10224,0.20265
1132.17350,0.20748
1130.24475,0.21056
1128.31600,0.21245
1126.38726,0.21330
1124.45851,0.21338
1122.52977,0.21275
1120.60102,0.21076
1118.67228,0.20743
1116.74353,0.20372
1114.81479,0.20000
1112.88604,0.19594
1110.95730,0.19110
1109.02855,0.18446
1107.09981,0.17515
1105.17106,0.16494
1103.24232,0.15855
1101.31357,0.15988
1099.38483,0.16811
1097.45608,0.17899
1095.52733,0.18899
1093.59859,0.19685
1091.66984,0.20241
1089.74110,0.20571
1087.81235,0.20731
1085.88361,0.20831
1083.95486,0.20970
1082.02612,0.21215
1080.09737,0.21512
1078.16863,0.21700
1076.23988,0.21723
1074.31114,0.21637
1072.38239,0.21517
1070.45365,0.21420
1068.52490,0.21353
1066.59615,0.21303
1064.66741,0.21259
1062.73866,0.21196
1060.80992,0.21087
1058.88117,0.20940
1056.95243,0.20759
1055.02368,0.20519
1053.09494,0.20175
1051.16619,0.19652
1049.23745,0.18881
1047.30870,0.17925
1045.37996,0.17128
1043.45121,0.16977
1041.52247,0.17530
1039.59372,0.18273
1037.66498,0.18755
1035.73623,0.18977
1033.80748,0.19094
1031.87874,0.19153
1029.94999,0.19120
1028.02125,0.18988
1026.09250,0.18812
1024.16376,0.18624
1022.23501,0.18414
1020.30627,0.18148
1018.37752,0.17795
1016.44878,0.17369
1014.52003,0.16886
1012.59129,0.16312
1010.66254,0.15601
1008.73380,0.14709
1006.80505,0.13545
1004.87631,0.12002
1002.94756,0.10105
1001.01881,0.08170
999.09007,0.06801
997.16132,0.06569
995.23258,0.07576
993.30383,0.09379
991.37509,0.11332
989.44634,0.12943
987.51760,0.13953
985.58885,0.14263
983.66011,0.13843
981.73136,0.12706
979.80262,0.10969
977.87387,0.08972
975.94513,0.07219
974.01638,0.06183
972.08763,0.06238
970.15889,0.07540
968.23014,0.09767
966.30140,0.12213
964.37265,0.14282
962.44391,0.15823
960.51516,0.16967
958.58642,0.17849
956.65767,0.18525
954.72893,0.19017
952.80018,0.19352
950.87144,0.19565
948.94269,0.19659
947.01395,0.19574
945.08520,0.19228
943.15646,0.18646
941.22771,0.18152
939.29896,0.18246
937.37022,0.19053
935.44147,0.20136
933.51273,0.21030
931.58398,0.21655
929.65524,0.22133
927.72649,0.22511
925.79775,0.22770
923.86900,0.22917
921.94026,0.23000
920.01151,0.23053
918.08277,0.23029
916.15402,0.22860
914.22528,0.22578
912.29653,0.22242
910.36779,0.21825
908.43904,0.21190
906.51029,0.20081
904.58155,0.18279
902.65280,0.16010
900.72406,0.14132
898.79531,0.13613
896.86657,0.14668
894.93782,0.16525
893.00908,0.18143
891.08033,0.18855
889.15159,0.18106
887.22284,0.15509
885.29410,0.11801
883.36535,0.08564
881.43661,0.06530
879.50786,0.05346
877.57911,0.04718
875.65037,0.04667
873.72162,0.05179
871.79288,0.06284
869.86413,0.08065
867.93539,0.10329
866.00664,0.12600
864.07790,0.14469
862.14915,0.15798
860.22041,0.16651
858.29166,0.17125
856.36292,0.17254
854.43417,0.16997
852.50543,0.16082
850.57668,0.14233
848.64794,0.12216
846.71919,0.11072
844.79044,0.10118
842.86170,0.08598
840.93295,0.07841
839.00421,0.09174
837.07546,0.11817
835.14672,0.14246
833.21797,0.15894
831.28923,0.16967
829.36048,0.17749
827.43174,0.18376
825.50299,0.18815
823.57425,0.19030
821.64550,0.19053
819.71676,0.18842
817.78801,0.18287
815.85926,0.17279
813.93052,0.15792
812.00177,0.14115
810.07303,0.12885
808.14428,0.12694
806.21554,0.13642
804.28679,0.15225
802.35805,0.16734
800.42930,0.17844
798.50056,0.18622
796.57181,0.19198
794.64307,0.19694
792.71432,0.20180
790.78558,0.20624
788.85683,0.21033
786.92809,0.21448
784.99934,0.21842
783.07059,0.22172
781.14185,0.22441
779.21310,0.22673
777.28436,0.22880
775.35561,0.23049
773.42687,0.23188
771.49812,0.23327
769.56938,0.23493
767.64063,0.23691
765.71189,0.23895
763.78314,0.24076
761.85440,0.24237
759.92565,0.24397
757.99691,0.24546
756.06816,0.24639
754.13942,0.24649
752.21067,0.24587
750.28192,0.24489
748.35318,0.24388
746.42443,0.24276
744.49569,0.24124
742.56694,0.23955
740.63820,0.23804
738.70945,0.23640
736.78071,0.23395
734.85196,0.23063
732.92322,0.22662
730.99447,0.22178
729.06573,0.21611
727.13698,0.20909
725.20824,0.19940
723.27949,0.18579
721.35074,0.16697
719.42200,0.14159
717.49325,0.10990
715.56451,0.07822
713.63576,0.05946
711.70702,0.06432
709.77827,0.09121
707.84953,0.12770
705.92078,0.16153
703.99204,0.18728
702.06329,0.20452
700.13455,0.21535
698.20580,0.22264
696.27706,0.22798
694.34831,0.23216
692.41957,0.23623
690.49082,0.23991
688.56207,0.24190
686.63333,0.24249
684.70458,0.24279
682.77584,0.24297
680.84709,0.24303
678.91835,0.24333
676.98960,0.24375
675.06086,0.24384
673.13211,0.24387
671.20337,0.24425
669.27462,0.24446
667.34588,0.24395
665.41713,0.24327
663.48839,0.24310
661.55964,0.24348
659.63090,0.24369
657.70215,0.24273
655.77340,0.24103
653.84466,0.23951
651.91591,0.23828
649.98717,0.23765
648.05842,0.23752
646.12968,0.23730
644.20093,0.23680
642.27219,0.23600
640.34344,0.23483
638.41470,0.23313
636.48595,0.23106
634.55721,0.22927
632.62846,0.22796
630.69972,0.22702
628.77097,0.22644
626.84222,0.22599
624.91348,0.22566
622.98473,0.22536
621.05599,0.22442
619.12724,0.22234
617.19850,0.21993
615.26975,0.21890
613.34101,0.21958
611.41226,0.21980
609.48352,0.21769
607.55477,0.21430
605.62603,0.21149
603.69728,0.21006
601.76854,0.20990
599.83979,0.20872
