7497.03301,0.31248
7495.10426,0.30854
7493.17552,0.30585
7491.24677,0.30781
7489.31803,0.31247
7487.38928,0.31314
7485.46054,0.31104
7483.53179,0.31318
7481.60305,0.31671
7479.67430,0.31544
7477.74556,0.31305
7475.81681,0.31294
7473.88807,0.31217
7471.95932,0.31073
7470.03057,0.31135
7468.10183,0.31342
7466.17308,0.31543
7464.24434,0.31699
7462.31559,0.31702
7460.38685,0.31555
7458.45810,0.31447
7456.52936,0.31411
7454.60061,0.31268
7452.67187,0.31121
7450.74312,0.31312
7448.81438,0.31676
7446.88563,0.31666
7444.95689,0.31266
7443.02814,0.31084
7441.09940,0.31369
7439.17065,0.31729
7437.24190,0.31838
7435.31316,0.31685
7433.38441,0.31607
7431.45567,0.31776
7429.52692,0.31709
7427.59818,0.31194
7425.66943,0.30866
7423.74069,0.31195
7421.81194,0.31783
7419.88320,0.32123
7417.95445,0.32144
7416.02571,0.31783
7414.09696,0.31277
7412.16822,0.31147
7410.23947,0.31515
7408.31073,0.32170
7406.38198,0.32661
7404.45323,0.32585
7402.52449,0.32130
7400.59574,0.31686
7398.66700,0.31487
7396.73825,0.31565
7394.80951,0.31698
7392.88076,0.31892
7390.95202,0.32271
7389.02327,0.32394
7387.09453,0.31918
7385.16578,0.31373
7383.23704,0.31301
7381.30829,0.31435
7379.37955,0.31405
7377.45080,0.31428
7375.52205,0.31709
7373.59331,0.31747
7371.66456,0.31095
7369.73582,0.30480
7367.80707,0.30821
7365.87833,0.31610
7363.94958,0.31889
7362.02084,0.31758
7360.09209,0.31607
7358.16335,0.31380
7356.23460,0.31225
7354.30586,0.31447
7352.37711,0.31779
7350.44837,0.31782
7348.51962,0.31482
7346.59088,0.31113
7344.66213,0.30976
7342.73338,0.31153
7340.80464,0.31190
7338.87589,0.31006
7336.94715,0.31094
7335.01840,0.31261
7333.08966,0.31086
7331.16091,0.30893
7329.23217,0.30986
7327.30342,0.31221
7325.37468,0.31419
7323.44593,0.31561
7321.51719,0.31721
7319.58844,0.31797
7317.65970,0.31756
7315.73095,0.31871
7313.80221,0.32108
7311.87346,0.32179
7309.94471,0.32102
7308.01597,0.31819
7306.08722,0.31304
7304.15848,0.30981
7302.22973,0.31105
7300.30099,0.31440
7298.37224,0.31543
7296.44350,0.31129
7294.51475,0.30555
7292.58601,0.30497
7290.65726,0.31050
7288.72852,0.31674
7286.79977,0.31897
7284.87103,0.31774
7282.94228,0.31597
7281.01353,0.31460
7279.08479,0.31405
7277.15604,0.31425
7275.22730,0.31350
7273.29855,0.31088
7271.36981,0.30649
7269.44106,0.30256
7267.51232,0.30316
7265.58357,0.30822
7263.65483,0.31281
7261.72608,0.31339
7259.79734,0.31221
7257.86859,0.31274
7255.93985,0.31349
7254.01110,0.31175
7252.08236,0.30886
7250.15361,0.30795
7248.22486,0.30956
7246.29612,0.30981
7244.36737,0.30591
7242.43863,0.30193
7240.50988,0.30138
7238.58114,0.30213
7236.65239,0.30248
7234.72365,0.30277
7232.79490,0.30505
7230.86616,0.31059
7228.93741,0.31576
7227.00867,0.31630
7225.07992,0.31398
7223.15118,0.31296
7221.22243,0.31252
7219.29369,0.30990
7217.36494,0.30606
7215.43619,0.30480
7213.50745,0.30801
7211.57870,0.31137
7209.64996,0.31070
7207.72121,0.31010
7205.79247,0.31368
7203.86372,0.31654
7201.93498,0.31413
7200.00623,0.31008
7198.07749,0.30757
7196.14874,0.30623
7194.22000,0.30619
7192.29125,0.30729
7190.36251,0.30972
7188.43376,0.31264
7186.50501,0.31238
7184.57627,0.30842
7182.64752,0.30527
7180.71878,0.30560
7178.79003,0.30791
7176.86129,0.31118
7174.93254,0.31427
7173.00380,0.31409
7171.07505,0.31126
7169.14631,0.30930
7167.21756,0.30678
7165.28882,0.30321
7163.36007,0.30359
7161.43133,0.30767
7159.50258,0.30984
7157.57384,0.30851
7155.64509,0.30657
7153.71634,0.30781
7151.78760,0.31098
7149.85885,0.31197
7147.93011,0.31081
7146.00136,0.30834
7144.07262,0.30596
7142.14387,0.30598
7140.21513,0.30647
7138.28638,0.30521
7136.35764,0.30521
7134.42889,0.30928
7132.50015,0.31285
7130.57140,0.31113
7128.64266,0.30922
7126.71391,0.31114
7124.78516,0.31186
7122.85642,0.31050
7120.92767,0.31087
7118.99893,0.31110
7117.07018,0.30868
7115.14144,0.30638
7113.21269,0.30822
7111.28395,0.31299
7109.35520,0.31418
7107.42646,0.31065
7105.49771,0.30839
7103.56897,0.30994
7101.64022,0.31285
7099.71148,0.31494
7097.78273,0.31592
7095.85399,0.31582
7093.92524,0.31385
7091.99649,0.31140
7090.06775,0.31051
7088.13900,0.30898
7086.21026,0.30690
7084.28151,0.30736
7082.35277,0.30873
7080.42402,0.30836
7078.49528,0.30650
7076.56653,0.30432
7074.63779,0.30435
7072.70904,0.30837
7070.78030,0.31313
7068.85155,0.31361
7066.92281,0.31076
7064.99406,0.30834
7063.06532,0.30795
7061.13657,0.31035
7059.20782,0.31333
7057.27908,0.31393
7055.35033,0.31299
7053.42159,0.31187
7051.49284,0.31035
7049.56410,0.30947
7047.63535,0.31041
7045.70661,0.31123
7043.77786,0.31056
7041.84912,0.31097
7039.92037,0.31388
7037.99163,0.31624
7036.06288,0.31572
7034.13414,0.31441
7032.20539,0.31547
7030.27664,0.31787
7028.34790,0.31761
7026.41915,0.31525
7024.49041,0.31494
7022.56166,0.31580
7020.63292,0.31426
7018.70417,0.31100
7016.77543,0.30900
7014.84668,0.30915
7012.91794,0.31014
7010.98919,0.30995
7009.06045,0.30796
7007.13170,0.30618
7005.20296,0.30588
7003.27421,0.30559
7001.34547,0.30441
6999.41672,0.30372
6997.48797,0.30429
6995.55923,0.30597
6993.63048,0.30944
6991.70174,0.31307
6989.77299,0.31356
6987.84425,0.31066
6985.91550,0.30627
6983.98676,0.30260
6982.05801,0.30309
6980.12927,0.30890
6978.20052,0.31430
6976.27178,0.31468
6974.34303,0.31335
6972.41429,0.31312
6970.48554,0.31350
6968.55680,0.31452
6966.62805,0.31522
6964.69930,0.31353
6962.77056,0.30919
6960.84181,0.30500
6958.91307,0.30383
6956.98432,0.30514
6955.05558,0.30742
6953.12683,0.31022
6951.19809,0.31153
6949.26934,0.30912
6947.34060,0.30528
6945.41185,0.30436
6943.48311,0.30652
6941.55436,0.30940
6939.62562,0.31195
6937.69687,0.31372
6935.76812,0.31402
6933.83938,0.31261
6931.91063,0.31185
6929.98189,0.31397
6928.05314,0.31561
6926.12440,0.31311
6924.19565,0.30949
6922.26691,0.30806
6920.33816,0.30856
6918.40942,0.30942
6916.48067,0.30828
6914.55193,0.30630
6912.62318,0.30623
6910.69444,0.30753
6908.76569,0.30984
6906.83695,0.31222
6904.90820,0.31325
6902.97945,0.31265
6901.05071,0.30952
6899.12196,0.30622
6897.19322,0.30623
6895.26447,0.30784
6893.33573,0.30845
6891.40698,0.30913
6889.47824,0.31075
6887.54949,0.31153
6885.62075,0.31134
6883.69200,0.31144
6881.76326,0.31053
6879.83451,0.30851
6877.90577,0.30836
6875.97702,0.31047
6874.04828,0.31221
6872.11953,0.31256
6870.19078,0.31204
6868.26204,0.31135
6866.33329,0.31188
6864.40455,0.31371
6862.47580,0.31399
6860.54706,0.31123
6858.61831,0.30918
6856.68957,0.31092
6854.76082,0.31383
6852.83208,0.31511
6850.90333,0.31430
6848.97459,0.31146
6847.04584,0.30939
6845.11710,0.31043
6843.18835,0.31325
6841.25960,0.31651
6839.33086,0.31810
6837.40211,0.31613
6835.47337,0.31248
6833.54462,0.30961
6831.61588,0.30909
6829.68713,0.31106
6827.75839,0.31288
6825.82964,0.31239
6823.90090,0.31097
6821.97215,0.31101
6820.04341,0.31143
6818.11466,0.30997
6816.18592,0.30901
6814.25717,0.31128
6812.32843,0.31365
6810.39968,0.31322
6808.47093,0.31230
6806.54219,0.31272
6804.61344,0.31325
6802.68470,0.31339
6800.75595,0.31405
6798.82721,0.31451
6796.89846,0.31393
6794.96972,0.31341
6793.04097,0.31239
6791.11223,0.31024
6789.18348,0.30936
6787.25474,0.31095
6785.32599,0.31321
6783.39725,0.31391
6781.46850,0.31280
6779.53975,0.31159
6777.61101,0.31148
6775.68226,0.31293
6773.75352,0.31530
6771.82477,0.31661
6769.89603,0.31592
6767.96728,0.31367
6766.03854,0.31149
6764.10979,0.31064
6762.18105,0.30953
6760.25230,0.30711
6758.32356,0.30663
6756.39481,0.30992
6754.46607,0.31327
6752.53732,0.31442
6750.60858,0.31479
6748.67983,0.31479
6746.75108,0.31385
6744.82234,0.31280
6742.89359,0.31291
6740.96485,0.31246
6739.03610,0.30978
6737.10736,0.30852
6735.17861,0.31057
6733.24987,0.31124
6731.32112,0.30929
6729.39238,0.30845
6727.46363,0.30892
6725.53489,0.31027
6723.60614,0.31324
6721.67740,0.31468
6719.74865,0.31253
6717.81991,0.31025
6715.89116,0.30983
6713.96241,0.31004
6712.03367,0.31147
6710.10492,0.31351
6708.17618,0.31419
6706.24743,0.31467
6704.31869,0.31562
6702.38994,0.31563
6700.46120,0.31363
6698.53245,0.31037
6696.60371,0.30880
6694.67496,0.30945
6692.74622,0.30991
6690.81747,0.31052
6688.88873,0.31252
6686.95998,0.31395
6685.03123,0.31409
6683.10249,0.31351
6681.17374,0.31162
6679.24500,0.30966
6677.31625,0.30814
6675.38751,0.30580
6673.45876,0.30457
6671.53002,0.30663
6669.60127,0.30983
6667.67253,0.31197
6665.74378,0.31332
6663.81504,0.31395
6661.88629,0.31427
6659.95755,0.31470
6658.02880,0.31438
6656.10006,0.31365
6654.17131,0.31351
6652.24256,0.31295
6650.31382,0.31178
6648.38507,0.31177
6646.45633,0.31187
6644.52758,0.31059
6642.59884,0.31001
6640.67009,0.31087
6638.74135,0.31203
6636.81260,0.31369
6634.88386,0.31565
6632.95511,0.31664
6631.02637,0.31606
6629.09762,0.31368
6627.16888,0.30977
6625.24013,0.30680
6623.31139,0.30746
6621.38264,0.31099
6619.45389,0.31321
6617.52515,0.31207
6615.59640,0.31130
6613.66766,0.31317
6611.73891,0.31473
6609.81017,0.31402
6607.88142,0.31235
6605.95268,0.31104
6604.02393,0.31017
6602.09519,0.31008
6600.16644,0.31101
6598.23770,0.31182
6596.30895,0.31193
6594.38021,0.31170
6592.45146,0.31092
6590.52271,0.30928
6588.59397,0.30748
6586.66522,0.30718
6584.73648,0.30881
6582.80773,0.31012
6580.87899,0.31019
6578.95024,0.31022
6577.02150,0.30968
6575.09275,0.30909
6573.16401,0.31033
6571.23526,0.31145
6569.30652,0.31113
6567.37777,0.31171
6565.44903,0.31348
6563.52028,0.31367
6561.59154,0.31120
6559.66279,0.30948
6557.73404,0.31019
6555.80530,0.31036
6553.87655,0.30977
6551.94781,0.31065
6550.01906,0.31239
6548.09032,0.31255
6546.16157,0.31074
6544.23283,0.30942
6542.30408,0.31035
6540.37534,0.31267
6538.44659,0.31349
6536.51785,0.31151
6534.58910,0.30939
6532.66036,0.30916
6530.73161,0.30954
6528.80287,0.30950
6526.87412,0.31058
6524.94537,0.31291
6523.01663,0.31399
6521.08788,0.31362
6519.15914,0.31320
6517.23039,0.31257
6515.30165,0.31203
6513.37290,0.31305
6511.44416,0.31532
6509.51541,0.31649
6507.58667,0.31549
6505.65792,0.31399
6503.72918,0.31386
6501.80043,0.31467
6499.87169,0.31455
6497.94294,0.31306
6496.01419,0.31196
6494.08545,0.31264
6492.15670,0.31352
6490.22796,0.31325
6488.29921,0.31331
6486.37047,0.31301
6484.44172,0.31000
6482.51298,0.30697
6480.58423,0.30726
6478.65549,0.30919
6476.72674,0.31076
6474.79800,0.31181
6472.86925,0.31273
6470.94051,0.31412
6469.01176,0.31543
6467.08302,0.31563
6465.15427,0.31469
6463.22552,0.31405
6461.29678,0.31467
6459.36803,0.31502
6457.43929,0.31402
6455.51054,0.31257
6453.58180,0.31164
6451.65305,0.31213
6449.72431,0.31414
6447.79556,0.31554
6445.86682,0.31489
6443.93807,0.31344
6442.00933,0.31241
6440.08058,0.31243
6438.15184,0.31359
6436.22309,0.31476
6434.29434,0.31482
6432.36560,0.31368
6430.43685,0.31246
6428.50811,0.31253
6426.57936,0.31388
6424.65062,0.31474
6422.72187,0.31341
6420.79313,0.31067
6418.86438,0.30911
6416.93564,0.30970
6415.00689,0.31092
6413.07815,0.31187
6411.14940,0.31205
6409.22066,0.31063
6407.29191,0.30879
6405.36317,0.30861
6403.43442,0.31017
6401.50567,0.31105
6399.57693,0.30927
6397.64818,0.30715
6395.71944,0.30683
6393.79069,0.30695
6391.86195,0.30748
6389.93320,0.30992
6388.00446,0.31252
6386.07571,0.31239
6384.14697,0.31071
6382.21822,0.30999
6380.28948,0.31028
6378.36073,0.31080
6376.43199,0.31038
6374.50324,0.30842
6372.57450,0.30731
6370.64575,0.30852
6368.71700,0.30935
6366.78826,0.30885
6364.85951,0.30962
6362.93077,0.31139
6361.00202,0.31194
6359.07328,0.31181
6357.14453,0.31148
6355.21579,0.31042
6353.28704,0.30978
6351.35830,0.31028
6349.42955,0.31143
6347.50081,0.31199
6345.57206,0.31070
6343.64332,0.30966
6341.71457,0.31077
6339.78582,0.31238
6337.85708,0.31347
6335.92833,0.31367
6333.99959,0.31334
6332.07084,0.31420
6330.14210,0.31504
6328.21335,0.31391
6326.28461,0.31178
6324.35586,0.30947
6322.42712,0.30721
6320.49837,0.30628
6318.56963,0.30756
6316.64088,0.30934
6314.71214,0.30920
6312.78339,0.30841
6310.85465,0.30983
6308.92590,0.31179
6306.99715,0.31104
6305.06841,0.30904
6303.13966,0.30860
6301.21092,0.30921
6299.28217,0.30983
6297.35343,0.31030
6295.42468,0.30994
6293.49594,0.30868
6291.56719,0.30783
6289.63845,0.30774
6287.70970,0.30802
6285.78096,0.30914
6283.85221,0.31016
6281.92347,0.30998
6279.99472,0.31016
6278.06598,0.31097
6276.13723,0.31084
6274.20848,0.30974
6272.27974,0.30906
6270.35099,0.30942
6268.42225,0.30965
6266.49350,0.30939
6264.56476,0.30978
6262.63601,0.31094
6260.70727,0.31214
6258.77852,0.31264
6256.84978,0.31278
6254.92103,0.31383
6252.99229,0.31484
6251.06354,0.31429
6249.13480,0.31251
6247.20605,0.31039
6245.27730,0.30864
6243.34856,0.30715
6241.41981,0.30586
6239.49107,0.30508
6237.56232,0.30473
6235.63358,0.30612
6233.70483,0.30951
6231.77609,0.31207
6229.84734,0.31190
6227.91860,0.30964
6225.98985,0.30736
6224.06111,0.30723
6222.13236,0.30882
6220.20362,0.30969
6218.27487,0.30885
6216.34613,0.30756
6214.41738,0.30700
6212.48863,0.30788
6210.55989,0.31029
6208.63114,0.31150
6206.70240,0.30904
6204.77365,0.30608
6202.84491,0.30691
6200.91616,0.30983
6198.98742,0.31120
6197.05867,0.31108
6195.12993,0.31018
6193.20118,0.30811
6191.27244,0.30663
6189.34369,0.30764
6187.41495,0.30913
6185.48620,0.30912
6183.55746,0.30855
6181.62871,0.30822
6179.69996,0.30814
6177.77122,0.30797
6175.84247,0.30744
6173.91373,0.30676
6171.98498,0.30611
6170.05624,0.30619
6168.12749,0.30714
6166.19875,0.30782
6164.27000,0.30838
6162.34126,0.30938
6160.41251,0.30968
6158.48377,0.30920
6156.55502,0.30901
6154.62628,0.30820
6152.69753,0.30652
6150.76878,0.30597
6148.84004,0.30677
6146.91129,0.30718
6144.98255,0.30690
6143.05380,0.30661
6141.12506,0.30632
6139.19631,0.30610
6137.26757,0.30569
6135.33882,0.30466
6133.41008,0.30416
6131.48133,0.30510
6129.55259,0.30639
6127.62384,0.30683
6125.69510,0.30673
6123.76635,0.30710
6121.83761,0.30838
6119.90886,0.30923
6117.98011,0.30827
6116.05137,0.30725
6114.12262,0.30716
6112.19388,0.30631
6110.26513,0.30529
6108.33639,0.30530
6106.40764,0.30561
6104.47890,0.30622
6102.55015,0.30679
6100.62141,0.30638
6098.69266,0.30571
6096.76392,0.30562
6094.83517,0.30544
6092.90643,0.30503
6090.97768,0.30494
6089.04893,0.30514
6087.12019,0.30566
6085.19144,0.30542
6083.26270,0.30385
6081.33395,0.30311
6079.40521,0.30380
6077.47646,0.30465
6075.54772,0.30585
6073.61897,0.30703
6071.69023,0.30693
6069.76148,0.30626
6067.83274,0.30604
6065.90399,0.30538
6063.97525,0.30463
6062.04650,0.30517
6060.11776,0.30596
6058.18901,0.30562
6056.26026,0.30477
6054.33152,0.30426
6052.40277,0.30388
6050.47403,0.30347
6048.54528,0.30382
6046.61654,0.30551
6044.68779,0.30777
6042.75905,0.30892
6040.83030,0.30843
6038.90156,0.30748
6036.97281,0.30681
6035.04407,0.30629
6033.11532,0.30657
6031.18658,0.30746
6029.25783,0.30741
6027.32909,0.30705
6025.40034,0.30744
6023.47159,0.30698
6021.54285,0.30519
6019.61410,0.30450
6017.68536,0.30568
6015.75661,0.30634
6013.82787,0.30544
6011.89912,0.30459
6009.97038,0.30466
6008.04163,0.30535
6006.11289,0.30634
6004.18414,0.30641
6002.25540,0.30512
6000.32665,0.30439
5998.39791,0.30473
5996.46916,0.30489
5994.54041,0.30446
5992.61167,0.30377
5990.68292,0.30390
5988.75418,0.30493
5986.82543,0.30507
5984.89669,0.30373
5982.96794,0.30188
5981.03920,0.30096
5979.11045,0.30226
5977.18171,0.30442
5975.25296,0.30449
5973.32422,0.30235
5971.39547,0.30057
5969.46673,0.30100
5967.53798,0.30260
5965.60924,0.30306
5963.68049,0.30259
5961.75174,0.30289
5959.82300,0.30386
5957.89425,0.30418
5955.96551,0.30338
5954.03676,0.30219
5952.10802,0.30135
5950.17927,0.30109
5948.25053,0.30075
5946.32178,0.30019
5944.39304,0.29999
5942.46429,0.29974
5940.53555,0.29929
5938.60680,0.29900
5936.67806,0.29855
5934.74931,0.29795
5932.82057,0.29764
5930.89182,0.29704
5928.96307,0.29544
5927.03433,0.29332
5925.10558,0.29109
5923.17684,0.28886
5921.24809,0.28670
5919.31935,0.28395
5917.39060,0.28053
5915.46186,0.27725
5913.53311,0.27467
5911.60437,0.27291
5909.67562,0.27195
5907.74688,0.27155
5905.81813,0.27168
5903.88939,0.27260
5901.96064,0.27345
5900.03189,0.27297
5898.10315,0.27164
5896.17440,0.27139
5894.24566,0.27292
5892.31691,0.27412
5890.38817,0.27329
5888.45942,0.27175
5886.53068,0.27102
5884.60193,0.27094
5882.67319,0.27105
5880.74444,0.27109
5878.81570,0.27053
5876.88695,0.26849
5874.95821,0.26529
5873.02946,0.26281
5871.10072,0.26139
5869.17197,0.25990
5867.24322,0.25861
5865.31448,0.25808
5863.38573,0.25795
5861.45699,0.25780
5859.52824,0.25713
5857.59950,0.25641
5855.67075,0.25713
5853.74201,0.25874
5851.81326,0.25936
5849.88452,0.25966
5847.95577,0.26081
5846.02703,0.26213
5844.09828,0.26323
5842.16954,0.26480
5840.24079,0.26592
5838.31205,0.26542
5836.38330,0.26502
5834.45455,0.26572
5832.52581,0.26595
5830.59706,0.26549
5828.66832,0.26526
5826.73957,0.26547
5824.81083,0.26615
5822.88208,0.26636
5820.95334,0.26487
5819.02459,0.26293
5817.09585,0.26257
5815.16710,0.26325
5813.23836,0.26295
5811.30961,0.26092
5809.38087,0.25827
5807.45212,0.25647
5805.52337,0.25549
5803.59463,0.25432
5801.66588,0.25360
5799.73714,0.25413
5797.80839,0.25465
5795.87965,0.25451
5793.95090,0.25444
5792.02216,0.25470
5790.09341,0.25549
5788.16467,0.25713
5786.23592,0.25904
5784.30718,0.25988
5782.37843,0.25940
5780.44969,0.25914
5778.52094,0.26033
5776.59220,0.26179
5774.66345,0.26205
5772.73470,0.26188
5770.80596,0.26135
5768.87721,0.25971
5766.94847,0.25827
5765.01972,0.25782
5763.09098,0.25758
5761.16223,0.25726
5759.23349,0.25682
5757.30474,0.25679
5755.37600,0.25740
5753.44725,0.25787
5751.51851,0.25878
5749.58976,0.26136
5747.66102,0.26455
5745.73227,0.26606
5743.80352,0.26610
5741.87478,0.26636
5739.94603,0.26720
5738.01729,0.26876
5736.08854,0.27074
5734.15980,0.27244
5732.23105,0.27406
5730.30231,0.27564
5728.37356,0.27667
5726.44482,0.27688
5724.51607,0.27646
5722.58733,0.27597
5720.65858,0.27571
5718.72984,0.27535
5716.80109,0.27492
5714.87235,0.27496
5712.94360,0.27564
5711.01485,0.27669
5709.08611,0.27755
5707.15736,0.27762
5705.22862,0.27708
5703.29987,0.27687
5701.37113,0.27770
5699.44238,0.27862
5697.51364,0.27826
5695.58489,0.27741
5693.65615,0.27732
5691.72740,0.27774
5689.79866,0.27832
5687.86991,0.27865
5685.94117,0.27796
5684.01242,0.27713
5682.08368,0.27790
5680.15493,0.27914
5678.22618,0.27830
5676.29744,0.27615
5674.36869,0.27547
5672.43995,0.27644
5670.51120,0.27754
5668.58246,0.27818
5666.65371,0.27799
5664.72497,0.27740
5662.79622,0.27735
5660.86748,0.27736
5658.93873,0.27693
5657.00999,0.27615
5655.08124,0.27526
5653.15250,0.27544
5651.22375,0.27645
5649.29500,0.27717
5647.36626,0.27796
5645.43751,0.27855
5643.50877,0.27850
5641.58002,0.27855
5639.65128,0.27919
5637.72253,0.28041
5635.79379,0.28152
5633.86504,0.28179
5631.93630,0.28139
5630.00755,0.28081
5628.07881,0.28045
5626.15006,0.28015
5624.22132,0.28001
5622.29257,0.28064
5620.36383,0.28171
5618.43508,0.28275
5616.50633,0.28355
5614.57759,0.28379
5612.64884,0.28366
5610.72010,0.28356
5608.79135,0.28360
5606.86261,0.28337
5604.93386,0.28299
5603.00512,0.28347
5601.07637,0.28447
5599.14763,0.28503
5597.21888,0.28525
5595.29014,0.28523
5593.36139,0.28494
5591.43265,0.28445
5589.50390,0.28349
5587.57516,0.28279
5585.64641,0.28356
5583.71766,0.28492
5581.78892,0.28539
5579.86017,0.28484
5577.93143,0.28387
5576.00268,0.28333
5574.07394,0.28369
5572.14519,0.28464
5570.21645,0.28554
5568.28770,0.28610
5566.35896,0.28633
5564.43021,0.28642
5562.50147,0.28629
5560.57272,0.28554
5558.64398,0.28474
5556.71523,0.28468
5554.78648,0.28478
5552.85774,0.28449
5550.92899,0.28413
5549.00025,0.28432
5547.07150,0.28505
5545.14276,0.28542
5543.21401,0.28497
5541.28527,0.28459
5539.35652,0.28490
5537.42778,0.28532
5535.49903,0.28496
5533.57029,0.28364
5531.64154,0.28236
5529.71280,0.28170
5527.78405,0.28176
5525.85531,0.28281
5523.92656,0.28389
5521.99781,0.28418
5520.06907,0.28371
5518.14032,0.28291
5516.21158,0.28292
5514.28283,0.28410
5512.35409,0.28541
5510.42534,0.28561
5508.49660,0.28471
5506.56785,0.28339
5504.63911,0.28225
5502.71036,0.28232
5500.78162,0.28332
5498.85287,0.28388
5496.92413,0.28409
5494.99538,0.28433
5493.06664,0.28401
5491.13789,0.28340
5489.20914,0.28313
5487.28040,0.28288
5485.35165,0.28252
5483.42291,0.28218
5481.49416,0.28193
5479.56542,0.28207
5477.63667,0.28273
5475.70793,0.28322
5473.77918,0.28270
5471.85044,0.28170
5469.92169,0.28135
5467.99295,0.28183
5466.06420,0.28257
5464.13546,0.28289
5462.20671,0.28300
5460.27796,0.28357
5458.34922,0.28425
5456.42047,0.28437
5454.49173,0.28413
5452.56298,0.28420
5450.63424,0.28505
5448.70549,0.28616
5446.77675,0.28638
5444.84800,0.28546
5442.91926,0.28422
5440.99051,0.28403
5439.06177,0.28494
5437.13302,0.28540
5435.20428,0.28562
5433.27553,0.28645
5431.34679,0.28715
5429.41804,0.28733
5427.48929,0.28727
5425.56055,0.28716
5423.63180,0.28741
5421.70306,0.28779
5419.77431,0.28780
5417.84557,0.28768
5415.91682,0.28773
5413.98808,0.28776
5412.05933,0.28760
5410.13059,0.28738
5408.20184,0.28728
5406.27310,0.28768
5404.34435,0.28834
5402.41561,0.28817
5400.48686,0.28757
5398.55811,0.28809
5396.62937,0.28918
5394.70062,0.28976
5392.77188,0.29033
5390.84313,0.29102
5388.91439,0.29122
5386.98564,0.29100
5385.05690,0.29100
5383.12815,0.29164
5381.19941,0.29244
5379.27066,0.29266
5377.34192,0.29251
5375.41317,0.29245
5373.48443,0.29227
5371.55568,0.29193
5369.62694,0.29196
5367.69819,0.29231
5365.76944,0.29233
5363.84070,0.29200
5361.91195,0.29190
5359.98321,0.29195
5358.05446,0.29187
5356.12572,0.29215
5354.19697,0.29292
5352.26823,0.29331
5350.33948,0.29246
5348.41074,0.29120
5346.48199,0.29105
5344.55325,0.29157
5342.62450,0.29177
5340.69576,0.29205
5338.76701,0.29268
5336.83827,0.29293
5334.90952,0.29254
5332.98077,0.29216
5331.05203,0.29168
5329.12328,0.29099
5327.19454,0.29087
5325.26579,0.29116
5323.33705,0.29098
5321.40830,0.29050
5319.47956,0.29050
5317.55081,0.29075
5315.62207,0.29065
5313.69332,0.29024
5311.76458,0.28996
5309.83583,0.29023
5307.90709,0.29080
5305.97834,0.29104
5304.04959,0.29055
5302.12085,0.28994
5300.19210,0.29017
5298.26336,0.29025
5296.33461,0.28907
5294.40587,0.28824
5292.47712,0.28908
5290.54838,0.29055
5288.61963,0.29143
5286.69089,0.29158
5284.76214,0.29134
5282.83340,0.29100
5280.90465,0.29075
5278.97591,0.29062
5277.04716,0.29036
5275.11842,0.29006
5273.18967,0.29028
5271.26092,0.29091
5269.33218,0.29122
5267.40343,0.29102
5265.47469,0.29099
5263.54594,0.29144
5261.61720,0.29178
5259.68845,0.29163
5257.75971,0.29128
5255.83096,0.29110
5253.90222,0.29087
5251.97347,0.29075
5250.04473,0.29111
5248.11598,0.29142
5246.18724,0.29123
5244.25849,0.29121
5242.32975,0.29162
5240.40100,0.29165
5238.47225,0.29124
5236.54351,0.29109
5234.61476,0.29102
5232.68602,0.29071
5230.75727,0.28998
5228.82853,0.28892
5226.89978,0.28859
5224.97104,0.28955
5223.04229,0.29072
5221.11355,0.29104
5219.18480,0.29078
5217.25606,0.29051
5215.32731,0.29014
5213.39857,0.28988
5211.46982,0.28992
5209.54107,0.28978
5207.61233,0.28960
5205.68358,0.29000
5203.75484,0.29057
5201.82609,0.29078
5199.89735,0.29116
5197.96860,0.29194
5196.03986,0.29244
5194.11111,0.29212
5192.18237,0.29132
5190.25362,0.29107
5188.32488,0.29168
5186.39613,0.29203
5184.46739,0.29146
5182.53864,0.29077
5180.60990,0.29063
5178.68115,0.29077
5176.75240,0.29085
5174.82366,0.29089
5172.89491,0.29099
5170.96617,0.29102
5169.03742,0.29100
5167.10868,0.29091
5165.17993,0.29059
5163.25119,0.29045
5161.32244,0.29083
5159.39370,0.29125
5157.46495,0.29121
5155.53621,0.29100
5153.60746,0.29088
5151.67872,0.29056
5149.74997,0.29018
5147.82123,0.28999
5145.89248,0.28984
5143.96373,0.28990
5142.03499,0.29012
5140.10624,0.29004
5138.17750,0.28982
5136.24875,0.29001
5134.32001,0.29062
5132.39126,0.29113
5130.46252,0.29131
5128.53377,0.29151
5126.60503,0.29181
5124.67628,0.29161
5122.74754,0.29077
5120.81879,0.28990
5118.89005,0.28952
5116.96130,0.28972
5115.03255,0.29012
5113.10381,0.29022
5111.17506,0.29028
5109.24632,0.29053
5107.31757,0.29033
5105.38883,0.28956
5103.46008,0.28925
5101.53134,0.28995
5099.60259,0.29070
5097.67385,0.29053
5095.74510,0.28993
5093.81636,0.28975
5091.88761,0.29028
5089.95887,0.29094
5088.03012,0.29088
5086.10138,0.29022
5084.17263,0.28969
5082.24388,0.28955
5080.31514,0.28967
5078.38639,0.28987
5076.45765,0.29012
5074.52890,0.29010
5072.60016,0.28947
5070.67141,0.28908
5068.74267,0.28928
5066.81392,0.28947
5064.88518,0.28982
5062.95643,0.28999
5061.02769,0.28944
5059.09894,0.28909
5057.17020,0.28948
5055.24145,0.28976
5053.31270,0.28990
5051.38396,0.29044
5049.45521,0.29080
5047.52647,0.29051
5045.59772,0.29015
5043.66898,0.29000
5041.74023,0.29002
5039.81149,0.29012
5037.88274,0.29015
5035.95400,0.29000
5034.02525,0.28951
5032.09651,0.28924
5030.16776,0.28965
5028.23902,0.28981
5026.31027,0.28931
5024.38153,0.28923
5022.45278,0.29016
5020.52403,0.29108
5018.59529,0.29122
5016.66654,0.29098
5014.73780,0.29071
5012.80905,0.29023
5010.88031,0.28967
5008.95156,0.28982
5007.02282,0.29080
5005.09407,0.29151
5003.16533,0.29145
5001.23658,0.29143
4999.30784,0.29219
4997.37909,0.29303
4995.45035,0.29292
4993.52160,0.29211
4991.59286,0.29159
4989.66411,0.29192
4987.73536,0.29248
4985.80662,0.29219
4983.87787,0.29134
4981.94913,0.29100
4980.02038,0.29141
4978.09164,0.29196
4976.16289,0.29210
4974.23415,0.29222
4972.30540,0.29255
4970.37666,0.29267
4968.44791,0.29263
4966.51917,0.29254
4964.59042,0.29251
4962.66168,0.29289
4960.73293,0.29337
4958.80418,0.29355
4956.87544,0.29361
4954.94669,0.29357
4953.01795,0.29321
4951.08920,0.29264
4949.16046,0.29224
4947.23171,0.29230
4945.30297,0.29279
4943.37422,0.29311
4941.44548,0.29286
4939.51673,0.29262
4937.58799,0.29292
4935.65924,0.29335
4933.73050,0.29329
4931.80175,0.29268
4929.87301,0.29217
4927.94426,0.29238
4926.01551,0.29310
4924.08677,0.29357
4922.15802,0.29359
4920.22928,0.29341
4918.30053,0.29282
4916.37179,0.29213
4914.44304,0.29236
4912.51430,0.29327
4910.58555,0.29381
4908.65681,0.29394
4906.72806,0.29403
4904.79932,0.29379
4902.87057,0.29306
4900.94183,0.29275
4899.01308,0.29322
4897.08434,0.29357
4895.15559,0.29322
4893.22684,0.29269
4891.29810,0.29277
4889.36935,0.29328
4887.44061,0.29331
4885.51186,0.29308
4883.58312,0.29342
4881.65437,0.29399
4879.72563,0.29370
4877.79688,0.29263
4875.86814,0.29201
4873.93939,0.29226
4872.01065,0.29266
4870.08190,0.29293
4868.15316,0.29323
4866.22441,0.29321
4864.29566,0.29268
4862.36692,0.29210
4860.43817,0.29167
4858.50943,0.29128
4856.58068,0.29085
4854.65194,0.29068
4852.72319,0.29114
4850.79445,0.29175
4848.86570,0.29196
4846.93696,0.29199
4845.00821,0.29207
4843.07947,0.29221
4841.15072,0.29241
4839.22198,0.29251
4837.29323,0.29250
4835.36449,0.29269
4833.43574,0.29272
4831.50699,0.29213
4829.57825,0.29197
4827.64950,0.29283
4825.72076,0.29316
4823.79201,0.29212
4821.86327,0.29107
4819.93452,0.29100
4818.00578,0.29141
4816.07703,0.29191
4814.14829,0.29236
4812.21954,0.29240
4810.29080,0.29207
4808.36205,0.29187
4806.43331,0.29225
4804.50456,0.29321
4802.57582,0.29368
4800.64707,0.29326
4798.71832,0.29274
4796.78958,0.29207
4794.86083,0.29120
4792.93209,0.29097
4791.00334,0.29135
4789.07460,0.29148
4787.14585,0.29134
4785.21711,0.29169
4783.28836,0.29232
4781.35962,0.29231
4779.43087,0.29164
4777.50213,0.29123
4775.57338,0.29143
4773.64464,0.29169
4771.71589,0.29177
4769.78714,0.29211
4767.85840,0.29268
4765.92965,0.29289
4764.00091,0.29274
4762.07216,0.29294
4760.14342,0.29351
4758.21467,0.29369
4756.28593,0.29328
4754.35718,0.29276
4752.42844,0.29228
4750.49969,0.29180
4748.57095,0.29152
4746.64220,0.29154
4744.71346,0.29171
4742.78471,0.29186
4740.85597,0.29180
4738.92722,0.29173
4736.99847,0.29184
4735.06973,0.29156
4733.14098,0.29105
4731.21224,0.29140
4729.28349,0.29258
4727.35475,0.29311
4725.42600,0.29250
4723.49726,0.29175
4721.56851,0.29135
4719.63977,0.29143
4717.71102,0.29204
4715.78228,0.29244
4713.85353,0.29237
4711.92479,0.29222
4709.99604,0.29208
4708.06729,0.29195
4706.13855,0.29176
4704.20980,0.29152
4702.28106,0.29144
4700.35231,0.29174
4698.42357,0.29223
4696.49482,0.29215
4694.56608,0.29148
4692.63733,0.29123
4690.70859,0.29144
4688.77984,0.29137
4686.85110,0.29106
4684.92235,0.29079
4682.99361,0.29077
4681.06486,0.29092
4679.13612,0.29088
4677.20737,0.29084
4675.27862,0.29117
4673.34988,0.29180
4671.42113,0.29225
4669.49239,0.29215
4667.56364,0.29141
4665.63490,0.29038
4663.70615,0.28991
4661.77741,0.29017
4659.84866,0.29061
4657.91992,0.29077
4655.99117,0.29049
4654.06243,0.29001
4652.13368,0.28959
4650.20494,0.28936
4648.27619,0.28937
4646.34745,0.28955
4644.41870,0.28984
4642.48995,0.28990
4640.56121,0.28944
4638.63246,0.28882
4636.70372,0.28849
4634.77497,0.28838
4632.84623,0.28848
4630.91748,0.28889
4628.98874,0.28950
4627.05999,0.28981
4625.13125,0.28938
4623.20250,0.28853
4621.27376,0.28798
4619.34501,0.28823
4617.41627,0.28874
4615.48752,0.28869
4613.55877,0.28829
4611.63003,0.28797
4609.70128,0.28800
4607.77254,0.28812
4605.84379,0.28778
4603.91505,0.28720
4601.98630,0.28681
4600.05756,0.28663
4598.12881,0.28654
4596.20007,0.28646
4594.27132,0.28628
4592.34258,0.28592
4590.41383,0.28565
4588.48509,0.28580
4586.55634,0.28611
4584.62760,0.28604
4582.69885,0.28554
4580.77010,0.28487
4578.84136,0.28445
4576.91261,0.28433
4574.98387,0.28410
4573.05512,0.28386
4571.12638,0.28394
4569.19763,0.28407
4567.26889,0.28410
4565.34014,0.28419
4563.41140,0.28425
4561.48265,0.28407
4559.55391,0.28376
4557.62516,0.28358
4555.69642,0.28361
4553.76767,0.28371
4551.83893,0.28367
4549.91018,0.28361
4547.98143,0.28376
4546.05269,0.28383
4544.12394,0.28360
4542.19520,0.28335
4540.26645,0.28334
4538.33771,0.28347
4536.40896,0.28342
4534.48022,0.28315
4532.55147,0.28303
4530.62273,0.28309
4528.69398,0.28303
4526.76524,0.28285
4524.83649,0.28265
4522.90775,0.28244
4520.97900,0.28221
4519.05025,0.28201
4517.12151,0.28201
4515.19276,0.28233
4513.26402,0.28261
4511.33527,0.28261
4509.40653,0.28261
4507.47778,0.28265
4505.54904,0.28261
4503.62029,0.28266
4501.69155,0.28260
4499.76280,0.28212
4497.83406,0.28152
4495.90531,0.28129
4493.97657,0.28136
4492.04782,0.28136
4490.11908,0.28127
4488.19033,0.28129
4486.26158,0.28146
4484.33284,0.28146
4482.40409,0.28096
4480.47535,0.28024
4478.54660,0.27992
4476.61786,0.27981
4474.68911,0.27942
4472.76037,0.27890
4470.83162,0.27878
4468.90288,0.27900
4466.97413,0.27883
4465.04539,0.27804
4463.11664,0.27702
4461.18790,0.27602
4459.25915,0.27506
4457.33041,0.27418
4455.40166,0.27358
4453.47291,0.27321
4451.54417,0.27280
4449.61542,0.27198
4447.68668,0.27068
4445.75793,0.26919
4443.82919,0.26761
4441.90044,0.26603
4439.97170,0.26430
4438.04295,0.26199
4436.11421,0.25937
4434.18546,0.25668
4432.25672,0.25355
4430.32797,0.25008
4428.39923,0.24679
4426.47048,0.24358
4424.54173,0.24014
4422.61299,0.23654
4420.68424,0.23273
4418.75550,0.22898
4416.82675,0.22566
4414.89801,0.22235
4412.96926,0.21869
4411.04052,0.21532
4409.11177,0.21255
4407.18303,0.20982
4405.25428,0.20695
4403.32554,0.20378
4401.39679,0.19979
4399.46805,0.19539
4397.53930,0.19150
4395.61056,0.18814
4393.68181,0.18535
4391.75306,0.18392
4389.82432,0.18430
4387.89557,0.18599
4385.96683,0.18830
4384.03808,0.19057
4382.10934,0.19240
4380.18059,0.19401
4378.25185,0.19566
4376.32310,0.19720
4374.39436,0.19854
4372.46561,0.20000
4370.53687,0.20171
4368.60812,0.20334
4366.67938,0.20452
4364.75063,0.20527
4362.82189,0.20572
4360.89314,0.20600
4358.96439,0.20626
4357.03565,0.20623
4355.10690,0.20536
4353.17816,0.20360
4351.24941,0.20118
4349.32067,0.19809
4347.39192,0.19433
4345.46318,0.19011
4343.53443,0.18537
4341.60569,0.17993
4339.67694,0.17412
4337.74820,0.16840
4335.81945,0.16285
4333.89071,0.15759
4331.96196,0.15316
4330.03321,0.15002
4328.10447,0.14799
4326.17572,0.14671
4324.24698,0.14621
4322.31823,0.14653
4320.38949,0.14743
4318.46074,0.14837
4316.53200,0.14904
4314.60325,0.14968
4312.67451,0.15061
4310.74576,0.15190
4308.81702,0.15354
4306.88827,0.15558
4304.95953,0.15826
4303.03078,0.16169
4301.10204,0.16558
4299.17329,0.16921
4297.24454,0.17206
4295.31580,0.17397
4293.38705,0.17488
4291.45831,0.17513
4289.52956,0.17528
4287.60082,0.17555
4285.67207,0.17582
4283.74333,0.17589
4281.81458,0.17575
4279.88584,0.17568
4277.95709,0.17586
4276.02835,0.17623
4274.09960,0.17664
4272.17086,0.17689
4270.24211,0.17662
4268.31336,0.17564
4266.38462,0.17434
4264.45587,0.17295
4262.52713,0.17126
4260.59838,0.16930
4258.66964,0.16733
4256.74089,0.16533
4254.81215,0.16310
4252.88340,0.16053
4250.95466,0.15792
4249.02591,0.15552
4247.09717,0.15319
4245.16842,0.15126
4243.23968,0.15031
4241.31093,0.15033
4239.38219,0.15148
4237.45344,0.15382
4235.52469,0.15678
4233.59595,0.15999
4231.66720,0.16298
4229.73846,0.16512
4227.80971,0.16634
4225.88097,0.16705
4223.95222,0.16771
4222.02348,0.16841
4220.09473,0.16870
4218.16599,0.16851
4216.23724,0.16852
4214.30850,0.16922
4212.37975,0.17033
4210.45101,0.17127
4208.52226,0.17188
4206.59352,0.17240
4204.66477,0.17324
4202.73602,0.17449
4200.80728,0.17581
4198.87853,0.17713
4196.94979,0.17881
4195.02104,0.18077
4193.09230,0.18264
4191.16355,0.18430
4189.23481,0.18542
4187.30606,0.18570
4185.37732,0.18542
4183.44857,0.18484
4181.51983,0.18389
4179.59108,0.18266
4177.66234,0.18140
4175.73359,0.18005
4173.80484,0.17860
4171.87610,0.17722
4169.94735,0.17624
4168.01861,0.17589
4166.08986,0.17617
4164.16112,0.17713
4162.23237,0.17869
4160.30363,0.18029
4158.37488,0.18146
4156.44614,0.18233
4154.51739,0.18326
4152.58865,0.18422
4150.65990,0.18521
4148.73116,0.18652
4146.80241,0.18806
4144.87367,0.18915
4142.94492,0.18945
4141.01617,0.18943
4139.08743,0.18973
4137.15868,0.19023
4135.22994,0.19044
4133.30119,0.19029
4131.37245,0.18977
4129.44370,0.18870
4127.51496,0.18741
4125.58621,0.18654
4123.65747,0.18592
4121.72872,0.18518
4119.79998,0.18474
4117.87123,0.18496
4115.94249,0.18550
4114.01374,0.18606
4112.08500,0.18682
4110.15625,0.18795
4108.22750,0.18945
4106.29876,0.19109
4104.37001,0.19277
4102.44127,0.19455
4100.51252,0.19613
4098.58378,0.19727
4096.65503,0.19789
4094.72629,0.19779
4092.79754,0.19715
4090.86880,0.19633
4088.94005,0.19537
4087.01131,0.19411
4085.08256,0.19224
4083.15382,0.18984
4081.22507,0.18757
4079.29632,0.18542
4077.36758,0.18290
4075.43883,0.18018
4073.51009,0.17767
4071.58134,0.17549
4069.65260,0.17377
4067.72385,0.17218
4065.79511,0.16997
4063.86636,0.16722
4061.93762,0.16490
4060.00887,0.16382
4058.08013,0.16424
4056.15138,0.16615
4054.22264,0.16940
4052.29389,0.17335
4050.36515,0.17752
4048.43640,0.18189
4046.50765,0.18607
4044.57891,0.18968
4042.65016,0.19272
4040.72142,0.19513
4038.79267,0.19694
4036.86393,0.19840
4034.93518,0.19973
4033.00644,0.20109
4031.07769,0.20236
4029.14895,0.20316
4027.22020,0.20342
4025.29146,0.20349
4023.36271,0.20355
4021.43397,0.20375
4019.50522,0.20449
4017.57648,0.20585
4015.64773,0.20731
4013.71898,0.20833
4011.79024,0.20897
4009.86149,0.20959
4007.93275,0.21029
4006.00400,0.21075
4004.07526,0.21059
4002.14651,0.21015
4000.21777,0.20982
3998.28902,0.20938
3996.36028,0.20887
3994.43153,0.20877
3992.50279,0.20914
3990.57404,0.20973
3988.64530,0.21051
3986.71655,0.21162
3984.78780,0.21315
3982.85906,0.21491
3980.93031,0.21642
3979.00157,0.21752
3977.07282,0.21831
3975.14408,0.21881
3973.21533,0.21934
3971.28659,0.22006
3969.35784,0.22069
3967.42910,0.22104
3965.50035,0.22119
3963.57161,0.22130
3961.64286,0.22154
3959.71412,0.22196
3957.78537,0.22250
3955.85663,0.22296
3953.92788,0.22323
3951.99913,0.22339
3950.07039,0.22340
3948.14164,0.22326
3946.21290,0.22318
3944.28415,0.22306
3942.35541,0.22258
3940.42666,0.22186
3938.49792,0.22118
3936.56917,0.22065
3934.64043,0.22039
3932.71168,0.22051
3930.78294,0.22085
3928.85419,0.22111
3926.92545,0.22118
3924.99670,0.22118
3923.06795,0.22124
3921.13921,0.22156
3919.21046,0.22226
3917.28172,0.22321
3915.35297,0.22415
3913.42423,0.22501
3911.49548,0.22584
3909.56674,0.22664
3907.63799,0.22736
3905.70925,0.22798
3903.78050,0.22828
3901.85176,0.22818
3899.92301,0.22808
3897.99427,0.22820
3896.06552,0.22846
3894.13678,0.22862
3892.20803,0.22856
3890.27928,0.22854
3888.35054,0.22881
3886.42179,0.22922
3884.49305,0.22936
3882.56430,0.22923
3880.63556,0.22915
3878.70681,0.22927
3876.77807,0.22964
3874.84932,0.23017
3872.92058,0.23049
3870.99183,0.23048
3869.06309,0.23069
3867.13434,0.23139
3865.20560,0.23219
3863.27685,0.23269
3861.34811,0.23305
3859.41936,0.23356
3857.49061,0.23402
3855.56187,0.23439
3853.63312,0.23510
3851.70438,0.23575
3849.77563,0.23599
3847.84689,0.23610
3845.91814,0.23604
3843.98940,0.23560
3842.06065,0.23503
3840.13191,0.23475
3838.20316,0.23492
3836.27442,0.23532
3834.34567,0.23537
3832.41693,0.23502
3830.48818,0.23484
3828.55943,0.23491
3826.63069,0.23480
3824.70194,0.23459
3822.77320,0.23457
3820.84445,0.23444
3818.91571,0.23400
3816.98696,0.23347
3815.05822,0.23309
3813.12947,0.23305
3811.20073,0.23334
3809.27198,0.23369
3807.34324,0.23389
3805.41449,0.23412
3803.48575,0.23463
3801.55700,0.23539
3799.62826,0.23607
3797.69951,0.23629
3795.77076,0.23616
3793.84202,0.23612
3791.91327,0.23632
3789.98453,0.23666
3788.05578,0.23713
3786.12704,0.23765
3784.19829,0.23796
3782.26955,0.23801
3780.34080,0.23785
3778.41206,0.23739
3776.48331,0.23663
3774.55457,0.23563
3772.62582,0.23442
3770.69708,0.23316
3768.76833,0.23201
3766.83959,0.23105
3764.91084,0.23038
3762.98209,0.23022
3761.05335,0.23057
3759.12460,0.23115
3757.19586,0.23187
3755.26711,0.23293
3753.33837,0.23425
3751.40962,0.23534
3749.48088,0.23617
3747.55213,0.23685
3745.62339,0.23723
3743.69464,0.23743
3741.76590,0.23775
3739.83715,0.23818
3737.90841,0.23863
3735.97966,0.23914
3734.05091,0.23965
3732.12217,0.24003
3730.19342,0.24017
3728.26468,0.24033
3726.33593,0.24082
3724.40719,0.24138
3722.47844,0.24159
3720.54970,0.24158
3718.62095,0.24158
3716.69221,0.24158
3714.76346,0.24152
3712.83472,0.24154
3710.90597,0.24168
3708.97723,0.24174
3707.04848,0.24185
3705.11974,0.24206
3703.19099,0.24194
3701.26224,0.24145
3699.33350,0.24114
3697.40475,0.24118
3695.47601,0.24136
3693.54726,0.24163
3691.61852,0.24192
3689.68977,0.24214
3687.76103,0.24232
3685.83228,0.24259
3683.90354,0.24293
3681.97479,0.24356
3680.04605,0.24459
3678.11730,0.24567
3676.18856,0.24667
3674.25981,0.24770
3672.33107,0.24882
3670.40232,0.25027
3668.47357,0.25174
3666.54483,0.25266
3664.61608,0.25329
3662.68734,0.25394
3660.75859,0.25462
3658.82985,0.25526
3656.90110,0.25568
3654.97236,0.25559
3653.04361,0.25526
3651.11487,0.25514
3649.18612,0.25503
3647.25738,0.25468
3645.32863,0.25424
3643.39989,0.25349
3641.47114,0.25241
3639.54239,0.25154
3637.61365,0.25111
3635.68490,0.25087
3633.75616,0.25084
3631.82741,0.25118
3629.89867,0.25193
3627.96992,0.25300
3626.04118,0.25407
3624.11243,0.25498
3622.18369,0.25576
3620.25494,0.25638
3618.32620,0.25679
3616.39745,0.25696
3614.46871,0.25706
3612.53996,0.25728
3610.61122,0.25721
3608.68247,0.25655
3606.75372,0.25606
3604.82498,0.25619
3602.89623,0.25643
3600.96749,0.25635
3599.03874,0.25597
3597.11000,0.25557
3595.18125,0.25524
3593.25251,0.25490
3591.32376,0.25461
3589.39502,0.25436
3587.46627,0.25411
3585.53753,0.25403
3583.60878,0.25425
3581.68004,0.25461
3579.75129,0.25498
3577.82254,0.25531
3575.89380,0.25542
3573.96505,0.25525
3572.03631,0.25519
3570.10756,0.25547
3568.17882,0.25583
3566.25007,0.25598
3564.32133,0.25595
3562.39258,0.25605
3560.46384,0.25613
3558.53509,0.25578
3556.60635,0.25537
3554.67760,0.25528
3552.74886,0.25514
3550.82011,0.25482
3548.89137,0.25476
3546.96262,0.25490
3545.03387,0.25470
3543.10513,0.25399
3541.17638,0.25336
3539.24764,0.25327
3537.31889,0.25335
3535.39015,0.25303
3533.46140,0.25237
3531.53266,0.25184
3529.60391,0.25169
3527.67517,0.25177
3525.74642,0.25183
3523.81768,0.25166
3521.88893,0.25120
3519.96019,0.25072
3518.03144,0.25052
3516.10270,0.25058
3514.17395,0.25063
3512.24520,0.25032
3510.31646,0.24976
3508.38771,0.24934
3506.45897,0.24902
3504.53022,0.24875
3502.60148,0.24874
3500.67273,0.24880
3498.74399,0.24864
3496.81524,0.24834
3494.88650,0.24797
3492.95775,0.24750
3491.02901,0.24699
3489.10026,0.24645
3487.17152,0.24594
3485.24277,0.24562
3483.31402,0.24541
3481.38528,0.24503
3479.45653,0.24427
3477.52779,0.24333
3475.59904,0.24257
3473.67030,0.24203
3471.74155,0.24152
3469.81281,0.24099
3467.88406,0.24037
3465.95532,0.23953
3464.02657,0.23871
3462.09783,0.23818
3460.16908,0.23774
3458.24034,0.23715
3456.31159,0.23635
3454.38285,0.23531
3452.45410,0.23427
3450.52535,0.23338
3448.59661,0.23244
3446.66786,0.23138
3444.73912,0.23038
3442.81037,0.22950
3440.88163,0.22866
3438.95288,0.22774
3437.02414,0.22676
3435.09539,0.22579
3433.16665,0.22498
3431.23790,0.22453
3429.30916,0.22413
3427.38041,0.22329
3425.45167,0.22198
3423.52292,0.22061
3421.59418,0.21953
3419.66543,0.21881
3417.73668,0.21838
3415.80794,0.21819
3413.87919,0.21813
3411.95045,0.21780
3410.02170,0.21715
3408.09296,0.21687
3406.16421,0.21714
3404.23547,0.21765
3402.30672,0.21853
3400.37798,0.21972
3398.44923,0.22044
3396.52049,0.22035
3394.59174,0.22008
3392.66300,0.22012
3390.73425,0.22029
3388.80550,0.22021
3386.87676,0.21983
3384.94801,0.21939
3383.01927,0.21901
3381.09052,0.21843
3379.16178,0.21757
3377.23303,0.21669
3375.30429,0.21578
3373.37554,0.21478
3371.44680,0.21394
3369.51805,0.21339
3367.58931,0.21295
3365.66056,0.21256
3363.73182,0.21223
3361.80307,0.21171
3359.87433,0.21084
3357.94558,0.20987
3356.01683,0.20905
3354.08809,0.20837
3352.15934,0.20753
3350.23060,0.20648
3348.30185,0.20560
3346.37311,0.20521
3344.44436,0.20531
3342.51562,0.20559
3340.58687,0.20586
3338.65813,0.20619
3336.72938,0.20655
3334.80064,0.20706
3332.87189,0.20769
3330.94315,0.20809
3329.01440,0.20817
3327.08566,0.20807
3325.15691,0.20764
3323.22816,0.20668
3321.29942,0.20508
3319.37067,0.20266
3317.44193,0.19953
3315.51318,0.19599
3313.58444,0.19214
3311.65569,0.18773
3309.72695,0.18252
3307.79820,0.17667
3305.86946,0.17071
3303.94071,0.16531
3302.01197,0.16148
3300.08322,0.16000
3298.15448,0.16090
3296.22573,0.16396
3294.29698,0.16874
3292.36824,0.17411
3290.43949,0.17897
3288.51075,0.18319
3286.58200,0.18691
3284.65326,0.18999
3282.72451,0.19234
3280.79577,0.19413
3278.86702,0.19557
3276.93828,0.19678
3275.00953,0.19781
3273.08079,0.19874
3271.15204,0.19968
3269.22330,0.20069
3267.29455,0.20179
3265.36581,0.20285
3263.43706,0.20361
3261.50831,0.20400
3259.57957,0.20446
3257.65082,0.20533
3255.72208,0.20620
3253.79333,0.20656
3251.86459,0.20653
3249.93584,0.20638
3248.00710,0.20609
3246.07835,0.20562
3244.14961,0.20487
3242.22086,0.20387
3240.29212,0.20272
3238.36337,0.20137
3236.43463,0.19969
3234.50588,0.19747
3232.57713,0.19485
3230.64839,0.19229
3228.71964,0.18978
3226.79090,0.18709
3224.86215,0.18447
3222.93341,0.18200
3221.00466,0.17919
3219.07592,0.17619
3217.14717,0.17363
3215.21843,0.17135
3213.28968,0.16890
3211.36094,0.16642
3209.43219,0.16422
3207.50345,0.16243
3205.57470,0.16091
3203.64596,0.15945
3201.71721,0.15799
3199.78846,0.15674
3197.85972,0.15591
3195.93097,0.15555
3194.00223,0.15555
3192.07348,0.15568
3190.14474,0.15565
3188.21599,0.15556
3186.28725,0.15568
3184.35850,0.15620
3182.42976,0.15702
3180.50101,0.15791
3178.57227,0.15885
3176.64352,0.15971
3174.71478,0.16040
3172.78603,0.16118
3170.85729,0.16192
3168.92854,0.16223
3166.99979,0.16226
3165.07105,0.16212
3163.14230,0.16170
3161.21356,0.16117
3159.28481,0.16063
3157.35607,0.16002
3155.42732,0.15944
3153.49858,0.15899
3151.56983,0.15856
3149.64109,0.15786
3147.71234,0.15700
3145.78360,0.15646
3143.85485,0.15628
3141.92611,0.15627
3139.99736,0.15658
3138.06861,0.15726
3136.13987,0.15813
3134.21112,0.15902
3132.28238,0.15973
3130.35363,0.16028
3128.42489,0.16111
3126.49614,0.16230
3124.56740,0.16332
3122.63865,0.16411
3120.70991,0.16508
3118.78116,0.16616
3116.85242,0.16697
3114.92367,0.16738
3112.99493,0.16751
3111.06618,0.16750
3109.13744,0.16737
3107.20869,0.16715
3105.27994,0.16708
3103.35120,0.16720
3101.42245,0.16738
3099.49371,0.16748
3097.56496,0.16744
3095.63622,0.16731
3093.70747,0.16707
3091.77873,0.16674
3089.84998,0.16641
3087.92124,0.16605
3085.99249,0.16548
3084.06375,0.16464
3082.13500,0.16381
3080.20626,0.16334
3078.27751,0.16306
3076.34877,0.16246
3074.42002,0.16145
3072.49127,0.16034
3070.56253,0.15954
3068.63378,0.15913
3066.70504,0.15862
3064.77629,0.15760
3062.84755,0.15633
3060.91880,0.15524
3058.99006,0.15427
3057.06131,0.15311
3055.13257,0.15168
3053.20382,0.15020
3051.27508,0.14889
3049.34633,0.14786
3047.41759,0.14699
3045.48884,0.14604
3043.56009,0.14503
3041.63135,0.14392
3039.70260,0.14251
3037.77386,0.14098
3035.84511,0.13946
3033.91637,0.13763
3031.98762,0.13537
3030.05888,0.13275
3028.13013,0.12990
3026.20139,0.12695
3024.27264,0.12404
3022.34390,0.12113
3020.41515,0.11792
3018.48641,0.11428
3016.55766,0.11040
3014.62892,0.10656
3012.70017,0.10280
3010.77142,0.09884
3008.84268,0.09458
3006.91393,0.09025
3004.98519,0.08595
3003.05644,0.08155
3001.12770,0.07695
2999.19895,0.07228
2997.27021,0.06751
2995.34146,0.06231
2993.41272,0.05685
2991.48397,0.05179
2989.55523,0.04737
2987.62648,0.04327
2985.69774,0.03944
2983.76899,0.03613
2981.84025,0.03334
2979.91150,0.03100
2977.98275,0.02923
2976.05401,0.02779
2974.12526,0.02637
2972.19652,0.02513
2970.26777,0.02439
2968.33903,0.02414
2966.41028,0.02446
2964.48154,0.02552
2962.55279,0.02696
2960.62405,0.02833
2958.69530,0.02944
2956.76656,0.03003
2954.83781,0.03018
2952.90907,0.03063
2950.98032,0.03171
2949.05157,0.03283
2947.12283,0.03330
2945.19408,0.03302
2943.26534,0.03242
2941.33659,0.03177
2939.40785,0.03114
2937.47910,0.03048
2935.55036,0.02986
2933.62161,0.02938
2931.69287,0.02897
2929.76412,0.02870
2927.83538,0.02893
2925.90663,0.02986
2923.97789,0.03128
2922.04914,0.03275
2920.12040,0.03417
2918.19165,0.03570
2916.26290,0.03695
2914.33416,0.03731
2912.40541,0.03685
2910.47667,0.03617
2908.54792,0.03564
2906.61918,0.03534
2904.69043,0.03514
2902.76169,0.03502
2900.83294,0.03511
2898.90420,0.03515
2896.97545,0.03490
2895.04671,0.03465
2893.11796,0.03452
2891.18922,0.03442
2889.26047,0.03426
2887.33172,0.03399
2885.40298,0.03371
2883.47423,0.03364
2881.54549,0.03375
2879.61674,0.03386
2877.68800,0.03388
2875.75925,0.03393
2873.83051,0.03414
2871.90176,0.03424
2869.97302,0.03409
2868.04427,0.03412
2866.11553,0.03466
2864.18678,0.03550
2862.25804,0.03629
2860.32929,0.03693
2858.40055,0.03747
2856.47180,0.03789
2854.54305,0.03792
2852.61431,0.03742
2850.68556,0.03653
2848.75682,0.03544
2846.82807,0.03437
2844.89933,0.03370
2842.97058,0.03357
2841.04184,0.03387
2839.11309,0.03453
2837.18435,0.03544
2835.25560,0.03636
2833.32686,0.03728
2831.39811,0.03859
2829.46937,0.04043
2827.54062,0.04244
2825.61188,0.04449
2823.68313,0.04674
2821.75438,0.04935
2819.82564,0.05200
2817.89689,0.05419
2815.96815,0.05606
2814.03940,0.05787
2812.11066,0.05964
2810.18191,0.06138
2808.25317,0.06317
2806.32442,0.06541
2804.39568,0.06845
2802.46693,0.07191
2800.53819,0.07499
2798.60944,0.07709
2796.68070,0.07851
2794.75195,0.08023
2792.82320,0.08273
2790.89446,0.08612
2788.96571,0.09042
2787.03697,0.09520
2785.10822,0.09991
2783.17948,0.10421
2781.25073,0.10796
2779.32199,0.11124
2777.39324,0.11426
2775.46450,0.11706
2773.53575,0.11937
2771.60701,0.12098
2769.67826,0.12211
2767.74952,0.12308
2765.82077,0.12409
2763.89203,0.12526
2761.96328,0.12656
2760.03453,0.12784
2758.10579,0.12892
2756.17704,0.12970
2754.24830,0.13012
2752.31955,0.13014
2750.39081,0.12975
2748.46206,0.12914
2746.53332,0.12823
2744.60457,0.12662
2742.67583,0.12408
2740.74708,0.12088
2738.81834,0.11747
2736.88959,0.11424
2734.96085,0.11132
2733.03210,0.10852
2731.10336,0.10539
2729.17461,0.10168
2727.24586,0.09740
2725.31712,0.09321
2723.38837,0.09061
2721.45963,0.09093
2719.53088,0.09420
2717.60214,0.09916
2715.67339,0.10427
2713.74465,0.10886
2711.81590,0.11308
2709.88716,0.11688
2707.95841,0.12023
2706.02967,0.12326
2704.10092,0.12599
2702.17218,0.12841
2700.24343,0.13044
2698.31468,0.13203
2696.38594,0.13302
2694.45719,0.13333
2692.52845,0.13313
2690.59970,0.13274
2688.67096,0.13252
2686.74221,0.13258
2684.81347,0.13257
2682.88472,0.13228
2680.95598,0.13197
2679.02723,0.13182
2677.09849,0.13179
2675.16974,0.13208
2673.24100,0.13276
2671.31225,0.13347
2669.38351,0.13395
2667.45476,0.13414
2665.52601,0.13399
2663.59727,0.13366
2661.66852,0.13350
2659.73978,0.13377
2657.81103,0.13446
2655.88229,0.13574
2653.95354,0.13757
2652.02480,0.13940
2650.09605,0.14087
2648.16731,0.14202
2646.23856,0.14291
2644.30982,0.14363
2642.38107,0.14433
2640.45233,0.14515
2638.52358,0.14602
2636.59484,0.14645
2634.66609,0.14586
2632.73734,0.14418
2630.80860,0.14182
2628.87985,0.13905
2626.95111,0.13607
2625.02236,0.13324
2623.09362,0.13080
2621.16487,0.12872
2619.23613,0.12693
2617.30738,0.12539
2615.37864,0.12406
2613.44989,0.12304
2611.52115,0.12257
2609.59240,0.12268
2607.66366,0.12310
2605.73491,0.12345
2603.80616,0.12359
2601.87742,0.12363
2599.94867,0.12354
2598.01993,0.12317
2596.09118,0.12247
2594.16244,0.12136
2592.23369,0.11966
2590.30495,0.11762
2588.37620,0.11552
2586.44746,0.11317
2584.51871,0.11071
2582.58997,0.10912
2580.66122,0.10903
2578.73248,0.11017
2576.80373,0.11193
2574.87499,0.11392
2572.94624,0.11595
2571.01749,0.11784
2569.08875,0.11942
2567.16000,0.12062
2565.23126,0.12160
2563.30251,0.12236
2561.37377,0.12276
2559.44502,0.12281
2557.51628,0.12270
2555.58753,0.12258
2553.65879,0.12247
2551.73004,0.12235
2549.80130,0.12226
2547.87255,0.12226
2545.94381,0.12233
2544.01506,0.12247
2542.08631,0.12251
2540.15757,0.12158
2538.22882,0.11875
2536.30008,0.11422
2534.37133,0.10899
2532.44259,0.10384
2530.51384,0.09895
2528.58510,0.09440
2526.65635,0.09032
2524.72761,0.08679
2522.79886,0.08393
2520.87012,0.08175
2518.94137,0.08017
2517.01263,0.07918
2515.08388,0.07864
2513.15514,0.07823
2511.22639,0.07816
2509.29764,0.07917
2507.36890,0.08160
2505.44015,0.08518
2503.51141,0.08973
2501.58266,0.09527
2499.65392,0.10181
2497.72517,0.10907
2495.79643,0.11666
2493.86768,0.12431
2491.93894,0.13181
2490.01019,0.13875
2488.08145,0.14464
2486.15270,0.14943
2484.22396,0.15365
2482.29521,0.15791
2480.36647,0.16230
2478.43772,0.16671
2476.50897,0.17125
2474.58023,0.17594
2472.65148,0.18043
2470.72274,0.18444
2468.79399,0.18769
2466.86525,0.19002
2464.93650,0.19153
2463.00776,0.19251
2461.07901,0.19321
2459.15027,0.19377
2457.22152,0.19418
2455.29278,0.19454
2453.36403,0.19496
2451.43529,0.19523
2449.50654,0.19521
2447.57779,0.19519
2445.64905,0.19522
2443.72030,0.19502
2441.79156,0.19455
2439.86281,0.19376
2437.93407,0.19252
2436.00532,0.19091
2434.07658,0.18927
2432.14783,0.18804
2430.21909,0.18747
2428.29034,0.18764
2426.36160,0.18842
2424.43285,0.18958
2422.50411,0.19096
2420.57536,0.19250
2418.64662,0.19405
2416.71787,0.19540
2414.78912,0.19644
2412.86038,0.19711
2410.93163,0.19726
2409.00289,0.19687
2407.07414,0.19632
2405.14540,0.19592
2403.21665,0.19560
2401.28791,0.19523
2399.35916,0.19509
2397.43042,0.19554
2395.50167,0.19644
2393.57293,0.19741
2391.64418,0.19827
2389.71544,0.19895
2387.78669,0.19950
2385.85795,0.19996
2383.92920,0.20027
2382.00045,0.20043
2380.07171,0.20038
2378.14296,0.20012
2376.21422,0.19987
2374.28547,0.19976
2372.35673,0.19973
2370.42798,0.19976
2368.49924,0.19980
2366.57049,0.19959
2364.64175,0.19900
2362.71300,0.19844
2360.78426,0.19839
2358.85551,0.19877
2356.92677,0.19935
2354.99802,0.20020
2353.06927,0.20130
2351.14053,0.20248
2349.21178,0.20361
2347.28304,0.20473
2345.35429,0.20588
2343.42555,0.20709
2341.49680,0.20822
2339.56806,0.20894
2337.63931,0.20922
2335.71057,0.20942
2333.78182,0.20986
2331.85308,0.21053
2329.92433,0.21132
2327.99559,0.21217
2326.06684,0.21303
2324.13810,0.21395
2322.20935,0.21505
2320.28060,0.21632
2318.35186,0.21761
2316.42311,0.21860
2314.49437,0.21915
2312.56562,0.21958
2310.63688,0.22007
2308.70813,0.22040
2306.77939,0.22041
2304.85064,0.22030
2302.92190,0.22023
2300.99315,0.22022
2299.06441,0.22019
2297.13566,0.22025
2295.20692,0.22057
2293.27817,0.22111
2291.34943,0.22159
2289.42068,0.22188
2287.49193,0.22214
2285.56319,0.22242
2283.63444,0.22259
2281.70570,0.22242
2279.77695,0.22167
2277.84821,0.22042
2275.91946,0.21894
2273.99072,0.21739
2272.06197,0.21597
2270.13323,0.21480
2268.20448,0.21403
2266.27574,0.21359
2264.34699,0.21308
2262.41825,0.21225
2260.48950,0.21123
2258.56075,0.21037
2256.63201,0.20990
2254.70326,0.21003
2252.77452,0.21090
2250.84577,0.21238
2248.91703,0.21413
2246.98828,0.21577
2245.05954,0.21700
2243.13079,0.21779
2241.20205,0.21819
2239.27330,0.21816
2237.34456,0.21774
2235.41581,0.21704
2233.48707,0.21614
2231.55832,0.21542
2229.62958,0.21529
2227.70083,0.21569
2225.77208,0.21634
2223.84334,0.21705
2221.91459,0.21761
2219.98585,0.21779
2218.05710,0.21760
2216.12836,0.21729
2214.19961,0.21711
2212.27087,0.21700
2210.34212,0.21673
2208.41338,0.21617
2206.48463,0.21539
2204.55589,0.21459
2202.62714,0.21398
2200.69840,0.21354
2198.76965,0.21315
2196.84090,0.21278
2194.91216,0.21246
2192.98341,0.21216
2191.05467,0.21175
2189.12592,0.21134
2187.19718,0.21110
2185.26843,0.21100
2183.33969,0.21092
2181.41094,0.21073
2179.48220,0.21037
2177.55345,0.20997
2175.62471,0.20957
2173.69596,0.20907
2171.76722,0.20866
2169.83847,0.20876
2167.90973,0.20945
2165.98098,0.21036
2164.05223,0.21121
2162.12349,0.21185
2160.19474,0.21217
2158.26600,0.21212
2156.33725,0.21182
2154.40851,0.21132
2152.47976,0.21075
2150.55102,0.21032
2148.62227,0.20999
2146.69353,0.20949
2144.76478,0.20886
2142.83604,0.20817
2140.90729,0.20728
2138.97855,0.20612
2137.04980,0.20492
2135.12106,0.20401
2133.19231,0.20375
2131.26356,0.20439
2129.33482,0.20605
2127.40607,0.20878
2125.47733,0.21249
2123.54858,0.21687
2121.61984,0.22119
2119.69109,0.22479
2117.76235,0.22759
2115.83360,0.22995
2113.90486,0.23201
2111.97611,0.23356
2110.04737,0.23442
2108.11862,0.23481
2106.18988,0.23502
2104.26113,0.23524
2102.33238,0.23555
2100.40364,0.23571
2098.47489,0.23567
2096.54615,0.23572
2094.61740,0.23581
2092.68866,0.23588
2090.75991,0.23612
2088.83117,0.23651
2086.90242,0.23693
2084.97368,0.23761
2083.04493,0.23874
2081.11619,0.24015
2079.18744,0.24156
2077.25870,0.24284
2075.32995,0.24394
2073.40121,0.24487
2071.47246,0.24557
2069.54371,0.24600
2067.61497,0.24628
2065.68622,0.24655
2063.75748,0.24665
2061.82873,0.24646
2059.89999,0.24617
2057.97124,0.24585
2056.04250,0.24555
2054.11375,0.24528
2052.18501,0.24491
2050.25626,0.24439
2048.32752,0.24390
2046.39877,0.24365
2044.47003,0.24374
2042.54128,0.24409
2040.61254,0.24437
2038.68379,0.24437
2036.75504,0.24414
2034.82630,0.24386
2032.89755,0.24356
2030.96881,0.24329
2029.04006,0.24311
2027.11132,0.24299
2025.18257,0.24319
2023.25383,0.24367
2021.32508,0.24405
2019.39634,0.24431
2017.46759,0.24448
2015.53885,0.24447
2013.61010,0.24447
2011.68136,0.24468
2009.75261,0.24496
2007.82386,0.24512
2005.89512,0.24510
2003.96637,0.24492
2002.03763,0.24458
2000.10888,0.24413
1998.18014,0.24365
1996.25139,0.24330
1994.32265,0.24314
1992.39390,0.24314
1990.46516,0.24324
1988.53641,0.24348
1986.60767,0.24387
1984.67892,0.24428
1982.75018,0.24460
1980.82143,0.24481
1978.89269,0.24499
1976.96394,0.24518
1975.03519,0.24529
1973.10645,0.24515
1971.17770,0.24474
1969.24896,0.24410
1967.32021,0.24311
1965.39147,0.24146
1963.46272,0.23922
1961.53398,0.23745
1959.60523,0.23725
1957.67649,0.23831
1955.74774,0.23958
1953.81900,0.24060
1951.89025,0.24139
1949.96151,0.24192
1948.03276,0.24219
1946.10402,0.24224
1944.17527,0.24201
1942.24652,0.24161
1940.31778,0.24141
1938.38903,0.24143
1936.46029,0.24134
1934.53154,0.24107
1932.60280,0.24066
1930.67405,0.24002
1928.74531,0.23919
1926.81656,0.23844
1924.88782,0.23782
1922.95907,0.23728
1921.03033,0.23679
1919.10158,0.23625
1917.17284,0.23562
1915.24409,0.23509
1913.31534,0.23478
1911.38660,0.23462
1909.45785,0.23450
1907.52911,0.23433
1905.60036,0.23401
1903.67162,0.23341
1901.74287,0.23257
1899.81413,0.23154
1897.88538,0.23036
1895.95664,0.22913
1894.02789,0.22822
1892.09915,0.22796
1890.17040,0.22854
1888.24166,0.22985
1886.31291,0.23143
1884.38417,0.23273
1882.45542,0.23333
1880.52667,0.23340
1878.59793,0.23342
1876.66918,0.23351
1874.74044,0.23356
1872.81169,0.23346
1870.88295,0.23320
1868.95420,0.23284
1867.02546,0.23235
1865.09671,0.23165
1863.16797,0.23078
1861.23922,0.22986
1859.31048,0.22894
1857.38173,0.22806
1855.45299,0.22717
1853.52424,0.22629
1851.59549,0.22553
1849.66675,0.22484
1847.73800,0.22408
1845.80926,0.22315
1843.88051,0.22199
1841.95177,0.22063
1840.02302,0.21918
1838.09428,0.21755
1836.16553,0.21572
1834.23679,0.21406
1832.30804,0.21269
1830.37930,0.21150
1828.45055,0.21059
1826.52181,0.21003
1824.59306,0.20955
1822.66432,0.20881
1820.73557,0.20752
1818.80682,0.20538
1816.87808,0.20250
1814.94933,0.19903
1813.02059,0.19462
1811.09184,0.18843
1809.16310,0.17955
1807.23435,0.16671
1805.30561,0.14854
1803.37686,0.12538
1801.44812,0.10091
1799.51937,0.08172
1797.59063,0.07174
1795.66188,0.06872
1793.73314,0.06999
1791.80439,0.07779
1789.87565,0.09397
1787.94690,0.11445
1786.01815,0.13434
1784.08941,0.15049
1782.16066,0.16207
1780.23192,0.17006
1778.30317,0.17549
1776.37443,0.17910
1774.44568,0.18137
1772.51694,0.18241
1770.58819,0.18230
1768.65945,0.18127
1766.73070,0.17959
1764.80196,0.17764
1762.87321,0.17538
1760.94447,0.17268
1759.01572,0.17001
1757.08697,0.16751
1755.15823,0.16502
1753.22948,0.16261
1751.30074,0.16009
1749.37199,0.15722
1747.44325,0.15406
1745.51450,0.15084
1743.58576,0.14756
1741.65701,0.14355
1739.72827,0.13831
1737.79952,0.13436
1735.87078,0.13504
1733.94203,0.13970
1732.01329,0.14247
1730.08454,0.14178
1728.15580,0.14282
1726.22705,0.14816
1724.29830,0.15467
1722.36956,0.15911
1720.44081,0.16152
1718.51207,0.16287
1716.58332,0.16349
1714.65458,0.16378
1712.72583,0.16406
1710.79709,0.16419
1708.86834,0.16418
1706.93960,0.16432
1705.01085,0.16467
1703.08211,0.16503
1701.15336,0.16522
1699.22462,0.16522
1697.29587,0.16520
1695.36713,0.16511
1693.43838,0.16486
1691.50963,0.16471
1689.58089,0.16483
1687.65214,0.16508
1685.72340,0.16530
1683.79465,0.16549
1681.86591,0.16559
1679.93716,0.16558
1678.00842,0.16559
1676.07967,0.16567
1674.15093,0.16580
1672.22218,0.16613
1670.29344,0.16657
1668.36469,0.16667
1666.43595,0.16630
1664.50720,0.16557
1662.57845,0.16444
1660.64971,0.16296
1658.72096,0.16137
1656.79222,0.15981
1654.86347,0.15774
1652.93473,0.15398
1651.00598,0.14991
1649.07724,0.14656
1647.14849,0.14201
1645.21975,0.13544
1643.29100,0.12843
1641.36226,0.12261
1639.43351,0.11986
1637.50477,0.12182
1635.57602,0.12815
1633.64728,0.13520
1631.71853,0.14017
1629.78978,0.14362
1627.86104,0.14616
1625.93229,0.14802
1624.00355,0.14912
1622.07480,0.14936
1620.14606,0.14927
1618.21731,0.14939
1616.28857,0.14956
1614.35982,0.14955
1612.43108,0.14950
1610.50233,0.14959
1608.57359,0.14987
1606.64484,0.15019
1604.71610,0.15044
1602.78735,0.15047
1600.85861,0.15014
1598.92986,0.14952
1597.00111,0.14866
1595.07237,0.14739
1593.14362,0.14534
1591.21488,0.14244
1589.28613,0.13950
1587.35739,0.13777
1585.42864,0.13754
1583.49990,0.13807
1581.57115,0.13895
1579.64241,0.14041
1577.71366,0.14262
1575.78492,0.14508
1573.85617,0.14680
1571.92743,0.14755
1569.99868,0.14751
1568.06993,0.14701
1566.14119,0.14632
1564.21244,0.14542
1562.28370,0.14443
1560.35495,0.14330
1558.42621,0.14184
1556.49746,0.14088
1554.56872,0.14087
1552.63997,0.14126
1550.71123,0.14133
1548.78248,0.14074
1546.85374,0.13952
1544.92499,0.13783
1542.99625,0.13601
1541.06750,0.13408
1539.13876,0.13164
1537.21001,0.12932
1535.28126,0.12728
1533.35252,0.12497
1531.42377,0.12242
1529.49503,0.11996
1527.56628,0.11754
1525.63754,0.11505
1523.70879,0.11254
1521.78005,0.10982
1519.85130,0.10700
1517.92256,0.10426
1515.99381,0.10141
1514.06507,0.09855
1512.13632,0.09589
1510.20758,0.09349
1508.27883,0.09103
1506.35008,0.08793
1504.42134,0.08480
1502.49259,0.08230
1500.56385,0.07994
1498.63510,0.07736
1496.70636,0.07451
1494.77761,0.07170
1492.84887,0.06917
1490.92012,0.06658
1488.99138,0.06375
1487.06263,0.06096
1485.13389,0.05850
1483.20514,0.05627
1481.27640,0.05404
1479.34765,0.05200
1477.41891,0.05023
1475.49016,0.04844
1473.56141,0.04651
1471.63267,0.04462
1469.70392,0.04300
1467.77518,0.04162
1465.84643,0.04041
1463.91769,0.03960
1461.98894,0.03934
1460.06020,0.03943
1458.13145,0.03973
1456.20271,0.04011
1454.27396,0.04050
1452.34522,0.04105
1450.41647,0.04177
1448.48773,0.04261
1446.55898,0.04337
1444.63024,0.04388
1442.70149,0.04430
1440.77274,0.04473
1438.84400,0.04511
1436.91525,0.04555
1434.98651,0.04616
1433.05776,0.04697
1431.12902,0.04797
1429.20027,0.04905
1427.27153,0.05010
1425.34278,0.05118
1423.41404,0.05226
1421.48529,0.05340
1419.55655,0.05473
1417.62780,0.05615
1415.69906,0.05757
1413.77031,0.05897
1411.84156,0.06014
1409.91282,0.06085
1407.98407,0.06083
1406.05533,0.05989
1404.12658,0.05838
1402.19784,0.05710
1400.26909,0.05650
1398.34035,0.05657
1396.41160,0.05703
1394.48286,0.05758
1392.55411,0.05798
1390.62537,0.05813
1388.69662,0.05779
1386.76788,0.05649
1384.83913,0.05391
1382.91039,0.05011
1380.98164,0.04587
1379.05289,0.04281
1377.12415,0.04237
1375.19540,0.04459
1373.26666,0.04842
1371.33791,0.05301
1369.40917,0.05789
1367.48042,0.06210
1365.55168,0.06464
1363.62293,0.06525
1361.69419,0.06435
1359.76544,0.06347
1357.83670,0.06466
1355.90795,0.06865
1353.97921,0.07446
1352.05046,0.08062
1350.12172,0.08618
1348.19297,0.09107
1346.26422,0.09559
1344.33548,0.09966
1342.40673,0.10304
1340.47799,0.10572
1338.54924,0.10771
1336.62050,0.10887
1334.69175,0.10882
1332.76301,0.10750
1330.83426,0.10604
1328.90552,0.10603
1326.97677,0.10781
1325.04803,0.11082
1323.11928,0.11430
1321.19054,0.11728
1319.26179,0.11964
1317.33304,0.12206
1315.40430,0.12471
1313.47555,0.12693
1311.54681,0.12751
1309.61806,0.12487
1307.68932,0.11826
1305.76057,0.11089
1303.83183,0.10901
1301.90308,0.11400
1299.97434,0.12048
1298.04559,0.12464
1296.11685,0.12764
1294.18810,0.13168
1292.25936,0.13705
1290.33061,0.14249
1288.40187,0.14680
1286.47312,0.14992
1284.54437,0.15254
1282.61563,0.15496
1280.68688,0.15732
1278.75814,0.16002
1276.82939,0.16272
1274.90065,0.16447
1272.97190,0.16467
1271.04316,0.16337
1269.11441,0.16115
1267.18567,0.15874
1265.25692,0.15635
1263.32818,0.15329
1261.39943,0.14816
1259.47069,0.13971
1257.54194,0.12992
1255.61320,0.12516
1253.68445,0.12999
1251.75570,0.14091
1249.82696,0.15115
1247.89821,0.15815
1245.96947,0.16262
1244.04072,0.16544
1242.11198,0.16730
1240.18323,0.16880
1238.25449,0.17043
1236.32574,0.17218
1234.39700,0.17345
1232.46825,0.17369
1230.53951,0.17312
1228.61076,0.17221
1226.68202,0.17073
1224.75327,0.16794
1222.82452,0.16398
1220.89578,0.16055
1218.96703,0.15969
1217.03829,0.16180
1215.10954,0.16574
1213.18080,0.16983
1211.25205,0.17278
1209.32331,0.17450
1207.39456,0.17552
1205.46582,0.17582
1203.53707,0.17523
1201.60833,0.17389
1199.67958,0.17226
1197.75084,0.17072
1195.82209,0.16939
1193.89335,0.16805
1191.96460,0.16644
1190.03585,0.16440
1188.10711,0.16151
1186.17836,0.15721
1184.24962,0.15149
1182.32087,0.14486
1180.39213,0.13767
1178.46338,0.12942
1176.53464,0.11871
1174.60589,0.10459
1172.67715,0.08811
1170.74840,0.07285
1168.81966,0.06290
1166.89091,0.06017
1164.96217,0.06370
1163.03342,0.07067
1161.10467,0.07835
1159.17593,0.08544
1157.24718,0.09149
1155.31844,0.09644
1153.38969,0.10095
1151.46095,0.10665
1149.53220,0.11499
1147.60346,0.12605
1145.67471,0.13865
1143.74597,0.15139
1141.81722,0.16368
1139.88848,0.17545
1137.95973,0.18634
1136.03099,0.19562
1134.10224,0.20280
1132.17350,0.20766
1130.24475,0.21052
1128.31600,0.21217
1126.38726,0.21326
1124.45851,0.21371
1122.52977,0.21295
1120.60102,0.21077
1118.67228,0.20757
1116.74353,0.20393
1114.81479,0.20031
1112.88604,0.19634
1110.95730,0.19105
1109.02855,0.18377
1107.09981,0.17440
1105.17106,0.16458
1103.24232,0.15850
1101.31357,0.16003
1099.38483,0.16851
1097.45608,0.17943
1095.52733,0.18920
1093.59859,0.19680
1091.66984,0.20218
1089.74110,0.20550
1087.81235,0.20747
1085.88361,0.20885
1083.95486,0.21034
1082.02612,0.21265
1080.09737,0.21543
1078.16863,0.21708
1076.23988,0.21709
1074.31114,0.21620
1072.38239,0.21512
1070.45365,0.21421
1068.52490,0.21339
1066.59615,0.21286
1064.66741,0.21288
1062.73866,0.21275
1060.80992,0.21177
1058.88117,0.21008
1056.95243,0.20793
1055.02368,0.20516
1053.09494,0.20142
1051.16619,0.19627
1049.23745,0.18912
1047.30870,0.18019
1045.37996,0.17251
1043.45121,0.17078
1041.52247,0.17587
1039.59372,0.18322
1037.66498,0.18825
1035.73623,0.19032
1033.80748,0.19112
1031.87874,0.19149
1029.94999,0.19097
1028.02125,0.18960
1026.09250,0.18803
1024.16376,0.18617
1022.23501,0.18362
1020.30627,0.18047
1018.37752,0.17685
1016.44878,0.17273
1014.52003,0.16813
1012.59129,0.16270
1010.66254,0.15573
1008.73380,0.14673
1006.80505,0.13518
1004.87631,0.11994
1002.94756,0.10084
1001.01881,0.08107
999.09007,0.06701
997.16132,0.06459
995.23258,0.07494
993.30383,0.09366
991.37509,0.11379
989.44634,0.12991
987.51760,0.13974
985.58885,0.14264
983.66011,0.13829
981.73136,0.12687
979.80262,0.10962
977.87387,0.08963
975.94513,0.07184
974.01638,0.06135
972.08763,0.06220
970.15889,0.07568
968.23014,0.09795
966.30140,0.12197
964.37265,0.14258
962.44391,0.15834
960.51516,0.16988
958.58642,0.17845
956.65767,0.18517
954.72893,0.19047
952.80018,0.19412
950.87144,0.19610
948.94269,0.19684
947.01395,0.19584
945.08520,0.19194
943.15646,0.18579
941.22771,0.18104
939.29896,0.18241
937.37022,0.19086
935.44147,0.20198
933.51273,0.21117
931.58398,0.21751
929.65524,0.22195
927.72649,0.22517
925.79775,0.22745
923.86900,0.22898
921.94026,0.22979
920.01151,0.22996
918.08277,0.22964
916.15402,0.22860
914.22528,0.22631
912.29653,0.22280
910.36779,0.21831
908.43904,0.21172
906.51029,0.20044
904.58155,0.18270
902.65280,0.16047
900.72406,0.14153
898.79531,0.13583
896.86657,0.14638
894.93782,0.16555
893.00908,0.18227
891.08033,0.18929
889.15159,0.18135
887.22284,0.15498
885.29410,0.11751
883.36535,0.08516
881.43661,0.06565
879.50786,0.05482
877.57911,0.04870
875.65037,0.04753
873.72162,0.05187
871.79288,0.06253
869.86413,0.08058
867.93539,0.10355
866.00664,0.12614
864.07790,0.14466
862.14915,0.15799
860.22041,0.16635
858.29166,0.17081
856.36292,0.17242
854.43417,0.17061
852.50543,0.16171
850.57668,0.14297
848.64794,0.12281
846.71919,0.11143
844.79044,0.10146
842.86170,0.08569
840.93295,0.07804
839.00421,0.09149
837.07546,0.11786
835.14672,0.14210
833.21797,0.15882
831.28923,0.17017
829.36048,0.17852
827.43174,0.18464
825.50299,0.18857
823.57425,0.19051
821.64550,0.19043
819.71676,0.18775
817.78801,0.18189
815.85926,0.17183
813.93052,0.15697
812.00177,0.14023
810.07303,0.12821
808.14428,0.12680
806.21554,0.13659
804.28679,0.15233
802.35805,0.16752
800.42930,0.17886
798.50056,0.18659
796.57181,0.19239
794.64307,0.19744
792.71432,0.20193
790.78558,0.20591
788.85683,0.20992
786.92809,0.21427
784.99934,0.21845
783.07059,0.22190
781.14185,0.22473
779.21310,0.22723
777.28436,0.22927
775.35561,0.23083
773.42687,0.23239
771.49812,0.23404
769.56938,0.23544
767.64063,0.23675
765.71189,0.23835
763.78314,0.24028
761.85440,0.24220
759.92565,0.24371
757.99691,0.24480
756.06816,0.24555
754.13942,0.24588
752.21067,0.24577
750.28192,0.24526
748.35318,0.24429
746.42443,0.24305
744.49569,0.24165
742.56694,0.23989
740.63820,0.23781
738.70945,0.23581
736.78071,0.23384
734.85196,0.23127
732.92322,0.22750
730.99447,0.22263
729.06573,0.21675
727.13698,0.20930
725.20824,0.19921
723.27949,0.18537
721.35074,0.16689
719.42200,0.14198
717.49325,0.11005
715.56451,0.07779
713.63576,0.05850
711.70702,0.06293
709.77827,0.09025
707.84953,0.12774
705.92078,0.16201
703.99204,0.18783
702.06329,0.20529
700.13455,0.21640
698.20580,0.22415
696.27706,0.23000
694.34831,0.23424
692.41957,0.23775
690.49082,0.24082
688.56207,0.24287
686.63333,0.24377
684.70458,0.24380
682.77584,0.24327
680.84709,0.24298
678.91835,0.24366
676.98960,0.24444
675.06086,0.24421
673.13211,0.24356
671.20337,0.24356
669.27462,0.24417
667.34588,0.24443
665.41713,0.24412
663.48839,0.24376
661.55964,0.24334
659.63090,0.24279
657.70215,0.24214
655.77340,0.24140
653.84466,0.24064
651.91591,0.23994
649.98717,0.23927
648.05842,0.23841
646.12968,0.23729
644.20093,0.23587
642.27219,0.23448
640.34344,0.23379
638.41470,0.23328
636.48595,0.23204
634.55721,0.23042
632.62846,0.22897
630.69972,0.22771
628.77097,0.22640
626.84222,0.22529
624.91348,0.22491
622.98473,0.22489
621.05599,0.22443
619.12724,0.22353
617.19850,0.22276
615.26975,0.22203
613.34101,0.22078
611.41226,0.21914
609.48352,0.21733
607.55477,0.21497
605.62603,0.21264
603.69728,0.21128
601.76854,0.20991
599.83979,0.20742
