7497.03301,0.31653
7495.10426,0.31363
7493.17552,0.31156
7491.24677,0.31120
7489.31803,0.31547
7487.38928,0.31982
7485.46054,0.31995
7483.53179,0.31947
7481.60305,0.32013
7479.67430,0.32079
7477.74556,0.32041
7475.81681,0.31780
7473.88807,0.31463
7471.95932,0.31180
7470.03057,0.30906
7468.10183,0.30944
7466.17308,0.31244
7464.24434,0.31566
7462.31559,0.32031
7460.38685,0.32508
7458.45810,0.32717
7456.52936,0.32644
7454.60061,0.32317
7452.67187,0.31847
7450.74312,0.31508
7448.81438,0.31466
7446.88563,0.31589
7444.95689,0.31544
7443.02814,0.31216
7441.09940,0.31008
7439.17065,0.31200
7437.24190,0.31475
7435.31316,0.31397
7433.38441,0.31014
7431.45567,0.30715
7429.52692,0.30732
7427.59818,0.31296
7425.66943,0.32257
7423.74069,0.32693
7421.81194,0.32131
7419.88320,0.31226
7417.95445,0.30919
7416.02571,0.31295
7414.09696,0.31607
7412.16822,0.31519
7410.23947,0.31381
7408.31073,0.31617
7406.38198,0.32144
7404.45323,0.32226
7402.52449,0.31669
7400.59574,0.31299
7398.66700,0.31500
7396.73825,0.31779
7394.80951,0.31945
7392.88076,0.32219
7390.95202,0.32397
7389.02327,0.32172
7387.09453,0.31820
7385.16578,0.31595
7383.23704,0.31306
7381.30829,0.31112
7379.37955,0.31375
7377.45080,0.31683
7375.52205,0.31654
7373.59331,0.31635
7371.66456,0.31619
7369.73582,0.31477
7367.80707,0.31509
7365.87833,0.31567
7363.94958,0.31395
7362.02084,0.31374
7360.09209,0.31674
7358.16335,0.31761
7356.23460,0.31498
7354.30586,0.31346
7352.37711,0.31351
7350.44837,0.31279
7348.51962,0.31003
7346.59088,0.30735
7344.66213,0.30848
7342.73338,0.31176
7340.80464,0.31384
7338.87589,0.31366
7336.94715,0.31107
7335.01840,0.30721
7333.08966,0.30452
7331.16091,0.30566
7329.23217,0.30935
7327.30342,0.31089
7325.37468,0.30949
7323.44593,0.30830
7321.51719,0.30890
7319.58844,0.30960
7317.65970,0.30850
7315.73095,0.30670
7313.80221,0.30580
7311.87346,0.30479
7309.94471,0.30402
7308.01597,0.30662
7306.08722,0.31123
7304.15848,0.31186
7302.22973,0.30994
7300.30099,0.31166
7298.37224,0.31477
7296.44350,0.31482
7294.51475,0.31403
7292.58601,0.31408
7290.65726,0.31351
7288.72852,0.31179
7286.79977,0.31002
7284.87103,0.30893
7282.94228,0.30795
7281.01353,0.30845
7279.08479,0.31137
7277.15604,0.31259
7275.22730,0.31001
7273.29855,0.30858
7271.36981,0.31151
7269.44106,0.31418
7267.51232,0.31242
7265.58357,0.31043
7263.65483,0.31068
7261.72608,0.30957
7259.79734,0.30897
7257.86859,0.31144
7255.93985,0.31319
7254.01110,0.31276
7252.08236,0.31175
7250.15361,0.31126
7248.22486,0.31267
7246.29612,0.31447
7244.36737,0.31272
7242.43863,0.30913
7240.50988,0.30948
7238.58114,0.31189
7236.65239,0.31140
7234.72365,0.31086
7232.79490,0.31301
7230.86616,0.31374
7228.93741,0.31166
7227.00867,0.30946
7225.07992,0.30735
7223.15118,0.30733
7221.22243,0.31048
7219.29369,0.31215
7217.36494,0.31084
7215.43619,0.30943
7213.50745,0.30828
7211.57870,0.30651
7209.64996,0.30605
7207.72121,0.30777
7205.79247,0.30776
7203.86372,0.30586
7201.93498,0.30649
7200.00623,0.30935
7198.07749,0.31106
7196.14874,0.30953
7194.22000,0.30666
7192.29125,0.30743
7190.36251,0.31187
7188.43376,0.31347
7186.50501,0.30885
7184.57627,0.30334
7182.64752,0.30254
7180.71878,0.30519
7178.79003,0.30866
7176.86129,0.31186
7174.93254,0.31422
7173.00380,0.31519
7171.07505,0.31356
7169.14631,0.31068
7167.21756,0.30827
7165.28882,0.30600
7163.36007,0.30634
7161.43133,0.30969
7159.50258,0.31035
7157.57384,0.30732
7155.64509,0.30569
7153.71634,0.30590
7151.78760,0.30590
7149.85885,0.30700
7147.93011,0.30816
7146.00136,0.30605
7144.07262,0.30218
7142.14387,0.30138
7140.21513,0.30602
7138.28638,0.31301
7136.35764,0.31652
7134.42889,0.31516
7132.50015,0.31403
7130.57140,0.31573
7128.64266,0.31663
7126.71391,0.31483
7124.78516,0.31138
7122.85642,0.30780
7120.92767,0.30660
7118.99893,0.30711
7117.07018,0.30675
7115.14144,0.30685
7113.21269,0.30905
7111.28395,0.31100
7109.35520,0.31035
7107.42646,0.30916
7105.49771,0.31055
7103.56897,0.31239
7101.64022,0.31164
7099.71148,0.31049
7097.78273,0.31175
7095.85399,0.31393
7093.92524,0.31393
7091.99649,0.31198
7090.06775,0.31070
7088.13900,0.31103
7086.21026,0.31134
7084.28151,0.30955
7082.35277,0.30721
7080.42402,0.30708
7078.49528,0.30842
7076.56653,0.31009
7074.63779,0.31190
7072.70904,0.31341
7070.78030,0.31366
7068.85155,0.31104
7066.92281,0.30765
7064.99406,0.30734
7063.06532,0.30961
7061.13657,0.31218
7059.20782,0.31326
7057.27908,0.31199
7055.35033,0.31124
7053.42159,0.31378
7051.49284,0.31667
7049.56410,0.31715
7047.63535,0.31589
7045.70661,0.31338
7043.77786,0.31204
7041.84912,0.31300
7039.92037,0.31305
7037.99163,0.31201
7036.06288,0.31237
7034.13414,0.31380
7032.20539,0.31413
7030.27664,0.31205
7028.34790,0.30917
7026.41915,0.30798
7024.49041,0.30874
7022.56166,0.31039
7020.63292,0.31290
7018.70417,0.31592
7016.77543,0.31801
7014.84668,0.31846
7012.91794,0.31709
7010.98919,0.31493
7009.06045,0.31388
7007.13170,0.31361
7005.20296,0.31346
7003.27421,0.31340
7001.34547,0.31177
6999.41672,0.30841
6997.48797,0.30672
6995.55923,0.30898
6993.63048,0.31310
6991.70174,0.31532
6989.77299,0.31559
6987.84425,0.31577
6985.91550,0.31563
6983.98676,0.31440
6982.05801,0.31212
6980.12927,0.31110
6978.20052,0.31227
6976.27178,0.31126
6974.34303,0.30899
6972.41429,0.31093
6970.48554,0.31387
6968.55680,0.31294
6966.62805,0.31140
6964.69930,0.31174
6962.77056,0.31011
6960.84181,0.30643
6958.91307,0.30627
6956.98432,0.30905
6955.05558,0.31086
6953.12683,0.31173
6951.19809,0.31185
6949.26934,0.31191
6947.34060,0.31258
6945.41185,0.31340
6943.48311,0.31432
6941.55436,0.31268
6939.62562,0.30797
6937.69687,0.30570
6935.76812,0.30716
6933.83938,0.30874
6931.91063,0.30938
6929.98189,0.30972
6928.05314,0.31008
6926.12440,0.31093
6924.19565,0.31172
6922.26691,0.31088
6920.33816,0.30977
6918.40942,0.31102
6916.48067,0.31256
6914.55193,0.31227
6912.62318,0.31156
6910.69444,0.31157
6908.76569,0.31197
6906.83695,0.31133
6904.90820,0.31012
6902.97945,0.31067
6901.05071,0.31199
6899.12196,0.31222
6897.19322,0.31314
6895.26447,0.31487
6893.33573,0.31438
6891.40698,0.31224
6889.47824,0.31076
6887.54949,0.31053
6885.62075,0.31247
6883.69200,0.31510
6881.76326,0.31589
6879.83451,0.31538
6877.90577,0.31454
6875.97702,0.31305
6874.04828,0.31124
6872.11953,0.31068
6870.19078,0.31209
6868.26204,0.31334
6866.33329,0.31342
6864.40455,0.31390
6862.47580,0.31380
6860.54706,0.31241
6858.61831,0.31184
6856.68957,0.31161
6854.76082,0.31134
6852.83208,0.31222
6850.90333,0.31290
6848.97459,0.31135
6847.04584,0.30824
6845.11710,0.30705
6843.18835,0.30972
6841.25960,0.31369
6839.33086,0.31514
6837.40211,0.31334
6835.47337,0.30994
6833.54462,0.30699
6831.61588,0.30702
6829.68713,0.30857
6827.75839,0.30817
6825.82964,0.30738
6823.90090,0.30812
6821.97215,0.30930
6820.04341,0.31078
6818.11466,0.31360
6816.18592,0.31626
6814.25717,0.31626
6812.32843,0.31427
6810.39968,0.31242
6808.47093,0.31211
6806.54219,0.31283
6804.61344,0.31269
6802.68470,0.31119
6800.75595,0.31000
6798.82721,0.31214
6796.89846,0.31613
6794.96972,0.31610
6793.04097,0.31311
6791.11223,0.31221
6789.18348,0.31205
6787.25474,0.31024
6785.32599,0.30977
6783.39725,0.31291
6781.46850,0.31521
6779.53975,0.31276
6777.61101,0.30980
6775.68226,0.31034
6773.75352,0.31257
6771.82477,0.31427
6769.89603,0.31338
6767.96728,0.30939
6766.03854,0.30626
6764.10979,0.30590
6762.18105,0.30561
6760.25230,0.30529
6758.32356,0.30764
6756.39481,0.31098
6754.46607,0.31160
6752.53732,0.31050
6750.60858,0.31011
6748.67983,0.30998
6746.75108,0.30899
6744.82234,0.30786
6742.89359,0.30775
6740.96485,0.30920
6739.03610,0.31218
6737.10736,0.31437
6735.17861,0.31403
6733.24987,0.31308
6731.32112,0.31270
6729.39238,0.31212
6727.46363,0.31218
6725.53489,0.31374
6723.60614,0.31443
6721.67740,0.31231
6719.74865,0.30971
6717.81991,0.30891
6715.89116,0.30933
6713.96241,0.30972
6712.03367,0.30985
6710.10492,0.30961
6708.17618,0.30834
6706.24743,0.30820
6704.31869,0.31204
6702.38994,0.31611
6700.46120,0.31643
6698.53245,0.31467
6696.60371,0.31161
6694.67496,0.30860
6692.74622,0.30885
6690.81747,0.31085
6688.88873,0.31182
6686.95998,0.31244
6685.03123,0.31314
6683.10249,0.31258
6681.17374,0.31109
6679.24500,0.31070
6677.31625,0.31089
6675.38751,0.30990
6673.45876,0.30930
6671.53002,0.31097
6669.60127,0.31277
6667.67253,0.31196
6665.74378,0.31030
6663.81504,0.31056
6661.88629,0.31142
6659.95755,0.31078
6658.02880,0.30967
6656.10006,0.30962
6654.17131,0.31061
6652.24256,0.31160
6650.31382,0.31240
6648.38507,0.31324
6646.45633,0.31294
6644.52758,0.31188
6642.59884,0.31238
6640.67009,0.31392
6638.74135,0.31392
6636.81260,0.31176
6634.88386,0.30947
6632.95511,0.30917
6631.02637,0.31104
6629.09762,0.31302
6627.16888,0.31334
6625.24013,0.31291
6623.31139,0.31245
6621.38264,0.31180
6619.45389,0.31277
6617.52515,0.31565
6615.59640,0.31654
6613.66766,0.31432
6611.73891,0.31301
6609.81017,0.31438
6607.88142,0.31622
6605.95268,0.31648
6604.02393,0.31468
6602.09519,0.31150
6600.16644,0.30906
6598.23770,0.30899
6596.30895,0.30982
6594.38021,0.30959
6592.45146,0.30871
6590.52271,0.30897
6588.59397,0.31107
6586.66522,0.31272
6584.73648,0.31178
6582.80773,0.30988
6580.87899,0.31008
6578.95024,0.31195
6577.02150,0.31318
6575.09275,0.31379
6573.16401,0.31356
6571.23526,0.31146
6569.30652,0.30964
6567.37777,0.31004
6565.44903,0.31096
6563.52028,0.31128
6561.59154,0.31158
6559.66279,0.31161
6557.73404,0.31090
6555.80530,0.31068
6553.87655,0.31260
6551.94781,0.31557
6550.01906,0.31665
6548.09032,0.31429
6546.16157,0.31093
6544.23283,0.31055
6542.30408,0.31285
6540.37534,0.31498
6538.44659,0.31516
6536.51785,0.31362
6534.58910,0.31159
6532.66036,0.30924
6530.73161,0.30803
6528.80287,0.30908
6526.87412,0.31034
6524.94537,0.31112
6523.01663,0.31200
6521.08788,0.31251
6519.15914,0.31327
6517.23039,0.31427
6515.30165,0.31433
6513.37290,0.31346
6511.44416,0.31176
6509.51541,0.31064
6507.58667,0.31217
6505.65792,0.31422
6503.72918,0.31461
6501.80043,0.31419
6499.87169,0.31252
6497.94294,0.31012
6496.01419,0.30994
6494.08545,0.31218
6492.15670,0.31408
6490.22796,0.31420
6488.29921,0.31399
6486.37047,0.31462
6484.44172,0.31509
6482.51298,0.31489
6480.58423,0.31378
6478.65549,0.31169
6476.72674,0.31036
6474.79800,0.31029
6472.86925,0.31030
6470.94051,0.31027
6469.01176,0.31025
6467.08302,0.30994
6465.15427,0.30998
6463.22552,0.31130
6461.29678,0.31302
6459.36803,0.31404
6457.43929,0.31461
6455.51054,0.31462
6453.58180,0.31424
6451.65305,0.31396
6449.72431,0.31353
6447.79556,0.31327
6445.86682,0.31430
6443.93807,0.31554
6442.00933,0.31377
6440.08058,0.30975
6438.15184,0.30803
6436.22309,0.30959
6434.29434,0.31143
6432.36560,0.31205
6430.43685,0.31222
6428.50811,0.31206
6426.57936,0.31108
6424.65062,0.30957
6422.72187,0.30939
6420.79313,0.31099
6418.86438,0.31168
6416.93564,0.31154
6415.00689,0.31261
6413.07815,0.31348
6411.14940,0.31267
6409.22066,0.31134
6407.29191,0.31070
6405.36317,0.31126
6403.43442,0.31264
6401.50567,0.31384
6399.57693,0.31479
6397.64818,0.31482
6395.71944,0.31394
6393.79069,0.31445
6391.86195,0.31586
6389.93320,0.31531
6388.00446,0.31343
6386.07571,0.31233
6384.14697,0.31195
6382.21822,0.31254
6380.28948,0.31397
6378.36073,0.31429
6376.43199,0.31430
6374.50324,0.31510
6372.57450,0.31518
6370.64575,0.31464
6368.71700,0.31440
6366.78826,0.31413
6364.85951,0.31342
6362.93077,0.31256
6361.00202,0.31179
6359.07328,0.31108
6357.14453,0.31048
6355.21579,0.31011
6353.28704,0.31075
6351.35830,0.31183
6349.42955,0.31197
6347.50081,0.31144
6345.57206,0.31045
6343.64332,0.30930
6341.71457,0.30947
6339.78582,0.31164
6337.85708,0.31346
6335.92833,0.31255
6333.99959,0.31062
6332.07084,0.31001
6330.14210,0.31019
6328.21335,0.30997
6326.28461,0.30913
6324.35586,0.30890
6322.42712,0.30998
6320.49837,0.31095
6318.56963,0.31138
6316.64088,0.31146
6314.71214,0.31041
6312.78339,0.30871
6310.85465,0.30729
6308.92590,0.30705
6306.99715,0.30884
6305.06841,0.31087
6303.13966,0.31116
6301.21092,0.31126
6299.28217,0.31218
6297.35343,0.31212
6295.42468,0.31113
6293.49594,0.31126
6291.56719,0.31200
6289.63845,0.31197
6287.70970,0.31178
6285.78096,0.31153
6283.85221,0.31040
6281.92347,0.30919
6279.99472,0.30893
6278.06598,0.30979
6276.13723,0.31152
6274.20848,0.31228
6272.27974,0.31093
6270.35099,0.30966
6268.42225,0.31046
6266.49350,0.31140
6264.56476,0.31050
6262.63601,0.30939
6260.70727,0.30986
6258.77852,0.31128
6256.84978,0.31253
6254.92103,0.31295
6252.99229,0.31222
6251.06354,0.31095
6249.13480,0.31000
6247.20605,0.30930
6245.27730,0.30896
6243.34856,0.30888
6241.41981,0.30912
6239.49107,0.31048
6237.56232,0.31245
6235.63358,0.31344
6233.70483,0.31269
6231.77609,0.31117
6229.84734,0.31043
6227.91860,0.30988
6225.98985,0.30923
6224.06111,0.30969
6222.13236,0.31011
6220.20362,0.30909
6218.27487,0.30841
6216.34613,0.30914
6214.41738,0.31025
6212.48863,0.31086
6210.55989,0.31057
6208.63114,0.31005
6206.70240,0.30990
6204.77365,0.30951
6202.84491,0.30933
6200.91616,0.31014
6198.98742,0.31051
6197.05867,0.30956
6195.12993,0.30840
6193.20118,0.30809
6191.27244,0.30882
6189.34369,0.30941
6187.41495,0.30895
6185.48620,0.30815
6183.55746,0.30766
6181.62871,0.30798
6179.69996,0.30916
6177.77122,0.30963
6175.84247,0.30821
6173.91373,0.30683
6171.98498,0.30734
6170.05624,0.30766
6168.12749,0.30684
6166.19875,0.30676
6164.27000,0.30692
6162.34126,0.30590
6160.41251,0.30439
6158.48377,0.30375
6156.55502,0.30439
6154.62628,0.30564
6152.69753,0.30710
6150.76878,0.30780
6148.84004,0.30654
6146.91129,0.30499
6144.98255,0.30546
6143.05380,0.30777
6141.12506,0.30999
6139.19631,0.31026
6137.26757,0.30916
6135.33882,0.30864
6133.41008,0.30898
6131.48133,0.30921
6129.55259,0.30865
6127.62384,0.30694
6125.69510,0.30544
6123.76635,0.30571
6121.83761,0.30597
6119.90886,0.30474
6117.98011,0.30370
6116.05137,0.30409
6114.12262,0.30552
6112.19388,0.30692
6110.26513,0.30751
6108.33639,0.30750
6106.40764,0.30652
6104.47890,0.30438
6102.55015,0.30294
6100.62141,0.30394
6098.69266,0.30682
6096.76392,0.30912
6094.83517,0.30910
6092.90643,0.30849
6090.97768,0.30924
6089.04893,0.30938
6087.12019,0.30754
6085.19144,0.30608
6083.26270,0.30614
6081.33395,0.30691
6079.40521,0.30890
6077.47646,0.31102
6075.54772,0.31042
6073.61897,0.30824
6071.69023,0.30742
6069.76148,0.30779
6067.83274,0.30784
6065.90399,0.30742
6063.97525,0.30719
6062.04650,0.30710
6060.11776,0.30703
6058.18901,0.30763
6056.26026,0.30835
6054.33152,0.30813
6052.40277,0.30783
6050.47403,0.30812
6048.54528,0.30760
6046.61654,0.30612
6044.68779,0.30569
6042.75905,0.30640
6040.83030,0.30655
6038.90156,0.30594
6036.97281,0.30564
6035.04407,0.30657
6033.11532,0.30797
6031.18658,0.30778
6029.25783,0.30629
6027.32909,0.30525
6025.40034,0.30445
6023.47159,0.30360
6021.54285,0.30393
6019.61410,0.30590
6017.68536,0.30772
6015.75661,0.30744
6013.82787,0.30563
6011.89912,0.30465
6009.97038,0.30518
6008.04163,0.30604
6006.11289,0.30644
6004.18414,0.30614
6002.25540,0.30599
6000.32665,0.30648
5998.39791,0.30588
5996.46916,0.30427
5994.54041,0.30374
5992.61167,0.30437
5990.68292,0.30551
5988.75418,0.30669
5986.82543,0.30682
5984.89669,0.30574
5982.96794,0.30463
5981.03920,0.30461
5979.11045,0.30551
5977.18171,0.30575
5975.25296,0.30474
5973.32422,0.30402
5971.39547,0.30428
5969.46673,0.30401
5967.53798,0.30280
5965.60924,0.30225
5963.68049,0.30305
5961.75174,0.30463
5959.82300,0.30581
5957.89425,0.30551
5955.96551,0.30403
5954.03676,0.30207
5952.10802,0.30061
5950.17927,0.30045
5948.25053,0.30054
5946.32178,0.29992
5944.39304,0.29950
5942.46429,0.29984
5940.53555,0.30019
5938.60680,0.29999
5936.67806,0.29963
5934.74931,0.29898
5932.82057,0.29769
5930.89182,0.29616
5928.96307,0.29457
5927.03433,0.29336
5925.10558,0.29287
5923.17684,0.29140
5921.24809,0.28765
5919.31935,0.28350
5917.39060,0.28077
5915.46186,0.27892
5913.53311,0.27738
5911.60437,0.27607
5909.67562,0.27463
5907.74688,0.27307
5905.81813,0.27177
5903.88939,0.27111
5901.96064,0.27127
5900.03189,0.27208
5898.10315,0.27287
5896.17440,0.27304
5894.24566,0.27290
5892.31691,0.27291
5890.38817,0.27324
5888.45942,0.27334
5886.53068,0.27264
5884.60193,0.27163
5882.67319,0.27076
5880.74444,0.27029
5878.81570,0.26986
5876.88695,0.26888
5874.95821,0.26781
5873.02946,0.26664
5871.10072,0.26482
5869.17197,0.26324
5867.24322,0.26199
5865.31448,0.25964
5863.38573,0.25729
5861.45699,0.25678
5859.52824,0.25714
5857.59950,0.25697
5855.67075,0.25639
5853.74201,0.25663
5851.81326,0.25809
5849.88452,0.25973
5847.95577,0.26080
5846.02703,0.26126
5844.09828,0.26193
5842.16954,0.26323
5840.24079,0.26453
5838.31205,0.26544
5836.38330,0.26566
5834.45455,0.26526
5832.52581,0.26573
5830.59706,0.26780
5828.66832,0.26925
5826.73957,0.26863
5824.81083,0.26720
5822.88208,0.26614
5820.95334,0.26598
5819.02459,0.26617
5817.09585,0.26530
5815.16710,0.26365
5813.23836,0.26222
5811.30961,0.26078
5809.38087,0.25908
5807.45212,0.25770
5805.52337,0.25669
5803.59463,0.25569
5801.66588,0.25469
5799.73714,0.25436
5797.80839,0.25563
5795.87965,0.25764
5793.95090,0.25848
5792.02216,0.25813
5790.09341,0.25750
5788.16467,0.25701
5786.23592,0.25743
5784.30718,0.25875
5782.37843,0.25984
5780.44969,0.26054
5778.52094,0.26116
5776.59220,0.26149
5774.66345,0.26122
5772.73470,0.26078
5770.80596,0.26044
5768.87721,0.25957
5766.94847,0.25876
5765.01972,0.25904
5763.09098,0.25983
5761.16223,0.26035
5759.23349,0.26039
5757.30474,0.26021
5755.37600,0.26022
5753.44725,0.26044
5751.51851,0.26092
5749.58976,0.26195
5747.66102,0.26360
5745.73227,0.26535
5743.80352,0.26649
5741.87478,0.26754
5739.94603,0.26959
5738.01729,0.27203
5736.08854,0.27344
5734.15980,0.27383
5732.23105,0.27466
5730.30231,0.27600
5728.37356,0.27620
5726.44482,0.27528
5724.51607,0.27451
5722.58733,0.27423
5720.65858,0.27416
5718.72984,0.27425
5716.80109,0.27496
5714.87235,0.27612
5712.94360,0.27680
5711.01485,0.27664
5709.08611,0.27639
5707.15736,0.27672
5705.22862,0.27720
5703.29987,0.27716
5701.37113,0.27687
5699.44238,0.27697
5697.51364,0.27722
5695.58489,0.27691
5693.65615,0.27609
5691.72740,0.27597
5689.79866,0.27674
5687.86991,0.27731
5685.94117,0.27769
5684.01242,0.27820
5682.08368,0.27830
5680.15493,0.27794
5678.22618,0.27762
5676.29744,0.27782
5674.36869,0.27810
5672.43995,0.27746
5670.51120,0.27654
5668.58246,0.27681
5666.65371,0.27790
5664.72497,0.27871
5662.79622,0.27896
5660.86748,0.27864
5658.93873,0.27809
5657.00999,0.27738
5655.08124,0.27661
5653.15250,0.27669
5651.22375,0.27776
5649.29500,0.27870
5647.36626,0.27893
5645.43751,0.27908
5643.50877,0.27958
5641.58002,0.28014
5639.65128,0.28083
5637.72253,0.28126
5635.79379,0.28080
5633.86504,0.28004
5631.93630,0.27985
5630.00755,0.28027
5628.07881,0.28093
5626.15006,0.28178
5624.22132,0.28251
5622.29257,0.28247
5620.36383,0.28236
5618.43508,0.28332
5616.50633,0.28443
5614.57759,0.28473
5612.64884,0.28500
5610.72010,0.28526
5608.79135,0.28497
5606.86261,0.28452
5604.93386,0.28419
5603.00512,0.28406
5601.07637,0.28402
5599.14763,0.28390
5597.21888,0.28409
5595.29014,0.28446
5593.36139,0.28486
5591.43265,0.28558
5589.50390,0.28618
5587.57516,0.28647
5585.64641,0.28655
5583.71766,0.28604
5581.78892,0.28538
5579.86017,0.28536
5577.93143,0.28615
5576.00268,0.28721
5574.07394,0.28778
5572.14519,0.28785
5570.21645,0.28732
5568.28770,0.28646
5566.35896,0.28609
5564.43021,0.28580
5562.50147,0.28524
5560.57272,0.28505
5558.64398,0.28511
5556.71523,0.28503
5554.78648,0.28486
5552.85774,0.28447
5550.92899,0.28415
5549.00025,0.28450
5547.07150,0.28525
5545.14276,0.28567
5543.21401,0.28551
5541.28527,0.28529
5539.35652,0.28539
5537.42778,0.28535
5535.49903,0.28490
5533.57029,0.28454
5531.64154,0.28474
5529.71280,0.28512
5527.78405,0.28478
5525.85531,0.28380
5523.92656,0.28336
5521.99781,0.28373
5520.06907,0.28403
5518.14032,0.28431
5516.21158,0.28470
5514.28283,0.28472
5512.35409,0.28489
5510.42534,0.28510
5508.49660,0.28395
5506.56785,0.28223
5504.63911,0.28193
5502.71036,0.28259
5500.78162,0.28321
5498.85287,0.28379
5496.92413,0.28374
5494.99538,0.28289
5493.06664,0.28253
5491.13789,0.28309
5489.20914,0.28354
5487.28040,0.28345
5485.35165,0.28347
5483.42291,0.28389
5481.49416,0.28424
5479.56542,0.28452
5477.63667,0.28501
5475.70793,0.28488
5473.77918,0.28418
5471.85044,0.28414
5469.92169,0.28443
5467.99295,0.28406
5466.06420,0.28340
5464.13546,0.28305
5462.20671,0.28293
5460.27796,0.28290
5458.34922,0.28303
5456.42047,0.28322
5454.49173,0.28348
5452.56298,0.28379
5450.63424,0.28412
5448.70549,0.28499
5446.77675,0.28620
5444.84800,0.28661
5442.91926,0.28626
5440.99051,0.28587
5439.06177,0.28561
5437.13302,0.28576
5435.20428,0.28632
5433.27553,0.28674
5431.34679,0.28684
5429.41804,0.28730
5427.48929,0.28825
5425.56055,0.28890
5423.63180,0.28906
5421.70306,0.28884
5419.77431,0.28843
5417.84557,0.28863
5415.91682,0.28933
5413.98808,0.28944
5412.05933,0.28901
5410.13059,0.28929
5408.20184,0.29003
5406.27310,0.28986
5404.34435,0.28901
5402.41561,0.28883
5400.48686,0.28944
5398.55811,0.28970
5396.62937,0.28942
5394.70062,0.28980
5392.77188,0.29099
5390.84313,0.29190
5388.91439,0.29186
5386.98564,0.29129
5385.05690,0.29067
5383.12815,0.28995
5381.19941,0.28959
5379.27066,0.29019
5377.34192,0.29131
5375.41317,0.29180
5373.48443,0.29123
5371.55568,0.29073
5369.62694,0.29110
5367.69819,0.29136
5365.76944,0.29072
5363.84070,0.28998
5361.91195,0.29015
5359.98321,0.29090
5358.05446,0.29119
5356.12572,0.29123
5354.19697,0.29194
5352.26823,0.29263
5350.33948,0.29239
5348.41074,0.29196
5346.48199,0.29200
5344.55325,0.29214
5342.62450,0.29221
5340.69576,0.29222
5338.76701,0.29179
5336.83827,0.29115
5334.90952,0.29128
5332.98077,0.29210
5331.05203,0.29251
5329.12328,0.29237
5327.19454,0.29229
5325.26579,0.29240
5323.33705,0.29233
5321.40830,0.29188
5319.47956,0.29126
5317.55081,0.29069
5315.62207,0.29072
5313.69332,0.29145
5311.76458,0.29203
5309.83583,0.29226
5307.90709,0.29242
5305.97834,0.29222
5304.04959,0.29161
5302.12085,0.29089
5300.19210,0.29061
5298.26336,0.29109
5296.33461,0.29161
5294.40587,0.29141
5292.47712,0.29098
5290.54838,0.29085
5288.61963,0.29050
5286.69089,0.28990
5284.76214,0.28950
5282.83340,0.28957
5280.90465,0.29023
5278.97591,0.29066
5277.04716,0.29027
5275.11842,0.28994
5273.18967,0.29035
5271.26092,0.29117
5269.33218,0.29165
5267.40343,0.29144
5265.47469,0.29109
5263.54594,0.29083
5261.61720,0.29045
5259.68845,0.29038
5257.75971,0.29068
5255.83096,0.29129
5253.90222,0.29246
5251.97347,0.29335
5250.04473,0.29314
5248.11598,0.29255
5246.18724,0.29235
5244.25849,0.29223
5242.32975,0.29164
5240.40100,0.29082
5238.47225,0.29058
5236.54351,0.29110
5234.61476,0.29186
5232.68602,0.29261
5230.75727,0.29296
5228.82853,0.29262
5226.89978,0.29210
5224.97104,0.29206
5223.04229,0.29252
5221.11355,0.29275
5219.18480,0.29238
5217.25606,0.29173
5215.32731,0.29120
5213.39857,0.29124
5211.46982,0.29136
5209.54107,0.29100
5207.61233,0.29099
5205.68358,0.29155
5203.75484,0.29159
5201.82609,0.29127
5199.89735,0.29154
5197.96860,0.29205
5196.03986,0.29192
5194.11111,0.29157
5192.18237,0.29186
5190.25362,0.29242
5188.32488,0.29251
5186.39613,0.29202
5184.46739,0.29141
5182.53864,0.29135
5180.60990,0.29189
5178.68115,0.29246
5176.75240,0.29250
5174.82366,0.29204
5172.89491,0.29166
5170.96617,0.29163
5169.03742,0.29172
5167.10868,0.29181
5165.17993,0.29195
5163.25119,0.29195
5161.32244,0.29175
5159.39370,0.29150
5157.46495,0.29134
5155.53621,0.29151
5153.60746,0.29199
5151.67872,0.29234
5149.74997,0.29219
5147.82123,0.29165
5145.89248,0.29122
5143.96373,0.29118
5142.03499,0.29133
5140.10624,0.29112
5138.17750,0.29095
5136.24875,0.29167
5134.32001,0.29239
5132.39126,0.29208
5130.46252,0.29131
5128.53377,0.29084
5126.60503,0.29098
5124.67628,0.29156
5122.74754,0.29198
5120.81879,0.29210
5118.89005,0.29189
5116.96130,0.29124
5115.03255,0.29067
5113.10381,0.29074
5111.17506,0.29116
5109.24632,0.29138
5107.31757,0.29126
5105.38883,0.29124
5103.46008,0.29124
5101.53134,0.29084
5099.60259,0.29040
5097.67385,0.29019
5095.74510,0.28999
5093.81636,0.28991
5091.88761,0.29010
5089.95887,0.29017
5088.03012,0.29009
5086.10138,0.29027
5084.17263,0.29067
5082.24388,0.29088
5080.31514,0.29068
5078.38639,0.29021
5076.45765,0.28990
5074.52890,0.29037
5072.60016,0.29141
5070.67141,0.29185
5068.74267,0.29135
5066.81392,0.29072
5064.88518,0.29063
5062.95643,0.29081
5061.02769,0.29063
5059.09894,0.29024
5057.17020,0.29019
5055.24145,0.29014
5053.31270,0.28976
5051.38396,0.28968
5049.45521,0.29039
5047.52647,0.29149
5045.59772,0.29188
5043.66898,0.29108
5041.74023,0.29017
5039.81149,0.28987
5037.88274,0.29007
5035.95400,0.29056
5034.02525,0.29066
5032.09651,0.29011
5030.16776,0.28942
5028.23902,0.28903
5026.31027,0.28931
5024.38153,0.29017
5022.45278,0.29096
5020.52403,0.29129
5018.59529,0.29098
5016.66654,0.29045
5014.73780,0.29066
5012.80905,0.29135
5010.88031,0.29171
5008.95156,0.29176
5007.02282,0.29191
5005.09407,0.29223
5003.16533,0.29252
5001.23658,0.29289
4999.30784,0.29337
4997.37909,0.29359
4995.45035,0.29334
4993.52160,0.29263
4991.59286,0.29188
4989.66411,0.29181
4987.73536,0.29235
4985.80662,0.29287
4983.87787,0.29308
4981.94913,0.29290
4980.02038,0.29246
4978.09164,0.29195
4976.16289,0.29145
4974.23415,0.29149
4972.30540,0.29217
4970.37666,0.29271
4968.44791,0.29290
4966.51917,0.29298
4964.59042,0.29306
4962.66168,0.29315
4960.73293,0.29322
4958.80418,0.29327
4956.87544,0.29326
4954.94669,0.29312
4953.01795,0.29298
4951.08920,0.29316
4949.16046,0.29366
4947.23171,0.29412
4945.30297,0.29438
4943.37422,0.29441
4941.44548,0.29425
4939.51673,0.29379
4937.58799,0.29295
4935.65924,0.29239
4933.73050,0.29261
4931.80175,0.29312
4929.87301,0.29331
4927.94426,0.29309
4926.01551,0.29293
4924.08677,0.29326
4922.15802,0.29395
4920.22928,0.29455
4918.30053,0.29481
4916.37179,0.29455
4914.44304,0.29401
4912.51430,0.29353
4910.58555,0.29315
4908.65681,0.29300
4906.72806,0.29308
4904.79932,0.29312
4902.87057,0.29303
4900.94183,0.29298
4899.01308,0.29330
4897.08434,0.29382
4895.15559,0.29399
4893.22684,0.29385
4891.29810,0.29369
4889.36935,0.29374
4887.44061,0.29384
4885.51186,0.29384
4883.58312,0.29378
4881.65437,0.29340
4879.72563,0.29293
4877.79688,0.29301
4875.86814,0.29338
4873.93939,0.29369
4872.01065,0.29379
4870.08190,0.29352
4868.15316,0.29318
4866.22441,0.29310
4864.29566,0.29329
4862.36692,0.29376
4860.43817,0.29404
4858.50943,0.29352
4856.58068,0.29277
4854.65194,0.29242
4852.72319,0.29212
4850.79445,0.29209
4848.86570,0.29283
4846.93696,0.29333
4845.00821,0.29306
4843.07947,0.29302
4841.15072,0.29340
4839.22198,0.29348
4837.29323,0.29292
4835.36449,0.29227
4833.43574,0.29238
4831.50699,0.29285
4829.57825,0.29289
4827.64950,0.29258
4825.72076,0.29233
4823.79201,0.29244
4821.86327,0.29286
4819.93452,0.29321
4818.00578,0.29341
4816.07703,0.29340
4814.14829,0.29281
4812.21954,0.29214
4810.29080,0.29235
4808.36205,0.29286
4806.43331,0.29262
4804.50456,0.29187
4802.57582,0.29139
4800.64707,0.29161
4798.71832,0.29244
4796.78958,0.29341
4794.86083,0.29391
4792.93209,0.29350
4791.00334,0.29262
4789.07460,0.29214
4787.14585,0.29213
4785.21711,0.29223
4783.28836,0.29221
4781.35962,0.29186
4779.43087,0.29156
4777.50213,0.29182
4775.57338,0.29224
4773.64464,0.29234
4771.71589,0.29230
4769.78714,0.29246
4767.85840,0.29272
4765.92965,0.29246
4764.00091,0.29203
4762.07216,0.29235
4760.14342,0.29291
4758.21467,0.29297
4756.28593,0.29295
4754.35718,0.29316
4752.42844,0.29337
4750.49969,0.29350
4748.57095,0.29361
4746.64220,0.29387
4744.71346,0.29412
4742.78471,0.29390
4740.85597,0.29337
4738.92722,0.29292
4736.99847,0.29258
4735.06973,0.29255
4733.14098,0.29294
4731.21224,0.29339
4729.28349,0.29350
4727.35475,0.29318
4725.42600,0.29258
4723.49726,0.29188
4721.56851,0.29146
4719.63977,0.29175
4717.71102,0.29250
4715.78228,0.29309
4713.85353,0.29333
4711.92479,0.29332
4709.99604,0.29322
4708.06729,0.29314
4706.13855,0.29278
4704.20980,0.29212
4702.28106,0.29192
4700.35231,0.29251
4698.42357,0.29330
4696.49482,0.29353
4694.56608,0.29299
4692.63733,0.29224
4690.70859,0.29166
4688.77984,0.29132
4686.85110,0.29145
4684.92235,0.29176
4682.99361,0.29169
4681.06486,0.29143
4679.13612,0.29151
4677.20737,0.29203
4675.27862,0.29245
4673.34988,0.29217
4671.42113,0.29156
4669.49239,0.29148
4667.56364,0.29176
4665.63490,0.29174
4663.70615,0.29141
4661.77741,0.29145
4659.84866,0.29189
4657.91992,0.29179
4655.99117,0.29107
4654.06243,0.29062
4652.13368,0.29063
4650.20494,0.29072
4648.27619,0.29071
4646.34745,0.29048
4644.41870,0.28997
4642.48995,0.28927
4640.56121,0.28886
4638.63246,0.28894
4636.70372,0.28907
4634.77497,0.28925
4632.84623,0.28967
4630.91748,0.29005
4628.98874,0.29008
4627.05999,0.28969
4625.13125,0.28905
4623.20250,0.28864
4621.27376,0.28891
4619.34501,0.28947
4617.41627,0.28958
4615.48752,0.28929
4613.55877,0.28924
4611.63003,0.28931
4609.70128,0.28917
4607.77254,0.28899
4605.84379,0.28879
4603.91505,0.28849
4601.98630,0.28833
4600.05756,0.28821
4598.12881,0.28792
4596.20007,0.28763
4594.27132,0.28721
4592.34258,0.28662
4590.41383,0.28609
4588.48509,0.28569
4586.55634,0.28548
4584.62760,0.28561
4582.69885,0.28597
4580.77010,0.28622
4578.84136,0.28608
4576.91261,0.28563
4574.98387,0.28517
4573.05512,0.28500
4571.12638,0.28493
4569.19763,0.28448
4567.26889,0.28394
4565.34014,0.28386
4563.41140,0.28385
4561.48265,0.28348
4559.55391,0.28304
4557.62516,0.28314
4555.69642,0.28383
4553.76767,0.28450
4551.83893,0.28473
4549.91018,0.28448
4547.98143,0.28388
4546.05269,0.28346
4544.12394,0.28365
4542.19520,0.28420
4540.26645,0.28480
4538.33771,0.28518
4536.40896,0.28515
4534.48022,0.28484
4532.55147,0.28448
4530.62273,0.28433
4528.69398,0.28449
4526.76524,0.28467
4524.83649,0.28451
4522.90775,0.28407
4520.97900,0.28356
4519.05025,0.28318
4517.12151,0.28302
4515.19276,0.28299
4513.26402,0.28278
4511.33527,0.28238
4509.40653,0.28228
4507.47778,0.28245
4505.54904,0.28228
4503.62029,0.28198
4501.69155,0.28205
4499.76280,0.28214
4497.83406,0.28191
4495.90531,0.28178
4493.97657,0.28205
4492.04782,0.28221
4490.11908,0.28186
4488.19033,0.28132
4486.26158,0.28123
4484.33284,0.28135
4482.40409,0.28092
4480.47535,0.28034
4478.54660,0.28019
4476.61786,0.28012
4474.68911,0.27984
4472.76037,0.27938
4470.83162,0.27872
4468.90288,0.27820
4466.97413,0.27810
4465.04539,0.27809
4463.11664,0.27775
4461.18790,0.27690
4459.25915,0.27582
4457.33041,0.27521
4455.40166,0.27504
4453.47291,0.27445
4451.54417,0.27312
4449.61542,0.27149
4447.68668,0.27010
4445.75793,0.26892
4443.82919,0.26750
4441.90044,0.26571
4439.97170,0.26380
4438.04295,0.26211
4436.11421,0.26044
4434.18546,0.25795
4432.25672,0.25463
4430.32797,0.25139
4428.39923,0.24821
4426.47048,0.24450
4424.54173,0.24052
4422.61299,0.23672
4420.68424,0.23319
4418.75550,0.22982
4416.82675,0.22622
4414.89801,0.22239
4412.96926,0.21875
4411.04052,0.21539
4409.11177,0.21228
4407.18303,0.20938
4405.25428,0.20624
4403.32554,0.20263
4401.39679,0.19871
4399.46805,0.19471
4397.53930,0.19092
4395.61056,0.18769
4393.68181,0.18543
4391.75306,0.18458
4389.82432,0.18513
4387.89557,0.18665
4385.96683,0.18889
4384.03808,0.19138
4382.10934,0.19344
4380.18059,0.19520
4378.25185,0.19733
4376.32310,0.19952
4374.39436,0.20105
4372.46561,0.20204
4370.53687,0.20293
4368.60812,0.20393
4366.67938,0.20496
4364.75063,0.20575
4362.82189,0.20649
4360.89314,0.20726
4358.96439,0.20750
4357.03565,0.20687
4355.10690,0.20548
4353.17816,0.20361
4351.24941,0.20159
4349.32067,0.19907
4347.39192,0.19544
4345.46318,0.19075
4343.53443,0.18552
4341.60569,0.17990
4339.67694,0.17395
4337.74820,0.16814
4335.81945,0.16276
4333.89071,0.15790
4331.96196,0.15390
4330.03321,0.15103
4328.10447,0.14918
4326.17572,0.14783
4324.24698,0.14701
4322.31823,0.14715
4320.38949,0.14780
4318.46074,0.14831
4316.53200,0.14891
4314.60325,0.14989
4312.67451,0.15086
4310.74576,0.15187
4308.81702,0.15364
4306.88827,0.15633
4304.95953,0.15938
4303.03078,0.16254
4301.10204,0.16584
4299.17329,0.16920
4297.24454,0.17218
4295.31580,0.17424
4293.38705,0.17538
4291.45831,0.17598
4289.52956,0.17624
4287.60082,0.17616
4285.67207,0.17586
4283.74333,0.17567
4281.81458,0.17578
4279.88584,0.17594
4277.95709,0.17601
4276.02835,0.17617
4274.09960,0.17636
4272.17086,0.17607
4270.24211,0.17532
4268.31336,0.17478
4266.38462,0.17428
4264.45587,0.17316
4262.52713,0.17140
4260.59838,0.16919
4258.66964,0.16672
4256.74089,0.16436
4254.81215,0.16226
4252.88340,0.16016
4250.95466,0.15801
4249.02591,0.15601
4247.09717,0.15400
4245.16842,0.15203
4243.23968,0.15084
4241.31093,0.15095
4239.38219,0.15217
4237.45344,0.15421
4235.52469,0.15688
4233.59595,0.15991
4231.66720,0.16284
4229.73846,0.16546
4227.80971,0.16763
4225.88097,0.16901
4223.95222,0.16953
4222.02348,0.16950
4220.09473,0.16929
4218.16599,0.16911
4216.23724,0.16919
4214.30850,0.16987
4212.37975,0.17104
4210.45101,0.17218
4208.52226,0.17292
4206.59352,0.17348
4204.66477,0.17438
4202.73602,0.17561
4200.80728,0.17684
4198.87853,0.17816
4196.94979,0.17994
4195.02104,0.18196
4193.09230,0.18363
4191.16355,0.18491
4189.23481,0.18587
4187.30606,0.18611
4185.37732,0.18563
4183.44857,0.18511
4181.51983,0.18466
4179.59108,0.18361
4177.66234,0.18193
4175.73359,0.18032
4173.80484,0.17907
4171.87610,0.17796
4169.94735,0.17698
4168.01861,0.17642
4166.08986,0.17644
4164.16112,0.17729
4162.23237,0.17902
4160.30363,0.18096
4158.37488,0.18232
4156.44614,0.18307
4154.51739,0.18361
4152.58865,0.18435
4150.65990,0.18559
4148.73116,0.18714
4146.80241,0.18832
4144.87367,0.18893
4142.94492,0.18947
4141.01617,0.19001
4139.08743,0.19028
4137.15868,0.19027
4135.22994,0.19008
4133.30119,0.18982
4131.37245,0.18942
4129.44370,0.18872
4127.51496,0.18790
4125.58621,0.18705
4123.65747,0.18611
4121.72872,0.18525
4119.79998,0.18493
4117.87123,0.18520
4115.94249,0.18578
4114.01374,0.18663
4112.08500,0.18773
4110.15625,0.18885
4108.22750,0.19008
4106.29876,0.19155
4104.37001,0.19309
4102.44127,0.19449
4100.51252,0.19577
4098.58378,0.19706
4096.65503,0.19812
4094.72629,0.19854
4092.79754,0.19834
4090.86880,0.19756
4088.94005,0.19621
4087.01131,0.19453
4085.08256,0.19272
4083.15382,0.19077
4081.22507,0.18856
4079.29632,0.18619
4077.36758,0.18375
4075.43883,0.18125
4073.51009,0.17883
4071.58134,0.17667
4069.65260,0.17462
4067.72385,0.17229
4065.79511,0.16971
4063.86636,0.16726
4061.93762,0.16531
4060.00887,0.16436
4058.08013,0.16480
4056.15138,0.16664
4054.22264,0.16967
4052.29389,0.17358
4050.36515,0.17802
4048.43640,0.18245
4046.50765,0.18643
4044.57891,0.18998
4042.65016,0.19323
4040.72142,0.19594
4038.79267,0.19777
4036.86393,0.19908
4034.93518,0.20043
4033.00644,0.20178
4031.07769,0.20287
4029.14895,0.20357
4027.22020,0.20399
4025.29146,0.20429
4023.36271,0.20451
4021.43397,0.20494
4019.50522,0.20585
4017.57648,0.20709
4015.64773,0.20826
4013.71898,0.20915
4011.79024,0.20999
4009.86149,0.21083
4007.93275,0.21145
4006.00400,0.21174
4004.07526,0.21180
4002.14651,0.21156
4000.21777,0.21090
3998.28902,0.20978
3996.36028,0.20867
3994.43153,0.20832
3992.50279,0.20880
3990.57404,0.20986
3988.64530,0.21134
3986.71655,0.21282
3984.78780,0.21400
3982.85906,0.21513
3980.93031,0.21638
3979.00157,0.21771
3977.07282,0.21904
3975.14408,0.22019
3973.21533,0.22084
3971.28659,0.22078
3969.35784,0.22045
3967.42910,0.22054
3965.50035,0.22101
3963.57161,0.22151
3961.64286,0.22206
3959.71412,0.22269
3957.78537,0.22312
3955.85663,0.22339
3953.92788,0.22383
3951.99913,0.22418
3950.07039,0.22418
3948.14164,0.22388
3946.21290,0.22342
3944.28415,0.22289
3942.35541,0.22235
3940.42666,0.22188
3938.49792,0.22151
3936.56917,0.22123
3934.64043,0.22113
3932.71168,0.22108
3930.78294,0.22105
3928.85419,0.22126
3926.92545,0.22151
3924.99670,0.22153
3923.06795,0.22175
3921.13921,0.22244
3919.21046,0.22300
3917.28172,0.22326
3915.35297,0.22396
3913.42423,0.22532
3911.49548,0.22657
3909.56674,0.22726
3907.63799,0.22777
3905.70925,0.22826
3903.78050,0.22856
3901.85176,0.22873
3899.92301,0.22885
3897.99427,0.22900
3896.06552,0.22923
3894.13678,0.22920
3892.20803,0.22886
3890.27928,0.22892
3888.35054,0.22956
3886.42179,0.23021
3884.49305,0.23054
3882.56430,0.23058
3880.63556,0.23036
3878.70681,0.23019
3876.77807,0.23047
3874.84932,0.23114
3872.92058,0.23179
3870.99183,0.23207
3869.06309,0.23210
3867.13434,0.23220
3865.20560,0.23251
3863.27685,0.23299
3861.34811,0.23362
3859.41936,0.23436
3857.49061,0.23523
3855.56187,0.23631
3853.63312,0.23721
3851.70438,0.23739
3849.77563,0.23720
3847.84689,0.23701
3845.91814,0.23675
3843.98940,0.23631
3842.06065,0.23599
3840.13191,0.23607
3838.20316,0.23626
3836.27442,0.23630
3834.34567,0.23621
3832.41693,0.23589
3830.48818,0.23545
3828.55943,0.23540
3826.63069,0.23574
3824.70194,0.23586
3822.77320,0.23560
3820.84445,0.23515
3818.91571,0.23461
3816.98696,0.23430
3815.05822,0.23442
3813.12947,0.23467
3811.20073,0.23486
3809.27198,0.23503
3807.34324,0.23517
3805.41449,0.23554
3803.48575,0.23617
3801.55700,0.23661
3799.62826,0.23676
3797.69951,0.23685
3795.77076,0.23683
3793.84202,0.23683
3791.91327,0.23708
3789.98453,0.23751
3788.05578,0.23794
3786.12704,0.23809
3784.19829,0.23806
3782.26955,0.23813
3780.34080,0.23817
3778.41206,0.23781
3776.48331,0.23693
3774.55457,0.23582
3772.62582,0.23477
3770.69708,0.23362
3768.76833,0.23239
3766.83959,0.23145
3764.91084,0.23087
3762.98209,0.23072
3761.05335,0.23114
3759.12460,0.23195
3757.19586,0.23280
3755.26711,0.23338
3753.33837,0.23382
3751.40962,0.23458
3749.48088,0.23574
3747.55213,0.23672
3745.62339,0.23733
3743.69464,0.23781
3741.76590,0.23838
3739.83715,0.23895
3737.90841,0.23951
3735.97966,0.24010
3734.05091,0.24056
3732.12217,0.24080
3730.19342,0.24099
3728.26468,0.24131
3726.33593,0.24177
3724.40719,0.24218
3722.47844,0.24234
3720.54970,0.24232
3718.62095,0.24226
3716.69221,0.24210
3714.76346,0.24178
3712.83472,0.24158
3710.90597,0.24179
3708.97723,0.24206
3707.04848,0.24219
3705.11974,0.24218
3703.19099,0.24198
3701.26224,0.24198
3699.33350,0.24223
3697.40475,0.24231
3695.47601,0.24244
3693.54726,0.24274
3691.61852,0.24296
3689.68977,0.24312
3687.76103,0.24330
3685.83228,0.24360
3683.90354,0.24402
3681.97479,0.24445
3680.04605,0.24498
3678.11730,0.24577
3676.18856,0.24691
3674.25981,0.24817
3672.33107,0.24933
3670.40232,0.25053
3668.47357,0.25170
3666.54483,0.25277
3664.61608,0.25380
3662.68734,0.25455
3660.75859,0.25499
3658.82985,0.25547
3656.90110,0.25612
3654.97236,0.25674
3653.04361,0.25686
3651.11487,0.25627
3649.18612,0.25559
3647.25738,0.25520
3645.32863,0.25463
3643.39989,0.25383
3641.47114,0.25305
3639.54239,0.25239
3637.61365,0.25191
3635.68490,0.25170
3633.75616,0.25181
3631.82741,0.25219
3629.89867,0.25283
3627.96992,0.25382
3626.04118,0.25486
3624.11243,0.25572
3622.18369,0.25651
3620.25494,0.25727
3618.32620,0.25792
3616.39745,0.25842
3614.46871,0.25868
3612.53996,0.25857
3610.61122,0.25826
3608.68247,0.25795
3606.75372,0.25756
3604.82498,0.25712
3602.89623,0.25683
3600.96749,0.25686
3599.03874,0.25694
3597.11000,0.25664
3595.18125,0.25596
3593.25251,0.25533
3591.32376,0.25497
3589.39502,0.25473
3587.46627,0.25461
3585.53753,0.25472
3583.60878,0.25511
3581.68004,0.25562
3579.75129,0.25587
3577.82254,0.25575
3575.89380,0.25562
3573.96505,0.25576
3572.03631,0.25607
3570.10756,0.25643
3568.17882,0.25687
3566.25007,0.25723
3564.32133,0.25723
3562.39258,0.25701
3560.46384,0.25684
3558.53509,0.25671
3556.60635,0.25660
3554.67760,0.25656
3552.74886,0.25647
3550.82011,0.25620
3548.89137,0.25584
3546.96262,0.25535
3545.03387,0.25474
3543.10513,0.25426
3541.17638,0.25402
3539.24764,0.25375
3537.31889,0.25335
3535.39015,0.25305
3533.46140,0.25299
3531.53266,0.25304
3529.60391,0.25302
3527.67517,0.25284
3525.74642,0.25264
3523.81768,0.25263
3521.88893,0.25256
3519.96019,0.25211
3518.03144,0.25142
3516.10270,0.25098
3514.17395,0.25104
3512.24520,0.25111
3510.31646,0.25086
3508.38771,0.25044
3506.45897,0.24990
3504.53022,0.24932
3502.60148,0.24894
3500.67273,0.24886
3498.74399,0.24871
3496.81524,0.24830
3494.88650,0.24797
3492.95775,0.24783
3491.02901,0.24758
3489.10026,0.24711
3487.17152,0.24651
3485.24277,0.24598
3483.31402,0.24572
3481.38528,0.24563
3479.45653,0.24534
3477.52779,0.24463
3475.59904,0.24364
3473.67030,0.24274
3471.74155,0.24205
3469.81281,0.24137
3467.88406,0.24063
3465.95532,0.23991
3464.02657,0.23926
3462.09783,0.23873
3460.16908,0.23812
3458.24034,0.23736
3456.31159,0.23674
3454.38285,0.23625
3452.45410,0.23560
3450.52535,0.23475
3448.59661,0.23377
3446.66786,0.23259
3444.73912,0.23148
3442.81037,0.23082
3440.88163,0.23033
3438.95288,0.22959
3437.02414,0.22862
3435.09539,0.22751
3433.16665,0.22630
3431.23790,0.22514
3429.30916,0.22424
3427.38041,0.22354
3425.45167,0.22261
3423.52292,0.22133
3421.59418,0.22021
3419.66543,0.21952
3417.73668,0.21894
3415.80794,0.21836
3413.87919,0.21784
3411.95045,0.21731
3410.02170,0.21670
3408.09296,0.21630
3406.16421,0.21665
3404.23547,0.21774
3402.30672,0.21903
3400.37798,0.22009
3398.44923,0.22072
3396.52049,0.22097
3394.59174,0.22111
3392.66300,0.22137
3390.73425,0.22156
3388.80550,0.22142
3386.87676,0.22090
3384.94801,0.22014
3383.01927,0.21932
3381.09052,0.21850
3379.16178,0.21772
3377.23303,0.21702
3375.30429,0.21641
3373.37554,0.21572
3371.44680,0.21478
3369.51805,0.21377
3367.58931,0.21291
3365.66056,0.21226
3363.73182,0.21175
3361.80307,0.21130
3359.87433,0.21081
3357.94558,0.21017
3356.01683,0.20928
3354.08809,0.20843
3352.15934,0.20789
3350.23060,0.20725
3348.30185,0.20629
3346.37311,0.20565
3344.44436,0.20567
3342.51562,0.20595
3340.58687,0.20637
3338.65813,0.20692
3336.72938,0.20746
3334.80064,0.20794
3332.87189,0.20815
3330.94315,0.20793
3329.01440,0.20769
3327.08566,0.20764
3325.15691,0.20744
3323.22816,0.20669
3321.29942,0.20520
3319.37067,0.20306
3317.44193,0.20036
3315.51318,0.19704
3313.58444,0.19292
3311.65569,0.18796
3309.72695,0.18246
3307.79820,0.17678
3305.86946,0.17111
3303.94071,0.16579
3302.01197,0.16166
3300.08322,0.15973
3298.15448,0.16077
3296.22573,0.16467
3294.29698,0.17000
3292.36824,0.17529
3290.43949,0.17992
3288.51075,0.18370
3286.58200,0.18680
3284.65326,0.18959
3282.72451,0.19213
3280.79577,0.19423
3278.86702,0.19599
3276.93828,0.19757
3275.00953,0.19884
3273.08079,0.19967
3271.15204,0.20040
3269.22330,0.20144
3267.29455,0.20260
3265.36581,0.20351
3263.43706,0.20410
3261.50831,0.20443
3259.57957,0.20484
3257.65082,0.20564
3255.72208,0.20654
3253.79333,0.20702
3251.86459,0.20688
3249.93584,0.20639
3248.00710,0.20611
3246.07835,0.20591
3244.14961,0.20518
3242.22086,0.20408
3240.29212,0.20298
3238.36337,0.20172
3236.43463,0.20018
3234.50588,0.19834
3232.57713,0.19608
3230.64839,0.19343
3228.71964,0.19075
3226.79090,0.18823
3224.86215,0.18554
3222.93341,0.18251
3221.00466,0.17945
3219.07592,0.17674
3217.14717,0.17448
3215.21843,0.17222
3213.28968,0.16958
3211.36094,0.16690
3209.43219,0.16474
3207.50345,0.16302
3205.57470,0.16141
3203.64596,0.16003
3201.71721,0.15907
3199.78846,0.15823
3197.85972,0.15722
3195.93097,0.15613
3194.00223,0.15524
3192.07348,0.15484
3190.14474,0.15498
3188.21599,0.15545
3186.28725,0.15619
3184.35850,0.15708
3182.42976,0.15795
3180.50101,0.15884
3178.57227,0.15968
3176.64352,0.16019
3174.71478,0.16046
3172.78603,0.16092
3170.85729,0.16162
3168.92854,0.16215
3166.99979,0.16228
3165.07105,0.16219
3163.14230,0.16204
3161.21356,0.16167
3159.28481,0.16103
3157.35607,0.16040
3155.42732,0.15995
3153.49858,0.15959
3151.56983,0.15915
3149.64109,0.15841
3147.71234,0.15760
3145.78360,0.15718
3143.85485,0.15706
3141.92611,0.15696
3139.99736,0.15693
3138.06861,0.15717
3136.13987,0.15785
3134.21112,0.15893
3132.28238,0.16017
3130.35363,0.16129
3128.42489,0.16216
3126.49614,0.16275
3124.56740,0.16323
3122.63865,0.16406
3120.70991,0.16534
3118.78116,0.16650
3116.85242,0.16709
3114.92367,0.16722
3112.99493,0.16733
3111.06618,0.16772
3109.13744,0.16801
3107.20869,0.16805
3105.27994,0.16822
3103.35120,0.16833
3101.42245,0.16795
3099.49371,0.16739
3097.56496,0.16724
3095.63622,0.16741
3093.70747,0.16741
3091.77873,0.16697
3089.84998,0.16634
3087.92124,0.16580
3085.99249,0.16538
3084.06375,0.16506
3082.13500,0.16470
3080.20626,0.16430
3078.27751,0.16393
3076.34877,0.16328
3074.42002,0.16234
3072.49127,0.16153
3070.56253,0.16073
3068.63378,0.15973
3066.70504,0.15872
3064.77629,0.15773
3062.84755,0.15662
3060.91880,0.15535
3058.99006,0.15402
3057.06131,0.15273
3055.13257,0.15151
3053.20382,0.15039
3051.27508,0.14931
3049.34633,0.14826
3047.41759,0.14729
3045.48884,0.14626
3043.56009,0.14504
3041.63135,0.14387
3039.70260,0.14283
3037.77386,0.14157
3035.84511,0.13995
3033.91637,0.13802
3031.98762,0.13579
3030.05888,0.13339
3028.13013,0.13082
3026.20139,0.12796
3024.27264,0.12488
3022.34390,0.12163
3020.41515,0.11817
3018.48641,0.11456
3016.55766,0.11095
3014.62892,0.10723
3012.70017,0.10320
3010.77142,0.09902
3008.84268,0.09493
3006.91393,0.09075
3004.98519,0.08611
3003.05644,0.08121
3001.12770,0.07662
2999.19895,0.07213
2997.27021,0.06716
2995.34146,0.06190
2993.41272,0.05681
2991.48397,0.05189
2989.55523,0.04716
2987.62648,0.04295
2985.69774,0.03928
2983.76899,0.03591
2981.84025,0.03292
2979.91150,0.03064
2977.98275,0.02891
2976.05401,0.02729
2974.12526,0.02589
2972.19652,0.02500
2970.26777,0.02451
2968.33903,0.02421
2966.41028,0.02433
2964.48154,0.02527
2962.55279,0.02692
2960.62405,0.02871
2958.69530,0.03001
2956.76656,0.03062
2954.83781,0.03081
2952.90907,0.03101
2950.98032,0.03147
2949.05157,0.03217
2947.12283,0.03290
2945.19408,0.03320
2943.26534,0.03277
2941.33659,0.03186
2939.40785,0.03095
2937.47910,0.03016
2935.55036,0.02950
2933.62161,0.02912
2931.69287,0.02904
2929.76412,0.02919
2927.83538,0.02955
2925.90663,0.03015
2923.97789,0.03111
2922.04914,0.03244
2920.12040,0.03383
2918.19165,0.03516
2916.26290,0.03635
2914.33416,0.03691
2912.40541,0.03661
2910.47667,0.03580
2908.54792,0.03504
2906.61918,0.03475
2904.69043,0.03487
2902.76169,0.03515
2900.83294,0.03553
2898.90420,0.03576
2896.97545,0.03548
2895.04671,0.03502
2893.11796,0.03476
2891.18922,0.03459
2889.26047,0.03421
2887.33172,0.03372
2885.40298,0.03343
2883.47423,0.03340
2881.54549,0.03340
2879.61674,0.03333
2877.68800,0.03331
2875.75925,0.03336
2873.83051,0.03344
2871.90176,0.03359
2869.97302,0.03386
2868.04427,0.03428
2866.11553,0.03489
2864.18678,0.03555
2862.25804,0.03610
2860.32929,0.03659
2858.40055,0.03711
2856.47180,0.03740
2854.54305,0.03720
2852.61431,0.03669
2850.68556,0.03605
2848.75682,0.03523
2846.82807,0.03430
2844.89933,0.03359
2842.97058,0.03330
2841.04184,0.03342
2839.11309,0.03405
2837.18435,0.03512
2835.25560,0.03627
2833.32686,0.03727
2831.39811,0.03844
2829.46937,0.04023
2827.54062,0.04258
2825.61188,0.04504
2823.68313,0.04746
2821.75438,0.04987
2819.82564,0.05206
2817.89689,0.05403
2815.96815,0.05590
2814.03940,0.05776
2812.11066,0.05959
2810.18191,0.06131
2808.25317,0.06312
2806.32442,0.06555
2804.39568,0.06873
2802.46693,0.07218
2800.53819,0.07513
2798.60944,0.07724
2796.68070,0.07876
2794.75195,0.08039
2792.82320,0.08286
2790.89446,0.08644
2788.96571,0.09083
2787.03697,0.09552
2785.10822,0.10008
2783.17948,0.10426
2781.25073,0.10805
2779.32199,0.11160
2777.39324,0.11500
2775.46450,0.11802
2773.53575,0.12025
2771.60701,0.12156
2769.67826,0.12231
2767.74952,0.12300
2765.82077,0.12389
2763.89203,0.12495
2761.96328,0.12609
2760.03453,0.12732
2758.10579,0.12856
2756.17704,0.12961
2754.24830,0.13034
2752.31955,0.13073
2750.39081,0.13079
2748.46206,0.13028
2746.53332,0.12893
2744.60457,0.12691
2742.67583,0.12433
2740.74708,0.12118
2738.81834,0.11782
2736.88959,0.11467
2734.96085,0.11172
2733.03210,0.10879
2731.10336,0.10569
2729.17461,0.10204
2727.24586,0.09772
2725.31712,0.09368
2723.38837,0.09136
2721.45963,0.09169
2719.53088,0.09473
2717.60214,0.09956
2715.67339,0.10484
2713.74465,0.10965
2711.81590,0.11373
2709.88716,0.11728
2707.95841,0.12051
2706.02967,0.12350
2704.10092,0.12628
2702.17218,0.12877
2700.24343,0.13085
2698.31468,0.13243
2696.38594,0.13333
2694.45719,0.13352
2692.52845,0.13336
2690.59970,0.13319
2688.67096,0.13309
2686.74221,0.13307
2684.81347,0.13301
2682.88472,0.13271
2680.95598,0.13233
2679.02723,0.13209
2677.09849,0.13207
2675.16974,0.13242
2673.24100,0.13310
2671.31225,0.13390
2669.38351,0.13456
2667.45476,0.13478
2665.52601,0.13445
2663.59727,0.13382
2661.66852,0.13329
2659.73978,0.13323
2657.81103,0.13396
2655.88229,0.13547
2653.95354,0.13750
2652.02480,0.13965
2650.09605,0.14151
2648.16731,0.14293
2646.23856,0.14392
2644.30982,0.14455
2642.38107,0.14504
2640.45233,0.14558
2638.52358,0.14616
2636.59484,0.14632
2634.66609,0.14552
2632.73734,0.14381
2630.80860,0.14158
2628.87985,0.13901
2626.95111,0.13621
2625.02236,0.13350
2623.09362,0.13114
2621.16487,0.12908
2619.23613,0.12715
2617.30738,0.12538
2615.37864,0.12399
2613.44989,0.12313
2611.52115,0.12275
2609.59240,0.12274
2607.66366,0.12303
2605.73491,0.12353
2603.80616,0.12403
2601.87742,0.12427
2599.94867,0.12411
2598.01993,0.12361
2596.09118,0.12276
2594.16244,0.12157
2592.23369,0.12005
2590.30495,0.11812
2588.37620,0.11574
2586.44746,0.11313
2584.51871,0.11077
2582.58997,0.10931
2580.66122,0.10924
2578.73248,0.11043
2576.80373,0.11229
2574.87499,0.11440
2572.94624,0.11652
2571.01749,0.11851
2569.08875,0.12023
2567.16000,0.12152
2565.23126,0.12246
2563.30251,0.12306
2561.37377,0.12325
2559.44502,0.12316
2557.51628,0.12299
2555.58753,0.12284
2553.65879,0.12276
2551.73004,0.12275
2549.80130,0.12273
2547.87255,0.12272
2545.94381,0.12281
2544.01506,0.12288
2542.08631,0.12266
2540.15757,0.12155
2538.22882,0.11880
2536.30008,0.11446
2534.37133,0.10935
2532.44259,0.10414
2530.51384,0.09911
2528.58510,0.09451
2526.65635,0.09044
2524.72761,0.08685
2522.79886,0.08399
2520.87012,0.08204
2518.94137,0.08063
2517.01263,0.07946
2515.08388,0.07863
2513.15514,0.07831
2511.22639,0.07863
2509.29764,0.07979
2507.36890,0.08200
2505.44015,0.08539
2503.51141,0.09000
2501.58266,0.09575
2499.65392,0.10239
2497.72517,0.10961
2495.79643,0.11724
2493.86768,0.12502
2491.93894,0.13241
2490.01019,0.13891
2488.08145,0.14447
2486.15270,0.14937
2484.22396,0.15391
2482.29521,0.15837
2480.36647,0.16282
2478.43772,0.16719
2476.50897,0.17156
2474.58023,0.17606
2472.65148,0.18057
2470.72274,0.18458
2468.79399,0.18775
2466.86525,0.19007
2464.93650,0.19168
2463.00776,0.19270
2461.07901,0.19328
2459.15027,0.19364
2457.22152,0.19404
2455.29278,0.19458
2453.36403,0.19516
2451.43529,0.19558
2449.50654,0.19580
2447.57779,0.19596
2445.64905,0.19602
2443.72030,0.19583
2441.79156,0.19531
2439.86281,0.19437
2437.93407,0.19296
2436.00532,0.19126
2434.07658,0.18972
2432.14783,0.18863
2430.21909,0.18814
2428.29034,0.18823
2426.36160,0.18866
2424.43285,0.18954
2422.50411,0.19109
2420.57536,0.19302
2418.64662,0.19473
2416.71787,0.19596
2414.78912,0.19680
2412.86038,0.19728
2410.93163,0.19733
2409.00289,0.19709
2407.07414,0.19678
2405.14540,0.19653
2403.21665,0.19634
2401.28791,0.19628
2399.35916,0.19629
2397.43042,0.19643
2395.50167,0.19686
2393.57293,0.19759
2391.64418,0.19852
2389.71544,0.19945
2387.78669,0.20011
2385.85795,0.20044
2383.92920,0.20065
2382.00045,0.20089
2380.07171,0.20103
2378.14296,0.20101
2376.21422,0.20090
2374.28547,0.20065
2372.35673,0.20035
2370.42798,0.20022
2368.49924,0.20014
2366.57049,0.19981
2364.64175,0.19933
2362.71300,0.19901
2360.78426,0.19900
2358.85551,0.19930
2356.92677,0.19977
2354.99802,0.20046
2353.06927,0.20142
2351.14053,0.20245
2349.21178,0.20356
2347.28304,0.20490
2345.35429,0.20632
2343.42555,0.20761
2341.49680,0.20859
2339.56806,0.20911
2337.63931,0.20937
2335.71057,0.20969
2333.78182,0.21016
2331.85308,0.21080
2329.92433,0.21154
2327.99559,0.21231
2326.06684,0.21318
2324.13810,0.21425
2322.20935,0.21549
2320.28060,0.21676
2318.35186,0.21800
2316.42311,0.21910
2314.49437,0.21984
2312.56562,0.22019
2310.63688,0.22051
2308.70813,0.22093
2306.77939,0.22116
2304.85064,0.22106
2302.92190,0.22082
2300.99315,0.22062
2299.06441,0.22054
2297.13566,0.22067
2295.20692,0.22098
2293.27817,0.22137
2291.34943,0.22181
2289.42068,0.22219
2287.49193,0.22251
2285.56319,0.22292
2283.63444,0.22317
2281.70570,0.22279
2279.77695,0.22183
2277.84821,0.22065
2275.91946,0.21940
2273.99072,0.21803
2272.06197,0.21652
2270.13323,0.21525
2268.20448,0.21452
2266.27574,0.21421
2264.34699,0.21384
2262.41825,0.21305
2260.48950,0.21190
2258.56075,0.21082
2256.63201,0.21025
2254.70326,0.21038
2252.77452,0.21125
2250.84577,0.21282
2248.91703,0.21470
2246.98828,0.21631
2245.05954,0.21744
2243.13079,0.21817
2241.20205,0.21846
2239.27330,0.21838
2237.34456,0.21810
2235.41581,0.21759
2233.48707,0.21684
2231.55832,0.21608
2229.62958,0.21568
2227.70083,0.21590
2225.77208,0.21659
2223.84334,0.21734
2221.91459,0.21796
2219.98585,0.21843
2218.05710,0.21865
2216.12836,0.21853
2214.19961,0.21812
2212.27087,0.21762
2210.34212,0.21711
2208.41338,0.21652
2206.48463,0.21589
2204.55589,0.21537
2202.62714,0.21479
2200.69840,0.21410
2198.76965,0.21354
2196.84090,0.21325
2194.91216,0.21311
2192.98341,0.21286
2191.05467,0.21239
2189.12592,0.21196
2187.19718,0.21168
2185.26843,0.21150
2183.33969,0.21144
2181.41094,0.21133
2179.48220,0.21101
2177.55345,0.21049
2175.62471,0.20988
2173.69596,0.20939
2171.76722,0.20921
2169.83847,0.20927
2167.90973,0.20964
2165.98098,0.21061
2164.05223,0.21195
2162.12349,0.21298
2160.19474,0.21324
2158.26600,0.21283
2156.33725,0.21221
2154.40851,0.21171
2152.47976,0.21134
2150.55102,0.21096
2148.62227,0.21058
2146.69353,0.21022
2144.76478,0.20969
2142.83604,0.20900
2140.90729,0.20813
2138.97855,0.20695
2137.04980,0.20562
2135.12106,0.20459
2133.19231,0.20429
2131.26356,0.20491
2129.33482,0.20659
2127.40607,0.20940
2125.47733,0.21310
2123.54858,0.21723
2121.61984,0.22141
2119.69109,0.22532
2117.76235,0.22868
2115.83360,0.23128
2113.90486,0.23296
2111.97611,0.23385
2110.04737,0.23440
2108.11862,0.23490
2106.18988,0.23543
2104.26113,0.23588
2102.33238,0.23611
2100.40364,0.23610
2098.47489,0.23603
2096.54615,0.23615
2094.61740,0.23648
2092.68866,0.23683
2090.75991,0.23705
2088.83117,0.23723
2086.90242,0.23757
2084.97368,0.23827
2083.04493,0.23944
2081.11619,0.24089
2079.18744,0.24223
2077.25870,0.24330
2075.32995,0.24420
2073.40121,0.24496
2071.47246,0.24569
2069.54371,0.24630
2067.61497,0.24658
2065.68622,0.24667
2063.75748,0.24680
2061.82873,0.24678
2059.89999,0.24653
2057.97124,0.24620
2056.04250,0.24598
2054.11375,0.24574
2052.18501,0.24534
2050.25626,0.24498
2048.32752,0.24480
2046.39877,0.24475
2044.47003,0.24480
2042.54128,0.24495
2040.61254,0.24522
2038.68379,0.24536
2036.75504,0.24505
2034.82630,0.24445
2032.89755,0.24394
2030.96881,0.24367
2029.04006,0.24367
2027.11132,0.24388
2025.18257,0.24422
2023.25383,0.24463
2021.32508,0.24503
2019.39634,0.24529
2017.46759,0.24536
2015.53885,0.24534
2013.61010,0.24534
2011.68136,0.24541
2009.75261,0.24557
2007.82386,0.24571
2005.89512,0.24564
2003.96637,0.24541
2002.03763,0.24515
2000.10888,0.24483
1998.18014,0.24437
1996.25139,0.24395
1994.32265,0.24375
1992.39390,0.24378
1990.46516,0.24388
1988.53641,0.24401
1986.60767,0.24427
1984.67892,0.24467
1982.75018,0.24507
1980.82143,0.24539
1978.89269,0.24558
1976.96394,0.24570
1975.03519,0.24578
1973.10645,0.24571
1971.17770,0.24534
1969.24896,0.24464
1967.32021,0.24361
1965.39147,0.24209
1963.46272,0.24006
1961.53398,0.23830
1959.60523,0.23792
1957.67649,0.23887
1955.74774,0.24022
1953.81900,0.24130
1951.89025,0.24197
1949.96151,0.24245
1948.03276,0.24279
1946.10402,0.24282
1944.17527,0.24259
1942.24652,0.24233
1940.31778,0.24218
1938.38903,0.24208
1936.46029,0.24182
1934.53154,0.24140
1932.60280,0.24097
1930.67405,0.24049
1928.74531,0.23982
1926.81656,0.23900
1924.88782,0.23820
1922.95907,0.23764
1921.03033,0.23723
1919.10158,0.23669
1917.17284,0.23602
1915.24409,0.23540
1913.31534,0.23493
1911.38660,0.23462
1909.45785,0.23447
1907.52911,0.23442
1905.60036,0.23421
1903.67162,0.23368
1901.74287,0.23290
1899.81413,0.23189
1897.88538,0.23076
1895.95664,0.22978
1894.02789,0.22914
1892.09915,0.22891
1890.17040,0.22933
1888.24166,0.23052
1886.31291,0.23194
1884.38417,0.23303
1882.45542,0.23369
1880.52667,0.23409
1878.59793,0.23436
1876.66918,0.23442
1874.74044,0.23429
1872.81169,0.23409
1870.88295,0.23375
1868.95420,0.23323
1867.02546,0.23272
1865.09671,0.23220
1863.16797,0.23146
1861.23922,0.23048
1859.31048,0.22936
1857.38173,0.22830
1855.45299,0.22744
1853.52424,0.22673
1851.59549,0.22601
1849.66675,0.22525
1847.73800,0.22443
1845.80926,0.22348
1843.88051,0.22236
1841.95177,0.22107
1840.02302,0.21958
1838.09428,0.21784
1836.16553,0.21608
1834.23679,0.21468
1832.30804,0.21360
1830.37930,0.21264
1828.45055,0.21181
1826.52181,0.21110
1824.59306,0.21030
1822.66432,0.20925
1820.73557,0.20783
1818.80682,0.20579
1816.87808,0.20302
1814.94933,0.19965
1813.02059,0.19537
1811.09184,0.18923
1809.16310,0.18021
1807.23435,0.16723
1805.30561,0.14893
1803.37686,0.12543
1801.44812,0.10066
1799.51937,0.08163
1797.59063,0.07199
1795.66188,0.06910
1793.73314,0.07043
1791.80439,0.07827
1789.87565,0.09446
1787.94690,0.11504
1786.01815,0.13498
1784.08941,0.15107
1782.16066,0.16257
1780.23192,0.17051
1778.30317,0.17587
1776.37443,0.17938
1774.44568,0.18165
1772.51694,0.18293
1770.58819,0.18304
1768.65945,0.18204
1766.73070,0.18026
1764.80196,0.17817
1762.87321,0.17582
1760.94447,0.17313
1759.01572,0.17049
1757.08697,0.16794
1755.15823,0.16540
1753.22948,0.16298
1751.30074,0.16044
1749.37199,0.15751
1747.44325,0.15431
1745.51450,0.15114
1743.58576,0.14803
1741.65701,0.14409
1739.72827,0.13868
1737.79952,0.13446
1735.87078,0.13498
1733.94203,0.13960
1732.01329,0.14242
1730.08454,0.14183
1728.15580,0.14297
1726.22705,0.14840
1724.29830,0.15501
1722.36956,0.15947
1720.44081,0.16172
1718.51207,0.16289
1716.58332,0.16346
1714.65458,0.16374
1712.72583,0.16400
1710.79709,0.16440
1708.86834,0.16493
1706.93960,0.16536
1705.01085,0.16552
1703.08211,0.16552
1701.15336,0.16559
1699.22462,0.16577
1697.29587,0.16582
1695.36713,0.16564
1693.43838,0.16535
1691.50963,0.16508
1689.58089,0.16497
1687.65214,0.16513
1685.72340,0.16542
1683.79465,0.16561
1681.86591,0.16568
1679.93716,0.16575
1678.00842,0.16588
1676.07967,0.16608
1674.15093,0.16638
1672.22218,0.16685
1670.29344,0.16726
1668.36469,0.16722
1666.43595,0.16677
1664.50720,0.16606
1662.57845,0.16485
1660.64971,0.16319
1658.72096,0.16151
1656.79222,0.15993
1654.86347,0.15790
1652.93473,0.15435
1651.00598,0.15043
1649.07724,0.14703
1647.14849,0.14224
1645.21975,0.13541
1643.29100,0.12837
1641.36226,0.12256
1639.43351,0.11962
1637.50477,0.12141
1635.57602,0.12798
1633.64728,0.13542
1631.71853,0.14065
1629.78978,0.14427
1627.86104,0.14674
1625.93229,0.14817
1624.00355,0.14902
1622.07480,0.14945
1620.14606,0.14959
1618.21731,0.14968
1616.28857,0.14982
1614.35982,0.14994
1612.43108,0.14998
1610.50233,0.15001
1608.57359,0.15021
1606.64484,0.15052
1604.71610,0.15065
1602.78735,0.15056
1600.85861,0.15037
1598.92986,0.14997
1597.00111,0.14912
1595.07237,0.14772
1593.14362,0.14554
1591.21488,0.14255
1589.28613,0.13960
1587.35739,0.13785
1585.42864,0.13749
1583.49990,0.13792
1581.57115,0.13887
1579.64241,0.14054
1577.71366,0.14300
1575.78492,0.14567
1573.85617,0.14738
1571.92743,0.14795
1569.99868,0.14774
1568.06993,0.14715
1566.14119,0.14640
1564.21244,0.14549
1562.28370,0.14462
1560.35495,0.14355
1558.42621,0.14194
1556.49746,0.14090
1554.56872,0.14103
1552.63997,0.14165
1550.71123,0.14187
1548.78248,0.14123
1546.85374,0.13999
1544.92499,0.13846
1542.99625,0.13658
1541.06750,0.13415
1539.13876,0.13141
1537.21001,0.12929
1535.28126,0.12747
1533.35252,0.12508
1531.42377,0.12239
1529.49503,0.11994
1527.56628,0.11746
1525.63754,0.11501
1523.70879,0.11282
1521.78005,0.11030
1519.85130,0.10731
1517.92256,0.10442
1515.99381,0.10150
1514.06507,0.09848
1512.13632,0.09553
1510.20758,0.09291
1508.27883,0.09051
1506.35008,0.08769
1504.42134,0.08479
1502.49259,0.08242
1500.56385,0.08020
1498.63510,0.07768
1496.70636,0.07461
1494.77761,0.07140
1492.84887,0.06870
1490.92012,0.06633
1488.99138,0.06392
1487.06263,0.06145
1485.13389,0.05907
1483.20514,0.05686
1481.27640,0.05464
1479.34765,0.05240
1477.41891,0.05033
1475.49016,0.04850
1473.56141,0.04669
1471.63267,0.04467
1469.70392,0.04282
1467.77518,0.04140
1465.84643,0.04024
1463.91769,0.03938
1461.98894,0.03908
1460.06020,0.03924
1458.13145,0.03958
1456.20271,0.03995
1454.27396,0.04041
1452.34522,0.04113
1450.41647,0.04201
1448.48773,0.04288
1446.55898,0.04362
1444.63024,0.04427
1442.70149,0.04481
1440.77274,0.04511
1438.84400,0.04538
1436.91525,0.04599
1434.98651,0.04670
1433.05776,0.04741
1431.12902,0.04834
1429.20027,0.04940
1427.27153,0.05033
1425.34278,0.05123
1423.41404,0.05221
1421.48529,0.05329
1419.55655,0.05464
1417.62780,0.05628
1415.69906,0.05782
1413.77031,0.05912
1411.84156,0.06018
1409.91282,0.06076
1407.98407,0.06064
1406.05533,0.05975
1404.12658,0.05837
1402.19784,0.05714
1400.26909,0.05652
1398.34035,0.05654
1396.41160,0.05700
1394.48286,0.05759
1392.55411,0.05810
1390.62537,0.05835
1388.69662,0.05801
1386.76788,0.05669
1384.83913,0.05417
1382.91039,0.05037
1380.98164,0.04587
1379.05289,0.04258
1377.12415,0.04219
1375.19540,0.04450
1373.26666,0.04838
1371.33791,0.05310
1369.40917,0.05811
1367.48042,0.06232
1365.55168,0.06474
1363.62293,0.06521
1361.69419,0.06434
1359.76544,0.06369
1357.83670,0.06508
1355.90795,0.06910
1353.97921,0.07488
1352.05046,0.08102
1350.12172,0.08657
1348.19297,0.09134
1346.26422,0.09558
1344.33548,0.09947
1342.40673,0.10298
1340.47799,0.10596
1338.54924,0.10812
1336.62050,0.10929
1334.69175,0.10917
1332.76301,0.10767
1330.83426,0.10599
1328.90552,0.10584
1326.97677,0.10772
1325.04803,0.11089
1323.11928,0.11438
1321.19054,0.11757
1319.26179,0.12034
1317.33304,0.12294
1315.40430,0.12537
1313.47555,0.12731
1311.54681,0.12785
1309.61806,0.12531
1307.68932,0.11877
1305.76057,0.11136
1303.83183,0.10929
1301.90308,0.11410
1299.97434,0.12069
1298.04559,0.12506
1296.11685,0.12809
1294.18810,0.13212
1292.25936,0.13764
1290.33061,0.14325
1288.40187,0.14757
1286.47312,0.15059
1284.54437,0.15304
1282.61563,0.15533
1280.68688,0.15759
1278.75814,0.16016
1276.82939,0.16289
1274.90065,0.16484
1272.97190,0.16517
1271.04316,0.16384
1269.11441,0.16156
1267.18567,0.15910
1265.25692,0.15669
1263.32818,0.15367
1261.39943,0.14844
1259.47069,0.13988
1257.54194,0.13016
1255.61320,0.12544
1253.68445,0.13019
1251.75570,0.14112
1249.82696,0.15154
1247.89821,0.15852
1245.96947,0.16276
1244.04072,0.16547
1242.11198,0.16737
1240.18323,0.16899
1238.25449,0.17069
1236.32574,0.17228
1234.39700,0.17342
1232.46825,0.17399
1230.53951,0.17387
1228.61076,0.17291
1226.68202,0.17095
1224.75327,0.16786
1222.82452,0.16392
1220.89578,0.16048
1218.96703,0.15946
1217.03829,0.16147
1215.10954,0.16539
1213.18080,0.16964
1211.25205,0.17302
1209.32331,0.17514
1207.39456,0.17603
1205.46582,0.17585
1203.53707,0.17503
1201.60833,0.17382
1199.67958,0.17210
1197.75084,0.17025
1195.82209,0.16896
1193.89335,0.16803
1191.96460,0.16663
1190.03585,0.16450
1188.10711,0.16167
1186.17836,0.15760
1184.24962,0.15184
1182.32087,0.14492
1180.39213,0.13755
1178.46338,0.12937
1176.53464,0.11899
1174.60589,0.10511
1172.67715,0.08850
1170.74840,0.07290
1168.81966,0.06273
1166.89091,0.06008
1164.96217,0.06368
1163.03342,0.07065
1161.10467,0.07860
1159.17593,0.08619
1157.24718,0.09247
1155.31844,0.09725
1153.38969,0.10156
1151.46095,0.10724
1149.53220,0.11560
1147.60346,0.12629
1145.67471,0.13837
1143.74597,0.15118
1141.81722,0.16400
1139.88848,0.17615
1137.95973,0.18714
1136.03099,0.19632
1134.10224,0.20337
1132.17350,0.20839
1130.24475,0.21157
1128.31600,0.21336
1126.38726,0.21414
1124.45851,0.21400
1122.52977,0.21295
1120.60102,0.21101
1118.67228,0.20821
1116.74353,0.20472
1114.81479,0.20088
1112.88604,0.19664
1110.95730,0.19144
1109.02855,0.18463
1107.09981,0.17555
1105.17106,0.16531
1103.24232,0.15845
1101.31357,0.15941
1099.38483,0.16777
1097.45608,0.17906
1095.52733,0.18940
1093.59859,0.19729
1091.66984,0.20270
1089.74110,0.20597
1087.81235,0.20772
1085.88361,0.20894
1083.95486,0.21056
1082.02612,0.21305
1080.09737,0.21579
1078.16863,0.21743
1076.23988,0.21765
1074.31114,0.21702
1072.38239,0.21596
1070.45365,0.21485
1068.52490,0.21403
1066.59615,0.21368
1064.66741,0.21360
1062.73866,0.21319
1060.80992,0.21219
1058.88117,0.21069
1056.95243,0.20863
1055.02368,0.20580
1053.09494,0.20194
1051.16619,0.19666
1049.23745,0.18936
1047.30870,0.18027
1045.37996,0.17251
1043.45121,0.17076
1041.52247,0.17565
1039.59372,0.18258
1037.66498,0.18742
1035.73623,0.18979
1033.80748,0.19080
1031.87874,0.19116
1029.94999,0.19095
1028.02125,0.19006
1026.09250,0.18841
1024.16376,0.18633
1022.23501,0.18402
1020.30627,0.18117
1018.37752,0.17757
1016.44878,0.17339
1014.52003,0.16860
1012.59129,0.16287
1010.66254,0.15593
1008.73380,0.14725
1006.80505,0.13579
1004.87631,0.12051
1002.94756,0.10157
1001.01881,0.08193
999.09007,0.06767
997.16132,0.06482
995.23258,0.07476
993.30383,0.09316
991.37509,0.11313
989.44634,0.12947
987.51760,0.13987
985.58885,0.14326
983.66011,0.13923
981.73136,0.12796
979.80262,0.11054
977.87387,0.09029
975.94513,0.07242
974.01638,0.06195
972.08763,0.06264
970.15889,0.07578
968.23014,0.09797
966.30140,0.12234
964.37265,0.14335
962.44391,0.15927
960.51516,0.17089
958.58642,0.17951
956.65767,0.18612
954.72893,0.19109
952.80018,0.19430
950.87144,0.19608
948.94269,0.19688
947.01395,0.19604
945.08520,0.19247
943.15646,0.18652
941.22771,0.18164
939.29896,0.18272
937.37022,0.19097
935.44147,0.20203
933.51273,0.21103
931.58398,0.21698
929.65524,0.22125
927.72649,0.22472
925.79775,0.22748
923.86900,0.22937
921.94026,0.23038
920.01151,0.23058
918.08277,0.22990
916.15402,0.22838
914.22528,0.22610
912.29653,0.22293
910.36779,0.21862
908.43904,0.21200
906.51029,0.20085
904.58155,0.18333
902.65280,0.16109
900.72406,0.14200
898.79531,0.13622
896.86657,0.14676
894.93782,0.16595
893.00908,0.18265
891.08033,0.18953
889.15159,0.18145
887.22284,0.15517
885.29410,0.11790
883.36535,0.08538
881.43661,0.06539
879.50786,0.05433
877.57911,0.04838
875.65037,0.04740
873.72162,0.05183
871.79288,0.06231
869.86413,0.08004
867.93539,0.10340
866.00664,0.12681
864.07790,0.14539
862.14915,0.15812
860.22041,0.16618
858.29166,0.17072
856.36292,0.17227
854.43417,0.17038
852.50543,0.16180
850.57668,0.14336
848.64794,0.12294
846.71919,0.11111
844.79044,0.10113
842.86170,0.08571
840.93295,0.07823
839.00421,0.09170
837.07546,0.11820
835.14672,0.14249
833.21797,0.15890
831.28923,0.16981
829.36048,0.17794
827.43174,0.18404
825.50299,0.18803
823.57425,0.19010
821.64550,0.19031
819.71676,0.18828
817.78801,0.18304
815.85926,0.17302
813.93052,0.15792
812.00177,0.14103
810.07303,0.12908
808.14428,0.12794
806.21554,0.13798
804.28679,0.15373
802.35805,0.16847
800.42930,0.17909
798.50056,0.18648
796.57181,0.19252
794.64307,0.19797
792.71432,0.20271
790.78558,0.20686
788.85683,0.21083
786.92809,0.21464
784.99934,0.21807
783.07059,0.22113
781.14185,0.22401
779.21310,0.22676
777.28436,0.22894
775.35561,0.23059
773.42687,0.23213
771.49812,0.23363
769.56938,0.23531
767.64063,0.23717
765.71189,0.23888
763.78314,0.24041
761.85440,0.24179
759.92565,0.24304
757.99691,0.24430
756.06816,0.24538
754.13942,0.24601
752.21067,0.24634
750.28192,0.24611
748.35318,0.24499
746.42443,0.24350
744.49569,0.24195
742.56694,0.24016
740.63820,0.23814
738.70945,0.23596
736.78071,0.23362
734.85196,0.23091
732.92322,0.22742
730.99447,0.22291
729.06573,0.21704
727.13698,0.20954
725.20824,0.19982
723.27949,0.18639
721.35074,0.16772
719.42200,0.14237
717.49325,0.11063
715.56451,0.07886
713.63576,0.05948
711.70702,0.06333
709.77827,0.09026
707.84953,0.12789
705.92078,0.16235
703.99204,0.18793
702.06329,0.20506
700.13455,0.21593
698.20580,0.22355
696.27706,0.22928
694.34831,0.23336
692.41957,0.23665
690.49082,0.23923
688.56207,0.24074
686.63333,0.24160
684.70458,0.24200
682.77584,0.24219
680.84709,0.24258
678.91835,0.24318
676.98960,0.24366
675.06086,0.24405
673.13211,0.24451
671.20337,0.24490
669.27462,0.24484
667.34588,0.24464
665.41713,0.24516
663.48839,0.24574
661.55964,0.24519
659.63090,0.24399
657.70215,0.24306
655.77340,0.24243
653.84466,0.24185
651.91591,0.24107
649.98717,0.23980
648.05842,0.23819
646.12968,0.23665
644.20093,0.23502
642.27219,0.23314
640.34344,0.23185
638.41470,0.23148
636.48595,0.23067
634.55721,0.22878
632.62846,0.22709
630.69972,0.22637
628.77097,0.22607
626.84222,0.22579
624.91348,0.22552
622.98473,0.22539
621.05599,0.22525
619.12724,0.22419
617.19850,0.22219
615.26975,0.22077
613.34101,0.22003
611.41226,0.21885
609.48352,0.21685
607.55477,0.21440
605.62603,0.21229
603.69728,0.21013
601.76854,0.20722
599.83979,0.20462
