7497.03301,0.58678
7495.10426,0.58797
7493.17552,0.59204
7491.24677,0.59329
7489.31803,0.58900
7487.38928,0.58347
7485.46054,0.58304
7483.53179,0.58573
7481.60305,0.58309
7479.67430,0.57816
7477.74556,0.57843
7475.81681,0.58150
7473.88807,0.58395
7471.95932,0.58747
7470.03057,0.59078
7468.10183,0.58871
7466.17308,0.58285
7464.24434,0.58049
7462.31559,0.58247
7460.38685,0.58580
7458.45810,0.58795
7456.52936,0.58727
7454.60061,0.58653
7452.67187,0.58809
7450.74312,0.59002
7448.81438,0.58899
7446.88563,0.58387
7444.95689,0.57952
7443.02814,0.57891
7441.09940,0.58002
7439.17065,0.58090
7437.24190,0.57934
7435.31316,0.57604
7433.38441,0.57372
7431.45567,0.57263
7429.52692,0.57408
7427.59818,0.58090
7425.66943,0.58923
7423.74069,0.59051
7421.81194,0.58649
7419.88320,0.58430
7417.95445,0.58382
7416.02571,0.58196
7414.09696,0.57866
7412.16822,0.57657
7410.23947,0.57787
7408.31073,0.58235
7406.38198,0.58599
7404.45323,0.58432
7402.52449,0.58000
7400.59574,0.57667
7398.66700,0.57397
7396.73825,0.57262
7394.80951,0.57446
7392.88076,0.57802
7390.95202,0.57860
7389.02327,0.57792
7387.09453,0.58196
7385.16578,0.58552
7383.23704,0.58306
7381.30829,0.58147
7379.37955,0.58398
7377.45080,0.58639
7375.52205,0.58611
7373.59331,0.58189
7371.66456,0.57722
7369.73582,0.57688
7367.80707,0.57976
7365.87833,0.58330
7363.94958,0.58675
7362.02084,0.58693
7360.09209,0.58156
7358.16335,0.57597
7356.23460,0.57489
7354.30586,0.57510
7352.37711,0.57528
7350.44837,0.57771
7348.51962,0.57845
7346.59088,0.57449
7344.66213,0.57203
7342.73338,0.57469
7340.80464,0.57974
7338.87589,0.58206
7336.94715,0.57832
7335.01840,0.57472
7333.08966,0.57633
7331.16091,0.57802
7329.23217,0.57594
7327.30342,0.57395
7325.37468,0.57407
7323.44593,0.57369
7321.51719,0.57430
7319.58844,0.57626
7317.65970,0.57548
7315.73095,0.57471
7313.80221,0.57785
7311.87346,0.57924
7309.94471,0.57693
7308.01597,0.57755
7306.08722,0.58188
7304.15848,0.58617
7302.22973,0.58719
7300.30099,0.58355
7298.37224,0.58041
7296.44350,0.57973
7294.51475,0.57841
7292.58601,0.57771
7290.65726,0.57706
7288.72852,0.57438
7286.79977,0.57289
7284.87103,0.57525
7282.94228,0.57892
7281.01353,0.58044
7279.08479,0.57948
7277.15604,0.57644
7275.22730,0.57131
7273.29855,0.56635
7271.36981,0.56405
7269.44106,0.56501
7267.51232,0.57078
7265.58357,0.58047
7263.65483,0.58845
7261.72608,0.59294
7259.79734,0.59419
7257.86859,0.59100
7255.93985,0.58737
7254.01110,0.58592
7252.08236,0.58450
7250.15361,0.58231
7248.22486,0.57940
7246.29612,0.57782
7244.36737,0.57861
7242.43863,0.58041
7240.50988,0.58218
7238.58114,0.58175
7236.65239,0.57901
7234.72365,0.57524
7232.79490,0.57115
7230.86616,0.56993
7228.93741,0.57333
7227.00867,0.57883
7225.07992,0.58376
7223.15118,0.58594
7221.22243,0.58434
7219.29369,0.58125
7217.36494,0.57829
7215.43619,0.57628
7213.50745,0.57693
7211.57870,0.57627
7209.64996,0.57153
7207.72121,0.56831
7205.79247,0.57017
7203.86372,0.57581
7201.93498,0.58192
7200.00623,0.58370
7198.07749,0.58070
7196.14874,0.57812
7194.22000,0.57993
7192.29125,0.58316
7190.36251,0.58243
7188.43376,0.57977
7186.50501,0.57920
7184.57627,0.57805
7182.64752,0.57525
7180.71878,0.57443
7178.79003,0.57653
7176.86129,0.57824
7174.93254,0.57643
7173.00380,0.57377
7171.07505,0.57457
7169.14631,0.57704
7167.21756,0.57842
7165.28882,0.57936
7163.36007,0.57988
7161.43133,0.57839
7159.50258,0.57376
7157.57384,0.56845
7155.64509,0.56735
7153.71634,0.57073
7151.78760,0.57506
7149.85885,0.57790
7147.93011,0.57751
7146.00136,0.57436
7144.07262,0.57197
7142.14387,0.57256
7140.21513,0.57558
7138.28638,0.57933
7136.35764,0.58143
7134.42889,0.57953
7132.50015,0.57452
7130.57140,0.57055
7128.64266,0.56916
7126.71391,0.57028
7124.78516,0.57456
7122.85642,0.57771
7120.92767,0.57567
7118.99893,0.57240
7117.07018,0.57292
7115.14144,0.57608
7113.21269,0.57727
7111.28395,0.57543
7109.35520,0.57388
7107.42646,0.57447
7105.49771,0.57477
7103.56897,0.57222
7101.64022,0.56907
7099.71148,0.56881
7097.78273,0.56946
7095.85399,0.56749
7093.92524,0.56538
7091.99649,0.56581
7090.06775,0.56798
7088.13900,0.57171
7086.21026,0.57461
7084.28151,0.57388
7082.35277,0.57192
7080.42402,0.57134
7078.49528,0.57094
7076.56653,0.56890
7074.63779,0.56478
7072.70904,0.56139
7070.78030,0.56236
7068.85155,0.56499
7066.92281,0.56553
7064.99406,0.56437
7063.06532,0.56165
7061.13657,0.55774
7059.20782,0.55425
7057.27908,0.55317
7055.35033,0.55355
7053.42159,0.55327
7051.49284,0.55442
7049.56410,0.55865
7047.63535,0.56311
7045.70661,0.56362
7043.77786,0.56033
7041.84912,0.55784
7039.92037,0.55946
7037.99163,0.56263
7036.06288,0.56203
7034.13414,0.56020
7032.20539,0.56239
7030.27664,0.56510
7028.34790,0.56365
7026.41915,0.56008
7024.49041,0.55858
7022.56166,0.55991
7020.63292,0.56211
7018.70417,0.56323
7016.77543,0.56239
7014.84668,0.56022
7012.91794,0.55722
7010.98919,0.55363
7009.06045,0.55171
7007.13170,0.55372
7005.20296,0.55706
7003.27421,0.55750
7001.34547,0.55544
6999.41672,0.55391
6997.48797,0.55428
6995.55923,0.55471
6993.63048,0.55450
6991.70174,0.55579
6989.77299,0.55792
6987.84425,0.55813
6985.91550,0.55543
6983.98676,0.55151
6982.05801,0.55034
6980.12927,0.55269
6978.20052,0.55549
6976.27178,0.55610
6974.34303,0.55234
6972.41429,0.54719
6970.48554,0.54712
6968.55680,0.55046
6966.62805,0.55240
6964.69930,0.55257
6962.77056,0.55107
6960.84181,0.54861
6958.91307,0.54709
6956.98432,0.54650
6955.05558,0.54542
6953.12683,0.54477
6951.19809,0.54690
6949.26934,0.55065
6947.34060,0.55279
6945.41185,0.55230
6943.48311,0.55029
6941.55436,0.54844
6939.62562,0.54661
6937.69687,0.54467
6935.76812,0.54539
6933.83938,0.54827
6931.91063,0.54942
6929.98189,0.54957
6928.05314,0.55182
6926.12440,0.55544
6924.19565,0.55587
6922.26691,0.55199
6920.33816,0.54842
6918.40942,0.54828
6916.48067,0.55064
6914.55193,0.55146
6912.62318,0.54965
6910.69444,0.54964
6908.76569,0.55226
6906.83695,0.55346
6904.90820,0.55060
6902.97945,0.54605
6901.05071,0.54465
6899.12196,0.54603
6897.19322,0.54593
6895.26447,0.54290
6893.33573,0.53875
6891.40698,0.53672
6889.47824,0.53907
6887.54949,0.54376
6885.62075,0.54673
6883.69200,0.54736
6881.76326,0.54696
6879.83451,0.54620
6877.90577,0.54660
6875.97702,0.54739
6874.04828,0.54540
6872.11953,0.54126
6870.19078,0.53907
6868.26204,0.54182
6866.33329,0.54703
6864.40455,0.54889
6862.47580,0.54765
6860.54706,0.54692
6858.61831,0.54675
6856.68957,0.54587
6854.76082,0.54553
6852.83208,0.54684
6850.90333,0.54659
6848.97459,0.54447
6847.04584,0.54523
6845.11710,0.54803
6843.18835,0.54819
6841.25960,0.54597
6839.33086,0.54403
6837.40211,0.54261
6835.47337,0.54177
6833.54462,0.54150
6831.61588,0.54102
6829.68713,0.54130
6827.75839,0.54368
6825.82964,0.54781
6823.90090,0.55127
6821.97215,0.55167
6820.04341,0.54989
6818.11466,0.54749
6816.18592,0.54574
6814.25717,0.54561
6812.32843,0.54539
6810.39968,0.54355
6808.47093,0.54165
6806.54219,0.54146
6804.61344,0.54218
6802.68470,0.54363
6800.75595,0.54672
6798.82721,0.54854
6796.89846,0.54765
6794.96972,0.54671
6793.04097,0.54513
6791.11223,0.54310
6789.18348,0.54293
6787.25474,0.54311
6785.32599,0.54189
6783.39725,0.54091
6781.46850,0.54246
6779.53975,0.54597
6777.61101,0.54861
6775.68226,0.54853
6773.75352,0.54667
6771.82477,0.54593
6769.89603,0.54571
6767.96728,0.54350
6766.03854,0.54117
6764.10979,0.53979
6762.18105,0.53734
6760.25230,0.53582
6758.32356,0.53773
6756.39481,0.53958
6754.46607,0.53940
6752.53732,0.54016
6750.60858,0.54232
6748.67983,0.54402
6746.75108,0.54491
6744.82234,0.54539
6742.89359,0.54560
6740.96485,0.54574
6739.03610,0.54595
6737.10736,0.54509
6735.17861,0.54205
6733.24987,0.53859
6731.32112,0.53774
6729.39238,0.53919
6727.46363,0.54038
6725.53489,0.54010
6723.60614,0.53884
6721.67740,0.53799
6719.74865,0.53762
6717.81991,0.53746
6715.89116,0.53897
6713.96241,0.54145
6712.03367,0.54286
6710.10492,0.54404
6708.17618,0.54479
6706.24743,0.54368
6704.31869,0.54257
6702.38994,0.54303
6700.46120,0.54441
6698.53245,0.54560
6696.60371,0.54543
6694.67496,0.54501
6692.74622,0.54510
6690.81747,0.54413
6688.88873,0.54215
6686.95998,0.54074
6685.03123,0.54138
6683.10249,0.54276
6681.17374,0.54246
6679.24500,0.54274
6677.31625,0.54503
6675.38751,0.54625
6673.45876,0.54581
6671.53002,0.54568
6669.60127,0.54670
6667.67253,0.54785
6665.74378,0.54679
6663.81504,0.54452
6661.88629,0.54308
6659.95755,0.54100
6658.02880,0.53888
6656.10006,0.53973
6654.17131,0.54343
6652.24256,0.54640
6650.31382,0.54711
6648.38507,0.54878
6646.45633,0.55150
6644.52758,0.55089
6642.59884,0.54697
6640.67009,0.54331
6638.74135,0.54152
6636.81260,0.54245
6634.88386,0.54551
6632.95511,0.54794
6631.02637,0.54926
6629.09762,0.54998
6627.16888,0.54906
6625.24013,0.54767
6623.31139,0.54764
6621.38264,0.54741
6619.45389,0.54599
6617.52515,0.54514
6615.59640,0.54522
6613.66766,0.54599
6611.73891,0.54780
6609.81017,0.54886
6607.88142,0.54777
6605.95268,0.54635
6604.02393,0.54656
6602.09519,0.54748
6600.16644,0.54771
6598.23770,0.54823
6596.30895,0.54888
6594.38021,0.54734
6592.45146,0.54498
6590.52271,0.54573
6588.59397,0.54872
6586.66522,0.55068
6584.73648,0.55155
6582.80773,0.55132
6580.87899,0.55041
6578.95024,0.55198
6577.02150,0.55544
6575.09275,0.55625
6573.16401,0.55495
6571.23526,0.55422
6569.30652,0.55280
6567.37777,0.55084
6565.44903,0.55028
6563.52028,0.55008
6561.59154,0.54890
6559.66279,0.54778
6557.73404,0.54856
6555.80530,0.55041
6553.87655,0.55014
6551.94781,0.54778
6550.01906,0.54703
6548.09032,0.54915
6546.16157,0.55182
6544.23283,0.55314
6542.30408,0.55337
6540.37534,0.55316
6538.44659,0.55289
6536.51785,0.55364
6534.58910,0.55515
6532.66036,0.55502
6530.73161,0.55241
6528.80287,0.54962
6526.87412,0.54900
6524.94537,0.54984
6523.01663,0.55058
6521.08788,0.55143
6519.15914,0.55209
6517.23039,0.55153
6515.30165,0.55085
6513.37290,0.55149
6511.44416,0.55198
6509.51541,0.55095
6507.58667,0.54912
6505.65792,0.54711
6503.72918,0.54628
6501.80043,0.54829
6499.87169,0.55160
6497.94294,0.55260
6496.01419,0.55147
6494.08545,0.55110
6492.15670,0.55107
6490.22796,0.55001
6488.29921,0.54945
6486.37047,0.55087
6484.44172,0.55346
6482.51298,0.55527
6480.58423,0.55460
6478.65549,0.55240
6476.72674,0.55146
6474.79800,0.55137
6472.86925,0.55027
6470.94051,0.54945
6469.01176,0.55099
6467.08302,0.55414
6465.15427,0.55617
6463.22552,0.55563
6461.29678,0.55415
6459.36803,0.55343
6457.43929,0.55289
6455.51054,0.55232
6453.58180,0.55248
6451.65305,0.55337
6449.72431,0.55314
6447.79556,0.55034
6445.86682,0.54800
6443.93807,0.54832
6442.00933,0.54837
6440.08058,0.54769
6438.15184,0.54914
6436.22309,0.55286
6434.29434,0.55612
6432.36560,0.55582
6430.43685,0.55241
6428.50811,0.55037
6426.57936,0.55111
6424.65062,0.55155
6422.72187,0.55100
6420.79313,0.55025
6418.86438,0.54941
6416.93564,0.55038
6415.00689,0.55282
6413.07815,0.55312
6411.14940,0.55162
6409.22066,0.55177
6407.29191,0.55409
6405.36317,0.55601
6403.43442,0.55546
6401.50567,0.55438
6399.57693,0.55531
6397.64818,0.55620
6395.71944,0.55433
6393.79069,0.55110
6391.86195,0.54974
6389.93320,0.55064
6388.00446,0.55197
6386.07571,0.55333
6384.14697,0.55490
6382.21822,0.55625
6380.28948,0.55673
6378.36073,0.55606
6376.43199,0.55487
6374.50324,0.55408
6372.57450,0.55400
6370.64575,0.55434
6368.71700,0.55532
6366.78826,0.55720
6364.85951,0.55765
6362.93077,0.55459
6361.00202,0.55110
6359.07328,0.55084
6357.14453,0.55245
6355.21579,0.55371
6353.28704,0.55414
6351.35830,0.55376
6349.42955,0.55266
6347.50081,0.55063
6345.57206,0.54916
6343.64332,0.55018
6341.71457,0.55254
6339.78582,0.55325
6337.85708,0.55191
6335.92833,0.55161
6333.99959,0.55351
6332.07084,0.55532
6330.14210,0.55582
6328.21335,0.55609
6326.28461,0.55736
6324.35586,0.55938
6322.42712,0.56002
6320.49837,0.55844
6318.56963,0.55741
6316.64088,0.55835
6314.71214,0.55967
6312.78339,0.55984
6310.85465,0.55808
6308.92590,0.55520
6306.99715,0.55335
6305.06841,0.55350
6303.13966,0.55465
6301.21092,0.55586
6299.28217,0.55683
6297.35343,0.55657
6295.42468,0.55553
6293.49594,0.55482
6291.56719,0.55482
6289.63845,0.55626
6287.70970,0.55908
6285.78096,0.56112
6283.85221,0.55965
6281.92347,0.55572
6279.99472,0.55325
6278.06598,0.55280
6276.13723,0.55219
6274.20848,0.55218
6272.27974,0.55441
6270.35099,0.55687
6268.42225,0.55834
6266.49350,0.55953
6264.56476,0.55938
6262.63601,0.55783
6260.70727,0.55674
6258.77852,0.55689
6256.84978,0.55726
6254.92103,0.55689
6252.99229,0.55610
6251.06354,0.55615
6249.13480,0.55777
6247.20605,0.55915
6245.27730,0.55934
6243.34856,0.56004
6241.41981,0.56174
6239.49107,0.56300
6237.56232,0.56234
6235.63358,0.56022
6233.70483,0.55858
6231.77609,0.55798
6229.84734,0.55817
6227.91860,0.55974
6225.98985,0.56152
6224.06111,0.56080
6222.13236,0.55847
6220.20362,0.55790
6218.27487,0.55987
6216.34613,0.56208
6214.41738,0.56220
6212.48863,0.56097
6210.55989,0.56037
6208.63114,0.56054
6206.70240,0.56115
6204.77365,0.56216
6202.84491,0.56326
6200.91616,0.56493
6198.98742,0.56682
6197.05867,0.56726
6195.12993,0.56588
6193.20118,0.56379
6191.27244,0.56237
6189.34369,0.56182
6187.41495,0.56188
6185.48620,0.56287
6183.55746,0.56424
6181.62871,0.56512
6179.69996,0.56490
6177.77122,0.56425
6175.84247,0.56452
6173.91373,0.56497
6171.98498,0.56522
6170.05624,0.56667
6168.12749,0.56856
6166.19875,0.56840
6164.27000,0.56639
6162.34126,0.56538
6160.41251,0.56718
6158.48377,0.56986
6156.55502,0.56932
6154.62628,0.56596
6152.69753,0.56441
6150.76878,0.56526
6148.84004,0.56537
6146.91129,0.56456
6144.98255,0.56532
6143.05380,0.56759
6141.12506,0.56900
6139.19631,0.56886
6137.26757,0.56870
6135.33882,0.56932
6133.41008,0.56883
6131.48133,0.56667
6129.55259,0.56580
6127.62384,0.56728
6125.69510,0.56898
6123.76635,0.56946
6121.83761,0.56962
6119.90886,0.57045
6117.98011,0.57056
6116.05137,0.56908
6114.12262,0.56827
6112.19388,0.56842
6110.26513,0.56704
6108.33639,0.56508
6106.40764,0.56508
6104.47890,0.56612
6102.55015,0.56633
6100.62141,0.56628
6098.69266,0.56742
6096.76392,0.56893
6094.83517,0.56905
6092.90643,0.56799
6090.97768,0.56680
6089.04893,0.56646
6087.12019,0.56731
6085.19144,0.56801
6083.26270,0.56833
6081.33395,0.56955
6079.40521,0.57110
6077.47646,0.57188
6075.54772,0.57200
6073.61897,0.57200
6071.69023,0.57235
6069.76148,0.57244
6067.83274,0.57169
6065.90399,0.57102
6063.97525,0.57109
6062.04650,0.57101
6060.11776,0.57075
6058.18901,0.57114
6056.26026,0.57156
6054.33152,0.57113
6052.40277,0.57047
6050.47403,0.57078
6048.54528,0.57122
6046.61654,0.57001
6044.68779,0.56841
6042.75905,0.56811
6040.83030,0.56842
6038.90156,0.56885
6036.97281,0.56984
6035.04407,0.57177
6033.11532,0.57371
6031.18658,0.57437
6029.25783,0.57426
6027.32909,0.57400
6025.40034,0.57258
6023.47159,0.56969
6021.54285,0.56732
6019.61410,0.56692
6017.68536,0.56783
6015.75661,0.56932
6013.82787,0.57085
6011.89912,0.57145
6009.97038,0.57135
6008.04163,0.57167
6006.11289,0.57235
6004.18414,0.57286
6002.25540,0.57304
6000.32665,0.57240
5998.39791,0.57107
5996.46916,0.57031
5994.54041,0.57087
5992.61167,0.57200
5990.68292,0.57256
5988.75418,0.57214
5986.82543,0.57078
5984.89669,0.56925
5982.96794,0.56899
5981.03920,0.57005
5979.11045,0.57115
5977.18171,0.57158
5975.25296,0.57105
5973.32422,0.56957
5971.39547,0.56859
5969.46673,0.56907
5967.53798,0.56981
5965.60924,0.57016
5963.68049,0.57048
5961.75174,0.57047
5959.82300,0.57032
5957.89425,0.57069
5955.96551,0.57113
5954.03676,0.57100
5952.10802,0.57052
5950.17927,0.56997
5948.25053,0.56891
5946.32178,0.56743
5944.39304,0.56723
5942.46429,0.56907
5940.53555,0.57079
5938.60680,0.57049
5936.67806,0.56937
5934.74931,0.56931
5932.82057,0.57007
5930.89182,0.57037
5928.96307,0.57013
5927.03433,0.56982
5925.10558,0.56977
5923.17684,0.57043
5921.24809,0.57114
5919.31935,0.57089
5917.39060,0.57018
5915.46186,0.56973
5913.53311,0.56965
5911.60437,0.56971
5909.67562,0.56946
5907.74688,0.56901
5905.81813,0.56932
5903.88939,0.57067
5901.96064,0.57102
5900.03189,0.56917
5898.10315,0.56733
5896.17440,0.56713
5894.24566,0.56758
5892.31691,0.56804
5890.38817,0.56889
5888.45942,0.56929
5886.53068,0.56776
5884.60193,0.56558
5882.67319,0.56593
5880.74444,0.56889
5878.81570,0.57132
5876.88695,0.57132
5874.95821,0.56993
5873.02946,0.56896
5871.10072,0.56847
5869.17197,0.56752
5867.24322,0.56633
5865.31448,0.56564
5863.38573,0.56546
5861.45699,0.56527
5859.52824,0.56523
5857.59950,0.56589
5855.67075,0.56655
5853.74201,0.56657
5851.81326,0.56636
5849.88452,0.56652
5847.95577,0.56723
5846.02703,0.56785
5844.09828,0.56767
5842.16954,0.56711
5840.24079,0.56672
5838.31205,0.56646
5836.38330,0.56688
5834.45455,0.56804
5832.52581,0.56831
5830.59706,0.56715
5828.66832,0.56627
5826.73957,0.56625
5824.81083,0.56605
5822.88208,0.56548
5820.95334,0.56509
5819.02459,0.56506
5817.09585,0.56551
5815.16710,0.56659
5813.23836,0.56763
5811.30961,0.56816
5809.38087,0.56869
5807.45212,0.56890
5805.52337,0.56854
5803.59463,0.56823
5801.66588,0.56763
5799.73714,0.56636
5797.80839,0.56469
5795.87965,0.56335
5793.95090,0.56300
5792.02216,0.56292
5790.09341,0.56242
5788.16467,0.56252
5786.23592,0.56384
5784.30718,0.56539
5782.37843,0.56644
5780.44969,0.56688
5778.52094,0.56653
5776.59220,0.56628
5774.66345,0.56682
5772.73470,0.56704
5770.80596,0.56640
5768.87721,0.56564
5766.94847,0.56511
5765.01972,0.56506
5763.09098,0.56569
5761.16223,0.56622
5759.23349,0.56590
5757.30474,0.56495
5755.37600,0.56401
5753.44725,0.56340
5751.51851,0.56332
5749.58976,0.56372
5747.66102,0.56414
5745.73227,0.56434
5743.80352,0.56441
5741.87478,0.56437
5739.94603,0.56440
5738.01729,0.56465
5736.08854,0.56529
5734.15980,0.56595
5732.23105,0.56598
5730.30231,0.56579
5728.37356,0.56599
5726.44482,0.56593
5724.51607,0.56497
5722.58733,0.56394
5720.65858,0.56399
5718.72984,0.56533
5716.80109,0.56691
5714.87235,0.56688
5712.94360,0.56553
5711.01485,0.56524
5709.08611,0.56629
5707.15736,0.56725
5705.22862,0.56743
5703.29987,0.56661
5701.37113,0.56578
5699.44238,0.56597
5697.51364,0.56638
5695.58489,0.56655
5693.65615,0.56681
5691.72740,0.56660
5689.79866,0.56560
5687.86991,0.56459
5685.94117,0.56479
5684.01242,0.56616
5682.08368,0.56650
5680.15493,0.56538
5678.22618,0.56490
5676.29744,0.56495
5674.36869,0.56429
5672.43995,0.56423
5670.51120,0.56534
5668.58246,0.56574
5666.65371,0.56514
5664.72497,0.56465
5662.79622,0.56441
5660.86748,0.56453
5658.93873,0.56513
5657.00999,0.56569
5655.08124,0.56587
5653.15250,0.56555
5651.22375,0.56491
5649.29500,0.56479
5647.36626,0.56520
5645.43751,0.56486
5643.50877,0.56344
5641.58002,0.56239
5639.65128,0.56267
5637.72253,0.56340
5635.79379,0.56381
5633.86504,0.56443
5631.93630,0.56542
5630.00755,0.56649
5628.07881,0.56733
5626.15006,0.56752
5624.22132,0.56699
5622.29257,0.56610
5620.36383,0.56553
5618.43508,0.56559
5616.50633,0.56578
5614.57759,0.56546
5612.64884,0.56467
5610.72010,0.56416
5608.79135,0.56399
5606.86261,0.56342
5604.93386,0.56275
5603.00512,0.56303
5601.07637,0.56417
5599.14763,0.56516
5597.21888,0.56553
5595.29014,0.56587
5593.36139,0.56655
5591.43265,0.56684
5589.50390,0.56646
5587.57516,0.56649
5585.64641,0.56718
5583.71766,0.56753
5581.78892,0.56755
5579.86017,0.56731
5577.93143,0.56630
5576.00268,0.56515
5574.07394,0.56482
5572.14519,0.56554
5570.21645,0.56671
5568.28770,0.56693
5566.35896,0.56591
5564.43021,0.56504
5562.50147,0.56503
5560.57272,0.56542
5558.64398,0.56589
5556.71523,0.56640
5554.78648,0.56704
5552.85774,0.56766
5550.92899,0.56789
5549.00025,0.56768
5547.07150,0.56692
5545.14276,0.56611
5543.21401,0.56639
5541.28527,0.56734
5539.35652,0.56772
5537.42778,0.56732
5535.49903,0.56650
5533.57029,0.56607
5531.64154,0.56665
5529.71280,0.56728
5527.78405,0.56672
5525.85531,0.56568
5523.92656,0.56558
5521.99781,0.56641
5520.06907,0.56736
5518.14032,0.56814
5516.21158,0.56889
5514.28283,0.56953
5512.35409,0.56953
5510.42534,0.56858
5508.49660,0.56736
5506.56785,0.56679
5504.63911,0.56710
5502.71036,0.56809
5500.78162,0.56912
5498.85287,0.56975
5496.92413,0.56989
5494.99538,0.56901
5493.06664,0.56774
5491.13789,0.56776
5489.20914,0.56860
5487.28040,0.56868
5485.35165,0.56797
5483.42291,0.56699
5481.49416,0.56616
5479.56542,0.56623
5477.63667,0.56715
5475.70793,0.56814
5473.77918,0.56867
5471.85044,0.56866
5469.92169,0.56858
5467.99295,0.56920
5466.06420,0.57025
5464.13546,0.57048
5462.20671,0.57021
5460.27796,0.57048
5458.34922,0.57005
5456.42047,0.56858
5454.49173,0.56820
5452.56298,0.56902
5450.63424,0.56963
5448.70549,0.57016
5446.77675,0.57071
5444.84800,0.57061
5442.91926,0.57048
5440.99051,0.57104
5439.06177,0.57118
5437.13302,0.57046
5435.20428,0.57015
5433.27553,0.57006
5431.34679,0.56924
5429.41804,0.56854
5427.48929,0.56910
5425.56055,0.57058
5423.63180,0.57173
5421.70306,0.57196
5419.77431,0.57156
5417.84557,0.57088
5415.91682,0.57056
5413.98808,0.57106
5412.05933,0.57147
5410.13059,0.57131
5408.20184,0.57153
5406.27310,0.57218
5404.34435,0.57253
5402.41561,0.57279
5400.48686,0.57335
5398.55811,0.57386
5396.62937,0.57410
5394.70062,0.57390
5392.77188,0.57294
5390.84313,0.57188
5388.91439,0.57170
5386.98564,0.57204
5385.05690,0.57224
5383.12815,0.57231
5381.19941,0.57212
5379.27066,0.57197
5377.34192,0.57250
5375.41317,0.57294
5373.48443,0.57258
5371.55568,0.57217
5369.62694,0.57195
5367.69819,0.57180
5365.76944,0.57208
5363.84070,0.57242
5361.91195,0.57235
5359.98321,0.57233
5358.05446,0.57230
5356.12572,0.57178
5354.19697,0.57140
5352.26823,0.57177
5350.33948,0.57179
5348.41074,0.57095
5346.48199,0.57062
5344.55325,0.57121
5342.62450,0.57164
5340.69576,0.57164
5338.76701,0.57155
5336.83827,0.57134
5334.90952,0.57084
5332.98077,0.56996
5331.05203,0.56914
5329.12328,0.56900
5327.19454,0.56936
5325.26579,0.56942
5323.33705,0.56912
5321.40830,0.56891
5319.47956,0.56863
5317.55081,0.56776
5315.62207,0.56651
5313.69332,0.56585
5311.76458,0.56566
5309.83583,0.56501
5307.90709,0.56440
5305.97834,0.56435
5304.04959,0.56399
5302.12085,0.56278
5300.19210,0.56131
5298.26336,0.56039
5296.33461,0.55987
5294.40587,0.55919
5292.47712,0.55858
5290.54838,0.55810
5288.61963,0.55694
5286.69089,0.55526
5284.76214,0.55424
5282.83340,0.55373
5280.90465,0.55254
5278.97591,0.55067
5277.04716,0.54920
5275.11842,0.54841
5273.18967,0.54775
5271.26092,0.54662
5269.33218,0.54476
5267.40343,0.54271
5265.47469,0.54088
5263.54594,0.53934
5261.61720,0.53824
5259.68845,0.53703
5257.75971,0.53496
5255.83096,0.53226
5253.90222,0.52966
5251.97347,0.52753
5250.04473,0.52595
5248.11598,0.52478
5246.18724,0.52335
5244.25849,0.52180
5242.32975,0.52039
5240.40100,0.51839
5238.47225,0.51586
5236.54351,0.51358
5234.61476,0.51186
5232.68602,0.51077
5230.75727,0.50974
5228.82853,0.50844
5226.89978,0.50733
5224.97104,0.50629
5223.04229,0.50507
5221.11355,0.50382
5219.18480,0.50232
5217.25606,0.50068
5215.32731,0.49929
5213.39857,0.49832
5211.46982,0.49748
5209.54107,0.49620
5207.61233,0.49483
5205.68358,0.49446
5203.75484,0.49493
5201.82609,0.49530
5199.89735,0.49553
5197.96860,0.49611
5196.03986,0.49687
5194.11111,0.49730
5192.18237,0.49732
5190.25362,0.49751
5188.32488,0.49797
5186.39613,0.49788
5184.46739,0.49742
5182.53864,0.49762
5180.60990,0.49865
5178.68115,0.49979
5176.75240,0.50009
5174.82366,0.49943
5172.89491,0.49862
5170.96617,0.49837
5169.03742,0.49880
5167.10868,0.49960
5165.17993,0.50047
5163.25119,0.50157
5161.32244,0.50275
5159.39370,0.50327
5157.46495,0.50314
5155.53621,0.50334
5153.60746,0.50392
5151.67872,0.50398
5149.74997,0.50376
5147.82123,0.50425
5145.89248,0.50559
5143.96373,0.50689
5142.03499,0.50724
5140.10624,0.50686
5138.17750,0.50670
5136.24875,0.50707
5134.32001,0.50787
5132.39126,0.50924
5130.46252,0.51069
5128.53377,0.51130
5126.60503,0.51140
5124.67628,0.51174
5122.74754,0.51218
5120.81879,0.51239
5118.89005,0.51248
5116.96130,0.51260
5115.03255,0.51303
5113.10381,0.51393
5111.17506,0.51492
5109.24632,0.51568
5107.31757,0.51638
5105.38883,0.51692
5103.46008,0.51726
5101.53134,0.51800
5099.60259,0.51933
5097.67385,0.52037
5095.74510,0.52072
5093.81636,0.52094
5091.88761,0.52096
5089.95887,0.52051
5088.03012,0.52050
5086.10138,0.52133
5084.17263,0.52216
5082.24388,0.52293
5080.31514,0.52391
5078.38639,0.52459
5076.45765,0.52507
5074.52890,0.52581
5072.60016,0.52626
5070.67141,0.52620
5068.74267,0.52634
5066.81392,0.52696
5064.88518,0.52763
5062.95643,0.52827
5061.02769,0.52878
5059.09894,0.52885
5057.17020,0.52874
5055.24145,0.52904
5053.31270,0.52955
5051.38396,0.52989
5049.45521,0.53029
5047.52647,0.53089
5045.59772,0.53161
5043.66898,0.53233
5041.74023,0.53276
5039.81149,0.53269
5037.88274,0.53257
5035.95400,0.53289
5034.02525,0.53319
5032.09651,0.53332
5030.16776,0.53407
5028.23902,0.53519
5026.31027,0.53583
5024.38153,0.53626
5022.45278,0.53665
5020.52403,0.53684
5018.59529,0.53718
5016.66654,0.53757
5014.73780,0.53770
5012.80905,0.53779
5010.88031,0.53776
5008.95156,0.53754
5007.02282,0.53747
5005.09407,0.53762
5003.16533,0.53772
5001.23658,0.53769
4999.30784,0.53775
4997.37909,0.53817
4995.45035,0.53887
4993.52160,0.53929
4991.59286,0.53916
4989.66411,0.53898
4987.73536,0.53912
4985.80662,0.53931
4983.87787,0.53939
4981.94913,0.53967
4980.02038,0.54019
4978.09164,0.54035
4976.16289,0.53980
4974.23415,0.53916
4972.30540,0.53900
4970.37666,0.53921
4968.44791,0.53958
4966.51917,0.53978
4964.59042,0.53903
4962.66168,0.53760
4960.73293,0.53693
4958.80418,0.53726
4956.87544,0.53762
4954.94669,0.53748
4953.01795,0.53706
4951.08920,0.53658
4949.16046,0.53593
4947.23171,0.53493
4945.30297,0.53399
4943.37422,0.53354
4941.44548,0.53325
4939.51673,0.53281
4937.58799,0.53252
4935.65924,0.53224
4933.73050,0.53130
4931.80175,0.53019
4929.87301,0.52980
4927.94426,0.52976
4926.01551,0.52950
4924.08677,0.52902
4922.15802,0.52837
4920.22928,0.52774
4918.30053,0.52724
4916.37179,0.52648
4914.44304,0.52519
4912.51430,0.52377
4910.58555,0.52240
4908.65681,0.52130
4906.72806,0.52102
4904.79932,0.52090
4902.87057,0.51983
4900.94183,0.51824
4899.01308,0.51678
4897.08434,0.51537
4895.15559,0.51433
4893.22684,0.51379
4891.29810,0.51353
4889.36935,0.51332
4887.44061,0.51260
4885.51186,0.51123
4883.58312,0.50975
4881.65437,0.50830
4879.72563,0.50682
4877.79688,0.50555
4875.86814,0.50443
4873.93939,0.50328
4872.01065,0.50240
4870.08190,0.50168
4868.15316,0.50059
4866.22441,0.49948
4864.29566,0.49908
4862.36692,0.49887
4860.43817,0.49810
4858.50943,0.49690
4856.58068,0.49561
4854.65194,0.49446
4852.72319,0.49351
4850.79445,0.49261
4848.86570,0.49157
4846.93696,0.49061
4845.00821,0.48999
4843.07947,0.48948
4841.15072,0.48877
4839.22198,0.48760
4837.29323,0.48620
4835.36449,0.48529
4833.43574,0.48483
4831.50699,0.48441
4829.57825,0.48420
4827.64950,0.48377
4825.72076,0.48258
4823.79201,0.48136
4821.86327,0.48069
4819.93452,0.47988
4818.00578,0.47853
4816.07703,0.47733
4814.14829,0.47655
4812.21954,0.47567
4810.29080,0.47475
4808.36205,0.47433
4806.43331,0.47431
4804.50456,0.47383
4802.57582,0.47276
4800.64707,0.47207
4798.71832,0.47230
4796.78958,0.47252
4794.86083,0.47176
4792.93209,0.47086
4791.00334,0.47067
4789.07460,0.47054
4787.14585,0.46999
4785.21711,0.46913
4783.28836,0.46840
4781.35962,0.46821
4779.43087,0.46830
4777.50213,0.46827
4775.57338,0.46788
4773.64464,0.46709
4771.71589,0.46628
4769.78714,0.46585
4767.85840,0.46586
4765.92965,0.46602
4764.00091,0.46618
4762.07216,0.46608
4760.14342,0.46537
4758.21467,0.46465
4756.28593,0.46462
4754.35718,0.46459
4752.42844,0.46396
4750.49969,0.46343
4748.57095,0.46351
4746.64220,0.46386
4744.71346,0.46415
4742.78471,0.46445
4740.85597,0.46479
4738.92722,0.46482
4736.99847,0.46456
4735.06973,0.46451
4733.14098,0.46467
4731.21224,0.46494
4729.28349,0.46539
4727.35475,0.46554
4725.42600,0.46538
4723.49726,0.46545
4721.56851,0.46589
4719.63977,0.46667
4717.71102,0.46738
4715.78228,0.46751
4713.85353,0.46757
4711.92479,0.46797
4709.99604,0.46824
4708.06729,0.46833
4706.13855,0.46883
4704.20980,0.46955
4702.28106,0.46980
4700.35231,0.46953
4698.42357,0.46937
4696.49482,0.46989
4694.56608,0.47057
4692.63733,0.47070
4690.70859,0.47082
4688.77984,0.47161
4686.85110,0.47265
4684.92235,0.47306
4682.99361,0.47306
4681.06486,0.47362
4679.13612,0.47472
4677.20737,0.47519
4675.27862,0.47468
4673.34988,0.47446
4671.42113,0.47528
4669.49239,0.47637
4667.56364,0.47726
4665.63490,0.47782
4663.70615,0.47780
4661.77741,0.47773
4659.84866,0.47815
4657.91992,0.47893
4655.99117,0.47963
4654.06243,0.48004
4652.13368,0.48047
4650.20494,0.48099
4648.27619,0.48126
4646.34745,0.48126
4644.41870,0.48133
4642.48995,0.48170
4640.56121,0.48250
4638.63246,0.48362
4636.70372,0.48444
4634.77497,0.48469
4632.84623,0.48500
4630.91748,0.48553
4628.98874,0.48602
4627.05999,0.48648
4625.13125,0.48682
4623.20250,0.48720
4621.27376,0.48784
4619.34501,0.48844
4617.41627,0.48869
4615.48752,0.48876
4613.55877,0.48902
4611.63003,0.48954
4609.70128,0.49000
4607.77254,0.49031
4605.84379,0.49071
4603.91505,0.49148
4601.98630,0.49242
4600.05756,0.49291
4598.12881,0.49302
4596.20007,0.49341
4594.27132,0.49415
4592.34258,0.49462
4590.41383,0.49444
4588.48509,0.49428
4586.55634,0.49471
4584.62760,0.49527
4582.69885,0.49577
4580.77010,0.49655
4578.84136,0.49732
4576.91261,0.49781
4574.98387,0.49814
4573.05512,0.49829
4571.12638,0.49856
4569.19763,0.49926
4567.26889,0.50015
4565.34014,0.50088
4563.41140,0.50116
4561.48265,0.50114
4559.55391,0.50136
4557.62516,0.50185
4555.69642,0.50234
4553.76767,0.50270
4551.83893,0.50306
4549.91018,0.50333
4547.98143,0.50324
4546.05269,0.50313
4544.12394,0.50351
4542.19520,0.50419
4540.26645,0.50435
4538.33771,0.50394
4536.40896,0.50374
4534.48022,0.50386
4532.55147,0.50372
4530.62273,0.50327
4528.69398,0.50294
4526.76524,0.50282
4524.83649,0.50304
4522.90775,0.50385
4520.97900,0.50494
4519.05025,0.50595
4517.12151,0.50675
4515.19276,0.50715
4513.26402,0.50726
4511.33527,0.50748
4509.40653,0.50779
4507.47778,0.50797
4505.54904,0.50815
4503.62029,0.50850
4501.69155,0.50890
4499.76280,0.50905
4497.83406,0.50882
4495.90531,0.50851
4493.97657,0.50835
4492.04782,0.50812
4490.11908,0.50793
4488.19033,0.50788
4486.26158,0.50752
4484.33284,0.50676
4482.40409,0.50609
4480.47535,0.50560
4478.54660,0.50515
4476.61786,0.50482
4474.68911,0.50440
4472.76037,0.50364
4470.83162,0.50286
4468.90288,0.50226
4466.97413,0.50151
4465.04539,0.50030
4463.11664,0.49879
4461.18790,0.49748
4459.25915,0.49662
4457.33041,0.49603
4455.40166,0.49543
4453.47291,0.49457
4451.54417,0.49315
4449.61542,0.49136
4447.68668,0.48978
4445.75793,0.48854
4443.82919,0.48745
4441.90044,0.48631
4439.97170,0.48485
4438.04295,0.48316
4436.11421,0.48171
4434.18546,0.48050
4432.25672,0.47905
4430.32797,0.47718
4428.39923,0.47521
4426.47048,0.47359
4424.54173,0.47234
4422.61299,0.47105
4420.68424,0.46953
4418.75550,0.46793
4416.82675,0.46616
4414.89801,0.46401
4412.96926,0.46191
4411.04052,0.46040
4409.11177,0.45933
4407.18303,0.45838
4405.25428,0.45759
4403.32554,0.45697
4401.39679,0.45613
4399.46805,0.45482
4397.53930,0.45373
4395.61056,0.45344
4393.68181,0.45346
4391.75306,0.45347
4389.82432,0.45389
4387.89557,0.45463
4385.96683,0.45497
4384.03808,0.45486
4382.10934,0.45498
4380.18059,0.45555
4378.25185,0.45635
4376.32310,0.45715
4374.39436,0.45761
4372.46561,0.45755
4370.53687,0.45740
4368.60812,0.45760
4366.67938,0.45792
4364.75063,0.45804
4362.82189,0.45813
4360.89314,0.45843
4358.96439,0.45849
4357.03565,0.45792
4355.10690,0.45706
4353.17816,0.45628
4351.24941,0.45565
4349.32067,0.45519
4347.39192,0.45470
4345.46318,0.45399
4343.53443,0.45313
4341.60569,0.45232
4339.67694,0.45162
4337.74820,0.45100
4335.81945,0.45039
4333.89071,0.44964
4331.96196,0.44870
4330.03321,0.44749
4328.10447,0.44607
4326.17572,0.44463
4324.24698,0.44314
4322.31823,0.44196
4320.38949,0.44150
4318.46074,0.44150
4316.53200,0.44166
4314.60325,0.44183
4312.67451,0.44187
4310.74576,0.44177
4308.81702,0.44163
4306.88827,0.44170
4304.95953,0.44183
4303.03078,0.44120
4301.10204,0.43978
4299.17329,0.43860
4297.24454,0.43795
4295.31580,0.43745
4293.38705,0.43707
4291.45831,0.43674
4289.52956,0.43605
4287.60082,0.43513
4285.67207,0.43455
4283.74333,0.43457
4281.81458,0.43486
4279.88584,0.43484
4277.95709,0.43442
4276.02835,0.43387
4274.09960,0.43335
4272.17086,0.43318
4270.24211,0.43353
4268.31336,0.43400
4266.38462,0.43423
4264.45587,0.43421
4262.52713,0.43409
4260.59838,0.43402
4258.66964,0.43400
4256.74089,0.43395
4254.81215,0.43387
4252.88340,0.43381
4250.95466,0.43382
4249.02591,0.43406
4247.09717,0.43453
4245.16842,0.43505
4243.23968,0.43580
4241.31093,0.43687
4239.38219,0.43766
4237.45344,0.43800
4235.52469,0.43821
4233.59595,0.43826
4231.66720,0.43814
4229.73846,0.43820
4227.80971,0.43867
4225.88097,0.43922
4223.95222,0.43946
4222.02348,0.43946
4220.09473,0.43936
4218.16599,0.43912
4216.23724,0.43895
4214.30850,0.43905
4212.37975,0.43939
4210.45101,0.43989
4208.52226,0.44038
4206.59352,0.44066
4204.66477,0.44055
4202.73602,0.44019
4200.80728,0.44014
4198.87853,0.44052
4196.94979,0.44081
4195.02104,0.44082
4193.09230,0.44080
4191.16355,0.44084
4189.23481,0.44096
4187.30606,0.44117
4185.37732,0.44124
4183.44857,0.44107
4181.51983,0.44088
4179.59108,0.44075
4177.66234,0.44070
4175.73359,0.44090
4173.80484,0.44127
4171.87610,0.44157
4169.94735,0.44185
4168.01861,0.44220
4166.08986,0.44264
4164.16112,0.44283
4162.23237,0.44243
4160.30363,0.44186
4158.37488,0.44163
4156.44614,0.44132
4154.51739,0.44063
4152.58865,0.43992
4150.65990,0.43924
4148.73116,0.43846
4146.80241,0.43783
4144.87367,0.43728
4142.94492,0.43673
4141.01617,0.43644
4139.08743,0.43637
4137.15868,0.43591
4135.22994,0.43477
4133.30119,0.43349
4131.37245,0.43267
4129.44370,0.43212
4127.51496,0.43133
4125.58621,0.43008
4123.65747,0.42856
4121.72872,0.42722
4119.79998,0.42625
4117.87123,0.42532
4115.94249,0.42407
4114.01374,0.42256
4112.08500,0.42123
4110.15625,0.42036
4108.22750,0.41948
4106.29876,0.41809
4104.37001,0.41639
4102.44127,0.41457
4100.51252,0.41286
4098.58378,0.41128
4096.65503,0.40941
4094.72629,0.40729
4092.79754,0.40537
4090.86880,0.40369
4088.94005,0.40200
4087.01131,0.40045
4085.08256,0.39933
4083.15382,0.39825
4081.22507,0.39659
4079.29632,0.39454
4077.36758,0.39282
4075.43883,0.39144
4073.51009,0.38989
4071.58134,0.38814
4069.65260,0.38642
4067.72385,0.38464
4065.79511,0.38290
4063.86636,0.38128
4061.93762,0.37955
4060.00887,0.37770
4058.08013,0.37588
4056.15138,0.37400
4054.22264,0.37211
4052.29389,0.37043
4050.36515,0.36885
4048.43640,0.36711
4046.50765,0.36514
4044.57891,0.36306
4042.65016,0.36122
4040.72142,0.35977
4038.79267,0.35851
4036.86393,0.35725
4034.93518,0.35612
4033.00644,0.35524
4031.07769,0.35437
4029.14895,0.35334
4027.22020,0.35248
4025.29146,0.35194
4023.36271,0.35156
4021.43397,0.35141
4019.50522,0.35141
4017.57648,0.35126
4015.64773,0.35105
4013.71898,0.35107
4011.79024,0.35132
4009.86149,0.35154
4007.93275,0.35159
4006.00400,0.35169
4004.07526,0.35206
4002.14651,0.35277
4000.21777,0.35363
3998.28902,0.35432
3996.36028,0.35493
3994.43153,0.35559
3992.50279,0.35627
3990.57404,0.35714
3988.64530,0.35808
3986.71655,0.35864
3984.78780,0.35896
3982.85906,0.35942
3980.93031,0.35990
3979.00157,0.36038
3977.07282,0.36112
3975.14408,0.36197
3973.21533,0.36258
3971.28659,0.36303
3969.35784,0.36353
3967.42910,0.36406
3965.50035,0.36464
3963.57161,0.36533
3961.64286,0.36618
3959.71412,0.36716
3957.78537,0.36819
3955.85663,0.36911
3953.92788,0.36970
3951.99913,0.37006
3950.07039,0.37057
3948.14164,0.37130
3946.21290,0.37215
3944.28415,0.37320
3942.35541,0.37432
3940.42666,0.37529
3938.49792,0.37610
3936.56917,0.37682
3934.64043,0.37748
3932.71168,0.37834
3930.78294,0.37943
3928.85419,0.38026
3926.92545,0.38080
3924.99670,0.38161
3923.06795,0.38271
3921.13921,0.38370
3919.21046,0.38451
3917.28172,0.38518
3915.35297,0.38576
3913.42423,0.38645
3911.49548,0.38714
3909.56674,0.38760
3907.63799,0.38801
3905.70925,0.38863
3903.78050,0.38961
3901.85176,0.39077
3899.92301,0.39172
3897.99427,0.39228
3896.06552,0.39270
3894.13678,0.39333
3892.20803,0.39410
3890.27928,0.39488
3888.35054,0.39572
3886.42179,0.39641
3884.49305,0.39674
3882.56430,0.39699
3880.63556,0.39738
3878.70681,0.39775
3876.77807,0.39822
3874.84932,0.39898
3872.92058,0.39968
3870.99183,0.40026
3869.06309,0.40113
3867.13434,0.40207
3865.20560,0.40289
3863.27685,0.40389
3861.34811,0.40501
3859.41936,0.40589
3857.49061,0.40648
3855.56187,0.40718
3853.63312,0.40830
3851.70438,0.40920
3849.77563,0.40950
3847.84689,0.40978
3845.91814,0.41031
3843.98940,0.41080
3842.06065,0.41088
3840.13191,0.41092
3838.20316,0.41159
3836.27442,0.41258
3834.34567,0.41304
3832.41693,0.41299
3830.48818,0.41283
3828.55943,0.41276
3826.63069,0.41271
3824.70194,0.41276
3822.77320,0.41291
3820.84445,0.41291
3818.91571,0.41268
3816.98696,0.41237
3815.05822,0.41198
3813.12947,0.41139
3811.20073,0.41088
3809.27198,0.41073
3807.34324,0.41072
3805.41449,0.41060
3803.48575,0.41032
3801.55700,0.40981
3799.62826,0.40937
3797.69951,0.40926
3795.77076,0.40911
3793.84202,0.40878
3791.91327,0.40843
3789.98453,0.40807
3788.05578,0.40760
3786.12704,0.40691
3784.19829,0.40618
3782.26955,0.40569
3780.34080,0.40540
3778.41206,0.40499
3776.48331,0.40433
3774.55457,0.40374
3772.62582,0.40331
3770.69708,0.40264
3768.76833,0.40148
3766.83959,0.40028
3764.91084,0.39947
3762.98209,0.39870
3761.05335,0.39772
3759.12460,0.39650
3757.19586,0.39499
3755.26711,0.39350
3753.33837,0.39234
3751.40962,0.39123
3749.48088,0.38974
3747.55213,0.38827
3745.62339,0.38672
3743.69464,0.38491
3741.76590,0.38307
3739.83715,0.38117
3737.90841,0.37910
3735.97966,0.37683
3734.05091,0.37424
3732.12217,0.37100
3730.19342,0.36730
3728.26468,0.36376
3726.33593,0.36021
3724.40719,0.35619
3722.47844,0.35128
3720.54970,0.34530
3718.62095,0.33855
3716.69221,0.33136
3714.76346,0.32350
3712.83472,0.31392
3710.90597,0.30257
3708.97723,0.29072
3707.04848,0.27810
3705.11974,0.26397
3703.19099,0.24795
3701.26224,0.23076
3699.33350,0.21576
3697.40475,0.20569
3695.47601,0.20093
3693.54726,0.20097
3691.61852,0.20480
3689.68977,0.21117
3687.76103,0.21835
3685.83228,0.22416
3683.90354,0.22824
3681.97479,0.23037
3680.04605,0.22989
3678.11730,0.22711
3676.18856,0.22218
3674.25981,0.21559
3672.33107,0.20909
3670.40232,0.20273
3668.47357,0.19699
3666.54483,0.19289
3664.61608,0.18950
3662.68734,0.18546
3660.75859,0.18008
3658.82985,0.17345
3656.90110,0.16608
3654.97236,0.15953
3653.04361,0.15501
3651.11487,0.15157
3649.18612,0.14823
3647.25738,0.14518
3645.32863,0.14237
3643.39989,0.13936
3641.47114,0.13609
3639.54239,0.13289
3637.61365,0.12969
3635.68490,0.12587
3633.75616,0.12149
3631.82741,0.11731
3629.89867,0.11331
3627.96992,0.10876
3626.04118,0.10399
3624.11243,0.09926
3622.18369,0.09483
3620.25494,0.09181
3618.32620,0.09124
3616.39745,0.09222
3614.46871,0.09273
3612.53996,0.09214
3610.61122,0.09105
3608.68247,0.09001
3606.75372,0.08892
3604.82498,0.08760
3602.89623,0.08630
3600.96749,0.08517
3599.03874,0.08398
3597.11000,0.08266
3595.18125,0.08158
3593.25251,0.08096
3591.32376,0.08035
3589.39502,0.07918
3587.46627,0.07767
3585.53753,0.07666
3583.60878,0.07589
3581.68004,0.07473
3579.75129,0.07328
3577.82254,0.07181
3575.89380,0.07058
3573.96505,0.06977
3572.03631,0.06894
3570.10756,0.06768
3568.17882,0.06638
3566.25007,0.06536
3564.32133,0.06429
3562.39258,0.06308
3560.46384,0.06192
3558.53509,0.06111
3556.60635,0.06080
3554.67760,0.06063
3552.74886,0.06008
3550.82011,0.05915
3548.89137,0.05821
3546.96262,0.05731
3545.03387,0.05656
3543.10513,0.05619
3541.17638,0.05603
3539.24764,0.05579
3537.31889,0.05537
3535.39015,0.05476
3533.46140,0.05417
3531.53266,0.05381
3529.60391,0.05370
3527.67517,0.05354
3525.74642,0.05297
3523.81768,0.05229
3521.88893,0.05193
3519.96019,0.05161
3518.03144,0.05113
3516.10270,0.05079
3514.17395,0.05060
3512.24520,0.05045
3510.31646,0.05034
3508.38771,0.05000
3506.45897,0.04935
3504.53022,0.04875
3502.60148,0.04829
3500.67273,0.04787
3498.74399,0.04756
3496.81524,0.04724
3494.88650,0.04684
3492.95775,0.04664
3491.02901,0.04672
3489.10026,0.04686
3487.17152,0.04668
3485.24277,0.04605
3483.31402,0.04533
3481.38528,0.04482
3479.45653,0.04453
3477.52779,0.04443
3475.59904,0.04432
3473.67030,0.04398
3471.74155,0.04370
3469.81281,0.04391
3467.88406,0.04413
3465.95532,0.04391
3464.02657,0.04358
3462.09783,0.04330
3460.16908,0.04313
3458.24034,0.04321
3456.31159,0.04298
3454.38285,0.04226
3452.45410,0.04190
3450.52535,0.04208
3448.59661,0.04224
3446.66786,0.04220
3444.73912,0.04202
3442.81037,0.04181
3440.88163,0.04175
3438.95288,0.04189
3437.02414,0.04192
3435.09539,0.04168
3433.16665,0.04141
3431.23790,0.04134
3429.30916,0.04147
3427.38041,0.04170
3425.45167,0.04190
3423.52292,0.04178
3421.59418,0.04125
3419.66543,0.04079
3417.73668,0.04066
3415.80794,0.04074
3413.87919,0.04094
3411.95045,0.04102
3410.02170,0.04093
3408.09296,0.04110
3406.16421,0.04151
3404.23547,0.04159
3402.30672,0.04125
3400.37798,0.04099
3398.44923,0.04102
3396.52049,0.04105
3394.59174,0.04102
3392.66300,0.04112
3390.73425,0.04136
3388.80550,0.04141
3386.87676,0.04107
3384.94801,0.04085
3383.01927,0.04107
3381.09052,0.04132
3379.16178,0.04129
3377.23303,0.04130
3375.30429,0.04155
3373.37554,0.04169
3371.44680,0.04153
3369.51805,0.04131
3367.58931,0.04137
3365.66056,0.04170
3363.73182,0.04198
3361.80307,0.04218
3359.87433,0.04238
3357.94558,0.04262
3356.01683,0.04275
3354.08809,0.04264
3352.15934,0.04268
3350.23060,0.04299
3348.30185,0.04314
3346.37311,0.04327
3344.44436,0.04362
3342.51562,0.04391
3340.58687,0.04403
3338.65813,0.04413
3336.72938,0.04433
3334.80064,0.04461
3332.87189,0.04489
3330.94315,0.04513
3329.01440,0.04524
3327.08566,0.04532
3325.15691,0.04556
3323.22816,0.04587
3321.29942,0.04614
3319.37067,0.04648
3317.44193,0.04692
3315.51318,0.04715
3313.58444,0.04716
3311.65569,0.04735
3309.72695,0.04760
3307.79820,0.04769
3305.86946,0.04777
3303.94071,0.04764
3302.01197,0.04733
3300.08322,0.04739
3298.15448,0.04798
3296.22573,0.04876
3294.29698,0.04920
3292.36824,0.04891
3290.43949,0.04811
3288.51075,0.04769
3286.58200,0.04799
3284.65326,0.04839
3282.72451,0.04867
3280.79577,0.04889
3278.86702,0.04917
3276.93828,0.04965
3275.00953,0.05017
3273.08079,0.05057
3271.15204,0.05087
3269.22330,0.05121
3267.29455,0.05174
3265.36581,0.05226
3263.43706,0.05263
3261.50831,0.05288
3259.57957,0.05295
3257.65082,0.05303
3255.72208,0.05331
3253.79333,0.05361
3251.86459,0.05390
3249.93584,0.05441
3248.00710,0.05511
3246.07835,0.05595
3244.14961,0.05662
3242.22086,0.05684
3240.29212,0.05687
3238.36337,0.05694
3236.43463,0.05719
3234.50588,0.05739
3232.57713,0.05758
3230.64839,0.05834
3228.71964,0.05933
3226.79090,0.05966
3224.86215,0.05941
3222.93341,0.05938
3221.00466,0.05977
3219.07592,0.06020
3217.14717,0.06057
3215.21843,0.06102
3213.28968,0.06162
3211.36094,0.06221
3209.43219,0.06266
3207.50345,0.06281
3205.57470,0.06272
3203.64596,0.06313
3201.71721,0.06407
3199.78846,0.06470
3197.85972,0.06479
3195.93097,0.06467
3194.00223,0.06476
3192.07348,0.06534
3190.14474,0.06607
3188.21599,0.06648
3186.28725,0.06678
3184.35850,0.06722
3182.42976,0.06778
3180.50101,0.06849
3178.57227,0.06913
3176.64352,0.06948
3174.71478,0.06984
3172.78603,0.07040
3170.85729,0.07081
3168.92854,0.07092
3166.99979,0.07119
3165.07105,0.07180
3163.14230,0.07240
3161.21356,0.07293
3159.28481,0.07364
3157.35607,0.07452
3155.42732,0.07540
3153.49858,0.07606
3151.56983,0.07637
3149.64109,0.07667
3147.71234,0.07715
3145.78360,0.07763
3143.85485,0.07816
3141.92611,0.07862
3139.99736,0.07879
3138.06861,0.07886
3136.13987,0.07932
3134.21112,0.08021
3132.28238,0.08085
3130.35363,0.08116
3128.42489,0.08179
3126.49614,0.08255
3124.56740,0.08295
3122.63865,0.08326
3120.70991,0.08376
3118.78116,0.08444
3116.85242,0.08518
3114.92367,0.08572
3112.99493,0.08623
3111.06618,0.08707
3109.13744,0.08795
3107.20869,0.08845
3105.27994,0.08870
3103.35120,0.08919
3101.42245,0.08989
3099.49371,0.09044
3097.56496,0.09089
3095.63622,0.09150
3093.70747,0.09212
3091.77873,0.09274
3089.84998,0.09349
3087.92124,0.09411
3085.99249,0.09452
3084.06375,0.09507
3082.13500,0.09585
3080.20626,0.09662
3078.27751,0.09713
3076.34877,0.09741
3074.42002,0.09780
3072.49127,0.09846
3070.56253,0.09925
3068.63378,0.10002
3066.70504,0.10078
3064.77629,0.10151
3062.84755,0.10208
3060.91880,0.10254
3058.99006,0.10319
3057.06131,0.10400
3055.13257,0.10465
3053.20382,0.10518
3051.27508,0.10582
3049.34633,0.10659
3047.41759,0.10732
3045.48884,0.10773
3043.56009,0.10802
3041.63135,0.10862
3039.70260,0.10942
3037.77386,0.11010
3035.84511,0.11063
3033.91637,0.11112
3031.98762,0.11157
3030.05888,0.11186
3028.13013,0.11194
3026.20139,0.11203
3024.27264,0.11225
3022.34390,0.11246
3020.41515,0.11275
3018.48641,0.11330
3016.55766,0.11383
3014.62892,0.11387
3012.70017,0.11356
3010.77142,0.11343
3008.84268,0.11353
3006.91393,0.11349
3004.98519,0.11326
3003.05644,0.11293
3001.12770,0.11256
2999.19895,0.11225
2997.27021,0.11207
2995.34146,0.11185
2993.41272,0.11136
2991.48397,0.11047
2989.55523,0.10932
2987.62648,0.10811
2985.69774,0.10691
2983.76899,0.10566
2981.84025,0.10412
2979.91150,0.10225
2977.98275,0.10027
2976.05401,0.09800
2974.12526,0.09531
2972.19652,0.09267
2970.26777,0.09055
2968.33903,0.08893
2966.41028,0.08769
2964.48154,0.08682
2962.55279,0.08626
2960.62405,0.08566
2958.69530,0.08478
2956.76656,0.08376
2954.83781,0.08265
2952.90907,0.08136
2950.98032,0.08007
2949.05157,0.07889
2947.12283,0.07765
2945.19408,0.07641
2943.26534,0.07539
2941.33659,0.07462
2939.40785,0.07407
2937.47910,0.07357
2935.55036,0.07292
2933.62161,0.07216
2931.69287,0.07149
2929.76412,0.07096
2927.83538,0.07030
2925.90663,0.06940
2923.97789,0.06846
2922.04914,0.06747
2920.12040,0.06641
2918.19165,0.06564
2916.26290,0.06563
2914.33416,0.06645
2912.40541,0.06763
2910.47667,0.06864
2908.54792,0.06913
2906.61918,0.06917
2904.69043,0.06929
2902.76169,0.06979
2900.83294,0.07038
2898.90420,0.07095
2896.97545,0.07159
2895.04671,0.07219
2893.11796,0.07284
2891.18922,0.07365
2889.26047,0.07456
2887.33172,0.07552
2885.40298,0.07641
2883.47423,0.07706
2881.54549,0.07759
2879.61674,0.07818
2877.68800,0.07871
2875.75925,0.07913
2873.83051,0.07954
2871.90176,0.08003
2869.97302,0.08058
2868.04427,0.08118
2866.11553,0.08187
2864.18678,0.08242
2862.25804,0.08268
2860.32929,0.08294
2858.40055,0.08329
2856.47180,0.08341
2854.54305,0.08301
2852.61431,0.08228
2850.68556,0.08208
2848.75682,0.08349
2846.82807,0.08676
2844.89933,0.09095
2842.97058,0.09486
2841.04184,0.09804
2839.11309,0.10075
2837.18435,0.10322
2835.25560,0.10538
2833.32686,0.10727
2831.39811,0.10909
2829.46937,0.11086
2827.54062,0.11258
2825.61188,0.11420
2823.68313,0.11567
2821.75438,0.11709
2819.82564,0.11863
2817.89689,0.12021
2815.96815,0.12178
2814.03940,0.12350
2812.11066,0.12511
2810.18191,0.12621
2808.25317,0.12701
2806.32442,0.12791
2804.39568,0.12894
2802.46693,0.13011
2800.53819,0.13144
2798.60944,0.13261
2796.68070,0.13350
2794.75195,0.13426
2792.82320,0.13505
2790.89446,0.13591
2788.96571,0.13668
2787.03697,0.13717
2785.10822,0.13756
2783.17948,0.13803
2781.25073,0.13845
2779.32199,0.13877
2777.39324,0.13896
2775.46450,0.13901
2773.53575,0.13919
2771.60701,0.13964
2769.67826,0.14026
2767.74952,0.14094
2765.82077,0.14154
2763.89203,0.14197
2761.96328,0.14230
2760.03453,0.14267
2758.10579,0.14314
2756.17704,0.14357
2754.24830,0.14388
2752.31955,0.14404
2750.39081,0.14410
2748.46206,0.14405
2746.53332,0.14395
2744.60457,0.14400
2742.67583,0.14421
2740.74708,0.14444
2738.81834,0.14474
2736.88959,0.14504
2734.96085,0.14525
2733.03210,0.14555
2731.10336,0.14609
2729.17461,0.14675
2727.24586,0.14735
2725.31712,0.14782
2723.38837,0.14830
2721.45963,0.14879
2719.53088,0.14918
2717.60214,0.14960
2715.67339,0.15028
2713.74465,0.15118
2711.81590,0.15201
2709.88716,0.15264
2707.95841,0.15329
2706.02967,0.15420
2704.10092,0.15525
2702.17218,0.15621
2700.24343,0.15705
2698.31468,0.15781
2696.38594,0.15857
2694.45719,0.15939
2692.52845,0.16027
2690.59970,0.16099
2688.67096,0.16148
2686.74221,0.16199
2684.81347,0.16272
2682.88472,0.16361
2680.95598,0.16455
2679.02723,0.16543
2677.09849,0.16618
2675.16974,0.16684
2673.24100,0.16749
2671.31225,0.16804
2669.38351,0.16856
2667.45476,0.16896
2665.52601,0.16898
2663.59727,0.16903
2661.66852,0.16969
2659.73978,0.17067
2657.81103,0.17136
2655.88229,0.17180
2653.95354,0.17234
2652.02480,0.17293
2650.09605,0.17345
2648.16731,0.17394
2646.23856,0.17452
2644.30982,0.17528
2642.38107,0.17613
2640.45233,0.17701
2638.52358,0.17782
2636.59484,0.17829
2634.66609,0.17856
2632.73734,0.17900
2630.80860,0.17962
2628.87985,0.18025
2626.95111,0.18085
2625.02236,0.18141
2623.09362,0.18206
2621.16487,0.18290
2619.23613,0.18365
2617.30738,0.18406
2615.37864,0.18434
2613.44989,0.18484
2611.52115,0.18566
2609.59240,0.18654
2607.66366,0.18718
2605.73491,0.18754
2603.80616,0.18779
2601.87742,0.18809
2599.94867,0.18858
2598.01993,0.18924
2596.09118,0.18983
2594.16244,0.19021
2592.23369,0.19051
2590.30495,0.19072
2588.37620,0.19094
2586.44746,0.19137
2584.51871,0.19192
2582.58997,0.19240
2580.66122,0.19278
2578.73248,0.19309
2576.80373,0.19335
2574.87499,0.19354
2572.94624,0.19353
2571.01749,0.19341
2569.08875,0.19344
2567.16000,0.19359
2565.23126,0.19375
2563.30251,0.19398
2561.37377,0.19420
2559.44502,0.19432
2557.51628,0.19438
2555.58753,0.19443
2553.65879,0.19443
2551.73004,0.19437
2549.80130,0.19424
2547.87255,0.19416
2545.94381,0.19422
2544.01506,0.19426
2542.08631,0.19416
2540.15757,0.19411
2538.22882,0.19425
2536.30008,0.19440
2534.37133,0.19430
2532.44259,0.19406
2530.51384,0.19384
2528.58510,0.19359
2526.65635,0.19340
2524.72761,0.19332
2522.79886,0.19319
2520.87012,0.19303
2518.94137,0.19303
2517.01263,0.19315
2515.08388,0.19342
2513.15514,0.19400
2511.22639,0.19487
2509.29764,0.19593
2507.36890,0.19714
2505.44015,0.19853
2503.51141,0.20025
2501.58266,0.20223
2499.65392,0.20416
2497.72517,0.20594
2495.79643,0.20763
2493.86768,0.20918
2491.93894,0.21075
2490.01019,0.21234
2488.08145,0.21376
2486.15270,0.21498
2484.22396,0.21618
2482.29521,0.21741
2480.36647,0.21859
2478.43772,0.21965
2476.50897,0.22073
2474.58023,0.22204
2472.65148,0.22344
2470.72274,0.22468
2468.79399,0.22561
2466.86525,0.22634
2464.93650,0.22724
2463.00776,0.22821
2461.07901,0.22898
2459.15027,0.22957
2457.22152,0.23020
2455.29278,0.23100
2453.36403,0.23199
2451.43529,0.23312
2449.50654,0.23419
2447.57779,0.23502
2445.64905,0.23582
2443.72030,0.23679
2441.79156,0.23785
2439.86281,0.23892
2437.93407,0.23998
2436.00532,0.24098
2434.07658,0.24193
2432.14783,0.24290
2430.21909,0.24385
2428.29034,0.24479
2426.36160,0.24581
2424.43285,0.24691
2422.50411,0.24809
2420.57536,0.24929
2418.64662,0.25031
2416.71787,0.25110
2414.78912,0.25188
2412.86038,0.25281
2410.93163,0.25374
2409.00289,0.25459
2407.07414,0.25539
2405.14540,0.25622
2403.21665,0.25709
2401.28791,0.25791
2399.35916,0.25867
2397.43042,0.25948
2395.50167,0.26035
2393.57293,0.26111
2391.64418,0.26176
2389.71544,0.26247
2387.78669,0.26325
2385.85795,0.26402
2383.92920,0.26480
2382.00045,0.26562
2380.07171,0.26646
2378.14296,0.26723
2376.21422,0.26785
2374.28547,0.26842
2372.35673,0.26904
2370.42798,0.26978
2368.49924,0.27066
2366.57049,0.27150
2364.64175,0.27216
2362.71300,0.27277
2360.78426,0.27328
2358.85551,0.27347
2356.92677,0.27353
2354.99802,0.27382
2353.06927,0.27429
2351.14053,0.27488
2349.21178,0.27567
2347.28304,0.27639
2345.35429,0.27675
2343.42555,0.27695
2341.49680,0.27729
2339.56806,0.27788
2337.63931,0.27860
2335.71057,0.27919
2333.78182,0.27954
2331.85308,0.27970
2329.92433,0.27994
2327.99559,0.28045
2326.06684,0.28108
2324.13810,0.28155
2322.20935,0.28181
2320.28060,0.28205
2318.35186,0.28227
2316.42311,0.28232
2314.49437,0.28239
2312.56562,0.28275
2310.63688,0.28308
2308.70813,0.28324
2306.77939,0.28345
2304.85064,0.28363
2302.92190,0.28355
2300.99315,0.28323
2299.06441,0.28287
2297.13566,0.28262
2295.20692,0.28248
2293.27817,0.28243
2291.34943,0.28240
2289.42068,0.28229
2287.49193,0.28213
2285.56319,0.28198
2283.63444,0.28182
2281.70570,0.28167
2279.77695,0.28162
2277.84821,0.28162
2275.91946,0.28145
2273.99072,0.28104
2272.06197,0.28056
2270.13323,0.28014
2268.20448,0.27965
2266.27574,0.27897
2264.34699,0.27823
2262.41825,0.27757
2260.48950,0.27700
2258.56075,0.27653
2256.63201,0.27615
2254.70326,0.27569
2252.77452,0.27513
2250.84577,0.27460
2248.91703,0.27414
2246.98828,0.27367
2245.05954,0.27326
2243.13079,0.27297
2241.20205,0.27269
2239.27330,0.27228
2237.34456,0.27183
2235.41581,0.27142
2233.48707,0.27099
2231.55832,0.27063
2229.62958,0.27047
2227.70083,0.27050
2225.77208,0.27064
2223.84334,0.27080
2221.91459,0.27102
2219.98585,0.27134
2218.05710,0.27167
2216.12836,0.27178
2214.19961,0.27175
2212.27087,0.27172
2210.34212,0.27169
2208.41338,0.27163
2206.48463,0.27153
2204.55589,0.27130
2202.62714,0.27092
2200.69840,0.27065
2198.76965,0.27058
2196.84090,0.27037
2194.91216,0.26971
2192.98341,0.26880
2191.05467,0.26800
2189.12592,0.26735
2187.19718,0.26667
2185.26843,0.26585
2183.33969,0.26494
2181.41094,0.26392
2179.48220,0.26268
2177.55345,0.26137
2175.62471,0.26010
2173.69596,0.25878
2171.76722,0.25749
2169.83847,0.25628
2167.90973,0.25510
2165.98098,0.25400
2164.05223,0.25299
2162.12349,0.25195
2160.19474,0.25088
2158.26600,0.24988
2156.33725,0.24897
2154.40851,0.24818
2152.47976,0.24743
2150.55102,0.24669
2148.62227,0.24597
2146.69353,0.24524
2144.76478,0.24452
2142.83604,0.24385
2140.90729,0.24321
2138.97855,0.24273
2137.04980,0.24254
2135.12106,0.24254
2133.19231,0.24267
2131.26356,0.24299
2129.33482,0.24352
2127.40607,0.24421
2125.47733,0.24496
2123.54858,0.24568
2121.61984,0.24642
2119.69109,0.24720
2117.76235,0.24803
2115.83360,0.24892
2113.90486,0.24978
2111.97611,0.25046
2110.04737,0.25107
2108.11862,0.25171
2106.18988,0.25241
2104.26113,0.25312
2102.33238,0.25369
2100.40364,0.25403
2098.47489,0.25431
2096.54615,0.25465
2094.61740,0.25507
2092.68866,0.25565
2090.75991,0.25628
2088.83117,0.25668
2086.90242,0.25692
2084.97368,0.25731
2083.04493,0.25789
2081.11619,0.25843
2079.18744,0.25867
2077.25870,0.25863
2075.32995,0.25862
2073.40121,0.25860
2071.47246,0.25836
2069.54371,0.25813
2067.61497,0.25813
2065.68622,0.25823
2063.75748,0.25816
2061.82873,0.25798
2059.89999,0.25794
2057.97124,0.25809
2056.04250,0.25833
2054.11375,0.25851
2052.18501,0.25850
2050.25626,0.25845
2048.32752,0.25859
2046.39877,0.25892
2044.47003,0.25940
2042.54128,0.26000
2040.61254,0.26064
2038.68379,0.26128
2036.75504,0.26200
2034.82630,0.26292
2032.89755,0.26400
2030.96881,0.26502
2029.04006,0.26597
2027.11132,0.26705
2025.18257,0.26823
2023.25383,0.26940
2021.32508,0.27056
2019.39634,0.27158
2017.46759,0.27244
2015.53885,0.27342
2013.61010,0.27454
2011.68136,0.27555
2009.75261,0.27636
2007.82386,0.27701
2005.89512,0.27743
2003.96637,0.27769
2002.03763,0.27811
2000.10888,0.27867
1998.18014,0.27909
1996.25139,0.27948
1994.32265,0.28002
1992.39390,0.28060
1990.46516,0.28116
1988.53641,0.28176
1986.60767,0.28236
1984.67892,0.28289
1982.75018,0.28340
1980.82143,0.28372
1978.89269,0.28378
1976.96394,0.28383
1975.03519,0.28401
1973.10645,0.28418
1971.17770,0.28430
1969.24896,0.28443
1967.32021,0.28448
1965.39147,0.28438
1963.46272,0.28428
1961.53398,0.28438
1959.60523,0.28462
1957.67649,0.28485
1955.74774,0.28508
1953.81900,0.28531
1951.89025,0.28565
1949.96151,0.28607
1948.03276,0.28653
1946.10402,0.28698
1944.17527,0.28751
1942.24652,0.28811
1940.31778,0.28856
1938.38903,0.28888
1936.46029,0.28919
1934.53154,0.28948
1932.60280,0.28973
1930.67405,0.29005
1928.74531,0.29044
1926.81656,0.29074
1924.88782,0.29088
1922.95907,0.29097
1921.03033,0.29112
1919.10158,0.29134
1917.17284,0.29156
1915.24409,0.29172
1913.31534,0.29178
1911.38660,0.29175
1909.45785,0.29164
1907.52911,0.29150
1905.60036,0.29140
1903.67162,0.29132
1901.74287,0.29125
1899.81413,0.29130
1897.88538,0.29145
1895.95664,0.29149
1894.02789,0.29129
1892.09915,0.29104
1890.17040,0.29086
1888.24166,0.29058
1886.31291,0.29012
1884.38417,0.28964
1882.45542,0.28917
1880.52667,0.28872
1878.59793,0.28826
1876.66918,0.28788
1874.74044,0.28765
1872.81169,0.28738
1870.88295,0.28693
1868.95420,0.28630
1867.02546,0.28558
1865.09671,0.28486
1863.16797,0.28419
1861.23922,0.28354
1859.31048,0.28285
1857.38173,0.28210
1855.45299,0.28122
1853.52424,0.28020
1851.59549,0.27906
1849.66675,0.27783
1847.73800,0.27661
1845.80926,0.27540
1843.88051,0.27400
1841.95177,0.27248
1840.02302,0.27110
1838.09428,0.26963
1836.16553,0.26790
1834.23679,0.26603
1832.30804,0.26413
1830.37930,0.26208
1828.45055,0.25990
1826.52181,0.25749
1824.59306,0.25454
1822.66432,0.25139
1820.73557,0.24847
1818.80682,0.24552
1816.87808,0.24218
1814.94933,0.23845
1813.02059,0.23443
1811.09184,0.22993
1809.16310,0.22476
1807.23435,0.21896
1805.30561,0.21251
1803.37686,0.20511
1801.44812,0.19672
1799.51937,0.18836
1797.59063,0.18142
1795.66188,0.17610
1793.73314,0.17160
1791.80439,0.16760
1789.87565,0.16438
1787.94690,0.16150
1786.01815,0.15817
1784.08941,0.15431
1782.16066,0.15028
1780.23192,0.14614
1778.30317,0.14205
1776.37443,0.13833
1774.44568,0.13472
1772.51694,0.13073
1770.58819,0.12679
1768.65945,0.12326
1766.73070,0.11982
1764.80196,0.11673
1762.87321,0.11373
1760.94447,0.11037
1759.01572,0.10703
1757.08697,0.10381
1755.15823,0.10074
1753.22948,0.09792
1751.30074,0.09509
1749.37199,0.09226
1747.44325,0.08969
1745.51450,0.08743
1743.58576,0.08548
1741.65701,0.08375
1739.72827,0.08207
1737.79952,0.08075
1735.87078,0.07978
1733.94203,0.07871
1732.01329,0.07780
1730.08454,0.07744
1728.15580,0.07730
1726.22705,0.07706
1724.29830,0.07672
1722.36956,0.07641
1720.44081,0.07637
1718.51207,0.07665
1716.58332,0.07685
1714.65458,0.07685
1712.72583,0.07702
1710.79709,0.07745
1708.86834,0.07791
1706.93960,0.07835
1705.01085,0.07879
1703.08211,0.07917
1701.15336,0.07957
1699.22462,0.07980
1697.29587,0.07966
1695.36713,0.07935
1693.43838,0.07911
1691.50963,0.07878
1689.58089,0.07831
1687.65214,0.07800
1685.72340,0.07774
1683.79465,0.07709
1681.86591,0.07630
1679.93716,0.07565
1678.00842,0.07506
1676.07967,0.07429
1674.15093,0.07338
1672.22218,0.07270
1670.29344,0.07220
1668.36469,0.07154
1666.43595,0.07089
1664.50720,0.07035
1662.57845,0.06985
1660.64971,0.06945
1658.72096,0.06919
1656.79222,0.06911
1654.86347,0.06909
1652.93473,0.06880
1651.00598,0.06851
1649.07724,0.06844
1647.14849,0.06813
1645.21975,0.06764
1643.29100,0.06752
1641.36226,0.06767
1639.43351,0.06773
1637.50477,0.06741
1635.57602,0.06668
1633.64728,0.06609
1631.71853,0.06583
1629.78978,0.06559
1627.86104,0.06531
1625.93229,0.06516
1624.00355,0.06509
1622.07480,0.06499
1620.14606,0.06493
1618.21731,0.06492
1616.28857,0.06484
1614.35982,0.06477
1612.43108,0.06496
1610.50233,0.06540
1608.57359,0.06584
1606.64484,0.06622
1604.71610,0.06665
1602.78735,0.06720
1600.85861,0.06777
1598.92986,0.06832
1597.00111,0.06899
1595.07237,0.06978
1593.14362,0.07064
1591.21488,0.07164
1589.28613,0.07280
1587.35739,0.07404
1585.42864,0.07542
1583.49990,0.07694
1581.57115,0.07855
1579.64241,0.08017
1577.71366,0.08197
1575.78492,0.08409
1573.85617,0.08601
1571.92743,0.08762
1569.99868,0.08935
1568.06993,0.09115
1566.14119,0.09265
1564.21244,0.09394
1562.28370,0.09523
1560.35495,0.09661
1558.42621,0.09803
1556.49746,0.09897
1554.56872,0.09956
1552.63997,0.10008
1550.71123,0.10051
1548.78248,0.10076
1546.85374,0.10098
1544.92499,0.10121
1542.99625,0.10117
1541.06750,0.10049
1539.13876,0.09927
1537.21001,0.09828
1535.28126,0.09748
1533.35252,0.09620
1531.42377,0.09440
1529.49503,0.09256
1527.56628,0.09060
1525.63754,0.08832
1523.70879,0.08579
1521.78005,0.08303
1519.85130,0.08038
1517.92256,0.07810
1515.99381,0.07618
1514.06507,0.07488
1512.13632,0.07409
1510.20758,0.07358
1508.27883,0.07338
1506.35008,0.07343
1504.42134,0.07332
1502.49259,0.07309
1500.56385,0.07304
1498.63510,0.07312
1496.70636,0.07277
1494.77761,0.07186
1492.84887,0.07093
1490.92012,0.07011
1488.99138,0.06910
1487.06263,0.06770
1485.13389,0.06600
1483.20514,0.06436
1481.27640,0.06301
1479.34765,0.06193
1477.41891,0.06088
1475.49016,0.05959
1473.56141,0.05800
1471.63267,0.05643
1469.70392,0.05528
1467.77518,0.05446
1465.84643,0.05376
1463.91769,0.05330
1461.98894,0.05317
1460.06020,0.05312
1458.13145,0.05284
1456.20271,0.05247
1454.27396,0.05233
1452.34522,0.05228
1450.41647,0.05234
1448.48773,0.05252
1446.55898,0.05257
1444.63024,0.05233
1442.70149,0.05194
1440.77274,0.05158
1438.84400,0.05134
1436.91525,0.05100
1434.98651,0.05051
1433.05776,0.05020
1431.12902,0.05020
1429.20027,0.05049
1427.27153,0.05102
1425.34278,0.05179
1423.41404,0.05277
1421.48529,0.05383
1419.55655,0.05499
1417.62780,0.05600
1415.69906,0.05666
1413.77031,0.05722
1411.84156,0.05786
1409.91282,0.05848
1407.98407,0.05896
1406.05533,0.05918
1404.12658,0.05904
1402.19784,0.05879
1400.26909,0.05875
1398.34035,0.05891
1396.41160,0.05906
1394.48286,0.05894
1392.55411,0.05849
1390.62537,0.05790
1388.69662,0.05716
1386.76788,0.05627
1384.83913,0.05538
1382.91039,0.05457
1380.98164,0.05383
1379.05289,0.05323
1377.12415,0.05272
1375.19540,0.05222
1373.26666,0.05183
1371.33791,0.05177
1369.40917,0.05201
1367.48042,0.05248
1365.55168,0.05316
1363.62293,0.05388
1361.69419,0.05433
1359.76544,0.05443
1357.83670,0.05447
1355.90795,0.05471
1353.97921,0.05514
1352.05046,0.05553
1350.12172,0.05566
1348.19297,0.05548
1346.26422,0.05503
1344.33548,0.05436
1342.40673,0.05367
1340.47799,0.05314
1338.54924,0.05284
1336.62050,0.05285
1334.69175,0.05311
1332.76301,0.05331
1330.83426,0.05332
1328.90552,0.05324
1326.97677,0.05308
1325.04803,0.05281
1323.11928,0.05243
1321.19054,0.05201
1319.26179,0.05177
1317.33304,0.05194
1315.40430,0.05241
1313.47555,0.05308
1311.54681,0.05393
1309.61806,0.05482
1307.68932,0.05567
1305.76057,0.05641
1303.83183,0.05704
1301.90308,0.05754
1299.97434,0.05772
1298.04559,0.05748
1296.11685,0.05699
1294.18810,0.05652
1292.25936,0.05617
1290.33061,0.05575
1288.40187,0.05510
1286.47312,0.05440
1284.54437,0.05387
1282.61563,0.05376
1280.68688,0.05405
1278.75814,0.05448
1276.82939,0.05482
1274.90065,0.05507
1272.97190,0.05533
1271.04316,0.05552
1269.11441,0.05557
1267.18567,0.05558
1265.25692,0.05566
1263.32818,0.05574
1261.39943,0.05572
1259.47069,0.05574
1257.54194,0.05600
1255.61320,0.05631
1253.68445,0.05630
1251.75570,0.05598
1249.82696,0.05576
1247.89821,0.05573
1245.96947,0.05573
1244.04072,0.05579
1242.11198,0.05596
1240.18323,0.05617
1238.25449,0.05624
1236.32574,0.05615
1234.39700,0.05611
1232.46825,0.05628
1230.53951,0.05668
1228.61076,0.05709
1226.68202,0.05731
1224.75327,0.05733
1222.82452,0.05727
1220.89578,0.05735
1218.96703,0.05737
1217.03829,0.05694
1215.10954,0.05617
1213.18080,0.05533
1211.25205,0.05444
1209.32331,0.05360
1207.39456,0.05322
1205.46582,0.05332
1203.53707,0.05347
1201.60833,0.05356
1199.67958,0.05377
1197.75084,0.05412
1195.82209,0.05439
1193.89335,0.05429
1191.96460,0.05392
1190.03585,0.05339
1188.10711,0.05268
1186.17836,0.05187
1184.24962,0.05093
1182.32087,0.04980
1180.39213,0.04879
1178.46338,0.04810
1176.53464,0.04746
1174.60589,0.04685
1172.67715,0.04678
1170.74840,0.04745
1168.81966,0.04849
1166.89091,0.04979
1164.96217,0.05153
1163.03342,0.05344
1161.10467,0.05498
1159.17593,0.05587
1157.24718,0.05620
1155.31844,0.05620
1153.38969,0.05593
1151.46095,0.05546
1149.53220,0.05499
1147.60346,0.05459
1145.67471,0.05414
1143.74597,0.05341
1141.81722,0.05234
1139.88848,0.05109
1137.95973,0.04979
1136.03099,0.04847
1134.10224,0.04736
1132.17350,0.04661
1130.24475,0.04613
1128.31600,0.04582
1126.38726,0.04573
1124.45851,0.04584
1122.52977,0.04603
1120.60102,0.04623
1118.67228,0.04658
1116.74353,0.04731
1114.81479,0.04824
1112.88604,0.04894
1110.95730,0.04937
1109.02855,0.04966
1107.09981,0.04984
1105.17106,0.05002
1103.24232,0.05008
1101.31357,0.04994
1099.38483,0.04986
1097.45608,0.04998
1095.52733,0.05010
1093.59859,0.05011
1091.66984,0.05015
1089.74110,0.05029
1087.81235,0.05036
1085.88361,0.05023
1083.95486,0.04988
1082.02612,0.04948
1080.09737,0.04958
1078.16863,0.05041
1076.23988,0.05142
1074.31114,0.05234
1072.38239,0.05329
1070.45365,0.05439
1068.52490,0.05598
1066.59615,0.05831
1064.66741,0.06132
1062.73866,0.06448
1060.80992,0.06707
1058.88117,0.06884
1056.95243,0.06994
1055.02368,0.07030
1053.09494,0.06983
1051.16619,0.06888
1049.23745,0.06787
1047.30870,0.06698
1045.37996,0.06632
1043.45121,0.06605
1041.52247,0.06645
1039.59372,0.06762
1037.66498,0.06952
1035.73623,0.07181
1033.80748,0.07373
1031.87874,0.07476
1029.94999,0.07489
1028.02125,0.07460
1026.09250,0.07442
1024.16376,0.07428
1022.23501,0.07406
1020.30627,0.07399
1018.37752,0.07420
1016.44878,0.07453
1014.52003,0.07494
1012.59129,0.07543
1010.66254,0.07576
1008.73380,0.07597
1006.80505,0.07622
1004.87631,0.07646
1002.94756,0.07684
1001.01881,0.07735
999.09007,0.07801
997.16132,0.07914
995.23258,0.08043
993.30383,0.08138
991.37509,0.08221
989.44634,0.08339
987.51760,0.08485
985.58885,0.08644
983.66011,0.08839
981.73136,0.09075
979.80262,0.09315
977.87387,0.09521
975.94513,0.09674
974.01638,0.09783
972.08763,0.09882
970.15889,0.09990
968.23014,0.10091
966.30140,0.10207
964.37265,0.10398
962.44391,0.10647
960.51516,0.10874
958.58642,0.11040
956.65767,0.11177
954.72893,0.11326
952.80018,0.11484
950.87144,0.11587
948.94269,0.11576
947.01395,0.11498
945.08520,0.11424
943.15646,0.11340
941.22771,0.11230
939.29896,0.11136
937.37022,0.11107
935.44147,0.11120
933.51273,0.11138
931.58398,0.11172
929.65524,0.11202
927.72649,0.11180
925.79775,0.11114
923.86900,0.11032
921.94026,0.10942
920.01151,0.10853
918.08277,0.10760
916.15402,0.10660
914.22528,0.10579
912.29653,0.10531
910.36779,0.10497
908.43904,0.10460
906.51029,0.10405
904.58155,0.10332
902.65280,0.10262
900.72406,0.10230
898.79531,0.10244
896.86657,0.10313
894.93782,0.10483
893.00908,0.10740
891.08033,0.10993
889.15159,0.11188
887.22284,0.11304
885.29410,0.11312
883.36535,0.11197
881.43661,0.10964
879.50786,0.10639
877.57911,0.10279
875.65037,0.09986
873.72162,0.09927
871.79288,0.10255
869.86413,0.10861
867.93539,0.11400
866.00664,0.11693
864.07790,0.11811
862.14915,0.11853
860.22041,0.11860
858.29166,0.11841
856.36292,0.11821
854.43417,0.11834
852.50543,0.11846
850.57668,0.11812
848.64794,0.11758
846.71919,0.11726
844.79044,0.11716
842.86170,0.11721
840.93295,0.11719
839.00421,0.11676
837.07546,0.11628
835.14672,0.11616
833.21797,0.11591
831.28923,0.11518
829.36048,0.11417
827.43174,0.11306
825.50299,0.11194
823.57425,0.11058
821.64550,0.10896
819.71676,0.10747
817.78801,0.10616
815.85926,0.10483
813.93052,0.10364
812.00177,0.10293
810.07303,0.10252
808.14428,0.10210
806.21554,0.10149
804.28679,0.10047
802.35805,0.09911
800.42930,0.09796
798.50056,0.09724
796.57181,0.09673
794.64307,0.09630
792.71432,0.09576
790.78558,0.09505
788.85683,0.09427
786.92809,0.09330
784.99934,0.09237
783.07059,0.09188
781.14185,0.09162
779.21310,0.09118
777.28436,0.09045
775.35561,0.08934
773.42687,0.08796
771.49812,0.08682
769.56938,0.08606
767.64063,0.08560
765.71189,0.08532
763.78314,0.08490
761.85440,0.08435
759.92565,0.08386
757.99691,0.08327
756.06816,0.08263
754.13942,0.08210
752.21067,0.08155
750.28192,0.08104
748.35318,0.08073
746.42443,0.08035
744.49569,0.07974
742.56694,0.07915
740.63820,0.07875
738.70945,0.07822
736.78071,0.07732
734.85196,0.07609
732.92322,0.07453
730.99447,0.07303
729.06573,0.07211
727.13698,0.07156
725.20824,0.07090
723.27949,0.06993
721.35074,0.06864
719.42200,0.06756
717.49325,0.06688
715.56451,0.06632
713.63576,0.06586
711.70702,0.06548
709.77827,0.06515
707.84953,0.06506
705.92078,0.06523
703.99204,0.06522
702.06329,0.06520
700.13455,0.06526
698.20580,0.06483
696.27706,0.06444
694.34831,0.06488
692.41957,0.06548
690.49082,0.06540
688.56207,0.06452
686.63333,0.06330
684.70458,0.06217
682.77584,0.06152
680.84709,0.06162
678.91835,0.06197
676.98960,0.06181
675.06086,0.06116
673.13211,0.06077
671.20337,0.06092
669.27462,0.06105
667.34588,0.06081
665.41713,0.06042
663.48839,0.06030
661.55964,0.06054
659.63090,0.06090
657.70215,0.06128
655.77340,0.06180
653.84466,0.06223
651.91591,0.06223
649.98717,0.06170
648.05842,0.06098
646.12968,0.06078
644.20093,0.06079
642.27219,0.05996
640.34344,0.05837
638.41470,0.05713
636.48595,0.05707
634.55721,0.05784
632.62846,0.05870
630.69972,0.05912
628.77097,0.05872
626.84222,0.05770
624.91348,0.05699
622.98473,0.05746
621.05599,0.05877
619.12724,0.06007
617.19850,0.06088
615.26975,0.06107
613.34101,0.06087
611.41226,0.06053
609.48352,0.06048
607.55477,0.06102
605.62603,0.06165
603.69728,0.06192
601.76854,0.06283
599.83979,0.06487
