7497.03301,0.58052
7495.10426,0.58206
7493.17552,0.58380
7491.24677,0.58921
7489.31803,0.59166
7487.38928,0.58648
7485.46054,0.57997
7483.53179,0.57531
7481.60305,0.57242
7479.67430,0.57388
7477.74556,0.57876
7475.81681,0.58302
7473.88807,0.58699
7471.95932,0.59110
7470.03057,0.59018
7468.10183,0.58353
7466.17308,0.57790
7464.24434,0.57544
7462.31559,0.57535
7460.38685,0.57959
7458.45810,0.58523
7456.52936,0.58828
7454.60061,0.58874
7452.67187,0.58431
7450.74312,0.57830
7448.81438,0.57775
7446.88563,0.58057
7444.95689,0.58340
7443.02814,0.58576
7441.09940,0.58819
7439.17065,0.59095
7437.24190,0.58911
7435.31316,0.58071
7433.38441,0.57181
7431.45567,0.56920
7429.52692,0.57484
7427.59818,0.58245
7425.66943,0.58419
7423.74069,0.58155
7421.81194,0.58239
7419.88320,0.58708
7417.95445,0.58789
7416.02571,0.58344
7414.09696,0.58070
7412.16822,0.58201
7410.23947,0.58231
7408.31073,0.57935
7406.38198,0.57757
7404.45323,0.57831
7402.52449,0.57645
7400.59574,0.57140
7398.66700,0.56988
7396.73825,0.57445
7394.80951,0.57795
7392.88076,0.57628
7390.95202,0.57496
7389.02327,0.57570
7387.09453,0.57694
7385.16578,0.58165
7383.23704,0.58749
7381.30829,0.58708
7379.37955,0.58225
7377.45080,0.57927
7375.52205,0.57829
7373.59331,0.57774
7371.66456,0.57814
7369.73582,0.57996
7367.80707,0.58125
7365.87833,0.57830
7363.94958,0.57251
7362.02084,0.56931
7360.09209,0.57078
7358.16335,0.57417
7356.23460,0.57611
7354.30586,0.57751
7352.37711,0.57901
7350.44837,0.57778
7348.51962,0.57504
7346.59088,0.57556
7344.66213,0.57895
7342.73338,0.57901
7340.80464,0.57520
7338.87589,0.57333
7336.94715,0.57289
7335.01840,0.56983
7333.08966,0.56668
7331.16091,0.56806
7329.23217,0.57242
7327.30342,0.57647
7325.37468,0.57947
7323.44593,0.58012
7321.51719,0.58029
7319.58844,0.58158
7317.65970,0.58036
7315.73095,0.57770
7313.80221,0.57865
7311.87346,0.58000
7309.94471,0.57690
7308.01597,0.57472
7306.08722,0.57784
7304.15848,0.58229
7302.22973,0.58681
7300.30099,0.59072
7298.37224,0.58829
7296.44350,0.57991
7294.51475,0.57309
7292.58601,0.57253
7290.65726,0.57630
7288.72852,0.57708
7286.79977,0.57226
7284.87103,0.56775
7282.94228,0.56696
7281.01353,0.57002
7279.08479,0.57497
7277.15604,0.57626
7275.22730,0.57524
7273.29855,0.57719
7271.36981,0.57887
7269.44106,0.57659
7267.51232,0.57435
7265.58357,0.57620
7263.65483,0.58079
7261.72608,0.58535
7259.79734,0.58843
7257.86859,0.58808
7255.93985,0.58262
7254.01110,0.57551
7252.08236,0.57396
7250.15361,0.57809
7248.22486,0.58133
7246.29612,0.58267
7244.36737,0.58397
7242.43863,0.58238
7240.50988,0.57754
7238.58114,0.57452
7236.65239,0.57541
7234.72365,0.57698
7232.79490,0.57485
7230.86616,0.57021
7228.93741,0.57041
7227.00867,0.57723
7225.07992,0.58237
7223.15118,0.58106
7221.22243,0.57968
7219.29369,0.58117
7217.36494,0.58051
7215.43619,0.57739
7213.50745,0.57497
7211.57870,0.57383
7209.64996,0.57505
7207.72121,0.57886
7205.79247,0.58279
7203.86372,0.58417
7201.93498,0.58284
7200.00623,0.58040
7198.07749,0.57826
7196.14874,0.57728
7194.22000,0.57696
7192.29125,0.57780
7190.36251,0.58051
7188.43376,0.58053
7186.50501,0.57389
7184.57627,0.56666
7182.64752,0.56647
7180.71878,0.56994
7178.79003,0.57148
7176.86129,0.57339
7174.93254,0.57642
7173.00380,0.57750
7171.07505,0.57727
7169.14631,0.57935
7167.21756,0.58271
7165.28882,0.58242
7163.36007,0.57906
7161.43133,0.57580
7159.50258,0.57342
7157.57384,0.57450
7155.64509,0.57914
7153.71634,0.58235
7151.78760,0.58148
7149.85885,0.57801
7147.93011,0.57547
7146.00136,0.57649
7144.07262,0.57898
7142.14387,0.57989
7140.21513,0.57827
7138.28638,0.57289
7136.35764,0.56651
7134.42889,0.56555
7132.50015,0.57070
7130.57140,0.57649
7128.64266,0.57849
7126.71391,0.57720
7124.78516,0.57545
7122.85642,0.57325
7120.92767,0.57017
7118.99893,0.56858
7117.07018,0.56931
7115.14144,0.57022
7113.21269,0.57121
7111.28395,0.57344
7109.35520,0.57425
7107.42646,0.57118
7105.49771,0.56822
7103.56897,0.56959
7101.64022,0.57209
7099.71148,0.57132
7097.78273,0.56995
7095.85399,0.57277
7093.92524,0.57719
7091.99649,0.57755
7090.06775,0.57435
7088.13900,0.57181
7086.21026,0.57193
7084.28151,0.57231
7082.35277,0.57027
7080.42402,0.56782
7078.49528,0.56753
7076.56653,0.56820
7074.63779,0.56757
7072.70904,0.56560
7070.78030,0.56360
7068.85155,0.56182
7066.92281,0.55949
7064.99406,0.55694
7063.06532,0.55712
7061.13657,0.56022
7059.20782,0.56288
7057.27908,0.56503
7055.35033,0.56625
7053.42159,0.56427
7051.49284,0.56133
7049.56410,0.56131
7047.63535,0.56315
7045.70661,0.56326
7043.77786,0.56109
7041.84912,0.55748
7039.92037,0.55386
7037.99163,0.55400
7036.06288,0.55738
7034.13414,0.55942
7032.20539,0.56059
7030.27664,0.56141
7028.34790,0.55882
7026.41915,0.55630
7024.49041,0.55809
7022.56166,0.56118
7020.63292,0.56401
7018.70417,0.56571
7016.77543,0.56334
7014.84668,0.55923
7012.91794,0.55865
7010.98919,0.56093
7009.06045,0.56064
7007.13170,0.55575
7005.20296,0.55174
7003.27421,0.55484
7001.34547,0.56188
6999.41672,0.56367
6997.48797,0.55840
6995.55923,0.55337
6993.63048,0.55295
6991.70174,0.55435
6989.77299,0.55517
6987.84425,0.55607
6985.91550,0.55714
6983.98676,0.55781
6982.05801,0.55817
6980.12927,0.55874
6978.20052,0.55997
6976.27178,0.56117
6974.34303,0.56067
6972.41429,0.55879
6970.48554,0.55703
6968.55680,0.55492
6966.62805,0.55271
6964.69930,0.55194
6962.77056,0.55318
6960.84181,0.55566
6958.91307,0.55750
6956.98432,0.55782
6955.05558,0.55653
6953.12683,0.55356
6951.19809,0.55159
6949.26934,0.55264
6947.34060,0.55458
6945.41185,0.55504
6943.48311,0.55361
6941.55436,0.55228
6939.62562,0.55291
6937.69687,0.55407
6935.76812,0.55498
6933.83938,0.55519
6931.91063,0.55202
6929.98189,0.54709
6928.05314,0.54492
6926.12440,0.54571
6924.19565,0.54719
6922.26691,0.54806
6920.33816,0.54892
6918.40942,0.54996
6916.48067,0.54944
6914.55193,0.54777
6912.62318,0.54683
6910.69444,0.54710
6908.76569,0.54855
6906.83695,0.55141
6904.90820,0.55431
6902.97945,0.55458
6901.05071,0.55284
6899.12196,0.55165
6897.19322,0.55134
6895.26447,0.55040
6893.33573,0.54830
6891.40698,0.54823
6889.47824,0.55225
6887.54949,0.55612
6885.62075,0.55476
6883.69200,0.55055
6881.76326,0.54932
6879.83451,0.55069
6877.90577,0.55187
6875.97702,0.55207
6874.04828,0.54982
6872.11953,0.54663
6870.19078,0.54629
6868.26204,0.54793
6866.33329,0.54876
6864.40455,0.54955
6862.47580,0.55086
6860.54706,0.55050
6858.61831,0.54816
6856.68957,0.54569
6854.76082,0.54537
6852.83208,0.54697
6850.90333,0.54722
6848.97459,0.54770
6847.04584,0.55132
6845.11710,0.55374
6843.18835,0.55156
6841.25960,0.54766
6839.33086,0.54575
6837.40211,0.54650
6835.47337,0.54786
6833.54462,0.54763
6831.61588,0.54572
6829.68713,0.54522
6827.75839,0.54629
6825.82964,0.54476
6823.90090,0.54220
6821.97215,0.54220
6820.04341,0.54322
6818.11466,0.54494
6816.18592,0.54752
6814.25717,0.54793
6812.32843,0.54531
6810.39968,0.54250
6808.47093,0.54164
6806.54219,0.54158
6804.61344,0.54059
6802.68470,0.53906
6800.75595,0.53840
6798.82721,0.54024
6796.89846,0.54340
6794.96972,0.54395
6793.04097,0.54299
6791.11223,0.54343
6789.18348,0.54271
6787.25474,0.54149
6785.32599,0.54318
6783.39725,0.54460
6781.46850,0.54497
6779.53975,0.54707
6777.61101,0.54782
6775.68226,0.54504
6773.75352,0.54181
6771.82477,0.54102
6769.89603,0.54274
6767.96728,0.54475
6766.03854,0.54578
6764.10979,0.54582
6762.18105,0.54465
6760.25230,0.54344
6758.32356,0.54324
6756.39481,0.54323
6754.46607,0.54352
6752.53732,0.54441
6750.60858,0.54491
6748.67983,0.54466
6746.75108,0.54414
6744.82234,0.54406
6742.89359,0.54517
6740.96485,0.54720
6739.03610,0.54725
6737.10736,0.54374
6735.17861,0.54114
6733.24987,0.54263
6731.32112,0.54473
6729.39238,0.54382
6727.46363,0.54168
6725.53489,0.54167
6723.60614,0.54329
6721.67740,0.54389
6719.74865,0.54303
6717.81991,0.54245
6715.89116,0.54255
6713.96241,0.54264
6712.03367,0.54328
6710.10492,0.54387
6708.17618,0.54345
6706.24743,0.54351
6704.31869,0.54555
6702.38994,0.54762
6700.46120,0.54764
6698.53245,0.54813
6696.60371,0.54990
6694.67496,0.54949
6692.74622,0.54668
6690.81747,0.54335
6688.88873,0.54041
6686.95998,0.54004
6685.03123,0.54142
6683.10249,0.54140
6681.17374,0.54219
6679.24500,0.54601
6677.31625,0.54959
6675.38751,0.54979
6673.45876,0.54756
6671.53002,0.54550
6669.60127,0.54328
6667.67253,0.53991
6665.74378,0.53836
6663.81504,0.54128
6661.88629,0.54674
6659.95755,0.55004
6658.02880,0.54907
6656.10006,0.54655
6654.17131,0.54512
6652.24256,0.54558
6650.31382,0.54708
6648.38507,0.54768
6646.45633,0.54810
6644.52758,0.54882
6642.59884,0.54851
6640.67009,0.54799
6638.74135,0.54721
6636.81260,0.54603
6634.88386,0.54600
6632.95511,0.54640
6631.02637,0.54607
6629.09762,0.54555
6627.16888,0.54577
6625.24013,0.54716
6623.31139,0.54756
6621.38264,0.54571
6619.45389,0.54476
6617.52515,0.54596
6615.59640,0.54718
6613.66766,0.54764
6611.73891,0.54771
6609.81017,0.54812
6607.88142,0.54892
6605.95268,0.54854
6604.02393,0.54674
6602.09519,0.54586
6600.16644,0.54725
6598.23770,0.54891
6596.30895,0.54985
6594.38021,0.55157
6592.45146,0.55353
6590.52271,0.55399
6588.59397,0.55379
6586.66522,0.55442
6584.73648,0.55474
6582.80773,0.55433
6580.87899,0.55447
6578.95024,0.55390
6577.02150,0.55246
6575.09275,0.55270
6573.16401,0.55351
6571.23526,0.55245
6569.30652,0.55076
6567.37777,0.54994
6565.44903,0.54949
6563.52028,0.54971
6561.59154,0.55129
6559.66279,0.55261
6557.73404,0.55268
6555.80530,0.55300
6553.87655,0.55339
6551.94781,0.55220
6550.01906,0.54958
6548.09032,0.54807
6546.16157,0.55011
6544.23283,0.55386
6542.30408,0.55529
6540.37534,0.55386
6538.44659,0.55248
6536.51785,0.55282
6534.58910,0.55316
6532.66036,0.55137
6530.73161,0.54799
6528.80287,0.54519
6526.87412,0.54470
6524.94537,0.54725
6523.01663,0.55079
6521.08788,0.55186
6519.15914,0.55168
6517.23039,0.55317
6515.30165,0.55451
6513.37290,0.55372
6511.44416,0.55241
6509.51541,0.55171
6507.58667,0.55072
6505.65792,0.54937
6503.72918,0.54901
6501.80043,0.55053
6499.87169,0.55220
6497.94294,0.55127
6496.01419,0.54856
6494.08545,0.54751
6492.15670,0.54920
6490.22796,0.55173
6488.29921,0.55404
6486.37047,0.55670
6484.44172,0.55841
6482.51298,0.55775
6480.58423,0.55638
6478.65549,0.55563
6476.72674,0.55423
6474.79800,0.55222
6472.86925,0.55133
6470.94051,0.55150
6469.01176,0.55217
6467.08302,0.55285
6465.15427,0.55203
6463.22552,0.55076
6461.29678,0.55187
6459.36803,0.55442
6457.43929,0.55527
6455.51054,0.55425
6453.58180,0.55391
6451.65305,0.55472
6449.72431,0.55513
6447.79556,0.55549
6445.86682,0.55619
6443.93807,0.55527
6442.00933,0.55210
6440.08058,0.54887
6438.15184,0.54754
6436.22309,0.54849
6434.29434,0.55117
6432.36560,0.55339
6430.43685,0.55325
6428.50811,0.55189
6426.57936,0.55072
6424.65062,0.55055
6422.72187,0.55218
6420.79313,0.55368
6418.86438,0.55332
6416.93564,0.55326
6415.00689,0.55500
6413.07815,0.55681
6411.14940,0.55665
6409.22066,0.55438
6407.29191,0.55253
6405.36317,0.55301
6403.43442,0.55475
6401.50567,0.55578
6399.57693,0.55492
6397.64818,0.55382
6395.71944,0.55515
6393.79069,0.55826
6391.86195,0.56030
6389.93320,0.55962
6388.00446,0.55790
6386.07571,0.55655
6384.14697,0.55488
6382.21822,0.55420
6380.28948,0.55545
6378.36073,0.55695
6376.43199,0.55700
6374.50324,0.55593
6372.57450,0.55580
6370.64575,0.55671
6368.71700,0.55704
6366.78826,0.55672
6364.85951,0.55577
6362.93077,0.55463
6361.00202,0.55505
6359.07328,0.55652
6357.14453,0.55730
6355.21579,0.55779
6353.28704,0.55720
6351.35830,0.55444
6349.42955,0.55167
6347.50081,0.55061
6345.57206,0.55112
6343.64332,0.55282
6341.71457,0.55470
6339.78582,0.55613
6337.85708,0.55676
6335.92833,0.55608
6333.99959,0.55587
6332.07084,0.55700
6330.14210,0.55682
6328.21335,0.55504
6326.28461,0.55436
6324.35586,0.55523
6322.42712,0.55568
6320.49837,0.55477
6318.56963,0.55381
6316.64088,0.55289
6314.71214,0.55138
6312.78339,0.55101
6310.85465,0.55238
6308.92590,0.55301
6306.99715,0.55292
6305.06841,0.55424
6303.13966,0.55576
6301.21092,0.55629
6299.28217,0.55700
6297.35343,0.55731
6295.42468,0.55640
6293.49594,0.55557
6291.56719,0.55599
6289.63845,0.55730
6287.70970,0.55844
6285.78096,0.55851
6283.85221,0.55743
6281.92347,0.55651
6279.99472,0.55663
6278.06598,0.55657
6276.13723,0.55635
6274.20848,0.55714
6272.27974,0.55735
6270.35099,0.55644
6268.42225,0.55714
6266.49350,0.55994
6264.56476,0.56205
6262.63601,0.56207
6260.70727,0.56124
6258.77852,0.55999
6256.84978,0.55755
6254.92103,0.55504
6252.99229,0.55553
6251.06354,0.55934
6249.13480,0.56243
6247.20605,0.56213
6245.27730,0.56015
6243.34856,0.55916
6241.41981,0.55947
6239.49107,0.56034
6237.56232,0.56162
6235.63358,0.56238
6233.70483,0.56260
6231.77609,0.56357
6229.84734,0.56445
6227.91860,0.56404
6225.98985,0.56384
6224.06111,0.56460
6222.13236,0.56495
6220.20362,0.56418
6218.27487,0.56322
6216.34613,0.56380
6214.41738,0.56620
6212.48863,0.56744
6210.55989,0.56565
6208.63114,0.56334
6206.70240,0.56314
6204.77365,0.56407
6202.84491,0.56415
6200.91616,0.56359
6198.98742,0.56352
6197.05867,0.56363
6195.12993,0.56312
6193.20118,0.56286
6191.27244,0.56361
6189.34369,0.56424
6187.41495,0.56428
6185.48620,0.56440
6183.55746,0.56500
6181.62871,0.56606
6179.69996,0.56606
6177.77122,0.56432
6175.84247,0.56331
6173.91373,0.56326
6171.98498,0.56293
6170.05624,0.56351
6168.12749,0.56471
6166.19875,0.56581
6164.27000,0.56784
6162.34126,0.56960
6160.41251,0.56940
6158.48377,0.56810
6156.55502,0.56709
6154.62628,0.56684
6152.69753,0.56744
6150.76878,0.56821
6148.84004,0.56834
6146.91129,0.56863
6144.98255,0.56882
6143.05380,0.56751
6141.12506,0.56646
6139.19631,0.56671
6137.26757,0.56633
6135.33882,0.56612
6133.41008,0.56766
6131.48133,0.56880
6129.55259,0.56746
6127.62384,0.56573
6125.69510,0.56628
6123.76635,0.56831
6121.83761,0.56968
6119.90886,0.57007
6117.98011,0.56985
6116.05137,0.56901
6114.12262,0.56804
6112.19388,0.56753
6110.26513,0.56775
6108.33639,0.56885
6106.40764,0.57009
6104.47890,0.57048
6102.55015,0.57035
6100.62141,0.57061
6098.69266,0.57137
6096.76392,0.57170
6094.83517,0.57059
6092.90643,0.56879
6090.97768,0.56822
6089.04893,0.56911
6087.12019,0.56998
6085.19144,0.57038
6083.26270,0.57100
6081.33395,0.57109
6079.40521,0.57006
6077.47646,0.56967
6075.54772,0.57045
6073.61897,0.57032
6071.69023,0.56838
6069.76148,0.56637
6067.83274,0.56632
6065.90399,0.56875
6063.97525,0.57219
6062.04650,0.57430
6060.11776,0.57444
6058.18901,0.57375
6056.26026,0.57264
6054.33152,0.57118
6052.40277,0.57070
6050.47403,0.57184
6048.54528,0.57319
6046.61654,0.57375
6044.68779,0.57364
6042.75905,0.57268
6040.83030,0.57106
6038.90156,0.57059
6036.97281,0.57146
6035.04407,0.57108
6033.11532,0.57038
6031.18658,0.57135
6029.25783,0.57192
6027.32909,0.57128
6025.40034,0.57059
6023.47159,0.57013
6021.54285,0.57038
6019.61410,0.57109
6017.68536,0.57149
6015.75661,0.57183
6013.82787,0.57221
6011.89912,0.57236
6009.97038,0.57238
6008.04163,0.57204
6006.11289,0.57177
6004.18414,0.57184
6002.25540,0.57111
6000.32665,0.56972
5998.39791,0.56928
5996.46916,0.57022
5994.54041,0.57078
5992.61167,0.57029
5990.68292,0.57072
5988.75418,0.57216
5986.82543,0.57313
5984.89669,0.57330
5982.96794,0.57234
5981.03920,0.57127
5979.11045,0.57158
5977.18171,0.57251
5975.25296,0.57306
5973.32422,0.57372
5971.39547,0.57452
5969.46673,0.57387
5967.53798,0.57158
5965.60924,0.57046
5963.68049,0.57115
5961.75174,0.57108
5959.82300,0.57053
5957.89425,0.57144
5955.96551,0.57262
5954.03676,0.57319
5952.10802,0.57449
5950.17927,0.57523
5948.25053,0.57362
5946.32178,0.57167
5944.39304,0.57076
5942.46429,0.57005
5940.53555,0.57004
5938.60680,0.57147
5936.67806,0.57302
5934.74931,0.57326
5932.82057,0.57295
5930.89182,0.57316
5928.96307,0.57341
5927.03433,0.57291
5925.10558,0.57160
5923.17684,0.57062
5921.24809,0.57119
5919.31935,0.57232
5917.39060,0.57202
5915.46186,0.57043
5913.53311,0.56906
5911.60437,0.56908
5909.67562,0.57049
5907.74688,0.57156
5905.81813,0.57152
5903.88939,0.57140
5901.96064,0.57146
5900.03189,0.57151
5898.10315,0.57208
5896.17440,0.57260
5894.24566,0.57156
5892.31691,0.56949
5890.38817,0.56815
5888.45942,0.56793
5886.53068,0.56844
5884.60193,0.56877
5882.67319,0.56835
5880.74444,0.56806
5878.81570,0.56827
5876.88695,0.56786
5874.95821,0.56712
5873.02946,0.56746
5871.10072,0.56850
5869.17197,0.56911
5867.24322,0.56900
5865.31448,0.56856
5863.38573,0.56829
5861.45699,0.56817
5859.52824,0.56864
5857.59950,0.56977
5855.67075,0.57063
5853.74201,0.57094
5851.81326,0.57056
5849.88452,0.56890
5847.95577,0.56695
5846.02703,0.56634
5844.09828,0.56665
5842.16954,0.56667
5840.24079,0.56630
5838.31205,0.56668
5836.38330,0.56827
5834.45455,0.56917
5832.52581,0.56895
5830.59706,0.56934
5828.66832,0.56991
5826.73957,0.56963
5824.81083,0.56882
5822.88208,0.56785
5820.95334,0.56752
5819.02459,0.56759
5817.09585,0.56616
5815.16710,0.56416
5813.23836,0.56446
5811.30961,0.56639
5809.38087,0.56761
5807.45212,0.56753
5805.52337,0.56684
5803.59463,0.56651
5801.66588,0.56667
5799.73714,0.56676
5797.80839,0.56619
5795.87965,0.56500
5793.95090,0.56415
5792.02216,0.56397
5790.09341,0.56443
5788.16467,0.56533
5786.23592,0.56545
5784.30718,0.56458
5782.37843,0.56398
5780.44969,0.56419
5778.52094,0.56492
5776.59220,0.56539
5774.66345,0.56542
5772.73470,0.56579
5770.80596,0.56595
5768.87721,0.56527
5766.94847,0.56462
5765.01972,0.56456
5763.09098,0.56483
5761.16223,0.56502
5759.23349,0.56493
5757.30474,0.56491
5755.37600,0.56525
5753.44725,0.56542
5751.51851,0.56548
5749.58976,0.56652
5747.66102,0.56790
5745.73227,0.56785
5743.80352,0.56702
5741.87478,0.56690
5739.94603,0.56698
5738.01729,0.56649
5736.08854,0.56585
5734.15980,0.56577
5732.23105,0.56673
5730.30231,0.56811
5728.37356,0.56847
5726.44482,0.56761
5724.51607,0.56676
5722.58733,0.56689
5720.65858,0.56737
5718.72984,0.56793
5716.80109,0.56952
5714.87235,0.57065
5712.94360,0.56961
5711.01485,0.56839
5709.08611,0.56811
5707.15736,0.56758
5705.22862,0.56698
5703.29987,0.56680
5701.37113,0.56708
5699.44238,0.56840
5697.51364,0.56992
5695.58489,0.56995
5693.65615,0.56887
5691.72740,0.56829
5689.79866,0.56796
5687.86991,0.56669
5685.94117,0.56523
5684.01242,0.56476
5682.08368,0.56510
5680.15493,0.56576
5678.22618,0.56632
5676.29744,0.56668
5674.36869,0.56670
5672.43995,0.56596
5670.51120,0.56536
5668.58246,0.56591
5666.65371,0.56615
5664.72497,0.56509
5662.79622,0.56458
5660.86748,0.56554
5658.93873,0.56622
5657.00999,0.56591
5655.08124,0.56606
5653.15250,0.56689
5651.22375,0.56721
5649.29500,0.56681
5647.36626,0.56575
5645.43751,0.56457
5643.50877,0.56440
5641.58002,0.56547
5639.65128,0.56714
5637.72253,0.56802
5635.79379,0.56751
5633.86504,0.56686
5631.93630,0.56692
5630.00755,0.56706
5628.07881,0.56675
5626.15006,0.56645
5624.22132,0.56646
5622.29257,0.56645
5620.36383,0.56636
5618.43508,0.56644
5616.50633,0.56679
5614.57759,0.56693
5612.64884,0.56684
5610.72010,0.56718
5608.79135,0.56728
5606.86261,0.56638
5604.93386,0.56559
5603.00512,0.56580
5601.07637,0.56670
5599.14763,0.56731
5597.21888,0.56700
5595.29014,0.56603
5593.36139,0.56491
5591.43265,0.56488
5589.50390,0.56662
5587.57516,0.56842
5585.64641,0.56858
5583.71766,0.56783
5581.78892,0.56774
5579.86017,0.56821
5577.93143,0.56819
5576.00268,0.56777
5574.07394,0.56758
5572.14519,0.56779
5570.21645,0.56854
5568.28770,0.56919
5566.35896,0.56901
5564.43021,0.56885
5562.50147,0.56918
5560.57272,0.56896
5558.64398,0.56797
5556.71523,0.56737
5554.78648,0.56802
5552.85774,0.56923
5550.92899,0.57010
5549.00025,0.57015
5547.07150,0.56920
5545.14276,0.56849
5543.21401,0.56884
5541.28527,0.56926
5539.35652,0.56917
5537.42778,0.56865
5535.49903,0.56824
5533.57029,0.56846
5531.64154,0.56861
5529.71280,0.56844
5527.78405,0.56861
5525.85531,0.56887
5523.92656,0.56895
5521.99781,0.56903
5520.06907,0.56863
5518.14032,0.56794
5516.21158,0.56815
5514.28283,0.56893
5512.35409,0.56903
5510.42534,0.56855
5508.49660,0.56797
5506.56785,0.56768
5504.63911,0.56820
5502.71036,0.56920
5500.78162,0.56965
5498.85287,0.56926
5496.92413,0.56905
5494.99538,0.56941
5493.06664,0.56907
5491.13789,0.56787
5489.20914,0.56722
5487.28040,0.56773
5485.35165,0.56884
5483.42291,0.56965
5481.49416,0.56976
5479.56542,0.56956
5477.63667,0.56931
5475.70793,0.56900
5473.77918,0.56893
5471.85044,0.56905
5469.92169,0.56907
5467.99295,0.56943
5466.06420,0.57037
5464.13546,0.57094
5462.20671,0.57027
5460.27796,0.56910
5458.34922,0.56872
5456.42047,0.56922
5454.49173,0.56984
5452.56298,0.57017
5450.63424,0.57026
5448.70549,0.57015
5446.77675,0.57015
5444.84800,0.57062
5442.91926,0.57099
5440.99051,0.57096
5439.06177,0.57109
5437.13302,0.57144
5435.20428,0.57178
5433.27553,0.57226
5431.34679,0.57272
5429.41804,0.57275
5427.48929,0.57202
5425.56055,0.57105
5423.63180,0.57132
5421.70306,0.57283
5419.77431,0.57390
5417.84557,0.57406
5415.91682,0.57376
5413.98808,0.57327
5412.05933,0.57308
5410.13059,0.57313
5408.20184,0.57342
5406.27310,0.57449
5404.34435,0.57561
5402.41561,0.57541
5400.48686,0.57473
5398.55811,0.57474
5396.62937,0.57480
5394.70062,0.57424
5392.77188,0.57335
5390.84313,0.57292
5388.91439,0.57340
5386.98564,0.57416
5385.05690,0.57426
5383.12815,0.57341
5381.19941,0.57237
5379.27066,0.57216
5377.34192,0.57260
5375.41317,0.57322
5373.48443,0.57399
5371.55568,0.57462
5369.62694,0.57498
5367.69819,0.57501
5365.76944,0.57452
5363.84070,0.57412
5361.91195,0.57406
5359.98321,0.57361
5358.05446,0.57317
5356.12572,0.57347
5354.19697,0.57396
5352.26823,0.57377
5350.33948,0.57310
5348.41074,0.57279
5346.48199,0.57313
5344.55325,0.57328
5342.62450,0.57279
5340.69576,0.57245
5338.76701,0.57238
5336.83827,0.57210
5334.90952,0.57186
5332.98077,0.57176
5331.05203,0.57174
5329.12328,0.57162
5327.19454,0.57118
5325.26579,0.57080
5323.33705,0.57057
5321.40830,0.57025
5319.47956,0.57020
5317.55081,0.57056
5315.62207,0.57053
5313.69332,0.56948
5311.76458,0.56825
5309.83583,0.56780
5307.90709,0.56785
5305.97834,0.56748
5304.04959,0.56638
5302.12085,0.56523
5300.19210,0.56474
5298.26336,0.56467
5296.33461,0.56438
5294.40587,0.56378
5292.47712,0.56289
5290.54838,0.56179
5288.61963,0.56069
5286.69089,0.55955
5284.76214,0.55823
5282.83340,0.55686
5280.90465,0.55577
5278.97591,0.55453
5277.04716,0.55305
5275.11842,0.55215
5273.18967,0.55128
5271.26092,0.54979
5269.33218,0.54849
5267.40343,0.54720
5265.47469,0.54507
5263.54594,0.54262
5261.61720,0.54059
5259.68845,0.53910
5257.75971,0.53802
5255.83096,0.53654
5253.90222,0.53448
5251.97347,0.53286
5250.04473,0.53181
5248.11598,0.53050
5246.18724,0.52867
5244.25849,0.52687
5242.32975,0.52499
5240.40100,0.52276
5238.47225,0.52099
5236.54351,0.51990
5234.61476,0.51877
5232.68602,0.51753
5230.75727,0.51620
5228.82853,0.51449
5226.89978,0.51245
5224.97104,0.51052
5223.04229,0.50908
5221.11355,0.50814
5219.18480,0.50742
5217.25606,0.50652
5215.32731,0.50531
5213.39857,0.50430
5211.46982,0.50353
5209.54107,0.50262
5207.61233,0.50232
5205.68358,0.50284
5203.75484,0.50295
5201.82609,0.50252
5199.89735,0.50229
5197.96860,0.50270
5196.03986,0.50393
5194.11111,0.50490
5192.18237,0.50431
5190.25362,0.50332
5188.32488,0.50358
5186.39613,0.50455
5184.46739,0.50509
5182.53864,0.50513
5180.60990,0.50525
5178.68115,0.50578
5176.75240,0.50628
5174.82366,0.50633
5172.89491,0.50643
5170.96617,0.50684
5169.03742,0.50697
5167.10868,0.50711
5165.17993,0.50802
5163.25119,0.50918
5161.32244,0.50946
5159.39370,0.50905
5157.46495,0.50915
5155.53621,0.51004
5153.60746,0.51098
5151.67872,0.51138
5149.74997,0.51152
5147.82123,0.51194
5145.89248,0.51247
5143.96373,0.51274
5142.03499,0.51295
5140.10624,0.51297
5138.17750,0.51272
5136.24875,0.51318
5134.32001,0.51465
5132.39126,0.51618
5130.46252,0.51692
5128.53377,0.51694
5126.60503,0.51721
5124.67628,0.51811
5122.74754,0.51898
5120.81879,0.51969
5118.89005,0.52067
5116.96130,0.52168
5115.03255,0.52216
5113.10381,0.52253
5111.17506,0.52317
5109.24632,0.52346
5107.31757,0.52336
5105.38883,0.52377
5103.46008,0.52470
5101.53134,0.52537
5099.60259,0.52571
5097.67385,0.52617
5095.74510,0.52655
5093.81636,0.52677
5091.88761,0.52708
5089.95887,0.52748
5088.03012,0.52791
5086.10138,0.52843
5084.17263,0.52880
5082.24388,0.52892
5080.31514,0.52917
5078.38639,0.52992
5076.45765,0.53081
5074.52890,0.53118
5072.60016,0.53108
5070.67141,0.53102
5068.74267,0.53115
5066.81392,0.53127
5064.88518,0.53171
5062.95643,0.53282
5061.02769,0.53428
5059.09894,0.53561
5057.17020,0.53651
5055.24145,0.53663
5053.31270,0.53608
5051.38396,0.53564
5049.45521,0.53563
5047.52647,0.53555
5045.59772,0.53569
5043.66898,0.53657
5041.74023,0.53760
5039.81149,0.53820
5037.88274,0.53869
5035.95400,0.53921
5034.02525,0.53936
5032.09651,0.53942
5030.16776,0.53989
5028.23902,0.54019
5026.31027,0.53975
5024.38153,0.53955
5022.45278,0.54030
5020.52403,0.54126
5018.59529,0.54198
5016.66654,0.54228
5014.73780,0.54175
5012.80905,0.54099
5010.88031,0.54076
5008.95156,0.54096
5007.02282,0.54134
5005.09407,0.54191
5003.16533,0.54254
5001.23658,0.54283
4999.30784,0.54289
4997.37909,0.54337
4995.45035,0.54403
4993.52160,0.54411
4991.59286,0.54351
4989.66411,0.54283
4987.73536,0.54287
4985.80662,0.54345
4983.87787,0.54364
4981.94913,0.54342
4980.02038,0.54321
4978.09164,0.54283
4976.16289,0.54221
4974.23415,0.54170
4972.30540,0.54144
4970.37666,0.54146
4968.44791,0.54172
4966.51917,0.54180
4964.59042,0.54144
4962.66168,0.54117
4960.73293,0.54132
4958.80418,0.54147
4956.87544,0.54123
4954.94669,0.54073
4953.01795,0.54027
4951.08920,0.53991
4949.16046,0.53928
4947.23171,0.53837
4945.30297,0.53797
4943.37422,0.53809
4941.44548,0.53791
4939.51673,0.53731
4937.58799,0.53644
4935.65924,0.53539
4933.73050,0.53444
4931.80175,0.53368
4929.87301,0.53313
4927.94426,0.53261
4926.01551,0.53163
4924.08677,0.53049
4922.15802,0.53006
4920.22928,0.52991
4918.30053,0.52907
4916.37179,0.52811
4914.44304,0.52729
4912.51430,0.52591
4910.58555,0.52446
4908.65681,0.52334
4906.72806,0.52237
4904.79932,0.52174
4902.87057,0.52133
4900.94183,0.52083
4899.01308,0.52015
4897.08434,0.51930
4895.15559,0.51837
4893.22684,0.51716
4891.29810,0.51572
4889.36935,0.51451
4887.44061,0.51330
4885.51186,0.51212
4883.58312,0.51167
4881.65437,0.51143
4879.72563,0.51054
4877.79688,0.50930
4875.86814,0.50822
4873.93939,0.50719
4872.01065,0.50577
4870.08190,0.50403
4868.15316,0.50282
4866.22441,0.50234
4864.29566,0.50182
4862.36692,0.50090
4860.43817,0.49968
4858.50943,0.49840
4856.58068,0.49755
4854.65194,0.49692
4852.72319,0.49574
4850.79445,0.49429
4848.86570,0.49344
4846.93696,0.49318
4845.00821,0.49284
4843.07947,0.49199
4841.15072,0.49069
4839.22198,0.48939
4837.29323,0.48840
4835.36449,0.48749
4833.43574,0.48605
4831.50699,0.48425
4829.57825,0.48316
4827.64950,0.48285
4825.72076,0.48244
4823.79201,0.48187
4821.86327,0.48140
4819.93452,0.48096
4818.00578,0.48082
4816.07703,0.48076
4814.14829,0.47987
4812.21954,0.47838
4810.29080,0.47732
4808.36205,0.47653
4806.43331,0.47548
4804.50456,0.47466
4802.57582,0.47459
4800.64707,0.47457
4798.71832,0.47386
4796.78958,0.47294
4794.86083,0.47238
4792.93209,0.47188
4791.00334,0.47114
4789.07460,0.47036
4787.14585,0.47010
4785.21711,0.47047
4783.28836,0.47106
4781.35962,0.47116
4779.43087,0.47033
4777.50213,0.46919
4775.57338,0.46829
4773.64464,0.46771
4771.71589,0.46784
4769.78714,0.46825
4767.85840,0.46797
4765.92965,0.46743
4764.00091,0.46739
4762.07216,0.46753
4760.14342,0.46718
4758.21467,0.46651
4756.28593,0.46614
4754.35718,0.46602
4752.42844,0.46563
4750.49969,0.46501
4748.57095,0.46477
4746.64220,0.46478
4744.71346,0.46443
4742.78471,0.46414
4740.85597,0.46468
4738.92722,0.46576
4736.99847,0.46640
4735.06973,0.46632
4733.14098,0.46647
4731.21224,0.46717
4729.28349,0.46735
4727.35475,0.46687
4725.42600,0.46670
4723.49726,0.46698
4721.56851,0.46723
4719.63977,0.46750
4717.71102,0.46781
4715.78228,0.46791
4713.85353,0.46815
4711.92479,0.46872
4709.99604,0.46905
4708.06729,0.46921
4706.13855,0.46974
4704.20980,0.47024
4702.28106,0.47052
4700.35231,0.47114
4698.42357,0.47199
4696.49482,0.47260
4694.56608,0.47313
4692.63733,0.47365
4690.70859,0.47386
4688.77984,0.47398
4686.85110,0.47444
4684.92235,0.47519
4682.99361,0.47590
4681.06486,0.47621
4679.13612,0.47612
4677.20737,0.47602
4675.27862,0.47606
4673.34988,0.47639
4671.42113,0.47730
4669.49239,0.47835
4667.56364,0.47891
4665.63490,0.47913
4663.70615,0.47933
4661.77741,0.47972
4659.84866,0.48051
4657.91992,0.48134
4655.99117,0.48152
4654.06243,0.48115
4652.13368,0.48078
4650.20494,0.48083
4648.27619,0.48155
4646.34745,0.48269
4644.41870,0.48353
4642.48995,0.48382
4640.56121,0.48388
4638.63246,0.48397
4636.70372,0.48414
4634.77497,0.48441
4632.84623,0.48476
4630.91748,0.48523
4628.98874,0.48602
4627.05999,0.48697
4625.13125,0.48768
4623.20250,0.48818
4621.27376,0.48878
4619.34501,0.48963
4617.41627,0.49051
4615.48752,0.49094
4613.55877,0.49107
4611.63003,0.49134
4609.70128,0.49162
4607.77254,0.49199
4605.84379,0.49292
4603.91505,0.49399
4601.98630,0.49455
4600.05756,0.49486
4598.12881,0.49515
4596.20007,0.49520
4594.27132,0.49533
4592.34258,0.49590
4590.41383,0.49674
4588.48509,0.49781
4586.55634,0.49873
4584.62760,0.49888
4582.69885,0.49878
4580.77010,0.49916
4578.84136,0.49975
4576.91261,0.50041
4574.98387,0.50104
4573.05512,0.50125
4571.12638,0.50111
4569.19763,0.50116
4567.26889,0.50146
4565.34014,0.50174
4563.41140,0.50205
4561.48265,0.50244
4559.55391,0.50291
4557.62516,0.50349
4555.69642,0.50386
4553.76767,0.50398
4551.83893,0.50421
4549.91018,0.50451
4547.98143,0.50474
4546.05269,0.50500
4544.12394,0.50538
4542.19520,0.50592
4540.26645,0.50614
4538.33771,0.50568
4536.40896,0.50505
4534.48022,0.50480
4532.55147,0.50482
4530.62273,0.50456
4528.69398,0.50382
4526.76524,0.50351
4524.83649,0.50413
4522.90775,0.50508
4520.97900,0.50606
4519.05025,0.50718
4517.12151,0.50831
4515.19276,0.50919
4513.26402,0.50972
4511.33527,0.51012
4509.40653,0.51034
4507.47778,0.51039
4505.54904,0.51039
4503.62029,0.51020
4501.69155,0.51031
4499.76280,0.51100
4497.83406,0.51116
4495.90531,0.51045
4493.97657,0.50985
4492.04782,0.50966
4490.11908,0.50944
4488.19033,0.50926
4486.26158,0.50928
4484.33284,0.50916
4482.40409,0.50883
4480.47535,0.50827
4478.54660,0.50751
4476.61786,0.50688
4474.68911,0.50624
4472.76037,0.50528
4470.83162,0.50434
4468.90288,0.50369
4466.97413,0.50306
4465.04539,0.50226
4463.11664,0.50136
4461.18790,0.50016
4459.25915,0.49873
4457.33041,0.49752
4455.40166,0.49654
4453.47291,0.49549
4451.54417,0.49444
4449.61542,0.49357
4447.68668,0.49258
4445.75793,0.49115
4443.82919,0.48945
4441.90044,0.48767
4439.97170,0.48595
4438.04295,0.48442
4436.11421,0.48309
4434.18546,0.48197
4432.25672,0.48075
4430.32797,0.47907
4428.39923,0.47727
4426.47048,0.47570
4424.54173,0.47396
4422.61299,0.47209
4420.68424,0.47049
4418.75550,0.46878
4416.82675,0.46658
4414.89801,0.46444
4412.96926,0.46287
4411.04052,0.46172
4409.11177,0.46073
4407.18303,0.45970
4405.25428,0.45870
4403.32554,0.45787
4401.39679,0.45698
4399.46805,0.45612
4397.53930,0.45565
4395.61056,0.45535
4393.68181,0.45498
4391.75306,0.45489
4389.82432,0.45511
4387.89557,0.45541
4385.96683,0.45593
4384.03808,0.45673
4382.10934,0.45727
4380.18059,0.45723
4378.25185,0.45722
4376.32310,0.45768
4374.39436,0.45834
4372.46561,0.45894
4370.53687,0.45941
4368.60812,0.45957
4366.67938,0.45937
4364.75063,0.45910
4362.82189,0.45921
4360.89314,0.45951
4358.96439,0.45970
4357.03565,0.45974
4355.10690,0.45940
4353.17816,0.45862
4351.24941,0.45784
4349.32067,0.45709
4347.39192,0.45602
4345.46318,0.45508
4343.53443,0.45469
4341.60569,0.45436
4339.67694,0.45379
4337.74820,0.45318
4335.81945,0.45241
4333.89071,0.45137
4331.96196,0.45034
4330.03321,0.44935
4328.10447,0.44804
4326.17572,0.44642
4324.24698,0.44471
4322.31823,0.44329
4320.38949,0.44264
4318.46074,0.44277
4316.53200,0.44330
4314.60325,0.44374
4312.67451,0.44372
4310.74576,0.44321
4308.81702,0.44243
4306.88827,0.44171
4304.95953,0.44134
4303.03078,0.44110
4301.10204,0.44053
4299.17329,0.43964
4297.24454,0.43897
4295.31580,0.43871
4293.38705,0.43854
4291.45831,0.43829
4289.52956,0.43773
4287.60082,0.43695
4285.67207,0.43651
4283.74333,0.43635
4281.81458,0.43592
4279.88584,0.43532
4277.95709,0.43507
4276.02835,0.43513
4274.09960,0.43513
4272.17086,0.43514
4270.24211,0.43525
4268.31336,0.43546
4266.38462,0.43579
4264.45587,0.43622
4262.52713,0.43657
4260.59838,0.43662
4258.66964,0.43644
4256.74089,0.43611
4254.81215,0.43569
4252.88340,0.43548
4250.95466,0.43563
4249.02591,0.43591
4247.09717,0.43621
4245.16842,0.43672
4243.23968,0.43740
4241.31093,0.43810
4239.38219,0.43897
4237.45344,0.43971
4235.52469,0.43978
4233.59595,0.43959
4231.66720,0.43970
4229.73846,0.43995
4227.80971,0.44022
4225.88097,0.44046
4223.95222,0.44055
4222.02348,0.44066
4220.09473,0.44114
4218.16599,0.44166
4216.23724,0.44159
4214.30850,0.44116
4212.37975,0.44112
4210.45101,0.44142
4208.52226,0.44155
4206.59352,0.44166
4204.66477,0.44203
4202.73602,0.44257
4200.80728,0.44290
4198.87853,0.44282
4196.94979,0.44273
4195.02104,0.44287
4193.09230,0.44310
4191.16355,0.44339
4189.23481,0.44350
4187.30606,0.44314
4185.37732,0.44277
4183.44857,0.44287
4181.51983,0.44308
4179.59108,0.44298
4177.66234,0.44270
4175.73359,0.44253
4173.80484,0.44271
4171.87610,0.44314
4169.94735,0.44342
4168.01861,0.44358
4166.08986,0.44381
4164.16112,0.44395
4162.23237,0.44393
4160.30363,0.44390
4158.37488,0.44381
4156.44614,0.44356
4154.51739,0.44308
4152.58865,0.44247
4150.65990,0.44207
4148.73116,0.44183
4146.80241,0.44113
4144.87367,0.43992
4142.94492,0.43875
4141.01617,0.43789
4139.08743,0.43734
4137.15868,0.43702
4135.22994,0.43670
4133.30119,0.43643
4131.37245,0.43594
4129.44370,0.43473
4127.51496,0.43314
4125.58621,0.43184
4123.65747,0.43091
4121.72872,0.43008
4119.79998,0.42917
4117.87123,0.42795
4115.94249,0.42631
4114.01374,0.42474
4112.08500,0.42358
4110.15625,0.42259
4108.22750,0.42149
4106.29876,0.42010
4104.37001,0.41837
4102.44127,0.41658
4100.51252,0.41483
4098.58378,0.41297
4096.65503,0.41116
4094.72629,0.40961
4092.79754,0.40803
4090.86880,0.40616
4088.94005,0.40448
4087.01131,0.40323
4085.08256,0.40197
4083.15382,0.40029
4081.22507,0.39832
4079.29632,0.39644
4077.36758,0.39463
4075.43883,0.39289
4073.51009,0.39149
4071.58134,0.39007
4069.65260,0.38823
4067.72385,0.38631
4065.79511,0.38456
4063.86636,0.38280
4061.93762,0.38100
4060.00887,0.37935
4058.08013,0.37781
4056.15138,0.37620
4054.22264,0.37450
4052.29389,0.37263
4050.36515,0.37053
4048.43640,0.36846
4046.50765,0.36656
4044.57891,0.36479
4042.65016,0.36325
4040.72142,0.36203
4038.79267,0.36086
4036.86393,0.35955
4034.93518,0.35830
4033.00644,0.35716
4031.07769,0.35596
4029.14895,0.35488
4027.22020,0.35410
4025.29146,0.35352
4023.36271,0.35302
4021.43397,0.35261
4019.50522,0.35245
4017.57648,0.35256
4015.64773,0.35276
4013.71898,0.35312
4011.79024,0.35364
4009.86149,0.35380
4007.93275,0.35363
4006.00400,0.35395
4004.07526,0.35472
4002.14651,0.35540
4000.21777,0.35620
3998.28902,0.35714
3996.36028,0.35774
3994.43153,0.35813
3992.50279,0.35868
3990.57404,0.35934
3988.64530,0.36008
3986.71655,0.36082
3984.78780,0.36138
3982.85906,0.36178
3980.93031,0.36218
3979.00157,0.36273
3977.07282,0.36341
3975.14408,0.36413
3973.21533,0.36481
3971.28659,0.36532
3969.35784,0.36577
3967.42910,0.36635
3965.50035,0.36706
3963.57161,0.36783
3961.64286,0.36860
3959.71412,0.36931
3957.78537,0.36991
3955.85663,0.37037
3953.92788,0.37103
3951.99913,0.37207
3950.07039,0.37313
3948.14164,0.37393
3946.21290,0.37453
3944.28415,0.37515
3942.35541,0.37608
3940.42666,0.37716
3938.49792,0.37809
3936.56917,0.37879
3934.64043,0.37941
3932.71168,0.38033
3930.78294,0.38159
3928.85419,0.38270
3926.92545,0.38363
3924.99670,0.38456
3923.06795,0.38532
3921.13921,0.38592
3919.21046,0.38674
3917.28172,0.38788
3915.35297,0.38907
3913.42423,0.39003
3911.49548,0.39076
3909.56674,0.39127
3907.63799,0.39168
3905.70925,0.39218
3903.78050,0.39263
3901.85176,0.39312
3899.92301,0.39395
3897.99427,0.39502
3896.06552,0.39597
3894.13678,0.39656
3892.20803,0.39696
3890.27928,0.39752
3888.35054,0.39821
3886.42179,0.39898
3884.49305,0.39968
3882.56430,0.40002
3880.63556,0.40029
3878.70681,0.40076
3876.77807,0.40143
3874.84932,0.40232
3872.92058,0.40309
3870.99183,0.40356
3869.06309,0.40425
3867.13434,0.40526
3865.20560,0.40632
3863.27685,0.40723
3861.34811,0.40791
3859.41936,0.40856
3857.49061,0.40930
3855.56187,0.41009
3853.63312,0.41108
3851.70438,0.41207
3849.77563,0.41267
3847.84689,0.41302
3845.91814,0.41337
3843.98940,0.41376
3842.06065,0.41414
3840.13191,0.41464
3838.20316,0.41544
3836.27442,0.41612
3834.34567,0.41607
3832.41693,0.41576
3830.48818,0.41581
3828.55943,0.41609
3826.63069,0.41626
3824.70194,0.41613
3822.77320,0.41571
3820.84445,0.41542
3818.91571,0.41550
3816.98696,0.41560
3815.05822,0.41567
3813.12947,0.41577
3811.20073,0.41554
3809.27198,0.41471
3807.34324,0.41406
3805.41449,0.41417
3803.48575,0.41424
3801.55700,0.41379
3799.62826,0.41342
3797.69951,0.41344
3795.77076,0.41344
3793.84202,0.41311
3791.91327,0.41264
3789.98453,0.41220
3788.05578,0.41177
3786.12704,0.41132
3784.19829,0.41091
3782.26955,0.41053
3780.34080,0.41008
3778.41206,0.40945
3776.48331,0.40858
3774.55457,0.40766
3772.62582,0.40699
3770.69708,0.40661
3768.76833,0.40606
3766.83959,0.40503
3764.91084,0.40376
3762.98209,0.40273
3761.05335,0.40207
3759.12460,0.40154
3757.19586,0.40072
3755.26711,0.39939
3753.33837,0.39774
3751.40962,0.39601
3749.48088,0.39433
3747.55213,0.39282
3745.62339,0.39117
3743.69464,0.38922
3741.76590,0.38729
3739.83715,0.38542
3737.90841,0.38328
3735.97966,0.38082
3734.05091,0.37837
3732.12217,0.37580
3730.19342,0.37271
3728.26468,0.36903
3726.33593,0.36506
3724.40719,0.36096
3722.47844,0.35604
3720.54970,0.34994
3718.62095,0.34306
3716.69221,0.33565
3714.76346,0.32751
3712.83472,0.31781
3710.90597,0.30636
3708.97723,0.29414
3707.04848,0.28122
3705.11974,0.26725
3703.19099,0.25155
3701.26224,0.23451
3699.33350,0.21918
3697.40475,0.20829
3695.47601,0.20282
3693.54726,0.20279
3691.61852,0.20705
3689.68977,0.21416
3687.76103,0.22185
3685.83228,0.22754
3683.90354,0.23131
3681.97479,0.23346
3680.04605,0.23341
3678.11730,0.23093
3676.18856,0.22575
3674.25981,0.21895
3672.33107,0.21250
3670.40232,0.20619
3668.47357,0.20065
3666.54483,0.19700
3664.61608,0.19396
3662.68734,0.18988
3660.75859,0.18434
3658.82985,0.17784
3656.90110,0.17071
3654.97236,0.16395
3653.04361,0.15912
3651.11487,0.15591
3649.18612,0.15306
3647.25738,0.15005
3645.32863,0.14708
3643.39989,0.14401
3641.47114,0.14079
3639.54239,0.13756
3637.61365,0.13394
3635.68490,0.12988
3633.75616,0.12593
3631.82741,0.12213
3629.89867,0.11762
3627.96992,0.11222
3626.04118,0.10713
3624.11243,0.10220
3622.18369,0.09750
3620.25494,0.09453
3618.32620,0.09439
3616.39745,0.09569
3614.46871,0.09616
3612.53996,0.09547
3610.61122,0.09449
3608.68247,0.09341
3606.75372,0.09198
3604.82498,0.09058
3602.89623,0.08958
3600.96749,0.08867
3599.03874,0.08757
3597.11000,0.08632
3595.18125,0.08487
3593.25251,0.08353
3591.32376,0.08271
3589.39502,0.08211
3587.46627,0.08109
3585.53753,0.07962
3583.60878,0.07817
3581.68004,0.07693
3579.75129,0.07570
3577.82254,0.07436
3575.89380,0.07300
3573.96505,0.07156
3572.03631,0.07030
3570.10756,0.06945
3568.17882,0.06843
3566.25007,0.06691
3564.32133,0.06559
3562.39258,0.06468
3560.46384,0.06384
3558.53509,0.06298
3556.60635,0.06222
3554.67760,0.06150
3552.74886,0.06080
3550.82011,0.06026
3548.89137,0.05992
3546.96262,0.05950
3545.03387,0.05881
3543.10513,0.05815
3541.17638,0.05770
3539.24764,0.05732
3537.31889,0.05704
3535.39015,0.05676
3533.46140,0.05615
3531.53266,0.05527
3529.60391,0.05458
3527.67517,0.05423
3525.74642,0.05402
3523.81768,0.05380
3521.88893,0.05342
3519.96019,0.05268
3518.03144,0.05174
3516.10270,0.05132
3514.17395,0.05150
3512.24520,0.05133
3510.31646,0.05051
3508.38771,0.04965
3506.45897,0.04918
3504.53022,0.04915
3502.60148,0.04910
3500.67273,0.04867
3498.74399,0.04823
3496.81524,0.04804
3494.88650,0.04784
3492.95775,0.04736
3491.02901,0.04676
3489.10026,0.04636
3487.17152,0.04626
3485.24277,0.04628
3483.31402,0.04611
3481.38528,0.04543
3479.45653,0.04467
3477.52779,0.04457
3475.59904,0.04501
3473.67030,0.04520
3471.74155,0.04479
3469.81281,0.04420
3467.88406,0.04379
3465.95532,0.04352
3464.02657,0.04329
3462.09783,0.04312
3460.16908,0.04290
3458.24034,0.04293
3456.31159,0.04326
3454.38285,0.04305
3452.45410,0.04235
3450.52535,0.04205
3448.59661,0.04208
3446.66786,0.04217
3444.73912,0.04230
3442.81037,0.04226
3440.88163,0.04219
3438.95288,0.04226
3437.02414,0.04210
3435.09539,0.04170
3433.16665,0.04151
3431.23790,0.04159
3429.30916,0.04157
3427.38041,0.04141
3425.45167,0.04139
3423.52292,0.04145
3421.59418,0.04140
3419.66543,0.04138
3417.73668,0.04148
3415.80794,0.04161
3413.87919,0.04169
3411.95045,0.04150
3410.02170,0.04116
3408.09296,0.04099
3406.16421,0.04095
3404.23547,0.04108
3402.30672,0.04131
3400.37798,0.04149
3398.44923,0.04167
3396.52049,0.04173
3394.59174,0.04172
3392.66300,0.04182
3390.73425,0.04186
3388.80550,0.04173
3386.87676,0.04166
3384.94801,0.04177
3383.01927,0.04180
3381.09052,0.04174
3379.16178,0.04166
3377.23303,0.04149
3375.30429,0.04141
3373.37554,0.04163
3371.44680,0.04184
3369.51805,0.04179
3367.58931,0.04175
3365.66056,0.04190
3363.73182,0.04211
3361.80307,0.04214
3359.87433,0.04199
3357.94558,0.04214
3356.01683,0.04275
3354.08809,0.04310
3352.15934,0.04279
3350.23060,0.04235
3348.30185,0.04234
3346.37311,0.04279
3344.44436,0.04339
3342.51562,0.04384
3340.58687,0.04413
3338.65813,0.04432
3336.72938,0.04449
3334.80064,0.04473
3332.87189,0.04496
3330.94315,0.04499
3329.01440,0.04499
3327.08566,0.04549
3325.15691,0.04640
3323.22816,0.04705
3321.29942,0.04702
3319.37067,0.04667
3317.44193,0.04660
3315.51318,0.04675
3313.58444,0.04693
3311.65569,0.04718
3309.72695,0.04731
3307.79820,0.04727
3305.86946,0.04752
3303.94071,0.04800
3302.01197,0.04815
3300.08322,0.04803
3298.15448,0.04807
3296.22573,0.04832
3294.29698,0.04844
3292.36824,0.04834
3290.43949,0.04837
3288.51075,0.04865
3286.58200,0.04913
3284.65326,0.04966
3282.72451,0.04986
3280.79577,0.04976
3278.86702,0.04988
3276.93828,0.05037
3275.00953,0.05088
3273.08079,0.05121
3271.15204,0.05151
3269.22330,0.05201
3267.29455,0.05272
3265.36581,0.05331
3263.43706,0.05353
3261.50831,0.05359
3259.57957,0.05369
3257.65082,0.05384
3255.72208,0.05389
3253.79333,0.05392
3251.86459,0.05417
3249.93584,0.05464
3248.00710,0.05537
3246.07835,0.05630
3244.14961,0.05701
3242.22086,0.05737
3240.29212,0.05758
3238.36337,0.05768
3236.43463,0.05771
3234.50588,0.05789
3232.57713,0.05829
3230.64839,0.05860
3228.71964,0.05869
3226.79090,0.05881
3224.86215,0.05912
3222.93341,0.05962
3221.00466,0.06023
3219.07592,0.06082
3217.14717,0.06134
3215.21843,0.06182
3213.28968,0.06235
3211.36094,0.06278
3209.43219,0.06281
3207.50345,0.06278
3205.57470,0.06334
3203.64596,0.06429
3201.71721,0.06490
3199.78846,0.06516
3197.85972,0.06572
3195.93097,0.06653
3194.00223,0.06695
3192.07348,0.06692
3190.14474,0.06693
3188.21599,0.06736
3186.28725,0.06820
3184.35850,0.06898
3182.42976,0.06932
3180.50101,0.06946
3178.57227,0.06979
3176.64352,0.07035
3174.71478,0.07109
3172.78603,0.07190
3170.85729,0.07253
3168.92854,0.07290
3166.99979,0.07304
3165.07105,0.07310
3163.14230,0.07334
3161.21356,0.07372
3159.28481,0.07422
3157.35607,0.07491
3155.42732,0.07568
3153.49858,0.07633
3151.56983,0.07688
3149.64109,0.07752
3147.71234,0.07822
3145.78360,0.07876
3143.85485,0.07925
3141.92611,0.07977
3139.99736,0.08020
3138.06861,0.08061
3136.13987,0.08117
3134.21112,0.08184
3132.28238,0.08256
3130.35363,0.08335
3128.42489,0.08410
3126.49614,0.08474
3124.56740,0.08537
3122.63865,0.08616
3120.70991,0.08676
3118.78116,0.08676
3116.85242,0.08661
3114.92367,0.08701
3112.99493,0.08786
3111.06618,0.08870
3109.13744,0.08938
3107.20869,0.09010
3105.27994,0.09094
3103.35120,0.09165
3101.42245,0.09211
3099.49371,0.09262
3097.56496,0.09322
3095.63622,0.09380
3093.70747,0.09447
3091.77873,0.09519
3089.84998,0.09593
3087.92124,0.09678
3085.99249,0.09761
3084.06375,0.09797
3082.13500,0.09793
3080.20626,0.09818
3078.27751,0.09902
3076.34877,0.09998
3074.42002,0.10069
3072.49127,0.10126
3070.56253,0.10190
3068.63378,0.10263
3066.70504,0.10326
3064.77629,0.10370
3062.84755,0.10418
3060.91880,0.10488
3058.99006,0.10560
3057.06131,0.10610
3055.13257,0.10663
3053.20382,0.10748
3051.27508,0.10845
3049.34633,0.10926
3047.41759,0.10989
3045.48884,0.11037
3043.56009,0.11074
3041.63135,0.11103
3039.70260,0.11136
3037.77386,0.11195
3035.84511,0.11273
3033.91637,0.11332
3031.98762,0.11353
3030.05888,0.11368
3028.13013,0.11403
3026.20139,0.11451
3024.27264,0.11486
3022.34390,0.11495
3020.41515,0.11501
3018.48641,0.11521
3016.55766,0.11548
3014.62892,0.11577
3012.70017,0.11605
3010.77142,0.11616
3008.84268,0.11602
3006.91393,0.11576
3004.98519,0.11548
3003.05644,0.11519
3001.12770,0.11491
2999.19895,0.11463
2997.27021,0.11434
2995.34146,0.11390
2993.41272,0.11299
2991.48397,0.11169
2989.55523,0.11043
2987.62648,0.10929
2985.69774,0.10805
2983.76899,0.10667
2981.84025,0.10528
2979.91150,0.10371
2977.98275,0.10164
2976.05401,0.09903
2974.12526,0.09627
2972.19652,0.09370
2970.26777,0.09145
2968.33903,0.08963
2966.41028,0.08843
2964.48154,0.08784
2962.55279,0.08738
2960.62405,0.08654
2958.69530,0.08547
2956.76656,0.08430
2954.83781,0.08291
2952.90907,0.08146
2950.98032,0.08014
2949.05157,0.07892
2947.12283,0.07787
2945.19408,0.07696
2943.26534,0.07599
2941.33659,0.07509
2939.40785,0.07439
2937.47910,0.07376
2935.55036,0.07302
2933.62161,0.07224
2931.69287,0.07148
2929.76412,0.07073
2927.83538,0.07001
2925.90663,0.06922
2923.97789,0.06831
2922.04914,0.06736
2920.12040,0.06640
2918.19165,0.06574
2916.26290,0.06597
2914.33416,0.06687
2912.40541,0.06767
2910.47667,0.06829
2908.54792,0.06898
2906.61918,0.06960
2904.69043,0.06990
2902.76169,0.07018
2900.83294,0.07075
2898.90420,0.07144
2896.97545,0.07206
2895.04671,0.07275
2893.11796,0.07362
2891.18922,0.07458
2889.26047,0.07536
2887.33172,0.07588
2885.40298,0.07636
2883.47423,0.07699
2881.54549,0.07776
2879.61674,0.07852
2877.68800,0.07912
2875.75925,0.07956
2873.83051,0.07991
2871.90176,0.08034
2869.97302,0.08100
2868.04427,0.08176
2866.11553,0.08252
2864.18678,0.08320
2862.25804,0.08357
2860.32929,0.08369
2858.40055,0.08381
2856.47180,0.08388
2854.54305,0.08366
2852.61431,0.08305
2850.68556,0.08274
2848.75682,0.08410
2846.82807,0.08744
2844.89933,0.09146
2842.97058,0.09511
2841.04184,0.09838
2839.11309,0.10124
2837.18435,0.10354
2835.25560,0.10552
2833.32686,0.10751
2831.39811,0.10959
2829.46937,0.11160
2827.54062,0.11340
2825.61188,0.11508
2823.68313,0.11678
2821.75438,0.11836
2819.82564,0.11979
2817.89689,0.12133
2815.96815,0.12304
2814.03940,0.12468
2812.11066,0.12619
2810.18191,0.12755
2808.25317,0.12857
2806.32442,0.12941
2804.39568,0.13034
2802.46693,0.13142
2800.53819,0.13260
2798.60944,0.13385
2796.68070,0.13496
2794.75195,0.13578
2792.82320,0.13647
2790.89446,0.13736
2788.96571,0.13823
2787.03697,0.13865
2785.10822,0.13882
2783.17948,0.13927
2781.25073,0.13987
2779.32199,0.14039
2777.39324,0.14089
2775.46450,0.14127
2773.53575,0.14142
2771.60701,0.14158
2769.67826,0.14186
2767.74952,0.14222
2765.82077,0.14266
2763.89203,0.14304
2761.96328,0.14327
2760.03453,0.14361
2758.10579,0.14411
2756.17704,0.14446
2754.24830,0.14460
2752.31955,0.14471
2750.39081,0.14483
2748.46206,0.14502
2746.53332,0.14531
2744.60457,0.14551
2742.67583,0.14565
2740.74708,0.14590
2738.81834,0.14620
2736.88959,0.14650
2734.96085,0.14697
2733.03210,0.14755
2731.10336,0.14800
2729.17461,0.14834
2727.24586,0.14868
2725.31712,0.14908
2723.38837,0.14967
2721.45963,0.15028
2719.53088,0.15072
2717.60214,0.15114
2715.67339,0.15169
2713.74465,0.15241
2711.81590,0.15322
2709.88716,0.15392
2707.95841,0.15462
2706.02967,0.15556
2704.10092,0.15668
2702.17218,0.15773
2700.24343,0.15848
2698.31468,0.15897
2696.38594,0.15959
2694.45719,0.16059
2692.52845,0.16171
2690.59970,0.16258
2688.67096,0.16322
2686.74221,0.16384
2684.81347,0.16458
2682.88472,0.16545
2680.95598,0.16613
2679.02723,0.16655
2677.09849,0.16709
2675.16974,0.16787
2673.24100,0.16860
2671.31225,0.16914
2669.38351,0.16957
2667.45476,0.16998
2665.52601,0.17047
2663.59727,0.17099
2661.66852,0.17155
2659.73978,0.17217
2657.81103,0.17268
2655.88229,0.17319
2653.95354,0.17389
2652.02480,0.17462
2650.09605,0.17522
2648.16731,0.17576
2646.23856,0.17638
2644.30982,0.17711
2642.38107,0.17784
2640.45233,0.17849
2638.52358,0.17908
2636.59484,0.17968
2634.66609,0.18038
2632.73734,0.18101
2630.80860,0.18146
2628.87985,0.18198
2626.95111,0.18271
2625.02236,0.18334
2623.09362,0.18382
2621.16487,0.18446
2619.23613,0.18524
2617.30738,0.18576
2615.37864,0.18607
2613.44989,0.18654
2611.52115,0.18715
2609.59240,0.18768
2607.66366,0.18804
2605.73491,0.18831
2603.80616,0.18872
2601.87742,0.18930
2599.94867,0.18994
2598.01993,0.19056
2596.09118,0.19114
2594.16244,0.19160
2592.23369,0.19192
2590.30495,0.19220
2588.37620,0.19254
2586.44746,0.19292
2584.51871,0.19329
2582.58997,0.19365
2580.66122,0.19393
2578.73248,0.19413
2576.80373,0.19432
2574.87499,0.19457
2572.94624,0.19495
2571.01749,0.19551
2569.08875,0.19599
2567.16000,0.19605
2565.23126,0.19584
2563.30251,0.19566
2561.37377,0.19553
2559.44502,0.19554
2557.51628,0.19566
2555.58753,0.19579
2553.65879,0.19591
2551.73004,0.19594
2549.80130,0.19577
2547.87255,0.19563
2545.94381,0.19576
2544.01506,0.19592
2542.08631,0.19592
2540.15757,0.19589
2538.22882,0.19585
2536.30008,0.19573
2534.37133,0.19555
2532.44259,0.19536
2530.51384,0.19514
2528.58510,0.19485
2526.65635,0.19463
2524.72761,0.19465
2522.79886,0.19470
2520.87012,0.19451
2518.94137,0.19440
2517.01263,0.19470
2515.08388,0.19517
2513.15514,0.19562
2511.22639,0.19619
2509.29764,0.19710
2507.36890,0.19843
2505.44015,0.20008
2503.51141,0.20204
2501.58266,0.20409
2499.65392,0.20588
2497.72517,0.20753
2495.79643,0.20927
2493.86768,0.21093
2491.93894,0.21241
2490.01019,0.21386
2488.08145,0.21526
2486.15270,0.21649
2484.22396,0.21767
2482.29521,0.21897
2480.36647,0.22029
2478.43772,0.22148
2476.50897,0.22259
2474.58023,0.22375
2472.65148,0.22491
2470.72274,0.22599
2468.79399,0.22703
2466.86525,0.22805
2464.93650,0.22895
2463.00776,0.22975
2461.07901,0.23048
2459.15027,0.23121
2457.22152,0.23197
2455.29278,0.23267
2453.36403,0.23356
2451.43529,0.23482
2449.50654,0.23607
2447.57779,0.23700
2445.64905,0.23780
2443.72030,0.23868
2441.79156,0.23966
2439.86281,0.24073
2437.93407,0.24183
2436.00532,0.24279
2434.07658,0.24367
2432.14783,0.24457
2430.21909,0.24559
2428.29034,0.24670
2426.36160,0.24774
2424.43285,0.24878
2422.50411,0.24983
2420.57536,0.25080
2418.64662,0.25174
2416.71787,0.25269
2414.78912,0.25357
2412.86038,0.25450
2410.93163,0.25557
2409.00289,0.25660
2407.07414,0.25756
2405.14540,0.25861
2403.21665,0.25973
2401.28791,0.26069
2399.35916,0.26142
2397.43042,0.26200
2395.50167,0.26258
2393.57293,0.26319
2391.64418,0.26376
2389.71544,0.26443
2387.78669,0.26537
2385.85795,0.26636
2383.92920,0.26713
2382.00045,0.26780
2380.07171,0.26858
2378.14296,0.26944
2376.21422,0.27023
2374.28547,0.27101
2372.35673,0.27188
2370.42798,0.27268
2368.49924,0.27323
2366.57049,0.27371
2364.64175,0.27427
2362.71300,0.27480
2360.78426,0.27528
2358.85551,0.27573
2356.92677,0.27621
2354.99802,0.27684
2353.06927,0.27741
2351.14053,0.27773
2349.21178,0.27802
2347.28304,0.27852
2345.35429,0.27913
2343.42555,0.27966
2341.49680,0.28012
2339.56806,0.28059
2337.63931,0.28105
2335.71057,0.28156
2333.78182,0.28216
2331.85308,0.28271
2329.92433,0.28309
2327.99559,0.28336
2326.06684,0.28359
2324.13810,0.28389
2322.20935,0.28432
2320.28060,0.28480
2318.35186,0.28524
2316.42311,0.28565
2314.49437,0.28606
2312.56562,0.28646
2310.63688,0.28673
2308.70813,0.28674
2306.77939,0.28649
2304.85064,0.28623
2302.92190,0.28622
2300.99315,0.28628
2299.06441,0.28622
2297.13566,0.28618
2295.20692,0.28613
2293.27817,0.28599
2291.34943,0.28583
2289.42068,0.28562
2287.49193,0.28546
2285.56319,0.28543
2283.63444,0.28536
2281.70570,0.28519
2279.77695,0.28512
2277.84821,0.28513
2275.91946,0.28499
2273.99072,0.28466
2272.06197,0.28419
2270.13323,0.28358
2268.20448,0.28296
2266.27574,0.28242
2264.34699,0.28196
2262.41825,0.28143
2260.48950,0.28075
2258.56075,0.27991
2256.63201,0.27907
2254.70326,0.27844
2252.77452,0.27809
2250.84577,0.27792
2248.91703,0.27767
2246.98828,0.27725
2245.05954,0.27684
2243.13079,0.27639
2241.20205,0.27590
2239.27330,0.27552
2237.34456,0.27526
2235.41581,0.27509
2233.48707,0.27494
2231.55832,0.27476
2229.62958,0.27452
2227.70083,0.27433
2225.77208,0.27437
2223.84334,0.27463
2221.91459,0.27488
2219.98585,0.27500
2218.05710,0.27509
2216.12836,0.27515
2214.19961,0.27522
2212.27087,0.27543
2210.34212,0.27571
2208.41338,0.27579
2206.48463,0.27563
2204.55589,0.27535
2202.62714,0.27507
2200.69840,0.27479
2198.76965,0.27448
2196.84090,0.27417
2194.91216,0.27386
2192.98341,0.27342
2191.05467,0.27275
2189.12592,0.27195
2187.19718,0.27113
2185.26843,0.27025
2183.33969,0.26920
2181.41094,0.26799
2179.48220,0.26672
2177.55345,0.26548
2175.62471,0.26420
2173.69596,0.26279
2171.76722,0.26130
2169.83847,0.25993
2167.90973,0.25885
2165.98098,0.25785
2164.05223,0.25667
2162.12349,0.25539
2160.19474,0.25426
2158.26600,0.25339
2156.33725,0.25268
2154.40851,0.25194
2152.47976,0.25110
2150.55102,0.25029
2148.62227,0.24954
2146.69353,0.24877
2144.76478,0.24806
2142.83604,0.24751
2140.90729,0.24697
2138.97855,0.24639
2137.04980,0.24599
2135.12106,0.24594
2133.19231,0.24620
2131.26356,0.24660
2129.33482,0.24713
2127.40607,0.24788
2125.47733,0.24876
2123.54858,0.24961
2121.61984,0.25055
2119.69109,0.25158
2117.76235,0.25243
2115.83360,0.25310
2113.90486,0.25389
2111.97611,0.25476
2110.04737,0.25551
2108.11862,0.25610
2106.18988,0.25660
2104.26113,0.25706
2102.33238,0.25749
2100.40364,0.25797
2098.47489,0.25852
2096.54615,0.25908
2094.61740,0.25955
2092.68866,0.25999
2090.75991,0.26051
2088.83117,0.26100
2086.90242,0.26144
2084.97368,0.26191
2083.04493,0.26230
2081.11619,0.26252
2079.18744,0.26266
2077.25870,0.26281
2075.32995,0.26289
2073.40121,0.26281
2071.47246,0.26253
2069.54371,0.26213
2067.61497,0.26184
2065.68622,0.26177
2063.75748,0.26180
2061.82873,0.26182
2059.89999,0.26192
2057.97124,0.26224
2056.04250,0.26254
2054.11375,0.26255
2052.18501,0.26253
2050.25626,0.26272
2048.32752,0.26289
2046.39877,0.26299
2044.47003,0.26330
2042.54128,0.26391
2040.61254,0.26460
2038.68379,0.26527
2036.75504,0.26604
2034.82630,0.26700
2032.89755,0.26807
2030.96881,0.26913
2029.04006,0.27014
2027.11132,0.27122
2025.18257,0.27239
2023.25383,0.27363
2021.32508,0.27487
2019.39634,0.27592
2017.46759,0.27671
2015.53885,0.27752
2013.61010,0.27850
2011.68136,0.27936
2009.75261,0.28003
2007.82386,0.28075
2005.89512,0.28147
2003.96637,0.28196
2002.03763,0.28222
2000.10888,0.28249
1998.18014,0.28297
1996.25139,0.28358
1994.32265,0.28412
1992.39390,0.28465
1990.46516,0.28528
1988.53641,0.28594
1986.60767,0.28652
1984.67892,0.28701
1982.75018,0.28739
1980.82143,0.28760
1978.89269,0.28769
1976.96394,0.28772
1975.03519,0.28774
1973.10645,0.28792
1971.17770,0.28815
1969.24896,0.28809
1967.32021,0.28783
1965.39147,0.28774
1963.46272,0.28788
1961.53398,0.28810
1959.60523,0.28828
1957.67649,0.28846
1955.74774,0.28870
1953.81900,0.28908
1951.89025,0.28955
1949.96151,0.29000
1948.03276,0.29048
1946.10402,0.29101
1944.17527,0.29152
1942.24652,0.29205
1940.31778,0.29258
1938.38903,0.29300
1936.46029,0.29338
1934.53154,0.29373
1932.60280,0.29400
1930.67405,0.29426
1928.74531,0.29446
1926.81656,0.29449
1924.88782,0.29454
1922.95907,0.29476
1921.03033,0.29496
1919.10158,0.29503
1917.17284,0.29512
1915.24409,0.29527
1913.31534,0.29531
1911.38660,0.29520
1909.45785,0.29513
1907.52911,0.29517
1905.60036,0.29524
1903.67162,0.29522
1901.74287,0.29505
1899.81413,0.29479
1897.88538,0.29457
1895.95664,0.29451
1894.02789,0.29442
1892.09915,0.29421
1890.17040,0.29398
1888.24166,0.29373
1886.31291,0.29332
1884.38417,0.29289
1882.45542,0.29260
1880.52667,0.29233
1878.59793,0.29189
1876.66918,0.29140
1874.74044,0.29095
1872.81169,0.29050
1870.88295,0.28999
1868.95420,0.28944
1867.02546,0.28881
1865.09671,0.28810
1863.16797,0.28742
1861.23922,0.28676
1859.31048,0.28602
1857.38173,0.28516
1855.45299,0.28416
1853.52424,0.28311
1851.59549,0.28204
1849.66675,0.28095
1847.73800,0.27986
1845.80926,0.27868
1843.88051,0.27715
1841.95177,0.27541
1840.02302,0.27377
1838.09428,0.27215
1836.16553,0.27042
1834.23679,0.26862
1832.30804,0.26683
1830.37930,0.26489
1828.45055,0.26255
1826.52181,0.25988
1824.59306,0.25701
1822.66432,0.25414
1820.73557,0.25126
1818.80682,0.24810
1816.87808,0.24459
1814.94933,0.24081
1813.02059,0.23665
1811.09184,0.23187
1809.16310,0.22658
1807.23435,0.22079
1805.30561,0.21417
1803.37686,0.20649
1801.44812,0.19789
1799.51937,0.18941
1797.59063,0.18235
1795.66188,0.17688
1793.73314,0.17225
1791.80439,0.16816
1789.87565,0.16499
1787.94690,0.16219
1786.01815,0.15883
1784.08941,0.15489
1782.16066,0.15081
1780.23192,0.14654
1778.30317,0.14230
1776.37443,0.13851
1774.44568,0.13497
1772.51694,0.13118
1770.58819,0.12736
1768.65945,0.12376
1766.73070,0.12018
1764.80196,0.11686
1762.87321,0.11368
1760.94447,0.11042
1759.01572,0.10733
1757.08697,0.10425
1755.15823,0.10121
1753.22948,0.09835
1751.30074,0.09542
1749.37199,0.09252
1747.44325,0.09002
1745.51450,0.08779
1743.58576,0.08580
1741.65701,0.08405
1739.72827,0.08238
1737.79952,0.08109
1735.87078,0.08035
1733.94203,0.07981
1732.01329,0.07922
1730.08454,0.07858
1728.15580,0.07792
1726.22705,0.07733
1724.29830,0.07695
1722.36956,0.07690
1720.44081,0.07702
1718.51207,0.07704
1716.58332,0.07703
1714.65458,0.07720
1712.72583,0.07757
1710.79709,0.07806
1708.86834,0.07856
1706.93960,0.07893
1705.01085,0.07915
1703.08211,0.07950
1701.15336,0.08009
1699.22462,0.08052
1697.29587,0.08053
1695.36713,0.08034
1693.43838,0.08013
1691.50963,0.07994
1689.58089,0.07964
1687.65214,0.07929
1685.72340,0.07887
1683.79465,0.07829
1681.86591,0.07769
1679.93716,0.07711
1678.00842,0.07648
1676.07967,0.07572
1674.15093,0.07481
1672.22218,0.07410
1670.29344,0.07361
1668.36469,0.07303
1666.43595,0.07244
1664.50720,0.07196
1662.57845,0.07137
1660.64971,0.07067
1658.72096,0.07016
1656.79222,0.06992
1654.86347,0.06978
1652.93473,0.06963
1651.00598,0.06945
1649.07724,0.06930
1647.14849,0.06925
1645.21975,0.06922
1643.29100,0.06905
1641.36226,0.06879
1639.43351,0.06857
1637.50477,0.06835
1635.57602,0.06800
1633.64728,0.06763
1631.71853,0.06735
1629.78978,0.06701
1627.86104,0.06644
1625.93229,0.06589
1624.00355,0.06548
1622.07480,0.06515
1620.14606,0.06498
1618.21731,0.06505
1616.28857,0.06527
1614.35982,0.06559
1612.43108,0.06602
1610.50233,0.06640
1608.57359,0.06665
1606.64484,0.06695
1604.71610,0.06744
1602.78735,0.06797
1600.85861,0.06838
1598.92986,0.06888
1597.00111,0.06954
1595.07237,0.07021
1593.14362,0.07104
1591.21488,0.07219
1589.28613,0.07343
1587.35739,0.07469
1585.42864,0.07616
1583.49990,0.07789
1581.57115,0.07973
1579.64241,0.08134
1577.71366,0.08286
1575.78492,0.08478
1573.85617,0.08674
1571.92743,0.08844
1569.99868,0.09020
1568.06993,0.09188
1566.14119,0.09333
1564.21244,0.09477
1562.28370,0.09617
1560.35495,0.09741
1558.42621,0.09850
1556.49746,0.09944
1554.56872,0.10019
1552.63997,0.10070
1550.71123,0.10119
1548.78248,0.10177
1546.85374,0.10211
1544.92499,0.10195
1542.99625,0.10152
1541.06750,0.10101
1539.13876,0.10016
1537.21001,0.09918
1535.28126,0.09820
1533.35252,0.09681
1531.42377,0.09497
1529.49503,0.09297
1527.56628,0.09082
1525.63754,0.08864
1523.70879,0.08653
1521.78005,0.08393
1519.85130,0.08096
1517.92256,0.07849
1515.99381,0.07657
1514.06507,0.07516
1512.13632,0.07436
1510.20758,0.07405
1508.27883,0.07392
1506.35008,0.07346
1504.42134,0.07286
1502.49259,0.07273
1500.56385,0.07284
1498.63510,0.07265
1496.70636,0.07201
1494.77761,0.07131
1492.84887,0.07073
1490.92012,0.07004
1488.99138,0.06905
1487.06263,0.06781
1485.13389,0.06634
1483.20514,0.06469
1481.27640,0.06326
1479.34765,0.06222
1477.41891,0.06113
1475.49016,0.05965
1473.56141,0.05805
1471.63267,0.05667
1469.70392,0.05561
1467.77518,0.05477
1465.84643,0.05389
1463.91769,0.05302
1461.98894,0.05253
1460.06020,0.05239
1458.13145,0.05227
1456.20271,0.05211
1454.27396,0.05211
1452.34522,0.05216
1450.41647,0.05214
1448.48773,0.05205
1446.55898,0.05196
1444.63024,0.05191
1442.70149,0.05180
1440.77274,0.05148
1438.84400,0.05102
1436.91525,0.05060
1434.98651,0.05048
1433.05776,0.05061
1431.12902,0.05081
1429.20027,0.05112
1427.27153,0.05160
1425.34278,0.05220
1423.41404,0.05297
1421.48529,0.05391
1419.55655,0.05489
1417.62780,0.05577
1415.69906,0.05656
1413.77031,0.05730
1411.84156,0.05776
1409.91282,0.05797
1407.98407,0.05820
1406.05533,0.05848
1404.12658,0.05858
1402.19784,0.05857
1400.26909,0.05859
1398.34035,0.05865
1396.41160,0.05864
1394.48286,0.05848
1392.55411,0.05812
1390.62537,0.05770
1388.69662,0.05727
1386.76788,0.05660
1384.83913,0.05558
1382.91039,0.05446
1380.98164,0.05345
1379.05289,0.05271
1377.12415,0.05237
1375.19540,0.05220
1373.26666,0.05204
1371.33791,0.05212
1369.40917,0.05247
1367.48042,0.05289
1365.55168,0.05325
1363.62293,0.05356
1361.69419,0.05391
1359.76544,0.05425
1357.83670,0.05443
1355.90795,0.05451
1353.97921,0.05475
1352.05046,0.05514
1350.12172,0.05550
1348.19297,0.05563
1346.26422,0.05538
1344.33548,0.05486
1342.40673,0.05428
1340.47799,0.05375
1338.54924,0.05325
1336.62050,0.05290
1334.69175,0.05283
1332.76301,0.05303
1330.83426,0.05324
1328.90552,0.05325
1326.97677,0.05300
1325.04803,0.05263
1323.11928,0.05235
1321.19054,0.05228
1319.26179,0.05234
1317.33304,0.05248
1315.40430,0.05279
1313.47555,0.05340
1311.54681,0.05429
1309.61806,0.05527
1307.68932,0.05599
1305.76057,0.05637
1303.83183,0.05668
1301.90308,0.05708
1299.97434,0.05740
1298.04559,0.05746
1296.11685,0.05717
1294.18810,0.05666
1292.25936,0.05614
1290.33061,0.05563
1288.40187,0.05507
1286.47312,0.05451
1284.54437,0.05397
1282.61563,0.05366
1280.68688,0.05383
1278.75814,0.05436
1276.82939,0.05484
1274.90065,0.05500
1272.97190,0.05502
1271.04316,0.05516
1269.11441,0.05543
1267.18567,0.05578
1265.25692,0.05624
1263.32818,0.05656
1261.39943,0.05647
1259.47069,0.05625
1257.54194,0.05622
1255.61320,0.05619
1253.68445,0.05602
1251.75570,0.05593
1249.82696,0.05588
1247.89821,0.05571
1245.96947,0.05567
1244.04072,0.05588
1242.11198,0.05605
1240.18323,0.05605
1238.25449,0.05607
1236.32574,0.05622
1234.39700,0.05642
1232.46825,0.05661
1230.53951,0.05674
1228.61076,0.05694
1226.68202,0.05734
1224.75327,0.05771
1222.82452,0.05778
1220.89578,0.05751
1218.96703,0.05709
1217.03829,0.05664
1215.10954,0.05617
1213.18080,0.05565
1211.25205,0.05493
1209.32331,0.05414
1207.39456,0.05363
1205.46582,0.05344
1203.53707,0.05342
1201.60833,0.05363
1199.67958,0.05405
1197.75084,0.05429
1195.82209,0.05416
1193.89335,0.05393
1191.96460,0.05368
1190.03585,0.05315
1188.10711,0.05240
1186.17836,0.05167
1184.24962,0.05088
1182.32087,0.04988
1180.39213,0.04885
1178.46338,0.04808
1176.53464,0.04761
1174.60589,0.04739
1172.67715,0.04733
1170.74840,0.04747
1168.81966,0.04808
1166.89091,0.04944
1164.96217,0.05134
1163.03342,0.05321
1161.10467,0.05458
1159.17593,0.05541
1157.24718,0.05586
1155.31844,0.05601
1153.38969,0.05595
1151.46095,0.05573
1149.53220,0.05526
1147.60346,0.05465
1145.67471,0.05398
1143.74597,0.05309
1141.81722,0.05205
1139.88848,0.05091
1137.95973,0.04955
1136.03099,0.04810
1134.10224,0.04702
1132.17350,0.04641
1130.24475,0.04599
1128.31600,0.04565
1126.38726,0.04551
1124.45851,0.04557
1122.52977,0.04567
1120.60102,0.04592
1118.67228,0.04640
1116.74353,0.04712
1114.81479,0.04815
1112.88604,0.04921
1110.95730,0.04999
1109.02855,0.05048
1107.09981,0.05063
1105.17106,0.05059
1103.24232,0.05064
1101.31357,0.05064
1099.38483,0.05045
1097.45608,0.05034
1095.52733,0.05044
1093.59859,0.05045
1091.66984,0.05036
1089.74110,0.05035
1087.81235,0.05034
1085.88361,0.05025
1083.95486,0.05016
1082.02612,0.05005
1080.09737,0.05014
1078.16863,0.05074
1076.23988,0.05168
1074.31114,0.05256
1072.38239,0.05331
1070.45365,0.05432
1068.52490,0.05600
1066.59615,0.05839
1064.66741,0.06127
1062.73866,0.06427
1060.80992,0.06668
1058.88117,0.06796
1056.95243,0.06841
1055.02368,0.06872
1053.09494,0.06891
1051.16619,0.06842
1049.23745,0.06731
1047.30870,0.06638
1045.37996,0.06600
1043.45121,0.06595
1041.52247,0.06625
1039.59372,0.06740
1037.66498,0.06954
1035.73623,0.07196
1033.80748,0.07387
1031.87874,0.07498
1029.94999,0.07542
1028.02125,0.07537
1026.09250,0.07499
1024.16376,0.07465
1022.23501,0.07454
1020.30627,0.07443
1018.37752,0.07424
1016.44878,0.07433
1014.52003,0.07478
1012.59129,0.07525
1010.66254,0.07553
1008.73380,0.07583
1006.80505,0.07614
1004.87631,0.07632
1002.94756,0.07670
1001.01881,0.07749
999.09007,0.07849
997.16132,0.07946
995.23258,0.08033
993.30383,0.08119
991.37509,0.08213
989.44634,0.08318
987.51760,0.08456
985.58885,0.08651
983.66011,0.08892
981.73136,0.09144
979.80262,0.09384
977.87387,0.09578
975.94513,0.09698
974.01638,0.09778
972.08763,0.09870
970.15889,0.10001
968.23014,0.10159
966.30140,0.10321
964.37265,0.10493
962.44391,0.10691
960.51516,0.10896
958.58642,0.11083
956.65767,0.11246
954.72893,0.11392
952.80018,0.11528
950.87144,0.11621
948.94269,0.11628
947.01395,0.11563
945.08520,0.11468
943.15646,0.11368
941.22771,0.11288
939.29896,0.11248
937.37022,0.11237
935.44147,0.11238
933.51273,0.11244
931.58398,0.11261
929.65524,0.11266
927.72649,0.11218
925.79775,0.11143
923.86900,0.11089
921.94026,0.11039
920.01151,0.10944
918.08277,0.10810
916.15402,0.10688
914.22528,0.10626
912.29653,0.10615
910.36779,0.10596
908.43904,0.10567
906.51029,0.10547
904.58155,0.10486
902.65280,0.10382
900.72406,0.10311
898.79531,0.10332
896.86657,0.10426
894.93782,0.10573
893.00908,0.10785
891.08033,0.11037
889.15159,0.11258
887.22284,0.11374
885.29410,0.11359
883.36535,0.11256
881.43661,0.11082
879.50786,0.10808
877.57911,0.10471
875.65037,0.10175
873.72162,0.10087
871.79288,0.10379
869.86413,0.10980
867.93539,0.11552
866.00664,0.11878
864.07790,0.12007
862.14915,0.12051
860.22041,0.12061
858.29166,0.12026
856.36292,0.11951
854.43417,0.11919
852.50543,0.11974
850.57668,0.12027
848.64794,0.12030
846.71919,0.12035
844.79044,0.12049
842.86170,0.12040
840.93295,0.12017
839.00421,0.11987
837.07546,0.11931
835.14672,0.11849
833.21797,0.11754
831.28923,0.11660
829.36048,0.11588
827.43174,0.11527
825.50299,0.11432
823.57425,0.11293
821.64550,0.11129
819.71676,0.10950
817.78801,0.10787
815.85926,0.10683
813.93052,0.10627
812.00177,0.10575
810.07303,0.10501
808.14428,0.10436
806.21554,0.10405
804.28679,0.10361
802.35805,0.10264
800.42930,0.10149
798.50056,0.10056
796.57181,0.09972
794.64307,0.09875
792.71432,0.09787
790.78558,0.09718
788.85683,0.09631
786.92809,0.09511
784.99934,0.09417
783.07059,0.09381
781.14185,0.09348
779.21310,0.09278
777.28436,0.09202
775.35561,0.09131
773.42687,0.09035
771.49812,0.08916
769.56938,0.08825
767.64063,0.08780
765.71189,0.08730
763.78314,0.08655
761.85440,0.08600
759.92565,0.08552
757.99691,0.08480
756.06816,0.08436
754.13942,0.08438
752.21067,0.08414
750.28192,0.08329
748.35318,0.08235
746.42443,0.08187
744.49569,0.08166
742.56694,0.08098
740.63820,0.07978
738.70945,0.07876
736.78071,0.07817
734.85196,0.07744
732.92322,0.07623
730.99447,0.07484
729.06573,0.07348
727.13698,0.07230
725.20824,0.07156
723.27949,0.07088
721.35074,0.06982
719.42200,0.06859
717.49325,0.06760
715.56451,0.06699
713.63576,0.06658
711.70702,0.06611
709.77827,0.06567
707.84953,0.06533
705.92078,0.06509
703.99204,0.06495
702.06329,0.06473
700.13455,0.06448
698.20580,0.06453
696.27706,0.06500
694.34831,0.06547
692.41957,0.06566
690.49082,0.06597
688.56207,0.06641
686.63333,0.06611
684.70458,0.06469
682.77584,0.06331
680.84709,0.06273
678.91835,0.06229
676.98960,0.06155
675.06086,0.06084
673.13211,0.06060
671.20337,0.06088
669.27462,0.06120
667.34588,0.06108
665.41713,0.06082
663.48839,0.06106
661.55964,0.06181
659.63090,0.06271
657.70215,0.06315
655.77340,0.06274
653.84466,0.06218
651.91591,0.06240
649.98717,0.06297
648.05842,0.06269
646.12968,0.06170
644.20093,0.06098
642.27219,0.06066
640.34344,0.06033
638.41470,0.05991
636.48595,0.05922
634.55721,0.05783
632.62846,0.05630
630.69972,0.05573
628.77097,0.05641
626.84222,0.05729
624.91348,0.05713
622.98473,0.05665
621.05599,0.05766
619.12724,0.06034
617.19850,0.06239
615.26975,0.06170
613.34101,0.05946
611.41226,0.05834
609.48352,0.05919
607.55477,0.06064
605.62603,0.06139
603.69728,0.06197
601.76854,0.06312
599.83979,0.06441
