7497.03301,0.76554
7495.10426,0.75719
7493.17552,0.75059
7491.24677,0.75356
7489.31803,0.75962
7487.38928,0.75812
7485.46054,0.74970
7483.53179,0.74284
7481.60305,0.74276
7479.67430,0.74491
7477.74556,0.74397
7475.81681,0.74454
7473.88807,0.74831
7471.95932,0.75109
7470.03057,0.75226
7468.10183,0.75144
7466.17308,0.75093
7464.24434,0.75215
7462.31559,0.75019
7460.38685,0.74619
7458.45810,0.74571
7456.52936,0.75038
7454.60061,0.75865
7452.67187,0.76161
7450.74312,0.75319
7448.81438,0.74343
7446.88563,0.74347
7444.95689,0.74992
7443.02814,0.75395
7441.09940,0.75417
7439.17065,0.75102
7437.24190,0.74224
7435.31316,0.73342
7433.38441,0.73485
7431.45567,0.74332
7429.52692,0.74691
7427.59818,0.74429
7425.66943,0.74243
7423.74069,0.74395
7421.81194,0.74653
7419.88320,0.74813
7417.95445,0.74938
7416.02571,0.75081
7414.09696,0.74873
7412.16822,0.74234
7410.23947,0.73846
7408.31073,0.73925
7406.38198,0.74081
7404.45323,0.73995
7402.52449,0.73476
7400.59574,0.73023
7398.66700,0.73196
7396.73825,0.73472
7394.80951,0.73269
7392.88076,0.72966
7390.95202,0.73002
7389.02327,0.73176
7387.09453,0.73276
7385.16578,0.73406
7383.23704,0.73549
7381.30829,0.73586
7379.37955,0.73613
7377.45080,0.73635
7375.52205,0.73503
7373.59331,0.73432
7371.66456,0.73502
7369.73582,0.73119
7367.80707,0.72183
7365.87833,0.71717
7363.94958,0.72097
7362.02084,0.72363
7360.09209,0.72130
7358.16335,0.71932
7356.23460,0.71944
7354.30586,0.72084
7352.37711,0.72090
7350.44837,0.71693
7348.51962,0.71340
7346.59088,0.71437
7344.66213,0.71598
7342.73338,0.71535
7340.80464,0.71385
7338.87589,0.71278
7336.94715,0.71384
7335.01840,0.71709
7333.08966,0.71887
7331.16091,0.71548
7329.23217,0.70768
7327.30342,0.70279
7325.37468,0.70412
7323.44593,0.70449
7321.51719,0.70277
7319.58844,0.70279
7317.65970,0.70010
7315.73095,0.69380
7313.80221,0.69154
7311.87346,0.69369
7309.94471,0.69291
7308.01597,0.68856
7306.08722,0.68681
7304.15848,0.68975
7302.22973,0.69358
7300.30099,0.69369
7298.37224,0.69057
7296.44350,0.68816
7294.51475,0.68473
7292.58601,0.67762
7290.65726,0.67071
7288.72852,0.66670
7286.79977,0.66546
7284.87103,0.66672
7282.94228,0.66773
7281.01353,0.66683
7279.08479,0.66579
7277.15604,0.66431
7275.22730,0.65978
7273.29855,0.65400
7271.36981,0.65055
7269.44106,0.64774
7267.51232,0.64522
7265.58357,0.64529
7263.65483,0.64582
7261.72608,0.64511
7259.79734,0.64573
7257.86859,0.64690
7255.93985,0.64272
7254.01110,0.63548
7252.08236,0.63442
7250.15361,0.63794
7248.22486,0.63912
7246.29612,0.63707
7244.36737,0.63310
7242.43863,0.62921
7240.50988,0.62606
7238.58114,0.62254
7236.65239,0.61933
7234.72365,0.61856
7232.79490,0.62080
7230.86616,0.62305
7228.93741,0.62129
7227.00867,0.61610
7225.07992,0.61163
7223.15118,0.60849
7221.22243,0.60396
7219.29369,0.60080
7217.36494,0.60461
7215.43619,0.61193
7213.50745,0.61584
7211.57870,0.61721
7209.64996,0.61780
7207.72121,0.61627
7205.79247,0.61461
7203.86372,0.61484
7201.93498,0.61472
7200.00623,0.61388
7198.07749,0.61562
7196.14874,0.61869
7194.22000,0.61807
7192.29125,0.61404
7190.36251,0.61129
7188.43376,0.61234
7186.50501,0.61457
7184.57627,0.61393
7182.64752,0.61022
7180.71878,0.60630
7178.79003,0.60485
7176.86129,0.60565
7174.93254,0.60606
7173.00380,0.60607
7171.07505,0.60716
7169.14631,0.60751
7167.21756,0.60648
7165.28882,0.60588
7163.36007,0.60446
7161.43133,0.60223
7159.50258,0.60188
7157.57384,0.60168
7155.64509,0.59891
7153.71634,0.59616
7151.78760,0.59569
7149.85885,0.59603
7147.93011,0.59628
7146.00136,0.59591
7144.07262,0.59370
7142.14387,0.58975
7140.21513,0.58614
7138.28638,0.58562
7136.35764,0.58736
7134.42889,0.58812
7132.50015,0.58722
7130.57140,0.58494
7128.64266,0.58221
7126.71391,0.58141
7124.78516,0.58232
7122.85642,0.58305
7120.92767,0.58316
7118.99893,0.58208
7117.07018,0.58052
7115.14144,0.58129
7113.21269,0.58474
7111.28395,0.58793
7109.35520,0.58863
7107.42646,0.58899
7105.49771,0.59199
7103.56897,0.59401
7101.64022,0.59120
7099.71148,0.58730
7097.78273,0.58632
7095.85399,0.58643
7093.92524,0.58554
7091.99649,0.58379
7090.06775,0.58076
7088.13900,0.57841
7086.21026,0.57916
7084.28151,0.58031
7082.35277,0.58033
7080.42402,0.58222
7078.49528,0.58690
7076.56653,0.59032
7074.63779,0.58883
7072.70904,0.58531
7070.78030,0.58338
7068.85155,0.58050
7066.92281,0.57554
7064.99406,0.57431
7063.06532,0.57888
7061.13657,0.58270
7059.20782,0.58160
7057.27908,0.57855
7055.35033,0.57748
7053.42159,0.57895
7051.49284,0.58105
7049.56410,0.58173
7047.63535,0.58006
7045.70661,0.57743
7043.77786,0.57603
7041.84912,0.57605
7039.92037,0.57577
7037.99163,0.57442
7036.06288,0.57376
7034.13414,0.57410
7032.20539,0.57507
7030.27664,0.57753
7028.34790,0.57958
7026.41915,0.57904
7024.49041,0.57740
7022.56166,0.57563
7020.63292,0.57360
7018.70417,0.57233
7016.77543,0.57187
7014.84668,0.57133
7012.91794,0.57178
7010.98919,0.57265
7009.06045,0.57151
7007.13170,0.57069
7005.20296,0.57290
7003.27421,0.57534
7001.34547,0.57686
6999.41672,0.57880
6997.48797,0.57952
6995.55923,0.57860
6993.63048,0.57851
6991.70174,0.57964
6989.77299,0.58092
6987.84425,0.58166
6985.91550,0.58156
6983.98676,0.58144
6982.05801,0.58216
6980.12927,0.58415
6978.20052,0.58775
6976.27178,0.59122
6974.34303,0.59224
6972.41429,0.59131
6970.48554,0.59128
6968.55680,0.59401
6966.62805,0.59708
6964.69930,0.59765
6962.77056,0.59807
6960.84181,0.59994
6958.91307,0.60211
6956.98432,0.60494
6955.05558,0.60631
6953.12683,0.60404
6951.19809,0.60267
6949.26934,0.60579
6947.34060,0.60989
6945.41185,0.61101
6943.48311,0.61035
6941.55436,0.61069
6939.62562,0.61165
6937.69687,0.61078
6935.76812,0.60846
6933.83938,0.60801
6931.91063,0.60932
6929.98189,0.60971
6928.05314,0.60955
6926.12440,0.60941
6924.19565,0.60778
6922.26691,0.60655
6920.33816,0.60860
6918.40942,0.61067
6916.48067,0.61018
6914.55193,0.60889
6912.62318,0.60713
6910.69444,0.60719
6908.76569,0.61118
6906.83695,0.61507
6904.90820,0.61715
6902.97945,0.62068
6901.05071,0.62389
6899.12196,0.62339
6897.19322,0.62179
6895.26447,0.62143
6893.33573,0.62194
6891.40698,0.62398
6889.47824,0.62643
6887.54949,0.62563
6885.62075,0.62283
6883.69200,0.62279
6881.76326,0.62404
6879.83451,0.62268
6877.90577,0.62073
6875.97702,0.62252
6874.04828,0.62779
6872.11953,0.63116
6870.19078,0.63002
6868.26204,0.62872
6866.33329,0.62993
6864.40455,0.63075
6862.47580,0.63040
6860.54706,0.63078
6858.61831,0.63145
6856.68957,0.63087
6854.76082,0.62926
6852.83208,0.62831
6850.90333,0.62856
6848.97459,0.62875
6847.04584,0.62762
6845.11710,0.62557
6843.18835,0.62489
6841.25960,0.62670
6839.33086,0.62978
6837.40211,0.63132
6835.47337,0.63014
6833.54462,0.62926
6831.61588,0.63028
6829.68713,0.63196
6827.75839,0.63394
6825.82964,0.63433
6823.90090,0.63108
6821.97215,0.62818
6820.04341,0.62984
6818.11466,0.63237
6816.18592,0.63168
6814.25717,0.62913
6812.32843,0.62781
6810.39968,0.62918
6808.47093,0.63193
6806.54219,0.63330
6804.61344,0.63221
6802.68470,0.63144
6800.75595,0.63380
6798.82721,0.63695
6796.89846,0.63712
6794.96972,0.63518
6793.04097,0.63388
6791.11223,0.63306
6789.18348,0.63419
6787.25474,0.63809
6785.32599,0.63975
6783.39725,0.63804
6781.46850,0.63746
6779.53975,0.63850
6777.61101,0.63923
6775.68226,0.63996
6773.75352,0.64144
6771.82477,0.64230
6769.89603,0.64019
6767.96728,0.63598
6766.03854,0.63413
6764.10979,0.63647
6762.18105,0.64030
6760.25230,0.64341
6758.32356,0.64435
6756.39481,0.64191
6754.46607,0.63936
6752.53732,0.63926
6750.60858,0.63812
6748.67983,0.63512
6746.75108,0.63376
6744.82234,0.63491
6742.89359,0.63760
6740.96485,0.64027
6739.03610,0.64121
6737.10736,0.64154
6735.17861,0.64300
6733.24987,0.64493
6731.32112,0.64635
6729.39238,0.64681
6727.46363,0.64597
6725.53489,0.64383
6723.60614,0.64147
6721.67740,0.64054
6719.74865,0.64153
6717.81991,0.64427
6715.89116,0.64638
6713.96241,0.64519
6712.03367,0.64459
6710.10492,0.64719
6708.17618,0.64848
6706.24743,0.64758
6704.31869,0.64786
6702.38994,0.64912
6700.46120,0.64951
6698.53245,0.64877
6696.60371,0.64757
6694.67496,0.64766
6692.74622,0.65035
6690.81747,0.65400
6688.88873,0.65662
6686.95998,0.65755
6685.03123,0.65618
6683.10249,0.65373
6681.17374,0.65231
6679.24500,0.65239
6677.31625,0.65302
6675.38751,0.65264
6673.45876,0.65168
6671.53002,0.65150
6669.60127,0.65123
6667.67253,0.65062
6665.74378,0.65088
6663.81504,0.65147
6661.88629,0.65210
6659.95755,0.65421
6658.02880,0.65599
6656.10006,0.65398
6654.17131,0.65000
6652.24256,0.64878
6650.31382,0.65124
6648.38507,0.65427
6646.45633,0.65604
6644.52758,0.65679
6642.59884,0.65587
6640.67009,0.65392
6638.74135,0.65365
6636.81260,0.65587
6634.88386,0.65781
6632.95511,0.65700
6631.02637,0.65532
6629.09762,0.65520
6627.16888,0.65578
6625.24013,0.65558
6623.31139,0.65455
6621.38264,0.65390
6619.45389,0.65440
6617.52515,0.65435
6615.59640,0.65334
6613.66766,0.65326
6611.73891,0.65391
6609.81017,0.65459
6607.88142,0.65507
6605.95268,0.65455
6604.02393,0.65397
6602.09519,0.65371
6600.16644,0.65298
6598.23770,0.65294
6596.30895,0.65458
6594.38021,0.65687
6592.45146,0.65751
6590.52271,0.65625
6588.59397,0.65592
6586.66522,0.65658
6584.73648,0.65585
6582.80773,0.65481
6580.87899,0.65500
6578.95024,0.65554
6577.02150,0.65610
6575.09275,0.65675
6573.16401,0.65758
6571.23526,0.65946
6569.30652,0.66110
6567.37777,0.65981
6565.44903,0.65748
6563.52028,0.65726
6561.59154,0.65772
6559.66279,0.65753
6557.73404,0.65716
6555.80530,0.65643
6553.87655,0.65598
6551.94781,0.65628
6550.01906,0.65710
6548.09032,0.65821
6546.16157,0.65929
6544.23283,0.66016
6542.30408,0.65992
6540.37534,0.65895
6538.44659,0.65911
6536.51785,0.65953
6534.58910,0.65796
6532.66036,0.65508
6530.73161,0.65361
6528.80287,0.65482
6526.87412,0.65669
6524.94537,0.65683
6523.01663,0.65515
6521.08788,0.65300
6519.15914,0.65246
6517.23039,0.65392
6515.30165,0.65537
6513.37290,0.65619
6511.44416,0.65676
6509.51541,0.65677
6507.58667,0.65714
6505.65792,0.65838
6503.72918,0.65873
6501.80043,0.65806
6499.87169,0.65817
6497.94294,0.65858
6496.01419,0.65847
6494.08545,0.65821
6492.15670,0.65810
6490.22796,0.65935
6488.29921,0.66208
6486.37047,0.66376
6484.44172,0.66238
6482.51298,0.65986
6480.58423,0.65978
6478.65549,0.66129
6476.72674,0.66172
6474.79800,0.66151
6472.86925,0.66142
6470.94051,0.66062
6469.01176,0.65899
6467.08302,0.65814
6465.15427,0.65924
6463.22552,0.66142
6461.29678,0.66313
6459.36803,0.66391
6457.43929,0.66434
6455.51054,0.66466
6453.58180,0.66409
6451.65305,0.66281
6449.72431,0.66256
6447.79556,0.66337
6445.86682,0.66391
6443.93807,0.66381
6442.00933,0.66313
6440.08058,0.66308
6438.15184,0.66510
6436.22309,0.66839
6434.29434,0.67068
6432.36560,0.67054
6430.43685,0.66882
6428.50811,0.66739
6426.57936,0.66633
6424.65062,0.66454
6422.72187,0.66340
6420.79313,0.66492
6418.86438,0.66689
6416.93564,0.66734
6415.00689,0.66742
6413.07815,0.66693
6411.14940,0.66631
6409.22066,0.66746
6407.29191,0.66926
6405.36317,0.67015
6403.43442,0.67063
6401.50567,0.67103
6399.57693,0.67144
6397.64818,0.67128
6395.71944,0.66925
6393.79069,0.66613
6391.86195,0.66427
6389.93320,0.66403
6388.00446,0.66462
6386.07571,0.66502
6384.14697,0.66374
6382.21822,0.66241
6380.28948,0.66341
6378.36073,0.66524
6376.43199,0.66596
6374.50324,0.66538
6372.57450,0.66420
6370.64575,0.66432
6368.71700,0.66650
6366.78826,0.66864
6364.85951,0.66814
6362.93077,0.66572
6361.00202,0.66529
6359.07328,0.66734
6357.14453,0.66891
6355.21579,0.67004
6353.28704,0.67135
6351.35830,0.67112
6349.42955,0.66939
6347.50081,0.66864
6345.57206,0.66897
6343.64332,0.66786
6341.71457,0.66636
6339.78582,0.66703
6337.85708,0.66871
6335.92833,0.67011
6333.99959,0.67115
6332.07084,0.67119
6330.14210,0.66991
6328.21335,0.66799
6326.28461,0.66644
6324.35586,0.66577
6322.42712,0.66569
6320.49837,0.66629
6318.56963,0.66795
6316.64088,0.66870
6314.71214,0.66683
6312.78339,0.66442
6310.85465,0.66309
6308.92590,0.66226
6306.99715,0.66154
6305.06841,0.66144
6303.13966,0.66291
6301.21092,0.66503
6299.28217,0.66620
6297.35343,0.66676
6295.42468,0.66643
6293.49594,0.66471
6291.56719,0.66268
6289.63845,0.66113
6287.70970,0.66106
6285.78096,0.66215
6283.85221,0.66210
6281.92347,0.66246
6279.99472,0.66457
6278.06598,0.66548
6276.13723,0.66472
6274.20848,0.66424
6272.27974,0.66434
6270.35099,0.66421
6268.42225,0.66331
6266.49350,0.66231
6264.56476,0.66158
6262.63601,0.66064
6260.70727,0.65957
6258.77852,0.65978
6256.84978,0.66140
6254.92103,0.66179
6252.99229,0.66083
6251.06354,0.66121
6249.13480,0.66235
6247.20605,0.66250
6245.27730,0.66216
6243.34856,0.66146
6241.41981,0.66046
6239.49107,0.66036
6237.56232,0.66106
6235.63358,0.66045
6233.70483,0.65804
6231.77609,0.65685
6229.84734,0.65862
6227.91860,0.66079
6225.98985,0.66182
6224.06111,0.66255
6222.13236,0.66248
6220.20362,0.66090
6218.27487,0.65857
6216.34613,0.65666
6214.41738,0.65616
6212.48863,0.65707
6210.55989,0.65830
6208.63114,0.65846
6206.70240,0.65746
6204.77365,0.65666
6202.84491,0.65643
6200.91616,0.65664
6198.98742,0.65625
6197.05867,0.65452
6195.12993,0.65389
6193.20118,0.65554
6191.27244,0.65805
6189.34369,0.66018
6187.41495,0.66011
6185.48620,0.65799
6183.55746,0.65674
6181.62871,0.65720
6179.69996,0.65632
6177.77122,0.65296
6175.84247,0.65108
6173.91373,0.65171
6171.98498,0.65132
6170.05624,0.64984
6168.12749,0.64985
6166.19875,0.65045
6164.27000,0.64926
6162.34126,0.64697
6160.41251,0.64463
6158.48377,0.64160
6156.55502,0.63922
6154.62628,0.63928
6152.69753,0.64017
6150.76878,0.64008
6148.84004,0.63938
6146.91129,0.63802
6144.98255,0.63534
6143.05380,0.63267
6141.12506,0.63171
6139.19631,0.63169
6137.26757,0.63110
6135.33882,0.62992
6133.41008,0.62976
6131.48133,0.63080
6129.55259,0.62964
6127.62384,0.62596
6125.69510,0.62397
6123.76635,0.62428
6121.83761,0.62402
6119.90886,0.62330
6117.98011,0.62396
6116.05137,0.62448
6114.12262,0.62354
6112.19388,0.62254
6110.26513,0.62232
6108.33639,0.62349
6106.40764,0.62494
6104.47890,0.62420
6102.55015,0.62216
6100.62141,0.62084
6098.69266,0.62006
6096.76392,0.61944
6094.83517,0.61954
6092.90643,0.61989
6090.97768,0.61889
6089.04893,0.61669
6087.12019,0.61527
6085.19144,0.61501
6083.26270,0.61436
6081.33395,0.61336
6079.40521,0.61273
6077.47646,0.61192
6075.54772,0.61164
6073.61897,0.61290
6071.69023,0.61505
6069.76148,0.61711
6067.83274,0.61809
6065.90399,0.61796
6063.97525,0.61767
6062.04650,0.61776
6060.11776,0.61832
6058.18901,0.61848
6056.26026,0.61737
6054.33152,0.61547
6052.40277,0.61398
6050.47403,0.61314
6048.54528,0.61157
6046.61654,0.60803
6044.68779,0.60341
6042.75905,0.59945
6040.83030,0.59635
6038.90156,0.59330
6036.97281,0.58924
6035.04407,0.58385
6033.11532,0.57877
6031.18658,0.57540
6029.25783,0.57268
6027.32909,0.56841
6025.40034,0.56258
6023.47159,0.55733
6021.54285,0.55258
6019.61410,0.54688
6017.68536,0.54110
6015.75661,0.53619
6013.82787,0.53079
6011.89912,0.52428
6009.97038,0.51812
6008.04163,0.51229
6006.11289,0.50564
6004.18414,0.49891
6002.25540,0.49326
6000.32665,0.48886
5998.39791,0.48504
5996.46916,0.48130
5994.54041,0.47828
5992.61167,0.47566
5990.68292,0.47179
5988.75418,0.46632
5986.82543,0.46026
5984.89669,0.45434
5982.96794,0.44852
5981.03920,0.44277
5979.11045,0.43784
5977.18171,0.43455
5975.25296,0.43268
5973.32422,0.43113
5971.39547,0.42919
5969.46673,0.42729
5967.53798,0.42580
5965.60924,0.42413
5963.68049,0.42196
5961.75174,0.41961
5959.82300,0.41738
5957.89425,0.41605
5955.96551,0.41579
5954.03676,0.41481
5952.10802,0.41254
5950.17927,0.41039
5948.25053,0.40879
5946.32178,0.40790
5944.39304,0.40793
5942.46429,0.40773
5940.53555,0.40663
5938.60680,0.40529
5936.67806,0.40366
5934.74931,0.40147
5932.82057,0.39969
5930.89182,0.39802
5928.96307,0.39474
5927.03433,0.39016
5925.10558,0.38594
5923.17684,0.38225
5921.24809,0.37833
5919.31935,0.37440
5917.39060,0.37080
5915.46186,0.36695
5913.53311,0.36273
5911.60437,0.35902
5909.67562,0.35579
5907.74688,0.35223
5905.81813,0.34853
5903.88939,0.34464
5901.96064,0.34025
5900.03189,0.33597
5898.10315,0.33238
5896.17440,0.32947
5894.24566,0.32703
5892.31691,0.32537
5890.38817,0.32408
5888.45942,0.32134
5886.53068,0.31765
5884.60193,0.31505
5882.67319,0.31339
5880.74444,0.31259
5878.81570,0.31331
5876.88695,0.31419
5874.95821,0.31318
5873.02946,0.31023
5871.10072,0.30697
5869.17197,0.30474
5867.24322,0.30359
5865.31448,0.30288
5863.38573,0.30193
5861.45699,0.30000
5859.52824,0.29733
5857.59950,0.29530
5855.67075,0.29435
5853.74201,0.29323
5851.81326,0.29150
5849.88452,0.29053
5847.95577,0.29084
5846.02703,0.29098
5844.09828,0.28964
5842.16954,0.28786
5840.24079,0.28692
5838.31205,0.28618
5836.38330,0.28542
5834.45455,0.28475
5832.52581,0.28333
5830.59706,0.28212
5828.66832,0.28291
5826.73957,0.28465
5824.81083,0.28547
5822.88208,0.28567
5820.95334,0.28672
5819.02459,0.28821
5817.09585,0.28809
5815.16710,0.28649
5813.23836,0.28583
5811.30961,0.28719
5809.38087,0.28935
5807.45212,0.29084
5805.52337,0.29169
5803.59463,0.29273
5801.66588,0.29425
5799.73714,0.29617
5797.80839,0.29869
5795.87965,0.30161
5793.95090,0.30374
5792.02216,0.30428
5790.09341,0.30411
5788.16467,0.30474
5786.23592,0.30661
5784.30718,0.30877
5782.37843,0.31014
5780.44969,0.31102
5778.52094,0.31264
5776.59220,0.31500
5774.66345,0.31688
5772.73470,0.31738
5770.80596,0.31657
5768.87721,0.31583
5766.94847,0.31652
5765.01972,0.31798
5763.09098,0.31886
5761.16223,0.31871
5759.23349,0.31742
5757.30474,0.31579
5755.37600,0.31485
5753.44725,0.31459
5751.51851,0.31453
5749.58976,0.31360
5747.66102,0.31206
5745.73227,0.31114
5743.80352,0.31019
5741.87478,0.30879
5739.94603,0.30755
5738.01729,0.30568
5736.08854,0.30302
5734.15980,0.30158
5732.23105,0.30162
5730.30231,0.30132
5728.37356,0.30079
5726.44482,0.30091
5724.51607,0.30081
5722.58733,0.30008
5720.65858,0.29938
5718.72984,0.29888
5716.80109,0.29855
5714.87235,0.29814
5712.94360,0.29757
5711.01485,0.29770
5709.08611,0.29865
5707.15736,0.29933
5705.22862,0.29921
5703.29987,0.29915
5701.37113,0.30018
5699.44238,0.30182
5697.51364,0.30287
5695.58489,0.30380
5693.65615,0.30529
5691.72740,0.30647
5689.79866,0.30765
5687.86991,0.31006
5685.94117,0.31285
5684.01242,0.31506
5682.08368,0.31668
5680.15493,0.31771
5678.22618,0.31892
5676.29744,0.32048
5674.36869,0.32167
5672.43995,0.32257
5670.51120,0.32370
5668.58246,0.32563
5666.65371,0.32788
5664.72497,0.32943
5662.79622,0.33040
5660.86748,0.33118
5658.93873,0.33165
5657.00999,0.33161
5655.08124,0.33165
5653.15250,0.33268
5651.22375,0.33423
5649.29500,0.33522
5647.36626,0.33556
5645.43751,0.33603
5643.50877,0.33689
5641.58002,0.33800
5639.65128,0.33951
5637.72253,0.34093
5635.79379,0.34147
5633.86504,0.34144
5631.93630,0.34159
5630.00755,0.34179
5628.07881,0.34205
5626.15006,0.34306
5624.22132,0.34457
5622.29257,0.34557
5620.36383,0.34575
5618.43508,0.34573
5616.50633,0.34670
5614.57759,0.34880
5612.64884,0.35013
5610.72010,0.34992
5608.79135,0.34959
5606.86261,0.34995
5604.93386,0.35077
5603.00512,0.35155
5601.07637,0.35195
5599.14763,0.35219
5597.21888,0.35253
5595.29014,0.35298
5593.36139,0.35351
5591.43265,0.35407
5589.50390,0.35423
5587.57516,0.35428
5585.64641,0.35514
5583.71766,0.35635
5581.78892,0.35714
5579.86017,0.35760
5577.93143,0.35854
5576.00268,0.36051
5574.07394,0.36292
5572.14519,0.36472
5570.21645,0.36540
5568.28770,0.36547
5566.35896,0.36578
5564.43021,0.36637
5562.50147,0.36724
5560.57272,0.36865
5558.64398,0.37010
5556.71523,0.37042
5554.78648,0.36981
5552.85774,0.36993
5550.92899,0.37081
5549.00025,0.37111
5547.07150,0.37142
5545.14276,0.37250
5543.21401,0.37328
5541.28527,0.37389
5539.35652,0.37493
5537.42778,0.37527
5535.49903,0.37500
5533.57029,0.37525
5531.64154,0.37593
5529.71280,0.37626
5527.78405,0.37589
5525.85531,0.37549
5523.92656,0.37575
5521.99781,0.37607
5520.06907,0.37593
5518.14032,0.37576
5516.21158,0.37589
5514.28283,0.37644
5512.35409,0.37774
5510.42534,0.37942
5508.49660,0.37975
5506.56785,0.37760
5504.63911,0.37492
5502.71036,0.37440
5500.78162,0.37550
5498.85287,0.37597
5496.92413,0.37529
5494.99538,0.37439
5493.06664,0.37389
5491.13789,0.37405
5489.20914,0.37469
5487.28040,0.37504
5485.35165,0.37493
5483.42291,0.37520
5481.49416,0.37587
5479.56542,0.37569
5477.63667,0.37456
5475.70793,0.37366
5473.77918,0.37304
5471.85044,0.37274
5469.92169,0.37317
5467.99295,0.37311
5466.06420,0.37213
5464.13546,0.37173
5462.20671,0.37222
5460.27796,0.37287
5458.34922,0.37328
5456.42047,0.37349
5454.49173,0.37362
5452.56298,0.37346
5450.63424,0.37358
5448.70549,0.37465
5446.77675,0.37582
5444.84800,0.37643
5442.91926,0.37735
5440.99051,0.37873
5439.06177,0.37925
5437.13302,0.37899
5435.20428,0.37911
5433.27553,0.37931
5431.34679,0.37917
5429.41804,0.37936
5427.48929,0.38006
5425.56055,0.38065
5423.63180,0.38135
5421.70306,0.38251
5419.77431,0.38345
5417.84557,0.38356
5415.91682,0.38312
5413.98808,0.38293
5412.05933,0.38339
5410.13059,0.38402
5408.20184,0.38431
5406.27310,0.38424
5404.34435,0.38418
5402.41561,0.38440
5400.48686,0.38483
5398.55811,0.38523
5396.62937,0.38565
5394.70062,0.38587
5392.77188,0.38548
5390.84313,0.38503
5388.91439,0.38513
5386.98564,0.38536
5385.05690,0.38592
5383.12815,0.38708
5381.19941,0.38751
5379.27066,0.38705
5377.34192,0.38729
5375.41317,0.38853
5373.48443,0.39011
5371.55568,0.39110
5369.62694,0.39096
5367.69819,0.39101
5365.76944,0.39226
5363.84070,0.39423
5361.91195,0.39655
5359.98321,0.39834
5358.05446,0.39851
5356.12572,0.39788
5354.19697,0.39771
5352.26823,0.39790
5350.33948,0.39846
5348.41074,0.39937
5346.48199,0.40035
5344.55325,0.40153
5342.62450,0.40266
5340.69576,0.40361
5338.76701,0.40442
5336.83827,0.40491
5334.90952,0.40531
5332.98077,0.40599
5331.05203,0.40689
5329.12328,0.40748
5327.19454,0.40754
5325.26579,0.40812
5323.33705,0.40965
5321.40830,0.41091
5319.47956,0.41128
5317.55081,0.41106
5315.62207,0.41078
5313.69332,0.41092
5311.76458,0.41122
5309.83583,0.41135
5307.90709,0.41145
5305.97834,0.41147
5304.04959,0.41149
5302.12085,0.41148
5300.19210,0.41089
5298.26336,0.41014
5296.33461,0.40996
5294.40587,0.41014
5292.47712,0.41006
5290.54838,0.40922
5288.61963,0.40790
5286.69089,0.40700
5284.76214,0.40622
5282.83340,0.40442
5280.90465,0.40176
5278.97591,0.39968
5277.04716,0.39859
5275.11842,0.39735
5273.18967,0.39478
5271.26092,0.39122
5269.33218,0.38833
5267.40343,0.38653
5265.47469,0.38420
5263.54594,0.38124
5261.61720,0.37938
5259.68845,0.37838
5257.75971,0.37680
5255.83096,0.37484
5253.90222,0.37375
5251.97347,0.37383
5250.04473,0.37439
5248.11598,0.37501
5246.18724,0.37546
5244.25849,0.37584
5242.32975,0.37666
5240.40100,0.37779
5238.47225,0.37923
5236.54351,0.38116
5234.61476,0.38285
5232.68602,0.38356
5230.75727,0.38353
5228.82853,0.38372
5226.89978,0.38479
5224.97104,0.38627
5223.04229,0.38744
5221.11355,0.38827
5219.18480,0.38907
5217.25606,0.39004
5215.32731,0.39111
5213.39857,0.39164
5211.46982,0.39133
5209.54107,0.39089
5207.61233,0.39104
5205.68358,0.39151
5203.75484,0.39176
5201.82609,0.39180
5199.89735,0.39178
5197.96860,0.39184
5196.03986,0.39198
5194.11111,0.39166
5192.18237,0.39092
5190.25362,0.39075
5188.32488,0.39098
5186.39613,0.39039
5184.46739,0.38909
5182.53864,0.38806
5180.60990,0.38758
5178.68115,0.38744
5176.75240,0.38724
5174.82366,0.38669
5172.89491,0.38591
5170.96617,0.38502
5169.03742,0.38415
5167.10868,0.38380
5165.17993,0.38397
5163.25119,0.38400
5161.32244,0.38365
5159.39370,0.38338
5157.46495,0.38349
5155.53621,0.38362
5153.60746,0.38313
5151.67872,0.38192
5149.74997,0.38085
5147.82123,0.38062
5145.89248,0.38047
5143.96373,0.38006
5142.03499,0.38011
5140.10624,0.38036
5138.17750,0.38065
5136.24875,0.38150
5134.32001,0.38229
5132.39126,0.38270
5130.46252,0.38347
5128.53377,0.38468
5126.60503,0.38631
5124.67628,0.38833
5122.74754,0.38977
5120.81879,0.39006
5118.89005,0.39030
5116.96130,0.39138
5115.03255,0.39255
5113.10381,0.39299
5111.17506,0.39278
5109.24632,0.39283
5107.31757,0.39368
5105.38883,0.39441
5103.46008,0.39460
5101.53134,0.39498
5099.60259,0.39562
5097.67385,0.39628
5095.74510,0.39707
5093.81636,0.39780
5091.88761,0.39802
5089.95887,0.39813
5088.03012,0.39885
5086.10138,0.39962
5084.17263,0.39983
5082.24388,0.39996
5080.31514,0.40043
5078.38639,0.40073
5076.45765,0.40024
5074.52890,0.39987
5072.60016,0.40085
5070.67141,0.40225
5068.74267,0.40277
5066.81392,0.40283
5064.88518,0.40317
5062.95643,0.40353
5061.02769,0.40354
5059.09894,0.40351
5057.17020,0.40408
5055.24145,0.40504
5053.31270,0.40555
5051.38396,0.40576
5049.45521,0.40630
5047.52647,0.40683
5045.59772,0.40715
5043.66898,0.40761
5041.74023,0.40820
5039.81149,0.40856
5037.88274,0.40872
5035.95400,0.40927
5034.02525,0.40990
5032.09651,0.40976
5030.16776,0.40918
5028.23902,0.40918
5026.31027,0.41001
5024.38153,0.41090
5022.45278,0.41110
5020.52403,0.41110
5018.59529,0.41152
5016.66654,0.41179
5014.73780,0.41160
5012.80905,0.41166
5010.88031,0.41202
5008.95156,0.41207
5007.02282,0.41171
5005.09407,0.41148
5003.16533,0.41197
5001.23658,0.41258
4999.30784,0.41223
4997.37909,0.41123
4995.45035,0.41024
4993.52160,0.40924
4991.59286,0.40856
4989.66411,0.40853
4987.73536,0.40896
4985.80662,0.40955
4983.87787,0.40998
4981.94913,0.41000
4980.02038,0.40988
4978.09164,0.40985
4976.16289,0.40986
4974.23415,0.41000
4972.30540,0.41008
4970.37666,0.40959
4968.44791,0.40886
4966.51917,0.40893
4964.59042,0.40987
4962.66168,0.41039
4960.73293,0.41000
4958.80418,0.40950
4956.87544,0.40931
4954.94669,0.40936
4953.01795,0.40933
4951.08920,0.40922
4949.16046,0.40977
4947.23171,0.41092
4945.30297,0.41148
4943.37422,0.41128
4941.44548,0.41108
4939.51673,0.41087
4937.58799,0.41042
4935.65924,0.40966
4933.73050,0.40900
4931.80175,0.40917
4929.87301,0.40954
4927.94426,0.40920
4926.01551,0.40851
4924.08677,0.40813
4922.15802,0.40812
4920.22928,0.40792
4918.30053,0.40757
4916.37179,0.40752
4914.44304,0.40740
4912.51430,0.40702
4910.58555,0.40670
4908.65681,0.40631
4906.72806,0.40579
4904.79932,0.40545
4902.87057,0.40492
4900.94183,0.40363
4899.01308,0.40205
4897.08434,0.40101
4895.15559,0.40075
4893.22684,0.40088
4891.29810,0.40085
4889.36935,0.40062
4887.44061,0.40010
4885.51186,0.39908
4883.58312,0.39797
4881.65437,0.39724
4879.72563,0.39678
4877.79688,0.39630
4875.86814,0.39526
4873.93939,0.39370
4872.01065,0.39276
4870.08190,0.39259
4868.15316,0.39218
4866.22441,0.39198
4864.29566,0.39262
4862.36692,0.39303
4860.43817,0.39286
4858.50943,0.39284
4856.58068,0.39304
4854.65194,0.39351
4852.72319,0.39407
4850.79445,0.39432
4848.86570,0.39437
4846.93696,0.39436
4845.00821,0.39450
4843.07947,0.39509
4841.15072,0.39557
4839.22198,0.39540
4837.29323,0.39539
4835.36449,0.39593
4833.43574,0.39639
4831.50699,0.39694
4829.57825,0.39755
4827.64950,0.39743
4825.72076,0.39703
4823.79201,0.39712
4821.86327,0.39739
4819.93452,0.39766
4818.00578,0.39792
4816.07703,0.39803
4814.14829,0.39794
4812.21954,0.39775
4810.29080,0.39751
4808.36205,0.39732
4806.43331,0.39758
4804.50456,0.39808
4802.57582,0.39801
4800.64707,0.39757
4798.71832,0.39742
4796.78958,0.39731
4794.86083,0.39698
4792.93209,0.39668
4791.00334,0.39637
4789.07460,0.39584
4787.14585,0.39519
4785.21711,0.39475
4783.28836,0.39440
4781.35962,0.39404
4779.43087,0.39399
4777.50213,0.39379
4775.57338,0.39293
4773.64464,0.39207
4771.71589,0.39155
4769.78714,0.39106
4767.85840,0.39053
4765.92965,0.38988
4764.00091,0.38924
4762.07216,0.38909
4760.14342,0.38944
4758.21467,0.38976
4756.28593,0.38980
4754.35718,0.38952
4752.42844,0.38907
4750.49969,0.38887
4748.57095,0.38898
4746.64220,0.38869
4744.71346,0.38770
4742.78471,0.38671
4740.85597,0.38607
4738.92722,0.38529
4736.99847,0.38446
4735.06973,0.38403
4733.14098,0.38375
4731.21224,0.38294
4729.28349,0.38147
4727.35475,0.37968
4725.42600,0.37789
4723.49726,0.37648
4721.56851,0.37535
4719.63977,0.37385
4717.71102,0.37213
4715.78228,0.37043
4713.85353,0.36834
4711.92479,0.36630
4709.99604,0.36505
4708.06729,0.36413
4706.13855,0.36292
4704.20980,0.36139
4702.28106,0.35969
4700.35231,0.35776
4698.42357,0.35534
4696.49482,0.35266
4694.56608,0.35009
4692.63733,0.34739
4690.70859,0.34409
4688.77984,0.34017
4686.85110,0.33564
4684.92235,0.33009
4682.99361,0.32340
4681.06486,0.31606
4679.13612,0.30830
4677.20737,0.30029
4675.27862,0.29297
4673.34988,0.28722
4671.42113,0.28292
4669.49239,0.27996
4667.56364,0.27853
4665.63490,0.27861
4663.70615,0.28019
4661.77741,0.28312
4659.84866,0.28690
4657.91992,0.29101
4655.99117,0.29514
4654.06243,0.29895
4652.13368,0.30223
4650.20494,0.30480
4648.27619,0.30642
4646.34745,0.30711
4644.41870,0.30698
4642.48995,0.30561
4640.56121,0.30286
4638.63246,0.29965
4636.70372,0.29665
4634.77497,0.29372
4632.84623,0.29076
4630.91748,0.28829
4628.98874,0.28679
4627.05999,0.28600
4625.13125,0.28571
4623.20250,0.28595
4621.27376,0.28647
4619.34501,0.28676
4617.41627,0.28621
4615.48752,0.28497
4613.55877,0.28385
4611.63003,0.28313
4609.70128,0.28287
4607.77254,0.28352
4605.84379,0.28549
4603.91505,0.28882
4601.98630,0.29347
4600.05756,0.29913
4598.12881,0.30491
4596.20007,0.30989
4594.27132,0.31373
4592.34258,0.31631
4590.41383,0.31798
4588.48509,0.31912
4586.55634,0.31929
4584.62760,0.31794
4582.69885,0.31497
4580.77010,0.31063
4578.84136,0.30598
4576.91261,0.30248
4574.98387,0.30103
4573.05512,0.30171
4571.12638,0.30416
4569.19763,0.30797
4567.26889,0.31267
4565.34014,0.31757
4563.41140,0.32202
4561.48265,0.32562
4559.55391,0.32808
4557.62516,0.32963
4555.69642,0.33104
4553.76767,0.33258
4551.83893,0.33398
4549.91018,0.33516
4547.98143,0.33586
4546.05269,0.33592
4544.12394,0.33567
4542.19520,0.33519
4540.26645,0.33451
4538.33771,0.33396
4536.40896,0.33332
4534.48022,0.33205
4532.55147,0.33060
4530.62273,0.32982
4528.69398,0.32960
4526.76524,0.32919
4524.83649,0.32796
4522.90775,0.32625
4520.97900,0.32495
4519.05025,0.32405
4517.12151,0.32312
4515.19276,0.32216
4513.26402,0.32118
4511.33527,0.32015
4509.40653,0.31913
4507.47778,0.31809
4505.54904,0.31683
4503.62029,0.31546
4501.69155,0.31436
4499.76280,0.31352
4497.83406,0.31267
4495.90531,0.31148
4493.97657,0.30990
4492.04782,0.30843
4490.11908,0.30702
4488.19033,0.30502
4486.26158,0.30263
4484.33284,0.30050
4482.40409,0.29838
4480.47535,0.29580
4478.54660,0.29307
4476.61786,0.29043
4474.68911,0.28793
4472.76037,0.28552
4470.83162,0.28282
4468.90288,0.27962
4466.97413,0.27616
4465.04539,0.27261
4463.11664,0.26910
4461.18790,0.26565
4459.25915,0.26185
4457.33041,0.25775
4455.40166,0.25394
4453.47291,0.25034
4451.54417,0.24655
4449.61542,0.24264
4447.68668,0.23864
4445.75793,0.23457
4443.82919,0.23061
4441.90044,0.22707
4439.97170,0.22407
4438.04295,0.22108
4436.11421,0.21770
4434.18546,0.21435
4432.25672,0.21131
4430.32797,0.20796
4428.39923,0.20403
4426.47048,0.20012
4424.54173,0.19647
4422.61299,0.19299
4420.68424,0.18967
4418.75550,0.18622
4416.82675,0.18259
4414.89801,0.17923
4412.96926,0.17619
4411.04052,0.17319
4409.11177,0.17025
4407.18303,0.16746
4405.25428,0.16482
4403.32554,0.16249
4401.39679,0.16044
4399.46805,0.15830
4397.53930,0.15592
4395.61056,0.15352
4393.68181,0.15124
4391.75306,0.14901
4389.82432,0.14682
4387.89557,0.14489
4385.96683,0.14323
4384.03808,0.14152
4382.10934,0.13962
4380.18059,0.13790
4378.25185,0.13670
4376.32310,0.13556
4374.39436,0.13415
4372.46561,0.13283
4370.53687,0.13174
4368.60812,0.13071
4366.67938,0.12999
4364.75063,0.12951
4362.82189,0.12860
4360.89314,0.12724
4358.96439,0.12634
4357.03565,0.12629
4355.10690,0.12623
4353.17816,0.12573
4351.24941,0.12555
4349.32067,0.12592
4347.39192,0.12626
4345.46318,0.12633
4343.53443,0.12642
4341.60569,0.12650
4339.67694,0.12642
4337.74820,0.12661
4335.81945,0.12735
4333.89071,0.12839
4331.96196,0.12943
4330.03321,0.13037
4328.10447,0.13112
4326.17572,0.13159
4324.24698,0.13198
4322.31823,0.13243
4320.38949,0.13276
4318.46074,0.13298
4316.53200,0.13333
4314.60325,0.13382
4312.67451,0.13408
4310.74576,0.13416
4308.81702,0.13439
4306.88827,0.13460
4304.95953,0.13453
4303.03078,0.13431
4301.10204,0.13401
4299.17329,0.13343
4297.24454,0.13261
4295.31580,0.13179
4293.38705,0.13110
4291.45831,0.13037
4289.52956,0.12946
4287.60082,0.12878
4285.67207,0.12843
4283.74333,0.12811
4281.81458,0.12770
4279.88584,0.12713
4277.95709,0.12650
4276.02835,0.12584
4274.09960,0.12518
4272.17086,0.12480
4270.24211,0.12471
4268.31336,0.12464
4266.38462,0.12444
4264.45587,0.12410
4262.52713,0.12360
4260.59838,0.12299
4258.66964,0.12254
4256.74089,0.12238
4254.81215,0.12232
4252.88340,0.12218
4250.95466,0.12214
4249.02591,0.12249
4247.09717,0.12304
4245.16842,0.12332
4243.23968,0.12331
4241.31093,0.12327
4239.38219,0.12329
4237.45344,0.12328
4235.52469,0.12328
4233.59595,0.12332
4231.66720,0.12319
4229.73846,0.12292
4227.80971,0.12288
4225.88097,0.12313
4223.95222,0.12325
4222.02348,0.12321
4220.09473,0.12329
4218.16599,0.12328
4216.23724,0.12300
4214.30850,0.12299
4212.37975,0.12326
4210.45101,0.12335
4208.52226,0.12342
4206.59352,0.12358
4204.66477,0.12361
4202.73602,0.12361
4200.80728,0.12391
4198.87853,0.12464
4196.94979,0.12541
4195.02104,0.12583
4193.09230,0.12611
4191.16355,0.12654
4189.23481,0.12697
4187.30606,0.12697
4185.37732,0.12660
4183.44857,0.12655
4181.51983,0.12702
4179.59108,0.12740
4177.66234,0.12744
4175.73359,0.12739
4173.80484,0.12741
4171.87610,0.12752
4169.94735,0.12769
4168.01861,0.12776
4166.08986,0.12764
4164.16112,0.12766
4162.23237,0.12793
4160.30363,0.12808
4158.37488,0.12820
4156.44614,0.12863
4154.51739,0.12912
4152.58865,0.12924
4150.65990,0.12915
4148.73116,0.12905
4146.80241,0.12897
4144.87367,0.12905
4142.94492,0.12919
4141.01617,0.12938
4139.08743,0.12972
4137.15868,0.12986
4135.22994,0.12943
4133.30119,0.12876
4131.37245,0.12830
4129.44370,0.12808
4127.51496,0.12809
4125.58621,0.12823
4123.65747,0.12829
4121.72872,0.12821
4119.79998,0.12800
4117.87123,0.12769
4115.94249,0.12730
4114.01374,0.12699
4112.08500,0.12679
4110.15625,0.12635
4108.22750,0.12556
4106.29876,0.12484
4104.37001,0.12450
4102.44127,0.12457
4100.51252,0.12489
4098.58378,0.12492
4096.65503,0.12422
4094.72629,0.12335
4092.79754,0.12277
4090.86880,0.12211
4088.94005,0.12124
4087.01131,0.12034
4085.08256,0.11941
4083.15382,0.11858
4081.22507,0.11799
4079.29632,0.11741
4077.36758,0.11643
4075.43883,0.11497
4073.51009,0.11351
4071.58134,0.11240
4069.65260,0.11156
4067.72385,0.11078
4065.79511,0.11010
4063.86636,0.10970
4061.93762,0.10943
4060.00887,0.10903
4058.08013,0.10887
4056.15138,0.10918
4054.22264,0.10944
4052.29389,0.10924
4050.36515,0.10892
4048.43640,0.10891
4046.50765,0.10886
4044.57891,0.10843
4042.65016,0.10805
4040.72142,0.10799
4038.79267,0.10807
4036.86393,0.10850
4034.93518,0.10957
4033.00644,0.11095
4031.07769,0.11196
4029.14895,0.11279
4027.22020,0.11402
4025.29146,0.11553
4023.36271,0.11706
4021.43397,0.11855
4019.50522,0.12001
4017.57648,0.12173
4015.64773,0.12379
4013.71898,0.12529
4011.79024,0.12573
4009.86149,0.12591
4007.93275,0.12640
4006.00400,0.12691
4004.07526,0.12725
4002.14651,0.12746
4000.21777,0.12790
3998.28902,0.12874
3996.36028,0.12961
3994.43153,0.13021
3992.50279,0.13051
3990.57404,0.13081
3988.64530,0.13152
3986.71655,0.13252
3984.78780,0.13318
3982.85906,0.13343
3980.93031,0.13354
3979.00157,0.13370
3977.07282,0.13409
3975.14408,0.13457
3973.21533,0.13484
3971.28659,0.13508
3969.35784,0.13554
3967.42910,0.13612
3965.50035,0.13663
3963.57161,0.13706
3961.64286,0.13726
3959.71412,0.13719
3957.78537,0.13706
3955.85663,0.13700
3953.92788,0.13713
3951.99913,0.13744
3950.07039,0.13760
3948.14164,0.13741
3946.21290,0.13696
3944.28415,0.13658
3942.35541,0.13665
3940.42666,0.13707
3938.49792,0.13730
3936.56917,0.13725
3934.64043,0.13731
3932.71168,0.13773
3930.78294,0.13816
3928.85419,0.13818
3926.92545,0.13811
3924.99670,0.13827
3923.06795,0.13848
3921.13921,0.13854
3919.21046,0.13863
3917.28172,0.13895
3915.35297,0.13925
3913.42423,0.13938
3911.49548,0.13946
3909.56674,0.13942
3907.63799,0.13939
3905.70925,0.13945
3903.78050,0.13940
3901.85176,0.13938
3899.92301,0.13941
3897.99427,0.13926
3896.06552,0.13913
3894.13678,0.13929
3892.20803,0.13958
3890.27928,0.13972
3888.35054,0.13983
3886.42179,0.14011
3884.49305,0.14041
3882.56430,0.14042
3880.63556,0.14023
3878.70681,0.14010
3876.77807,0.14013
3874.84932,0.14013
3872.92058,0.14005
3870.99183,0.14006
3869.06309,0.14025
3867.13434,0.14050
3865.20560,0.14046
3863.27685,0.14008
3861.34811,0.13981
3859.41936,0.13980
3857.49061,0.13992
3855.56187,0.14004
3853.63312,0.13993
3851.70438,0.13961
3849.77563,0.13928
3847.84689,0.13895
3845.91814,0.13875
3843.98940,0.13876
3842.06065,0.13892
3840.13191,0.13925
3838.20316,0.13945
3836.27442,0.13909
3834.34567,0.13856
3832.41693,0.13840
3830.48818,0.13845
3828.55943,0.13847
3826.63069,0.13855
3824.70194,0.13867
3822.77320,0.13876
3820.84445,0.13890
3818.91571,0.13913
3816.98696,0.13939
3815.05822,0.13954
3813.12947,0.13957
3811.20073,0.13975
3809.27198,0.14017
3807.34324,0.14077
3805.41449,0.14142
3803.48575,0.14193
3801.55700,0.14234
3799.62826,0.14266
3797.69951,0.14285
3795.77076,0.14322
3793.84202,0.14388
3791.91327,0.14438
3789.98453,0.14459
3788.05578,0.14483
3786.12704,0.14508
3784.19829,0.14523
3782.26955,0.14534
3780.34080,0.14530
3778.41206,0.14510
3776.48331,0.14527
3774.55457,0.14585
3772.62582,0.14612
3770.69708,0.14600
3768.76833,0.14606
3766.83959,0.14632
3764.91084,0.14644
3762.98209,0.14657
3761.05335,0.14694
3759.12460,0.14736
3757.19586,0.14774
3755.26711,0.14808
3753.33837,0.14820
3751.40962,0.14800
3749.48088,0.14776
3747.55213,0.14781
3745.62339,0.14804
3743.69464,0.14828
3741.76590,0.14846
3739.83715,0.14862
3737.90841,0.14884
3735.97966,0.14912
3734.05091,0.14942
3732.12217,0.14948
3730.19342,0.14930
3728.26468,0.14912
3726.33593,0.14886
3724.40719,0.14827
3722.47844,0.14763
3720.54970,0.14735
3718.62095,0.14724
3716.69221,0.14699
3714.76346,0.14646
3712.83472,0.14539
3710.90597,0.14351
3708.97723,0.14132
3707.04848,0.13933
3705.11974,0.13732
3703.19099,0.13504
3701.26224,0.13272
3699.33350,0.13067
3697.40475,0.12870
3695.47601,0.12655
3693.54726,0.12432
3691.61852,0.12205
3689.68977,0.11939
3687.76103,0.11639
3685.83228,0.11367
3683.90354,0.11131
3681.97479,0.10916
3680.04605,0.10732
3678.11730,0.10573
3676.18856,0.10410
3674.25981,0.10252
3672.33107,0.10123
3670.40232,0.10003
3668.47357,0.09892
3666.54483,0.09811
3664.61608,0.09743
3662.68734,0.09662
3660.75859,0.09575
3658.82985,0.09499
3656.90110,0.09394
3654.97236,0.09251
3653.04361,0.09152
3651.11487,0.09110
3649.18612,0.09088
3647.25738,0.09094
3645.32863,0.09118
3643.39989,0.09139
3641.47114,0.09160
3639.54239,0.09188
3637.61365,0.09238
3635.68490,0.09308
3633.75616,0.09356
3631.82741,0.09359
3629.89867,0.09340
3627.96992,0.09324
3626.04118,0.09321
3624.11243,0.09319
3622.18369,0.09304
3620.25494,0.09294
3618.32620,0.09304
3616.39745,0.09317
3614.46871,0.09331
3612.53996,0.09364
3610.61122,0.09408
3608.68247,0.09435
3606.75372,0.09462
3604.82498,0.09498
3602.89623,0.09525
3600.96749,0.09528
3599.03874,0.09513
3597.11000,0.09496
3595.18125,0.09483
3593.25251,0.09469
3591.32376,0.09451
3589.39502,0.09422
3587.46627,0.09378
3585.53753,0.09326
3583.60878,0.09298
3581.68004,0.09314
3579.75129,0.09342
3577.82254,0.09335
3575.89380,0.09270
3573.96505,0.09192
3572.03631,0.09162
3570.10756,0.09156
3568.17882,0.09131
3566.25007,0.09085
3564.32133,0.09030
3562.39258,0.08964
3560.46384,0.08880
3558.53509,0.08806
3556.60635,0.08767
3554.67760,0.08736
3552.74886,0.08698
3550.82011,0.08659
3548.89137,0.08632
3546.96262,0.08627
3545.03387,0.08622
3543.10513,0.08598
3541.17638,0.08582
3539.24764,0.08579
3537.31889,0.08554
3535.39015,0.08514
3533.46140,0.08503
3531.53266,0.08531
3529.60391,0.08566
3527.67517,0.08581
3525.74642,0.08597
3523.81768,0.08615
3521.88893,0.08600
3519.96019,0.08556
3518.03144,0.08541
3516.10270,0.08563
3514.17395,0.08589
3512.24520,0.08618
3510.31646,0.08656
3508.38771,0.08664
3506.45897,0.08621
3504.53022,0.08572
3502.60148,0.08567
3500.67273,0.08602
3498.74399,0.08645
3496.81524,0.08663
3494.88650,0.08652
3492.95775,0.08638
3491.02901,0.08637
3489.10026,0.08643
3487.17152,0.08663
3485.24277,0.08686
3483.31402,0.08677
3481.38528,0.08648
3479.45653,0.08625
3477.52779,0.08603
3475.59904,0.08571
3473.67030,0.08533
3471.74155,0.08504
3469.81281,0.08497
3467.88406,0.08507
3465.95532,0.08498
3464.02657,0.08434
3462.09783,0.08351
3460.16908,0.08294
3458.24034,0.08238
3456.31159,0.08173
3454.38285,0.08128
3452.45410,0.08100
3450.52535,0.08066
3448.59661,0.08021
3446.66786,0.07993
3444.73912,0.08001
3442.81037,0.08035
3440.88163,0.08083
3438.95288,0.08134
3437.02414,0.08168
3435.09539,0.08171
3433.16665,0.08167
3431.23790,0.08185
3429.30916,0.08225
3427.38041,0.08268
3425.45167,0.08303
3423.52292,0.08320
3421.59418,0.08319
3419.66543,0.08330
3417.73668,0.08358
3415.80794,0.08357
3413.87919,0.08333
3411.95045,0.08340
3410.02170,0.08376
3408.09296,0.08399
3406.16421,0.08383
3404.23547,0.08338
3402.30672,0.08307
3400.37798,0.08302
3398.44923,0.08302
3396.52049,0.08280
3394.59174,0.08235
3392.66300,0.08204
3390.73425,0.08203
3388.80550,0.08201
3386.87676,0.08197
3384.94801,0.08211
3383.01927,0.08216
3381.09052,0.08160
3379.16178,0.08071
3377.23303,0.08014
3375.30429,0.08002
3373.37554,0.07994
3371.44680,0.07965
3369.51805,0.07932
3367.58931,0.07917
3365.66056,0.07896
3363.73182,0.07848
3361.80307,0.07780
3359.87433,0.07709
3357.94558,0.07649
3356.01683,0.07613
3354.08809,0.07590
3352.15934,0.07570
3350.23060,0.07551
3348.30185,0.07490
3346.37311,0.07392
3344.44436,0.07306
3342.51562,0.07231
3340.58687,0.07158
3338.65813,0.07107
3336.72938,0.07073
3334.80064,0.07010
3332.87189,0.06900
3330.94315,0.06799
3329.01440,0.06724
3327.08566,0.06626
3325.15691,0.06517
3323.22816,0.06450
3321.29942,0.06415
3319.37067,0.06363
3317.44193,0.06285
3315.51318,0.06192
3313.58444,0.06099
3311.65569,0.06044
3309.72695,0.06026
3307.79820,0.06000
3305.86946,0.05965
3303.94071,0.05944
3302.01197,0.05946
3300.08322,0.05991
3298.15448,0.06068
3296.22573,0.06148
3294.29698,0.06223
3292.36824,0.06285
3290.43949,0.06334
3288.51075,0.06415
3286.58200,0.06533
3284.65326,0.06622
3282.72451,0.06669
3280.79577,0.06716
3278.86702,0.06782
3276.93828,0.06852
3275.00953,0.06912
3273.08079,0.06951
3271.15204,0.06967
3269.22330,0.06990
3267.29455,0.07051
3265.36581,0.07118
3263.43706,0.07169
3261.50831,0.07219
3259.57957,0.07275
3257.65082,0.07327
3255.72208,0.07355
3253.79333,0.07353
3251.86459,0.07367
3249.93584,0.07437
3248.00710,0.07525
3246.07835,0.07574
3244.14961,0.07582
3242.22086,0.07586
3240.29212,0.07613
3238.36337,0.07665
3236.43463,0.07709
3234.50588,0.07727
3232.57713,0.07736
3230.64839,0.07740
3228.71964,0.07734
3226.79090,0.07736
3224.86215,0.07748
3222.93341,0.07772
3221.00466,0.07801
3219.07592,0.07803
3217.14717,0.07768
3215.21843,0.07730
3213.28968,0.07716
3211.36094,0.07716
3209.43219,0.07708
3207.50345,0.07693
3205.57470,0.07678
3203.64596,0.07681
3201.71721,0.07705
3199.78846,0.07711
3197.85972,0.07706
3195.93097,0.07730
3194.00223,0.07776
3192.07348,0.07819
3190.14474,0.07845
3188.21599,0.07858
3186.28725,0.07850
3184.35850,0.07823
3182.42976,0.07809
3180.50101,0.07826
3178.57227,0.07847
3176.64352,0.07853
3174.71478,0.07858
3172.78603,0.07877
3170.85729,0.07901
3168.92854,0.07900
3166.99979,0.07877
3165.07105,0.07868
3163.14230,0.07878
3161.21356,0.07901
3159.28481,0.07937
3157.35607,0.07962
3155.42732,0.07959
3153.49858,0.07956
3151.56983,0.07973
3149.64109,0.07989
3147.71234,0.07988
3145.78360,0.07975
3143.85485,0.07956
3141.92611,0.07931
3139.99736,0.07904
3138.06861,0.07886
3136.13987,0.07890
3134.21112,0.07898
3132.28238,0.07880
3130.35363,0.07856
3128.42489,0.07836
3126.49614,0.07807
3124.56740,0.07769
3122.63865,0.07706
3120.70991,0.07607
3118.78116,0.07487
3116.85242,0.07359
3114.92367,0.07245
3112.99493,0.07145
3111.06618,0.07020
3109.13744,0.06870
3107.20869,0.06729
3105.27994,0.06620
3103.35120,0.06581
3101.42245,0.06614
3099.49371,0.06650
3097.56496,0.06632
3095.63622,0.06564
3093.70747,0.06454
3091.77873,0.06321
3089.84998,0.06203
3087.92124,0.06095
3085.99249,0.05983
3084.06375,0.05894
3082.13500,0.05870
3080.20626,0.05918
3078.27751,0.05978
3076.34877,0.05990
3074.42002,0.05958
3072.49127,0.05917
3070.56253,0.05885
3068.63378,0.05831
3066.70504,0.05731
3064.77629,0.05638
3062.84755,0.05599
3060.91880,0.05595
3058.99006,0.05614
3057.06131,0.05681
3055.13257,0.05775
3053.20382,0.05854
3051.27508,0.05921
3049.34633,0.05974
3047.41759,0.05993
3045.48884,0.05978
3043.56009,0.05936
3041.63135,0.05878
3039.70260,0.05813
3037.77386,0.05737
3035.84511,0.05642
3033.91637,0.05555
3031.98762,0.05501
3030.05888,0.05478
3028.13013,0.05479
3026.20139,0.05506
3024.27264,0.05565
3022.34390,0.05641
3020.41515,0.05713
3018.48641,0.05799
3016.55766,0.05913
3014.62892,0.06015
3012.70017,0.06060
3010.77142,0.06047
3008.84268,0.05988
3006.91393,0.05913
3004.98519,0.05866
3003.05644,0.05852
3001.12770,0.05841
2999.19895,0.05834
2997.27021,0.05856
2995.34146,0.05882
2993.41272,0.05873
2991.48397,0.05836
2989.55523,0.05795
2987.62648,0.05750
2985.69774,0.05696
2983.76899,0.05632
2981.84025,0.05564
2979.91150,0.05490
2977.98275,0.05407
2976.05401,0.05329
2974.12526,0.05269
2972.19652,0.05225
2970.26777,0.05193
2968.33903,0.05169
2966.41028,0.05142
2964.48154,0.05123
2962.55279,0.05125
2960.62405,0.05150
2958.69530,0.05204
2956.76656,0.05265
2954.83781,0.05301
2952.90907,0.05312
2950.98032,0.05308
2949.05157,0.05299
2947.12283,0.05297
2945.19408,0.05303
2943.26534,0.05313
2941.33659,0.05324
2939.40785,0.05343
2937.47910,0.05395
2935.55036,0.05481
2933.62161,0.05574
2931.69287,0.05661
2929.76412,0.05748
2927.83538,0.05832
2925.90663,0.05920
2923.97789,0.06005
2922.04914,0.06053
2920.12040,0.06069
2918.19165,0.06079
2916.26290,0.06060
2914.33416,0.06001
2912.40541,0.05953
2910.47667,0.05940
2908.54792,0.05926
2906.61918,0.05892
2904.69043,0.05869
2902.76169,0.05877
2900.83294,0.05896
2898.90420,0.05906
2896.97545,0.05900
2895.04671,0.05881
2893.11796,0.05856
2891.18922,0.05840
2889.26047,0.05839
2887.33172,0.05835
2885.40298,0.05813
2883.47423,0.05777
2881.54549,0.05736
2879.61674,0.05706
2877.68800,0.05692
2875.75925,0.05688
2873.83051,0.05691
2871.90176,0.05706
2869.97302,0.05732
2868.04427,0.05749
2866.11553,0.05752
2864.18678,0.05763
2862.25804,0.05800
2860.32929,0.05877
2858.40055,0.05976
2856.47180,0.06050
2854.54305,0.06094
2852.61431,0.06141
2850.68556,0.06183
2848.75682,0.06196
2846.82807,0.06195
2844.89933,0.06207
2842.97058,0.06234
2841.04184,0.06275
2839.11309,0.06351
2837.18435,0.06460
2835.25560,0.06563
2833.32686,0.06634
2831.39811,0.06673
2829.46937,0.06709
2827.54062,0.06753
2825.61188,0.06798
2823.68313,0.06838
2821.75438,0.06852
2819.82564,0.06842
2817.89689,0.06836
2815.96815,0.06861
2814.03940,0.06903
2812.11066,0.06937
2810.18191,0.06965
2808.25317,0.06987
2806.32442,0.06998
2804.39568,0.06999
2802.46693,0.06999
2800.53819,0.07006
2798.60944,0.07026
2796.68070,0.07059
2794.75195,0.07101
2792.82320,0.07137
2790.89446,0.07154
2788.96571,0.07168
2787.03697,0.07189
2785.10822,0.07204
2783.17948,0.07221
2781.25073,0.07245
2779.32199,0.07264
2777.39324,0.07278
2775.46450,0.07291
2773.53575,0.07304
2771.60701,0.07322
2769.67826,0.07347
2767.74952,0.07369
2765.82077,0.07378
2763.89203,0.07364
2761.96328,0.07348
2760.03453,0.07349
2758.10579,0.07354
2756.17704,0.07347
2754.24830,0.07328
2752.31955,0.07309
2750.39081,0.07311
2748.46206,0.07340
2746.53332,0.07366
2744.60457,0.07346
2742.67583,0.07291
2740.74708,0.07245
2738.81834,0.07233
2736.88959,0.07246
2734.96085,0.07266
2733.03210,0.07284
2731.10336,0.07311
2729.17461,0.07343
2727.24586,0.07350
2725.31712,0.07334
2723.38837,0.07334
2721.45963,0.07348
2719.53088,0.07359
2717.60214,0.07376
2715.67339,0.07403
2713.74465,0.07414
2711.81590,0.07405
2709.88716,0.07403
2707.95841,0.07410
2706.02967,0.07409
2704.10092,0.07406
2702.17218,0.07419
2700.24343,0.07441
2698.31468,0.07445
2696.38594,0.07442
2694.45719,0.07455
2692.52845,0.07471
2690.59970,0.07471
2688.67096,0.07456
2686.74221,0.07439
2684.81347,0.07430
2682.88472,0.07420
2680.95598,0.07417
2679.02723,0.07435
2677.09849,0.07441
2675.16974,0.07404
2673.24100,0.07366
2671.31225,0.07367
2669.38351,0.07391
2667.45476,0.07416
2665.52601,0.07430
2663.59727,0.07416
2661.66852,0.07387
2659.73978,0.07377
2657.81103,0.07398
2655.88229,0.07438
2653.95354,0.07487
2652.02480,0.07516
2650.09605,0.07505
2648.16731,0.07475
2646.23856,0.07451
2644.30982,0.07442
2642.38107,0.07451
2640.45233,0.07451
2638.52358,0.07420
2636.59484,0.07375
2634.66609,0.07347
2632.73734,0.07344
2630.80860,0.07356
2628.87985,0.07378
2626.95111,0.07405
2625.02236,0.07409
2623.09362,0.07384
2621.16487,0.07369
2619.23613,0.07385
2617.30738,0.07396
2615.37864,0.07384
2613.44989,0.07367
2611.52115,0.07349
2609.59240,0.07330
2607.66366,0.07322
2605.73491,0.07319
2603.80616,0.07306
2601.87742,0.07294
2599.94867,0.07294
2598.01993,0.07306
2596.09118,0.07322
2594.16244,0.07331
2592.23369,0.07325
2590.30495,0.07315
2588.37620,0.07311
2586.44746,0.07311
2584.51871,0.07302
2582.58997,0.07292
2580.66122,0.07299
2578.73248,0.07310
2576.80373,0.07315
2574.87499,0.07328
2572.94624,0.07345
2571.01749,0.07346
2569.08875,0.07338
2567.16000,0.07327
2565.23126,0.07320
2563.30251,0.07328
2561.37377,0.07336
2559.44502,0.07330
2557.51628,0.07335
2555.58753,0.07354
2553.65879,0.07349
2551.73004,0.07316
2549.80130,0.07294
2547.87255,0.07296
2545.94381,0.07304
2544.01506,0.07316
2542.08631,0.07339
2540.15757,0.07347
2538.22882,0.07326
2536.30008,0.07300
2534.37133,0.07290
2532.44259,0.07288
2530.51384,0.07289
2528.58510,0.07293
2526.65635,0.07291
2524.72761,0.07282
2522.79886,0.07271
2520.87012,0.07259
2518.94137,0.07243
2517.01263,0.07223
2515.08388,0.07212
2513.15514,0.07214
2511.22639,0.07212
2509.29764,0.07215
2507.36890,0.07232
2505.44015,0.07237
2503.51141,0.07216
2501.58266,0.07204
2499.65392,0.07214
2497.72517,0.07228
2495.79643,0.07248
2493.86768,0.07274
2491.93894,0.07279
2490.01019,0.07272
2488.08145,0.07277
2486.15270,0.07281
2484.22396,0.07275
2482.29521,0.07280
2480.36647,0.07314
2478.43772,0.07355
2476.50897,0.07370
2474.58023,0.07364
2472.65148,0.07366
2470.72274,0.07372
2468.79399,0.07377
2466.86525,0.07393
2464.93650,0.07407
2463.00776,0.07411
2461.07901,0.07421
2459.15027,0.07433
2457.22152,0.07428
2455.29278,0.07425
2453.36403,0.07435
2451.43529,0.07439
2449.50654,0.07436
2447.57779,0.07441
2445.64905,0.07447
2443.72030,0.07444
2441.79156,0.07446
2439.86281,0.07458
2437.93407,0.07457
2436.00532,0.07438
2434.07658,0.07428
2432.14783,0.07437
2430.21909,0.07451
2428.29034,0.07458
2426.36160,0.07454
2424.43285,0.07437
2422.50411,0.07418
2420.57536,0.07410
2418.64662,0.07406
2416.71787,0.07399
2414.78912,0.07403
2412.86038,0.07426
2410.93163,0.07446
2409.00289,0.07451
2407.07414,0.07445
2405.14540,0.07441
2403.21665,0.07447
2401.28791,0.07450
2399.35916,0.07440
2397.43042,0.07426
2395.50167,0.07419
2393.57293,0.07426
2391.64418,0.07447
2389.71544,0.07462
2387.78669,0.07462
2385.85795,0.07461
2383.92920,0.07484
2382.00045,0.07511
2380.07171,0.07514
2378.14296,0.07503
2376.21422,0.07498
2374.28547,0.07491
2372.35673,0.07473
2370.42798,0.07465
2368.49924,0.07468
2366.57049,0.07455
2364.64175,0.07427
2362.71300,0.07412
2360.78426,0.07403
2358.85551,0.07376
2356.92677,0.07354
2354.99802,0.07362
2353.06927,0.07375
2351.14053,0.07359
2349.21178,0.07321
2347.28304,0.07278
2345.35429,0.07246
2343.42555,0.07228
2341.49680,0.07220
2339.56806,0.07218
2337.63931,0.07221
2335.71057,0.07232
2333.78182,0.07265
2331.85308,0.07314
2329.92433,0.07363
2327.99559,0.07401
2326.06684,0.07429
2324.13810,0.07443
2322.20935,0.07439
2320.28060,0.07432
2318.35186,0.07432
2316.42311,0.07428
2314.49437,0.07417
2312.56562,0.07408
2310.63688,0.07421
2308.70813,0.07456
2306.77939,0.07487
2304.85064,0.07501
2302.92190,0.07505
2300.99315,0.07506
2299.06441,0.07507
2297.13566,0.07505
2295.20692,0.07499
2293.27817,0.07488
2291.34943,0.07474
2289.42068,0.07461
2287.49193,0.07445
2285.56319,0.07435
2283.63444,0.07432
2281.70570,0.07427
2279.77695,0.07409
2277.84821,0.07382
2275.91946,0.07366
2273.99072,0.07360
2272.06197,0.07341
2270.13323,0.07316
2268.20448,0.07292
2266.27574,0.07269
2264.34699,0.07256
2262.41825,0.07242
2260.48950,0.07207
2258.56075,0.07144
2256.63201,0.07047
2254.70326,0.06918
2252.77452,0.06755
2250.84577,0.06545
2248.91703,0.06301
2246.98828,0.06063
2245.05954,0.05846
2243.13079,0.05673
2241.20205,0.05585
2239.27330,0.05567
2237.34456,0.05587
2235.41581,0.05652
2233.48707,0.05790
2231.55832,0.06028
2229.62958,0.06366
2227.70083,0.06743
2225.77208,0.07087
2223.84334,0.07363
2221.91459,0.07562
2219.98585,0.07694
2218.05710,0.07779
2216.12836,0.07834
2214.19961,0.07864
2212.27087,0.07876
2210.34212,0.07895
2208.41338,0.07931
2206.48463,0.07976
2204.55589,0.08024
2202.62714,0.08052
2200.69840,0.08051
2198.76965,0.08049
2196.84090,0.08061
2194.91216,0.08072
2192.98341,0.08068
2191.05467,0.08045
2189.12592,0.08017
2187.19718,0.07993
2185.26843,0.07989
2183.33969,0.08020
2181.41094,0.08068
2179.48220,0.08105
2177.55345,0.08137
2175.62471,0.08174
2173.69596,0.08205
2171.76722,0.08227
2169.83847,0.08248
2167.90973,0.08260
2165.98098,0.08246
2164.05223,0.08220
2162.12349,0.08211
2160.19474,0.08220
2158.26600,0.08228
2156.33725,0.08244
2154.40851,0.08259
2152.47976,0.08243
2150.55102,0.08197
2148.62227,0.08142
2146.69353,0.08099
2144.76478,0.08084
2142.83604,0.08088
2140.90729,0.08094
2138.97855,0.08105
2137.04980,0.08134
2135.12106,0.08177
2133.19231,0.08209
2131.26356,0.08229
2129.33482,0.08264
2127.40607,0.08320
2125.47733,0.08377
2123.54858,0.08434
2121.61984,0.08499
2119.69109,0.08563
2117.76235,0.08616
2115.83360,0.08656
2113.90486,0.08691
2111.97611,0.08727
2110.04737,0.08761
2108.11862,0.08786
2106.18988,0.08801
2104.26113,0.08808
2102.33238,0.08815
2100.40364,0.08830
2098.47489,0.08848
2096.54615,0.08868
2094.61740,0.08886
2092.68866,0.08889
2090.75991,0.08891
2088.83117,0.08903
2086.90242,0.08904
2084.97368,0.08886
2083.04493,0.08865
2081.11619,0.08841
2079.18744,0.08808
2077.25870,0.08776
2075.32995,0.08764
2073.40121,0.08765
2071.47246,0.08757
2069.54371,0.08739
2067.61497,0.08721
2065.68622,0.08696
2063.75748,0.08662
2061.82873,0.08627
2059.89999,0.08595
2057.97124,0.08578
2056.04250,0.08567
2054.11375,0.08546
2052.18501,0.08521
2050.25626,0.08504
2048.32752,0.08487
2046.39877,0.08459
2044.47003,0.08427
2042.54128,0.08387
2040.61254,0.08337
2038.68379,0.08291
2036.75504,0.08259
2034.82630,0.08238
2032.89755,0.08224
2030.96881,0.08214
2029.04006,0.08210
2027.11132,0.08209
2025.18257,0.08202
2023.25383,0.08186
2021.32508,0.08182
2019.39634,0.08196
2017.46759,0.08206
2015.53885,0.08202
2013.61010,0.08202
2011.68136,0.08218
2009.75261,0.08234
2007.82386,0.08224
2005.89512,0.08197
2003.96637,0.08172
2002.03763,0.08147
2000.10888,0.08106
1998.18014,0.08041
1996.25139,0.07958
1994.32265,0.07886
1992.39390,0.07836
1990.46516,0.07791
1988.53641,0.07741
1986.60767,0.07703
1984.67892,0.07678
1982.75018,0.07646
1980.82143,0.07608
1978.89269,0.07570
1976.96394,0.07522
1975.03519,0.07460
1973.10645,0.07392
1971.17770,0.07326
1969.24896,0.07260
1967.32021,0.07186
1965.39147,0.07099
1963.46272,0.07000
1961.53398,0.06922
1959.60523,0.06888
1957.67649,0.06877
1955.74774,0.06868
1953.81900,0.06871
1951.89025,0.06888
1949.96151,0.06919
1948.03276,0.06965
1946.10402,0.07026
1944.17527,0.07106
1942.24652,0.07208
1940.31778,0.07329
1938.38903,0.07457
1936.46029,0.07575
1934.53154,0.07675
1932.60280,0.07766
1930.67405,0.07849
1928.74531,0.07909
1926.81656,0.07960
1924.88782,0.08026
1922.95907,0.08078
1921.03033,0.08082
1919.10158,0.08061
1917.17284,0.08043
1915.24409,0.08031
1913.31534,0.08000
1911.38660,0.07932
1909.45785,0.07844
1907.52911,0.07758
1905.60036,0.07673
1903.67162,0.07592
1901.74287,0.07517
1899.81413,0.07443
1897.88538,0.07367
1895.95664,0.07298
1894.02789,0.07248
1892.09915,0.07215
1890.17040,0.07190
1888.24166,0.07163
1886.31291,0.07129
1884.38417,0.07088
1882.45542,0.07061
1880.52667,0.07058
1878.59793,0.07072
1876.66918,0.07105
1874.74044,0.07166
1872.81169,0.07240
1870.88295,0.07327
1868.95420,0.07440
1867.02546,0.07581
1865.09671,0.07727
1863.16797,0.07852
1861.23922,0.07954
1859.31048,0.08046
1857.38173,0.08124
1855.45299,0.08166
1853.52424,0.08171
1851.59549,0.08159
1849.66675,0.08132
1847.73800,0.08084
1845.80926,0.08017
1843.88051,0.07941
1841.95177,0.07865
1840.02302,0.07776
1838.09428,0.07671
1836.16553,0.07564
1834.23679,0.07470
1832.30804,0.07381
1830.37930,0.07269
1828.45055,0.07138
1826.52181,0.07017
1824.59306,0.06897
1822.66432,0.06777
1820.73557,0.06685
1818.80682,0.06612
1816.87808,0.06528
1814.94933,0.06441
1813.02059,0.06367
1811.09184,0.06300
1809.16310,0.06235
1807.23435,0.06170
1805.30561,0.06111
1803.37686,0.06055
1801.44812,0.05997
1799.51937,0.05946
1797.59063,0.05908
1795.66188,0.05894
1793.73314,0.05906
1791.80439,0.05919
1789.87565,0.05917
1787.94690,0.05921
1786.01815,0.05947
1784.08941,0.05982
1782.16066,0.05992
1780.23192,0.05965
1778.30317,0.05928
1776.37443,0.05903
1774.44568,0.05871
1772.51694,0.05810
1770.58819,0.05730
1768.65945,0.05660
1766.73070,0.05605
1764.80196,0.05547
1762.87321,0.05468
1760.94447,0.05371
1759.01572,0.05290
1757.08697,0.05229
1755.15823,0.05156
1753.22948,0.05067
1751.30074,0.04978
1749.37199,0.04890
1747.44325,0.04793
1745.51450,0.04704
1743.58576,0.04657
1741.65701,0.04686
1739.72827,0.04795
1737.79952,0.04943
1735.87078,0.05116
1733.94203,0.05333
1732.01329,0.05549
1730.08454,0.05707
1728.15580,0.05819
1726.22705,0.05900
1724.29830,0.05954
1722.36956,0.05972
1720.44081,0.05961
1718.51207,0.05937
1716.58332,0.05895
1714.65458,0.05848
1712.72583,0.05827
1710.79709,0.05829
1708.86834,0.05831
1706.93960,0.05826
1705.01085,0.05829
1703.08211,0.05845
1701.15336,0.05861
1699.22462,0.05867
1697.29587,0.05864
1695.36713,0.05853
1693.43838,0.05845
1691.50963,0.05853
1689.58089,0.05862
1687.65214,0.05871
1685.72340,0.05900
1683.79465,0.05947
1681.86591,0.05965
1679.93716,0.05953
1678.00842,0.05946
1676.07967,0.05950
1674.15093,0.05954
1672.22218,0.05954
1670.29344,0.05946
1668.36469,0.05917
1666.43595,0.05879
1664.50720,0.05851
1662.57845,0.05834
1660.64971,0.05821
1658.72096,0.05822
1656.79222,0.05846
1654.86347,0.05859
1652.93473,0.05814
1651.00598,0.05776
1649.07724,0.05800
1647.14849,0.05834
1645.21975,0.05846
1643.29100,0.05843
1641.36226,0.05844
1639.43351,0.05855
1637.50477,0.05878
1635.57602,0.05925
1633.64728,0.05981
1631.71853,0.06005
1629.78978,0.06000
1627.86104,0.05988
1625.93229,0.05971
1624.00355,0.05949
1622.07480,0.05931
1620.14606,0.05933
1618.21731,0.05942
1616.28857,0.05914
1614.35982,0.05851
1612.43108,0.05803
1610.50233,0.05761
1608.57359,0.05684
1606.64484,0.05583
1604.71610,0.05516
1602.78735,0.05500
1600.85861,0.05522
1598.92986,0.05577
1597.00111,0.05660
1595.07237,0.05748
1593.14362,0.05807
1591.21488,0.05826
1589.28613,0.05807
1587.35739,0.05751
1585.42864,0.05671
1583.49990,0.05608
1581.57115,0.05604
1579.64241,0.05652
1577.71366,0.05694
1575.78492,0.05703
1573.85617,0.05710
1571.92743,0.05713
1569.99868,0.05684
1568.06993,0.05641
1566.14119,0.05603
1564.21244,0.05577
1562.28370,0.05579
1560.35495,0.05588
1558.42621,0.05552
1556.49746,0.05496
1554.56872,0.05467
1552.63997,0.05465
1550.71123,0.05476
1548.78248,0.05479
1546.85374,0.05486
1544.92499,0.05517
1542.99625,0.05561
1541.06750,0.05601
1539.13876,0.05623
1537.21001,0.05638
1535.28126,0.05664
1533.35252,0.05694
1531.42377,0.05736
1529.49503,0.05799
1527.56628,0.05855
1525.63754,0.05875
1523.70879,0.05873
1521.78005,0.05875
1519.85130,0.05879
1517.92256,0.05874
1515.99381,0.05875
1514.06507,0.05886
1512.13632,0.05887
1510.20758,0.05860
1508.27883,0.05789
1506.35008,0.05668
1504.42134,0.05553
1502.49259,0.05451
1500.56385,0.05313
1498.63510,0.05148
1496.70636,0.05054
1494.77761,0.05111
1492.84887,0.05265
1490.92012,0.05399
1488.99138,0.05450
1487.06263,0.05442
1485.13389,0.05429
1483.20514,0.05415
1481.27640,0.05382
1479.34765,0.05331
1477.41891,0.05282
1475.49016,0.05244
1473.56141,0.05217
1471.63267,0.05208
1469.70392,0.05218
1467.77518,0.05232
1465.84643,0.05231
1463.91769,0.05200
1461.98894,0.05154
1460.06020,0.05105
1458.13145,0.05058
1456.20271,0.05078
1454.27396,0.05207
1452.34522,0.05365
1450.41647,0.05492
1448.48773,0.05580
1446.55898,0.05638
1444.63024,0.05665
1442.70149,0.05666
1440.77274,0.05655
1438.84400,0.05656
1436.91525,0.05663
1434.98651,0.05657
1433.05776,0.05651
1431.12902,0.05662
1429.20027,0.05681
1427.27153,0.05700
1425.34278,0.05702
1423.41404,0.05680
1421.48529,0.05656
1419.55655,0.05641
1417.62780,0.05635
1415.69906,0.05657
1413.77031,0.05684
1411.84156,0.05668
1409.91282,0.05620
1407.98407,0.05582
1406.05533,0.05547
1404.12658,0.05491
1402.19784,0.05440
1400.26909,0.05424
1398.34035,0.05418
1396.41160,0.05393
1394.48286,0.05359
1392.55411,0.05340
1390.62537,0.05344
1388.69662,0.05353
1386.76788,0.05350
1384.83913,0.05341
1382.91039,0.05330
1380.98164,0.05322
1379.05289,0.05329
1377.12415,0.05346
1375.19540,0.05352
1373.26666,0.05346
1371.33791,0.05340
1369.40917,0.05342
1367.48042,0.05354
1365.55168,0.05369
1363.62293,0.05378
1361.69419,0.05380
1359.76544,0.05381
1357.83670,0.05384
1355.90795,0.05388
1353.97921,0.05396
1352.05046,0.05405
1350.12172,0.05400
1348.19297,0.05377
1346.26422,0.05349
1344.33548,0.05338
1342.40673,0.05341
1340.47799,0.05338
1338.54924,0.05328
1336.62050,0.05320
1334.69175,0.05315
1332.76301,0.05311
1330.83426,0.05311
1328.90552,0.05320
1326.97677,0.05328
1325.04803,0.05328
1323.11928,0.05328
1321.19054,0.05323
1319.26179,0.05314
1317.33304,0.05309
1315.40430,0.05306
1313.47555,0.05306
1311.54681,0.05301
1309.61806,0.05282
1307.68932,0.05265
1305.76057,0.05268
1303.83183,0.05278
1301.90308,0.05286
1299.97434,0.05293
1298.04559,0.05290
1296.11685,0.05278
1294.18810,0.05267
1292.25936,0.05252
1290.33061,0.05230
1288.40187,0.05212
1286.47312,0.05198
1284.54437,0.05171
1282.61563,0.05145
1280.68688,0.05145
1278.75814,0.05153
1276.82939,0.05148
1274.90065,0.05145
1272.97190,0.05155
1271.04316,0.05159
1269.11441,0.05158
1267.18567,0.05181
1265.25692,0.05225
1263.32818,0.05254
1261.39943,0.05263
1259.47069,0.05266
1257.54194,0.05273
1255.61320,0.05294
1253.68445,0.05312
1251.75570,0.05299
1249.82696,0.05280
1247.89821,0.05287
1245.96947,0.05304
1244.04072,0.05328
1242.11198,0.05374
1240.18323,0.05418
1238.25449,0.05438
1236.32574,0.05437
1234.39700,0.05424
1232.46825,0.05405
1230.53951,0.05397
1228.61076,0.05405
1226.68202,0.05412
1224.75327,0.05405
1222.82452,0.05390
1220.89578,0.05374
1218.96703,0.05359
1217.03829,0.05342
1215.10954,0.05325
1213.18080,0.05303
1211.25205,0.05282
1209.32331,0.05277
1207.39456,0.05284
1205.46582,0.05279
1203.53707,0.05250
1201.60833,0.05234
1199.67958,0.05251
1197.75084,0.05265
1195.82209,0.05249
1193.89335,0.05209
1191.96460,0.05170
1190.03585,0.05147
1188.10711,0.05138
1186.17836,0.05142
1184.24962,0.05162
1182.32087,0.05186
1180.39213,0.05196
1178.46338,0.05206
1176.53464,0.05241
1174.60589,0.05293
1172.67715,0.05351
1170.74840,0.05411
1168.81966,0.05469
1166.89091,0.05534
1164.96217,0.05617
1163.03342,0.05708
1161.10467,0.05798
1159.17593,0.05888
1157.24718,0.05962
1155.31844,0.06010
1153.38969,0.06041
1151.46095,0.06056
1149.53220,0.06047
1147.60346,0.06031
1145.67471,0.06028
1143.74597,0.06029
1141.81722,0.06001
1139.88848,0.05947
1137.95973,0.05898
1136.03099,0.05861
1134.10224,0.05815
1132.17350,0.05760
1130.24475,0.05724
1128.31600,0.05703
1126.38726,0.05676
1124.45851,0.05653
1122.52977,0.05650
1120.60102,0.05669
1118.67228,0.05693
1116.74353,0.05701
1114.81479,0.05701
1112.88604,0.05701
1110.95730,0.05686
1109.02855,0.05678
1107.09981,0.05700
1105.17106,0.05707
1103.24232,0.05676
1101.31357,0.05634
1099.38483,0.05585
1097.45608,0.05550
1095.52733,0.05538
1093.59859,0.05524
1091.66984,0.05506
1089.74110,0.05509
1087.81235,0.05526
1085.88361,0.05519
1083.95486,0.05499
1082.02612,0.05493
1080.09737,0.05473
1078.16863,0.05437
1076.23988,0.05435
1074.31114,0.05459
1072.38239,0.05474
1070.45365,0.05486
1068.52490,0.05511
1066.59615,0.05551
1064.66741,0.05593
1062.73866,0.05628
1060.80992,0.05642
1058.88117,0.05628
1056.95243,0.05612
1055.02368,0.05615
1053.09494,0.05626
1051.16619,0.05613
1049.23745,0.05588
1047.30870,0.05583
1045.37996,0.05591
1043.45121,0.05596
1041.52247,0.05598
1039.59372,0.05603
1037.66498,0.05618
1035.73623,0.05621
1033.80748,0.05596
1031.87874,0.05572
1029.94999,0.05584
1028.02125,0.05621
1026.09250,0.05654
1024.16376,0.05689
1022.23501,0.05725
1020.30627,0.05746
1018.37752,0.05753
1016.44878,0.05749
1014.52003,0.05738
1012.59129,0.05726
1010.66254,0.05701
1008.73380,0.05654
1006.80505,0.05603
1004.87631,0.05577
1002.94756,0.05594
1001.01881,0.05630
999.09007,0.05644
997.16132,0.05628
995.23258,0.05593
993.30383,0.05558
991.37509,0.05547
989.44634,0.05560
987.51760,0.05574
985.58885,0.05583
983.66011,0.05577
981.73136,0.05549
979.80262,0.05528
977.87387,0.05534
975.94513,0.05542
974.01638,0.05536
972.08763,0.05532
970.15889,0.05526
968.23014,0.05502
966.30140,0.05476
964.37265,0.05471
962.44391,0.05485
960.51516,0.05497
958.58642,0.05496
956.65767,0.05488
954.72893,0.05490
952.80018,0.05505
950.87144,0.05521
948.94269,0.05532
947.01395,0.05535
945.08520,0.05515
943.15646,0.05501
941.22771,0.05538
939.29896,0.05598
937.37022,0.05609
935.44147,0.05582
933.51273,0.05571
931.58398,0.05560
929.65524,0.05513
927.72649,0.05463
925.79775,0.05450
923.86900,0.05447
921.94026,0.05440
920.01151,0.05446
918.08277,0.05459
916.15402,0.05471
914.22528,0.05461
912.29653,0.05418
910.36779,0.05402
908.43904,0.05448
906.51029,0.05486
904.58155,0.05473
902.65280,0.05458
900.72406,0.05473
898.79531,0.05488
896.86657,0.05484
894.93782,0.05468
893.00908,0.05433
891.08033,0.05385
889.15159,0.05355
887.22284,0.05353
885.29410,0.05353
883.36535,0.05363
881.43661,0.05403
879.50786,0.05437
877.57911,0.05427
875.65037,0.05408
873.72162,0.05421
871.79288,0.05438
869.86413,0.05425
867.93539,0.05407
866.00664,0.05403
864.07790,0.05391
862.14915,0.05363
860.22041,0.05337
858.29166,0.05317
856.36292,0.05305
854.43417,0.05286
852.50543,0.05262
850.57668,0.05260
848.64794,0.05272
846.71919,0.05272
844.79044,0.05266
842.86170,0.05271
840.93295,0.05292
839.00421,0.05326
837.07546,0.05340
835.14672,0.05319
833.21797,0.05313
831.28923,0.05349
829.36048,0.05375
827.43174,0.05343
825.50299,0.05278
823.57425,0.05241
821.64550,0.05240
819.71676,0.05248
817.78801,0.05239
815.85926,0.05207
813.93052,0.05178
812.00177,0.05155
810.07303,0.05143
808.14428,0.05161
806.21554,0.05164
804.28679,0.05126
802.35805,0.05086
800.42930,0.05059
798.50056,0.05036
796.57181,0.05031
794.64307,0.05034
792.71432,0.05022
790.78558,0.05011
788.85683,0.05010
786.92809,0.04983
784.99934,0.04902
783.07059,0.04807
781.14185,0.04744
779.21310,0.04722
777.28436,0.04728
775.35561,0.04723
773.42687,0.04685
771.49812,0.04635
769.56938,0.04614
767.64063,0.04663
765.71189,0.04769
763.78314,0.04890
761.85440,0.05016
759.92565,0.05149
757.99691,0.05291
756.06816,0.05431
754.13942,0.05518
752.21067,0.05524
750.28192,0.05478
748.35318,0.05405
746.42443,0.05320
744.49569,0.05277
742.56694,0.05288
740.63820,0.05308
738.70945,0.05330
736.78071,0.05345
734.85196,0.05326
732.92322,0.05282
730.99447,0.05237
729.06573,0.05197
727.13698,0.05145
725.20824,0.05043
723.27949,0.04917
721.35074,0.04818
719.42200,0.04686
717.49325,0.04497
715.56451,0.04347
713.63576,0.04249
711.70702,0.04139
709.77827,0.04063
707.84953,0.04144
705.92078,0.04479
703.99204,0.05085
702.06329,0.05873
700.13455,0.06648
698.20580,0.07134
696.27706,0.07193
694.34831,0.06974
692.41957,0.06720
690.49082,0.06517
688.56207,0.06327
686.63333,0.06149
684.70458,0.06016
682.77584,0.05918
680.84709,0.05836
678.91835,0.05806
676.98960,0.05825
675.06086,0.05816
673.13211,0.05767
671.20337,0.05725
669.27462,0.05679
667.34588,0.05619
665.41713,0.05589
663.48839,0.05600
661.55964,0.05633
659.63090,0.05668
657.70215,0.05654
655.77340,0.05601
653.84466,0.05569
651.91591,0.05564
649.98717,0.05562
648.05842,0.05546
646.12968,0.05510
644.20093,0.05479
642.27219,0.05496
640.34344,0.05555
638.41470,0.05592
636.48595,0.05579
634.55721,0.05570
632.62846,0.05604
630.69972,0.05650
628.77097,0.05670
626.84222,0.05640
624.91348,0.05579
622.98473,0.05512
621.05599,0.05476
619.12724,0.05498
617.19850,0.05467
615.26975,0.05359
613.34101,0.05336
611.41226,0.05391
609.48352,0.05398
607.55477,0.05403
605.62603,0.05456
603.69728,0.05457
601.76854,0.05396
599.83979,0.05350
