7497.03301,0.75079
7495.10426,0.74775
7493.17552,0.75123
7491.24677,0.75614
7489.31803,0.75575
7487.38928,0.75159
7485.46054,0.75032
7483.53179,0.75131
7481.60305,0.75317
7479.67430,0.75466
7477.74556,0.75198
7475.81681,0.74900
7473.88807,0.75126
7471.95932,0.75463
7470.03057,0.75386
7468.10183,0.75072
7466.17308,0.74726
7464.24434,0.74314
7462.31559,0.74044
7460.38685,0.73980
7458.45810,0.73909
7456.52936,0.74000
7454.60061,0.74378
7452.67187,0.74705
7450.74312,0.74748
7448.81438,0.74544
7446.88563,0.74279
7444.95689,0.74089
7443.02814,0.73730
7441.09940,0.73114
7439.17065,0.72785
7437.24190,0.73003
7435.31316,0.73298
7433.38441,0.73341
7431.45567,0.73271
7429.52692,0.73353
7427.59818,0.73703
7425.66943,0.74030
7423.74069,0.74017
7421.81194,0.73881
7419.88320,0.73903
7417.95445,0.73964
7416.02571,0.73798
7414.09696,0.73284
7412.16822,0.72812
7410.23947,0.72851
7408.31073,0.72929
7406.38198,0.72717
7404.45323,0.72893
7402.52449,0.73578
7400.59574,0.74032
7398.66700,0.73872
7396.73825,0.73390
7394.80951,0.73163
7392.88076,0.73350
7390.95202,0.73537
7389.02327,0.73454
7387.09453,0.73222
7385.16578,0.73065
7383.23704,0.73083
7381.30829,0.73124
7379.37955,0.73238
7377.45080,0.73497
7375.52205,0.73413
7373.59331,0.72803
7371.66456,0.72091
7369.73582,0.71661
7367.80707,0.71784
7365.87833,0.72319
7363.94958,0.72674
7362.02084,0.72568
7360.09209,0.72316
7358.16335,0.72183
7356.23460,0.72191
7354.30586,0.72438
7352.37711,0.72893
7350.44837,0.73223
7348.51962,0.73173
7346.59088,0.72856
7344.66213,0.72495
7342.73338,0.72124
7340.80464,0.71642
7338.87589,0.71008
7336.94715,0.70473
7335.01840,0.70479
7333.08966,0.70978
7331.16091,0.71173
7329.23217,0.70781
7327.30342,0.70514
7325.37468,0.70599
7323.44593,0.70533
7321.51719,0.70203
7319.58844,0.69942
7317.65970,0.69921
7315.73095,0.70066
7313.80221,0.70162
7311.87346,0.70085
7309.94471,0.69896
7308.01597,0.69432
7306.08722,0.68793
7304.15848,0.68418
7302.22973,0.68258
7300.30099,0.68308
7298.37224,0.68665
7296.44350,0.68851
7294.51475,0.68570
7292.58601,0.68090
7290.65726,0.67563
7288.72852,0.66980
7286.79977,0.66473
7284.87103,0.66180
7282.94228,0.66190
7281.01353,0.66388
7279.08479,0.66334
7277.15604,0.65905
7275.22730,0.65318
7273.29855,0.64703
7271.36981,0.64373
7269.44106,0.64450
7267.51232,0.64495
7265.58357,0.64303
7263.65483,0.64103
7261.72608,0.64054
7259.79734,0.64212
7257.86859,0.64518
7255.93985,0.64662
7254.01110,0.64311
7252.08236,0.63587
7250.15361,0.63122
7248.22486,0.63141
7246.29612,0.63020
7244.36737,0.62482
7242.43863,0.62109
7240.50988,0.62124
7238.58114,0.62303
7236.65239,0.62664
7234.72365,0.62975
7232.79490,0.62853
7230.86616,0.62643
7228.93741,0.62652
7227.00867,0.62288
7225.07992,0.61417
7223.15118,0.60944
7221.22243,0.61185
7219.29369,0.61450
7217.36494,0.61365
7215.43619,0.61224
7213.50745,0.61284
7211.57870,0.61397
7209.64996,0.61204
7207.72121,0.60895
7205.79247,0.60944
7203.86372,0.61092
7201.93498,0.61065
7200.00623,0.61243
7198.07749,0.61681
7196.14874,0.61878
7194.22000,0.61736
7192.29125,0.61559
7190.36251,0.61225
7188.43376,0.60691
7186.50501,0.60443
7184.57627,0.60602
7182.64752,0.60816
7180.71878,0.60900
7178.79003,0.60891
7176.86129,0.60891
7174.93254,0.60922
7173.00380,0.60787
7171.07505,0.60306
7169.14631,0.59758
7167.21756,0.59714
7165.28882,0.60097
7163.36007,0.60116
7161.43133,0.59748
7159.50258,0.59677
7157.57384,0.59802
7155.64509,0.59791
7153.71634,0.59721
7151.78760,0.59574
7149.85885,0.59563
7147.93011,0.59694
7146.00136,0.59529
7144.07262,0.59122
7142.14387,0.58727
7140.21513,0.58657
7138.28638,0.59094
7136.35764,0.59424
7134.42889,0.59250
7132.50015,0.58903
7130.57140,0.58761
7128.64266,0.58788
7126.71391,0.58645
7124.78516,0.58557
7122.85642,0.58846
7120.92767,0.59057
7118.99893,0.58885
7117.07018,0.58641
7115.14144,0.58602
7113.21269,0.58715
7111.28395,0.58801
7109.35520,0.58838
7107.42646,0.58838
7105.49771,0.58646
7103.56897,0.58348
7101.64022,0.58405
7099.71148,0.58885
7097.78273,0.59309
7095.85399,0.59480
7093.92524,0.59435
7091.99649,0.59073
7090.06775,0.58544
7088.13900,0.58111
7086.21026,0.57981
7084.28151,0.58058
7082.35277,0.57820
7080.42402,0.57486
7078.49528,0.57696
7076.56653,0.58062
7074.63779,0.58015
7072.70904,0.57740
7070.78030,0.57529
7068.85155,0.57351
7066.92281,0.57138
7064.99406,0.56987
7063.06532,0.57047
7061.13657,0.57419
7059.20782,0.57774
7057.27908,0.57645
7055.35033,0.57364
7053.42159,0.57387
7051.49284,0.57578
7049.56410,0.57753
7047.63535,0.57857
7045.70661,0.57927
7043.77786,0.57980
7041.84912,0.57798
7039.92037,0.57460
7037.99163,0.57477
7036.06288,0.57733
7034.13414,0.57682
7032.20539,0.57471
7030.27664,0.57361
7028.34790,0.57264
7026.41915,0.57315
7024.49041,0.57610
7022.56166,0.57866
7020.63292,0.57862
7018.70417,0.57758
7016.77543,0.57724
7014.84668,0.57619
7012.91794,0.57429
7010.98919,0.57358
7009.06045,0.57358
7007.13170,0.57293
7005.20296,0.57323
7003.27421,0.57473
7001.34547,0.57546
6999.41672,0.57529
6997.48797,0.57491
6995.55923,0.57537
6993.63048,0.57782
6991.70174,0.58117
6989.77299,0.58368
6987.84425,0.58422
6985.91550,0.58216
6983.98676,0.57974
6982.05801,0.58075
6980.12927,0.58527
6978.20052,0.58973
6976.27178,0.59106
6974.34303,0.59023
6972.41429,0.59028
6970.48554,0.59056
6968.55680,0.59030
6966.62805,0.59181
6964.69930,0.59456
6962.77056,0.59618
6960.84181,0.59566
6958.91307,0.59401
6956.98432,0.59543
6955.05558,0.60022
6953.12683,0.60346
6951.19809,0.60379
6949.26934,0.60333
6947.34060,0.60360
6945.41185,0.60423
6943.48311,0.60443
6941.55436,0.60469
6939.62562,0.60562
6937.69687,0.60664
6935.76812,0.60705
6933.83938,0.60878
6931.91063,0.61304
6929.98189,0.61581
6928.05314,0.61419
6926.12440,0.60982
6924.19565,0.60544
6922.26691,0.60450
6920.33816,0.60740
6918.40942,0.60912
6916.48067,0.60808
6914.55193,0.60841
6912.62318,0.61146
6910.69444,0.61444
6908.76569,0.61461
6906.83695,0.61283
6904.90820,0.61218
6902.97945,0.61304
6901.05071,0.61395
6899.12196,0.61455
6897.19322,0.61557
6895.26447,0.61716
6893.33573,0.61779
6891.40698,0.61696
6889.47824,0.61577
6887.54949,0.61557
6885.62075,0.61833
6883.69200,0.62350
6881.76326,0.62689
6879.83451,0.62664
6877.90577,0.62381
6875.97702,0.62036
6874.04828,0.61857
6872.11953,0.61778
6870.19078,0.61753
6868.26204,0.62018
6866.33329,0.62434
6864.40455,0.62572
6862.47580,0.62468
6860.54706,0.62432
6858.61831,0.62513
6856.68957,0.62649
6854.76082,0.62834
6852.83208,0.63008
6850.90333,0.63070
6848.97459,0.63005
6847.04584,0.63011
6845.11710,0.63145
6843.18835,0.63144
6841.25960,0.63033
6839.33086,0.63013
6837.40211,0.63091
6835.47337,0.63328
6833.54462,0.63626
6831.61588,0.63812
6829.68713,0.63925
6827.75839,0.63826
6825.82964,0.63399
6823.90090,0.62880
6821.97215,0.62584
6820.04341,0.62642
6818.11466,0.62871
6816.18592,0.63066
6814.25717,0.63256
6812.32843,0.63373
6810.39968,0.63298
6808.47093,0.63209
6806.54219,0.63337
6804.61344,0.63555
6802.68470,0.63511
6800.75595,0.63211
6798.82721,0.63123
6796.89846,0.63484
6794.96972,0.63859
6793.04097,0.63785
6791.11223,0.63552
6789.18348,0.63571
6787.25474,0.63644
6785.32599,0.63661
6783.39725,0.63734
6781.46850,0.63567
6779.53975,0.63110
6777.61101,0.62937
6775.68226,0.63210
6773.75352,0.63539
6771.82477,0.63667
6769.89603,0.63603
6767.96728,0.63544
6766.03854,0.63606
6764.10979,0.63729
6762.18105,0.63802
6760.25230,0.63719
6758.32356,0.63629
6756.39481,0.63816
6754.46607,0.64299
6752.53732,0.64708
6750.60858,0.64686
6748.67983,0.64327
6746.75108,0.64036
6744.82234,0.64069
6742.89359,0.64198
6740.96485,0.64174
6739.03610,0.64177
6737.10736,0.64251
6735.17861,0.64242
6733.24987,0.64279
6731.32112,0.64483
6729.39238,0.64630
6727.46363,0.64568
6725.53489,0.64430
6723.60614,0.64343
6721.67740,0.64382
6719.74865,0.64526
6717.81991,0.64555
6715.89116,0.64494
6713.96241,0.64555
6712.03367,0.64543
6710.10492,0.64397
6708.17618,0.64452
6706.24743,0.64663
6704.31869,0.64754
6702.38994,0.64695
6700.46120,0.64664
6698.53245,0.64834
6696.60371,0.65118
6694.67496,0.65305
6692.74622,0.65230
6690.81747,0.64961
6688.88873,0.64844
6686.95998,0.64843
6685.03123,0.64729
6683.10249,0.64805
6681.17374,0.65164
6679.24500,0.65297
6677.31625,0.65075
6675.38751,0.64847
6673.45876,0.64761
6671.53002,0.64733
6669.60127,0.64774
6667.67253,0.64911
6665.74378,0.65017
6663.81504,0.65112
6661.88629,0.65287
6659.95755,0.65408
6658.02880,0.65424
6656.10006,0.65431
6654.17131,0.65391
6652.24256,0.65222
6650.31382,0.64975
6648.38507,0.64861
6646.45633,0.65026
6644.52758,0.65285
6642.59884,0.65484
6640.67009,0.65692
6638.74135,0.65804
6636.81260,0.65679
6634.88386,0.65418
6632.95511,0.65217
6631.02637,0.65035
6629.09762,0.64715
6627.16888,0.64499
6625.24013,0.64663
6623.31139,0.64965
6621.38264,0.65170
6619.45389,0.65452
6617.52515,0.65844
6615.59640,0.66014
6613.66766,0.65799
6611.73891,0.65426
6609.81017,0.65212
6607.88142,0.65198
6605.95268,0.65202
6604.02393,0.65123
6602.09519,0.65046
6600.16644,0.65128
6598.23770,0.65345
6596.30895,0.65522
6594.38021,0.65617
6592.45146,0.65657
6590.52271,0.65572
6588.59397,0.65444
6586.66522,0.65495
6584.73648,0.65632
6582.80773,0.65600
6580.87899,0.65478
6578.95024,0.65564
6577.02150,0.65897
6575.09275,0.66124
6573.16401,0.66016
6571.23526,0.65773
6569.30652,0.65640
6567.37777,0.65557
6565.44903,0.65478
6563.52028,0.65552
6561.59154,0.65706
6559.66279,0.65718
6557.73404,0.65553
6555.80530,0.65321
6553.87655,0.65239
6551.94781,0.65394
6550.01906,0.65507
6548.09032,0.65329
6546.16157,0.65107
6544.23283,0.65159
6542.30408,0.65362
6540.37534,0.65500
6538.44659,0.65554
6536.51785,0.65561
6534.58910,0.65584
6532.66036,0.65686
6530.73161,0.65810
6528.80287,0.65782
6526.87412,0.65554
6524.94537,0.65322
6523.01663,0.65204
6521.08788,0.65140
6519.15914,0.65256
6517.23039,0.65558
6515.30165,0.65692
6513.37290,0.65630
6511.44416,0.65691
6509.51541,0.65852
6507.58667,0.65807
6505.65792,0.65588
6503.72918,0.65501
6501.80043,0.65557
6499.87169,0.65663
6497.94294,0.65864
6496.01419,0.66065
6494.08545,0.66165
6492.15670,0.66133
6490.22796,0.65952
6488.29921,0.65798
6486.37047,0.65766
6484.44172,0.65720
6482.51298,0.65716
6480.58423,0.65795
6478.65549,0.65796
6476.72674,0.65805
6474.79800,0.65910
6472.86925,0.65978
6470.94051,0.66001
6469.01176,0.66014
6467.08302,0.66043
6465.15427,0.66138
6463.22552,0.66135
6461.29678,0.65957
6459.36803,0.65871
6457.43929,0.65952
6455.51054,0.66011
6453.58180,0.65992
6451.65305,0.65976
6449.72431,0.66021
6447.79556,0.66112
6445.86682,0.66220
6443.93807,0.66296
6442.00933,0.66302
6440.08058,0.66257
6438.15184,0.66150
6436.22309,0.66066
6434.29434,0.66123
6432.36560,0.66235
6430.43685,0.66267
6428.50811,0.66292
6426.57936,0.66430
6424.65062,0.66534
6422.72187,0.66520
6420.79313,0.66545
6418.86438,0.66656
6416.93564,0.66757
6415.00689,0.66743
6413.07815,0.66650
6411.14940,0.66563
6409.22066,0.66485
6407.29191,0.66477
6405.36317,0.66550
6403.43442,0.66617
6401.50567,0.66563
6399.57693,0.66364
6397.64818,0.66261
6395.71944,0.66405
6393.79069,0.66641
6391.86195,0.66826
6389.93320,0.66869
6388.00446,0.66684
6386.07571,0.66432
6384.14697,0.66348
6382.21822,0.66387
6380.28948,0.66463
6378.36073,0.66548
6376.43199,0.66525
6374.50324,0.66340
6372.57450,0.66179
6370.64575,0.66297
6368.71700,0.66619
6366.78826,0.66813
6364.85951,0.66732
6362.93077,0.66449
6361.00202,0.66196
6359.07328,0.66205
6357.14453,0.66474
6355.21579,0.66689
6353.28704,0.66513
6351.35830,0.66209
6349.42955,0.66274
6347.50081,0.66552
6345.57206,0.66614
6343.64332,0.66479
6341.71457,0.66413
6339.78582,0.66492
6337.85708,0.66636
6335.92833,0.66751
6333.99959,0.66736
6332.07084,0.66591
6330.14210,0.66418
6328.21335,0.66370
6326.28461,0.66442
6324.35586,0.66398
6322.42712,0.66264
6320.49837,0.66235
6318.56963,0.66241
6316.64088,0.66311
6314.71214,0.66462
6312.78339,0.66419
6310.85465,0.66226
6308.92590,0.66118
6306.99715,0.65982
6305.06841,0.65846
6303.13966,0.65969
6301.21092,0.66234
6299.28217,0.66330
6297.35343,0.66265
6295.42468,0.66187
6293.49594,0.66076
6291.56719,0.65972
6289.63845,0.66071
6287.70970,0.66318
6285.78096,0.66407
6283.85221,0.66216
6281.92347,0.65940
6279.99472,0.65820
6278.06598,0.65939
6276.13723,0.66227
6274.20848,0.66426
6272.27974,0.66341
6270.35099,0.66179
6268.42225,0.66127
6266.49350,0.65997
6264.56476,0.65699
6262.63601,0.65552
6260.70727,0.65733
6258.77852,0.65952
6256.84978,0.66008
6254.92103,0.65997
6252.99229,0.65925
6251.06354,0.65745
6249.13480,0.65567
6247.20605,0.65573
6245.27730,0.65730
6243.34856,0.65844
6241.41981,0.65913
6239.49107,0.65975
6237.56232,0.65965
6235.63358,0.65912
6233.70483,0.65916
6231.77609,0.66008
6229.84734,0.66141
6227.91860,0.66212
6225.98985,0.66152
6224.06111,0.66080
6222.13236,0.66100
6220.20362,0.66061
6218.27487,0.65920
6216.34613,0.65880
6214.41738,0.65893
6212.48863,0.65785
6210.55989,0.65681
6208.63114,0.65625
6206.70240,0.65464
6204.77365,0.65360
6202.84491,0.65550
6200.91616,0.65866
6198.98742,0.65985
6197.05867,0.65822
6195.12993,0.65583
6193.20118,0.65504
6191.27244,0.65532
6189.34369,0.65493
6187.41495,0.65446
6185.48620,0.65453
6183.55746,0.65462
6181.62871,0.65513
6179.69996,0.65597
6177.77122,0.65625
6175.84247,0.65590
6173.91373,0.65507
6171.98498,0.65317
6170.05624,0.65090
6168.12749,0.64980
6166.19875,0.64890
6164.27000,0.64762
6162.34126,0.64688
6160.41251,0.64616
6158.48377,0.64483
6156.55502,0.64273
6154.62628,0.64027
6152.69753,0.63809
6150.76878,0.63621
6148.84004,0.63525
6146.91129,0.63552
6144.98255,0.63557
6143.05380,0.63417
6141.12506,0.63236
6139.19631,0.63185
6137.26757,0.63161
6135.33882,0.62942
6133.41008,0.62670
6131.48133,0.62579
6129.55259,0.62543
6127.62384,0.62433
6125.69510,0.62352
6123.76635,0.62349
6121.83761,0.62300
6119.90886,0.62177
6117.98011,0.62123
6116.05137,0.62115
6114.12262,0.62024
6112.19388,0.61900
6110.26513,0.61790
6108.33639,0.61715
6106.40764,0.61767
6104.47890,0.61911
6102.55015,0.61991
6100.62141,0.61938
6098.69266,0.61846
6096.76392,0.61825
6094.83517,0.61832
6092.90643,0.61780
6090.97768,0.61650
6089.04893,0.61540
6087.12019,0.61495
6085.19144,0.61403
6083.26270,0.61352
6081.33395,0.61445
6079.40521,0.61447
6077.47646,0.61287
6075.54772,0.61151
6073.61897,0.61115
6071.69023,0.61178
6069.76148,0.61266
6067.83274,0.61308
6065.90399,0.61391
6063.97525,0.61557
6062.04650,0.61731
6060.11776,0.61851
6058.18901,0.61851
6056.26026,0.61714
6054.33152,0.61493
6052.40277,0.61258
6050.47403,0.61035
6048.54528,0.60710
6046.61654,0.60274
6044.68779,0.60012
6042.75905,0.59962
6040.83030,0.59769
6038.90156,0.59367
6036.97281,0.58927
6035.04407,0.58410
6033.11532,0.57864
6031.18658,0.57446
6029.25783,0.57037
6027.32909,0.56492
6025.40034,0.55917
6023.47159,0.55410
6021.54285,0.54944
6019.61410,0.54509
6017.68536,0.54055
6015.75661,0.53556
6013.82787,0.53023
6011.89912,0.52344
6009.97038,0.51528
6008.04163,0.50861
6006.11289,0.50491
6004.18414,0.50210
6002.25540,0.49786
6000.32665,0.49233
5998.39791,0.48683
5996.46916,0.48243
5994.54041,0.47919
5992.61167,0.47567
5990.68292,0.47096
5988.75418,0.46565
5986.82543,0.45960
5984.89669,0.45283
5982.96794,0.44670
5981.03920,0.44200
5979.11045,0.43834
5977.18171,0.43499
5975.25296,0.43174
5973.32422,0.42882
5971.39547,0.42678
5969.46673,0.42560
5967.53798,0.42423
5965.60924,0.42207
5963.68049,0.41941
5961.75174,0.41751
5959.82300,0.41738
5957.89425,0.41756
5955.96551,0.41645
5954.03676,0.41498
5952.10802,0.41382
5950.17927,0.41237
5948.25053,0.41083
5946.32178,0.40965
5944.39304,0.40860
5942.46429,0.40778
5940.53555,0.40726
5938.60680,0.40614
5936.67806,0.40337
5934.74931,0.39975
5932.82057,0.39739
5930.89182,0.39622
5928.96307,0.39446
5927.03433,0.39158
5925.10558,0.38764
5923.17684,0.38238
5921.24809,0.37719
5919.31935,0.37366
5917.39060,0.37063
5915.46186,0.36587
5913.53311,0.35976
5911.60437,0.35497
5909.67562,0.35247
5907.74688,0.35067
5905.81813,0.34786
5903.88939,0.34375
5901.96064,0.33938
5900.03189,0.33564
5898.10315,0.33268
5896.17440,0.33008
5894.24566,0.32732
5892.31691,0.32495
5890.38817,0.32324
5888.45942,0.32083
5886.53068,0.31742
5884.60193,0.31465
5882.67319,0.31304
5880.74444,0.31223
5878.81570,0.31192
5876.88695,0.31134
5874.95821,0.31043
5873.02946,0.31017
5871.10072,0.31016
5869.17197,0.30832
5867.24322,0.30498
5865.31448,0.30270
5863.38573,0.30122
5861.45699,0.29899
5859.52824,0.29711
5857.59950,0.29632
5855.67075,0.29525
5853.74201,0.29390
5851.81326,0.29286
5849.88452,0.29115
5847.95577,0.28904
5846.02703,0.28792
5844.09828,0.28760
5842.16954,0.28693
5840.24079,0.28576
5838.31205,0.28507
5836.38330,0.28491
5834.45455,0.28368
5832.52581,0.28121
5830.59706,0.27983
5828.66832,0.28068
5826.73957,0.28208
5824.81083,0.28200
5822.88208,0.28035
5820.95334,0.27980
5819.02459,0.28198
5817.09585,0.28434
5815.16710,0.28470
5813.23836,0.28497
5811.30961,0.28672
5809.38087,0.28895
5807.45212,0.29115
5805.52337,0.29298
5803.59463,0.29330
5801.66588,0.29283
5799.73714,0.29396
5797.80839,0.29675
5795.87965,0.29895
5793.95090,0.30031
5792.02216,0.30216
5790.09341,0.30439
5788.16467,0.30570
5786.23592,0.30602
5784.30718,0.30662
5782.37843,0.30734
5780.44969,0.30795
5778.52094,0.30987
5776.59220,0.31279
5774.66345,0.31453
5772.73470,0.31458
5770.80596,0.31460
5768.87721,0.31545
5766.94847,0.31605
5765.01972,0.31611
5763.09098,0.31652
5761.16223,0.31745
5759.23349,0.31752
5757.30474,0.31582
5755.37600,0.31416
5753.44725,0.31401
5751.51851,0.31389
5749.58976,0.31195
5747.66102,0.30875
5745.73227,0.30619
5743.80352,0.30464
5741.87478,0.30375
5739.94603,0.30354
5738.01729,0.30334
5736.08854,0.30266
5734.15980,0.30205
5732.23105,0.30213
5730.30231,0.30249
5728.37356,0.30211
5726.44482,0.30114
5724.51607,0.30054
5722.58733,0.30036
5720.65858,0.29994
5718.72984,0.29931
5716.80109,0.29935
5714.87235,0.29987
5712.94360,0.29947
5711.01485,0.29852
5709.08611,0.29821
5707.15736,0.29836
5705.22862,0.29895
5703.29987,0.29938
5701.37113,0.29864
5699.44238,0.29822
5697.51364,0.29952
5695.58489,0.30116
5693.65615,0.30234
5691.72740,0.30431
5689.79866,0.30716
5687.86991,0.30922
5685.94117,0.31073
5684.01242,0.31347
5682.08368,0.31646
5680.15493,0.31775
5678.22618,0.31856
5676.29744,0.32023
5674.36869,0.32158
5672.43995,0.32214
5670.51120,0.32266
5668.58246,0.32324
5666.65371,0.32450
5664.72497,0.32733
5662.79622,0.32989
5660.86748,0.32999
5658.93873,0.32928
5657.00999,0.33017
5655.08124,0.33207
5653.15250,0.33358
5651.22375,0.33488
5649.29500,0.33645
5647.36626,0.33765
5645.43751,0.33775
5643.50877,0.33722
5641.58002,0.33735
5639.65128,0.33828
5637.72253,0.33888
5635.79379,0.33909
5633.86504,0.34013
5631.93630,0.34208
5630.00755,0.34351
5628.07881,0.34392
5626.15006,0.34408
5624.22132,0.34426
5622.29257,0.34479
5620.36383,0.34603
5618.43508,0.34686
5616.50633,0.34645
5614.57759,0.34616
5612.64884,0.34706
5610.72010,0.34833
5608.79135,0.34900
5606.86261,0.34873
5604.93386,0.34827
5603.00512,0.34871
5601.07637,0.34940
5599.14763,0.34946
5597.21888,0.34966
5595.29014,0.35010
5593.36139,0.34993
5591.43265,0.35017
5589.50390,0.35195
5587.57516,0.35384
5585.64641,0.35448
5583.71766,0.35501
5581.78892,0.35654
5579.86017,0.35812
5577.93143,0.35924
5576.00268,0.36088
5574.07394,0.36268
5572.14519,0.36392
5570.21645,0.36515
5568.28770,0.36597
5566.35896,0.36601
5564.43021,0.36630
5562.50147,0.36686
5560.57272,0.36709
5558.64398,0.36739
5556.71523,0.36770
5554.78648,0.36790
5552.85774,0.36873
5550.92899,0.36982
5549.00025,0.37048
5547.07150,0.37160
5545.14276,0.37324
5543.21401,0.37388
5541.28527,0.37333
5539.35652,0.37283
5537.42778,0.37291
5535.49903,0.37327
5533.57029,0.37383
5531.64154,0.37453
5529.71280,0.37483
5527.78405,0.37463
5525.85531,0.37440
5523.92656,0.37450
5521.99781,0.37512
5520.06907,0.37589
5518.14032,0.37614
5516.21158,0.37588
5514.28283,0.37524
5512.35409,0.37435
5510.42534,0.37403
5508.49660,0.37472
5506.56785,0.37584
5504.63911,0.37655
5502.71036,0.37597
5500.78162,0.37443
5498.85287,0.37331
5496.92413,0.37346
5494.99538,0.37458
5493.06664,0.37491
5491.13789,0.37355
5489.20914,0.37229
5487.28040,0.37250
5485.35165,0.37333
5483.42291,0.37341
5481.49416,0.37266
5479.56542,0.37167
5477.63667,0.37096
5475.70793,0.37107
5473.77918,0.37160
5471.85044,0.37124
5469.92169,0.36974
5467.99295,0.36870
5466.06420,0.36912
5464.13546,0.36997
5462.20671,0.37047
5460.27796,0.37067
5458.34922,0.37057
5456.42047,0.37068
5454.49173,0.37165
5452.56298,0.37302
5450.63424,0.37397
5448.70549,0.37463
5446.77675,0.37511
5444.84800,0.37544
5442.91926,0.37591
5440.99051,0.37667
5439.06177,0.37781
5437.13302,0.37847
5435.20428,0.37798
5433.27553,0.37777
5431.34679,0.37916
5429.41804,0.38118
5427.48929,0.38196
5425.56055,0.38136
5423.63180,0.38090
5421.70306,0.38112
5419.77431,0.38136
5417.84557,0.38170
5415.91682,0.38201
5413.98808,0.38173
5412.05933,0.38167
5410.13059,0.38228
5408.20184,0.38279
5406.27310,0.38318
5404.34435,0.38344
5402.41561,0.38344
5400.48686,0.38365
5398.55811,0.38397
5396.62937,0.38404
5394.70062,0.38413
5392.77188,0.38431
5390.84313,0.38492
5388.91439,0.38624
5386.98564,0.38696
5385.05690,0.38623
5383.12815,0.38536
5381.19941,0.38553
5379.27066,0.38631
5377.34192,0.38678
5375.41317,0.38666
5373.48443,0.38701
5371.55568,0.38823
5369.62694,0.38919
5367.69819,0.39024
5365.76944,0.39246
5363.84070,0.39453
5361.91195,0.39532
5359.98321,0.39558
5358.05446,0.39609
5356.12572,0.39711
5354.19697,0.39834
5352.26823,0.39941
5350.33948,0.40035
5348.41074,0.40082
5346.48199,0.40093
5344.55325,0.40138
5342.62450,0.40224
5340.69576,0.40314
5338.76701,0.40373
5336.83827,0.40407
5334.90952,0.40436
5332.98077,0.40465
5331.05203,0.40526
5329.12328,0.40621
5327.19454,0.40698
5325.26579,0.40743
5323.33705,0.40823
5321.40830,0.40951
5319.47956,0.41035
5317.55081,0.41050
5315.62207,0.41085
5313.69332,0.41123
5311.76458,0.41071
5309.83583,0.41004
5307.90709,0.41011
5305.97834,0.41033
5304.04959,0.41054
5302.12085,0.41101
5300.19210,0.41137
5298.26336,0.41112
5296.33461,0.41048
5294.40587,0.41002
5292.47712,0.40957
5290.54838,0.40859
5288.61963,0.40742
5286.69089,0.40654
5284.76214,0.40569
5282.83340,0.40473
5280.90465,0.40346
5278.97591,0.40155
5277.04716,0.39923
5275.11842,0.39658
5273.18967,0.39381
5271.26092,0.39148
5269.33218,0.38953
5267.40343,0.38743
5265.47469,0.38482
5263.54594,0.38195
5261.61720,0.37957
5259.68845,0.37829
5257.75971,0.37809
5255.83096,0.37788
5253.90222,0.37714
5251.97347,0.37658
5250.04473,0.37659
5248.11598,0.37707
5246.18724,0.37822
5244.25849,0.37997
5242.32975,0.38164
5240.40100,0.38261
5238.47225,0.38314
5236.54351,0.38374
5234.61476,0.38418
5232.68602,0.38471
5230.75727,0.38602
5228.82853,0.38749
5226.89978,0.38841
5224.97104,0.38912
5223.04229,0.39000
5221.11355,0.39069
5219.18480,0.39114
5217.25606,0.39204
5215.32731,0.39275
5213.39857,0.39254
5211.46982,0.39271
5209.54107,0.39351
5207.61233,0.39342
5205.68358,0.39218
5203.75484,0.39106
5201.82609,0.39083
5199.89735,0.39114
5197.96860,0.39143
5196.03986,0.39163
5194.11111,0.39180
5192.18237,0.39166
5190.25362,0.39115
5188.32488,0.39049
5186.39613,0.38958
5184.46739,0.38871
5182.53864,0.38824
5180.60990,0.38782
5178.68115,0.38717
5176.75240,0.38680
5174.82366,0.38683
5172.89491,0.38690
5170.96617,0.38688
5169.03742,0.38628
5167.10868,0.38510
5165.17993,0.38434
5163.25119,0.38434
5161.32244,0.38449
5159.39370,0.38419
5157.46495,0.38361
5155.53621,0.38302
5153.60746,0.38203
5151.67872,0.38098
5149.74997,0.38071
5147.82123,0.38087
5145.89248,0.38035
5143.96373,0.37883
5142.03499,0.37773
5140.10624,0.37841
5138.17750,0.38010
5136.24875,0.38171
5134.32001,0.38317
5132.39126,0.38425
5130.46252,0.38489
5128.53377,0.38573
5126.60503,0.38687
5124.67628,0.38766
5122.74754,0.38825
5120.81879,0.38907
5118.89005,0.38977
5116.96130,0.39020
5115.03255,0.39074
5113.10381,0.39162
5111.17506,0.39276
5109.24632,0.39395
5107.31757,0.39478
5105.38883,0.39486
5103.46008,0.39449
5101.53134,0.39462
5099.60259,0.39536
5097.67385,0.39624
5095.74510,0.39717
5093.81636,0.39804
5091.88761,0.39858
5089.95887,0.39875
5088.03012,0.39876
5086.10138,0.39888
5084.17263,0.39922
5082.24388,0.39993
5080.31514,0.40059
5078.38639,0.40075
5076.45765,0.40092
5074.52890,0.40136
5072.60016,0.40176
5070.67141,0.40224
5068.74267,0.40277
5066.81392,0.40318
5064.88518,0.40378
5062.95643,0.40447
5061.02769,0.40496
5059.09894,0.40540
5057.17020,0.40558
5055.24145,0.40531
5053.31270,0.40511
5051.38396,0.40550
5049.45521,0.40620
5047.52647,0.40648
5045.59772,0.40621
5043.66898,0.40604
5041.74023,0.40645
5039.81149,0.40735
5037.88274,0.40824
5035.95400,0.40874
5034.02525,0.40890
5032.09651,0.40913
5030.16776,0.40979
5028.23902,0.41026
5026.31027,0.41000
5024.38153,0.40967
5022.45278,0.40961
5020.52403,0.40967
5018.59529,0.41030
5016.66654,0.41161
5014.73780,0.41257
5012.80905,0.41251
5010.88031,0.41193
5008.95156,0.41129
5007.02282,0.41073
5005.09407,0.41076
5003.16533,0.41128
5001.23658,0.41129
4999.30784,0.41058
4997.37909,0.40987
4995.45035,0.40936
4993.52160,0.40893
4991.59286,0.40882
4989.66411,0.40910
4987.73536,0.40967
4985.80662,0.41026
4983.87787,0.41044
4981.94913,0.41010
4980.02038,0.40984
4978.09164,0.40991
4976.16289,0.40979
4974.23415,0.40966
4972.30540,0.40994
4970.37666,0.41000
4968.44791,0.40965
4966.51917,0.40946
4964.59042,0.40949
4962.66168,0.40959
4960.73293,0.40980
4958.80418,0.40996
4956.87544,0.40991
4954.94669,0.40980
4953.01795,0.40963
4951.08920,0.40983
4949.16046,0.41065
4947.23171,0.41114
4945.30297,0.41079
4943.37422,0.40999
4941.44548,0.40922
4939.51673,0.40910
4937.58799,0.40961
4935.65924,0.40953
4933.73050,0.40829
4931.80175,0.40704
4929.87301,0.40674
4927.94426,0.40693
4926.01551,0.40711
4924.08677,0.40709
4922.15802,0.40689
4920.22928,0.40699
4918.30053,0.40725
4916.37179,0.40695
4914.44304,0.40613
4912.51430,0.40530
4910.58555,0.40487
4908.65681,0.40515
4906.72806,0.40552
4904.79932,0.40508
4902.87057,0.40393
4900.94183,0.40247
4899.01308,0.40143
4897.08434,0.40110
4895.15559,0.40078
4893.22684,0.40024
4891.29810,0.39962
4889.36935,0.39875
4887.44061,0.39759
4885.51186,0.39656
4883.58312,0.39605
4881.65437,0.39595
4879.72563,0.39590
4877.79688,0.39562
4875.86814,0.39480
4873.93939,0.39363
4872.01065,0.39284
4870.08190,0.39261
4868.15316,0.39246
4866.22441,0.39206
4864.29566,0.39143
4862.36692,0.39091
4860.43817,0.39088
4858.50943,0.39136
4856.58068,0.39191
4854.65194,0.39209
4852.72319,0.39216
4850.79445,0.39253
4848.86570,0.39296
4846.93696,0.39320
4845.00821,0.39341
4843.07947,0.39370
4841.15072,0.39399
4839.22198,0.39431
4837.29323,0.39453
4835.36449,0.39464
4833.43574,0.39492
4831.50699,0.39546
4829.57825,0.39607
4827.64950,0.39649
4825.72076,0.39670
4823.79201,0.39704
4821.86327,0.39753
4819.93452,0.39745
4818.00578,0.39687
4816.07703,0.39674
4814.14829,0.39710
4812.21954,0.39721
4810.29080,0.39709
4808.36205,0.39727
4806.43331,0.39752
4804.50456,0.39738
4802.57582,0.39680
4800.64707,0.39588
4798.71832,0.39509
4796.78958,0.39495
4794.86083,0.39518
4792.93209,0.39522
4791.00334,0.39527
4789.07460,0.39545
4787.14585,0.39541
4785.21711,0.39513
4783.28836,0.39458
4781.35962,0.39374
4779.43087,0.39292
4777.50213,0.39249
4775.57338,0.39231
4773.64464,0.39195
4771.71589,0.39137
4769.78714,0.39069
4767.85840,0.39001
4765.92965,0.38947
4764.00091,0.38910
4762.07216,0.38913
4760.14342,0.38959
4758.21467,0.38982
4756.28593,0.38946
4754.35718,0.38892
4752.42844,0.38865
4750.49969,0.38826
4748.57095,0.38748
4746.64220,0.38679
4744.71346,0.38644
4742.78471,0.38630
4740.85597,0.38632
4738.92722,0.38592
4736.99847,0.38469
4735.06973,0.38322
4733.14098,0.38219
4731.21224,0.38145
4729.28349,0.38031
4727.35475,0.37857
4725.42600,0.37656
4723.49726,0.37466
4721.56851,0.37325
4719.63977,0.37206
4717.71102,0.37037
4715.78228,0.36836
4713.85353,0.36683
4711.92479,0.36573
4709.99604,0.36419
4708.06729,0.36227
4706.13855,0.36077
4704.20980,0.35976
4702.28106,0.35884
4700.35231,0.35785
4698.42357,0.35651
4696.49482,0.35460
4694.56608,0.35198
4692.63733,0.34845
4690.70859,0.34426
4688.77984,0.33988
4686.85110,0.33520
4684.92235,0.32960
4682.99361,0.32287
4681.06486,0.31525
4679.13612,0.30712
4677.20737,0.29913
4675.27862,0.29209
4673.34988,0.28628
4671.42113,0.28165
4669.49239,0.27851
4667.56364,0.27729
4665.63490,0.27787
4663.70615,0.27999
4661.77741,0.28324
4659.84866,0.28682
4657.91992,0.29038
4655.99117,0.29424
4654.06243,0.29844
4652.13368,0.30238
4650.20494,0.30533
4648.27619,0.30688
4646.34745,0.30696
4644.41870,0.30594
4642.48995,0.30412
4640.56121,0.30178
4638.63246,0.29936
4636.70372,0.29666
4634.77497,0.29356
4632.84623,0.29042
4630.91748,0.28744
4628.98874,0.28513
4627.05999,0.28422
4625.13125,0.28447
4623.20250,0.28517
4621.27376,0.28601
4619.34501,0.28653
4617.41627,0.28619
4615.48752,0.28502
4613.55877,0.28355
4611.63003,0.28236
4609.70128,0.28188
4607.77254,0.28265
4605.84379,0.28496
4603.91505,0.28845
4601.98630,0.29276
4600.05756,0.29798
4598.12881,0.30372
4596.20007,0.30901
4594.27132,0.31340
4592.34258,0.31685
4590.41383,0.31903
4588.48509,0.31962
4586.55634,0.31868
4584.62760,0.31657
4582.69885,0.31352
4580.77010,0.30959
4578.84136,0.30518
4576.91261,0.30132
4574.98387,0.29934
4573.05512,0.29996
4571.12638,0.30276
4569.19763,0.30703
4567.26889,0.31254
4565.34014,0.31805
4563.41140,0.32201
4561.48265,0.32487
4559.55391,0.32739
4557.62516,0.32941
4555.69642,0.33094
4553.76767,0.33235
4551.83893,0.33395
4549.91018,0.33559
4547.98143,0.33642
4546.05269,0.33598
4544.12394,0.33478
4542.19520,0.33352
4540.26645,0.33259
4538.33771,0.33200
4536.40896,0.33163
4534.48022,0.33122
4532.55147,0.33053
4530.62273,0.32967
4528.69398,0.32884
4526.76524,0.32810
4524.83649,0.32741
4522.90775,0.32656
4520.97900,0.32540
4519.05025,0.32403
4517.12151,0.32277
4515.19276,0.32185
4513.26402,0.32104
4511.33527,0.31996
4509.40653,0.31851
4507.47778,0.31710
4505.54904,0.31606
4503.62029,0.31529
4501.69155,0.31465
4499.76280,0.31373
4497.83406,0.31214
4495.90531,0.31020
4493.97657,0.30851
4492.04782,0.30716
4490.11908,0.30588
4488.19033,0.30426
4486.26158,0.30212
4484.33284,0.29986
4482.40409,0.29773
4480.47535,0.29536
4478.54660,0.29273
4476.61786,0.29052
4474.68911,0.28866
4472.76037,0.28610
4470.83162,0.28277
4468.90288,0.27949
4466.97413,0.27630
4465.04539,0.27268
4463.11664,0.26878
4461.18790,0.26504
4459.25915,0.26146
4457.33041,0.25780
4455.40166,0.25373
4453.47291,0.24927
4451.54417,0.24498
4449.61542,0.24092
4447.68668,0.23690
4445.75793,0.23323
4443.82919,0.23013
4441.90044,0.22728
4439.97170,0.22418
4438.04295,0.22065
4436.11421,0.21707
4434.18546,0.21371
4432.25672,0.21029
4430.32797,0.20668
4428.39923,0.20311
4426.47048,0.19967
4424.54173,0.19634
4422.61299,0.19286
4420.68424,0.18913
4418.75550,0.18547
4416.82675,0.18203
4414.89801,0.17870
4412.96926,0.17550
4411.04052,0.17247
4409.11177,0.16970
4407.18303,0.16718
4405.25428,0.16470
4403.32554,0.16212
4401.39679,0.15956
4399.46805,0.15712
4397.53930,0.15487
4395.61056,0.15293
4393.68181,0.15094
4391.75306,0.14871
4389.82432,0.14669
4387.89557,0.14496
4385.96683,0.14304
4384.03808,0.14099
4382.10934,0.13928
4380.18059,0.13783
4378.25185,0.13641
4376.32310,0.13483
4374.39436,0.13317
4372.46561,0.13188
4370.53687,0.13114
4368.60812,0.13060
4366.67938,0.12973
4364.75063,0.12855
4362.82189,0.12752
4360.89314,0.12686
4358.96439,0.12644
4357.03565,0.12590
4355.10690,0.12534
4353.17816,0.12528
4351.24941,0.12566
4349.32067,0.12604
4347.39192,0.12614
4345.46318,0.12613
4343.53443,0.12623
4341.60569,0.12652
4339.67694,0.12697
4337.74820,0.12737
4335.81945,0.12775
4333.89071,0.12846
4331.96196,0.12941
4330.03321,0.13017
4328.10447,0.13087
4326.17572,0.13147
4324.24698,0.13158
4322.31823,0.13157
4320.38949,0.13202
4318.46074,0.13264
4316.53200,0.13299
4314.60325,0.13330
4312.67451,0.13370
4310.74576,0.13365
4308.81702,0.13328
4306.88827,0.13340
4304.95953,0.13376
4303.03078,0.13361
4301.10204,0.13312
4299.17329,0.13261
4297.24454,0.13189
4295.31580,0.13101
4293.38705,0.13052
4291.45831,0.13028
4289.52956,0.12964
4287.60082,0.12880
4285.67207,0.12830
4283.74333,0.12796
4281.81458,0.12743
4279.88584,0.12684
4277.95709,0.12633
4276.02835,0.12580
4274.09960,0.12535
4272.17086,0.12505
4270.24211,0.12471
4268.31336,0.12427
4266.38462,0.12388
4264.45587,0.12368
4262.52713,0.12355
4260.59838,0.12332
4258.66964,0.12301
4256.74089,0.12265
4254.81215,0.12227
4252.88340,0.12196
4250.95466,0.12176
4249.02591,0.12168
4247.09717,0.12163
4245.16842,0.12150
4243.23968,0.12152
4241.31093,0.12196
4239.38219,0.12275
4237.45344,0.12352
4235.52469,0.12385
4233.59595,0.12377
4231.66720,0.12357
4229.73846,0.12337
4227.80971,0.12293
4225.88097,0.12227
4223.95222,0.12194
4222.02348,0.12211
4220.09473,0.12241
4218.16599,0.12260
4216.23724,0.12264
4214.30850,0.12255
4212.37975,0.12250
4210.45101,0.12273
4208.52226,0.12329
4206.59352,0.12380
4204.66477,0.12396
4202.73602,0.12406
4200.80728,0.12449
4198.87853,0.12515
4196.94979,0.12563
4195.02104,0.12582
4193.09230,0.12600
4191.16355,0.12625
4189.23481,0.12630
4187.30606,0.12619
4185.37732,0.12638
4183.44857,0.12675
4181.51983,0.12682
4179.59108,0.12671
4177.66234,0.12667
4175.73359,0.12668
4173.80484,0.12682
4171.87610,0.12711
4169.94735,0.12750
4168.01861,0.12794
4166.08986,0.12829
4164.16112,0.12832
4162.23237,0.12813
4160.30363,0.12798
4158.37488,0.12774
4156.44614,0.12757
4154.51739,0.12778
4152.58865,0.12835
4150.65990,0.12898
4148.73116,0.12921
4146.80241,0.12910
4144.87367,0.12908
4142.94492,0.12899
4141.01617,0.12864
4139.08743,0.12854
4137.15868,0.12885
4135.22994,0.12924
4133.30119,0.12921
4131.37245,0.12867
4129.44370,0.12833
4127.51496,0.12836
4125.58621,0.12824
4123.65747,0.12800
4121.72872,0.12789
4119.79998,0.12776
4117.87123,0.12748
4115.94249,0.12699
4114.01374,0.12630
4112.08500,0.12555
4110.15625,0.12493
4108.22750,0.12458
4106.29876,0.12437
4104.37001,0.12418
4102.44127,0.12415
4100.51252,0.12416
4098.58378,0.12389
4096.65503,0.12348
4094.72629,0.12328
4092.79754,0.12312
4090.86880,0.12249
4088.94005,0.12154
4087.01131,0.12079
4085.08256,0.12014
4083.15382,0.11901
4081.22507,0.11742
4079.29632,0.11606
4077.36758,0.11525
4075.43883,0.11479
4073.51009,0.11414
4071.58134,0.11284
4069.65260,0.11126
4067.72385,0.11017
4065.79511,0.10977
4063.86636,0.10979
4061.93762,0.10995
4060.00887,0.10985
4058.08013,0.10925
4056.15138,0.10847
4054.22264,0.10798
4052.29389,0.10787
4050.36515,0.10799
4048.43640,0.10826
4046.50765,0.10847
4044.57891,0.10837
4042.65016,0.10790
4040.72142,0.10746
4038.79267,0.10775
4036.86393,0.10876
4034.93518,0.10979
4033.00644,0.11070
4031.07769,0.11174
4029.14895,0.11284
4027.22020,0.11410
4025.29146,0.11564
4023.36271,0.11718
4021.43397,0.11858
4019.50522,0.12001
4017.57648,0.12144
4015.64773,0.12264
4013.71898,0.12375
4011.79024,0.12484
4009.86149,0.12556
4007.93275,0.12574
4006.00400,0.12579
4004.07526,0.12615
4002.14651,0.12687
4000.21777,0.12772
3998.28902,0.12851
3996.36028,0.12905
3994.43153,0.12955
3992.50279,0.13043
3990.57404,0.13134
3988.64530,0.13171
3986.71655,0.13191
3984.78780,0.13259
3982.85906,0.13348
3980.93031,0.13391
3979.00157,0.13392
3977.07282,0.13389
3975.14408,0.13402
3973.21533,0.13448
3971.28659,0.13516
3969.35784,0.13574
3967.42910,0.13596
3965.50035,0.13598
3963.57161,0.13616
3961.64286,0.13664
3959.71412,0.13716
3957.78537,0.13724
3955.85663,0.13704
3953.92788,0.13723
3951.99913,0.13780
3950.07039,0.13806
3948.14164,0.13772
3946.21290,0.13725
3944.28415,0.13692
3942.35541,0.13674
3940.42666,0.13678
3938.49792,0.13691
3936.56917,0.13703
3934.64043,0.13718
3932.71168,0.13722
3930.78294,0.13720
3928.85419,0.13737
3926.92545,0.13778
3924.99670,0.13816
3923.06795,0.13837
3921.13921,0.13850
3919.21046,0.13855
3917.28172,0.13842
3915.35297,0.13815
3913.42423,0.13801
3911.49548,0.13815
3909.56674,0.13846
3907.63799,0.13876
3905.70925,0.13881
3903.78050,0.13863
3901.85176,0.13855
3899.92301,0.13874
3897.99427,0.13902
3896.06552,0.13914
3894.13678,0.13918
3892.20803,0.13921
3890.27928,0.13910
3888.35054,0.13894
3886.42179,0.13908
3884.49305,0.13958
3882.56430,0.14005
3880.63556,0.14020
3878.70681,0.14005
3876.77807,0.13980
3874.84932,0.13958
3872.92058,0.13966
3870.99183,0.13993
3869.06309,0.13995
3867.13434,0.13980
3865.20560,0.13977
3863.27685,0.13980
3861.34811,0.13966
3859.41936,0.13944
3857.49061,0.13935
3855.56187,0.13912
3853.63312,0.13871
3851.70438,0.13865
3849.77563,0.13884
3847.84689,0.13891
3845.91814,0.13871
3843.98940,0.13837
3842.06065,0.13830
3840.13191,0.13843
3838.20316,0.13844
3836.27442,0.13846
3834.34567,0.13863
3832.41693,0.13883
3830.48818,0.13874
3828.55943,0.13821
3826.63069,0.13791
3824.70194,0.13826
3822.77320,0.13865
3820.84445,0.13864
3818.91571,0.13866
3816.98696,0.13894
3815.05822,0.13932
3813.12947,0.13967
3811.20073,0.14005
3809.27198,0.14051
3807.34324,0.14097
3805.41449,0.14136
3803.48575,0.14181
3801.55700,0.14233
3799.62826,0.14268
3797.69951,0.14288
3795.77076,0.14317
3793.84202,0.14351
3791.91327,0.14388
3789.98453,0.14437
3788.05578,0.14483
3786.12704,0.14505
3784.19829,0.14517
3782.26955,0.14541
3780.34080,0.14568
3778.41206,0.14578
3776.48331,0.14585
3774.55457,0.14602
3772.62582,0.14615
3770.69708,0.14626
3768.76833,0.14639
3766.83959,0.14663
3764.91084,0.14698
3762.98209,0.14726
3761.05335,0.14749
3759.12460,0.14776
3757.19586,0.14788
3755.26711,0.14784
3753.33837,0.14798
3751.40962,0.14836
3749.48088,0.14866
3747.55213,0.14868
3745.62339,0.14853
3743.69464,0.14868
3741.76590,0.14916
3739.83715,0.14944
3737.90841,0.14947
3735.97966,0.14962
3734.05091,0.14984
3732.12217,0.14975
3730.19342,0.14930
3728.26468,0.14875
3726.33593,0.14846
3724.40719,0.14836
3722.47844,0.14808
3720.54970,0.14765
3718.62095,0.14728
3716.69221,0.14713
3714.76346,0.14698
3712.83472,0.14614
3710.90597,0.14430
3708.97723,0.14206
3707.04848,0.13992
3705.11974,0.13775
3703.19099,0.13544
3701.26224,0.13327
3699.33350,0.13156
3697.40475,0.12995
3695.47601,0.12797
3693.54726,0.12571
3691.61852,0.12343
3689.68977,0.12103
3687.76103,0.11839
3685.83228,0.11589
3683.90354,0.11385
3681.97479,0.11219
3680.04605,0.11072
3678.11730,0.10921
3676.18856,0.10748
3674.25981,0.10579
3672.33107,0.10451
3670.40232,0.10344
3668.47357,0.10227
3666.54483,0.10115
3664.61608,0.10023
3662.68734,0.09930
3660.75859,0.09828
3658.82985,0.09732
3656.90110,0.09665
3654.97236,0.09635
3653.04361,0.09606
3651.11487,0.09549
3649.18612,0.09494
3647.25738,0.09471
3645.32863,0.09459
3643.39989,0.09461
3641.47114,0.09483
3639.54239,0.09503
3637.61365,0.09515
3635.68490,0.09543
3633.75616,0.09576
3631.82741,0.09593
3629.89867,0.09604
3627.96992,0.09585
3626.04118,0.09535
3624.11243,0.09511
3622.18369,0.09519
3620.25494,0.09531
3618.32620,0.09554
3616.39745,0.09594
3614.46871,0.09648
3612.53996,0.09719
3610.61122,0.09777
3608.68247,0.09778
3606.75372,0.09744
3604.82498,0.09719
3602.89623,0.09719
3600.96749,0.09739
3599.03874,0.09755
3597.11000,0.09739
3595.18125,0.09704
3593.25251,0.09705
3591.32376,0.09747
3589.39502,0.09753
3587.46627,0.09687
3585.53753,0.09603
3583.60878,0.09537
3581.68004,0.09496
3579.75129,0.09484
3577.82254,0.09480
3575.89380,0.09461
3573.96505,0.09435
3572.03631,0.09414
3570.10756,0.09387
3568.17882,0.09334
3566.25007,0.09238
3564.32133,0.09131
3562.39258,0.09074
3560.46384,0.09052
3558.53509,0.09020
3556.60635,0.08978
3554.67760,0.08930
3552.74886,0.08876
3550.82011,0.08836
3548.89137,0.08826
3546.96262,0.08836
3545.03387,0.08830
3543.10513,0.08797
3541.17638,0.08766
3539.24764,0.08768
3537.31889,0.08807
3535.39015,0.08851
3533.46140,0.08861
3531.53266,0.08837
3529.60391,0.08812
3527.67517,0.08810
3525.74642,0.08810
3523.81768,0.08788
3521.88893,0.08771
3519.96019,0.08781
3518.03144,0.08796
3516.10270,0.08813
3514.17395,0.08830
3512.24520,0.08824
3510.31646,0.08807
3508.38771,0.08808
3506.45897,0.08823
3504.53022,0.08819
3502.60148,0.08788
3500.67273,0.08775
3498.74399,0.08805
3496.81524,0.08834
3494.88650,0.08817
3492.95775,0.08784
3491.02901,0.08781
3489.10026,0.08804
3487.17152,0.08808
3485.24277,0.08789
3483.31402,0.08784
3481.38528,0.08793
3479.45653,0.08778
3477.52779,0.08727
3475.59904,0.08665
3473.67030,0.08627
3471.74155,0.08629
3469.81281,0.08638
3467.88406,0.08606
3465.95532,0.08538
3464.02657,0.08468
3462.09783,0.08413
3460.16908,0.08364
3458.24034,0.08318
3456.31159,0.08281
3454.38285,0.08232
3452.45410,0.08162
3450.52535,0.08099
3448.59661,0.08079
3446.66786,0.08107
3444.73912,0.08134
3442.81037,0.08125
3440.88163,0.08116
3438.95288,0.08131
3437.02414,0.08149
3435.09539,0.08165
3433.16665,0.08208
3431.23790,0.08278
3429.30916,0.08339
3427.38041,0.08385
3425.45167,0.08427
3423.52292,0.08454
3421.59418,0.08458
3419.66543,0.08452
3417.73668,0.08442
3415.80794,0.08445
3413.87919,0.08470
3411.95045,0.08479
3410.02170,0.08442
3408.09296,0.08385
3406.16421,0.08359
3404.23547,0.08379
3402.30672,0.08398
3400.37798,0.08392
3398.44923,0.08370
3396.52049,0.08343
3394.59174,0.08326
3392.66300,0.08311
3390.73425,0.08290
3388.80550,0.08282
3386.87676,0.08290
3384.94801,0.08278
3383.01927,0.08248
3381.09052,0.08235
3379.16178,0.08221
3377.23303,0.08179
3375.30429,0.08139
3373.37554,0.08116
3371.44680,0.08088
3369.51805,0.08033
3367.58931,0.07947
3365.66056,0.07850
3363.73182,0.07792
3361.80307,0.07784
3359.87433,0.07771
3357.94558,0.07727
3356.01683,0.07675
3354.08809,0.07629
3352.15934,0.07576
3350.23060,0.07509
3348.30185,0.07438
3346.37311,0.07373
3344.44436,0.07291
3342.51562,0.07197
3340.58687,0.07121
3338.65813,0.07067
3336.72938,0.07011
3334.80064,0.06939
3332.87189,0.06862
3330.94315,0.06803
3329.01440,0.06765
3327.08566,0.06708
3325.15691,0.06603
3323.22816,0.06499
3321.29942,0.06413
3319.37067,0.06320
3317.44193,0.06233
3315.51318,0.06155
3313.58444,0.06073
3311.65569,0.05998
3309.72695,0.05957
3307.79820,0.05940
3305.86946,0.05930
3303.94071,0.05932
3302.01197,0.05950
3300.08322,0.05993
3298.15448,0.06076
3296.22573,0.06180
3294.29698,0.06263
3292.36824,0.06326
3290.43949,0.06388
3288.51075,0.06451
3286.58200,0.06513
3284.65326,0.06581
3282.72451,0.06661
3280.79577,0.06733
3278.86702,0.06781
3276.93828,0.06822
3275.00953,0.06880
3273.08079,0.06944
3271.15204,0.06996
3269.22330,0.07042
3267.29455,0.07090
3265.36581,0.07133
3263.43706,0.07180
3261.50831,0.07228
3259.57957,0.07278
3257.65082,0.07337
3255.72208,0.07386
3253.79333,0.07422
3251.86459,0.07465
3249.93584,0.07511
3248.00710,0.07526
3246.07835,0.07527
3244.14961,0.07564
3242.22086,0.07623
3240.29212,0.07664
3238.36337,0.07685
3236.43463,0.07714
3234.50588,0.07757
3232.57713,0.07795
3230.64839,0.07821
3228.71964,0.07836
3226.79090,0.07830
3224.86215,0.07803
3222.93341,0.07782
3221.00466,0.07780
3219.07592,0.07791
3217.14717,0.07794
3215.21843,0.07768
3213.28968,0.07723
3211.36094,0.07707
3209.43219,0.07736
3207.50345,0.07771
3205.57470,0.07776
3203.64596,0.07751
3201.71721,0.07727
3199.78846,0.07730
3197.85972,0.07745
3195.93097,0.07750
3194.00223,0.07767
3192.07348,0.07809
3190.14474,0.07841
3188.21599,0.07847
3186.28725,0.07849
3184.35850,0.07849
3182.42976,0.07843
3180.50101,0.07837
3178.57227,0.07841
3176.64352,0.07849
3174.71478,0.07846
3172.78603,0.07849
3170.85729,0.07861
3168.92854,0.07874
3166.99979,0.07895
3165.07105,0.07915
3163.14230,0.07913
3161.21356,0.07916
3159.28481,0.07947
3157.35607,0.07970
3155.42732,0.07966
3153.49858,0.07963
3151.56983,0.07968
3149.64109,0.07954
3147.71234,0.07926
3145.78360,0.07925
3143.85485,0.07954
3141.92611,0.07969
3139.99736,0.07953
3138.06861,0.07927
3136.13987,0.07918
3134.21112,0.07914
3132.28238,0.07879
3130.35363,0.07814
3128.42489,0.07744
3126.49614,0.07701
3124.56740,0.07688
3122.63865,0.07669
3120.70991,0.07626
3118.78116,0.07557
3116.85242,0.07452
3114.92367,0.07313
3112.99493,0.07146
3111.06618,0.06952
3109.13744,0.06776
3107.20869,0.06660
3105.27994,0.06594
3103.35120,0.06560
3101.42245,0.06548
3099.49371,0.06560
3097.56496,0.06572
3095.63622,0.06525
3093.70747,0.06399
3091.77873,0.06256
3089.84998,0.06138
3087.92124,0.06030
3085.99249,0.05937
3084.06375,0.05901
3082.13500,0.05933
3080.20626,0.05992
3078.27751,0.06037
3076.34877,0.06053
3074.42002,0.06028
3072.49127,0.05960
3070.56253,0.05878
3068.63378,0.05808
3066.70504,0.05748
3064.77629,0.05692
3062.84755,0.05655
3060.91880,0.05658
3058.99006,0.05693
3057.06131,0.05733
3055.13257,0.05769
3053.20382,0.05816
3051.27508,0.05876
3049.34633,0.05930
3047.41759,0.05966
3045.48884,0.05972
3043.56009,0.05943
3041.63135,0.05887
3039.70260,0.05814
3037.77386,0.05728
3035.84511,0.05641
3033.91637,0.05581
3031.98762,0.05546
3030.05888,0.05497
3028.13013,0.05432
3026.20139,0.05407
3024.27264,0.05457
3022.34390,0.05565
3020.41515,0.05683
3018.48641,0.05780
3016.55766,0.05864
3014.62892,0.05951
3012.70017,0.06012
3010.77142,0.06009
3008.84268,0.05954
3006.91393,0.05888
3004.98519,0.05848
3003.05644,0.05840
3001.12770,0.05843
2999.19895,0.05858
2997.27021,0.05887
2995.34146,0.05901
2993.41272,0.05884
2991.48397,0.05836
2989.55523,0.05755
2987.62648,0.05660
2985.69774,0.05587
2983.76899,0.05544
2981.84025,0.05498
2979.91150,0.05432
2977.98275,0.05359
2976.05401,0.05297
2974.12526,0.05249
2972.19652,0.05212
2970.26777,0.05176
2968.33903,0.05142
2966.41028,0.05135
2964.48154,0.05148
2962.55279,0.05147
2960.62405,0.05144
2958.69530,0.05176
2956.76656,0.05224
2954.83781,0.05244
2952.90907,0.05250
2950.98032,0.05264
2949.05157,0.05275
2947.12283,0.05286
2945.19408,0.05314
2943.26534,0.05343
2941.33659,0.05358
2939.40785,0.05383
2937.47910,0.05440
2935.55036,0.05510
2933.62161,0.05563
2931.69287,0.05608
2929.76412,0.05689
2927.83538,0.05809
2925.90663,0.05910
2923.97789,0.05964
2922.04914,0.06011
2920.12040,0.06054
2918.19165,0.06056
2916.26290,0.06024
2914.33416,0.05991
2912.40541,0.05960
2910.47667,0.05938
2908.54792,0.05934
2906.61918,0.05929
2904.69043,0.05903
2902.76169,0.05872
2900.83294,0.05852
2898.90420,0.05826
2896.97545,0.05795
2895.04671,0.05777
2893.11796,0.05779
2891.18922,0.05798
2889.26047,0.05816
2887.33172,0.05805
2885.40298,0.05768
2883.47423,0.05727
2881.54549,0.05693
2879.61674,0.05675
2877.68800,0.05677
2875.75925,0.05685
2873.83051,0.05696
2871.90176,0.05699
2869.97302,0.05683
2868.04427,0.05662
2866.11553,0.05651
2864.18678,0.05674
2862.25804,0.05747
2860.32929,0.05837
2858.40055,0.05913
2856.47180,0.05977
2854.54305,0.06042
2852.61431,0.06122
2850.68556,0.06205
2848.75682,0.06247
2846.82807,0.06233
2844.89933,0.06203
2842.97058,0.06219
2841.04184,0.06300
2839.11309,0.06398
2837.18435,0.06480
2835.25560,0.06556
2833.32686,0.06619
2831.39811,0.06659
2829.46937,0.06679
2827.54062,0.06693
2825.61188,0.06719
2823.68313,0.06761
2821.75438,0.06798
2819.82564,0.06809
2817.89689,0.06810
2815.96815,0.06825
2814.03940,0.06855
2812.11066,0.06891
2810.18191,0.06908
2808.25317,0.06900
2806.32442,0.06925
2804.39568,0.06987
2802.46693,0.07032
2800.53819,0.07047
2798.60944,0.07053
2796.68070,0.07072
2794.75195,0.07107
2792.82320,0.07130
2790.89446,0.07117
2788.96571,0.07098
2787.03697,0.07111
2785.10822,0.07154
2783.17948,0.07193
2781.25073,0.07193
2779.32199,0.07177
2777.39324,0.07189
2775.46450,0.07228
2773.53575,0.07263
2771.60701,0.07281
2769.67826,0.07293
2767.74952,0.07315
2765.82077,0.07336
2763.89203,0.07330
2761.96328,0.07312
2760.03453,0.07308
2758.10579,0.07313
2756.17704,0.07320
2754.24830,0.07322
2752.31955,0.07322
2750.39081,0.07316
2748.46206,0.07304
2746.53332,0.07313
2744.60457,0.07337
2742.67583,0.07336
2740.74708,0.07312
2738.81834,0.07289
2736.88959,0.07265
2734.96085,0.07242
2733.03210,0.07245
2731.10336,0.07263
2729.17461,0.07267
2727.24586,0.07255
2725.31712,0.07259
2723.38837,0.07304
2721.45963,0.07358
2719.53088,0.07376
2717.60214,0.07370
2715.67339,0.07376
2713.74465,0.07389
2711.81590,0.07389
2709.88716,0.07382
2707.95841,0.07386
2706.02967,0.07402
2704.10092,0.07419
2702.17218,0.07425
2700.24343,0.07405
2698.31468,0.07375
2696.38594,0.07369
2694.45719,0.07380
2692.52845,0.07395
2690.59970,0.07408
2688.67096,0.07411
2686.74221,0.07411
2684.81347,0.07420
2682.88472,0.07430
2680.95598,0.07433
2679.02723,0.07440
2677.09849,0.07453
2675.16974,0.07450
2673.24100,0.07425
2671.31225,0.07416
2669.38351,0.07428
2667.45476,0.07426
2665.52601,0.07408
2663.59727,0.07404
2661.66852,0.07416
2659.73978,0.07424
2657.81103,0.07427
2655.88229,0.07428
2653.95354,0.07425
2652.02480,0.07430
2650.09605,0.07452
2648.16731,0.07472
2646.23856,0.07468
2644.30982,0.07434
2642.38107,0.07398
2640.45233,0.07380
2638.52358,0.07370
2636.59484,0.07350
2634.66609,0.07327
2632.73734,0.07313
2630.80860,0.07308
2628.87985,0.07312
2626.95111,0.07341
2625.02236,0.07388
2623.09362,0.07421
2621.16487,0.07430
2619.23613,0.07418
2617.30738,0.07388
2615.37864,0.07355
2613.44989,0.07326
2611.52115,0.07299
2609.59240,0.07279
2607.66366,0.07268
2605.73491,0.07266
2603.80616,0.07265
2601.87742,0.07258
2599.94867,0.07260
2598.01993,0.07279
2596.09118,0.07305
2594.16244,0.07323
2592.23369,0.07333
2590.30495,0.07335
2588.37620,0.07321
2586.44746,0.07298
2584.51871,0.07285
2582.58997,0.07282
2580.66122,0.07280
2578.73248,0.07279
2576.80373,0.07287
2574.87499,0.07309
2572.94624,0.07326
2571.01749,0.07319
2569.08875,0.07304
2567.16000,0.07308
2565.23126,0.07326
2563.30251,0.07338
2561.37377,0.07343
2559.44502,0.07342
2557.51628,0.07336
2555.58753,0.07327
2553.65879,0.07323
2551.73004,0.07322
2549.80130,0.07321
2547.87255,0.07320
2545.94381,0.07327
2544.01506,0.07330
2542.08631,0.07315
2540.15757,0.07287
2538.22882,0.07261
2536.30008,0.07261
2534.37133,0.07286
2532.44259,0.07294
2530.51384,0.07279
2528.58510,0.07265
2526.65635,0.07248
2524.72761,0.07229
2522.79886,0.07225
2520.87012,0.07227
2518.94137,0.07213
2517.01263,0.07193
2515.08388,0.07184
2513.15514,0.07195
2511.22639,0.07219
2509.29764,0.07236
2507.36890,0.07237
2505.44015,0.07228
2503.51141,0.07210
2501.58266,0.07195
2499.65392,0.07188
2497.72517,0.07184
2495.79643,0.07190
2493.86768,0.07216
2491.93894,0.07246
2490.01019,0.07257
2488.08145,0.07255
2486.15270,0.07260
2484.22396,0.07280
2482.29521,0.07303
2480.36647,0.07323
2478.43772,0.07340
2476.50897,0.07350
2474.58023,0.07353
2472.65148,0.07360
2470.72274,0.07371
2468.79399,0.07374
2466.86525,0.07374
2464.93650,0.07389
2463.00776,0.07412
2461.07901,0.07423
2459.15027,0.07424
2457.22152,0.07429
2455.29278,0.07446
2453.36403,0.07453
2451.43529,0.07444
2449.50654,0.07447
2447.57779,0.07460
2445.64905,0.07455
2443.72030,0.07437
2441.79156,0.07427
2439.86281,0.07423
2437.93407,0.07420
2436.00532,0.07420
2434.07658,0.07424
2432.14783,0.07421
2430.21909,0.07409
2428.29034,0.07397
2426.36160,0.07392
2424.43285,0.07396
2422.50411,0.07414
2420.57536,0.07435
2418.64662,0.07435
2416.71787,0.07410
2414.78912,0.07393
2412.86038,0.07405
2410.93163,0.07423
2409.00289,0.07423
2407.07414,0.07413
2405.14540,0.07413
2403.21665,0.07430
2401.28791,0.07441
2399.35916,0.07434
2397.43042,0.07434
2395.50167,0.07443
2393.57293,0.07455
2391.64418,0.07470
2389.71544,0.07482
2387.78669,0.07485
2385.85795,0.07486
2383.92920,0.07491
2382.00045,0.07496
2380.07171,0.07499
2378.14296,0.07491
2376.21422,0.07475
2374.28547,0.07473
2372.35673,0.07474
2370.42798,0.07457
2368.49924,0.07442
2366.57049,0.07443
2364.64175,0.07428
2362.71300,0.07384
2360.78426,0.07353
2358.85551,0.07360
2356.92677,0.07374
2354.99802,0.07363
2353.06927,0.07337
2351.14053,0.07315
2349.21178,0.07292
2347.28304,0.07265
2345.35429,0.07245
2343.42555,0.07239
2341.49680,0.07224
2339.56806,0.07192
2337.63931,0.07182
2335.71057,0.07211
2333.78182,0.07257
2331.85308,0.07304
2329.92433,0.07342
2327.99559,0.07378
2326.06684,0.07415
2324.13810,0.07440
2322.20935,0.07437
2320.28060,0.07417
2318.35186,0.07411
2316.42311,0.07421
2314.49437,0.07425
2312.56562,0.07429
2310.63688,0.07447
2308.70813,0.07465
2306.77939,0.07476
2304.85064,0.07489
2302.92190,0.07503
2300.99315,0.07505
2299.06441,0.07490
2297.13566,0.07469
2295.20692,0.07462
2293.27817,0.07465
2291.34943,0.07464
2289.42068,0.07458
2287.49193,0.07443
2285.56319,0.07422
2283.63444,0.07411
2281.70570,0.07411
2279.77695,0.07403
2277.84821,0.07382
2275.91946,0.07356
2273.99072,0.07334
2272.06197,0.07321
2270.13323,0.07314
2268.20448,0.07298
2266.27574,0.07266
2264.34699,0.07221
2262.41825,0.07180
2260.48950,0.07150
2258.56075,0.07104
2256.63201,0.07021
2254.70326,0.06899
2252.77452,0.06731
2250.84577,0.06517
2248.91703,0.06288
2246.98828,0.06067
2245.05954,0.05872
2243.13079,0.05726
2241.20205,0.05631
2239.27330,0.05576
2237.34456,0.05574
2235.41581,0.05647
2233.48707,0.05799
2231.55832,0.06036
2229.62958,0.06355
2227.70083,0.06716
2225.77208,0.07057
2223.84334,0.07336
2221.91459,0.07536
2219.98585,0.07661
2218.05710,0.07742
2216.12836,0.07808
2214.19961,0.07858
2212.27087,0.07881
2210.34212,0.07902
2208.41338,0.07942
2206.48463,0.07983
2204.55589,0.08012
2202.62714,0.08041
2200.69840,0.08067
2198.76965,0.08077
2196.84090,0.08070
2194.91216,0.08056
2192.98341,0.08032
2191.05467,0.08001
2189.12592,0.07978
2187.19718,0.07970
2185.26843,0.07981
2183.33969,0.08022
2181.41094,0.08080
2179.48220,0.08126
2177.55345,0.08156
2175.62471,0.08180
2173.69596,0.08192
2171.76722,0.08194
2169.83847,0.08203
2167.90973,0.08227
2165.98098,0.08253
2164.05223,0.08265
2162.12349,0.08259
2160.19474,0.08250
2158.26600,0.08240
2156.33725,0.08224
2154.40851,0.08210
2152.47976,0.08199
2150.55102,0.08183
2148.62227,0.08167
2146.69353,0.08154
2144.76478,0.08142
2142.83604,0.08133
2140.90729,0.08131
2138.97855,0.08138
2137.04980,0.08146
2135.12106,0.08155
2133.19231,0.08185
2131.26356,0.08239
2129.33482,0.08299
2127.40607,0.08348
2125.47733,0.08382
2123.54858,0.08420
2121.61984,0.08482
2119.69109,0.08549
2117.76235,0.08594
2115.83360,0.08634
2113.90486,0.08685
2111.97611,0.08732
2110.04737,0.08762
2108.11862,0.08783
2106.18988,0.08797
2104.26113,0.08805
2102.33238,0.08825
2100.40364,0.08861
2098.47489,0.08891
2096.54615,0.08900
2094.61740,0.08894
2092.68866,0.08881
2090.75991,0.08868
2088.83117,0.08864
2086.90242,0.08868
2084.97368,0.08865
2083.04493,0.08853
2081.11619,0.08851
2079.18744,0.08857
2077.25870,0.08854
2075.32995,0.08839
2073.40121,0.08815
2071.47246,0.08782
2069.54371,0.08741
2067.61497,0.08698
2065.68622,0.08662
2063.75748,0.08632
2061.82873,0.08612
2059.89999,0.08602
2057.97124,0.08588
2056.04250,0.08552
2054.11375,0.08506
2052.18501,0.08467
2050.25626,0.08444
2048.32752,0.08428
2046.39877,0.08396
2044.47003,0.08346
2042.54128,0.08316
2040.61254,0.08312
2038.68379,0.08300
2036.75504,0.08276
2034.82630,0.08257
2032.89755,0.08243
2030.96881,0.08234
2029.04006,0.08232
2027.11132,0.08230
2025.18257,0.08224
2023.25383,0.08215
2021.32508,0.08203
2019.39634,0.08194
2017.46759,0.08198
2015.53885,0.08210
2013.61010,0.08216
2011.68136,0.08216
2009.75261,0.08219
2007.82386,0.08215
2005.89512,0.08199
2003.96637,0.08171
2002.03763,0.08133
2000.10888,0.08085
1998.18014,0.08023
1996.25139,0.07948
1994.32265,0.07880
1992.39390,0.07824
1990.46516,0.07763
1988.53641,0.07712
1986.60767,0.07690
1984.67892,0.07673
1982.75018,0.07643
1980.82143,0.07603
1978.89269,0.07555
1976.96394,0.07498
1975.03519,0.07431
1973.10645,0.07365
1971.17770,0.07311
1969.24896,0.07258
1967.32021,0.07191
1965.39147,0.07113
1963.46272,0.07029
1961.53398,0.06950
1959.60523,0.06904
1957.67649,0.06894
1955.74774,0.06881
1953.81900,0.06854
1951.89025,0.06849
1949.96151,0.06892
1948.03276,0.06953
1946.10402,0.07011
1944.17527,0.07090
1942.24652,0.07207
1940.31778,0.07337
1938.38903,0.07455
1936.46029,0.07559
1934.53154,0.07653
1932.60280,0.07739
1930.67405,0.07825
1928.74531,0.07909
1926.81656,0.07971
1924.88782,0.08018
1922.95907,0.08056
1921.03033,0.08074
1919.10158,0.08077
1917.17284,0.08058
1915.24409,0.08007
1913.31534,0.07952
1911.38660,0.07913
1909.45785,0.07863
1907.52911,0.07778
1905.60036,0.07686
1903.67162,0.07610
1901.74287,0.07527
1899.81413,0.07427
1897.88538,0.07331
1895.95664,0.07260
1894.02789,0.07213
1892.09915,0.07182
1890.17040,0.07151
1888.24166,0.07106
1886.31291,0.07054
1884.38417,0.07030
1882.45542,0.07034
1880.52667,0.07048
1878.59793,0.07067
1876.66918,0.07091
1874.74044,0.07142
1872.81169,0.07230
1870.88295,0.07338
1868.95420,0.07459
1867.02546,0.07588
1865.09671,0.07707
1863.16797,0.07823
1861.23922,0.07944
1859.31048,0.08040
1857.38173,0.08100
1855.45299,0.08147
1853.52424,0.08178
1851.59549,0.08169
1849.66675,0.08131
1847.73800,0.08092
1845.80926,0.08052
1843.88051,0.07992
1841.95177,0.07908
1840.02302,0.07804
1838.09428,0.07670
1836.16553,0.07525
1834.23679,0.07404
1832.30804,0.07307
1830.37930,0.07207
1828.45055,0.07102
1826.52181,0.06999
1824.59306,0.06889
1822.66432,0.06771
1820.73557,0.06660
1818.80682,0.06568
1816.87808,0.06488
1814.94933,0.06412
1813.02059,0.06349
1811.09184,0.06299
1809.16310,0.06248
1807.23435,0.06179
1805.30561,0.06097
1803.37686,0.06023
1801.44812,0.05967
1799.51937,0.05933
1797.59063,0.05912
1795.66188,0.05888
1793.73314,0.05870
1791.80439,0.05875
1789.87565,0.05897
1787.94690,0.05924
1786.01815,0.05945
1784.08941,0.05961
1782.16066,0.05969
1780.23192,0.05960
1778.30317,0.05924
1776.37443,0.05876
1774.44568,0.05825
1772.51694,0.05767
1770.58819,0.05717
1768.65945,0.05673
1766.73070,0.05609
1764.80196,0.05525
1762.87321,0.05439
1760.94447,0.05358
1759.01572,0.05274
1757.08697,0.05177
1755.15823,0.05086
1753.22948,0.05013
1751.30074,0.04939
1749.37199,0.04854
1747.44325,0.04767
1745.51450,0.04692
1743.58576,0.04654
1741.65701,0.04677
1739.72827,0.04769
1737.79952,0.04912
1735.87078,0.05099
1733.94203,0.05331
1732.01329,0.05543
1730.08454,0.05694
1728.15580,0.05794
1726.22705,0.05860
1724.29830,0.05905
1722.36956,0.05916
1720.44081,0.05897
1718.51207,0.05874
1716.58332,0.05856
1714.65458,0.05841
1712.72583,0.05826
1710.79709,0.05814
1708.86834,0.05814
1706.93960,0.05833
1705.01085,0.05866
1703.08211,0.05899
1701.15336,0.05912
1699.22462,0.05902
1697.29587,0.05874
1695.36713,0.05829
1693.43838,0.05802
1691.50963,0.05811
1689.58089,0.05834
1687.65214,0.05862
1685.72340,0.05893
1683.79465,0.05914
1681.86591,0.05923
1679.93716,0.05939
1678.00842,0.05967
1676.07967,0.05983
1674.15093,0.05965
1672.22218,0.05927
1670.29344,0.05894
1668.36469,0.05871
1666.43595,0.05865
1664.50720,0.05865
1662.57845,0.05849
1660.64971,0.05814
1658.72096,0.05796
1656.79222,0.05806
1654.86347,0.05826
1652.93473,0.05828
1651.00598,0.05816
1649.07724,0.05811
1647.14849,0.05805
1645.21975,0.05797
1643.29100,0.05803
1641.36226,0.05821
1639.43351,0.05839
1637.50477,0.05862
1635.57602,0.05904
1633.64728,0.05959
1631.71853,0.06007
1629.78978,0.06020
1627.86104,0.05998
1625.93229,0.05979
1624.00355,0.05968
1622.07480,0.05954
1620.14606,0.05949
1618.21731,0.05949
1616.28857,0.05932
1614.35982,0.05895
1612.43108,0.05839
1610.50233,0.05758
1608.57359,0.05659
1606.64484,0.05559
1604.71610,0.05492
1602.78735,0.05482
1600.85861,0.05524
1598.92986,0.05593
1597.00111,0.05659
1595.07237,0.05710
1593.14362,0.05764
1591.21488,0.05809
1589.28613,0.05800
1587.35739,0.05730
1585.42864,0.05643
1583.49990,0.05592
1581.57115,0.05611
1579.64241,0.05677
1577.71366,0.05733
1575.78492,0.05746
1573.85617,0.05742
1571.92743,0.05742
1569.99868,0.05718
1568.06993,0.05665
1566.14119,0.05619
1564.21244,0.05595
1562.28370,0.05581
1560.35495,0.05554
1558.42621,0.05511
1556.49746,0.05479
1554.56872,0.05467
1552.63997,0.05466
1550.71123,0.05460
1548.78248,0.05456
1546.85374,0.05472
1544.92499,0.05508
1542.99625,0.05542
1541.06750,0.05565
1539.13876,0.05583
1537.21001,0.05605
1535.28126,0.05648
1533.35252,0.05711
1531.42377,0.05762
1529.49503,0.05797
1527.56628,0.05830
1525.63754,0.05871
1523.70879,0.05908
1521.78005,0.05924
1519.85130,0.05907
1517.92256,0.05883
1515.99381,0.05865
1514.06507,0.05846
1512.13632,0.05830
1510.20758,0.05821
1508.27883,0.05792
1506.35008,0.05703
1504.42134,0.05572
1502.49259,0.05431
1500.56385,0.05274
1498.63510,0.05126
1496.70636,0.05056
1494.77761,0.05117
1492.84887,0.05256
1490.92012,0.05374
1488.99138,0.05424
1487.06263,0.05433
1485.13389,0.05432
1483.20514,0.05423
1481.27640,0.05394
1479.34765,0.05336
1477.41891,0.05279
1475.49016,0.05253
1473.56141,0.05241
1471.63267,0.05223
1469.70392,0.05206
1467.77518,0.05195
1465.84643,0.05178
1463.91769,0.05154
1461.98894,0.05129
1460.06020,0.05095
1458.13145,0.05054
1456.20271,0.05059
1454.27396,0.05171
1452.34522,0.05347
1450.41647,0.05499
1448.48773,0.05562
1446.55898,0.05566
1444.63024,0.05578
1442.70149,0.05607
1440.77274,0.05624
1438.84400,0.05632
1436.91525,0.05638
1434.98651,0.05631
1433.05776,0.05612
1431.12902,0.05600
1429.20027,0.05602
1427.27153,0.05614
1425.34278,0.05619
1423.41404,0.05614
1421.48529,0.05605
1419.55655,0.05582
1417.62780,0.05569
1415.69906,0.05598
1413.77031,0.05633
1411.84156,0.05624
1409.91282,0.05579
1407.98407,0.05538
1406.05533,0.05498
1404.12658,0.05451
1402.19784,0.05406
1400.26909,0.05367
1398.34035,0.05342
1396.41160,0.05339
1394.48286,0.05341
1392.55411,0.05342
1390.62537,0.05353
1388.69662,0.05367
1386.76788,0.05359
1384.83913,0.05331
1382.91039,0.05311
1380.98164,0.05310
1379.05289,0.05319
1377.12415,0.05338
1375.19540,0.05359
1373.26666,0.05367
1371.33791,0.05365
1369.40917,0.05361
1367.48042,0.05354
1365.55168,0.05342
1363.62293,0.05332
1361.69419,0.05328
1359.76544,0.05335
1357.83670,0.05357
1355.90795,0.05384
1353.97921,0.05405
1352.05046,0.05404
1350.12172,0.05380
1348.19297,0.05360
1346.26422,0.05354
1344.33548,0.05350
1342.40673,0.05339
1340.47799,0.05326
1338.54924,0.05318
1336.62050,0.05318
1334.69175,0.05315
1332.76301,0.05294
1330.83426,0.05267
1328.90552,0.05259
1326.97677,0.05269
1325.04803,0.05279
1323.11928,0.05277
1321.19054,0.05269
1319.26179,0.05255
1317.33304,0.05243
1315.40430,0.05243
1313.47555,0.05251
1311.54681,0.05261
1309.61806,0.05278
1307.68932,0.05297
1305.76057,0.05297
1303.83183,0.05276
1301.90308,0.05259
1299.97434,0.05267
1298.04559,0.05280
1296.11685,0.05269
1294.18810,0.05242
1292.25936,0.05219
1290.33061,0.05206
1288.40187,0.05201
1286.47312,0.05198
1284.54437,0.05189
1282.61563,0.05171
1280.68688,0.05151
1278.75814,0.05131
1276.82939,0.05122
1274.90065,0.05133
1272.97190,0.05142
1271.04316,0.05142
1269.11441,0.05157
1267.18567,0.05182
1265.25692,0.05197
1263.32818,0.05205
1261.39943,0.05224
1259.47069,0.05237
1257.54194,0.05234
1255.61320,0.05248
1253.68445,0.05289
1251.75570,0.05307
1249.82696,0.05289
1247.89821,0.05278
1245.96947,0.05292
1244.04072,0.05316
1242.11198,0.05335
1240.18323,0.05350
1238.25449,0.05369
1236.32574,0.05380
1234.39700,0.05376
1232.46825,0.05375
1230.53951,0.05366
1228.61076,0.05339
1226.68202,0.05331
1224.75327,0.05352
1222.82452,0.05359
1220.89578,0.05343
1218.96703,0.05332
1217.03829,0.05334
1215.10954,0.05337
1213.18080,0.05342
1211.25205,0.05349
1209.32331,0.05339
1207.39456,0.05305
1205.46582,0.05274
1203.53707,0.05261
1201.60833,0.05251
1199.67958,0.05224
1197.75084,0.05187
1195.82209,0.05168
1193.89335,0.05165
1191.96460,0.05156
1190.03585,0.05140
1188.10711,0.05127
1186.17836,0.05112
1184.24962,0.05100
1182.32087,0.05113
1180.39213,0.05144
1178.46338,0.05181
1176.53464,0.05231
1174.60589,0.05286
1172.67715,0.05338
1170.74840,0.05391
1168.81966,0.05444
1166.89091,0.05501
1164.96217,0.05569
1163.03342,0.05647
1161.10467,0.05742
1159.17593,0.05852
1157.24718,0.05955
1155.31844,0.06029
1153.38969,0.06067
1151.46095,0.06071
1149.53220,0.06053
1147.60346,0.06040
1145.67471,0.06033
1143.74597,0.06005
1141.81722,0.05963
1139.88848,0.05926
1137.95973,0.05881
1136.03099,0.05829
1134.10224,0.05783
1132.17350,0.05752
1130.24475,0.05735
1128.31600,0.05723
1126.38726,0.05708
1124.45851,0.05675
1122.52977,0.05635
1120.60102,0.05627
1118.67228,0.05662
1116.74353,0.05712
1114.81479,0.05739
1112.88604,0.05735
1110.95730,0.05716
1109.02855,0.05688
1107.09981,0.05651
1105.17106,0.05617
1103.24232,0.05600
1101.31357,0.05602
1099.38483,0.05615
1097.45608,0.05621
1095.52733,0.05600
1093.59859,0.05553
1091.66984,0.05518
1089.74110,0.05535
1087.81235,0.05562
1085.88361,0.05531
1083.95486,0.05480
1082.02612,0.05468
1080.09737,0.05464
1078.16863,0.05443
1076.23988,0.05438
1074.31114,0.05477
1072.38239,0.05540
1070.45365,0.05578
1068.52490,0.05574
1066.59615,0.05554
1064.66741,0.05552
1062.73866,0.05581
1060.80992,0.05624
1058.88117,0.05650
1056.95243,0.05653
1055.02368,0.05647
1053.09494,0.05634
1051.16619,0.05620
1049.23745,0.05615
1047.30870,0.05607
1045.37996,0.05589
1043.45121,0.05571
1041.52247,0.05547
1039.59372,0.05525
1037.66498,0.05511
1035.73623,0.05510
1033.80748,0.05538
1031.87874,0.05568
1029.94999,0.05577
1028.02125,0.05589
1026.09250,0.05610
1024.16376,0.05635
1022.23501,0.05661
1020.30627,0.05675
1018.37752,0.05669
1016.44878,0.05667
1014.52003,0.05679
1012.59129,0.05688
1010.66254,0.05673
1008.73380,0.05652
1006.80505,0.05650
1004.87631,0.05649
1002.94756,0.05633
1001.01881,0.05631
999.09007,0.05641
997.16132,0.05626
995.23258,0.05578
993.30383,0.05536
991.37509,0.05546
989.44634,0.05587
987.51760,0.05607
985.58885,0.05583
983.66011,0.05545
981.73136,0.05531
979.80262,0.05527
977.87387,0.05507
975.94513,0.05496
974.01638,0.05504
972.08763,0.05509
970.15889,0.05516
968.23014,0.05545
966.30140,0.05576
964.37265,0.05578
962.44391,0.05552
960.51516,0.05522
958.58642,0.05500
956.65767,0.05480
954.72893,0.05475
952.80018,0.05484
950.87144,0.05493
948.94269,0.05505
947.01395,0.05509
945.08520,0.05490
943.15646,0.05476
941.22771,0.05491
939.29896,0.05522
937.37022,0.05545
935.44147,0.05539
933.51273,0.05508
931.58398,0.05485
929.65524,0.05491
927.72649,0.05511
925.79775,0.05504
923.86900,0.05458
921.94026,0.05427
920.01151,0.05442
918.08277,0.05466
916.15402,0.05465
914.22528,0.05443
912.29653,0.05403
910.36779,0.05391
908.43904,0.05450
906.51029,0.05513
904.58155,0.05518
902.65280,0.05499
900.72406,0.05477
898.79531,0.05452
896.86657,0.05425
894.93782,0.05390
893.00908,0.05365
891.08033,0.05384
889.15159,0.05432
887.22284,0.05462
885.29410,0.05447
883.36535,0.05415
881.43661,0.05408
879.50786,0.05429
877.57911,0.05433
875.65037,0.05423
873.72162,0.05425
871.79288,0.05409
869.86413,0.05366
867.93539,0.05337
866.00664,0.05348
864.07790,0.05375
862.14915,0.05382
860.22041,0.05357
858.29166,0.05310
856.36292,0.05269
854.43417,0.05256
852.50543,0.05265
850.57668,0.05278
848.64794,0.05293
846.71919,0.05311
844.79044,0.05317
842.86170,0.05298
840.93295,0.05251
839.00421,0.05211
837.07546,0.05227
835.14672,0.05303
833.21797,0.05394
831.28923,0.05441
829.36048,0.05400
827.43174,0.05302
825.50299,0.05237
823.57425,0.05232
821.64550,0.05227
819.71676,0.05206
817.78801,0.05207
815.85926,0.05221
813.93052,0.05228
812.00177,0.05238
810.07303,0.05232
808.14428,0.05192
806.21554,0.05140
804.28679,0.05109
802.35805,0.05098
800.42930,0.05073
798.50056,0.05045
796.57181,0.05044
794.64307,0.05035
792.71432,0.05009
790.78558,0.04993
788.85683,0.04969
786.92809,0.04910
784.99934,0.04840
783.07059,0.04791
781.14185,0.04758
779.21310,0.04733
777.28436,0.04712
775.35561,0.04676
773.42687,0.04638
771.49812,0.04634
769.56938,0.04679
767.64063,0.04745
765.71189,0.04798
763.78314,0.04862
761.85440,0.04978
759.92565,0.05142
757.99691,0.05314
756.06816,0.05430
754.13942,0.05463
752.21067,0.05457
750.28192,0.05455
748.35318,0.05466
746.42443,0.05469
744.49569,0.05424
742.56694,0.05354
740.63820,0.05328
738.70945,0.05356
736.78071,0.05373
734.85196,0.05326
732.92322,0.05220
730.99447,0.05114
729.06573,0.05044
727.13698,0.04982
725.20824,0.04922
723.27949,0.04874
721.35074,0.04814
719.42200,0.04717
717.49325,0.04595
715.56451,0.04452
713.63576,0.04271
711.70702,0.04105
709.77827,0.04065
707.84953,0.04196
705.92078,0.04523
703.99204,0.05094
702.06329,0.05859
700.13455,0.06621
698.20580,0.07124
696.27706,0.07229
694.34831,0.07035
692.41957,0.06739
690.49082,0.06472
688.56207,0.06280
686.63333,0.06140
684.70458,0.06021
682.77584,0.05952
680.84709,0.05933
678.91835,0.05889
676.98960,0.05797
675.06086,0.05717
673.13211,0.05669
671.20337,0.05625
669.27462,0.05606
667.34588,0.05629
665.41713,0.05641
663.48839,0.05614
661.55964,0.05585
659.63090,0.05587
657.70215,0.05607
655.77340,0.05613
653.84466,0.05596
651.91591,0.05559
649.98717,0.05506
648.05842,0.05452
646.12968,0.05452
644.20093,0.05527
642.27219,0.05615
640.34344,0.05661
638.41470,0.05661
636.48595,0.05610
634.55721,0.05517
632.62846,0.05462
630.69972,0.05465
628.77097,0.05471
626.84222,0.05498
624.91348,0.05565
622.98473,0.05628
621.05599,0.05658
619.12724,0.05638
617.19850,0.05547
615.26975,0.05431
613.34101,0.05442
611.41226,0.05559
609.48352,0.05552
607.55477,0.05437
605.62603,0.05394
603.69728,0.05395
601.76854,0.05327
599.83979,0.05204
