7497.03301,0.75193
7495.10426,0.74698
7493.17552,0.74584
7491.24677,0.75217
7489.31803,0.76062
7487.38928,0.76145
7485.46054,0.75358
7483.53179,0.74491
7481.60305,0.74388
7479.67430,0.74813
7477.74556,0.74963
7475.81681,0.74932
7473.88807,0.75055
7471.95932,0.75250
7470.03057,0.75367
7468.10183,0.75201
7466.17308,0.74845
7464.24434,0.74588
7462.31559,0.74291
7460.38685,0.74028
7458.45810,0.74397
7456.52936,0.75206
7454.60061,0.75558
7452.67187,0.75382
7450.74312,0.75231
7448.81438,0.75346
7446.88563,0.75586
7444.95689,0.75649
7443.02814,0.75411
7441.09940,0.75071
7439.17065,0.74723
7437.24190,0.74291
7435.31316,0.73977
7433.38441,0.73922
7431.45567,0.73890
7429.52692,0.73932
7427.59818,0.74309
7425.66943,0.74815
7423.74069,0.75043
7421.81194,0.75077
7419.88320,0.75057
7417.95445,0.74645
7416.02571,0.73899
7414.09696,0.73472
7412.16822,0.73651
7410.23947,0.74133
7408.31073,0.74415
7406.38198,0.74465
7404.45323,0.74537
7402.52449,0.74319
7400.59574,0.73813
7398.66700,0.73905
7396.73825,0.74579
7394.80951,0.74707
7392.88076,0.74014
7390.95202,0.73222
7389.02327,0.72897
7387.09453,0.72973
7385.16578,0.72983
7383.23704,0.72842
7381.30829,0.72824
7379.37955,0.73135
7377.45080,0.73641
7375.52205,0.73661
7373.59331,0.73080
7371.66456,0.72818
7369.73582,0.73103
7367.80707,0.73129
7365.87833,0.72783
7363.94958,0.72559
7362.02084,0.72411
7360.09209,0.72226
7358.16335,0.72265
7356.23460,0.72679
7354.30586,0.73023
7352.37711,0.72667
7350.44837,0.71937
7348.51962,0.71815
7346.59088,0.72412
7344.66213,0.72941
7342.73338,0.72864
7340.80464,0.72256
7338.87589,0.71537
7336.94715,0.70812
7335.01840,0.70083
7333.08966,0.70012
7331.16091,0.70631
7329.23217,0.70805
7327.30342,0.70271
7325.37468,0.69885
7323.44593,0.69973
7321.51719,0.70201
7319.58844,0.70230
7317.65970,0.69930
7315.73095,0.69680
7313.80221,0.69768
7311.87346,0.69707
7309.94471,0.69314
7308.01597,0.69103
7306.08722,0.69247
7304.15848,0.69430
7302.22973,0.69457
7300.30099,0.69356
7298.37224,0.69145
7296.44350,0.68893
7294.51475,0.68556
7292.58601,0.68001
7290.65726,0.67539
7288.72852,0.67433
7286.79977,0.67350
7284.87103,0.67026
7282.94228,0.66637
7281.01353,0.66356
7279.08479,0.66123
7277.15604,0.66015
7275.22730,0.66261
7273.29855,0.66583
7271.36981,0.66379
7269.44106,0.65667
7267.51232,0.65034
7265.58357,0.64643
7263.65483,0.64291
7261.72608,0.64175
7259.79734,0.64388
7257.86859,0.64578
7255.93985,0.64539
7254.01110,0.64276
7252.08236,0.63858
7250.15361,0.63366
7248.22486,0.62972
7246.29612,0.62943
7244.36737,0.63212
7242.43863,0.63441
7240.50988,0.63439
7238.58114,0.63038
7236.65239,0.62317
7234.72365,0.61790
7232.79490,0.61613
7230.86616,0.61503
7228.93741,0.61376
7227.00867,0.61372
7225.07992,0.61607
7223.15118,0.61904
7221.22243,0.62085
7219.29369,0.62099
7217.36494,0.61918
7215.43619,0.61775
7213.50745,0.61704
7211.57870,0.61583
7209.64996,0.61584
7207.72121,0.61871
7205.79247,0.62343
7203.86372,0.62504
7201.93498,0.62146
7200.00623,0.61739
7198.07749,0.61614
7196.14874,0.61720
7194.22000,0.61786
7192.29125,0.61659
7190.36251,0.61554
7188.43376,0.61562
7186.50501,0.61423
7184.57627,0.61088
7182.64752,0.60828
7180.71878,0.60557
7178.79003,0.60099
7176.86129,0.59798
7174.93254,0.59949
7173.00380,0.60322
7171.07505,0.60424
7169.14631,0.60193
7167.21756,0.60104
7165.28882,0.60323
7163.36007,0.60546
7161.43133,0.60449
7159.50258,0.59963
7157.57384,0.59373
7155.64509,0.59020
7153.71634,0.59052
7151.78760,0.59320
7149.85885,0.59455
7147.93011,0.59466
7146.00136,0.59524
7144.07262,0.59345
7142.14387,0.58926
7140.21513,0.58740
7138.28638,0.58851
7136.35764,0.59083
7134.42889,0.59338
7132.50015,0.59275
7130.57140,0.58913
7128.64266,0.58866
7126.71391,0.59086
7124.78516,0.59049
7122.85642,0.58986
7120.92767,0.59290
7118.99893,0.59506
7117.07018,0.59219
7115.14144,0.59009
7113.21269,0.59228
7111.28395,0.59404
7109.35520,0.59332
7107.42646,0.59233
7105.49771,0.59231
7103.56897,0.59283
7101.64022,0.59341
7099.71148,0.59354
7097.78273,0.59339
7095.85399,0.59236
7093.92524,0.58937
7091.99649,0.58778
7090.06775,0.58819
7088.13900,0.58719
7086.21026,0.58624
7084.28151,0.58530
7082.35277,0.58310
7080.42402,0.58296
7078.49528,0.58506
7076.56653,0.58533
7074.63779,0.58323
7072.70904,0.58125
7070.78030,0.57980
7068.85155,0.57878
7066.92281,0.57937
7064.99406,0.58034
7063.06532,0.58004
7061.13657,0.57950
7059.20782,0.57977
7057.27908,0.58038
7055.35033,0.57991
7053.42159,0.57826
7051.49284,0.57816
7049.56410,0.58041
7047.63535,0.58144
7045.70661,0.57902
7043.77786,0.57541
7041.84912,0.57482
7039.92037,0.57878
7037.99163,0.58450
7036.06288,0.58791
7034.13414,0.58764
7032.20539,0.58479
7030.27664,0.58094
7028.34790,0.57861
7026.41915,0.57915
7024.49041,0.58205
7022.56166,0.58544
7020.63292,0.58499
7018.70417,0.58144
7016.77543,0.57961
7014.84668,0.57848
7012.91794,0.57709
7010.98919,0.57806
7009.06045,0.58086
7007.13170,0.58239
7005.20296,0.58134
7003.27421,0.57848
7001.34547,0.57519
6999.41672,0.57250
6997.48797,0.57194
6995.55923,0.57583
6993.63048,0.58268
6991.70174,0.58739
6989.77299,0.58846
6987.84425,0.58729
6985.91550,0.58511
6983.98676,0.58398
6982.05801,0.58588
6980.12927,0.59009
6978.20052,0.59398
6976.27178,0.59611
6974.34303,0.59593
6972.41429,0.59427
6970.48554,0.59372
6968.55680,0.59510
6966.62805,0.59777
6964.69930,0.60118
6962.77056,0.60395
6960.84181,0.60510
6958.91307,0.60531
6956.98432,0.60434
6955.05558,0.60185
6953.12683,0.60029
6951.19809,0.60164
6949.26934,0.60403
6947.34060,0.60464
6945.41185,0.60479
6943.48311,0.60692
6941.55436,0.60950
6939.62562,0.61036
6937.69687,0.60993
6935.76812,0.60976
6933.83938,0.61020
6931.91063,0.61034
6929.98189,0.60979
6928.05314,0.60915
6926.12440,0.60999
6924.19565,0.61213
6922.26691,0.61315
6920.33816,0.61271
6918.40942,0.61328
6916.48067,0.61508
6914.55193,0.61566
6912.62318,0.61705
6910.69444,0.62174
6908.76569,0.62383
6906.83695,0.61982
6904.90820,0.61663
6902.97945,0.61849
6901.05071,0.62235
6899.12196,0.62457
6897.19322,0.62350
6895.26447,0.62218
6893.33573,0.62342
6891.40698,0.62393
6889.47824,0.62214
6887.54949,0.62081
6885.62075,0.62077
6883.69200,0.62083
6881.76326,0.62130
6879.83451,0.62290
6877.90577,0.62402
6875.97702,0.62451
6874.04828,0.62686
6872.11953,0.62888
6870.19078,0.62654
6868.26204,0.62295
6866.33329,0.62282
6864.40455,0.62539
6862.47580,0.62831
6860.54706,0.63132
6858.61831,0.63410
6856.68957,0.63424
6854.76082,0.63171
6852.83208,0.63015
6850.90333,0.63094
6848.97459,0.63143
6847.04584,0.62938
6845.11710,0.62727
6843.18835,0.62886
6841.25960,0.63241
6839.33086,0.63386
6837.40211,0.63342
6835.47337,0.63272
6833.54462,0.63197
6831.61588,0.63281
6829.68713,0.63535
6827.75839,0.63698
6825.82964,0.63601
6823.90090,0.63370
6821.97215,0.63340
6820.04341,0.63529
6818.11466,0.63728
6816.18592,0.63853
6814.25717,0.63814
6812.32843,0.63689
6810.39968,0.63729
6808.47093,0.63898
6806.54219,0.63897
6804.61344,0.63744
6802.68470,0.63701
6800.75595,0.63786
6798.82721,0.63873
6796.89846,0.63946
6794.96972,0.64070
6793.04097,0.64088
6791.11223,0.63761
6789.18348,0.63351
6787.25474,0.63374
6785.32599,0.63824
6783.39725,0.64138
6781.46850,0.64057
6779.53975,0.63896
6777.61101,0.63888
6775.68226,0.63948
6773.75352,0.63957
6771.82477,0.63965
6769.89603,0.64048
6767.96728,0.64098
6766.03854,0.64075
6764.10979,0.64122
6762.18105,0.64248
6760.25230,0.64327
6758.32356,0.64327
6756.39481,0.64247
6754.46607,0.64091
6752.53732,0.64032
6750.60858,0.64200
6748.67983,0.64389
6746.75108,0.64429
6744.82234,0.64418
6742.89359,0.64390
6740.96485,0.64248
6739.03610,0.64060
6737.10736,0.64098
6735.17861,0.64353
6733.24987,0.64511
6731.32112,0.64516
6729.39238,0.64507
6727.46363,0.64609
6725.53489,0.64869
6723.60614,0.65115
6721.67740,0.65199
6719.74865,0.65102
6717.81991,0.64816
6715.89116,0.64491
6713.96241,0.64333
6712.03367,0.64340
6710.10492,0.64415
6708.17618,0.64612
6706.24743,0.64965
6704.31869,0.65171
6702.38994,0.65020
6700.46120,0.64800
6698.53245,0.64708
6696.60371,0.64681
6694.67496,0.64769
6692.74622,0.65029
6690.81747,0.65388
6688.88873,0.65726
6686.95998,0.65835
6685.03123,0.65561
6683.10249,0.65146
6681.17374,0.64979
6679.24500,0.65052
6677.31625,0.65149
6675.38751,0.65232
6673.45876,0.65407
6671.53002,0.65488
6669.60127,0.65324
6667.67253,0.65258
6665.74378,0.65327
6663.81504,0.65297
6661.88629,0.65323
6659.95755,0.65425
6658.02880,0.65413
6656.10006,0.65385
6654.17131,0.65548
6652.24256,0.65745
6650.31382,0.65667
6648.38507,0.65467
6646.45633,0.65479
6644.52758,0.65590
6642.59884,0.65572
6640.67009,0.65526
6638.74135,0.65456
6636.81260,0.65247
6634.88386,0.65142
6632.95511,0.65258
6631.02637,0.65336
6629.09762,0.65346
6627.16888,0.65512
6625.24013,0.65861
6623.31139,0.66086
6621.38264,0.65980
6619.45389,0.65776
6617.52515,0.65688
6615.59640,0.65698
6613.66766,0.65754
6611.73891,0.65845
6609.81017,0.66007
6607.88142,0.66039
6605.95268,0.65763
6604.02393,0.65557
6602.09519,0.65706
6600.16644,0.65842
6598.23770,0.65706
6596.30895,0.65620
6594.38021,0.65792
6592.45146,0.66001
6590.52271,0.66066
6588.59397,0.66070
6586.66522,0.66073
6584.73648,0.65927
6582.80773,0.65605
6580.87899,0.65362
6578.95024,0.65395
6577.02150,0.65643
6575.09275,0.65932
6573.16401,0.66107
6571.23526,0.66005
6569.30652,0.65632
6567.37777,0.65325
6565.44903,0.65328
6563.52028,0.65512
6561.59154,0.65629
6559.66279,0.65588
6557.73404,0.65542
6555.80530,0.65670
6553.87655,0.65868
6551.94781,0.66030
6550.01906,0.66131
6548.09032,0.66065
6546.16157,0.66004
6544.23283,0.66115
6542.30408,0.66164
6540.37534,0.66027
6538.44659,0.65803
6536.51785,0.65686
6534.58910,0.65858
6532.66036,0.66174
6530.73161,0.66205
6528.80287,0.65876
6526.87412,0.65638
6524.94537,0.65665
6523.01663,0.65799
6521.08788,0.66078
6519.15914,0.66414
6517.23039,0.66481
6515.30165,0.66243
6513.37290,0.65975
6511.44416,0.65844
6509.51541,0.65834
6507.58667,0.65899
6505.65792,0.66056
6503.72918,0.66305
6501.80043,0.66485
6499.87169,0.66490
6497.94294,0.66334
6496.01419,0.66113
6494.08545,0.66033
6492.15670,0.66143
6490.22796,0.66276
6488.29921,0.66253
6486.37047,0.66125
6484.44172,0.66068
6482.51298,0.66032
6480.58423,0.65880
6478.65549,0.65808
6476.72674,0.66145
6474.79800,0.66611
6472.86925,0.66708
6470.94051,0.66548
6469.01176,0.66401
6467.08302,0.66290
6465.15427,0.66210
6463.22552,0.66193
6461.29678,0.66265
6459.36803,0.66322
6457.43929,0.66311
6455.51054,0.66356
6453.58180,0.66459
6451.65305,0.66537
6449.72431,0.66549
6447.79556,0.66554
6445.86682,0.66659
6443.93807,0.66684
6442.00933,0.66501
6440.08058,0.66369
6438.15184,0.66415
6436.22309,0.66471
6434.29434,0.66418
6432.36560,0.66325
6430.43685,0.66334
6428.50811,0.66432
6426.57936,0.66524
6424.65062,0.66641
6422.72187,0.66768
6420.79313,0.66680
6418.86438,0.66373
6416.93564,0.66285
6415.00689,0.66603
6413.07815,0.66998
6411.14940,0.67166
6409.22066,0.67073
6407.29191,0.66953
6405.36317,0.67015
6403.43442,0.67123
6401.50567,0.67067
6399.57693,0.66859
6397.64818,0.66747
6395.71944,0.66828
6393.79069,0.66906
6391.86195,0.66987
6389.93320,0.67159
6388.00446,0.67234
6386.07571,0.67067
6384.14697,0.66870
6382.21822,0.66914
6380.28948,0.67075
6378.36073,0.67080
6376.43199,0.66895
6374.50324,0.66659
6372.57450,0.66538
6370.64575,0.66579
6368.71700,0.66633
6366.78826,0.66602
6364.85951,0.66625
6362.93077,0.66794
6361.00202,0.66978
6359.07328,0.66998
6357.14453,0.66858
6355.21579,0.66765
6353.28704,0.66871
6351.35830,0.67086
6349.42955,0.67076
6347.50081,0.66794
6345.57206,0.66621
6343.64332,0.66592
6341.71457,0.66526
6339.78582,0.66492
6337.85708,0.66544
6335.92833,0.66547
6333.99959,0.66454
6332.07084,0.66503
6330.14210,0.66724
6328.21335,0.66834
6326.28461,0.66799
6324.35586,0.66726
6322.42712,0.66574
6320.49837,0.66414
6318.56963,0.66383
6316.64088,0.66382
6314.71214,0.66368
6312.78339,0.66426
6310.85465,0.66456
6308.92590,0.66361
6306.99715,0.66258
6305.06841,0.66303
6303.13966,0.66526
6301.21092,0.66756
6299.28217,0.66736
6297.35343,0.66508
6295.42468,0.66392
6293.49594,0.66480
6291.56719,0.66613
6289.63845,0.66657
6287.70970,0.66590
6285.78096,0.66526
6283.85221,0.66577
6281.92347,0.66655
6279.99472,0.66560
6278.06598,0.66331
6276.13723,0.66213
6274.20848,0.66258
6272.27974,0.66262
6270.35099,0.66186
6268.42225,0.66236
6266.49350,0.66359
6264.56476,0.66379
6262.63601,0.66372
6260.70727,0.66403
6258.77852,0.66399
6256.84978,0.66369
6254.92103,0.66320
6252.99229,0.66200
6251.06354,0.66172
6249.13480,0.66367
6247.20605,0.66495
6245.27730,0.66317
6243.34856,0.66047
6241.41981,0.66025
6239.49107,0.66237
6237.56232,0.66364
6235.63358,0.66287
6233.70483,0.66119
6231.77609,0.66005
6229.84734,0.66123
6227.91860,0.66377
6225.98985,0.66444
6224.06111,0.66300
6222.13236,0.66114
6220.20362,0.66045
6218.27487,0.66197
6216.34613,0.66435
6214.41738,0.66522
6212.48863,0.66395
6210.55989,0.66297
6208.63114,0.66401
6206.70240,0.66436
6204.77365,0.66294
6202.84491,0.66145
6200.91616,0.65962
6198.98742,0.65883
6197.05867,0.66103
6195.12993,0.66248
6193.20118,0.66044
6191.27244,0.65870
6189.34369,0.65904
6187.41495,0.65891
6185.48620,0.65756
6183.55746,0.65596
6181.62871,0.65482
6179.69996,0.65495
6177.77122,0.65581
6175.84247,0.65565
6173.91373,0.65402
6171.98498,0.65164
6170.05624,0.65006
6168.12749,0.65013
6166.19875,0.64961
6164.27000,0.64772
6162.34126,0.64709
6160.41251,0.64733
6158.48377,0.64605
6156.55502,0.64378
6154.62628,0.64145
6152.69753,0.63941
6150.76878,0.63836
6148.84004,0.63783
6146.91129,0.63724
6144.98255,0.63674
6143.05380,0.63613
6141.12506,0.63479
6139.19631,0.63250
6137.26757,0.63138
6135.33882,0.63251
6133.41008,0.63319
6131.48133,0.63137
6129.55259,0.62824
6127.62384,0.62649
6125.69510,0.62669
6123.76635,0.62688
6121.83761,0.62619
6119.90886,0.62571
6117.98011,0.62638
6116.05137,0.62762
6114.12262,0.62881
6112.19388,0.62964
6110.26513,0.62878
6108.33639,0.62665
6106.40764,0.62553
6104.47890,0.62522
6102.55015,0.62402
6100.62141,0.62196
6098.69266,0.62043
6096.76392,0.62061
6094.83517,0.62177
6092.90643,0.62163
6090.97768,0.61962
6089.04893,0.61741
6087.12019,0.61603
6085.19144,0.61489
6083.26270,0.61384
6081.33395,0.61371
6079.40521,0.61478
6077.47646,0.61610
6075.54772,0.61663
6073.61897,0.61659
6071.69023,0.61645
6069.76148,0.61705
6067.83274,0.61910
6065.90399,0.62097
6063.97525,0.62100
6062.04650,0.61958
6060.11776,0.61771
6058.18901,0.61622
6056.26026,0.61526
6054.33152,0.61493
6052.40277,0.61536
6050.47403,0.61514
6048.54528,0.61275
6046.61654,0.60889
6044.68779,0.60533
6042.75905,0.60276
6040.83030,0.60071
6038.90156,0.59832
6036.97281,0.59486
6035.04407,0.59038
6033.11532,0.58544
6031.18658,0.58035
6029.25783,0.57528
6027.32909,0.56992
6025.40034,0.56324
6023.47159,0.55580
6021.54285,0.55006
6019.61410,0.54603
6017.68536,0.54097
6015.75661,0.53420
6013.82787,0.52809
6011.89912,0.52410
6009.97038,0.52051
6008.04163,0.51552
6006.11289,0.50934
6004.18414,0.50295
6002.25540,0.49715
6000.32665,0.49215
5998.39791,0.48838
5996.46916,0.48613
5994.54041,0.48336
5992.61167,0.47850
5990.68292,0.47260
5988.75418,0.46684
5986.82543,0.46114
5984.89669,0.45507
5982.96794,0.44904
5981.03920,0.44351
5979.11045,0.43854
5977.18171,0.43509
5975.25296,0.43332
5973.32422,0.43156
5971.39547,0.42889
5969.46673,0.42621
5967.53798,0.42449
5965.60924,0.42294
5963.68049,0.42124
5961.75174,0.42055
5959.82300,0.42038
5957.89425,0.41937
5955.96551,0.41756
5954.03676,0.41520
5952.10802,0.41246
5950.17927,0.41045
5948.25053,0.41022
5946.32178,0.41058
5944.39304,0.40976
5942.46429,0.40802
5940.53555,0.40640
5938.60680,0.40516
5936.67806,0.40402
5934.74931,0.40233
5932.82057,0.40003
5930.89182,0.39746
5928.96307,0.39457
5927.03433,0.39116
5925.10558,0.38692
5923.17684,0.38243
5921.24809,0.37853
5919.31935,0.37462
5917.39060,0.37043
5915.46186,0.36651
5913.53311,0.36254
5911.60437,0.35819
5909.67562,0.35389
5907.74688,0.35022
5905.81813,0.34715
5903.88939,0.34376
5901.96064,0.34004
5900.03189,0.33670
5898.10315,0.33361
5896.17440,0.33095
5894.24566,0.32837
5892.31691,0.32495
5890.38817,0.32169
5888.45942,0.31955
5886.53068,0.31785
5884.60193,0.31610
5882.67319,0.31438
5880.74444,0.31294
5878.81570,0.31229
5876.88695,0.31216
5874.95821,0.31144
5873.02946,0.31042
5871.10072,0.30997
5869.17197,0.30895
5867.24322,0.30655
5865.31448,0.30411
5863.38573,0.30240
5861.45699,0.30047
5859.52824,0.29796
5857.59950,0.29603
5855.67075,0.29513
5853.74201,0.29426
5851.81326,0.29296
5849.88452,0.29132
5847.95577,0.28934
5846.02703,0.28787
5844.09828,0.28740
5842.16954,0.28708
5840.24079,0.28630
5838.31205,0.28552
5836.38330,0.28505
5834.45455,0.28459
5832.52581,0.28416
5830.59706,0.28359
5828.66832,0.28329
5826.73957,0.28435
5824.81083,0.28554
5822.88208,0.28547
5820.95334,0.28525
5819.02459,0.28494
5817.09585,0.28421
5815.16710,0.28466
5813.23836,0.28657
5811.30961,0.28832
5809.38087,0.28935
5807.45212,0.29069
5805.52337,0.29301
5803.59463,0.29536
5801.66588,0.29662
5799.73714,0.29714
5797.80839,0.29774
5795.87965,0.29859
5793.95090,0.30003
5792.02216,0.30228
5790.09341,0.30442
5788.16467,0.30582
5786.23592,0.30714
5784.30718,0.30880
5782.37843,0.31066
5780.44969,0.31224
5778.52094,0.31295
5776.59220,0.31287
5774.66345,0.31257
5772.73470,0.31269
5770.80596,0.31332
5768.87721,0.31403
5766.94847,0.31490
5765.01972,0.31602
5763.09098,0.31691
5761.16223,0.31704
5759.23349,0.31650
5757.30474,0.31597
5755.37600,0.31520
5753.44725,0.31350
5751.51851,0.31190
5749.58976,0.31106
5747.66102,0.30996
5745.73227,0.30848
5743.80352,0.30735
5741.87478,0.30667
5739.94603,0.30589
5738.01729,0.30450
5736.08854,0.30307
5734.15980,0.30203
5732.23105,0.30099
5730.30231,0.30033
5728.37356,0.30077
5726.44482,0.30177
5724.51607,0.30223
5722.58733,0.30199
5720.65858,0.30138
5718.72984,0.30024
5716.80109,0.29896
5714.87235,0.29880
5712.94360,0.29965
5711.01485,0.30033
5709.08611,0.30029
5707.15736,0.29957
5705.22862,0.29846
5703.29987,0.29781
5701.37113,0.29874
5699.44238,0.30060
5697.51364,0.30193
5695.58489,0.30326
5693.65615,0.30529
5691.72740,0.30734
5689.79866,0.30890
5687.86991,0.31004
5685.94117,0.31144
5684.01242,0.31381
5682.08368,0.31642
5680.15493,0.31806
5678.22618,0.31925
5676.29744,0.32082
5674.36869,0.32243
5672.43995,0.32414
5670.51120,0.32578
5668.58246,0.32675
5666.65371,0.32748
5664.72497,0.32824
5662.79622,0.32883
5660.86748,0.32970
5658.93873,0.33069
5657.00999,0.33131
5655.08124,0.33221
5653.15250,0.33350
5651.22375,0.33424
5649.29500,0.33429
5647.36626,0.33470
5645.43751,0.33608
5643.50877,0.33804
5641.58002,0.33995
5639.65128,0.34121
5637.72253,0.34175
5635.79379,0.34223
5633.86504,0.34258
5631.93630,0.34238
5630.00755,0.34229
5628.07881,0.34336
5626.15006,0.34465
5624.22132,0.34433
5622.29257,0.34361
5620.36383,0.34496
5618.43508,0.34741
5616.50633,0.34873
5614.57759,0.34907
5612.64884,0.34913
5610.72010,0.34914
5608.79135,0.34966
5606.86261,0.35054
5604.93386,0.35131
5603.00512,0.35168
5601.07637,0.35101
5599.14763,0.34985
5597.21888,0.34975
5595.29014,0.35111
5593.36139,0.35307
5591.43265,0.35443
5589.50390,0.35482
5587.57516,0.35512
5585.64641,0.35578
5583.71766,0.35657
5581.78892,0.35743
5579.86017,0.35842
5577.93143,0.35986
5576.00268,0.36197
5574.07394,0.36398
5572.14519,0.36509
5570.21645,0.36538
5568.28770,0.36528
5566.35896,0.36529
5564.43021,0.36607
5562.50147,0.36772
5560.57272,0.36929
5558.64398,0.37013
5556.71523,0.37067
5554.78648,0.37096
5552.85774,0.37051
5550.92899,0.36973
5549.00025,0.36974
5547.07150,0.37070
5545.14276,0.37206
5543.21401,0.37346
5541.28527,0.37401
5539.35652,0.37370
5537.42778,0.37393
5535.49903,0.37485
5533.57029,0.37540
5531.64154,0.37527
5529.71280,0.37496
5527.78405,0.37487
5525.85531,0.37510
5523.92656,0.37588
5521.99781,0.37647
5520.06907,0.37611
5518.14032,0.37593
5516.21158,0.37667
5514.28283,0.37766
5512.35409,0.37817
5510.42534,0.37817
5508.49660,0.37837
5506.56785,0.37856
5504.63911,0.37769
5502.71036,0.37649
5500.78162,0.37642
5498.85287,0.37695
5496.92413,0.37689
5494.99538,0.37590
5493.06664,0.37421
5491.13789,0.37301
5489.20914,0.37289
5487.28040,0.37290
5485.35165,0.37260
5483.42291,0.37270
5481.49416,0.37373
5479.56542,0.37462
5477.63667,0.37390
5475.70793,0.37260
5473.77918,0.37260
5471.85044,0.37320
5469.92169,0.37304
5467.99295,0.37271
5466.06420,0.37329
5464.13546,0.37444
5462.20671,0.37492
5460.27796,0.37465
5458.34922,0.37470
5456.42047,0.37524
5454.49173,0.37542
5452.56298,0.37502
5450.63424,0.37527
5448.70549,0.37670
5446.77675,0.37808
5444.84800,0.37845
5442.91926,0.37793
5440.99051,0.37754
5439.06177,0.37798
5437.13302,0.37897
5435.20428,0.38065
5433.27553,0.38291
5431.34679,0.38410
5429.41804,0.38353
5427.48929,0.38282
5425.56055,0.38291
5423.63180,0.38323
5421.70306,0.38373
5419.77431,0.38434
5417.84557,0.38474
5415.91682,0.38472
5413.98808,0.38402
5412.05933,0.38337
5410.13059,0.38354
5408.20184,0.38412
5406.27310,0.38502
5404.34435,0.38623
5402.41561,0.38669
5400.48686,0.38596
5398.55811,0.38521
5396.62937,0.38530
5394.70062,0.38602
5392.77188,0.38694
5390.84313,0.38722
5388.91439,0.38639
5386.98564,0.38572
5385.05690,0.38612
5383.12815,0.38687
5381.19941,0.38758
5379.27066,0.38852
5377.34192,0.38972
5375.41317,0.39112
5373.48443,0.39204
5371.55568,0.39163
5369.62694,0.39063
5367.69819,0.39046
5365.76944,0.39140
5363.84070,0.39264
5361.91195,0.39352
5359.98321,0.39449
5358.05446,0.39591
5356.12572,0.39724
5354.19697,0.39818
5352.26823,0.39898
5350.33948,0.40000
5348.41074,0.40133
5346.48199,0.40255
5344.55325,0.40301
5342.62450,0.40297
5340.69576,0.40341
5338.76701,0.40442
5336.83827,0.40531
5334.90952,0.40607
5332.98077,0.40708
5331.05203,0.40783
5329.12328,0.40842
5327.19454,0.40991
5325.26579,0.41157
5323.33705,0.41198
5321.40830,0.41160
5319.47956,0.41142
5317.55081,0.41161
5315.62207,0.41203
5313.69332,0.41210
5311.76458,0.41149
5309.83583,0.41123
5307.90709,0.41192
5305.97834,0.41266
5304.04959,0.41340
5302.12085,0.41469
5300.19210,0.41565
5298.26336,0.41500
5296.33461,0.41323
5294.40587,0.41208
5292.47712,0.41214
5290.54838,0.41251
5288.61963,0.41266
5286.69089,0.41258
5284.76214,0.41175
5282.83340,0.40985
5280.90465,0.40781
5278.97591,0.40654
5277.04716,0.40553
5275.11842,0.40407
5273.18967,0.40209
5271.26092,0.39945
5269.33218,0.39633
5267.40343,0.39323
5265.47469,0.39071
5263.54594,0.38916
5261.61720,0.38811
5259.68845,0.38689
5257.75971,0.38551
5255.83096,0.38429
5253.90222,0.38384
5251.97347,0.38432
5250.04473,0.38508
5248.11598,0.38596
5246.18724,0.38702
5244.25849,0.38812
5242.32975,0.38919
5240.40100,0.39011
5238.47225,0.39098
5236.54351,0.39208
5234.61476,0.39332
5232.68602,0.39434
5230.75727,0.39519
5228.82853,0.39593
5226.89978,0.39595
5224.97104,0.39523
5223.04229,0.39472
5221.11355,0.39507
5219.18480,0.39607
5217.25606,0.39688
5215.32731,0.39708
5213.39857,0.39722
5211.46982,0.39770
5209.54107,0.39785
5207.61233,0.39728
5205.68358,0.39677
5203.75484,0.39672
5201.82609,0.39678
5199.89735,0.39691
5197.96860,0.39695
5196.03986,0.39670
5194.11111,0.39645
5192.18237,0.39608
5190.25362,0.39490
5188.32488,0.39348
5186.39613,0.39327
5184.46739,0.39361
5182.53864,0.39287
5180.60990,0.39186
5178.68115,0.39179
5176.75240,0.39198
5174.82366,0.39181
5172.89491,0.39137
5170.96617,0.39049
5169.03742,0.38945
5167.10868,0.38898
5165.17993,0.38888
5163.25119,0.38866
5161.32244,0.38822
5159.39370,0.38744
5157.46495,0.38672
5155.53621,0.38640
5153.60746,0.38598
5151.67872,0.38544
5149.74997,0.38528
5147.82123,0.38508
5145.89248,0.38448
5143.96373,0.38401
5142.03499,0.38382
5140.10624,0.38385
5138.17750,0.38454
5136.24875,0.38551
5134.32001,0.38613
5132.39126,0.38676
5130.46252,0.38771
5128.53377,0.38866
5126.60503,0.38934
5124.67628,0.38958
5122.74754,0.38980
5120.81879,0.39072
5118.89005,0.39215
5116.96130,0.39349
5115.03255,0.39494
5113.10381,0.39649
5111.17506,0.39727
5109.24632,0.39721
5107.31757,0.39721
5105.38883,0.39781
5103.46008,0.39878
5101.53134,0.39973
5099.60259,0.40036
5097.67385,0.40061
5095.74510,0.40090
5093.81636,0.40150
5091.88761,0.40197
5089.95887,0.40232
5088.03012,0.40278
5086.10138,0.40287
5084.17263,0.40276
5082.24388,0.40289
5080.31514,0.40308
5078.38639,0.40341
5076.45765,0.40404
5074.52890,0.40461
5072.60016,0.40505
5070.67141,0.40522
5068.74267,0.40480
5066.81392,0.40453
5064.88518,0.40534
5062.95643,0.40665
5061.02769,0.40745
5059.09894,0.40774
5057.17020,0.40807
5055.24145,0.40866
5053.31270,0.40928
5051.38396,0.40968
5049.45521,0.40989
5047.52647,0.40991
5045.59772,0.40970
5043.66898,0.40957
5041.74023,0.40975
5039.81149,0.40991
5037.88274,0.40992
5035.95400,0.41021
5034.02525,0.41074
5032.09651,0.41107
5030.16776,0.41143
5028.23902,0.41217
5026.31027,0.41261
5024.38153,0.41234
5022.45278,0.41226
5020.52403,0.41291
5018.59529,0.41354
5016.66654,0.41363
5014.73780,0.41337
5012.80905,0.41323
5010.88031,0.41365
5008.95156,0.41410
5007.02282,0.41372
5005.09407,0.41289
5003.16533,0.41246
5001.23658,0.41259
4999.30784,0.41315
4997.37909,0.41385
4995.45035,0.41393
4993.52160,0.41303
4991.59286,0.41187
4989.66411,0.41120
4987.73536,0.41113
4985.80662,0.41145
4983.87787,0.41165
4981.94913,0.41170
4980.02038,0.41212
4978.09164,0.41275
4976.16289,0.41305
4974.23415,0.41300
4972.30540,0.41268
4970.37666,0.41224
4968.44791,0.41214
4966.51917,0.41258
4964.59042,0.41303
4962.66168,0.41324
4960.73293,0.41333
4958.80418,0.41337
4956.87544,0.41373
4954.94669,0.41402
4953.01795,0.41338
4951.08920,0.41242
4949.16046,0.41184
4947.23171,0.41148
4945.30297,0.41133
4943.37422,0.41124
4941.44548,0.41077
4939.51673,0.41038
4937.58799,0.41055
4935.65924,0.41087
4933.73050,0.41107
4931.80175,0.41117
4929.87301,0.41110
4927.94426,0.41080
4926.01551,0.41039
4924.08677,0.40997
4922.15802,0.40943
4920.22928,0.40883
4918.30053,0.40828
4916.37179,0.40768
4914.44304,0.40736
4912.51430,0.40748
4910.58555,0.40741
4908.65681,0.40702
4906.72806,0.40667
4904.79932,0.40612
4902.87057,0.40536
4900.94183,0.40493
4899.01308,0.40483
4897.08434,0.40438
4895.15559,0.40330
4893.22684,0.40203
4891.29810,0.40082
4889.36935,0.39991
4887.44061,0.39944
4885.51186,0.39900
4883.58312,0.39827
4881.65437,0.39720
4879.72563,0.39612
4877.79688,0.39557
4875.86814,0.39535
4873.93939,0.39488
4872.01065,0.39401
4870.08190,0.39313
4868.15316,0.39261
4866.22441,0.39263
4864.29566,0.39289
4862.36692,0.39299
4860.43817,0.39314
4858.50943,0.39362
4856.58068,0.39429
4854.65194,0.39497
4852.72319,0.39530
4850.79445,0.39507
4848.86570,0.39479
4846.93696,0.39498
4845.00821,0.39541
4843.07947,0.39564
4841.15072,0.39600
4839.22198,0.39693
4837.29323,0.39773
4835.36449,0.39783
4833.43574,0.39761
4831.50699,0.39734
4829.57825,0.39732
4827.64950,0.39773
4825.72076,0.39813
4823.79201,0.39838
4821.86327,0.39853
4819.93452,0.39836
4818.00578,0.39795
4816.07703,0.39786
4814.14829,0.39831
4812.21954,0.39877
4810.29080,0.39886
4808.36205,0.39871
4806.43331,0.39863
4804.50456,0.39882
4802.57582,0.39886
4800.64707,0.39846
4798.71832,0.39812
4796.78958,0.39815
4794.86083,0.39831
4792.93209,0.39802
4791.00334,0.39719
4789.07460,0.39655
4787.14585,0.39648
4785.21711,0.39656
4783.28836,0.39655
4781.35962,0.39627
4779.43087,0.39549
4777.50213,0.39457
4775.57338,0.39404
4773.64464,0.39364
4771.71589,0.39300
4769.78714,0.39231
4767.85840,0.39168
4765.92965,0.39105
4764.00091,0.39046
4762.07216,0.39005
4760.14342,0.38988
4758.21467,0.38966
4756.28593,0.38942
4754.35718,0.38969
4752.42844,0.39015
4750.49969,0.39023
4748.57095,0.38988
4746.64220,0.38911
4744.71346,0.38802
4742.78471,0.38689
4740.85597,0.38592
4738.92722,0.38535
4736.99847,0.38499
4735.06973,0.38452
4733.14098,0.38383
4731.21224,0.38274
4729.28349,0.38141
4727.35475,0.38018
4725.42600,0.37898
4723.49726,0.37784
4721.56851,0.37652
4719.63977,0.37480
4717.71102,0.37299
4715.78228,0.37132
4713.85353,0.36963
4711.92479,0.36800
4709.99604,0.36661
4708.06729,0.36531
4706.13855,0.36399
4704.20980,0.36273
4702.28106,0.36134
4700.35231,0.35935
4698.42357,0.35662
4696.49482,0.35354
4694.56608,0.35052
4692.63733,0.34732
4690.70859,0.34367
4688.77984,0.33996
4686.85110,0.33605
4684.92235,0.33067
4682.99361,0.32338
4681.06486,0.31518
4679.13612,0.30727
4677.20737,0.30016
4675.27862,0.29363
4673.34988,0.28781
4671.42113,0.28330
4669.49239,0.28020
4667.56364,0.27861
4665.63490,0.27869
4663.70615,0.28036
4661.77741,0.28346
4659.84866,0.28752
4657.91992,0.29184
4655.99117,0.29601
4654.06243,0.29987
4652.13368,0.30337
4650.20494,0.30630
4648.27619,0.30838
4646.34745,0.30926
4644.41870,0.30888
4642.48995,0.30723
4640.56121,0.30437
4638.63246,0.30096
4636.70372,0.29738
4634.77497,0.29385
4632.84623,0.29099
4630.91748,0.28875
4628.98874,0.28691
4627.05999,0.28589
4625.13125,0.28572
4623.20250,0.28596
4621.27376,0.28652
4619.34501,0.28702
4617.41627,0.28661
4615.48752,0.28545
4613.55877,0.28442
4611.63003,0.28350
4609.70128,0.28277
4607.77254,0.28360
4605.84379,0.28655
4603.91505,0.29022
4601.98630,0.29395
4600.05756,0.29859
4598.12881,0.30418
4596.20007,0.30962
4594.27132,0.31412
4592.34258,0.31742
4590.41383,0.31922
4588.48509,0.31973
4586.55634,0.31941
4584.62760,0.31820
4582.69885,0.31589
4580.77010,0.31242
4578.84136,0.30811
4576.91261,0.30416
4574.98387,0.30200
4573.05512,0.30238
4571.12638,0.30495
4569.19763,0.30877
4567.26889,0.31322
4565.34014,0.31803
4563.41140,0.32252
4561.48265,0.32606
4559.55391,0.32875
4557.62516,0.33075
4555.69642,0.33221
4553.76767,0.33362
4551.83893,0.33490
4549.91018,0.33546
4547.98143,0.33574
4546.05269,0.33640
4544.12394,0.33675
4542.19520,0.33621
4540.26645,0.33525
4538.33771,0.33414
4536.40896,0.33319
4534.48022,0.33280
4532.55147,0.33254
4530.62273,0.33188
4528.69398,0.33092
4526.76524,0.32997
4524.83649,0.32900
4522.90775,0.32783
4520.97900,0.32650
4519.05025,0.32518
4517.12151,0.32393
4515.19276,0.32277
4513.26402,0.32182
4511.33527,0.32123
4509.40653,0.32056
4507.47778,0.31917
4505.54904,0.31742
4503.62029,0.31613
4501.69155,0.31532
4499.76280,0.31461
4497.83406,0.31368
4495.90531,0.31231
4493.97657,0.31064
4492.04782,0.30886
4490.11908,0.30683
4488.19033,0.30465
4486.26158,0.30260
4484.33284,0.30090
4482.40409,0.29931
4480.47535,0.29740
4478.54660,0.29506
4476.61786,0.29242
4474.68911,0.28980
4472.76037,0.28718
4470.83162,0.28419
4468.90288,0.28084
4466.97413,0.27751
4465.04539,0.27424
4463.11664,0.27074
4461.18790,0.26693
4459.25915,0.26290
4457.33041,0.25867
4455.40166,0.25436
4453.47291,0.25018
4451.54417,0.24610
4449.61542,0.24214
4447.68668,0.23864
4445.75793,0.23540
4443.82919,0.23189
4441.90044,0.22820
4439.97170,0.22465
4438.04295,0.22123
4436.11421,0.21758
4434.18546,0.21378
4432.25672,0.21052
4430.32797,0.20754
4428.39923,0.20415
4426.47048,0.20052
4424.54173,0.19689
4422.61299,0.19304
4420.68424,0.18917
4418.75550,0.18567
4416.82675,0.18246
4414.89801,0.17937
4412.96926,0.17619
4411.04052,0.17272
4409.11177,0.16918
4407.18303,0.16625
4405.25428,0.16422
4403.32554,0.16252
4401.39679,0.16056
4399.46805,0.15841
4397.53930,0.15613
4395.61056,0.15371
4393.68181,0.15143
4391.75306,0.14957
4389.82432,0.14778
4387.89557,0.14561
4385.96683,0.14330
4384.03808,0.14136
4382.10934,0.13978
4380.18059,0.13827
4378.25185,0.13668
4376.32310,0.13510
4374.39436,0.13375
4372.46561,0.13261
4370.53687,0.13163
4368.60812,0.13088
4366.67938,0.13022
4364.75063,0.12935
4362.82189,0.12842
4360.89314,0.12759
4358.96439,0.12678
4357.03565,0.12621
4355.10690,0.12603
4353.17816,0.12596
4351.24941,0.12573
4349.32067,0.12555
4347.39192,0.12582
4345.46318,0.12631
4343.53443,0.12645
4341.60569,0.12623
4339.67694,0.12607
4337.74820,0.12632
4335.81945,0.12696
4333.89071,0.12771
4331.96196,0.12841
4330.03321,0.12921
4328.10447,0.13014
4326.17572,0.13105
4324.24698,0.13179
4322.31823,0.13220
4320.38949,0.13254
4318.46074,0.13322
4316.53200,0.13411
4314.60325,0.13469
4312.67451,0.13465
4310.74576,0.13423
4308.81702,0.13394
4306.88827,0.13397
4304.95953,0.13406
4303.03078,0.13390
4301.10204,0.13346
4299.17329,0.13296
4297.24454,0.13268
4295.31580,0.13259
4293.38705,0.13234
4291.45831,0.13166
4289.52956,0.13080
4287.60082,0.13023
4285.67207,0.12962
4283.74333,0.12847
4281.81458,0.12733
4279.88584,0.12686
4277.95709,0.12685
4276.02835,0.12673
4274.09960,0.12638
4272.17086,0.12589
4270.24211,0.12529
4268.31336,0.12474
4266.38462,0.12437
4264.45587,0.12403
4262.52713,0.12366
4260.59838,0.12334
4258.66964,0.12312
4256.74089,0.12305
4254.81215,0.12288
4252.88340,0.12250
4250.95466,0.12242
4249.02591,0.12280
4247.09717,0.12316
4245.16842,0.12321
4243.23968,0.12300
4241.31093,0.12290
4239.38219,0.12317
4237.45344,0.12357
4235.52469,0.12367
4233.59595,0.12328
4231.66720,0.12292
4229.73846,0.12312
4227.80971,0.12338
4225.88097,0.12322
4223.95222,0.12285
4222.02348,0.12262
4220.09473,0.12289
4218.16599,0.12351
4216.23724,0.12374
4214.30850,0.12338
4212.37975,0.12294
4210.45101,0.12282
4208.52226,0.12297
4206.59352,0.12328
4204.66477,0.12374
4202.73602,0.12426
4200.80728,0.12479
4198.87853,0.12529
4196.94979,0.12566
4195.02104,0.12591
4193.09230,0.12597
4191.16355,0.12590
4189.23481,0.12606
4187.30606,0.12654
4185.37732,0.12700
4183.44857,0.12720
4181.51983,0.12721
4179.59108,0.12708
4177.66234,0.12672
4175.73359,0.12636
4173.80484,0.12636
4171.87610,0.12683
4169.94735,0.12757
4168.01861,0.12813
4166.08986,0.12831
4164.16112,0.12821
4162.23237,0.12789
4160.30363,0.12784
4158.37488,0.12848
4156.44614,0.12920
4154.51739,0.12935
4152.58865,0.12921
4150.65990,0.12921
4148.73116,0.12927
4146.80241,0.12912
4144.87367,0.12881
4142.94492,0.12872
4141.01617,0.12900
4139.08743,0.12922
4137.15868,0.12914
4135.22994,0.12901
4133.30119,0.12900
4131.37245,0.12896
4129.44370,0.12879
4127.51496,0.12855
4125.58621,0.12824
4123.65747,0.12796
4121.72872,0.12786
4119.79998,0.12778
4117.87123,0.12745
4115.94249,0.12690
4114.01374,0.12632
4112.08500,0.12588
4110.15625,0.12560
4108.22750,0.12527
4106.29876,0.12467
4104.37001,0.12420
4102.44127,0.12436
4100.51252,0.12477
4098.58378,0.12459
4096.65503,0.12375
4094.72629,0.12301
4092.79754,0.12268
4090.86880,0.12224
4088.94005,0.12138
4087.01131,0.12043
4085.08256,0.11959
4083.15382,0.11882
4081.22507,0.11796
4079.29632,0.11703
4077.36758,0.11607
4075.43883,0.11488
4073.51009,0.11355
4071.58134,0.11245
4069.65260,0.11159
4067.72385,0.11080
4065.79511,0.11020
4063.86636,0.10987
4061.93762,0.10964
4060.00887,0.10929
4058.08013,0.10877
4056.15138,0.10845
4054.22264,0.10859
4052.29389,0.10896
4050.36515,0.10913
4048.43640,0.10892
4046.50765,0.10857
4044.57891,0.10805
4042.65016,0.10748
4040.72142,0.10743
4038.79267,0.10799
4036.86393,0.10884
4034.93518,0.10990
4033.00644,0.11100
4031.07769,0.11208
4029.14895,0.11333
4027.22020,0.11470
4025.29146,0.11602
4023.36271,0.11748
4021.43397,0.11921
4019.50522,0.12100
4017.57648,0.12270
4015.64773,0.12412
4013.71898,0.12505
4011.79024,0.12567
4009.86149,0.12619
4007.93275,0.12666
4006.00400,0.12721
4004.07526,0.12762
4002.14651,0.12780
4000.21777,0.12826
3998.28902,0.12899
3996.36028,0.12969
3994.43153,0.13048
3992.50279,0.13128
3990.57404,0.13182
3988.64530,0.13225
3986.71655,0.13276
3984.78780,0.13325
3982.85906,0.13360
3980.93031,0.13388
3979.00157,0.13422
3977.07282,0.13466
3975.14408,0.13515
3973.21533,0.13569
3971.28659,0.13611
3969.35784,0.13628
3967.42910,0.13647
3965.50035,0.13684
3963.57161,0.13709
3961.64286,0.13722
3959.71412,0.13749
3957.78537,0.13781
3955.85663,0.13806
3953.92788,0.13829
3951.99913,0.13835
3950.07039,0.13821
3948.14164,0.13798
3946.21290,0.13789
3944.28415,0.13813
3942.35541,0.13830
3940.42666,0.13800
3938.49792,0.13759
3936.56917,0.13761
3934.64043,0.13803
3932.71168,0.13839
3930.78294,0.13845
3928.85419,0.13833
3926.92545,0.13821
3924.99670,0.13817
3923.06795,0.13843
3921.13921,0.13890
3919.21046,0.13907
3917.28172,0.13912
3915.35297,0.13946
3913.42423,0.13976
3911.49548,0.13974
3909.56674,0.13957
3907.63799,0.13945
3905.70925,0.13957
3903.78050,0.14001
3901.85176,0.14047
3899.92301,0.14051
3897.99427,0.14013
3896.06552,0.13982
3894.13678,0.14002
3892.20803,0.14045
3890.27928,0.14064
3888.35054,0.14082
3886.42179,0.14116
3884.49305,0.14122
3882.56430,0.14091
3880.63556,0.14071
3878.70681,0.14079
3876.77807,0.14082
3874.84932,0.14069
3872.92058,0.14058
3870.99183,0.14056
3869.06309,0.14073
3867.13434,0.14089
3865.20560,0.14069
3863.27685,0.14038
3861.34811,0.14031
3859.41936,0.14038
3857.49061,0.14051
3855.56187,0.14065
3853.63312,0.14052
3851.70438,0.14008
3849.77563,0.13960
3847.84689,0.13926
3845.91814,0.13917
3843.98940,0.13936
3842.06065,0.13955
3840.13191,0.13940
3838.20316,0.13915
3836.27442,0.13931
3834.34567,0.13960
3832.41693,0.13959
3830.48818,0.13947
3828.55943,0.13949
3826.63069,0.13946
3824.70194,0.13938
3822.77320,0.13950
3820.84445,0.13979
3818.91571,0.13997
3816.98696,0.14000
3815.05822,0.14028
3813.12947,0.14092
3811.20073,0.14153
3809.27198,0.14196
3807.34324,0.14224
3805.41449,0.14235
3803.48575,0.14249
3801.55700,0.14292
3799.62826,0.14351
3797.69951,0.14374
3795.77076,0.14370
3793.84202,0.14407
3791.91327,0.14489
3789.98453,0.14556
3788.05578,0.14579
3786.12704,0.14592
3784.19829,0.14631
3782.26955,0.14677
3780.34080,0.14711
3778.41206,0.14740
3776.48331,0.14769
3774.55457,0.14795
3772.62582,0.14828
3770.69708,0.14856
3768.76833,0.14851
3766.83959,0.14836
3764.91084,0.14837
3762.98209,0.14844
3761.05335,0.14882
3759.12460,0.14951
3757.19586,0.15003
3755.26711,0.15027
3753.33837,0.15041
3751.40962,0.15048
3749.48088,0.15046
3747.55213,0.15045
3745.62339,0.15024
3743.69464,0.14992
3741.76590,0.15001
3739.83715,0.15046
3737.90841,0.15108
3735.97966,0.15167
3734.05091,0.15187
3732.12217,0.15159
3730.19342,0.15124
3728.26468,0.15115
3726.33593,0.15126
3724.40719,0.15113
3722.47844,0.15062
3720.54970,0.15018
3718.62095,0.14996
3716.69221,0.14960
3714.76346,0.14892
3712.83472,0.14796
3710.90597,0.14665
3708.97723,0.14492
3707.04848,0.14287
3705.11974,0.14074
3703.19099,0.13884
3701.26224,0.13722
3699.33350,0.13543
3697.40475,0.13331
3695.47601,0.13132
3693.54726,0.12956
3691.61852,0.12762
3689.68977,0.12524
3687.76103,0.12268
3685.83228,0.12049
3683.90354,0.11867
3681.97479,0.11699
3680.04605,0.11543
3678.11730,0.11396
3676.18856,0.11254
3674.25981,0.11125
3672.33107,0.11028
3670.40232,0.10949
3668.47357,0.10861
3666.54483,0.10763
3664.61608,0.10673
3662.68734,0.10576
3660.75859,0.10472
3658.82985,0.10391
3656.90110,0.10334
3654.97236,0.10295
3653.04361,0.10251
3651.11487,0.10176
3649.18612,0.10099
3647.25738,0.10073
3645.32863,0.10090
3643.39989,0.10126
3641.47114,0.10174
3639.54239,0.10222
3637.61365,0.10251
3635.68490,0.10264
3633.75616,0.10264
3631.82741,0.10238
3629.89867,0.10186
3627.96992,0.10136
3626.04118,0.10122
3624.11243,0.10133
3622.18369,0.10137
3620.25494,0.10109
3618.32620,0.10058
3616.39745,0.10056
3614.46871,0.10119
3612.53996,0.10175
3610.61122,0.10176
3608.68247,0.10157
3606.75372,0.10161
3604.82498,0.10180
3602.89623,0.10195
3600.96749,0.10198
3599.03874,0.10192
3597.11000,0.10169
3595.18125,0.10134
3593.25251,0.10125
3591.32376,0.10141
3589.39502,0.10122
3587.46627,0.10058
3585.53753,0.10010
3583.60878,0.10004
3581.68004,0.10003
3579.75129,0.09980
3577.82254,0.09948
3575.89380,0.09926
3573.96505,0.09906
3572.03631,0.09882
3570.10756,0.09853
3568.17882,0.09809
3566.25007,0.09756
3564.32133,0.09714
3562.39258,0.09681
3560.46384,0.09628
3558.53509,0.09556
3556.60635,0.09498
3554.67760,0.09484
3552.74886,0.09496
3550.82011,0.09490
3548.89137,0.09463
3546.96262,0.09409
3545.03387,0.09336
3543.10513,0.09303
3541.17638,0.09316
3539.24764,0.09327
3537.31889,0.09306
3535.39015,0.09258
3533.46140,0.09216
3531.53266,0.09205
3529.60391,0.09216
3527.67517,0.09240
3525.74642,0.09259
3523.81768,0.09261
3521.88893,0.09255
3519.96019,0.09228
3518.03144,0.09182
3516.10270,0.09153
3514.17395,0.09153
3512.24520,0.09176
3510.31646,0.09208
3508.38771,0.09219
3506.45897,0.09221
3504.53022,0.09241
3502.60148,0.09262
3500.67273,0.09259
3498.74399,0.09253
3496.81524,0.09240
3494.88650,0.09207
3492.95775,0.09177
3491.02901,0.09164
3489.10026,0.09167
3487.17152,0.09187
3485.24277,0.09208
3483.31402,0.09189
3481.38528,0.09127
3479.45653,0.09071
3477.52779,0.09048
3475.59904,0.09034
3473.67030,0.08986
3471.74155,0.08919
3469.81281,0.08883
3467.88406,0.08874
3465.95532,0.08844
3464.02657,0.08785
3462.09783,0.08708
3460.16908,0.08628
3458.24034,0.08567
3456.31159,0.08517
3454.38285,0.08448
3452.45410,0.08371
3450.52535,0.08326
3448.59661,0.08329
3446.66786,0.08355
3444.73912,0.08365
3442.81037,0.08332
3440.88163,0.08291
3438.95288,0.08294
3437.02414,0.08346
3435.09539,0.08410
3433.16665,0.08453
3431.23790,0.08475
3429.30916,0.08497
3427.38041,0.08521
3425.45167,0.08550
3423.52292,0.08598
3421.59418,0.08662
3419.66543,0.08711
3417.73668,0.08713
3415.80794,0.08673
3413.87919,0.08647
3411.95045,0.08649
3410.02170,0.08643
3408.09296,0.08631
3406.16421,0.08633
3404.23547,0.08640
3402.30672,0.08637
3400.37798,0.08628
3398.44923,0.08618
3396.52049,0.08590
3394.59174,0.08546
3392.66300,0.08510
3390.73425,0.08479
3388.80550,0.08446
3386.87676,0.08420
3384.94801,0.08400
3383.01927,0.08374
3381.09052,0.08342
3379.16178,0.08326
3377.23303,0.08317
3375.30429,0.08275
3373.37554,0.08208
3371.44680,0.08169
3369.51805,0.08149
3367.58931,0.08106
3365.66056,0.08039
3363.73182,0.07978
3361.80307,0.07931
3359.87433,0.07870
3357.94558,0.07785
3356.01683,0.07721
3354.08809,0.07702
3352.15934,0.07697
3350.23060,0.07646
3348.30185,0.07546
3346.37311,0.07460
3344.44436,0.07405
3342.51562,0.07332
3340.58687,0.07233
3338.65813,0.07125
3336.72938,0.07022
3334.80064,0.06943
3332.87189,0.06881
3330.94315,0.06815
3329.01440,0.06736
3327.08566,0.06642
3325.15691,0.06546
3323.22816,0.06461
3321.29942,0.06382
3319.37067,0.06303
3317.44193,0.06227
3315.51318,0.06167
3313.58444,0.06128
3311.65569,0.06097
3309.72695,0.06053
3307.79820,0.06002
3305.86946,0.05955
3303.94071,0.05915
3302.01197,0.05902
3300.08322,0.05950
3298.15448,0.06055
3296.22573,0.06166
3294.29698,0.06242
3292.36824,0.06315
3290.43949,0.06422
3288.51075,0.06523
3286.58200,0.06588
3284.65326,0.06648
3282.72451,0.06719
3280.79577,0.06789
3278.86702,0.06859
3276.93828,0.06901
3275.00953,0.06901
3273.08079,0.06912
3271.15204,0.06966
3269.22330,0.07039
3267.29455,0.07099
3265.36581,0.07131
3263.43706,0.07158
3261.50831,0.07204
3259.57957,0.07265
3257.65082,0.07333
3255.72208,0.07403
3253.79333,0.07469
3251.86459,0.07515
3249.93584,0.07537
3248.00710,0.07576
3246.07835,0.07631
3244.14961,0.07663
3242.22086,0.07684
3240.29212,0.07728
3238.36337,0.07782
3236.43463,0.07816
3234.50588,0.07826
3232.57713,0.07841
3230.64839,0.07875
3228.71964,0.07895
3226.79090,0.07894
3224.86215,0.07895
3222.93341,0.07896
3221.00466,0.07891
3219.07592,0.07887
3217.14717,0.07870
3215.21843,0.07844
3213.28968,0.07833
3211.36094,0.07833
3209.43219,0.07820
3207.50345,0.07799
3205.57470,0.07790
3203.64596,0.07796
3201.71721,0.07798
3199.78846,0.07784
3197.85972,0.07784
3195.93097,0.07822
3194.00223,0.07861
3192.07348,0.07880
3190.14474,0.07898
3188.21599,0.07899
3186.28725,0.07880
3184.35850,0.07873
3182.42976,0.07895
3180.50101,0.07935
3178.57227,0.07976
3176.64352,0.07995
3174.71478,0.07996
3172.78603,0.08008
3170.85729,0.08021
3168.92854,0.08009
3166.99979,0.07994
3165.07105,0.07983
3163.14230,0.07958
3161.21356,0.07941
3159.28481,0.07972
3157.35607,0.08027
3155.42732,0.08058
3153.49858,0.08063
3151.56983,0.08067
3149.64109,0.08052
3147.71234,0.08010
3145.78360,0.07978
3143.85485,0.07979
3141.92611,0.07994
3139.99736,0.07992
3138.06861,0.07965
3136.13987,0.07939
3134.21112,0.07918
3132.28238,0.07886
3130.35363,0.07858
3128.42489,0.07848
3126.49614,0.07829
3124.56740,0.07785
3122.63865,0.07721
3120.70991,0.07637
3118.78116,0.07527
3116.85242,0.07405
3114.92367,0.07289
3112.99493,0.07160
3111.06618,0.07004
3109.13744,0.06840
3107.20869,0.06711
3105.27994,0.06651
3103.35120,0.06643
3101.42245,0.06635
3099.49371,0.06614
3097.56496,0.06591
3095.63622,0.06547
3093.70747,0.06460
3091.77873,0.06328
3089.84998,0.06182
3087.92124,0.06055
3085.99249,0.05947
3084.06375,0.05876
3082.13500,0.05879
3080.20626,0.05926
3078.27751,0.05963
3076.34877,0.05978
3074.42002,0.05976
3072.49127,0.05955
3070.56253,0.05912
3068.63378,0.05836
3066.70504,0.05737
3064.77629,0.05663
3062.84755,0.05645
3060.91880,0.05656
3058.99006,0.05675
3057.06131,0.05722
3055.13257,0.05789
3053.20382,0.05855
3051.27508,0.05919
3049.34633,0.05977
3047.41759,0.06022
3045.48884,0.06041
3043.56009,0.06004
3041.63135,0.05914
3039.70260,0.05823
3037.77386,0.05758
3035.84511,0.05694
3033.91637,0.05611
3031.98762,0.05523
3030.05888,0.05463
3028.13013,0.05451
3026.20139,0.05475
3024.27264,0.05532
3022.34390,0.05627
3020.41515,0.05751
3018.48641,0.05890
3016.55766,0.06002
3014.62892,0.06045
3012.70017,0.06033
3010.77142,0.06007
3008.84268,0.05973
3006.91393,0.05931
3004.98519,0.05891
3003.05644,0.05863
3001.12770,0.05847
2999.19895,0.05861
2997.27021,0.05908
2995.34146,0.05945
2993.41272,0.05944
2991.48397,0.05907
2989.55523,0.05838
2987.62648,0.05752
2985.69774,0.05677
2983.76899,0.05608
2981.84025,0.05524
2979.91150,0.05442
2977.98275,0.05381
2976.05401,0.05329
2974.12526,0.05276
2972.19652,0.05235
2970.26777,0.05209
2968.33903,0.05178
2966.41028,0.05154
2964.48154,0.05165
2962.55279,0.05195
2960.62405,0.05216
2958.69530,0.05224
2956.76656,0.05228
2954.83781,0.05240
2952.90907,0.05258
2950.98032,0.05269
2949.05157,0.05270
2947.12283,0.05267
2945.19408,0.05277
2943.26534,0.05304
2941.33659,0.05334
2939.40785,0.05386
2937.47910,0.05464
2935.55036,0.05527
2933.62161,0.05557
2931.69287,0.05589
2929.76412,0.05664
2927.83538,0.05776
2925.90663,0.05879
2923.97789,0.05956
2922.04914,0.06024
2920.12040,0.06072
2918.19165,0.06085
2916.26290,0.06082
2914.33416,0.06056
2912.40541,0.06001
2910.47667,0.05943
2908.54792,0.05890
2906.61918,0.05846
2904.69043,0.05825
2902.76169,0.05815
2900.83294,0.05811
2898.90420,0.05826
2896.97545,0.05845
2895.04671,0.05842
2893.11796,0.05808
2891.18922,0.05781
2889.26047,0.05788
2887.33172,0.05802
2885.40298,0.05804
2883.47423,0.05786
2881.54549,0.05744
2879.61674,0.05692
2877.68800,0.05649
2875.75925,0.05635
2873.83051,0.05655
2871.90176,0.05686
2869.97302,0.05711
2868.04427,0.05720
2866.11553,0.05725
2864.18678,0.05748
2862.25804,0.05791
2860.32929,0.05863
2858.40055,0.05945
2856.47180,0.06012
2854.54305,0.06079
2852.61431,0.06144
2850.68556,0.06179
2848.75682,0.06176
2846.82807,0.06166
2844.89933,0.06192
2842.97058,0.06261
2841.04184,0.06340
2839.11309,0.06404
2837.18435,0.06456
2835.25560,0.06503
2833.32686,0.06550
2831.39811,0.06596
2829.46937,0.06634
2827.54062,0.06665
2825.61188,0.06700
2823.68313,0.06729
2821.75438,0.06746
2819.82564,0.06767
2817.89689,0.06805
2815.96815,0.06854
2814.03940,0.06899
2812.11066,0.06925
2810.18191,0.06934
2808.25317,0.06954
2806.32442,0.06993
2804.39568,0.07010
2802.46693,0.06993
2800.53819,0.06994
2798.60944,0.07030
2796.68070,0.07069
2794.75195,0.07093
2792.82320,0.07100
2790.89446,0.07111
2788.96571,0.07141
2787.03697,0.07185
2785.10822,0.07219
2783.17948,0.07235
2781.25073,0.07250
2779.32199,0.07270
2777.39324,0.07286
2775.46450,0.07292
2773.53575,0.07289
2771.60701,0.07290
2769.67826,0.07308
2767.74952,0.07336
2765.82077,0.07353
2763.89203,0.07351
2761.96328,0.07350
2760.03453,0.07360
2758.10579,0.07362
2756.17704,0.07349
2754.24830,0.07324
2752.31955,0.07290
2750.39081,0.07268
2748.46206,0.07269
2746.53332,0.07289
2744.60457,0.07308
2742.67583,0.07310
2740.74708,0.07300
2738.81834,0.07282
2736.88959,0.07263
2734.96085,0.07262
2733.03210,0.07277
2731.10336,0.07289
2729.17461,0.07294
2727.24586,0.07299
2725.31712,0.07304
2723.38837,0.07311
2721.45963,0.07328
2719.53088,0.07347
2717.60214,0.07351
2715.67339,0.07355
2713.74465,0.07378
2711.81590,0.07400
2709.88716,0.07404
2707.95841,0.07399
2706.02967,0.07399
2704.10092,0.07421
2702.17218,0.07452
2700.24343,0.07465
2698.31468,0.07456
2696.38594,0.07440
2694.45719,0.07421
2692.52845,0.07409
2690.59970,0.07423
2688.67096,0.07447
2686.74221,0.07451
2684.81347,0.07443
2682.88472,0.07446
2680.95598,0.07445
2679.02723,0.07425
2677.09849,0.07411
2675.16974,0.07415
2673.24100,0.07421
2671.31225,0.07414
2669.38351,0.07397
2667.45476,0.07390
2665.52601,0.07402
2663.59727,0.07418
2661.66852,0.07428
2659.73978,0.07436
2657.81103,0.07446
2655.88229,0.07456
2653.95354,0.07454
2652.02480,0.07450
2650.09605,0.07456
2648.16731,0.07455
2646.23856,0.07438
2644.30982,0.07415
2642.38107,0.07408
2640.45233,0.07405
2638.52358,0.07373
2636.59484,0.07336
2634.66609,0.07335
2632.73734,0.07359
2630.80860,0.07375
2628.87985,0.07378
2626.95111,0.07383
2625.02236,0.07397
2623.09362,0.07413
2621.16487,0.07417
2619.23613,0.07410
2617.30738,0.07392
2615.37864,0.07368
2613.44989,0.07347
2611.52115,0.07335
2609.59240,0.07326
2607.66366,0.07305
2605.73491,0.07277
2603.80616,0.07269
2601.87742,0.07287
2599.94867,0.07302
2598.01993,0.07304
2596.09118,0.07309
2594.16244,0.07312
2592.23369,0.07310
2590.30495,0.07315
2588.37620,0.07322
2586.44746,0.07312
2584.51871,0.07294
2582.58997,0.07283
2580.66122,0.07284
2578.73248,0.07302
2576.80373,0.07326
2574.87499,0.07327
2572.94624,0.07300
2571.01749,0.07280
2569.08875,0.07289
2567.16000,0.07311
2565.23126,0.07337
2563.30251,0.07348
2561.37377,0.07330
2559.44502,0.07304
2557.51628,0.07298
2555.58753,0.07304
2553.65879,0.07307
2551.73004,0.07305
2549.80130,0.07299
2547.87255,0.07294
2545.94381,0.07299
2544.01506,0.07296
2542.08631,0.07277
2540.15757,0.07270
2538.22882,0.07280
2536.30008,0.07280
2534.37133,0.07266
2532.44259,0.07248
2530.51384,0.07224
2528.58510,0.07198
2526.65635,0.07188
2524.72761,0.07196
2522.79886,0.07201
2520.87012,0.07197
2518.94137,0.07196
2517.01263,0.07206
2515.08388,0.07222
2513.15514,0.07231
2511.22639,0.07226
2509.29764,0.07217
2507.36890,0.07212
2505.44015,0.07206
2503.51141,0.07195
2501.58266,0.07188
2499.65392,0.07196
2497.72517,0.07211
2495.79643,0.07217
2493.86768,0.07223
2491.93894,0.07243
2490.01019,0.07264
2488.08145,0.07269
2486.15270,0.07267
2484.22396,0.07266
2482.29521,0.07268
2480.36647,0.07278
2478.43772,0.07299
2476.50897,0.07324
2474.58023,0.07349
2472.65148,0.07371
2470.72274,0.07392
2468.79399,0.07410
2466.86525,0.07428
2464.93650,0.07448
2463.00776,0.07465
2461.07901,0.07469
2459.15027,0.07460
2457.22152,0.07452
2455.29278,0.07446
2453.36403,0.07446
2451.43529,0.07458
2449.50654,0.07467
2447.57779,0.07463
2445.64905,0.07462
2443.72030,0.07463
2441.79156,0.07451
2439.86281,0.07439
2437.93407,0.07447
2436.00532,0.07458
2434.07658,0.07453
2432.14783,0.07442
2430.21909,0.07442
2428.29034,0.07446
2426.36160,0.07437
2424.43285,0.07416
2422.50411,0.07399
2420.57536,0.07403
2418.64662,0.07419
2416.71787,0.07423
2414.78912,0.07412
2412.86038,0.07407
2410.93163,0.07423
2409.00289,0.07439
2407.07414,0.07434
2405.14540,0.07422
2403.21665,0.07422
2401.28791,0.07429
2399.35916,0.07431
2397.43042,0.07437
2395.50167,0.07456
2393.57293,0.07487
2391.64418,0.07521
2389.71544,0.07530
2387.78669,0.07517
2385.85795,0.07511
2383.92920,0.07511
2382.00045,0.07507
2380.07171,0.07501
2378.14296,0.07498
2376.21422,0.07501
2374.28547,0.07506
2372.35673,0.07509
2370.42798,0.07499
2368.49924,0.07476
2366.57049,0.07454
2364.64175,0.07442
2362.71300,0.07434
2360.78426,0.07426
2358.85551,0.07415
2356.92677,0.07394
2354.99802,0.07368
2353.06927,0.07344
2351.14053,0.07315
2349.21178,0.07284
2347.28304,0.07252
2345.35429,0.07228
2343.42555,0.07210
2341.49680,0.07187
2339.56806,0.07184
2337.63931,0.07224
2335.71057,0.07282
2333.78182,0.07327
2331.85308,0.07363
2329.92433,0.07402
2327.99559,0.07437
2326.06684,0.07458
2324.13810,0.07467
2322.20935,0.07474
2320.28060,0.07464
2318.35186,0.07439
2316.42311,0.07417
2314.49437,0.07410
2312.56562,0.07419
2310.63688,0.07442
2308.70813,0.07476
2306.77939,0.07507
2304.85064,0.07521
2302.92190,0.07518
2300.99315,0.07509
2299.06441,0.07507
2297.13566,0.07507
2295.20692,0.07502
2293.27817,0.07492
2291.34943,0.07474
2289.42068,0.07455
2287.49193,0.07453
2285.56319,0.07473
2283.63444,0.07478
2281.70570,0.07455
2279.77695,0.07436
2277.84821,0.07440
2275.91946,0.07441
2273.99072,0.07418
2272.06197,0.07379
2270.13323,0.07340
2268.20448,0.07308
2266.27574,0.07296
2264.34699,0.07297
2262.41825,0.07276
2260.48950,0.07215
2258.56075,0.07131
2256.63201,0.07033
2254.70326,0.06912
2252.77452,0.06756
2250.84577,0.06552
2248.91703,0.06299
2246.98828,0.06042
2245.05954,0.05832
2243.13079,0.05690
2241.20205,0.05605
2239.27330,0.05558
2237.34456,0.05560
2235.41581,0.05634
2233.48707,0.05778
2231.55832,0.06009
2229.62958,0.06342
2227.70083,0.06726
2225.77208,0.07083
2223.84334,0.07366
2221.91459,0.07562
2219.98585,0.07683
2218.05710,0.07764
2216.12836,0.07821
2214.19961,0.07853
2212.27087,0.07872
2210.34212,0.07902
2208.41338,0.07950
2206.48463,0.08001
2204.55589,0.08035
2202.62714,0.08056
2200.69840,0.08077
2198.76965,0.08093
2196.84090,0.08093
2194.91216,0.08079
2192.98341,0.08065
2191.05467,0.08063
2189.12592,0.08064
2187.19718,0.08056
2185.26843,0.08056
2183.33969,0.08070
2181.41094,0.08082
2179.48220,0.08103
2177.55345,0.08140
2175.62471,0.08171
2173.69596,0.08189
2171.76722,0.08206
2169.83847,0.08235
2167.90973,0.08264
2165.98098,0.08274
2164.05223,0.08267
2162.12349,0.08259
2160.19474,0.08264
2158.26600,0.08278
2156.33725,0.08278
2154.40851,0.08260
2152.47976,0.08234
2150.55102,0.08198
2148.62227,0.08160
2146.69353,0.08138
2144.76478,0.08127
2142.83604,0.08114
2140.90729,0.08109
2138.97855,0.08131
2137.04980,0.08180
2135.12106,0.08226
2133.19231,0.08241
2131.26356,0.08244
2129.33482,0.08276
2127.40607,0.08341
2125.47733,0.08411
2123.54858,0.08465
2121.61984,0.08511
2119.69109,0.08570
2117.76235,0.08633
2115.83360,0.08677
2113.90486,0.08720
2111.97611,0.08773
2110.04737,0.08814
2108.11862,0.08839
2106.18988,0.08856
2104.26113,0.08875
2102.33238,0.08900
2100.40364,0.08917
2098.47489,0.08918
2096.54615,0.08914
2094.61740,0.08922
2092.68866,0.08940
2090.75991,0.08949
2088.83117,0.08944
2086.90242,0.08933
2084.97368,0.08928
2083.04493,0.08926
2081.11619,0.08914
2079.18744,0.08890
2077.25870,0.08865
2075.32995,0.08837
2073.40121,0.08803
2071.47246,0.08772
2069.54371,0.08741
2067.61497,0.08716
2065.68622,0.08706
2063.75748,0.08702
2061.82873,0.08697
2059.89999,0.08691
2057.97124,0.08664
2056.04250,0.08612
2054.11375,0.08569
2052.18501,0.08548
2050.25626,0.08515
2048.32752,0.08462
2046.39877,0.08419
2044.47003,0.08407
2042.54128,0.08408
2040.61254,0.08389
2038.68379,0.08347
2036.75504,0.08302
2034.82630,0.08274
2032.89755,0.08267
2030.96881,0.08279
2029.04006,0.08290
2027.11132,0.08283
2025.18257,0.08268
2023.25383,0.08255
2021.32508,0.08240
2019.39634,0.08231
2017.46759,0.08238
2015.53885,0.08244
2013.61010,0.08248
2011.68136,0.08260
2009.75261,0.08263
2007.82386,0.08257
2005.89512,0.08244
2003.96637,0.08213
2002.03763,0.08161
2000.10888,0.08111
1998.18014,0.08065
1996.25139,0.08016
1994.32265,0.07956
1992.39390,0.07877
1990.46516,0.07791
1988.53641,0.07728
1986.60767,0.07696
1984.67892,0.07676
1982.75018,0.07658
1980.82143,0.07635
1978.89269,0.07604
1976.96394,0.07554
1975.03519,0.07474
1973.10645,0.07392
1971.17770,0.07337
1969.24896,0.07288
1967.32021,0.07214
1965.39147,0.07128
1963.46272,0.07048
1961.53398,0.06977
1959.60523,0.06919
1957.67649,0.06883
1955.74774,0.06865
1953.81900,0.06866
1951.89025,0.06885
1949.96151,0.06916
1948.03276,0.06964
1946.10402,0.07039
1944.17527,0.07135
1942.24652,0.07240
1940.31778,0.07352
1938.38903,0.07468
1936.46029,0.07588
1934.53154,0.07703
1932.60280,0.07801
1930.67405,0.07882
1928.74531,0.07949
1926.81656,0.08006
1924.88782,0.08056
1922.95907,0.08090
1921.03033,0.08094
1919.10158,0.08079
1917.17284,0.08062
1915.24409,0.08034
1913.31534,0.07991
1911.38660,0.07944
1909.45785,0.07881
1907.52911,0.07783
1905.60036,0.07669
1903.67162,0.07582
1901.74287,0.07528
1899.81413,0.07481
1897.88538,0.07416
1895.95664,0.07337
1894.02789,0.07269
1892.09915,0.07214
1890.17040,0.07165
1888.24166,0.07128
1886.31291,0.07102
1884.38417,0.07081
1882.45542,0.07073
1880.52667,0.07086
1878.59793,0.07105
1876.66918,0.07122
1874.74044,0.07154
1872.81169,0.07217
1870.88295,0.07307
1868.95420,0.07427
1867.02546,0.07577
1865.09671,0.07731
1863.16797,0.07873
1861.23922,0.07993
1859.31048,0.08078
1857.38173,0.08130
1855.45299,0.08158
1853.52424,0.08173
1851.59549,0.08177
1849.66675,0.08161
1847.73800,0.08122
1845.80926,0.08052
1843.88051,0.07957
1841.95177,0.07873
1840.02302,0.07800
1838.09428,0.07712
1836.16553,0.07606
1834.23679,0.07492
1832.30804,0.07374
1830.37930,0.07250
1828.45055,0.07123
1826.52181,0.07002
1824.59306,0.06883
1822.66432,0.06767
1820.73557,0.06666
1818.80682,0.06586
1816.87808,0.06524
1814.94933,0.06464
1813.02059,0.06395
1811.09184,0.06322
1809.16310,0.06254
1807.23435,0.06181
1805.30561,0.06109
1803.37686,0.06052
1801.44812,0.06005
1799.51937,0.05961
1797.59063,0.05924
1795.66188,0.05897
1793.73314,0.05878
1791.80439,0.05860
1789.87565,0.05860
1787.94690,0.05891
1786.01815,0.05932
1784.08941,0.05964
1782.16066,0.05984
1780.23192,0.05981
1778.30317,0.05942
1776.37443,0.05890
1774.44568,0.05851
1772.51694,0.05814
1770.58819,0.05764
1768.65945,0.05706
1766.73070,0.05637
1764.80196,0.05560
1762.87321,0.05483
1760.94447,0.05406
1759.01572,0.05323
1757.08697,0.05231
1755.15823,0.05136
1753.22948,0.05046
1751.30074,0.04955
1749.37199,0.04858
1747.44325,0.04768
1745.51450,0.04702
1743.58576,0.04671
1741.65701,0.04690
1739.72827,0.04789
1737.79952,0.04954
1735.87078,0.05148
1733.94203,0.05350
1732.01329,0.05532
1730.08454,0.05687
1728.15580,0.05806
1726.22705,0.05876
1724.29830,0.05923
1722.36956,0.05947
1720.44081,0.05938
1718.51207,0.05913
1716.58332,0.05886
1714.65458,0.05854
1712.72583,0.05830
1710.79709,0.05814
1708.86834,0.05797
1706.93960,0.05800
1705.01085,0.05828
1703.08211,0.05861
1701.15336,0.05882
1699.22462,0.05873
1697.29587,0.05849
1695.36713,0.05832
1693.43838,0.05813
1691.50963,0.05795
1689.58089,0.05806
1687.65214,0.05851
1685.72340,0.05903
1683.79465,0.05943
1681.86591,0.05953
1679.93716,0.05952
1678.00842,0.05967
1676.07967,0.05980
1674.15093,0.05970
1672.22218,0.05953
1670.29344,0.05936
1668.36469,0.05904
1666.43595,0.05859
1664.50720,0.05822
1662.57845,0.05804
1660.64971,0.05798
1658.72096,0.05801
1656.79222,0.05813
1654.86347,0.05812
1652.93473,0.05789
1651.00598,0.05788
1649.07724,0.05804
1647.14849,0.05804
1645.21975,0.05793
1643.29100,0.05798
1641.36226,0.05823
1639.43351,0.05846
1637.50477,0.05858
1635.57602,0.05887
1633.64728,0.05942
1631.71853,0.05982
1629.78978,0.06000
1627.86104,0.06016
1625.93229,0.06028
1624.00355,0.06021
1622.07480,0.06004
1620.14606,0.06004
1618.21731,0.06008
1616.28857,0.05973
1614.35982,0.05915
1612.43108,0.05861
1610.50233,0.05791
1608.57359,0.05691
1606.64484,0.05586
1604.71610,0.05521
1602.78735,0.05517
1600.85861,0.05551
1598.92986,0.05587
1597.00111,0.05627
1595.07237,0.05695
1593.14362,0.05779
1591.21488,0.05830
1589.28613,0.05814
1587.35739,0.05745
1585.42864,0.05662
1583.49990,0.05607
1581.57115,0.05614
1579.64241,0.05674
1577.71366,0.05741
1575.78492,0.05779
1573.85617,0.05791
1571.92743,0.05783
1569.99868,0.05736
1568.06993,0.05667
1566.14119,0.05615
1564.21244,0.05593
1562.28370,0.05587
1560.35495,0.05563
1558.42621,0.05516
1556.49746,0.05494
1554.56872,0.05486
1552.63997,0.05456
1550.71123,0.05418
1548.78248,0.05401
1546.85374,0.05422
1544.92499,0.05476
1542.99625,0.05534
1541.06750,0.05574
1539.13876,0.05614
1537.21001,0.05656
1535.28126,0.05689
1533.35252,0.05724
1531.42377,0.05763
1529.49503,0.05809
1527.56628,0.05858
1525.63754,0.05887
1523.70879,0.05898
1521.78005,0.05910
1519.85130,0.05914
1517.92256,0.05901
1515.99381,0.05872
1514.06507,0.05842
1512.13632,0.05820
1510.20758,0.05795
1508.27883,0.05751
1506.35008,0.05681
1504.42134,0.05585
1502.49259,0.05461
1500.56385,0.05309
1498.63510,0.05158
1496.70636,0.05083
1494.77761,0.05138
1492.84887,0.05265
1490.92012,0.05373
1488.99138,0.05429
1487.06263,0.05449
1485.13389,0.05447
1483.20514,0.05433
1481.27640,0.05397
1479.34765,0.05340
1477.41891,0.05294
1475.49016,0.05279
1473.56141,0.05273
1471.63267,0.05255
1469.70392,0.05230
1467.77518,0.05209
1465.84643,0.05193
1463.91769,0.05169
1461.98894,0.05143
1460.06020,0.05115
1458.13145,0.05078
1456.20271,0.05073
1454.27396,0.05166
1452.34522,0.05330
1450.41647,0.05489
1448.48773,0.05592
1446.55898,0.05638
1444.63024,0.05650
1442.70149,0.05653
1440.77274,0.05661
1438.84400,0.05660
1436.91525,0.05643
1434.98651,0.05632
1433.05776,0.05641
1431.12902,0.05657
1429.20027,0.05671
1427.27153,0.05671
1425.34278,0.05654
1423.41404,0.05634
1421.48529,0.05610
1419.55655,0.05579
1417.62780,0.05573
1415.69906,0.05601
1413.77031,0.05625
1411.84156,0.05620
1409.91282,0.05591
1407.98407,0.05544
1406.05533,0.05483
1404.12658,0.05425
1402.19784,0.05386
1400.26909,0.05363
1398.34035,0.05358
1396.41160,0.05363
1394.48286,0.05361
1392.55411,0.05351
1390.62537,0.05344
1388.69662,0.05344
1386.76788,0.05349
1384.83913,0.05345
1382.91039,0.05330
1380.98164,0.05317
1379.05289,0.05317
1377.12415,0.05323
1375.19540,0.05336
1373.26666,0.05350
1371.33791,0.05362
1369.40917,0.05371
1367.48042,0.05370
1365.55168,0.05359
1363.62293,0.05349
1361.69419,0.05344
1359.76544,0.05346
1357.83670,0.05354
1355.90795,0.05359
1353.97921,0.05371
1352.05046,0.05395
1350.12172,0.05406
1348.19297,0.05386
1346.26422,0.05357
1344.33548,0.05334
1342.40673,0.05324
1340.47799,0.05336
1338.54924,0.05352
1336.62050,0.05345
1334.69175,0.05327
1332.76301,0.05311
1330.83426,0.05306
1328.90552,0.05319
1326.97677,0.05334
1325.04803,0.05324
1323.11928,0.05295
1321.19054,0.05271
1319.26179,0.05258
1317.33304,0.05251
1315.40430,0.05256
1313.47555,0.05271
1311.54681,0.05278
1309.61806,0.05273
1307.68932,0.05266
1305.76057,0.05260
1303.83183,0.05259
1301.90308,0.05268
1299.97434,0.05278
1298.04559,0.05275
1296.11685,0.05268
1294.18810,0.05259
1292.25936,0.05240
1290.33061,0.05222
1288.40187,0.05215
1286.47312,0.05210
1284.54437,0.05195
1282.61563,0.05175
1280.68688,0.05155
1278.75814,0.05132
1276.82939,0.05130
1274.90065,0.05150
1272.97190,0.05165
1271.04316,0.05163
1269.11441,0.05165
1267.18567,0.05183
1265.25692,0.05197
1263.32818,0.05203
1261.39943,0.05230
1259.47069,0.05270
1257.54194,0.05280
1255.61320,0.05271
1253.68445,0.05278
1251.75570,0.05295
1249.82696,0.05303
1247.89821,0.05306
1245.96947,0.05310
1244.04072,0.05318
1242.11198,0.05331
1240.18323,0.05347
1238.25449,0.05355
1236.32574,0.05364
1234.39700,0.05379
1232.46825,0.05396
1230.53951,0.05407
1228.61076,0.05401
1226.68202,0.05375
1224.75327,0.05353
1222.82452,0.05353
1220.89578,0.05359
1218.96703,0.05358
1217.03829,0.05357
1215.10954,0.05363
1213.18080,0.05368
1211.25205,0.05366
1209.32331,0.05364
1207.39456,0.05362
1205.46582,0.05331
1203.53707,0.05272
1201.60833,0.05226
1199.67958,0.05202
1197.75084,0.05192
1195.82209,0.05201
1193.89335,0.05215
1191.96460,0.05210
1190.03585,0.05178
1188.10711,0.05133
1186.17836,0.05106
1184.24962,0.05112
1182.32087,0.05131
1180.39213,0.05157
1178.46338,0.05195
1176.53464,0.05240
1174.60589,0.05282
1172.67715,0.05312
1170.74840,0.05364
1168.81966,0.05468
1166.89091,0.05580
1164.96217,0.05662
1163.03342,0.05731
1161.10467,0.05799
1159.17593,0.05870
1157.24718,0.05943
1155.31844,0.06011
1153.38969,0.06063
1151.46095,0.06094
1149.53220,0.06102
1147.60346,0.06081
1145.67471,0.06039
1143.74597,0.05988
1141.81722,0.05934
1139.88848,0.05886
1137.95973,0.05850
1136.03099,0.05819
1134.10224,0.05790
1132.17350,0.05758
1130.24475,0.05719
1128.31600,0.05683
1126.38726,0.05662
1124.45851,0.05637
1122.52977,0.05612
1120.60102,0.05622
1118.67228,0.05660
1116.74353,0.05679
1114.81479,0.05677
1112.88604,0.05679
1110.95730,0.05666
1109.02855,0.05642
1107.09981,0.05646
1105.17106,0.05664
1103.24232,0.05663
1101.31357,0.05620
1099.38483,0.05545
1097.45608,0.05500
1095.52733,0.05512
1093.59859,0.05546
1091.66984,0.05577
1089.74110,0.05594
1087.81235,0.05573
1085.88361,0.05516
1083.95486,0.05473
1082.02612,0.05465
1080.09737,0.05476
1078.16863,0.05494
1076.23988,0.05499
1074.31114,0.05490
1072.38239,0.05488
1070.45365,0.05504
1068.52490,0.05526
1066.59615,0.05554
1064.66741,0.05584
1062.73866,0.05587
1060.80992,0.05579
1058.88117,0.05604
1056.95243,0.05637
1055.02368,0.05633
1053.09494,0.05605
1051.16619,0.05585
1049.23745,0.05579
1047.30870,0.05574
1045.37996,0.05563
1043.45121,0.05563
1041.52247,0.05579
1039.59372,0.05584
1037.66498,0.05561
1035.73623,0.05524
1033.80748,0.05491
1031.87874,0.05480
1029.94999,0.05511
1028.02125,0.05565
1026.09250,0.05608
1024.16376,0.05631
1022.23501,0.05641
1020.30627,0.05639
1018.37752,0.05643
1016.44878,0.05660
1014.52003,0.05672
1012.59129,0.05684
1010.66254,0.05708
1008.73380,0.05709
1006.80505,0.05680
1004.87631,0.05673
1002.94756,0.05695
1001.01881,0.05702
999.09007,0.05682
997.16132,0.05645
995.23258,0.05616
993.30383,0.05623
991.37509,0.05641
989.44634,0.05640
987.51760,0.05621
985.58885,0.05587
983.66011,0.05563
981.73136,0.05561
979.80262,0.05550
977.87387,0.05522
975.94513,0.05503
974.01638,0.05517
972.08763,0.05555
970.15889,0.05579
968.23014,0.05544
966.30140,0.05482
964.37265,0.05463
962.44391,0.05493
960.51516,0.05513
958.58642,0.05509
956.65767,0.05517
954.72893,0.05533
952.80018,0.05546
950.87144,0.05548
948.94269,0.05516
947.01395,0.05480
945.08520,0.05493
943.15646,0.05522
941.22771,0.05519
939.29896,0.05507
937.37022,0.05516
935.44147,0.05525
933.51273,0.05512
931.58398,0.05478
929.65524,0.05445
927.72649,0.05434
925.79775,0.05428
923.86900,0.05409
921.94026,0.05405
920.01151,0.05425
918.08277,0.05426
916.15402,0.05397
914.22528,0.05372
912.29653,0.05370
910.36779,0.05394
908.43904,0.05440
906.51029,0.05473
904.58155,0.05478
902.65280,0.05482
900.72406,0.05489
898.79531,0.05485
896.86657,0.05467
894.93782,0.05435
893.00908,0.05416
891.08033,0.05431
889.15159,0.05436
887.22284,0.05419
885.29410,0.05405
883.36535,0.05392
881.43661,0.05364
879.50786,0.05325
877.57911,0.05308
875.65037,0.05341
873.72162,0.05392
871.79288,0.05416
869.86413,0.05418
867.93539,0.05409
866.00664,0.05383
864.07790,0.05362
862.14915,0.05350
860.22041,0.05333
858.29166,0.05309
856.36292,0.05268
854.43417,0.05228
852.50543,0.05223
850.57668,0.05238
848.64794,0.05242
846.71919,0.05248
844.79044,0.05257
842.86170,0.05259
840.93295,0.05279
839.00421,0.05314
837.07546,0.05319
835.14672,0.05308
833.21797,0.05303
831.28923,0.05283
829.36048,0.05242
827.43174,0.05214
825.50299,0.05216
823.57425,0.05225
821.64550,0.05211
819.71676,0.05175
817.78801,0.05150
815.85926,0.05160
813.93052,0.05170
812.00177,0.05148
810.07303,0.05140
808.14428,0.05158
806.21554,0.05142
804.28679,0.05094
802.35805,0.05064
800.42930,0.05049
798.50056,0.05028
796.57181,0.05020
794.64307,0.05020
792.71432,0.04986
790.78558,0.04939
788.85683,0.04915
786.92809,0.04895
784.99934,0.04856
783.07059,0.04801
781.14185,0.04752
779.21310,0.04740
777.28436,0.04753
775.35561,0.04738
773.42687,0.04666
771.49812,0.04586
769.56938,0.04568
767.64063,0.04610
765.71189,0.04696
763.78314,0.04831
761.85440,0.04999
759.92565,0.05171
757.99691,0.05314
756.06816,0.05418
754.13942,0.05475
752.21067,0.05467
750.28192,0.05422
748.35318,0.05387
746.42443,0.05379
744.49569,0.05394
742.56694,0.05370
740.63820,0.05280
738.70945,0.05225
736.78071,0.05253
734.85196,0.05288
732.92322,0.05269
730.99447,0.05193
729.06573,0.05103
727.13698,0.05040
725.20824,0.04991
723.27949,0.04923
721.35074,0.04835
719.42200,0.04733
717.49325,0.04600
715.56451,0.04420
713.63576,0.04193
711.70702,0.03985
709.77827,0.03943
707.84953,0.04136
705.92078,0.04541
703.99204,0.05126
702.06329,0.05827
700.13455,0.06554
698.20580,0.07096
696.27706,0.07223
694.34831,0.07002
692.41957,0.06700
690.49082,0.06448
688.56207,0.06254
686.63333,0.06127
684.70458,0.06057
682.77584,0.05980
680.84709,0.05861
678.91835,0.05780
676.98960,0.05787
675.06086,0.05796
673.13211,0.05761
671.20337,0.05701
669.27462,0.05639
667.34588,0.05621
665.41713,0.05673
663.48839,0.05751
661.55964,0.05788
659.63090,0.05762
657.70215,0.05694
655.77340,0.05623
653.84466,0.05554
651.91591,0.05484
649.98717,0.05426
648.05842,0.05389
646.12968,0.05386
644.20093,0.05399
642.27219,0.05432
640.34344,0.05524
638.41470,0.05592
636.48595,0.05548
634.55721,0.05470
632.62846,0.05487
630.69972,0.05576
628.77097,0.05591
626.84222,0.05484
624.91348,0.05331
622.98473,0.05235
621.05599,0.05283
619.12724,0.05398
617.19850,0.05440
615.26975,0.05442
613.34101,0.05474
611.41226,0.05514
609.48352,0.05478
607.55477,0.05351
605.62603,0.05307
603.69728,0.05443
601.76854,0.05605
599.83979,0.05671
