7497.03301,0.75657
7495.10426,0.75538
7493.17552,0.75648
7491.24677,0.75895
7489.31803,0.75921
7487.38928,0.75405
7485.46054,0.74923
7483.53179,0.75045
7481.60305,0.75387
7479.67430,0.75506
7477.74556,0.75677
7475.81681,0.75989
7473.88807,0.76000
7471.95932,0.75697
7470.03057,0.75395
7468.10183,0.75328
7466.17308,0.75479
7464.24434,0.75301
7462.31559,0.74862
7460.38685,0.74926
7458.45810,0.75242
7456.52936,0.75170
7454.60061,0.75045
7452.67187,0.75289
7450.74312,0.75691
7448.81438,0.75807
7446.88563,0.75413
7444.95689,0.74884
7443.02814,0.74748
7441.09940,0.74888
7439.17065,0.74934
7437.24190,0.74886
7435.31316,0.74728
7433.38441,0.74436
7431.45567,0.74332
7429.52692,0.74490
7427.59818,0.74588
7425.66943,0.74485
7423.74069,0.74219
7421.81194,0.73997
7419.88320,0.74032
7417.95445,0.74204
7416.02571,0.74402
7414.09696,0.74754
7412.16822,0.75119
7410.23947,0.75010
7408.31073,0.74413
7406.38198,0.74029
7404.45323,0.74265
7402.52449,0.74753
7400.59574,0.75022
7398.66700,0.74775
7396.73825,0.74130
7394.80951,0.73770
7392.88076,0.73822
7390.95202,0.73733
7389.02327,0.73395
7387.09453,0.73038
7385.16578,0.72863
7383.23704,0.73010
7381.30829,0.73439
7379.37955,0.74073
7377.45080,0.74395
7375.52205,0.73878
7373.59331,0.73107
7371.66456,0.72673
7369.73582,0.72552
7367.80707,0.72720
7365.87833,0.72926
7363.94958,0.73136
7362.02084,0.73528
7360.09209,0.73576
7358.16335,0.72913
7356.23460,0.72170
7354.30586,0.71969
7352.37711,0.72194
7350.44837,0.72369
7348.51962,0.72254
7346.59088,0.72105
7344.66213,0.72134
7342.73338,0.72086
7340.80464,0.71953
7338.87589,0.71941
7336.94715,0.71737
7335.01840,0.71263
7333.08966,0.70863
7331.16091,0.70664
7329.23217,0.70878
7327.30342,0.71264
7325.37468,0.71180
7323.44593,0.70615
7321.51719,0.69693
7319.58844,0.69131
7317.65970,0.69875
7315.73095,0.70836
7313.80221,0.70500
7311.87346,0.69526
7309.94471,0.69059
7308.01597,0.69023
7306.08722,0.68885
7304.15848,0.68712
7302.22973,0.68995
7300.30099,0.69476
7298.37224,0.69311
7296.44350,0.68647
7294.51475,0.68247
7292.58601,0.68018
7290.65726,0.67610
7288.72852,0.67216
7286.79977,0.67049
7284.87103,0.67090
7282.94228,0.67123
7281.01353,0.66787
7279.08479,0.66142
7277.15604,0.65638
7275.22730,0.65414
7273.29855,0.65362
7271.36981,0.65433
7269.44106,0.65408
7267.51232,0.65192
7265.58357,0.65070
7263.65483,0.65087
7261.72608,0.64895
7259.79734,0.64402
7257.86859,0.64041
7255.93985,0.64214
7254.01110,0.64668
7252.08236,0.64754
7250.15361,0.64310
7248.22486,0.63683
7246.29612,0.63091
7244.36737,0.62702
7242.43863,0.62620
7240.50988,0.62620
7238.58114,0.62619
7236.65239,0.62700
7234.72365,0.62679
7232.79490,0.62461
7230.86616,0.62305
7228.93741,0.62247
7227.00867,0.62090
7225.07992,0.61821
7223.15118,0.61428
7221.22243,0.61142
7219.29369,0.61214
7217.36494,0.61304
7215.43619,0.61228
7213.50745,0.61191
7211.57870,0.61324
7209.64996,0.61551
7207.72121,0.61485
7205.79247,0.61140
7203.86372,0.61052
7201.93498,0.61297
7200.00623,0.61539
7198.07749,0.61517
7196.14874,0.61248
7194.22000,0.61214
7192.29125,0.61641
7190.36251,0.62027
7188.43376,0.62037
7186.50501,0.61847
7184.57627,0.61680
7182.64752,0.61664
7180.71878,0.61704
7178.79003,0.61548
7176.86129,0.61220
7174.93254,0.60879
7173.00380,0.60495
7171.07505,0.60187
7169.14631,0.60133
7167.21756,0.60089
7165.28882,0.59904
7163.36007,0.59893
7161.43133,0.60087
7159.50258,0.60116
7157.57384,0.60037
7155.64509,0.60095
7153.71634,0.60093
7151.78760,0.60110
7149.85885,0.60370
7147.93011,0.60361
7146.00136,0.59998
7144.07262,0.59884
7142.14387,0.59910
7140.21513,0.59801
7138.28638,0.59653
7136.35764,0.59441
7134.42889,0.59209
7132.50015,0.59005
7130.57140,0.58864
7128.64266,0.58973
7126.71391,0.59263
7124.78516,0.59419
7122.85642,0.59325
7120.92767,0.59123
7118.99893,0.59128
7117.07018,0.59496
7115.14144,0.59800
7113.21269,0.59721
7111.28395,0.59585
7109.35520,0.59463
7107.42646,0.59314
7105.49771,0.59352
7103.56897,0.59378
7101.64022,0.59291
7099.71148,0.59372
7097.78273,0.59612
7095.85399,0.59792
7093.92524,0.59740
7091.99649,0.59611
7090.06775,0.59644
7088.13900,0.59612
7086.21026,0.59304
7084.28151,0.58862
7082.35277,0.58490
7080.42402,0.58307
7078.49528,0.58239
7076.56653,0.58023
7074.63779,0.57666
7072.70904,0.57645
7070.78030,0.58057
7068.85155,0.58373
7066.92281,0.58449
7064.99406,0.58619
7063.06532,0.58869
7061.13657,0.58909
7059.20782,0.58814
7057.27908,0.58800
7055.35033,0.58664
7053.42159,0.58302
7051.49284,0.58125
7049.56410,0.58222
7047.63535,0.58200
7045.70661,0.57930
7043.77786,0.57620
7041.84912,0.57574
7039.92037,0.57854
7037.99163,0.58078
7036.06288,0.58078
7034.13414,0.57981
7032.20539,0.57810
7030.27664,0.57701
7028.34790,0.57763
7026.41915,0.57774
7024.49041,0.57680
7022.56166,0.57683
7020.63292,0.57744
7018.70417,0.57812
7016.77543,0.57901
7014.84668,0.57879
7012.91794,0.57894
7010.98919,0.58182
7009.06045,0.58528
7007.13170,0.58542
7005.20296,0.58198
7003.27421,0.57891
7001.34547,0.57765
6999.41672,0.57705
6997.48797,0.57767
6995.55923,0.57931
6993.63048,0.58091
6991.70174,0.58164
6989.77299,0.58132
6987.84425,0.58237
6985.91550,0.58620
6983.98676,0.59004
6982.05801,0.59151
6980.12927,0.59264
6978.20052,0.59457
6976.27178,0.59490
6974.34303,0.59464
6972.41429,0.59664
6970.48554,0.59928
6968.55680,0.60034
6966.62805,0.60035
6964.69930,0.59998
6962.77056,0.59971
6960.84181,0.60012
6958.91307,0.60058
6956.98432,0.60129
6955.05558,0.60495
6953.12683,0.61094
6951.19809,0.61412
6949.26934,0.61394
6947.34060,0.61440
6945.41185,0.61553
6943.48311,0.61440
6941.55436,0.61200
6939.62562,0.61162
6937.69687,0.61266
6935.76812,0.61274
6933.83938,0.61066
6931.91063,0.60755
6929.98189,0.60703
6928.05314,0.60977
6926.12440,0.61386
6924.19565,0.61729
6922.26691,0.61860
6920.33816,0.61912
6918.40942,0.61961
6916.48067,0.61969
6914.55193,0.61949
6912.62318,0.61886
6910.69444,0.61926
6908.76569,0.62159
6906.83695,0.62334
6904.90820,0.62220
6902.97945,0.62049
6901.05071,0.62160
6899.12196,0.62298
6897.19322,0.62160
6895.26447,0.62031
6893.33573,0.62163
6891.40698,0.62535
6889.47824,0.62930
6887.54949,0.62985
6885.62075,0.62731
6883.69200,0.62489
6881.76326,0.62411
6879.83451,0.62536
6877.90577,0.62797
6875.97702,0.62964
6874.04828,0.62923
6872.11953,0.62924
6870.19078,0.63087
6868.26204,0.63112
6866.33329,0.62874
6864.40455,0.62689
6862.47580,0.62767
6860.54706,0.62911
6858.61831,0.62905
6856.68957,0.62813
6854.76082,0.62937
6852.83208,0.63318
6850.90333,0.63572
6848.97459,0.63604
6847.04584,0.63649
6845.11710,0.63743
6843.18835,0.63798
6841.25960,0.63802
6839.33086,0.63822
6837.40211,0.63903
6835.47337,0.63953
6833.54462,0.63909
6831.61588,0.63896
6829.68713,0.63905
6827.75839,0.63804
6825.82964,0.63743
6823.90090,0.63903
6821.97215,0.64047
6820.04341,0.63925
6818.11466,0.63805
6816.18592,0.63872
6814.25717,0.63939
6812.32843,0.63907
6810.39968,0.63806
6808.47093,0.63781
6806.54219,0.63846
6804.61344,0.63840
6802.68470,0.63795
6800.75595,0.63783
6798.82721,0.63824
6796.89846,0.63890
6794.96972,0.63813
6793.04097,0.63703
6791.11223,0.63867
6789.18348,0.64156
6787.25474,0.64167
6785.32599,0.63965
6783.39725,0.63933
6781.46850,0.64176
6779.53975,0.64434
6777.61101,0.64585
6775.68226,0.64791
6773.75352,0.64824
6771.82477,0.64463
6769.89603,0.64299
6767.96728,0.64539
6766.03854,0.64571
6764.10979,0.64445
6762.18105,0.64554
6760.25230,0.64623
6758.32356,0.64569
6756.39481,0.64720
6754.46607,0.64852
6752.53732,0.64674
6750.60858,0.64501
6748.67983,0.64498
6746.75108,0.64510
6744.82234,0.64469
6742.89359,0.64229
6740.96485,0.63897
6739.03610,0.63965
6737.10736,0.64307
6735.17861,0.64330
6733.24987,0.64195
6731.32112,0.64352
6729.39238,0.64676
6727.46363,0.64931
6725.53489,0.65034
6723.60614,0.65022
6721.67740,0.65054
6719.74865,0.65120
6717.81991,0.65172
6715.89116,0.65235
6713.96241,0.65183
6712.03367,0.65033
6710.10492,0.64957
6708.17618,0.64853
6706.24743,0.64668
6704.31869,0.64567
6702.38994,0.64627
6700.46120,0.64895
6698.53245,0.65275
6696.60371,0.65565
6694.67496,0.65671
6692.74622,0.65560
6690.81747,0.65373
6688.88873,0.65255
6686.95998,0.65120
6685.03123,0.65063
6683.10249,0.65260
6681.17374,0.65359
6679.24500,0.65175
6677.31625,0.65139
6675.38751,0.65304
6673.45876,0.65452
6671.53002,0.65626
6669.60127,0.65671
6667.67253,0.65469
6665.74378,0.65249
6663.81504,0.65298
6661.88629,0.65698
6659.95755,0.66097
6658.02880,0.66125
6656.10006,0.65908
6654.17131,0.65644
6652.24256,0.65423
6650.31382,0.65493
6648.38507,0.65896
6646.45633,0.66309
6644.52758,0.66490
6642.59884,0.66426
6640.67009,0.66177
6638.74135,0.65872
6636.81260,0.65764
6634.88386,0.65873
6632.95511,0.65873
6631.02637,0.65686
6629.09762,0.65594
6627.16888,0.65733
6625.24013,0.65884
6623.31139,0.65875
6621.38264,0.65829
6619.45389,0.65823
6617.52515,0.65815
6615.59640,0.65723
6613.66766,0.65582
6611.73891,0.65619
6609.81017,0.65814
6607.88142,0.65859
6605.95268,0.65752
6604.02393,0.65758
6602.09519,0.65797
6600.16644,0.65774
6598.23770,0.65943
6596.30895,0.66273
6594.38021,0.66433
6592.45146,0.66316
6590.52271,0.66124
6588.59397,0.66150
6586.66522,0.66283
6584.73648,0.66230
6582.80773,0.66137
6580.87899,0.66180
6578.95024,0.66234
6577.02150,0.66269
6575.09275,0.66306
6573.16401,0.66248
6571.23526,0.66154
6569.30652,0.66150
6567.37777,0.66224
6565.44903,0.66262
6563.52028,0.66117
6561.59154,0.65913
6559.66279,0.65951
6557.73404,0.66111
6555.80530,0.66111
6553.87655,0.66054
6551.94781,0.66092
6550.01906,0.66175
6548.09032,0.66237
6546.16157,0.66224
6544.23283,0.66185
6542.30408,0.66182
6540.37534,0.66150
6538.44659,0.66123
6536.51785,0.66150
6534.58910,0.66078
6532.66036,0.66032
6530.73161,0.66298
6528.80287,0.66597
6526.87412,0.66586
6524.94537,0.66442
6523.01663,0.66401
6521.08788,0.66455
6519.15914,0.66447
6517.23039,0.66255
6515.30165,0.65989
6513.37290,0.65911
6511.44416,0.66112
6509.51541,0.66455
6507.58667,0.66813
6505.65792,0.66989
6503.72918,0.66828
6501.80043,0.66544
6499.87169,0.66391
6497.94294,0.66286
6496.01419,0.66173
6494.08545,0.66202
6492.15670,0.66311
6490.22796,0.66335
6488.29921,0.66361
6486.37047,0.66369
6484.44172,0.66282
6482.51298,0.66287
6480.58423,0.66331
6478.65549,0.66179
6476.72674,0.66011
6474.79800,0.66006
6472.86925,0.66079
6470.94051,0.66219
6469.01176,0.66387
6467.08302,0.66512
6465.15427,0.66646
6463.22552,0.66718
6461.29678,0.66604
6459.36803,0.66485
6457.43929,0.66581
6455.51054,0.66841
6453.58180,0.67054
6451.65305,0.66998
6449.72431,0.66754
6447.79556,0.66591
6445.86682,0.66541
6443.93807,0.66589
6442.00933,0.66742
6440.08058,0.66926
6438.15184,0.66988
6436.22309,0.66847
6434.29434,0.66773
6432.36560,0.66993
6430.43685,0.67214
6428.50811,0.67164
6426.57936,0.67006
6424.65062,0.66936
6422.72187,0.66985
6420.79313,0.67138
6418.86438,0.67248
6416.93564,0.67165
6415.00689,0.67065
6413.07815,0.67104
6411.14940,0.67104
6409.22066,0.67093
6407.29191,0.67260
6405.36317,0.67351
6403.43442,0.67230
6401.50567,0.67266
6399.57693,0.67554
6397.64818,0.67690
6395.71944,0.67410
6393.79069,0.66993
6391.86195,0.66849
6389.93320,0.66945
6388.00446,0.66992
6386.07571,0.66877
6384.14697,0.66777
6382.21822,0.66842
6380.28948,0.66851
6378.36073,0.66728
6376.43199,0.66829
6374.50324,0.67154
6372.57450,0.67349
6370.64575,0.67398
6368.71700,0.67466
6366.78826,0.67529
6364.85951,0.67509
6362.93077,0.67428
6361.00202,0.67292
6359.07328,0.67140
6357.14453,0.67052
6355.21579,0.66965
6353.28704,0.66779
6351.35830,0.66635
6349.42955,0.66756
6347.50081,0.67037
6345.57206,0.67217
6343.64332,0.67219
6341.71457,0.66995
6339.78582,0.66635
6337.85708,0.66506
6335.92833,0.66727
6333.99959,0.67025
6332.07084,0.67191
6330.14210,0.67156
6328.21335,0.67016
6326.28461,0.66943
6324.35586,0.66895
6322.42712,0.66902
6320.49837,0.67019
6318.56963,0.67083
6316.64088,0.67065
6314.71214,0.67048
6312.78339,0.67007
6310.85465,0.66966
6308.92590,0.67045
6306.99715,0.67229
6305.06841,0.67290
6303.13966,0.67106
6301.21092,0.66824
6299.28217,0.66614
6297.35343,0.66550
6295.42468,0.66625
6293.49594,0.66725
6291.56719,0.66814
6289.63845,0.66950
6287.70970,0.67017
6285.78096,0.66928
6283.85221,0.66799
6281.92347,0.66631
6279.99472,0.66416
6278.06598,0.66370
6276.13723,0.66530
6274.20848,0.66596
6272.27974,0.66489
6270.35099,0.66425
6268.42225,0.66542
6266.49350,0.66797
6264.56476,0.66960
6262.63601,0.66869
6260.70727,0.66682
6258.77852,0.66606
6256.84978,0.66622
6254.92103,0.66655
6252.99229,0.66673
6251.06354,0.66598
6249.13480,0.66480
6247.20605,0.66480
6245.27730,0.66584
6243.34856,0.66704
6241.41981,0.66726
6239.49107,0.66612
6237.56232,0.66563
6235.63358,0.66624
6233.70483,0.66644
6231.77609,0.66605
6229.84734,0.66506
6227.91860,0.66389
6225.98985,0.66387
6224.06111,0.66478
6222.13236,0.66572
6220.20362,0.66668
6218.27487,0.66747
6216.34613,0.66760
6214.41738,0.66671
6212.48863,0.66524
6210.55989,0.66418
6208.63114,0.66316
6206.70240,0.66168
6204.77365,0.66105
6202.84491,0.66263
6200.91616,0.66465
6198.98742,0.66432
6197.05867,0.66278
6195.12993,0.66248
6193.20118,0.66266
6191.27244,0.66184
6189.34369,0.66019
6187.41495,0.65827
6185.48620,0.65783
6183.55746,0.66028
6181.62871,0.66259
6179.69996,0.66142
6177.77122,0.65820
6175.84247,0.65606
6173.91373,0.65607
6171.98498,0.65688
6170.05624,0.65690
6168.12749,0.65605
6166.19875,0.65436
6164.27000,0.65147
6162.34126,0.64866
6160.41251,0.64804
6158.48377,0.64883
6156.55502,0.64906
6154.62628,0.64840
6152.69753,0.64627
6150.76878,0.64320
6148.84004,0.64102
6146.91129,0.63950
6144.98255,0.63818
6143.05380,0.63773
6141.12506,0.63751
6139.19631,0.63643
6137.26757,0.63511
6135.33882,0.63462
6133.41008,0.63423
6131.48133,0.63247
6129.55259,0.62919
6127.62384,0.62603
6125.69510,0.62470
6123.76635,0.62477
6121.83761,0.62554
6119.90886,0.62656
6117.98011,0.62689
6116.05137,0.62694
6114.12262,0.62735
6112.19388,0.62751
6110.26513,0.62695
6108.33639,0.62627
6106.40764,0.62501
6104.47890,0.62233
6102.55015,0.62121
6100.62141,0.62379
6098.69266,0.62645
6096.76392,0.62607
6094.83517,0.62424
6092.90643,0.62309
6090.97768,0.62218
6089.04893,0.62052
6087.12019,0.61921
6085.19144,0.61981
6083.26270,0.62132
6081.33395,0.62205
6079.40521,0.62222
6077.47646,0.62247
6075.54772,0.62279
6073.61897,0.62297
6071.69023,0.62245
6069.76148,0.62134
6067.83274,0.62089
6065.90399,0.62102
6063.97525,0.62066
6062.04650,0.62056
6060.11776,0.62210
6058.18901,0.62369
6056.26026,0.62283
6054.33152,0.62088
6052.40277,0.61992
6050.47403,0.61867
6048.54528,0.61576
6046.61654,0.61154
6044.68779,0.60679
6042.75905,0.60262
6040.83030,0.59955
6038.90156,0.59720
6036.97281,0.59507
6035.04407,0.59183
6033.11532,0.58680
6031.18658,0.58123
6029.25783,0.57610
6027.32909,0.57128
6025.40034,0.56602
6023.47159,0.56037
6021.54285,0.55509
6019.61410,0.55001
6017.68536,0.54479
6015.75661,0.53938
6013.82787,0.53355
6011.89912,0.52687
6009.97038,0.51949
6008.04163,0.51295
6006.11289,0.50831
6004.18414,0.50441
6002.25540,0.49983
6000.32665,0.49476
5998.39791,0.48949
5996.46916,0.48474
5994.54041,0.48162
5992.61167,0.47875
5990.68292,0.47391
5988.75418,0.46763
5986.82543,0.46213
5984.89669,0.45720
5982.96794,0.45143
5981.03920,0.44602
5979.11045,0.44242
5977.18171,0.44024
5975.25296,0.43823
5973.32422,0.43597
5971.39547,0.43360
5969.46673,0.43060
5967.53798,0.42744
5965.60924,0.42525
5963.68049,0.42423
5961.75174,0.42326
5959.82300,0.42105
5957.89425,0.41868
5955.96551,0.41749
5954.03676,0.41684
5952.10802,0.41576
5950.17927,0.41449
5948.25053,0.41355
5946.32178,0.41270
5944.39304,0.41193
5942.46429,0.41147
5940.53555,0.41083
5938.60680,0.40958
5936.67806,0.40762
5934.74931,0.40455
5932.82057,0.40126
5930.89182,0.39898
5928.96307,0.39690
5927.03433,0.39373
5925.10558,0.38914
5923.17684,0.38448
5921.24809,0.38119
5919.31935,0.37804
5917.39060,0.37373
5915.46186,0.36940
5913.53311,0.36556
5911.60437,0.36089
5909.67562,0.35600
5907.74688,0.35228
5905.81813,0.34870
5903.88939,0.34496
5901.96064,0.34236
5900.03189,0.33999
5898.10315,0.33637
5896.17440,0.33282
5894.24566,0.33021
5892.31691,0.32687
5890.38817,0.32282
5888.45942,0.32018
5886.53068,0.31937
5884.60193,0.31828
5882.67319,0.31599
5880.74444,0.31436
5878.81570,0.31418
5876.88695,0.31418
5874.95821,0.31345
5873.02946,0.31183
5871.10072,0.30987
5869.17197,0.30828
5867.24322,0.30697
5865.31448,0.30537
5863.38573,0.30315
5861.45699,0.30074
5859.52824,0.29908
5857.59950,0.29806
5855.67075,0.29630
5853.74201,0.29382
5851.81326,0.29247
5849.88452,0.29239
5847.95577,0.29157
5846.02703,0.28953
5844.09828,0.28693
5842.16954,0.28437
5840.24079,0.28303
5838.31205,0.28346
5836.38330,0.28503
5834.45455,0.28627
5832.52581,0.28569
5830.59706,0.28408
5828.66832,0.28358
5826.73957,0.28447
5824.81083,0.28512
5822.88208,0.28406
5820.95334,0.28230
5819.02459,0.28223
5817.09585,0.28400
5815.16710,0.28590
5813.23836,0.28732
5811.30961,0.28903
5809.38087,0.29093
5807.45212,0.29208
5805.52337,0.29266
5803.59463,0.29380
5801.66588,0.29584
5799.73714,0.29773
5797.80839,0.29910
5795.87965,0.30141
5793.95090,0.30451
5792.02216,0.30634
5790.09341,0.30690
5788.16467,0.30783
5786.23592,0.30937
5784.30718,0.31092
5782.37843,0.31256
5780.44969,0.31382
5778.52094,0.31395
5776.59220,0.31390
5774.66345,0.31470
5772.73470,0.31560
5770.80596,0.31595
5768.87721,0.31645
5766.94847,0.31814
5765.01972,0.32049
5763.09098,0.32099
5761.16223,0.31903
5759.23349,0.31674
5757.30474,0.31518
5755.37600,0.31429
5753.44725,0.31383
5751.51851,0.31259
5749.58976,0.31045
5747.66102,0.30938
5745.73227,0.30998
5743.80352,0.31002
5741.87478,0.30822
5739.94603,0.30637
5738.01729,0.30533
5736.08854,0.30378
5734.15980,0.30225
5732.23105,0.30208
5730.30231,0.30246
5728.37356,0.30233
5726.44482,0.30174
5724.51607,0.30098
5722.58733,0.30014
5720.65858,0.29958
5718.72984,0.29950
5716.80109,0.29925
5714.87235,0.29905
5712.94360,0.29964
5711.01485,0.30038
5709.08611,0.30015
5707.15736,0.29938
5705.22862,0.29933
5703.29987,0.30021
5701.37113,0.30140
5699.44238,0.30221
5697.51364,0.30293
5695.58489,0.30478
5693.65615,0.30720
5691.72740,0.30851
5689.79866,0.30903
5687.86991,0.31018
5685.94117,0.31226
5684.01242,0.31460
5682.08368,0.31661
5680.15493,0.31812
5678.22618,0.31938
5676.29744,0.32085
5674.36869,0.32281
5672.43995,0.32491
5670.51120,0.32660
5668.58246,0.32819
5666.65371,0.32958
5664.72497,0.33040
5662.79622,0.33115
5660.86748,0.33175
5658.93873,0.33233
5657.00999,0.33367
5655.08124,0.33548
5653.15250,0.33700
5651.22375,0.33780
5649.29500,0.33811
5647.36626,0.33862
5645.43751,0.33933
5643.50877,0.33972
5641.58002,0.33980
5639.65128,0.34051
5637.72253,0.34203
5635.79379,0.34330
5633.86504,0.34388
5631.93630,0.34372
5630.00755,0.34287
5628.07881,0.34215
5626.15006,0.34254
5624.22132,0.34437
5622.29257,0.34649
5620.36383,0.34727
5618.43508,0.34706
5616.50633,0.34712
5614.57759,0.34760
5612.64884,0.34822
5610.72010,0.34857
5608.79135,0.34850
5606.86261,0.34885
5604.93386,0.35057
5603.00512,0.35331
5601.07637,0.35516
5599.14763,0.35497
5597.21888,0.35409
5595.29014,0.35418
5593.36139,0.35507
5591.43265,0.35569
5589.50390,0.35619
5587.57516,0.35737
5585.64641,0.35889
5583.71766,0.35994
5581.78892,0.36083
5579.86017,0.36216
5577.93143,0.36336
5576.00268,0.36425
5574.07394,0.36528
5572.14519,0.36570
5570.21645,0.36544
5568.28770,0.36602
5566.35896,0.36754
5564.43021,0.36879
5562.50147,0.36976
5560.57272,0.37100
5558.64398,0.37242
5556.71523,0.37322
5554.78648,0.37278
5552.85774,0.37177
5550.92899,0.37157
5549.00025,0.37266
5547.07150,0.37430
5545.14276,0.37551
5543.21401,0.37585
5541.28527,0.37552
5539.35652,0.37508
5537.42778,0.37485
5535.49903,0.37482
5533.57029,0.37505
5531.64154,0.37533
5529.71280,0.37528
5527.78405,0.37557
5525.85531,0.37691
5523.92656,0.37836
5521.99781,0.37927
5520.06907,0.37977
5518.14032,0.37921
5516.21158,0.37781
5514.28283,0.37709
5512.35409,0.37764
5510.42534,0.37871
5508.49660,0.37937
5506.56785,0.37905
5504.63911,0.37789
5502.71036,0.37699
5500.78162,0.37708
5498.85287,0.37768
5496.92413,0.37805
5494.99538,0.37775
5493.06664,0.37676
5491.13789,0.37596
5489.20914,0.37602
5487.28040,0.37624
5485.35165,0.37633
5483.42291,0.37699
5481.49416,0.37785
5479.56542,0.37767
5477.63667,0.37625
5475.70793,0.37445
5473.77918,0.37345
5471.85044,0.37374
5469.92169,0.37439
5467.99295,0.37451
5466.06420,0.37452
5464.13546,0.37461
5462.20671,0.37436
5460.27796,0.37395
5458.34922,0.37373
5456.42047,0.37388
5454.49173,0.37460
5452.56298,0.37565
5450.63424,0.37621
5448.70549,0.37611
5446.77675,0.37625
5444.84800,0.37666
5442.91926,0.37703
5440.99051,0.37839
5439.06177,0.38025
5437.13302,0.38092
5435.20428,0.38095
5433.27553,0.38163
5431.34679,0.38277
5429.41804,0.38349
5427.48929,0.38388
5425.56055,0.38456
5423.63180,0.38497
5421.70306,0.38473
5419.77431,0.38456
5417.84557,0.38481
5415.91682,0.38531
5413.98808,0.38602
5412.05933,0.38684
5410.13059,0.38726
5408.20184,0.38684
5406.27310,0.38616
5404.34435,0.38576
5402.41561,0.38545
5400.48686,0.38580
5398.55811,0.38702
5396.62937,0.38790
5394.70062,0.38827
5392.77188,0.38862
5390.84313,0.38837
5388.91439,0.38769
5386.98564,0.38718
5385.05690,0.38672
5383.12815,0.38714
5381.19941,0.38852
5379.27066,0.38936
5377.34192,0.38998
5375.41317,0.39110
5373.48443,0.39181
5371.55568,0.39223
5369.62694,0.39315
5367.69819,0.39412
5365.76944,0.39472
5363.84070,0.39546
5361.91195,0.39670
5359.98321,0.39797
5358.05446,0.39878
5356.12572,0.39955
5354.19697,0.40101
5352.26823,0.40287
5350.33948,0.40421
5348.41074,0.40500
5346.48199,0.40552
5344.55325,0.40558
5342.62450,0.40529
5340.69576,0.40540
5338.76701,0.40634
5336.83827,0.40759
5334.90952,0.40844
5332.98077,0.40934
5331.05203,0.41076
5329.12328,0.41183
5327.19454,0.41185
5325.26579,0.41166
5323.33705,0.41241
5321.40830,0.41375
5319.47956,0.41446
5317.55081,0.41469
5315.62207,0.41523
5313.69332,0.41554
5311.76458,0.41556
5309.83583,0.41605
5307.90709,0.41652
5305.97834,0.41620
5304.04959,0.41571
5302.12085,0.41582
5300.19210,0.41615
5298.26336,0.41604
5296.33461,0.41559
5294.40587,0.41506
5292.47712,0.41487
5290.54838,0.41533
5288.61963,0.41554
5286.69089,0.41492
5284.76214,0.41436
5282.83340,0.41411
5280.90465,0.41322
5278.97591,0.41143
5277.04716,0.40901
5275.11842,0.40621
5273.18967,0.40352
5271.26092,0.40130
5269.33218,0.39968
5267.40343,0.39859
5265.47469,0.39752
5263.54594,0.39588
5261.61720,0.39340
5259.68845,0.39058
5257.75971,0.38859
5255.83096,0.38782
5253.90222,0.38738
5251.97347,0.38694
5250.04473,0.38711
5248.11598,0.38812
5246.18724,0.38947
5244.25849,0.39068
5242.32975,0.39157
5240.40100,0.39263
5238.47225,0.39436
5236.54351,0.39624
5234.61476,0.39757
5232.68602,0.39827
5230.75727,0.39882
5228.82853,0.39970
5226.89978,0.40076
5224.97104,0.40165
5223.04229,0.40180
5221.11355,0.40107
5219.18480,0.40029
5217.25606,0.40007
5215.32731,0.40027
5213.39857,0.40045
5211.46982,0.40025
5209.54107,0.39963
5207.61233,0.39879
5205.68358,0.39839
5203.75484,0.39872
5201.82609,0.39897
5199.89735,0.39861
5197.96860,0.39799
5196.03986,0.39739
5194.11111,0.39730
5192.18237,0.39785
5190.25362,0.39780
5188.32488,0.39688
5186.39613,0.39622
5184.46739,0.39587
5182.53864,0.39502
5180.60990,0.39374
5178.68115,0.39267
5176.75240,0.39205
5174.82366,0.39165
5172.89491,0.39133
5170.96617,0.39144
5169.03742,0.39182
5167.10868,0.39169
5165.17993,0.39118
5163.25119,0.39072
5161.32244,0.39054
5159.39370,0.39046
5157.46495,0.38979
5155.53621,0.38882
5153.60746,0.38786
5151.67872,0.38691
5149.74997,0.38660
5147.82123,0.38672
5145.89248,0.38630
5143.96373,0.38531
5142.03499,0.38456
5140.10624,0.38462
5138.17750,0.38506
5136.24875,0.38546
5134.32001,0.38648
5132.39126,0.38828
5130.46252,0.38992
5128.53377,0.39108
5126.60503,0.39192
5124.67628,0.39243
5122.74754,0.39289
5120.81879,0.39354
5118.89005,0.39450
5116.96130,0.39572
5115.03255,0.39698
5113.10381,0.39825
5111.17506,0.39932
5109.24632,0.39994
5107.31757,0.40042
5105.38883,0.40113
5103.46008,0.40191
5101.53134,0.40230
5099.60259,0.40222
5097.67385,0.40222
5095.74510,0.40275
5093.81636,0.40344
5091.88761,0.40374
5089.95887,0.40383
5088.03012,0.40423
5086.10138,0.40487
5084.17263,0.40511
5082.24388,0.40499
5080.31514,0.40519
5078.38639,0.40573
5076.45765,0.40601
5074.52890,0.40607
5072.60016,0.40644
5070.67141,0.40744
5068.74267,0.40873
5066.81392,0.40916
5064.88518,0.40841
5062.95643,0.40768
5061.02769,0.40764
5059.09894,0.40809
5057.17020,0.40868
5055.24145,0.40944
5053.31270,0.41045
5051.38396,0.41092
5049.45521,0.41040
5047.52647,0.41002
5045.59772,0.41059
5043.66898,0.41157
5041.74023,0.41248
5039.81149,0.41317
5037.88274,0.41347
5035.95400,0.41379
5034.02525,0.41444
5032.09651,0.41486
5030.16776,0.41476
5028.23902,0.41454
5026.31027,0.41455
5024.38153,0.41474
5022.45278,0.41495
5020.52403,0.41506
5018.59529,0.41499
5016.66654,0.41488
5014.73780,0.41487
5012.80905,0.41477
5010.88031,0.41443
5008.95156,0.41453
5007.02282,0.41528
5005.09407,0.41578
5003.16533,0.41578
5001.23658,0.41571
4999.30784,0.41560
4997.37909,0.41552
4995.45035,0.41548
4993.52160,0.41555
4991.59286,0.41574
4989.66411,0.41591
4987.73536,0.41579
4985.80662,0.41504
4983.87787,0.41427
4981.94913,0.41446
4980.02038,0.41501
4978.09164,0.41482
4976.16289,0.41394
4974.23415,0.41313
4972.30540,0.41332
4970.37666,0.41432
4968.44791,0.41471
4966.51917,0.41422
4964.59042,0.41387
4962.66168,0.41391
4960.73293,0.41382
4958.80418,0.41351
4956.87544,0.41351
4954.94669,0.41383
4953.01795,0.41406
4951.08920,0.41419
4949.16046,0.41415
4947.23171,0.41392
4945.30297,0.41362
4943.37422,0.41315
4941.44548,0.41274
4939.51673,0.41282
4937.58799,0.41304
4935.65924,0.41304
4933.73050,0.41333
4931.80175,0.41397
4929.87301,0.41390
4927.94426,0.41284
4926.01551,0.41187
4924.08677,0.41142
4922.15802,0.41110
4920.22928,0.41074
4918.30053,0.41029
4916.37179,0.40984
4914.44304,0.40939
4912.51430,0.40891
4910.58555,0.40856
4908.65681,0.40838
4906.72806,0.40814
4904.79932,0.40786
4902.87057,0.40756
4900.94183,0.40700
4899.01308,0.40654
4897.08434,0.40637
4895.15559,0.40575
4893.22684,0.40455
4891.29810,0.40325
4889.36935,0.40212
4887.44061,0.40138
4885.51186,0.40097
4883.58312,0.40061
4881.65437,0.40029
4879.72563,0.40002
4877.79688,0.39951
4875.86814,0.39846
4873.93939,0.39713
4872.01065,0.39616
4870.08190,0.39578
4868.15316,0.39557
4866.22441,0.39507
4864.29566,0.39420
4862.36692,0.39353
4860.43817,0.39388
4858.50943,0.39536
4856.58068,0.39686
4854.65194,0.39733
4852.72319,0.39714
4850.79445,0.39688
4848.86570,0.39675
4846.93696,0.39694
4845.00821,0.39710
4843.07947,0.39719
4841.15072,0.39775
4839.22198,0.39850
4837.29323,0.39890
4835.36449,0.39890
4833.43574,0.39854
4831.50699,0.39816
4829.57825,0.39839
4827.64950,0.39905
4825.72076,0.39970
4823.79201,0.40017
4821.86327,0.40013
4819.93452,0.39973
4818.00578,0.39946
4816.07703,0.39944
4814.14829,0.39961
4812.21954,0.39967
4810.29080,0.39940
4808.36205,0.39919
4806.43331,0.39954
4804.50456,0.40024
4802.57582,0.40093
4800.64707,0.40159
4798.71832,0.40185
4796.78958,0.40136
4794.86083,0.40034
4792.93209,0.39945
4791.00334,0.39904
4789.07460,0.39888
4787.14585,0.39847
4785.21711,0.39757
4783.28836,0.39651
4781.35962,0.39557
4779.43087,0.39468
4777.50213,0.39403
4775.57338,0.39383
4773.64464,0.39385
4771.71589,0.39388
4769.78714,0.39408
4767.85840,0.39423
4765.92965,0.39386
4764.00091,0.39309
4762.07216,0.39244
4760.14342,0.39220
4758.21467,0.39231
4756.28593,0.39243
4754.35718,0.39239
4752.42844,0.39205
4750.49969,0.39128
4748.57095,0.39045
4746.64220,0.39027
4744.71346,0.39046
4742.78471,0.39014
4740.85597,0.38911
4738.92722,0.38781
4736.99847,0.38665
4735.06973,0.38556
4733.14098,0.38441
4731.21224,0.38353
4729.28349,0.38300
4727.35475,0.38235
4725.42600,0.38148
4723.49726,0.38037
4721.56851,0.37857
4719.63977,0.37610
4717.71102,0.37374
4715.78228,0.37193
4713.85353,0.37056
4711.92479,0.36957
4709.99604,0.36881
4708.06729,0.36771
4706.13855,0.36602
4704.20980,0.36418
4702.28106,0.36245
4700.35231,0.36075
4698.42357,0.35894
4696.49482,0.35674
4694.56608,0.35401
4692.63733,0.35103
4690.70859,0.34781
4688.77984,0.34384
4686.85110,0.33875
4684.92235,0.33247
4682.99361,0.32529
4681.06486,0.31785
4679.13612,0.31046
4677.20737,0.30305
4675.27862,0.29587
4673.34988,0.28959
4671.42113,0.28501
4669.49239,0.28210
4667.56364,0.28040
4665.63490,0.28020
4663.70615,0.28179
4661.77741,0.28479
4659.84866,0.28878
4657.91992,0.29305
4655.99117,0.29695
4654.06243,0.30077
4652.13368,0.30464
4650.20494,0.30764
4648.27619,0.30914
4646.34745,0.30932
4644.41870,0.30840
4642.48995,0.30675
4640.56121,0.30449
4638.63246,0.30143
4636.70372,0.29797
4634.77497,0.29489
4632.84623,0.29240
4630.91748,0.29002
4628.98874,0.28787
4627.05999,0.28680
4625.13125,0.28692
4623.20250,0.28766
4621.27376,0.28848
4619.34501,0.28889
4617.41627,0.28861
4615.48752,0.28732
4613.55877,0.28549
4611.63003,0.28457
4609.70128,0.28484
4607.77254,0.28573
4605.84379,0.28760
4603.91505,0.29086
4601.98630,0.29539
4600.05756,0.30080
4598.12881,0.30636
4596.20007,0.31155
4594.27132,0.31587
4592.34258,0.31880
4590.41383,0.32060
4588.48509,0.32161
4586.55634,0.32140
4584.62760,0.31976
4582.69885,0.31696
4580.77010,0.31317
4578.84136,0.30887
4576.91261,0.30514
4574.98387,0.30302
4573.05512,0.30320
4571.12638,0.30600
4569.19763,0.31067
4567.26889,0.31552
4565.34014,0.31991
4563.41140,0.32397
4561.48265,0.32708
4559.55391,0.32921
4557.62516,0.33136
4555.69642,0.33365
4553.76767,0.33532
4551.83893,0.33648
4549.91018,0.33768
4547.98143,0.33838
4546.05269,0.33807
4544.12394,0.33741
4542.19520,0.33700
4540.26645,0.33659
4538.33771,0.33568
4536.40896,0.33449
4534.48022,0.33380
4532.55147,0.33367
4530.62273,0.33348
4528.69398,0.33286
4526.76524,0.33173
4524.83649,0.33025
4522.90775,0.32876
4520.97900,0.32744
4519.05025,0.32620
4517.12151,0.32520
4515.19276,0.32448
4513.26402,0.32378
4511.33527,0.32300
4509.40653,0.32194
4507.47778,0.32045
4505.54904,0.31890
4503.62029,0.31765
4501.69155,0.31663
4499.76280,0.31554
4497.83406,0.31430
4495.90531,0.31318
4493.97657,0.31217
4492.04782,0.31067
4490.11908,0.30854
4488.19033,0.30642
4486.26158,0.30483
4484.33284,0.30326
4482.40409,0.30102
4480.47535,0.29823
4478.54660,0.29536
4476.61786,0.29249
4474.68911,0.28940
4472.76037,0.28608
4470.83162,0.28284
4468.90288,0.28000
4466.97413,0.27741
4465.04539,0.27444
4463.11664,0.27088
4461.18790,0.26709
4459.25915,0.26327
4457.33041,0.25936
4455.40166,0.25540
4453.47291,0.25151
4451.54417,0.24753
4449.61542,0.24345
4447.68668,0.23953
4445.75793,0.23584
4443.82919,0.23214
4441.90044,0.22824
4439.97170,0.22464
4438.04295,0.22169
4436.11421,0.21893
4434.18546,0.21571
4432.25672,0.21202
4430.32797,0.20826
4428.39923,0.20471
4426.47048,0.20136
4424.54173,0.19794
4422.61299,0.19435
4420.68424,0.19087
4418.75550,0.18746
4416.82675,0.18367
4414.89801,0.17976
4412.96926,0.17650
4411.04052,0.17374
4409.11177,0.17097
4407.18303,0.16831
4405.25428,0.16587
4403.32554,0.16352
4401.39679,0.16129
4399.46805,0.15902
4397.53930,0.15655
4395.61056,0.15417
4393.68181,0.15205
4391.75306,0.14978
4389.82432,0.14733
4387.89557,0.14528
4385.96683,0.14378
4384.03808,0.14227
4382.10934,0.14038
4380.18059,0.13844
4378.25185,0.13684
4376.32310,0.13561
4374.39436,0.13455
4372.46561,0.13350
4370.53687,0.13238
4368.60812,0.13106
4366.67938,0.12981
4364.75063,0.12886
4362.82189,0.12806
4360.89314,0.12735
4358.96439,0.12690
4357.03565,0.12673
4355.10690,0.12661
4353.17816,0.12639
4351.24941,0.12614
4349.32067,0.12596
4347.39192,0.12588
4345.46318,0.12602
4343.53443,0.12640
4341.60569,0.12685
4339.67694,0.12746
4337.74820,0.12824
4335.81945,0.12875
4333.89071,0.12917
4331.96196,0.12996
4330.03321,0.13059
4328.10447,0.13083
4326.17572,0.13132
4324.24698,0.13210
4322.31823,0.13277
4320.38949,0.13329
4318.46074,0.13353
4316.53200,0.13364
4314.60325,0.13398
4312.67451,0.13430
4310.74576,0.13425
4308.81702,0.13394
4306.88827,0.13361
4304.95953,0.13354
4303.03078,0.13381
4301.10204,0.13389
4299.17329,0.13341
4297.24454,0.13280
4295.31580,0.13239
4293.38705,0.13197
4291.45831,0.13137
4289.52956,0.13056
4287.60082,0.12960
4285.67207,0.12887
4283.74333,0.12845
4281.81458,0.12809
4279.88584,0.12766
4277.95709,0.12726
4276.02835,0.12703
4274.09960,0.12681
4272.17086,0.12623
4270.24211,0.12527
4268.31336,0.12428
4266.38462,0.12364
4264.45587,0.12352
4262.52713,0.12360
4260.59838,0.12363
4258.66964,0.12345
4256.74089,0.12291
4254.81215,0.12240
4252.88340,0.12231
4250.95466,0.12245
4249.02591,0.12272
4247.09717,0.12312
4245.16842,0.12354
4243.23968,0.12395
4241.31093,0.12414
4239.38219,0.12403
4237.45344,0.12398
4235.52469,0.12407
4233.59595,0.12395
4231.66720,0.12365
4229.73846,0.12353
4227.80971,0.12369
4225.88097,0.12381
4223.95222,0.12370
4222.02348,0.12357
4220.09473,0.12368
4218.16599,0.12383
4216.23724,0.12360
4214.30850,0.12332
4212.37975,0.12360
4210.45101,0.12404
4208.52226,0.12406
4206.59352,0.12399
4204.66477,0.12434
4202.73602,0.12494
4200.80728,0.12548
4198.87853,0.12582
4196.94979,0.12600
4195.02104,0.12625
4193.09230,0.12667
4191.16355,0.12689
4189.23481,0.12676
4187.30606,0.12659
4185.37732,0.12652
4183.44857,0.12644
4181.51983,0.12647
4179.59108,0.12696
4177.66234,0.12778
4175.73359,0.12835
4173.80484,0.12845
4171.87610,0.12838
4169.94735,0.12835
4168.01861,0.12833
4166.08986,0.12843
4164.16112,0.12845
4162.23237,0.12827
4160.30363,0.12821
4158.37488,0.12833
4156.44614,0.12851
4154.51739,0.12886
4152.58865,0.12940
4150.65990,0.12992
4148.73116,0.13038
4146.80241,0.13071
4144.87367,0.13057
4142.94492,0.13009
4141.01617,0.12964
4139.08743,0.12919
4137.15868,0.12889
4135.22994,0.12906
4133.30119,0.12934
4131.37245,0.12943
4129.44370,0.12944
4127.51496,0.12938
4125.58621,0.12919
4123.65747,0.12907
4121.72872,0.12905
4119.79998,0.12886
4117.87123,0.12837
4115.94249,0.12769
4114.01374,0.12698
4112.08500,0.12640
4110.15625,0.12601
4108.22750,0.12579
4106.29876,0.12563
4104.37001,0.12541
4102.44127,0.12529
4100.51252,0.12527
4098.58378,0.12513
4096.65503,0.12479
4094.72629,0.12422
4092.79754,0.12345
4090.86880,0.12280
4088.94005,0.12250
4087.01131,0.12210
4085.08256,0.12127
4083.15382,0.12021
4081.22507,0.11915
4079.29632,0.11811
4077.36758,0.11708
4075.43883,0.11597
4073.51009,0.11477
4071.58134,0.11368
4069.65260,0.11268
4067.72385,0.11165
4065.79511,0.11079
4063.86636,0.11032
4061.93762,0.11007
4060.00887,0.10968
4058.08013,0.10919
4056.15138,0.10892
4054.22264,0.10891
4052.29389,0.10916
4050.36515,0.10949
4048.43640,0.10950
4046.50765,0.10920
4044.57891,0.10894
4042.65016,0.10888
4040.72142,0.10891
4038.79267,0.10907
4036.86393,0.10954
4034.93518,0.11037
4033.00644,0.11147
4031.07769,0.11263
4029.14895,0.11375
4027.22020,0.11489
4025.29146,0.11606
4023.36271,0.11739
4021.43397,0.11897
4019.50522,0.12053
4017.57648,0.12190
4015.64773,0.12339
4013.71898,0.12496
4011.79024,0.12618
4009.86149,0.12674
4007.93275,0.12675
4006.00400,0.12679
4004.07526,0.12728
4002.14651,0.12818
4000.21777,0.12923
3998.28902,0.13020
3996.36028,0.13091
3994.43153,0.13139
3992.50279,0.13178
3990.57404,0.13222
3988.64530,0.13279
3986.71655,0.13343
3984.78780,0.13405
3982.85906,0.13450
3980.93031,0.13486
3979.00157,0.13517
3977.07282,0.13522
3975.14408,0.13526
3973.21533,0.13570
3971.28659,0.13646
3969.35784,0.13720
3967.42910,0.13770
3965.50035,0.13785
3963.57161,0.13775
3961.64286,0.13782
3959.71412,0.13823
3957.78537,0.13868
3955.85663,0.13885
3953.92788,0.13866
3951.99913,0.13835
3950.07039,0.13823
3948.14164,0.13844
3946.21290,0.13884
3944.28415,0.13912
3942.35541,0.13896
3940.42666,0.13849
3938.49792,0.13813
3936.56917,0.13797
3934.64043,0.13810
3932.71168,0.13865
3930.78294,0.13940
3928.85419,0.13991
3926.92545,0.13996
3924.99670,0.13974
3923.06795,0.13967
3921.13921,0.13980
3919.21046,0.13989
3917.28172,0.14004
3915.35297,0.14044
3913.42423,0.14077
3911.49548,0.14070
3909.56674,0.14048
3907.63799,0.14028
3905.70925,0.14009
3903.78050,0.14007
3901.85176,0.14020
3899.92301,0.14030
3897.99427,0.14059
3896.06552,0.14108
3894.13678,0.14126
3892.20803,0.14113
3890.27928,0.14135
3888.35054,0.14174
3886.42179,0.14174
3884.49305,0.14153
3882.56430,0.14148
3880.63556,0.14141
3878.70681,0.14137
3876.77807,0.14151
3874.84932,0.14161
3872.92058,0.14155
3870.99183,0.14144
3869.06309,0.14123
3867.13434,0.14104
3865.20560,0.14104
3863.27685,0.14121
3861.34811,0.14130
3859.41936,0.14110
3857.49061,0.14092
3855.56187,0.14097
3853.63312,0.14087
3851.70438,0.14068
3849.77563,0.14088
3847.84689,0.14116
3845.91814,0.14112
3843.98940,0.14079
3842.06065,0.14046
3840.13191,0.14004
3838.20316,0.13942
3836.27442,0.13921
3834.34567,0.13963
3832.41693,0.14023
3830.48818,0.14048
3828.55943,0.14019
3826.63069,0.13983
3824.70194,0.13991
3822.77320,0.14014
3820.84445,0.14013
3818.91571,0.14022
3816.98696,0.14064
3815.05822,0.14108
3813.12947,0.14147
3811.20073,0.14189
3809.27198,0.14213
3807.34324,0.14216
3805.41449,0.14235
3803.48575,0.14280
3801.55700,0.14339
3799.62826,0.14401
3797.69951,0.14456
3795.77076,0.14510
3793.84202,0.14550
3791.91327,0.14582
3789.98453,0.14630
3788.05578,0.14686
3786.12704,0.14727
3784.19829,0.14754
3782.26955,0.14766
3780.34080,0.14770
3778.41206,0.14786
3776.48331,0.14812
3774.55457,0.14825
3772.62582,0.14836
3770.69708,0.14864
3768.76833,0.14891
3766.83959,0.14898
3764.91084,0.14901
3762.98209,0.14915
3761.05335,0.14942
3759.12460,0.14985
3757.19586,0.15042
3755.26711,0.15105
3753.33837,0.15145
3751.40962,0.15138
3749.48088,0.15122
3747.55213,0.15108
3745.62339,0.15065
3743.69464,0.15038
3741.76590,0.15075
3739.83715,0.15133
3737.90841,0.15188
3735.97966,0.15239
3734.05091,0.15292
3732.12217,0.15333
3730.19342,0.15321
3728.26468,0.15268
3726.33593,0.15222
3724.40719,0.15190
3722.47844,0.15177
3720.54970,0.15173
3718.62095,0.15143
3716.69221,0.15092
3714.76346,0.15033
3712.83472,0.14952
3710.90597,0.14816
3708.97723,0.14635
3707.04848,0.14463
3705.11974,0.14292
3703.19099,0.14066
3701.26224,0.13810
3699.33350,0.13607
3697.40475,0.13452
3695.47601,0.13293
3693.54726,0.13125
3691.61852,0.12941
3689.68977,0.12715
3687.76103,0.12480
3685.83228,0.12285
3683.90354,0.12111
3681.97479,0.11937
3680.04605,0.11778
3678.11730,0.11631
3676.18856,0.11477
3674.25981,0.11342
3672.33107,0.11240
3670.40232,0.11142
3668.47357,0.11051
3666.54483,0.10966
3664.61608,0.10879
3662.68734,0.10817
3660.75859,0.10794
3658.82985,0.10767
3656.90110,0.10697
3654.97236,0.10597
3653.04361,0.10518
3651.11487,0.10465
3649.18612,0.10407
3647.25738,0.10380
3645.32863,0.10407
3643.39989,0.10449
3641.47114,0.10494
3639.54239,0.10539
3637.61365,0.10558
3635.68490,0.10555
3633.75616,0.10542
3631.82741,0.10524
3629.89867,0.10494
3627.96992,0.10432
3626.04118,0.10366
3624.11243,0.10319
3622.18369,0.10280
3620.25494,0.10263
3618.32620,0.10282
3616.39745,0.10329
3614.46871,0.10381
3612.53996,0.10414
3610.61122,0.10421
3608.68247,0.10400
3606.75372,0.10389
3604.82498,0.10412
3602.89623,0.10435
3600.96749,0.10434
3599.03874,0.10404
3597.11000,0.10368
3595.18125,0.10356
3593.25251,0.10351
3591.32376,0.10318
3589.39502,0.10282
3587.46627,0.10280
3585.53753,0.10292
3583.60878,0.10288
3581.68004,0.10270
3579.75129,0.10258
3577.82254,0.10252
3575.89380,0.10215
3573.96505,0.10138
3572.03631,0.10062
3570.10756,0.10036
3568.17882,0.10047
3566.25007,0.10030
3564.32133,0.09967
3562.39258,0.09898
3560.46384,0.09846
3558.53509,0.09794
3556.60635,0.09734
3554.67760,0.09699
3552.74886,0.09695
3550.82011,0.09665
3548.89137,0.09596
3546.96262,0.09541
3545.03387,0.09525
3543.10513,0.09521
3541.17638,0.09509
3539.24764,0.09486
3537.31889,0.09471
3535.39015,0.09464
3533.46140,0.09446
3531.53266,0.09435
3529.60391,0.09440
3527.67517,0.09441
3525.74642,0.09431
3523.81768,0.09430
3521.88893,0.09432
3519.96019,0.09416
3518.03144,0.09402
3516.10270,0.09402
3514.17395,0.09392
3512.24520,0.09382
3510.31646,0.09388
3508.38771,0.09395
3506.45897,0.09393
3504.53022,0.09404
3502.60148,0.09422
3500.67273,0.09439
3498.74399,0.09447
3496.81524,0.09417
3494.88650,0.09360
3492.95775,0.09319
3491.02901,0.09294
3489.10026,0.09270
3487.17152,0.09249
3485.24277,0.09213
3483.31402,0.09171
3481.38528,0.09175
3479.45653,0.09202
3477.52779,0.09201
3475.59904,0.09187
3473.67030,0.09154
3471.74155,0.09081
3469.81281,0.09009
3467.88406,0.08959
3465.95532,0.08920
3464.02657,0.08875
3462.09783,0.08791
3460.16908,0.08689
3458.24034,0.08646
3456.31159,0.08655
3454.38285,0.08624
3452.45410,0.08532
3450.52535,0.08438
3448.59661,0.08399
3446.66786,0.08405
3444.73912,0.08393
3442.81037,0.08360
3440.88163,0.08363
3438.95288,0.08422
3437.02414,0.08507
3435.09539,0.08565
3433.16665,0.08588
3431.23790,0.08620
3429.30916,0.08662
3427.38041,0.08685
3425.45167,0.08683
3423.52292,0.08682
3421.59418,0.08695
3419.66543,0.08708
3417.73668,0.08726
3415.80794,0.08754
3413.87919,0.08765
3411.95045,0.08739
3410.02170,0.08696
3408.09296,0.08677
3406.16421,0.08684
3404.23547,0.08685
3402.30672,0.08661
3400.37798,0.08628
3398.44923,0.08602
3396.52049,0.08582
3394.59174,0.08560
3392.66300,0.08541
3390.73425,0.08535
3388.80550,0.08525
3386.87676,0.08497
3384.94801,0.08462
3383.01927,0.08424
3381.09052,0.08387
3379.16178,0.08375
3377.23303,0.08384
3375.30429,0.08364
3373.37554,0.08296
3371.44680,0.08227
3369.51805,0.08179
3367.58931,0.08133
3365.66056,0.08087
3363.73182,0.08038
3361.80307,0.07975
3359.87433,0.07920
3357.94558,0.07889
3356.01683,0.07850
3354.08809,0.07771
3352.15934,0.07682
3350.23060,0.07637
3348.30185,0.07606
3346.37311,0.07533
3344.44436,0.07440
3342.51562,0.07353
3340.58687,0.07263
3338.65813,0.07183
3336.72938,0.07117
3334.80064,0.07047
3332.87189,0.06958
3330.94315,0.06853
3329.01440,0.06765
3327.08566,0.06701
3325.15691,0.06629
3323.22816,0.06547
3321.29942,0.06473
3319.37067,0.06396
3317.44193,0.06296
3315.51318,0.06195
3313.58444,0.06124
3311.65569,0.06073
3309.72695,0.06034
3307.79820,0.06002
3305.86946,0.05971
3303.94071,0.05979
3302.01197,0.06023
3300.08322,0.06043
3298.15448,0.06040
3296.22573,0.06090
3294.29698,0.06206
3292.36824,0.06323
3290.43949,0.06420
3288.51075,0.06519
3286.58200,0.06608
3284.65326,0.06666
3282.72451,0.06722
3280.79577,0.06799
3278.86702,0.06862
3276.93828,0.06905
3275.00953,0.06963
3273.08079,0.07024
3271.15204,0.07065
3269.22330,0.07107
3267.29455,0.07157
3265.36581,0.07199
3263.43706,0.07241
3261.50831,0.07313
3259.57957,0.07392
3257.65082,0.07426
3255.72208,0.07432
3253.79333,0.07459
3251.86459,0.07514
3249.93584,0.07588
3248.00710,0.07646
3246.07835,0.07661
3244.14961,0.07667
3242.22086,0.07702
3240.29212,0.07749
3238.36337,0.07779
3236.43463,0.07797
3234.50588,0.07805
3232.57713,0.07786
3230.64839,0.07758
3228.71964,0.07765
3226.79090,0.07811
3224.86215,0.07861
3222.93341,0.07885
3221.00466,0.07888
3219.07592,0.07885
3217.14717,0.07871
3215.21843,0.07845
3213.28968,0.07833
3211.36094,0.07844
3209.43219,0.07865
3207.50345,0.07883
3205.57470,0.07896
3203.64596,0.07918
3201.71721,0.07933
3199.78846,0.07909
3197.85972,0.07873
3195.93097,0.07867
3194.00223,0.07878
3192.07348,0.07881
3190.14474,0.07884
3188.21599,0.07897
3186.28725,0.07895
3184.35850,0.07888
3182.42976,0.07907
3180.50101,0.07930
3178.57227,0.07942
3176.64352,0.07959
3174.71478,0.07983
3172.78603,0.08002
3170.85729,0.07997
3168.92854,0.07961
3166.99979,0.07934
3165.07105,0.07931
3163.14230,0.07938
3161.21356,0.07976
3159.28481,0.08039
3157.35607,0.08073
3155.42732,0.08068
3153.49858,0.08057
3151.56983,0.08058
3149.64109,0.08065
3147.71234,0.08058
3145.78360,0.08040
3143.85485,0.08037
3141.92611,0.08042
3139.99736,0.08035
3138.06861,0.08011
3136.13987,0.07971
3134.21112,0.07928
3132.28238,0.07901
3130.35363,0.07883
3128.42489,0.07864
3126.49614,0.07846
3124.56740,0.07820
3122.63865,0.07770
3120.70991,0.07705
3118.78116,0.07622
3116.85242,0.07496
3114.92367,0.07337
3112.99493,0.07185
3111.06618,0.07033
3109.13744,0.06867
3107.20869,0.06738
3105.27994,0.06670
3103.35120,0.06637
3101.42245,0.06630
3099.49371,0.06636
3097.56496,0.06620
3095.63622,0.06553
3093.70747,0.06447
3091.77873,0.06332
3089.84998,0.06194
3087.92124,0.06030
3085.99249,0.05899
3084.06375,0.05844
3082.13500,0.05857
3080.20626,0.05914
3078.27751,0.05987
3076.34877,0.06018
3074.42002,0.05972
3072.49127,0.05896
3070.56253,0.05840
3068.63378,0.05789
3066.70504,0.05716
3064.77629,0.05634
3062.84755,0.05596
3060.91880,0.05628
3058.99006,0.05683
3057.06131,0.05726
3055.13257,0.05778
3053.20382,0.05851
3051.27508,0.05926
3049.34633,0.05983
3047.41759,0.06009
3045.48884,0.05987
3043.56009,0.05917
3041.63135,0.05842
3039.70260,0.05783
3037.77386,0.05711
3035.84511,0.05617
3033.91637,0.05531
3031.98762,0.05487
3030.05888,0.05476
3028.13013,0.05463
3026.20139,0.05456
3024.27264,0.05512
3022.34390,0.05629
3020.41515,0.05740
3018.48641,0.05824
3016.55766,0.05905
3014.62892,0.05979
3012.70017,0.06030
3010.77142,0.06051
3008.84268,0.06032
3006.91393,0.05988
3004.98519,0.05952
3003.05644,0.05928
3001.12770,0.05924
2999.19895,0.05953
2997.27021,0.05980
2995.34146,0.05961
2993.41272,0.05912
2991.48397,0.05865
2989.55523,0.05823
2987.62648,0.05786
2985.69774,0.05737
2983.76899,0.05650
2981.84025,0.05552
2979.91150,0.05487
2977.98275,0.05438
2976.05401,0.05368
2974.12526,0.05298
2972.19652,0.05253
2970.26777,0.05214
2968.33903,0.05168
2966.41028,0.05128
2964.48154,0.05114
2962.55279,0.05137
2960.62405,0.05184
2958.69530,0.05234
2956.76656,0.05276
2954.83781,0.05299
2952.90907,0.05289
2950.98032,0.05275
2949.05157,0.05292
2947.12283,0.05333
2945.19408,0.05360
2943.26534,0.05358
2941.33659,0.05358
2939.40785,0.05388
2937.47910,0.05434
2935.55036,0.05477
2933.62161,0.05529
2931.69287,0.05612
2929.76412,0.05723
2927.83538,0.05829
2925.90663,0.05914
2923.97789,0.05983
2922.04914,0.06025
2920.12040,0.06042
2918.19165,0.06042
2916.26290,0.06018
2914.33416,0.05986
2912.40541,0.05963
2910.47667,0.05929
2908.54792,0.05871
2906.61918,0.05821
2904.69043,0.05820
2902.76169,0.05851
2900.83294,0.05857
2898.90420,0.05826
2896.97545,0.05794
2895.04671,0.05789
2893.11796,0.05814
2891.18922,0.05842
2889.26047,0.05846
2887.33172,0.05828
2885.40298,0.05799
2883.47423,0.05754
2881.54549,0.05702
2879.61674,0.05665
2877.68800,0.05657
2875.75925,0.05668
2873.83051,0.05686
2871.90176,0.05711
2869.97302,0.05727
2868.04427,0.05722
2866.11553,0.05731
2864.18678,0.05771
2862.25804,0.05826
2860.32929,0.05880
2858.40055,0.05928
2856.47180,0.05972
2854.54305,0.06014
2852.61431,0.06066
2850.68556,0.06126
2848.75682,0.06184
2846.82807,0.06233
2844.89933,0.06261
2842.97058,0.06276
2841.04184,0.06310
2839.11309,0.06375
2837.18435,0.06453
2835.25560,0.06521
2833.32686,0.06568
2831.39811,0.06608
2829.46937,0.06652
2827.54062,0.06692
2825.61188,0.06727
2823.68313,0.06760
2821.75438,0.06781
2819.82564,0.06791
2817.89689,0.06808
2815.96815,0.06837
2814.03940,0.06873
2812.11066,0.06898
2810.18191,0.06907
2808.25317,0.06921
2806.32442,0.06939
2804.39568,0.06955
2802.46693,0.06994
2800.53819,0.07043
2798.60944,0.07059
2796.68070,0.07060
2794.75195,0.07079
2792.82320,0.07107
2790.89446,0.07128
2788.96571,0.07147
2787.03697,0.07176
2785.10822,0.07214
2783.17948,0.07251
2781.25073,0.07278
2779.32199,0.07287
2777.39324,0.07279
2775.46450,0.07281
2773.53575,0.07312
2771.60701,0.07347
2769.67826,0.07361
2767.74952,0.07373
2765.82077,0.07382
2763.89203,0.07359
2761.96328,0.07319
2760.03453,0.07290
2758.10579,0.07285
2756.17704,0.07310
2754.24830,0.07342
2752.31955,0.07352
2750.39081,0.07341
2748.46206,0.07315
2746.53332,0.07289
2744.60457,0.07276
2742.67583,0.07265
2740.74708,0.07256
2738.81834,0.07256
2736.88959,0.07252
2734.96085,0.07244
2733.03210,0.07259
2731.10336,0.07293
2729.17461,0.07312
2727.24586,0.07313
2725.31712,0.07319
2723.38837,0.07332
2721.45963,0.07345
2719.53088,0.07356
2717.60214,0.07362
2715.67339,0.07367
2713.74465,0.07381
2711.81590,0.07400
2709.88716,0.07414
2707.95841,0.07429
2706.02967,0.07452
2704.10092,0.07464
2702.17218,0.07451
2700.24343,0.07428
2698.31468,0.07423
2696.38594,0.07443
2694.45719,0.07454
2692.52845,0.07438
2690.59970,0.07414
2688.67096,0.07399
2686.74221,0.07406
2684.81347,0.07427
2682.88472,0.07429
2680.95598,0.07418
2679.02723,0.07427
2677.09849,0.07436
2675.16974,0.07422
2673.24100,0.07416
2671.31225,0.07439
2669.38351,0.07461
2667.45476,0.07462
2665.52601,0.07458
2663.59727,0.07470
2661.66852,0.07486
2659.73978,0.07482
2657.81103,0.07466
2655.88229,0.07467
2653.95354,0.07477
2652.02480,0.07487
2650.09605,0.07495
2648.16731,0.07487
2646.23856,0.07462
2644.30982,0.07434
2642.38107,0.07411
2640.45233,0.07399
2638.52358,0.07390
2636.59484,0.07384
2634.66609,0.07383
2632.73734,0.07379
2630.80860,0.07374
2628.87985,0.07371
2626.95111,0.07377
2625.02236,0.07393
2623.09362,0.07408
2621.16487,0.07423
2619.23613,0.07443
2617.30738,0.07442
2615.37864,0.07417
2613.44989,0.07396
2611.52115,0.07378
2609.59240,0.07337
2607.66366,0.07292
2605.73491,0.07286
2603.80616,0.07310
2601.87742,0.07313
2599.94867,0.07300
2598.01993,0.07297
2596.09118,0.07297
2594.16244,0.07301
2592.23369,0.07322
2590.30495,0.07339
2588.37620,0.07335
2586.44746,0.07327
2584.51871,0.07320
2582.58997,0.07300
2580.66122,0.07283
2578.73248,0.07296
2576.80373,0.07318
2574.87499,0.07331
2572.94624,0.07343
2571.01749,0.07347
2569.08875,0.07344
2567.16000,0.07355
2565.23126,0.07385
2563.30251,0.07406
2561.37377,0.07397
2559.44502,0.07375
2557.51628,0.07357
2555.58753,0.07346
2553.65879,0.07342
2551.73004,0.07345
2549.80130,0.07353
2547.87255,0.07355
2545.94381,0.07344
2544.01506,0.07330
2542.08631,0.07328
2540.15757,0.07337
2538.22882,0.07346
2536.30008,0.07340
2534.37133,0.07320
2532.44259,0.07307
2530.51384,0.07306
2528.58510,0.07291
2526.65635,0.07264
2524.72761,0.07253
2522.79886,0.07248
2520.87012,0.07238
2518.94137,0.07226
2517.01263,0.07205
2515.08388,0.07185
2513.15514,0.07186
2511.22639,0.07206
2509.29764,0.07221
2507.36890,0.07225
2505.44015,0.07225
2503.51141,0.07223
2501.58266,0.07232
2499.65392,0.07249
2497.72517,0.07258
2495.79643,0.07260
2493.86768,0.07261
2491.93894,0.07274
2490.01019,0.07295
2488.08145,0.07297
2486.15270,0.07283
2484.22396,0.07287
2482.29521,0.07310
2480.36647,0.07330
2478.43772,0.07349
2476.50897,0.07367
2474.58023,0.07371
2472.65148,0.07370
2470.72274,0.07379
2468.79399,0.07389
2466.86525,0.07393
2464.93650,0.07399
2463.00776,0.07420
2461.07901,0.07448
2459.15027,0.07456
2457.22152,0.07448
2455.29278,0.07451
2453.36403,0.07464
2451.43529,0.07462
2449.50654,0.07450
2447.57779,0.07444
2445.64905,0.07446
2443.72030,0.07449
2441.79156,0.07449
2439.86281,0.07451
2437.93407,0.07466
2436.00532,0.07487
2434.07658,0.07495
2432.14783,0.07489
2430.21909,0.07480
2428.29034,0.07473
2426.36160,0.07468
2424.43285,0.07465
2422.50411,0.07457
2420.57536,0.07448
2418.64662,0.07452
2416.71787,0.07452
2414.78912,0.07438
2412.86038,0.07433
2410.93163,0.07438
2409.00289,0.07439
2407.07414,0.07432
2405.14540,0.07422
2403.21665,0.07427
2401.28791,0.07438
2399.35916,0.07442
2397.43042,0.07450
2395.50167,0.07472
2393.57293,0.07498
2391.64418,0.07512
2389.71544,0.07504
2387.78669,0.07485
2385.85795,0.07483
2383.92920,0.07508
2382.00045,0.07529
2380.07171,0.07537
2378.14296,0.07551
2376.21422,0.07562
2374.28547,0.07549
2372.35673,0.07513
2370.42798,0.07475
2368.49924,0.07447
2366.57049,0.07425
2364.64175,0.07426
2362.71300,0.07445
2360.78426,0.07453
2358.85551,0.07444
2356.92677,0.07419
2354.99802,0.07381
2353.06927,0.07355
2351.14053,0.07338
2349.21178,0.07305
2347.28304,0.07268
2345.35429,0.07238
2343.42555,0.07213
2341.49680,0.07207
2339.56806,0.07217
2337.63931,0.07229
2335.71057,0.07248
2333.78182,0.07292
2331.85308,0.07354
2329.92433,0.07408
2327.99559,0.07442
2326.06684,0.07459
2324.13810,0.07464
2322.20935,0.07464
2320.28060,0.07454
2318.35186,0.07441
2316.42311,0.07437
2314.49437,0.07430
2312.56562,0.07430
2310.63688,0.07466
2308.70813,0.07515
2306.77939,0.07545
2304.85064,0.07553
2302.92190,0.07548
2300.99315,0.07534
2299.06441,0.07506
2297.13566,0.07476
2295.20692,0.07470
2293.27817,0.07479
2291.34943,0.07487
2289.42068,0.07498
2287.49193,0.07504
2285.56319,0.07502
2283.63444,0.07500
2281.70570,0.07491
2279.77695,0.07471
2277.84821,0.07453
2275.91946,0.07445
2273.99072,0.07438
2272.06197,0.07410
2270.13323,0.07366
2268.20448,0.07330
2266.27574,0.07319
2264.34699,0.07314
2262.41825,0.07271
2260.48950,0.07181
2258.56075,0.07081
2256.63201,0.06990
2254.70326,0.06896
2252.77452,0.06766
2250.84577,0.06570
2248.91703,0.06330
2246.98828,0.06093
2245.05954,0.05877
2243.13079,0.05698
2241.20205,0.05600
2239.27330,0.05576
2237.34456,0.05584
2235.41581,0.05635
2233.48707,0.05789
2231.55832,0.06063
2229.62958,0.06421
2227.70083,0.06801
2225.77208,0.07136
2223.84334,0.07380
2221.91459,0.07551
2219.98585,0.07696
2218.05710,0.07812
2216.12836,0.07879
2214.19961,0.07915
2212.27087,0.07944
2210.34212,0.07979
2208.41338,0.08021
2206.48463,0.08057
2204.55589,0.08085
2202.62714,0.08116
2200.69840,0.08135
2198.76965,0.08133
2196.84090,0.08122
2194.91216,0.08114
2192.98341,0.08106
2191.05467,0.08088
2189.12592,0.08065
2187.19718,0.08061
2185.26843,0.08074
2183.33969,0.08096
2181.41094,0.08131
2179.48220,0.08175
2177.55345,0.08210
2175.62471,0.08238
2173.69596,0.08267
2171.76722,0.08293
2169.83847,0.08300
2167.90973,0.08287
2165.98098,0.08273
2164.05223,0.08273
2162.12349,0.08289
2160.19474,0.08311
2158.26600,0.08318
2156.33725,0.08300
2154.40851,0.08277
2152.47976,0.08258
2150.55102,0.08234
2148.62227,0.08218
2146.69353,0.08219
2144.76478,0.08213
2142.83604,0.08190
2140.90729,0.08171
2138.97855,0.08179
2137.04980,0.08214
2135.12106,0.08249
2133.19231,0.08270
2131.26356,0.08295
2129.33482,0.08343
2127.40607,0.08408
2125.47733,0.08473
2123.54858,0.08529
2121.61984,0.08591
2119.69109,0.08658
2117.76235,0.08703
2115.83360,0.08723
2113.90486,0.08753
2111.97611,0.08804
2110.04737,0.08850
2108.11862,0.08870
2106.18988,0.08872
2104.26113,0.08877
2102.33238,0.08895
2100.40364,0.08931
2098.47489,0.08971
2096.54615,0.08992
2094.61740,0.08989
2092.68866,0.08974
2090.75991,0.08969
2088.83117,0.08975
2086.90242,0.08978
2084.97368,0.08976
2083.04493,0.08967
2081.11619,0.08944
2079.18744,0.08914
2077.25870,0.08890
2075.32995,0.08875
2073.40121,0.08862
2071.47246,0.08849
2069.54371,0.08819
2067.61497,0.08771
2065.68622,0.08743
2063.75748,0.08738
2061.82873,0.08719
2059.89999,0.08683
2057.97124,0.08655
2056.04250,0.08644
2054.11375,0.08637
2052.18501,0.08620
2050.25626,0.08586
2048.32752,0.08542
2046.39877,0.08502
2044.47003,0.08466
2042.54128,0.08430
2040.61254,0.08399
2038.68379,0.08372
2036.75504,0.08341
2034.82630,0.08318
2032.89755,0.08311
2030.96881,0.08302
2029.04006,0.08274
2027.11132,0.08245
2025.18257,0.08236
2023.25383,0.08239
2021.32508,0.08243
2019.39634,0.08246
2017.46759,0.08249
2015.53885,0.08265
2013.61010,0.08295
2011.68136,0.08310
2009.75261,0.08295
2007.82386,0.08270
2005.89512,0.08251
2003.96637,0.08232
2002.03763,0.08200
2000.10888,0.08154
1998.18014,0.08098
1996.25139,0.08031
1994.32265,0.07966
1992.39390,0.07910
1990.46516,0.07849
1988.53641,0.07787
1986.60767,0.07738
1984.67892,0.07704
1982.75018,0.07674
1980.82143,0.07648
1978.89269,0.07626
1976.96394,0.07585
1975.03519,0.07512
1973.10645,0.07432
1971.17770,0.07360
1969.24896,0.07279
1967.32021,0.07185
1965.39147,0.07101
1963.46272,0.07039
1961.53398,0.06990
1959.60523,0.06940
1957.67649,0.06897
1955.74774,0.06879
1953.81900,0.06878
1951.89025,0.06884
1949.96151,0.06910
1948.03276,0.06967
1946.10402,0.07049
1944.17527,0.07151
1942.24652,0.07266
1940.31778,0.07383
1938.38903,0.07500
1936.46029,0.07620
1934.53154,0.07743
1932.60280,0.07864
1930.67405,0.07961
1928.74531,0.08024
1926.81656,0.08064
1924.88782,0.08095
1922.95907,0.08116
1921.03033,0.08130
1919.10158,0.08143
1917.17284,0.08141
1915.24409,0.08108
1913.31534,0.08053
1911.38660,0.07990
1909.45785,0.07916
1907.52911,0.07829
1905.60036,0.07740
1903.67162,0.07651
1901.74287,0.07569
1899.81413,0.07502
1897.88538,0.07434
1895.95664,0.07362
1894.02789,0.07294
1892.09915,0.07231
1890.17040,0.07185
1888.24166,0.07166
1886.31291,0.07148
1884.38417,0.07117
1882.45542,0.07090
1880.52667,0.07075
1878.59793,0.07077
1876.66918,0.07118
1874.74044,0.07200
1872.81169,0.07292
1870.88295,0.07382
1868.95420,0.07486
1867.02546,0.07612
1865.09671,0.07756
1863.16797,0.07894
1861.23922,0.08005
1859.31048,0.08089
1857.38173,0.08157
1855.45299,0.08220
1853.52424,0.08272
1851.59549,0.08284
1849.66675,0.08259
1847.73800,0.08220
1845.80926,0.08148
1843.88051,0.08041
1841.95177,0.07940
1840.02302,0.07847
1838.09428,0.07746
1836.16553,0.07637
1834.23679,0.07521
1832.30804,0.07399
1830.37930,0.07276
1828.45055,0.07159
1826.52181,0.07050
1824.59306,0.06938
1822.66432,0.06831
1820.73557,0.06727
1818.80682,0.06620
1816.87808,0.06525
1814.94933,0.06451
1813.02059,0.06381
1811.09184,0.06302
1809.16310,0.06227
1807.23435,0.06162
1805.30561,0.06098
1803.37686,0.06027
1801.44812,0.05963
1799.51937,0.05932
1797.59063,0.05936
1795.66188,0.05948
1793.73314,0.05942
1791.80439,0.05918
1789.87565,0.05907
1787.94690,0.05926
1786.01815,0.05961
1784.08941,0.05997
1782.16066,0.06019
1780.23192,0.06006
1778.30317,0.05964
1776.37443,0.05913
1774.44568,0.05863
1772.51694,0.05815
1770.58819,0.05769
1768.65945,0.05714
1766.73070,0.05648
1764.80196,0.05575
1762.87321,0.05490
1760.94447,0.05389
1759.01572,0.05295
1757.08697,0.05213
1755.15823,0.05126
1753.22948,0.05035
1751.30074,0.04939
1749.37199,0.04838
1747.44325,0.04744
1745.51450,0.04672
1743.58576,0.04646
1741.65701,0.04683
1739.72827,0.04796
1737.79952,0.04965
1735.87078,0.05158
1733.94203,0.05372
1732.01329,0.05576
1730.08454,0.05728
1728.15580,0.05823
1726.22705,0.05876
1724.29830,0.05925
1722.36956,0.05970
1720.44081,0.05982
1718.51207,0.05949
1716.58332,0.05898
1714.65458,0.05861
1712.72583,0.05835
1710.79709,0.05812
1708.86834,0.05799
1706.93960,0.05809
1705.01085,0.05837
1703.08211,0.05860
1701.15336,0.05862
1699.22462,0.05850
1697.29587,0.05843
1695.36713,0.05833
1693.43838,0.05821
1691.50963,0.05829
1689.58089,0.05849
1687.65214,0.05864
1685.72340,0.05874
1683.79465,0.05893
1681.86591,0.05925
1679.93716,0.05948
1678.00842,0.05940
1676.07967,0.05917
1674.15093,0.05911
1672.22218,0.05927
1670.29344,0.05943
1668.36469,0.05945
1666.43595,0.05927
1664.50720,0.05888
1662.57845,0.05844
1660.64971,0.05824
1658.72096,0.05822
1656.79222,0.05822
1654.86347,0.05822
1652.93473,0.05832
1651.00598,0.05851
1649.07724,0.05857
1647.14849,0.05853
1645.21975,0.05857
1643.29100,0.05861
1641.36226,0.05857
1639.43351,0.05860
1637.50477,0.05867
1635.57602,0.05882
1633.64728,0.05932
1631.71853,0.05995
1629.78978,0.06036
1627.86104,0.06044
1625.93229,0.06027
1624.00355,0.06007
1622.07480,0.05998
1620.14606,0.06004
1618.21731,0.06024
1616.28857,0.06027
1614.35982,0.05978
1612.43108,0.05890
1610.50233,0.05782
1608.57359,0.05658
1606.64484,0.05539
1604.71610,0.05467
1602.78735,0.05467
1600.85861,0.05519
1598.92986,0.05584
1597.00111,0.05663
1595.07237,0.05760
1593.14362,0.05839
1591.21488,0.05865
1589.28613,0.05833
1587.35739,0.05755
1585.42864,0.05658
1583.49990,0.05599
1581.57115,0.05621
1579.64241,0.05696
1577.71366,0.05753
1575.78492,0.05762
1573.85617,0.05767
1571.92743,0.05785
1569.99868,0.05781
1568.06993,0.05739
1566.14119,0.05689
1564.21244,0.05648
1562.28370,0.05626
1560.35495,0.05603
1558.42621,0.05547
1556.49746,0.05506
1554.56872,0.05493
1552.63997,0.05478
1550.71123,0.05463
1548.78248,0.05462
1546.85374,0.05479
1544.92499,0.05514
1542.99625,0.05562
1541.06750,0.05608
1539.13876,0.05622
1537.21001,0.05626
1535.28126,0.05659
1533.35252,0.05708
1531.42377,0.05752
1529.49503,0.05788
1527.56628,0.05825
1525.63754,0.05867
1523.70879,0.05906
1521.78005,0.05931
1519.85130,0.05934
1517.92256,0.05909
1515.99381,0.05870
1514.06507,0.05848
1512.13632,0.05844
1510.20758,0.05825
1508.27883,0.05770
1506.35008,0.05659
1504.42134,0.05521
1502.49259,0.05402
1500.56385,0.05280
1498.63510,0.05145
1496.70636,0.05075
1494.77761,0.05134
1492.84887,0.05263
1490.92012,0.05373
1488.99138,0.05430
1487.06263,0.05458
1485.13389,0.05457
1483.20514,0.05419
1481.27640,0.05369
1479.34765,0.05329
1477.41891,0.05290
1475.49016,0.05253
1473.56141,0.05241
1471.63267,0.05247
1469.70392,0.05240
1467.77518,0.05214
1465.84643,0.05183
1463.91769,0.05152
1461.98894,0.05113
1460.06020,0.05056
1458.13145,0.05003
1456.20271,0.05029
1454.27396,0.05161
1452.34522,0.05334
1450.41647,0.05491
1448.48773,0.05600
1446.55898,0.05651
1444.63024,0.05655
1442.70149,0.05641
1440.77274,0.05640
1438.84400,0.05653
1436.91525,0.05663
1434.98651,0.05660
1433.05776,0.05657
1431.12902,0.05658
1429.20027,0.05661
1427.27153,0.05671
1425.34278,0.05680
1423.41404,0.05675
1421.48529,0.05657
1419.55655,0.05627
1417.62780,0.05614
1415.69906,0.05642
1413.77031,0.05683
1411.84156,0.05685
1409.91282,0.05638
1407.98407,0.05576
1406.05533,0.05516
1404.12658,0.05461
1402.19784,0.05414
1400.26909,0.05384
1398.34035,0.05363
1396.41160,0.05347
1394.48286,0.05347
1392.55411,0.05363
1390.62537,0.05383
1388.69662,0.05390
1386.76788,0.05363
1384.83913,0.05325
1382.91039,0.05315
1380.98164,0.05321
1379.05289,0.05324
1377.12415,0.05335
1375.19540,0.05352
1373.26666,0.05359
1371.33791,0.05359
1369.40917,0.05360
1367.48042,0.05365
1365.55168,0.05372
1363.62293,0.05368
1361.69419,0.05354
1359.76544,0.05351
1357.83670,0.05364
1355.90795,0.05381
1353.97921,0.05392
1352.05046,0.05390
1350.12172,0.05381
1348.19297,0.05378
1346.26422,0.05383
1344.33548,0.05381
1342.40673,0.05364
1340.47799,0.05348
1338.54924,0.05347
1336.62050,0.05348
1334.69175,0.05341
1332.76301,0.05321
1330.83426,0.05298
1328.90552,0.05295
1326.97677,0.05316
1325.04803,0.05338
1323.11928,0.05343
1321.19054,0.05335
1319.26179,0.05332
1317.33304,0.05336
1315.40430,0.05321
1313.47555,0.05290
1311.54681,0.05278
1309.61806,0.05288
1307.68932,0.05286
1305.76057,0.05272
1303.83183,0.05263
1301.90308,0.05257
1299.97434,0.05253
1298.04559,0.05263
1296.11685,0.05279
1294.18810,0.05285
1292.25936,0.05276
1290.33061,0.05250
1288.40187,0.05227
1286.47312,0.05219
1284.54437,0.05207
1282.61563,0.05182
1280.68688,0.05157
1278.75814,0.05153
1276.82939,0.05166
1274.90065,0.05163
1272.97190,0.05148
1271.04316,0.05153
1269.11441,0.05183
1267.18567,0.05201
1265.25692,0.05202
1263.32818,0.05212
1261.39943,0.05233
1259.47069,0.05250
1257.54194,0.05259
1255.61320,0.05264
1253.68445,0.05270
1251.75570,0.05280
1249.82696,0.05303
1247.89821,0.05331
1245.96947,0.05351
1244.04072,0.05369
1242.11198,0.05394
1240.18323,0.05415
1238.25449,0.05414
1236.32574,0.05403
1234.39700,0.05399
1232.46825,0.05392
1230.53951,0.05381
1228.61076,0.05376
1226.68202,0.05376
1224.75327,0.05383
1222.82452,0.05393
1220.89578,0.05384
1218.96703,0.05372
1217.03829,0.05375
1215.10954,0.05373
1213.18080,0.05352
1211.25205,0.05322
1209.32331,0.05299
1207.39456,0.05279
1205.46582,0.05265
1203.53707,0.05268
1201.60833,0.05274
1199.67958,0.05274
1197.75084,0.05279
1195.82209,0.05274
1193.89335,0.05233
1191.96460,0.05180
1190.03585,0.05162
1188.10711,0.05159
1186.17836,0.05128
1184.24962,0.05103
1182.32087,0.05121
1180.39213,0.05151
1178.46338,0.05166
1176.53464,0.05185
1174.60589,0.05227
1172.67715,0.05296
1170.74840,0.05389
1168.81966,0.05483
1166.89091,0.05568
1164.96217,0.05642
1163.03342,0.05698
1161.10467,0.05766
1159.17593,0.05873
1157.24718,0.05985
1155.31844,0.06051
1153.38969,0.06078
1151.46095,0.06095
1149.53220,0.06087
1147.60346,0.06036
1145.67471,0.05995
1143.74597,0.05987
1141.81722,0.05967
1139.88848,0.05918
1137.95973,0.05863
1136.03099,0.05824
1134.10224,0.05811
1132.17350,0.05812
1130.24475,0.05793
1128.31600,0.05751
1126.38726,0.05711
1124.45851,0.05683
1122.52977,0.05677
1120.60102,0.05699
1118.67228,0.05707
1116.74353,0.05678
1114.81479,0.05657
1112.88604,0.05680
1110.95730,0.05701
1109.02855,0.05691
1107.09981,0.05691
1105.17106,0.05708
1103.24232,0.05696
1101.31357,0.05653
1099.38483,0.05603
1097.45608,0.05568
1095.52733,0.05568
1093.59859,0.05590
1091.66984,0.05606
1089.74110,0.05608
1087.81235,0.05594
1085.88361,0.05550
1083.95486,0.05482
1082.02612,0.05434
1080.09737,0.05429
1078.16863,0.05434
1076.23988,0.05422
1074.31114,0.05423
1072.38239,0.05456
1070.45365,0.05490
1068.52490,0.05509
1066.59615,0.05528
1064.66741,0.05560
1062.73866,0.05595
1060.80992,0.05629
1058.88117,0.05675
1056.95243,0.05708
1055.02368,0.05685
1053.09494,0.05624
1051.16619,0.05581
1049.23745,0.05576
1047.30870,0.05603
1045.37996,0.05644
1043.45121,0.05658
1041.52247,0.05619
1039.59372,0.05542
1037.66498,0.05495
1035.73623,0.05514
1033.80748,0.05542
1031.87874,0.05548
1029.94999,0.05571
1028.02125,0.05623
1026.09250,0.05667
1024.16376,0.05673
1022.23501,0.05648
1020.30627,0.05631
1018.37752,0.05623
1016.44878,0.05600
1014.52003,0.05591
1012.59129,0.05631
1010.66254,0.05680
1008.73380,0.05677
1006.80505,0.05632
1004.87631,0.05606
1002.94756,0.05619
1001.01881,0.05634
999.09007,0.05628
997.16132,0.05616
995.23258,0.05627
993.30383,0.05652
991.37509,0.05647
989.44634,0.05605
987.51760,0.05570
985.58885,0.05549
983.66011,0.05533
981.73136,0.05531
979.80262,0.05537
977.87387,0.05534
975.94513,0.05520
974.01638,0.05497
972.08763,0.05478
970.15889,0.05468
968.23014,0.05465
966.30140,0.05479
964.37265,0.05510
962.44391,0.05534
960.51516,0.05540
958.58642,0.05540
956.65767,0.05543
954.72893,0.05540
952.80018,0.05516
950.87144,0.05478
948.94269,0.05439
947.01395,0.05425
945.08520,0.05452
943.15646,0.05490
941.22771,0.05506
939.29896,0.05506
937.37022,0.05506
935.44147,0.05506
933.51273,0.05492
931.58398,0.05462
929.65524,0.05439
927.72649,0.05432
925.79775,0.05436
923.86900,0.05444
921.94026,0.05444
920.01151,0.05443
918.08277,0.05439
916.15402,0.05413
914.22528,0.05373
912.29653,0.05359
910.36779,0.05371
908.43904,0.05388
906.51029,0.05399
904.58155,0.05401
902.65280,0.05408
900.72406,0.05427
898.79531,0.05439
896.86657,0.05449
894.93782,0.05453
893.00908,0.05421
891.08033,0.05383
889.15159,0.05396
887.22284,0.05433
885.29410,0.05432
883.36535,0.05398
881.43661,0.05384
879.50786,0.05406
877.57911,0.05433
875.65037,0.05435
873.72162,0.05409
871.79288,0.05382
869.86413,0.05374
867.93539,0.05372
866.00664,0.05359
864.07790,0.05341
862.14915,0.05323
860.22041,0.05286
858.29166,0.05254
856.36292,0.05256
854.43417,0.05269
852.50543,0.05277
850.57668,0.05289
848.64794,0.05298
846.71919,0.05287
844.79044,0.05246
842.86170,0.05217
840.93295,0.05240
839.00421,0.05260
837.07546,0.05234
835.14672,0.05229
833.21797,0.05269
831.28923,0.05277
829.36048,0.05242
827.43174,0.05244
825.50299,0.05279
823.57425,0.05277
821.64550,0.05264
819.71676,0.05279
817.78801,0.05271
815.85926,0.05233
813.93052,0.05226
812.00177,0.05247
810.07303,0.05248
808.14428,0.05223
806.21554,0.05201
804.28679,0.05200
802.35805,0.05186
800.42930,0.05144
798.50056,0.05107
796.57181,0.05092
794.64307,0.05077
792.71432,0.05050
790.78558,0.05015
788.85683,0.04973
786.92809,0.04906
784.99934,0.04810
783.07059,0.04725
781.14185,0.04702
779.21310,0.04726
777.28436,0.04717
775.35561,0.04652
773.42687,0.04608
771.49812,0.04622
769.56938,0.04647
767.64063,0.04685
765.71189,0.04772
763.78314,0.04883
761.85440,0.05016
759.92565,0.05183
757.99691,0.05353
756.06816,0.05468
754.13942,0.05498
752.21067,0.05488
750.28192,0.05493
748.35318,0.05491
746.42443,0.05452
744.49569,0.05408
742.56694,0.05381
740.63820,0.05354
738.70945,0.05310
736.78071,0.05265
734.85196,0.05253
732.92322,0.05239
730.99447,0.05179
729.06573,0.05105
727.13698,0.05024
725.20824,0.04933
723.27949,0.04870
721.35074,0.04818
719.42200,0.04714
717.49325,0.04560
715.56451,0.04390
713.63576,0.04235
711.70702,0.04119
709.77827,0.04058
707.84953,0.04130
705.92078,0.04452
703.99204,0.05042
702.06329,0.05806
700.13455,0.06590
698.20580,0.07148
696.27706,0.07291
694.34831,0.07087
692.41957,0.06762
690.49082,0.06481
688.56207,0.06272
686.63333,0.06119
684.70458,0.06006
682.77584,0.05917
680.84709,0.05861
678.91835,0.05839
676.98960,0.05829
675.06086,0.05835
673.13211,0.05845
671.20337,0.05788
669.27462,0.05666
667.34588,0.05604
665.41713,0.05629
663.48839,0.05653
661.55964,0.05638
659.63090,0.05586
657.70215,0.05503
655.77340,0.05431
653.84466,0.05436
651.91591,0.05501
649.98717,0.05554
648.05842,0.05546
646.12968,0.05471
644.20093,0.05440
642.27219,0.05517
640.34344,0.05543
638.41470,0.05452
636.48595,0.05404
634.55721,0.05460
632.62846,0.05520
630.69972,0.05505
628.77097,0.05396
626.84222,0.05257
624.91348,0.05203
622.98473,0.05239
621.05599,0.05292
619.12724,0.05324
617.19850,0.05292
615.26975,0.05230
613.34101,0.05263
611.41226,0.05382
609.48352,0.05487
607.55477,0.05557
605.62603,0.05535
603.69728,0.05381
601.76854,0.05214
599.83979,0.05215
