7497.03301,0.83159
7495.10426,0.83234
7493.17552,0.83395
7491.24677,0.83716
7489.31803,0.84267
7487.38928,0.84592
7485.46054,0.84597
7483.53179,0.84541
7481.60305,0.84450
7479.67430,0.84236
7477.74556,0.83801
7475.81681,0.83236
7473.88807,0.83016
7471.95932,0.83478
7470.03057,0.83902
7468.10183,0.83747
7466.17308,0.83736
7464.24434,0.83815
7462.31559,0.83329
7460.38685,0.82706
7458.45810,0.82407
7456.52936,0.82448
7454.60061,0.82853
7452.67187,0.83113
7450.74312,0.82911
7448.81438,0.82998
7446.88563,0.83586
7444.95689,0.83829
7443.02814,0.83572
7441.09940,0.83285
7439.17065,0.82870
7437.24190,0.82524
7435.31316,0.82961
7433.38441,0.83857
7431.45567,0.84202
7429.52692,0.83920
7427.59818,0.83731
7425.66943,0.83730
7423.74069,0.83313
7421.81194,0.82520
7419.88320,0.82037
7417.95445,0.82099
7416.02571,0.82367
7414.09696,0.82598
7412.16822,0.82821
7410.23947,0.83006
7408.31073,0.83013
7406.38198,0.82816
7404.45323,0.82573
7402.52449,0.82286
7400.59574,0.82126
7398.66700,0.82331
7396.73825,0.82561
7394.80951,0.82692
7392.88076,0.82862
7390.95202,0.82799
7389.02327,0.82530
7387.09453,0.82608
7385.16578,0.82978
7383.23704,0.82935
7381.30829,0.82766
7379.37955,0.83168
7377.45080,0.83364
7375.52205,0.82687
7373.59331,0.82071
7371.66456,0.82057
7369.73582,0.82378
7367.80707,0.83093
7365.87833,0.83611
7363.94958,0.83025
7362.02084,0.81960
7360.09209,0.81636
7358.16335,0.81896
7356.23460,0.81950
7354.30586,0.82103
7352.37711,0.82650
7350.44837,0.82960
7348.51962,0.82718
7346.59088,0.82077
7344.66213,0.81452
7342.73338,0.81222
7340.80464,0.81101
7338.87589,0.81027
7336.94715,0.81214
7335.01840,0.81235
7333.08966,0.81000
7331.16091,0.80991
7329.23217,0.81068
7327.30342,0.80751
7325.37468,0.80499
7323.44593,0.81083
7321.51719,0.81926
7319.58844,0.82119
7317.65970,0.81808
7315.73095,0.81328
7313.80221,0.80991
7311.87346,0.81033
7309.94471,0.81172
7308.01597,0.81331
7306.08722,0.81783
7304.15848,0.82037
7302.22973,0.81632
7300.30099,0.81470
7298.37224,0.81902
7296.44350,0.81912
7294.51475,0.81368
7292.58601,0.80934
7290.65726,0.80786
7288.72852,0.80868
7286.79977,0.81031
7284.87103,0.80921
7282.94228,0.80422
7281.01353,0.80198
7279.08479,0.80723
7277.15604,0.81121
7275.22730,0.80849
7273.29855,0.80626
7271.36981,0.80567
7269.44106,0.80358
7267.51232,0.80277
7265.58357,0.80481
7263.65483,0.80717
7261.72608,0.80741
7259.79734,0.80753
7257.86859,0.81133
7255.93985,0.81586
7254.01110,0.81653
7252.08236,0.81648
7250.15361,0.81813
7248.22486,0.81528
7246.29612,0.80748
7244.36737,0.80620
7242.43863,0.81386
7240.50988,0.81816
7238.58114,0.81532
7236.65239,0.81316
7234.72365,0.81446
7232.79490,0.81632
7230.86616,0.81716
7228.93741,0.81576
7227.00867,0.81100
7225.07992,0.80481
7223.15118,0.80018
7221.22243,0.80037
7219.29369,0.80528
7217.36494,0.80981
7215.43619,0.81188
7213.50745,0.81337
7211.57870,0.81626
7209.64996,0.81887
7207.72121,0.81854
7205.79247,0.81749
7203.86372,0.81495
7201.93498,0.80977
7200.00623,0.80681
7198.07749,0.80776
7196.14874,0.81050
7194.22000,0.81193
7192.29125,0.80905
7190.36251,0.80600
7188.43376,0.80723
7186.50501,0.80823
7184.57627,0.80653
7182.64752,0.80494
7180.71878,0.80464
7178.79003,0.80716
7176.86129,0.81008
7174.93254,0.80773
7173.00380,0.80297
7171.07505,0.80248
7169.14631,0.80448
7167.21756,0.80546
7165.28882,0.80524
7163.36007,0.80083
7161.43133,0.79521
7159.50258,0.79442
7157.57384,0.79461
7155.64509,0.79361
7153.71634,0.79309
7151.78760,0.79260
7149.85885,0.79375
7147.93011,0.79595
7146.00136,0.79654
7144.07262,0.79664
7142.14387,0.79724
7140.21513,0.79798
7138.28638,0.79959
7136.35764,0.80050
7134.42889,0.79640
7132.50015,0.78794
7130.57140,0.78280
7128.64266,0.78397
7126.71391,0.78530
7124.78516,0.78396
7122.85642,0.78282
7120.92767,0.78344
7118.99893,0.78625
7117.07018,0.78885
7115.14144,0.78831
7113.21269,0.78684
7111.28395,0.78450
7109.35520,0.77843
7107.42646,0.77232
7105.49771,0.77265
7103.56897,0.77795
7101.64022,0.78158
7099.71148,0.78269
7097.78273,0.78246
7095.85399,0.77888
7093.92524,0.77579
7091.99649,0.77718
7090.06775,0.77572
7088.13900,0.76739
7086.21026,0.76151
7084.28151,0.76328
7082.35277,0.76580
7080.42402,0.76304
7078.49528,0.75590
7076.56653,0.75005
7074.63779,0.74984
7072.70904,0.75310
7070.78030,0.75632
7068.85155,0.75640
7066.92281,0.75172
7064.99406,0.74680
7063.06532,0.74640
7061.13657,0.74836
7059.20782,0.74782
7057.27908,0.74493
7055.35033,0.74232
7053.42159,0.74133
7051.49284,0.74147
7049.56410,0.74131
7047.63535,0.74256
7045.70661,0.74390
7043.77786,0.74096
7041.84912,0.73598
7039.92037,0.73257
7037.99163,0.73095
7036.06288,0.72976
7034.13414,0.72711
7032.20539,0.72328
7030.27664,0.72038
7028.34790,0.71970
7026.41915,0.71986
7024.49041,0.71909
7022.56166,0.71825
7020.63292,0.71916
7018.70417,0.72147
7016.77543,0.72193
7014.84668,0.71861
7012.91794,0.71412
7010.98919,0.71189
7009.06045,0.71283
7007.13170,0.71494
7005.20296,0.71362
7003.27421,0.70750
7001.34547,0.70250
6999.41672,0.70252
6997.48797,0.70300
6995.55923,0.70070
6993.63048,0.70018
6991.70174,0.70293
6989.77299,0.70471
6987.84425,0.70469
6985.91550,0.70292
6983.98676,0.69917
6982.05801,0.69686
6980.12927,0.69741
6978.20052,0.69825
6976.27178,0.69820
6974.34303,0.69783
6972.41429,0.69708
6970.48554,0.69704
6968.55680,0.69656
6966.62805,0.69288
6964.69930,0.69025
6962.77056,0.69222
6960.84181,0.69373
6958.91307,0.69156
6956.98432,0.68854
6955.05558,0.68897
6953.12683,0.69389
6951.19809,0.69841
6949.26934,0.69718
6947.34060,0.69240
6945.41185,0.69069
6943.48311,0.69222
6941.55436,0.69339
6939.62562,0.69427
6937.69687,0.69497
6935.76812,0.69506
6933.83938,0.69385
6931.91063,0.69061
6929.98189,0.68791
6928.05314,0.68708
6926.12440,0.68730
6924.19565,0.68879
6922.26691,0.69102
6920.33816,0.69323
6918.40942,0.69495
6916.48067,0.69355
6914.55193,0.68858
6912.62318,0.68549
6910.69444,0.68688
6908.76569,0.69013
6906.83695,0.69224
6904.90820,0.69067
6902.97945,0.68821
6901.05071,0.68850
6899.12196,0.68824
6897.19322,0.68522
6895.26447,0.68282
6893.33573,0.68364
6891.40698,0.68601
6889.47824,0.68757
6887.54949,0.68762
6885.62075,0.68419
6883.69200,0.67865
6881.76326,0.67658
6879.83451,0.67812
6877.90577,0.68203
6875.97702,0.68818
6874.04828,0.68979
6872.11953,0.68554
6870.19078,0.68329
6868.26204,0.68391
6866.33329,0.68374
6864.40455,0.68326
6862.47580,0.68494
6860.54706,0.68848
6858.61831,0.69013
6856.68957,0.68813
6854.76082,0.68627
6852.83208,0.68816
6850.90333,0.69003
6848.97459,0.68794
6847.04584,0.68501
6845.11710,0.68348
6843.18835,0.68257
6841.25960,0.68282
6839.33086,0.68487
6837.40211,0.68680
6835.47337,0.68709
6833.54462,0.68672
6831.61588,0.68598
6829.68713,0.68362
6827.75839,0.67962
6825.82964,0.67717
6823.90090,0.67936
6821.97215,0.68453
6820.04341,0.68874
6818.11466,0.69008
6816.18592,0.68886
6814.25717,0.68445
6812.32843,0.67902
6810.39968,0.67930
6808.47093,0.68440
6806.54219,0.68688
6804.61344,0.68625
6802.68470,0.68492
6800.75595,0.68268
6798.82721,0.68222
6796.89846,0.68418
6794.96972,0.68376
6793.04097,0.68133
6791.11223,0.68046
6789.18348,0.67994
6787.25474,0.67872
6785.32599,0.67832
6783.39725,0.68004
6781.46850,0.68356
6779.53975,0.68511
6777.61101,0.68294
6775.68226,0.68115
6773.75352,0.68113
6771.82477,0.68080
6769.89603,0.68029
6767.96728,0.68028
6766.03854,0.68140
6764.10979,0.68264
6762.18105,0.68142
6760.25230,0.67947
6758.32356,0.68034
6756.39481,0.68273
6754.46607,0.68279
6752.53732,0.68114
6750.60858,0.68136
6748.67983,0.68288
6746.75108,0.68375
6744.82234,0.68357
6742.89359,0.68242
6740.96485,0.68245
6739.03610,0.68437
6737.10736,0.68508
6735.17861,0.68333
6733.24987,0.68219
6731.32112,0.68335
6729.39238,0.68425
6727.46363,0.68373
6725.53489,0.68314
6723.60614,0.68356
6721.67740,0.68521
6719.74865,0.68650
6717.81991,0.68695
6715.89116,0.68709
6713.96241,0.68686
6712.03367,0.68781
6710.10492,0.68845
6708.17618,0.68590
6706.24743,0.68363
6704.31869,0.68520
6702.38994,0.68861
6700.46120,0.69040
6698.53245,0.68947
6696.60371,0.68779
6694.67496,0.68628
6692.74622,0.68387
6690.81747,0.68246
6688.88873,0.68393
6686.95998,0.68595
6685.03123,0.68703
6683.10249,0.68758
6681.17374,0.68702
6679.24500,0.68600
6677.31625,0.68651
6675.38751,0.68809
6673.45876,0.68841
6671.53002,0.68646
6669.60127,0.68456
6667.67253,0.68583
6665.74378,0.68948
6663.81504,0.69288
6661.88629,0.69424
6659.95755,0.69355
6658.02880,0.69390
6656.10006,0.69528
6654.17131,0.69452
6652.24256,0.69334
6650.31382,0.69404
6648.38507,0.69427
6646.45633,0.69249
6644.52758,0.69168
6642.59884,0.69437
6640.67009,0.69679
6638.74135,0.69489
6636.81260,0.69185
6634.88386,0.69089
6632.95511,0.69023
6631.02637,0.68975
6629.09762,0.69149
6627.16888,0.69418
6625.24013,0.69586
6623.31139,0.69524
6621.38264,0.69205
6619.45389,0.69091
6617.52515,0.69343
6615.59640,0.69480
6613.66766,0.69447
6611.73891,0.69492
6609.81017,0.69693
6607.88142,0.70075
6605.95268,0.70386
6604.02393,0.70386
6602.09519,0.70306
6600.16644,0.70466
6598.23770,0.70774
6596.30895,0.70868
6594.38021,0.70706
6592.45146,0.70579
6590.52271,0.70561
6588.59397,0.70547
6586.66522,0.70436
6584.73648,0.70219
6582.80773,0.70208
6580.87899,0.70522
6578.95024,0.70823
6577.02150,0.70903
6575.09275,0.70875
6573.16401,0.70870
6571.23526,0.70833
6569.30652,0.70703
6567.37777,0.70586
6565.44903,0.70660
6563.52028,0.70894
6561.59154,0.70972
6559.66279,0.70900
6557.73404,0.70907
6555.80530,0.70858
6553.87655,0.70593
6551.94781,0.70360
6550.01906,0.70481
6548.09032,0.70792
6546.16157,0.70882
6544.23283,0.70806
6542.30408,0.70879
6540.37534,0.71026
6538.44659,0.71047
6536.51785,0.71084
6534.58910,0.71228
6532.66036,0.71320
6530.73161,0.71309
6528.80287,0.71315
6526.87412,0.71326
6524.94537,0.71136
6523.01663,0.70834
6521.08788,0.70684
6519.15914,0.70723
6517.23039,0.70952
6515.30165,0.71309
6513.37290,0.71560
6511.44416,0.71571
6509.51541,0.71517
6507.58667,0.71477
6505.65792,0.71319
6503.72918,0.71263
6501.80043,0.71521
6499.87169,0.71773
6497.94294,0.71776
6496.01419,0.71679
6494.08545,0.71596
6492.15670,0.71444
6490.22796,0.71185
6488.29921,0.71042
6486.37047,0.71161
6484.44172,0.71369
6482.51298,0.71532
6480.58423,0.71629
6478.65549,0.71706
6476.72674,0.71782
6474.79800,0.71684
6472.86925,0.71496
6470.94051,0.71544
6469.01176,0.71781
6467.08302,0.71898
6465.15427,0.71781
6463.22552,0.71605
6461.29678,0.71568
6459.36803,0.71698
6457.43929,0.71936
6455.51054,0.72116
6453.58180,0.72060
6451.65305,0.71830
6449.72431,0.71694
6447.79556,0.71794
6445.86682,0.71963
6443.93807,0.72071
6442.00933,0.72207
6440.08058,0.72295
6438.15184,0.72207
6436.22309,0.72084
6434.29434,0.72041
6432.36560,0.71965
6430.43685,0.71795
6428.50811,0.71635
6426.57936,0.71582
6424.65062,0.71703
6422.72187,0.71914
6420.79313,0.72076
6418.86438,0.72248
6416.93564,0.72342
6415.00689,0.72188
6413.07815,0.72015
6411.14940,0.72099
6409.22066,0.72331
6407.29191,0.72448
6405.36317,0.72436
6403.43442,0.72433
6401.50567,0.72433
6399.57693,0.72336
6397.64818,0.72092
6395.71944,0.71915
6393.79069,0.72057
6391.86195,0.72332
6389.93320,0.72424
6388.00446,0.72406
6386.07571,0.72535
6384.14697,0.72700
6382.21822,0.72563
6380.28948,0.72210
6378.36073,0.72036
6376.43199,0.72130
6374.50324,0.72305
6372.57450,0.72435
6370.64575,0.72429
6368.71700,0.72387
6366.78826,0.72515
6364.85951,0.72662
6362.93077,0.72619
6361.00202,0.72503
6359.07328,0.72513
6357.14453,0.72525
6355.21579,0.72232
6353.28704,0.71836
6351.35830,0.71693
6349.42955,0.71730
6347.50081,0.71961
6345.57206,0.72439
6343.64332,0.72846
6341.71457,0.72950
6339.78582,0.72902
6337.85708,0.72790
6335.92833,0.72604
6333.99959,0.72514
6332.07084,0.72519
6330.14210,0.72440
6328.21335,0.72300
6326.28461,0.72253
6324.35586,0.72408
6322.42712,0.72606
6320.49837,0.72599
6318.56963,0.72482
6316.64088,0.72442
6314.71214,0.72471
6312.78339,0.72464
6310.85465,0.72389
6308.92590,0.72317
6306.99715,0.72212
6305.06841,0.72147
6303.13966,0.72384
6301.21092,0.72823
6299.28217,0.73073
6297.35343,0.73024
6295.42468,0.72823
6293.49594,0.72636
6291.56719,0.72566
6289.63845,0.72653
6287.70970,0.72870
6285.78096,0.73012
6283.85221,0.72916
6281.92347,0.72791
6279.99472,0.72872
6278.06598,0.73032
6276.13723,0.73107
6274.20848,0.73154
6272.27974,0.73252
6270.35099,0.73373
6268.42225,0.73371
6266.49350,0.73190
6264.56476,0.73109
6262.63601,0.73327
6260.70727,0.73587
6258.77852,0.73615
6256.84978,0.73547
6254.92103,0.73612
6252.99229,0.73747
6251.06354,0.73822
6249.13480,0.73952
6247.20605,0.74191
6245.27730,0.74324
6243.34856,0.74266
6241.41981,0.74079
6239.49107,0.73872
6237.56232,0.73923
6235.63358,0.74108
6233.70483,0.74069
6231.77609,0.73968
6229.84734,0.74032
6227.91860,0.74181
6225.98985,0.74334
6224.06111,0.74485
6222.13236,0.74549
6220.20362,0.74524
6218.27487,0.74654
6216.34613,0.74918
6214.41738,0.75002
6212.48863,0.74900
6210.55989,0.74839
6208.63114,0.74870
6206.70240,0.74955
6204.77365,0.75073
6202.84491,0.75079
6200.91616,0.74857
6198.98742,0.74576
6197.05867,0.74489
6195.12993,0.74648
6193.20118,0.74919
6191.27244,0.75177
6189.34369,0.75352
6187.41495,0.75506
6185.48620,0.75674
6183.55746,0.75744
6181.62871,0.75780
6179.69996,0.75889
6177.77122,0.75942
6175.84247,0.75834
6173.91373,0.75648
6171.98498,0.75522
6170.05624,0.75521
6168.12749,0.75615
6166.19875,0.75674
6164.27000,0.75703
6162.34126,0.75785
6160.41251,0.75835
6158.48377,0.75863
6156.55502,0.75897
6154.62628,0.75903
6152.69753,0.75969
6150.76878,0.76025
6148.84004,0.75897
6146.91129,0.75678
6144.98255,0.75567
6143.05380,0.75683
6141.12506,0.76012
6139.19631,0.76277
6137.26757,0.76320
6135.33882,0.76353
6133.41008,0.76387
6131.48133,0.76250
6129.55259,0.76072
6127.62384,0.75966
6125.69510,0.75875
6123.76635,0.75869
6121.83761,0.75925
6119.90886,0.76000
6117.98011,0.76189
6116.05137,0.76341
6114.12262,0.76312
6112.19388,0.76285
6110.26513,0.76352
6108.33639,0.76432
6106.40764,0.76458
6104.47890,0.76437
6102.55015,0.76396
6100.62141,0.76367
6098.69266,0.76396
6096.76392,0.76440
6094.83517,0.76462
6092.90643,0.76531
6090.97768,0.76610
6089.04893,0.76649
6087.12019,0.76696
6085.19144,0.76721
6083.26270,0.76653
6081.33395,0.76503
6079.40521,0.76400
6077.47646,0.76411
6075.54772,0.76397
6073.61897,0.76384
6071.69023,0.76459
6069.76148,0.76457
6067.83274,0.76355
6065.90399,0.76286
6063.97525,0.76277
6062.04650,0.76267
6060.11776,0.76164
6058.18901,0.76066
6056.26026,0.76193
6054.33152,0.76418
6052.40277,0.76460
6050.47403,0.76407
6048.54528,0.76386
6046.61654,0.76335
6044.68779,0.76273
6042.75905,0.76224
6040.83030,0.76183
6038.90156,0.76130
6036.97281,0.76010
6035.04407,0.75953
6033.11532,0.76153
6031.18658,0.76461
6029.25783,0.76553
6027.32909,0.76361
6025.40034,0.76105
6023.47159,0.76020
6021.54285,0.76070
6019.61410,0.76052
6017.68536,0.75946
6015.75661,0.75895
6013.82787,0.75903
6011.89912,0.75867
6009.97038,0.75829
6008.04163,0.75826
6006.11289,0.75781
6004.18414,0.75671
6002.25540,0.75622
6000.32665,0.75677
5998.39791,0.75668
5996.46916,0.75575
5994.54041,0.75480
5992.61167,0.75422
5990.68292,0.75512
5988.75418,0.75622
5986.82543,0.75539
5984.89669,0.75407
5982.96794,0.75359
5981.03920,0.75310
5979.11045,0.75302
5977.18171,0.75435
5975.25296,0.75626
5973.32422,0.75692
5971.39547,0.75529
5969.46673,0.75233
5967.53798,0.75071
5965.60924,0.75173
5963.68049,0.75333
5961.75174,0.75301
5959.82300,0.75198
5957.89425,0.75214
5955.96551,0.75264
5954.03676,0.75297
5952.10802,0.75321
5950.17927,0.75261
5948.25053,0.75151
5946.32178,0.75121
5944.39304,0.75103
5942.46429,0.74995
5940.53555,0.74912
5938.60680,0.74926
5936.67806,0.74955
5934.74931,0.74896
5932.82057,0.74792
5930.89182,0.74855
5928.96307,0.75115
5927.03433,0.75286
5925.10558,0.75150
5923.17684,0.74859
5921.24809,0.74759
5919.31935,0.74889
5917.39060,0.74979
5915.46186,0.74934
5913.53311,0.74808
5911.60437,0.74646
5909.67562,0.74603
5907.74688,0.74692
5905.81813,0.74721
5903.88939,0.74639
5901.96064,0.74605
5900.03189,0.74736
5898.10315,0.74853
5896.17440,0.74760
5894.24566,0.74607
5892.31691,0.74541
5890.38817,0.74513
5888.45942,0.74521
5886.53068,0.74543
5884.60193,0.74464
5882.67319,0.74339
5880.74444,0.74332
5878.81570,0.74407
5876.88695,0.74414
5874.95821,0.74330
5873.02946,0.74226
5871.10072,0.74173
5869.17197,0.74220
5867.24322,0.74304
5865.31448,0.74318
5863.38573,0.74265
5861.45699,0.74229
5859.52824,0.74292
5857.59950,0.74364
5855.67075,0.74316
5853.74201,0.74274
5851.81326,0.74327
5849.88452,0.74362
5847.95577,0.74335
5846.02703,0.74291
5844.09828,0.74220
5842.16954,0.74073
5840.24079,0.73976
5838.31205,0.74050
5836.38330,0.74129
5834.45455,0.74150
5832.52581,0.74220
5830.59706,0.74235
5828.66832,0.74143
5826.73957,0.74077
5824.81083,0.74030
5822.88208,0.73897
5820.95334,0.73690
5819.02459,0.73523
5817.09585,0.73460
5815.16710,0.73444
5813.23836,0.73417
5811.30961,0.73360
5809.38087,0.73315
5807.45212,0.73294
5805.52337,0.73244
5803.59463,0.73237
5801.66588,0.73325
5799.73714,0.73377
5797.80839,0.73373
5795.87965,0.73411
5793.95090,0.73435
5792.02216,0.73398
5790.09341,0.73388
5788.16467,0.73390
5786.23592,0.73374
5784.30718,0.73379
5782.37843,0.73407
5780.44969,0.73497
5778.52094,0.73636
5776.59220,0.73765
5774.66345,0.73871
5772.73470,0.73862
5770.80596,0.73743
5768.87721,0.73715
5766.94847,0.73790
5765.01972,0.73838
5763.09098,0.73878
5761.16223,0.73917
5759.23349,0.73914
5757.30474,0.73947
5755.37600,0.74093
5753.44725,0.74274
5751.51851,0.74391
5749.58976,0.74425
5747.66102,0.74385
5745.73227,0.74339
5743.80352,0.74367
5741.87478,0.74433
5739.94603,0.74467
5738.01729,0.74461
5736.08854,0.74475
5734.15980,0.74537
5732.23105,0.74575
5730.30231,0.74517
5728.37356,0.74393
5726.44482,0.74343
5724.51607,0.74407
5722.58733,0.74441
5720.65858,0.74409
5718.72984,0.74389
5716.80109,0.74349
5714.87235,0.74280
5712.94360,0.74263
5711.01485,0.74256
5709.08611,0.74200
5707.15736,0.74203
5705.22862,0.74300
5703.29987,0.74353
5701.37113,0.74334
5699.44238,0.74327
5697.51364,0.74310
5695.58489,0.74195
5693.65615,0.74017
5691.72740,0.73884
5689.79866,0.73843
5687.86991,0.73874
5685.94117,0.73927
5684.01242,0.73989
5682.08368,0.74058
5680.15493,0.74083
5678.22618,0.74069
5676.29744,0.74078
5674.36869,0.74120
5672.43995,0.74169
5670.51120,0.74194
5668.58246,0.74147
5666.65371,0.73984
5664.72497,0.73812
5662.79622,0.73815
5660.86748,0.73914
5658.93873,0.73926
5657.00999,0.73918
5655.08124,0.73952
5653.15250,0.73975
5651.22375,0.74005
5649.29500,0.74045
5647.36626,0.74060
5645.43751,0.74059
5643.50877,0.74072
5641.58002,0.74086
5639.65128,0.74077
5637.72253,0.74092
5635.79379,0.74141
5633.86504,0.74143
5631.93630,0.74075
5630.00755,0.74011
5628.07881,0.74021
5626.15006,0.74073
5624.22132,0.74115
5622.29257,0.74135
5620.36383,0.74131
5618.43508,0.74099
5616.50633,0.74026
5614.57759,0.73972
5612.64884,0.74001
5610.72010,0.74050
5608.79135,0.74110
5606.86261,0.74167
5604.93386,0.74093
5603.00512,0.73945
5601.07637,0.73927
5599.14763,0.74029
5597.21888,0.74084
5595.29014,0.74059
5593.36139,0.74021
5591.43265,0.73961
5589.50390,0.73909
5587.57516,0.73965
5585.64641,0.74092
5583.71766,0.74174
5581.78892,0.74197
5579.86017,0.74179
5577.93143,0.74120
5576.00268,0.74095
5574.07394,0.74144
5572.14519,0.74234
5570.21645,0.74319
5568.28770,0.74314
5566.35896,0.74249
5564.43021,0.74251
5562.50147,0.74330
5560.57272,0.74410
5558.64398,0.74440
5556.71523,0.74448
5554.78648,0.74468
5552.85774,0.74485
5550.92899,0.74481
5549.00025,0.74497
5547.07150,0.74543
5545.14276,0.74582
5543.21401,0.74638
5541.28527,0.74715
5539.35652,0.74794
5537.42778,0.74811
5535.49903,0.74646
5533.57029,0.74443
5531.64154,0.74433
5529.71280,0.74532
5527.78405,0.74571
5525.85531,0.74551
5523.92656,0.74560
5521.99781,0.74647
5520.06907,0.74726
5518.14032,0.74714
5516.21158,0.74669
5514.28283,0.74653
5512.35409,0.74659
5510.42534,0.74687
5508.49660,0.74714
5506.56785,0.74687
5504.63911,0.74594
5502.71036,0.74506
5500.78162,0.74481
5498.85287,0.74483
5496.92413,0.74488
5494.99538,0.74516
5493.06664,0.74555
5491.13789,0.74577
5489.20914,0.74598
5487.28040,0.74664
5485.35165,0.74767
5483.42291,0.74841
5481.49416,0.74823
5479.56542,0.74713
5477.63667,0.74623
5475.70793,0.74634
5473.77918,0.74647
5471.85044,0.74652
5469.92169,0.74757
5467.99295,0.74941
5466.06420,0.75071
5464.13546,0.75101
5462.20671,0.75107
5460.27796,0.75093
5458.34922,0.75019
5456.42047,0.74955
5454.49173,0.74958
5452.56298,0.75015
5450.63424,0.75097
5448.70549,0.75177
5446.77675,0.75224
5444.84800,0.75252
5442.91926,0.75330
5440.99051,0.75435
5439.06177,0.75471
5437.13302,0.75429
5435.20428,0.75375
5433.27553,0.75381
5431.34679,0.75439
5429.41804,0.75500
5427.48929,0.75578
5425.56055,0.75669
5423.63180,0.75667
5421.70306,0.75542
5419.77431,0.75496
5417.84557,0.75649
5415.91682,0.75812
5413.98808,0.75834
5412.05933,0.75817
5410.13059,0.75875
5408.20184,0.75940
5406.27310,0.75910
5404.34435,0.75867
5402.41561,0.75927
5400.48686,0.75997
5398.55811,0.75992
5396.62937,0.76007
5394.70062,0.76009
5392.77188,0.75888
5390.84313,0.75764
5388.91439,0.75764
5386.98564,0.75847
5385.05690,0.75974
5383.12815,0.76081
5381.19941,0.76064
5379.27066,0.75984
5377.34192,0.76012
5375.41317,0.76133
5373.48443,0.76204
5371.55568,0.76198
5369.62694,0.76173
5367.69819,0.76196
5365.76944,0.76240
5363.84070,0.76217
5361.91195,0.76147
5359.98321,0.76089
5358.05446,0.76028
5356.12572,0.75979
5354.19697,0.75995
5352.26823,0.76025
5350.33948,0.75981
5348.41074,0.75843
5346.48199,0.75730
5344.55325,0.75782
5342.62450,0.75866
5340.69576,0.75814
5338.76701,0.75739
5336.83827,0.75761
5334.90952,0.75804
5332.98077,0.75747
5331.05203,0.75644
5329.12328,0.75592
5327.19454,0.75561
5325.26579,0.75516
5323.33705,0.75425
5321.40830,0.75261
5319.47956,0.75101
5317.55081,0.74987
5315.62207,0.74888
5313.69332,0.74801
5311.76458,0.74717
5309.83583,0.74638
5307.90709,0.74542
5305.97834,0.74385
5304.04959,0.74181
5302.12085,0.73955
5300.19210,0.73745
5298.26336,0.73547
5296.33461,0.73301
5294.40587,0.73039
5292.47712,0.72776
5290.54838,0.72499
5288.61963,0.72272
5286.69089,0.72079
5284.76214,0.71872
5282.83340,0.71683
5280.90465,0.71422
5278.97591,0.70969
5277.04716,0.70441
5275.11842,0.70028
5273.18967,0.69780
5271.26092,0.69593
5269.33218,0.69314
5267.40343,0.68958
5265.47469,0.68652
5263.54594,0.68397
5261.61720,0.68078
5259.68845,0.67643
5257.75971,0.67190
5255.83096,0.66793
5253.90222,0.66396
5251.97347,0.65995
5250.04473,0.65661
5248.11598,0.65392
5246.18724,0.65170
5244.25849,0.64993
5242.32975,0.64812
5240.40100,0.64577
5238.47225,0.64290
5236.54351,0.63977
5234.61476,0.63712
5232.68602,0.63536
5230.75727,0.63371
5228.82853,0.63183
5226.89978,0.63050
5224.97104,0.62973
5223.04229,0.62836
5221.11355,0.62652
5219.18480,0.62499
5217.25606,0.62345
5215.32731,0.62191
5213.39857,0.62078
5211.46982,0.61993
5209.54107,0.61927
5207.61233,0.61883
5205.68358,0.61840
5203.75484,0.61779
5201.82609,0.61723
5199.89735,0.61726
5197.96860,0.61769
5196.03986,0.61765
5194.11111,0.61762
5192.18237,0.61833
5190.25362,0.61889
5188.32488,0.61865
5186.39613,0.61820
5184.46739,0.61805
5182.53864,0.61856
5180.60990,0.62011
5178.68115,0.62212
5176.75240,0.62348
5174.82366,0.62389
5172.89491,0.62394
5170.96617,0.62412
5169.03742,0.62447
5167.10868,0.62538
5165.17993,0.62691
5163.25119,0.62788
5161.32244,0.62817
5159.39370,0.62896
5157.46495,0.63016
5155.53621,0.63099
5153.60746,0.63201
5151.67872,0.63384
5149.74997,0.63558
5147.82123,0.63660
5145.89248,0.63744
5143.96373,0.63833
5142.03499,0.63943
5140.10624,0.64062
5138.17750,0.64157
5136.24875,0.64284
5134.32001,0.64460
5132.39126,0.64585
5130.46252,0.64626
5128.53377,0.64677
5126.60503,0.64804
5124.67628,0.64954
5122.74754,0.65085
5120.81879,0.65215
5118.89005,0.65336
5116.96130,0.65441
5115.03255,0.65515
5113.10381,0.65555
5111.17506,0.65635
5109.24632,0.65793
5107.31757,0.65933
5105.38883,0.65997
5103.46008,0.66080
5101.53134,0.66216
5099.60259,0.66324
5097.67385,0.66404
5095.74510,0.66485
5093.81636,0.66515
5091.88761,0.66509
5089.95887,0.66587
5088.03012,0.66764
5086.10138,0.66908
5084.17263,0.66983
5082.24388,0.67083
5080.31514,0.67227
5078.38639,0.67341
5076.45765,0.67398
5074.52890,0.67422
5072.60016,0.67454
5070.67141,0.67533
5068.74267,0.67651
5066.81392,0.67774
5064.88518,0.67904
5062.95643,0.68023
5061.02769,0.68078
5059.09894,0.68122
5057.17020,0.68215
5055.24145,0.68280
5053.31270,0.68274
5051.38396,0.68272
5049.45521,0.68270
5047.52647,0.68265
5045.59772,0.68355
5043.66898,0.68520
5041.74023,0.68624
5039.81149,0.68645
5037.88274,0.68670
5035.95400,0.68770
5034.02525,0.68887
5032.09651,0.68944
5030.16776,0.68990
5028.23902,0.69052
5026.31027,0.69078
5024.38153,0.69061
5022.45278,0.69079
5020.52403,0.69148
5018.59529,0.69174
5016.66654,0.69148
5014.73780,0.69164
5012.80905,0.69230
5010.88031,0.69265
5008.95156,0.69248
5007.02282,0.69214
5005.09407,0.69154
5003.16533,0.69093
5001.23658,0.69078
4999.30784,0.69097
4997.37909,0.69123
4995.45035,0.69148
4993.52160,0.69166
4991.59286,0.69162
4989.66411,0.69119
4987.73536,0.69033
4985.80662,0.68930
4983.87787,0.68831
4981.94913,0.68738
4980.02038,0.68663
4978.09164,0.68627
4976.16289,0.68571
4974.23415,0.68460
4972.30540,0.68408
4970.37666,0.68439
4968.44791,0.68397
4966.51917,0.68258
4964.59042,0.68151
4962.66168,0.68073
4960.73293,0.67908
4958.80418,0.67676
4956.87544,0.67495
4954.94669,0.67369
4953.01795,0.67245
4951.08920,0.67124
4949.16046,0.67041
4947.23171,0.66972
4945.30297,0.66808
4943.37422,0.66520
4941.44548,0.66244
4939.51673,0.66061
4937.58799,0.65891
4935.65924,0.65668
4933.73050,0.65460
4931.80175,0.65321
4929.87301,0.65179
4927.94426,0.64972
4926.01551,0.64742
4924.08677,0.64548
4922.15802,0.64371
4920.22928,0.64154
4918.30053,0.63882
4916.37179,0.63582
4914.44304,0.63276
4912.51430,0.63011
4910.58555,0.62822
4908.65681,0.62698
4906.72806,0.62603
4904.79932,0.62479
4902.87057,0.62289
4900.94183,0.62062
4899.01308,0.61840
4897.08434,0.61629
4895.15559,0.61419
4893.22684,0.61233
4891.29810,0.61081
4889.36935,0.60895
4887.44061,0.60623
4885.51186,0.60351
4883.58312,0.60174
4881.65437,0.60011
4879.72563,0.59787
4877.79688,0.59584
4875.86814,0.59436
4873.93939,0.59275
4872.01065,0.59079
4870.08190,0.58905
4868.15316,0.58760
4866.22441,0.58585
4864.29566,0.58384
4862.36692,0.58204
4860.43817,0.58020
4858.50943,0.57832
4856.58068,0.57712
4854.65194,0.57659
4852.72319,0.57575
4850.79445,0.57422
4848.86570,0.57237
4846.93696,0.57026
4845.00821,0.56798
4843.07947,0.56606
4841.15072,0.56482
4839.22198,0.56384
4837.29323,0.56257
4835.36449,0.56103
4833.43574,0.55988
4831.50699,0.55936
4829.57825,0.55872
4827.64950,0.55739
4825.72076,0.55586
4823.79201,0.55473
4821.86327,0.55371
4819.93452,0.55276
4818.00578,0.55223
4816.07703,0.55185
4814.14829,0.55111
4812.21954,0.54983
4810.29080,0.54864
4808.36205,0.54838
4806.43331,0.54835
4804.50456,0.54758
4802.57582,0.54668
4800.64707,0.54637
4798.71832,0.54597
4796.78958,0.54514
4794.86083,0.54456
4792.93209,0.54448
4791.00334,0.54460
4789.07460,0.54459
4787.14585,0.54439
4785.21711,0.54415
4783.28836,0.54377
4781.35962,0.54317
4779.43087,0.54281
4777.50213,0.54279
4775.57338,0.54270
4773.64464,0.54236
4771.71589,0.54200
4769.78714,0.54209
4767.85840,0.54251
4765.92965,0.54246
4764.00091,0.54204
4762.07216,0.54179
4760.14342,0.54135
4758.21467,0.54068
4756.28593,0.54054
4754.35718,0.54090
4752.42844,0.54105
4750.49969,0.54109
4748.57095,0.54125
4746.64220,0.54125
4744.71346,0.54120
4742.78471,0.54152
4740.85597,0.54176
4738.92722,0.54120
4736.99847,0.54046
4735.06973,0.54057
4733.14098,0.54109
4731.21224,0.54143
4729.28349,0.54194
4727.35475,0.54281
4725.42600,0.54378
4723.49726,0.54445
4721.56851,0.54473
4719.63977,0.54478
4717.71102,0.54473
4715.78228,0.54501
4713.85353,0.54571
4711.92479,0.54595
4709.99604,0.54556
4708.06729,0.54557
4706.13855,0.54628
4704.20980,0.54702
4702.28106,0.54752
4700.35231,0.54797
4698.42357,0.54834
4696.49482,0.54866
4694.56608,0.54925
4692.63733,0.54985
4690.70859,0.55014
4688.77984,0.55057
4686.85110,0.55145
4684.92235,0.55249
4682.99361,0.55343
4681.06486,0.55410
4679.13612,0.55432
4677.20737,0.55458
4675.27862,0.55533
4673.34988,0.55621
4671.42113,0.55697
4669.49239,0.55781
4667.56364,0.55875
4665.63490,0.55970
4663.70615,0.56090
4661.77741,0.56229
4659.84866,0.56310
4657.91992,0.56331
4655.99117,0.56369
4654.06243,0.56451
4652.13368,0.56525
4650.20494,0.56585
4648.27619,0.56703
4646.34745,0.56870
4644.41870,0.56979
4642.48995,0.57000
4640.56121,0.56997
4638.63246,0.57030
4636.70372,0.57105
4634.77497,0.57198
4632.84623,0.57304
4630.91748,0.57406
4628.98874,0.57479
4627.05999,0.57552
4625.13125,0.57655
4623.20250,0.57748
4621.27376,0.57807
4619.34501,0.57857
4617.41627,0.57917
4615.48752,0.57987
4613.55877,0.58062
4611.63003,0.58139
4609.70128,0.58240
4607.77254,0.58349
4605.84379,0.58418
4603.91505,0.58472
4601.98630,0.58535
4600.05756,0.58571
4598.12881,0.58621
4596.20007,0.58753
4594.27132,0.58897
4592.34258,0.58963
4590.41383,0.58993
4588.48509,0.59049
4586.55634,0.59099
4584.62760,0.59101
4582.69885,0.59116
4580.77010,0.59209
4578.84136,0.59314
4576.91261,0.59357
4574.98387,0.59401
4573.05512,0.59478
4571.12638,0.59530
4569.19763,0.59548
4567.26889,0.59578
4565.34014,0.59633
4563.41140,0.59693
4561.48265,0.59756
4559.55391,0.59832
4557.62516,0.59906
4555.69642,0.59959
4553.76767,0.59995
4551.83893,0.60031
4549.91018,0.60096
4547.98143,0.60179
4546.05269,0.60236
4544.12394,0.60263
4542.19520,0.60275
4540.26645,0.60295
4538.33771,0.60347
4536.40896,0.60408
4534.48022,0.60459
4532.55147,0.60505
4530.62273,0.60549
4528.69398,0.60599
4526.76524,0.60640
4524.83649,0.60652
4522.90775,0.60665
4520.97900,0.60697
4519.05025,0.60688
4517.12151,0.60621
4515.19276,0.60566
4513.26402,0.60555
4511.33527,0.60556
4509.40653,0.60543
4507.47778,0.60513
4505.54904,0.60464
4503.62029,0.60406
4501.69155,0.60369
4499.76280,0.60358
4497.83406,0.60323
4495.90531,0.60235
4493.97657,0.60128
4492.04782,0.60016
4490.11908,0.59885
4488.19033,0.59718
4486.26158,0.59501
4484.33284,0.59280
4482.40409,0.59125
4480.47535,0.59010
4478.54660,0.58852
4476.61786,0.58655
4474.68911,0.58448
4472.76037,0.58238
4470.83162,0.58022
4468.90288,0.57771
4466.97413,0.57506
4465.04539,0.57256
4463.11664,0.56975
4461.18790,0.56691
4459.25915,0.56462
4457.33041,0.56232
4455.40166,0.55932
4453.47291,0.55599
4451.54417,0.55314
4449.61542,0.55069
4447.68668,0.54801
4445.75793,0.54522
4443.82919,0.54271
4441.90044,0.54049
4439.97170,0.53825
4438.04295,0.53574
4436.11421,0.53313
4434.18546,0.53067
4432.25672,0.52838
4430.32797,0.52593
4428.39923,0.52355
4426.47048,0.52202
4424.54173,0.52083
4422.61299,0.51881
4420.68424,0.51660
4418.75550,0.51528
4416.82675,0.51436
4414.89801,0.51304
4412.96926,0.51158
4411.04052,0.51038
4409.11177,0.50926
4407.18303,0.50811
4405.25428,0.50736
4403.32554,0.50692
4401.39679,0.50622
4399.46805,0.50532
4397.53930,0.50474
4395.61056,0.50450
4393.68181,0.50450
4391.75306,0.50477
4389.82432,0.50531
4387.89557,0.50612
4385.96683,0.50683
4384.03808,0.50712
4382.10934,0.50756
4380.18059,0.50855
4378.25185,0.50976
4376.32310,0.51089
4374.39436,0.51178
4372.46561,0.51244
4370.53687,0.51303
4368.60812,0.51367
4366.67938,0.51444
4364.75063,0.51517
4362.82189,0.51548
4360.89314,0.51565
4358.96439,0.51607
4357.03565,0.51619
4355.10690,0.51569
4353.17816,0.51496
4351.24941,0.51417
4349.32067,0.51334
4347.39192,0.51255
4345.46318,0.51183
4343.53443,0.51112
4341.60569,0.51013
4339.67694,0.50891
4337.74820,0.50797
4335.81945,0.50730
4333.89071,0.50659
4331.96196,0.50561
4330.03321,0.50430
4328.10447,0.50299
4326.17572,0.50184
4324.24698,0.50080
4322.31823,0.49980
4320.38949,0.49883
4318.46074,0.49816
4316.53200,0.49767
4314.60325,0.49715
4312.67451,0.49682
4310.74576,0.49647
4308.81702,0.49576
4306.88827,0.49472
4304.95953,0.49354
4303.03078,0.49252
4301.10204,0.49172
4299.17329,0.49099
4297.24454,0.49036
4295.31580,0.48997
4293.38705,0.48960
4291.45831,0.48914
4289.52956,0.48884
4287.60082,0.48864
4285.67207,0.48831
4283.74333,0.48800
4281.81458,0.48780
4279.88584,0.48774
4277.95709,0.48786
4276.02835,0.48811
4274.09960,0.48844
4272.17086,0.48884
4270.24211,0.48922
4268.31336,0.48950
4266.38462,0.48976
4264.45587,0.49013
4262.52713,0.49048
4260.59838,0.49069
4258.66964,0.49114
4256.74089,0.49175
4254.81215,0.49199
4252.88340,0.49217
4250.95466,0.49279
4249.02591,0.49334
4247.09717,0.49348
4245.16842,0.49385
4243.23968,0.49449
4241.31093,0.49473
4239.38219,0.49461
4237.45344,0.49471
4235.52469,0.49519
4233.59595,0.49578
4231.66720,0.49625
4229.73846,0.49654
4227.80971,0.49673
4225.88097,0.49693
4223.95222,0.49710
4222.02348,0.49706
4220.09473,0.49701
4218.16599,0.49723
4216.23724,0.49746
4214.30850,0.49765
4212.37975,0.49806
4210.45101,0.49852
4208.52226,0.49863
4206.59352,0.49849
4204.66477,0.49846
4202.73602,0.49878
4200.80728,0.49919
4198.87853,0.49932
4196.94979,0.49920
4195.02104,0.49890
4193.09230,0.49868
4191.16355,0.49886
4189.23481,0.49929
4187.30606,0.49974
4185.37732,0.50025
4183.44857,0.50088
4181.51983,0.50150
4179.59108,0.50183
4177.66234,0.50182
4175.73359,0.50201
4173.80484,0.50265
4171.87610,0.50331
4169.94735,0.50387
4168.01861,0.50440
4166.08986,0.50468
4164.16112,0.50465
4162.23237,0.50456
4160.30363,0.50439
4158.37488,0.50401
4156.44614,0.50371
4154.51739,0.50344
4152.58865,0.50289
4150.65990,0.50208
4148.73116,0.50101
4146.80241,0.49995
4144.87367,0.49923
4142.94492,0.49856
4141.01617,0.49769
4139.08743,0.49664
4137.15868,0.49544
4135.22994,0.49436
4133.30119,0.49351
4131.37245,0.49240
4129.44370,0.49056
4127.51496,0.48839
4125.58621,0.48674
4123.65747,0.48566
4121.72872,0.48460
4119.79998,0.48325
4117.87123,0.48161
4115.94249,0.47988
4114.01374,0.47816
4112.08500,0.47658
4110.15625,0.47512
4108.22750,0.47356
4106.29876,0.47177
4104.37001,0.46957
4102.44127,0.46728
4100.51252,0.46529
4098.58378,0.46301
4096.65503,0.46038
4094.72629,0.45825
4092.79754,0.45681
4090.86880,0.45531
4088.94005,0.45324
4087.01131,0.45089
4085.08256,0.44879
4083.15382,0.44686
4081.22507,0.44456
4079.29632,0.44198
4077.36758,0.43971
4075.43883,0.43765
4073.51009,0.43537
4071.58134,0.43295
4069.65260,0.43070
4067.72385,0.42875
4065.79511,0.42678
4063.86636,0.42444
4061.93762,0.42199
4060.00887,0.41966
4058.08013,0.41726
4056.15138,0.41494
4054.22264,0.41295
4052.29389,0.41120
4050.36515,0.40958
4048.43640,0.40784
4046.50765,0.40592
4044.57891,0.40411
4042.65016,0.40249
4040.72142,0.40089
4038.79267,0.39924
4036.86393,0.39764
4034.93518,0.39628
4033.00644,0.39509
4031.07769,0.39370
4029.14895,0.39226
4027.22020,0.39107
4025.29146,0.38999
4023.36271,0.38903
4021.43397,0.38842
4019.50522,0.38789
4017.57648,0.38733
4015.64773,0.38717
4013.71898,0.38743
4011.79024,0.38776
4009.86149,0.38803
4007.93275,0.38817
4006.00400,0.38830
4004.07526,0.38874
4002.14651,0.38943
4000.21777,0.39011
3998.28902,0.39069
3996.36028,0.39109
3994.43153,0.39151
3992.50279,0.39214
3990.57404,0.39293
3988.64530,0.39382
3986.71655,0.39478
3984.78780,0.39576
3982.85906,0.39661
3980.93031,0.39711
3979.00157,0.39754
3977.07282,0.39845
3975.14408,0.39962
3973.21533,0.40051
3971.28659,0.40139
3969.35784,0.40251
3967.42910,0.40345
3965.50035,0.40403
3963.57161,0.40482
3961.64286,0.40612
3959.71412,0.40749
3957.78537,0.40862
3955.85663,0.40971
3953.92788,0.41079
3951.99913,0.41177
3950.07039,0.41296
3948.14164,0.41438
3946.21290,0.41556
3944.28415,0.41660
3942.35541,0.41780
3940.42666,0.41885
3938.49792,0.41973
3936.56917,0.42059
3934.64043,0.42138
3932.71168,0.42221
3930.78294,0.42315
3928.85419,0.42416
3926.92545,0.42531
3924.99670,0.42649
3923.06795,0.42775
3921.13921,0.42933
3919.21046,0.43097
3917.28172,0.43215
3915.35297,0.43290
3913.42423,0.43362
3911.49548,0.43445
3909.56674,0.43529
3907.63799,0.43642
3905.70925,0.43823
3903.78050,0.44016
3901.85176,0.44119
3899.92301,0.44165
3897.99427,0.44243
3896.06552,0.44341
3894.13678,0.44430
3892.20803,0.44546
3890.27928,0.44696
3888.35054,0.44837
3886.42179,0.44964
3884.49305,0.45058
3882.56430,0.45116
3880.63556,0.45185
3878.70681,0.45274
3876.77807,0.45368
3874.84932,0.45475
3872.92058,0.45588
3870.99183,0.45719
3869.06309,0.45876
3867.13434,0.46019
3865.20560,0.46155
3863.27685,0.46292
3861.34811,0.46410
3859.41936,0.46524
3857.49061,0.46649
3855.56187,0.46808
3853.63312,0.46986
3851.70438,0.47090
3849.77563,0.47142
3847.84689,0.47221
3845.91814,0.47340
3843.98940,0.47469
3842.06065,0.47569
3840.13191,0.47657
3838.20316,0.47764
3836.27442,0.47840
3834.34567,0.47875
3832.41693,0.47938
3830.48818,0.48018
3828.55943,0.48065
3826.63069,0.48099
3824.70194,0.48133
3822.77320,0.48175
3820.84445,0.48216
3818.91571,0.48214
3816.98696,0.48215
3815.05822,0.48243
3813.12947,0.48245
3811.20073,0.48223
3809.27198,0.48212
3807.34324,0.48251
3805.41449,0.48316
3803.48575,0.48341
3801.55700,0.48323
3799.62826,0.48268
3797.69951,0.48232
3795.77076,0.48237
3793.84202,0.48224
3791.91327,0.48196
3789.98453,0.48180
3788.05578,0.48156
3786.12704,0.48118
3784.19829,0.48089
3782.26955,0.48070
3780.34080,0.48043
3778.41206,0.47992
3776.48331,0.47936
3774.55457,0.47889
3772.62582,0.47850
3770.69708,0.47831
3768.76833,0.47811
3766.83959,0.47774
3764.91084,0.47731
3762.98209,0.47678
3761.05335,0.47631
3759.12460,0.47574
3757.19586,0.47481
3755.26711,0.47384
3753.33837,0.47330
3751.40962,0.47310
3749.48088,0.47234
3747.55213,0.47087
3745.62339,0.46966
3743.69464,0.46894
3741.76590,0.46788
3739.83715,0.46645
3737.90841,0.46521
3735.97966,0.46422
3734.05091,0.46295
3732.12217,0.46090
3730.19342,0.45839
3728.26468,0.45613
3726.33593,0.45430
3724.40719,0.45253
3722.47844,0.45061
3720.54970,0.44857
3718.62095,0.44613
3716.69221,0.44335
3714.76346,0.44065
3712.83472,0.43788
3710.90597,0.43471
3708.97723,0.43120
3707.04848,0.42743
3705.11974,0.42365
3703.19099,0.42005
3701.26224,0.41606
3699.33350,0.41121
3697.40475,0.40590
3695.47601,0.40056
3693.54726,0.39525
3691.61852,0.38971
3689.68977,0.38332
3687.76103,0.37594
3685.83228,0.36858
3683.90354,0.36125
3681.97479,0.35317
3680.04605,0.34458
3678.11730,0.33618
3676.18856,0.32746
3674.25981,0.31828
3672.33107,0.30961
3670.40232,0.30051
3668.47357,0.29058
3666.54483,0.28126
3664.61608,0.27270
3662.68734,0.26444
3660.75859,0.25651
3658.82985,0.24912
3656.90110,0.24154
3654.97236,0.23359
3653.04361,0.22656
3651.11487,0.22024
3649.18612,0.21347
3647.25738,0.20661
3645.32863,0.20055
3643.39989,0.19509
3641.47114,0.18982
3639.54239,0.18478
3637.61365,0.18002
3635.68490,0.17535
3633.75616,0.17073
3631.82741,0.16647
3629.89867,0.16214
3627.96992,0.15729
3626.04118,0.15311
3624.11243,0.14981
3622.18369,0.14654
3620.25494,0.14288
3618.32620,0.13901
3616.39745,0.13554
3614.46871,0.13260
3612.53996,0.12981
3610.61122,0.12681
3608.68247,0.12357
3606.75372,0.12028
3604.82498,0.11721
3602.89623,0.11444
3600.96749,0.11195
3599.03874,0.10974
3597.11000,0.10754
3595.18125,0.10527
3593.25251,0.10307
3591.32376,0.10095
3589.39502,0.09876
3587.46627,0.09642
3585.53753,0.09433
3583.60878,0.09274
3581.68004,0.09131
3579.75129,0.08974
3577.82254,0.08809
3575.89380,0.08657
3573.96505,0.08521
3572.03631,0.08392
3570.10756,0.08265
3568.17882,0.08116
3566.25007,0.07940
3564.32133,0.07792
3562.39258,0.07703
3560.46384,0.07634
3558.53509,0.07559
3556.60635,0.07480
3554.67760,0.07387
3552.74886,0.07267
3550.82011,0.07145
3548.89137,0.07048
3546.96262,0.06965
3545.03387,0.06881
3543.10513,0.06801
3541.17638,0.06719
3539.24764,0.06627
3537.31889,0.06546
3535.39015,0.06476
3533.46140,0.06387
3531.53266,0.06299
3529.60391,0.06254
3527.67517,0.06231
3525.74642,0.06176
3523.81768,0.06086
3521.88893,0.05996
3519.96019,0.05918
3518.03144,0.05842
3516.10270,0.05777
3514.17395,0.05734
3512.24520,0.05710
3510.31646,0.05686
3508.38771,0.05629
3506.45897,0.05557
3504.53022,0.05522
3502.60148,0.05517
3500.67273,0.05493
3498.74399,0.05425
3496.81524,0.05337
3494.88650,0.05267
3492.95775,0.05213
3491.02901,0.05163
3489.10026,0.05130
3487.17152,0.05119
3485.24277,0.05100
3483.31402,0.05070
3481.38528,0.05066
3479.45653,0.05083
3477.52779,0.05086
3475.59904,0.05075
3473.67030,0.05045
3471.74155,0.04976
3469.81281,0.04880
3467.88406,0.04795
3465.95532,0.04752
3464.02657,0.04743
3462.09783,0.04742
3460.16908,0.04734
3458.24034,0.04698
3456.31159,0.04647
3454.38285,0.04635
3452.45410,0.04656
3450.52535,0.04650
3448.59661,0.04614
3446.66786,0.04583
3444.73912,0.04569
3442.81037,0.04551
3440.88163,0.04528
3438.95288,0.04515
3437.02414,0.04516
3435.09539,0.04514
3433.16665,0.04498
3431.23790,0.04495
3429.30916,0.04521
3427.38041,0.04541
3425.45167,0.04519
3423.52292,0.04470
3421.59418,0.04441
3419.66543,0.04447
3417.73668,0.04470
3415.80794,0.04496
3413.87919,0.04503
3411.95045,0.04491
3410.02170,0.04504
3408.09296,0.04536
3406.16421,0.04535
3404.23547,0.04520
3402.30672,0.04525
3400.37798,0.04547
3398.44923,0.04584
3396.52049,0.04606
3394.59174,0.04607
3392.66300,0.04617
3390.73425,0.04619
3388.80550,0.04599
3386.87676,0.04585
3384.94801,0.04596
3383.01927,0.04614
3381.09052,0.04622
3379.16178,0.04624
3377.23303,0.04635
3375.30429,0.04661
3373.37554,0.04668
3371.44680,0.04638
3369.51805,0.04623
3367.58931,0.04639
3365.66056,0.04656
3363.73182,0.04682
3361.80307,0.04710
3359.87433,0.04730
3357.94558,0.04761
3356.01683,0.04779
3354.08809,0.04763
3352.15934,0.04754
3350.23060,0.04782
3348.30185,0.04809
3346.37311,0.04816
3344.44436,0.04823
3342.51562,0.04834
3340.58687,0.04839
3338.65813,0.04837
3336.72938,0.04846
3334.80064,0.04874
3332.87189,0.04904
3330.94315,0.04939
3329.01440,0.04992
3327.08566,0.05055
3325.15691,0.05108
3323.22816,0.05142
3321.29942,0.05161
3319.37067,0.05192
3317.44193,0.05236
3315.51318,0.05271
3313.58444,0.05293
3311.65569,0.05300
3309.72695,0.05290
3307.79820,0.05295
3305.86946,0.05336
3303.94071,0.05397
3302.01197,0.05452
3300.08322,0.05481
3298.15448,0.05477
3296.22573,0.05479
3294.29698,0.05532
3292.36824,0.05595
3290.43949,0.05633
3288.51075,0.05654
3286.58200,0.05662
3284.65326,0.05670
3282.72451,0.05679
3280.79577,0.05694
3278.86702,0.05741
3276.93828,0.05829
3275.00953,0.05918
3273.08079,0.05974
3271.15204,0.06016
3269.22330,0.06059
3267.29455,0.06095
3265.36581,0.06134
3263.43706,0.06170
3261.50831,0.06198
3259.57957,0.06244
3257.65082,0.06323
3255.72208,0.06404
3253.79333,0.06447
3251.86459,0.06477
3249.93584,0.06534
3248.00710,0.06616
3246.07835,0.06707
3244.14961,0.06786
3242.22086,0.06842
3240.29212,0.06900
3238.36337,0.06980
3236.43463,0.07065
3234.50588,0.07129
3232.57713,0.07160
3230.64839,0.07162
3228.71964,0.07178
3226.79090,0.07249
3224.86215,0.07331
3222.93341,0.07379
3221.00466,0.07431
3219.07592,0.07510
3217.14717,0.07587
3215.21843,0.07651
3213.28968,0.07703
3211.36094,0.07750
3209.43219,0.07805
3207.50345,0.07863
3205.57470,0.07927
3203.64596,0.08003
3201.71721,0.08062
3199.78846,0.08102
3197.85972,0.08164
3195.93097,0.08260
3194.00223,0.08349
3192.07348,0.08397
3190.14474,0.08429
3188.21599,0.08492
3186.28725,0.08579
3184.35850,0.08653
3182.42976,0.08715
3180.50101,0.08780
3178.57227,0.08837
3176.64352,0.08879
3174.71478,0.08939
3172.78603,0.09041
3170.85729,0.09132
3168.92854,0.09178
3166.99979,0.09222
3165.07105,0.09297
3163.14230,0.09375
3161.21356,0.09440
3159.28481,0.09514
3157.35607,0.09596
3155.42732,0.09670
3153.49858,0.09738
3151.56983,0.09806
3149.64109,0.09902
3147.71234,0.10017
3145.78360,0.10097
3143.85485,0.10128
3141.92611,0.10148
3139.99736,0.10188
3138.06861,0.10250
3136.13987,0.10331
3134.21112,0.10422
3132.28238,0.10505
3130.35363,0.10576
3128.42489,0.10642
3126.49614,0.10709
3124.56740,0.10787
3122.63865,0.10864
3120.70991,0.10930
3118.78116,0.10989
3116.85242,0.11061
3114.92367,0.11145
3112.99493,0.11215
3111.06618,0.11277
3109.13744,0.11360
3107.20869,0.11440
3105.27994,0.11486
3103.35120,0.11526
3101.42245,0.11596
3099.49371,0.11687
3097.56496,0.11766
3095.63622,0.11822
3093.70747,0.11872
3091.77873,0.11933
3089.84998,0.12004
3087.92124,0.12060
3085.99249,0.12114
3084.06375,0.12199
3082.13500,0.12291
3080.20626,0.12347
3078.27751,0.12372
3076.34877,0.12409
3074.42002,0.12489
3072.49127,0.12579
3070.56253,0.12641
3068.63378,0.12710
3066.70504,0.12812
3064.77629,0.12912
3062.84755,0.12997
3060.91880,0.13075
3058.99006,0.13137
3057.06131,0.13190
3055.13257,0.13261
3053.20382,0.13349
3051.27508,0.13420
3049.34633,0.13459
3047.41759,0.13509
3045.48884,0.13586
3043.56009,0.13648
3041.63135,0.13694
3039.70260,0.13752
3037.77386,0.13805
3035.84511,0.13838
3033.91637,0.13858
3031.98762,0.13871
3030.05888,0.13892
3028.13013,0.13914
3026.20139,0.13900
3024.27264,0.13850
3022.34390,0.13816
3020.41515,0.13815
3018.48641,0.13797
3016.55766,0.13731
3014.62892,0.13664
3012.70017,0.13623
3010.77142,0.13575
3008.84268,0.13503
3006.91393,0.13417
3004.98519,0.13327
3003.05644,0.13260
3001.12770,0.13215
2999.19895,0.13160
2997.27021,0.13090
2995.34146,0.13009
2993.41272,0.12905
2991.48397,0.12773
2989.55523,0.12637
2987.62648,0.12504
2985.69774,0.12351
2983.76899,0.12176
2981.84025,0.11998
2979.91150,0.11811
2977.98275,0.11606
2976.05401,0.11398
2974.12526,0.11207
2972.19652,0.11038
2970.26777,0.10860
2968.33903,0.10664
2966.41028,0.10504
2964.48154,0.10387
2962.55279,0.10268
2960.62405,0.10131
2958.69530,0.09988
2956.76656,0.09841
2954.83781,0.09687
2952.90907,0.09535
2950.98032,0.09391
2949.05157,0.09239
2947.12283,0.09076
2945.19408,0.08948
2943.26534,0.08880
2941.33659,0.08838
2939.40785,0.08814
2937.47910,0.08794
2935.55036,0.08764
2933.62161,0.08759
2931.69287,0.08794
2929.76412,0.08826
2927.83538,0.08827
2925.90663,0.08819
2923.97789,0.08828
2922.04914,0.08855
2920.12040,0.08896
2918.19165,0.08948
2916.26290,0.08985
2914.33416,0.08978
2912.40541,0.08941
2910.47667,0.08907
2908.54792,0.08880
2906.61918,0.08846
2904.69043,0.08809
2902.76169,0.08782
2900.83294,0.08773
2898.90420,0.08782
2896.97545,0.08804
2895.04671,0.08828
2893.11796,0.08854
2891.18922,0.08885
2889.26047,0.08922
2887.33172,0.08965
2885.40298,0.09014
2883.47423,0.09075
2881.54549,0.09129
2879.61674,0.09159
2877.68800,0.09178
2875.75925,0.09207
2873.83051,0.09260
2871.90176,0.09332
2869.97302,0.09405
2868.04427,0.09484
2866.11553,0.09579
2864.18678,0.09679
2862.25804,0.09783
2860.32929,0.09895
2858.40055,0.10002
2856.47180,0.10095
2854.54305,0.10174
2852.61431,0.10262
2850.68556,0.10419
2848.75682,0.10659
2846.82807,0.10921
2844.89933,0.11161
2842.97058,0.11383
2841.04184,0.11596
2839.11309,0.11815
2837.18435,0.12047
2835.25560,0.12275
2833.32686,0.12488
2831.39811,0.12693
2829.46937,0.12905
2827.54062,0.13130
2825.61188,0.13341
2823.68313,0.13523
2821.75438,0.13695
2819.82564,0.13877
2817.89689,0.14068
2815.96815,0.14247
2814.03940,0.14399
2812.11066,0.14541
2810.18191,0.14681
2808.25317,0.14810
2806.32442,0.14937
2804.39568,0.15070
2802.46693,0.15196
2800.53819,0.15311
2798.60944,0.15419
2796.68070,0.15523
2794.75195,0.15623
2792.82320,0.15728
2790.89446,0.15838
2788.96571,0.15921
2787.03697,0.15960
2785.10822,0.16001
2783.17948,0.16081
2781.25073,0.16171
2779.32199,0.16245
2777.39324,0.16305
2775.46450,0.16355
2773.53575,0.16402
2771.60701,0.16453
2769.67826,0.16508
2767.74952,0.16559
2765.82077,0.16600
2763.89203,0.16640
2761.96328,0.16681
2760.03453,0.16714
2758.10579,0.16743
2756.17704,0.16781
2754.24830,0.16820
2752.31955,0.16860
2750.39081,0.16897
2748.46206,0.16923
2746.53332,0.16933
2744.60457,0.16942
2742.67583,0.16961
2740.74708,0.16988
2738.81834,0.17021
2736.88959,0.17061
2734.96085,0.17106
2733.03210,0.17148
2731.10336,0.17182
2729.17461,0.17219
2727.24586,0.17281
2725.31712,0.17353
2723.38837,0.17407
2721.45963,0.17443
2719.53088,0.17483
2717.60214,0.17555
2715.67339,0.17658
2713.74465,0.17756
2711.81590,0.17834
2709.88716,0.17927
2707.95841,0.18044
2706.02967,0.18153
2704.10092,0.18237
2702.17218,0.18310
2700.24343,0.18389
2698.31468,0.18489
2696.38594,0.18595
2694.45719,0.18687
2692.52845,0.18766
2690.59970,0.18835
2688.67096,0.18899
2686.74221,0.18975
2684.81347,0.19060
2682.88472,0.19140
2680.95598,0.19223
2679.02723,0.19318
2677.09849,0.19419
2675.16974,0.19513
2673.24100,0.19597
2671.31225,0.19669
2669.38351,0.19741
2667.45476,0.19814
2665.52601,0.19888
2663.59727,0.19971
2661.66852,0.20060
2659.73978,0.20142
2657.81103,0.20214
2655.88229,0.20286
2653.95354,0.20361
2652.02480,0.20428
2650.09605,0.20482
2648.16731,0.20543
2646.23856,0.20623
2644.30982,0.20716
2642.38107,0.20815
2640.45233,0.20909
2638.52358,0.20983
2636.59484,0.21053
2634.66609,0.21152
2632.73734,0.21274
2630.80860,0.21381
2628.87985,0.21471
2626.95111,0.21568
2625.02236,0.21674
2623.09362,0.21766
2621.16487,0.21832
2619.23613,0.21890
2617.30738,0.21963
2615.37864,0.22052
2613.44989,0.22152
2611.52115,0.22255
2609.59240,0.22348
2607.66366,0.22430
2605.73491,0.22508
2603.80616,0.22573
2601.87742,0.22627
2599.94867,0.22700
2598.01993,0.22791
2596.09118,0.22881
2594.16244,0.22963
2592.23369,0.23037
2590.30495,0.23101
2588.37620,0.23157
2586.44746,0.23218
2584.51871,0.23293
2582.58997,0.23370
2580.66122,0.23437
2578.73248,0.23487
2576.80373,0.23520
2574.87499,0.23548
2572.94624,0.23579
2571.01749,0.23603
2569.08875,0.23631
2567.16000,0.23671
2565.23126,0.23700
2563.30251,0.23717
2561.37377,0.23741
2559.44502,0.23773
2557.51628,0.23811
2555.58753,0.23852
2553.65879,0.23891
2551.73004,0.23930
2549.80130,0.23972
2547.87255,0.24020
2545.94381,0.24071
2544.01506,0.24112
2542.08631,0.24148
2540.15757,0.24192
2538.22882,0.24246
2536.30008,0.24300
2534.37133,0.24347
2532.44259,0.24397
2530.51384,0.24448
2528.58510,0.24496
2526.65635,0.24545
2524.72761,0.24610
2522.79886,0.24698
2520.87012,0.24776
2518.94137,0.24828
2517.01263,0.24871
2515.08388,0.24919
2513.15514,0.24995
2511.22639,0.25095
2509.29764,0.25179
2507.36890,0.25254
2505.44015,0.25349
2503.51141,0.25459
2501.58266,0.25573
2499.65392,0.25679
2497.72517,0.25776
2495.79643,0.25881
2493.86768,0.25995
2491.93894,0.26090
2490.01019,0.26163
2488.08145,0.26252
2486.15270,0.26362
2484.22396,0.26464
2482.29521,0.26558
2480.36647,0.26661
2478.43772,0.26774
2476.50897,0.26873
2474.58023,0.26951
2472.65148,0.27021
2470.72274,0.27088
2468.79399,0.27164
2466.86525,0.27256
2464.93650,0.27354
2463.00776,0.27455
2461.07901,0.27558
2459.15027,0.27657
2457.22152,0.27761
2455.29278,0.27871
2453.36403,0.27970
2451.43529,0.28066
2449.50654,0.28180
2447.57779,0.28312
2445.64905,0.28443
2443.72030,0.28560
2441.79156,0.28668
2439.86281,0.28778
2437.93407,0.28888
2436.00532,0.29004
2434.07658,0.29133
2432.14783,0.29271
2430.21909,0.29409
2428.29034,0.29533
2426.36160,0.29651
2424.43285,0.29784
2422.50411,0.29929
2420.57536,0.30063
2418.64662,0.30171
2416.71787,0.30280
2414.78912,0.30417
2412.86038,0.30571
2410.93163,0.30721
2409.00289,0.30858
2407.07414,0.30980
2405.14540,0.31108
2403.21665,0.31249
2401.28791,0.31385
2399.35916,0.31499
2397.43042,0.31599
2395.50167,0.31719
2393.57293,0.31858
2391.64418,0.31977
2389.71544,0.32071
2387.78669,0.32160
2385.85795,0.32257
2383.92920,0.32367
2382.00045,0.32490
2380.07171,0.32598
2378.14296,0.32680
2376.21422,0.32763
2374.28547,0.32857
2372.35673,0.32951
2370.42798,0.33043
2368.49924,0.33134
2366.57049,0.33225
2364.64175,0.33317
2362.71300,0.33407
2360.78426,0.33491
2358.85551,0.33573
2356.92677,0.33660
2354.99802,0.33745
2353.06927,0.33824
2351.14053,0.33910
2349.21178,0.34021
2347.28304,0.34143
2345.35429,0.34249
2343.42555,0.34335
2341.49680,0.34409
2339.56806,0.34467
2337.63931,0.34511
2335.71057,0.34564
2333.78182,0.34633
2331.85308,0.34694
2329.92433,0.34735
2327.99559,0.34781
2326.06684,0.34853
2324.13810,0.34918
2322.20935,0.34954
2320.28060,0.34975
2318.35186,0.35013
2316.42311,0.35070
2314.49437,0.35125
2312.56562,0.35158
2310.63688,0.35153
2308.70813,0.35137
2306.77939,0.35135
2304.85064,0.35133
2302.92190,0.35127
2300.99315,0.35127
2299.06441,0.35132
2297.13566,0.35127
2295.20692,0.35103
2293.27817,0.35074
2291.34943,0.35055
2289.42068,0.35047
2287.49193,0.35040
2285.56319,0.35034
2283.63444,0.35032
2281.70570,0.35031
2279.77695,0.35018
2277.84821,0.34985
2275.91946,0.34933
2273.99072,0.34881
2272.06197,0.34863
2270.13323,0.34862
2268.20448,0.34829
2266.27574,0.34760
2264.34699,0.34688
2262.41825,0.34639
2260.48950,0.34604
2258.56075,0.34554
2256.63201,0.34490
2254.70326,0.34437
2252.77452,0.34394
2250.84577,0.34359
2248.91703,0.34338
2246.98828,0.34334
2245.05954,0.34329
2243.13079,0.34310
2241.20205,0.34283
2239.27330,0.34277
2237.34456,0.34292
2235.41581,0.34291
2233.48707,0.34279
2231.55832,0.34289
2229.62958,0.34317
2227.70083,0.34340
2225.77208,0.34357
2223.84334,0.34372
2221.91459,0.34390
2219.98585,0.34410
2218.05710,0.34418
2216.12836,0.34415
2214.19961,0.34406
2212.27087,0.34397
2210.34212,0.34391
2208.41338,0.34380
2206.48463,0.34351
2204.55589,0.34303
2202.62714,0.34244
2200.69840,0.34176
2198.76965,0.34100
2196.84090,0.34026
2194.91216,0.33963
2192.98341,0.33897
2191.05467,0.33801
2189.12592,0.33675
2187.19718,0.33541
2185.26843,0.33403
2183.33969,0.33264
2181.41094,0.33122
2179.48220,0.32962
2177.55345,0.32795
2175.62471,0.32648
2173.69596,0.32513
2171.76722,0.32361
2169.83847,0.32191
2167.90973,0.32031
2165.98098,0.31891
2164.05223,0.31774
2162.12349,0.31676
2160.19474,0.31579
2158.26600,0.31473
2156.33725,0.31372
2154.40851,0.31283
2152.47976,0.31212
2150.55102,0.31155
2148.62227,0.31114
2146.69353,0.31089
2144.76478,0.31054
2142.83604,0.31010
2140.90729,0.30979
2138.97855,0.30963
2137.04980,0.30963
2135.12106,0.30984
2133.19231,0.31013
2131.26356,0.31038
2129.33482,0.31069
2127.40607,0.31113
2125.47733,0.31152
2123.54858,0.31181
2121.61984,0.31226
2119.69109,0.31307
2117.76235,0.31405
2115.83360,0.31491
2113.90486,0.31569
2111.97611,0.31667
2110.04737,0.31779
2108.11862,0.31876
2106.18988,0.31951
2104.26113,0.32026
2102.33238,0.32109
2100.40364,0.32193
2098.47489,0.32292
2096.54615,0.32401
2094.61740,0.32492
2092.68866,0.32563
2090.75991,0.32632
2088.83117,0.32700
2086.90242,0.32762
2084.97368,0.32813
2083.04493,0.32847
2081.11619,0.32870
2079.18744,0.32896
2077.25870,0.32922
2075.32995,0.32943
2073.40121,0.32950
2071.47246,0.32941
2069.54371,0.32929
2067.61497,0.32918
2065.68622,0.32913
2063.75748,0.32921
2061.82873,0.32927
2059.89999,0.32922
2057.97124,0.32932
2056.04250,0.32968
2054.11375,0.33012
2052.18501,0.33052
2050.25626,0.33101
2048.32752,0.33160
2046.39877,0.33214
2044.47003,0.33276
2042.54128,0.33360
2040.61254,0.33450
2038.68379,0.33539
2036.75504,0.33644
2034.82630,0.33761
2032.89755,0.33878
2030.96881,0.34002
2029.04006,0.34144
2027.11132,0.34289
2025.18257,0.34421
2023.25383,0.34550
2021.32508,0.34702
2019.39634,0.34876
2017.46759,0.35044
2015.53885,0.35208
2013.61010,0.35389
2011.68136,0.35556
2009.75261,0.35679
2007.82386,0.35796
2005.89512,0.35940
2003.96637,0.36091
2002.03763,0.36225
2000.10888,0.36335
1998.18014,0.36428
1996.25139,0.36521
1994.32265,0.36623
1992.39390,0.36727
1990.46516,0.36821
1988.53641,0.36901
1986.60767,0.36967
1984.67892,0.37019
1982.75018,0.37066
1980.82143,0.37110
1978.89269,0.37155
1976.96394,0.37202
1975.03519,0.37240
1973.10645,0.37251
1971.17770,0.37245
1969.24896,0.37259
1967.32021,0.37298
1965.39147,0.37332
1963.46272,0.37359
1961.53398,0.37391
1959.60523,0.37427
1957.67649,0.37463
1955.74774,0.37506
1953.81900,0.37559
1951.89025,0.37620
1949.96151,0.37684
1948.03276,0.37760
1946.10402,0.37863
1944.17527,0.37993
1942.24652,0.38123
1940.31778,0.38235
1938.38903,0.38350
1936.46029,0.38470
1934.53154,0.38588
1932.60280,0.38700
1930.67405,0.38805
1928.74531,0.38909
1926.81656,0.39023
1924.88782,0.39136
1922.95907,0.39233
1921.03033,0.39319
1919.10158,0.39403
1917.17284,0.39468
1915.24409,0.39509
1913.31534,0.39541
1911.38660,0.39574
1909.45785,0.39606
1907.52911,0.39629
1905.60036,0.39641
1903.67162,0.39644
1901.74287,0.39640
1899.81413,0.39643
1897.88538,0.39658
1895.95664,0.39667
1894.02789,0.39655
1892.09915,0.39643
1890.17040,0.39649
1888.24166,0.39645
1886.31291,0.39630
1884.38417,0.39633
1882.45542,0.39632
1880.52667,0.39608
1878.59793,0.39566
1876.66918,0.39510
1874.74044,0.39451
1872.81169,0.39404
1870.88295,0.39365
1868.95420,0.39322
1867.02546,0.39253
1865.09671,0.39165
1863.16797,0.39083
1861.23922,0.38998
1859.31048,0.38903
1857.38173,0.38818
1855.45299,0.38737
1853.52424,0.38650
1851.59549,0.38560
1849.66675,0.38467
1847.73800,0.38371
1845.80926,0.38278
1843.88051,0.38167
1841.95177,0.38015
1840.02302,0.37852
1838.09428,0.37704
1836.16553,0.37564
1834.23679,0.37419
1832.30804,0.37274
1830.37930,0.37116
1828.45055,0.36932
1826.52181,0.36738
1824.59306,0.36524
1822.66432,0.36286
1820.73557,0.36047
1818.80682,0.35806
1816.87808,0.35557
1814.94933,0.35304
1813.02059,0.35046
1811.09184,0.34761
1809.16310,0.34446
1807.23435,0.34118
1805.30561,0.33772
1803.37686,0.33414
1801.44812,0.33032
1799.51937,0.32613
1797.59063,0.32167
1795.66188,0.31718
1793.73314,0.31241
1791.80439,0.30692
1789.87565,0.30120
1787.94690,0.29575
1786.01815,0.29019
1784.08941,0.28408
1782.16066,0.27740
1780.23192,0.27025
1778.30317,0.26280
1776.37443,0.25532
1774.44568,0.24723
1772.51694,0.23751
1770.58819,0.22653
1768.65945,0.21515
1766.73070,0.20367
1764.80196,0.19302
1762.87321,0.18265
1760.94447,0.17197
1759.01572,0.16214
1757.08697,0.15316
1755.15823,0.14495
1753.22948,0.13763
1751.30074,0.13041
1749.37199,0.12341
1747.44325,0.11758
1745.51450,0.11300
1743.58576,0.10942
1741.65701,0.10679
1739.72827,0.10496
1737.79952,0.10397
1735.87078,0.10377
1733.94203,0.10400
1732.01329,0.10452
1730.08454,0.10541
1728.15580,0.10645
1726.22705,0.10758
1724.29830,0.10898
1722.36956,0.11066
1720.44081,0.11254
1718.51207,0.11455
1716.58332,0.11643
1714.65458,0.11808
1712.72583,0.11974
1710.79709,0.12142
1708.86834,0.12293
1706.93960,0.12433
1705.01085,0.12574
1703.08211,0.12716
1701.15336,0.12853
1699.22462,0.12943
1697.29587,0.12976
1695.36713,0.12969
1693.43838,0.12919
1691.50963,0.12870
1689.58089,0.12847
1687.65214,0.12831
1685.72340,0.12780
1683.79465,0.12639
1681.86591,0.12435
1679.93716,0.12230
1678.00842,0.12021
1676.07967,0.11760
1674.15093,0.11418
1672.22218,0.11048
1670.29344,0.10652
1668.36469,0.10207
1666.43595,0.09786
1664.50720,0.09402
1662.57845,0.09020
1660.64971,0.08693
1658.72096,0.08488
1656.79222,0.08406
1654.86347,0.08437
1652.93473,0.08547
1651.00598,0.08645
1649.07724,0.08746
1647.14849,0.08877
1645.21975,0.08967
1643.29100,0.08990
1641.36226,0.08991
1639.43351,0.08987
1637.50477,0.08968
1635.57602,0.08906
1633.64728,0.08797
1631.71853,0.08686
1629.78978,0.08602
1627.86104,0.08526
1625.93229,0.08427
1624.00355,0.08294
1622.07480,0.08162
1620.14606,0.08067
1618.21731,0.08004
1616.28857,0.07948
1614.35982,0.07893
1612.43108,0.07855
1610.50233,0.07807
1608.57359,0.07729
1606.64484,0.07659
1604.71610,0.07621
1602.78735,0.07595
1600.85861,0.07573
1598.92986,0.07565
1597.00111,0.07587
1595.07237,0.07644
1593.14362,0.07730
1591.21488,0.07850
1589.28613,0.08023
1587.35739,0.08250
1585.42864,0.08511
1583.49990,0.08783
1581.57115,0.09063
1579.64241,0.09357
1577.71366,0.09680
1575.78492,0.10017
1573.85617,0.10294
1571.92743,0.10538
1569.99868,0.10814
1568.06993,0.11084
1566.14119,0.11309
1564.21244,0.11516
1562.28370,0.11722
1560.35495,0.11965
1558.42621,0.12218
1556.49746,0.12368
1554.56872,0.12456
1552.63997,0.12531
1550.71123,0.12604
1548.78248,0.12693
1546.85374,0.12785
1544.92499,0.12859
1542.99625,0.12897
1541.06750,0.12888
1539.13876,0.12806
1537.21001,0.12672
1535.28126,0.12500
1533.35252,0.12234
1531.42377,0.11884
1529.49503,0.11491
1527.56628,0.11006
1525.63754,0.10427
1523.70879,0.09816
1521.78005,0.09133
1519.85130,0.08464
1517.92256,0.07972
1515.99381,0.07636
1514.06507,0.07439
1512.13632,0.07366
1510.20758,0.07357
1508.27883,0.07372
1506.35008,0.07389
1504.42134,0.07394
1502.49259,0.07406
1500.56385,0.07449
1498.63510,0.07541
1496.70636,0.07688
1494.77761,0.07872
1492.84887,0.08068
1490.92012,0.08271
1488.99138,0.08442
1487.06263,0.08529
1485.13389,0.08527
1483.20514,0.08432
1481.27640,0.08236
1479.34765,0.07961
1477.41891,0.07640
1475.49016,0.07291
1473.56141,0.06901
1471.63267,0.06502
1469.70392,0.06211
1467.77518,0.06040
1465.84643,0.05932
1463.91769,0.05876
1461.98894,0.05863
1460.06020,0.05864
1458.13145,0.05862
1456.20271,0.05850
1454.27396,0.05854
1452.34522,0.05896
1450.41647,0.05949
1448.48773,0.05976
1446.55898,0.05965
1444.63024,0.05931
1442.70149,0.05879
1440.77274,0.05812
1438.84400,0.05732
1436.91525,0.05626
1434.98651,0.05515
1433.05776,0.05433
1431.12902,0.05373
1429.20027,0.05335
1427.27153,0.05333
1425.34278,0.05372
1423.41404,0.05436
1421.48529,0.05516
1419.55655,0.05622
1417.62780,0.05752
1415.69906,0.05871
1413.77031,0.05969
1411.84156,0.06041
1409.91282,0.06084
1407.98407,0.06096
1406.05533,0.06077
1404.12658,0.06034
1402.19784,0.05978
1400.26909,0.05908
1398.34035,0.05817
1396.41160,0.05708
1394.48286,0.05587
1392.55411,0.05463
1390.62537,0.05353
1388.69662,0.05241
1386.76788,0.05106
1384.83913,0.04964
1382.91039,0.04852
1380.98164,0.04783
1379.05289,0.04737
1377.12415,0.04696
1375.19540,0.04677
1373.26666,0.04692
1371.33791,0.04729
1369.40917,0.04768
1367.48042,0.04805
1365.55168,0.04846
1363.62293,0.04902
1361.69419,0.04964
1359.76544,0.05022
1357.83670,0.05080
1355.90795,0.05136
1353.97921,0.05194
1352.05046,0.05248
1350.12172,0.05279
1348.19297,0.05283
1346.26422,0.05269
1344.33548,0.05236
1342.40673,0.05188
1340.47799,0.05142
1338.54924,0.05109
1336.62050,0.05097
1334.69175,0.05092
1332.76301,0.05077
1330.83426,0.05058
1328.90552,0.05049
1326.97677,0.05044
1325.04803,0.05031
1323.11928,0.05016
1321.19054,0.05018
1319.26179,0.05046
1317.33304,0.05091
1315.40430,0.05146
1313.47555,0.05196
1311.54681,0.05245
1309.61806,0.05298
1307.68932,0.05348
1305.76057,0.05394
1303.83183,0.05444
1301.90308,0.05502
1299.97434,0.05545
1298.04559,0.05546
1296.11685,0.05511
1294.18810,0.05460
1292.25936,0.05392
1290.33061,0.05312
1288.40187,0.05224
1286.47312,0.05120
1284.54437,0.05005
1282.61563,0.04909
1280.68688,0.04852
1278.75814,0.04810
1276.82939,0.04746
1274.90065,0.04659
1272.97190,0.04577
1271.04316,0.04515
1269.11441,0.04474
1267.18567,0.04444
1265.25692,0.04414
1263.32818,0.04391
1261.39943,0.04397
1259.47069,0.04437
1257.54194,0.04476
1255.61320,0.04498
1253.68445,0.04510
1251.75570,0.04523
1249.82696,0.04553
1247.89821,0.04612
1245.96947,0.04675
1244.04072,0.04736
1242.11198,0.04810
1240.18323,0.04890
1238.25449,0.04945
1236.32574,0.04985
1234.39700,0.05048
1232.46825,0.05141
1230.53951,0.05239
1228.61076,0.05329
1226.68202,0.05405
1224.75327,0.05466
1222.82452,0.05512
1220.89578,0.05542
1218.96703,0.05552
1217.03829,0.05555
1215.10954,0.05574
1213.18080,0.05586
1211.25205,0.05558
1209.32331,0.05503
1207.39456,0.05444
1205.46582,0.05390
1203.53707,0.05363
1201.60833,0.05370
1199.67958,0.05386
1197.75084,0.05393
1195.82209,0.05387
1193.89335,0.05363
1191.96460,0.05307
1190.03585,0.05216
1188.10711,0.05105
1186.17836,0.04989
1184.24962,0.04874
1182.32087,0.04760
1180.39213,0.04655
1178.46338,0.04562
1176.53464,0.04492
1174.60589,0.04470
1172.67715,0.04501
1170.74840,0.04582
1168.81966,0.04700
1166.89091,0.04820
1164.96217,0.04921
1163.03342,0.05017
1161.10467,0.05121
1159.17593,0.05219
1157.24718,0.05287
1155.31844,0.05324
1153.38969,0.05332
1151.46095,0.05328
1149.53220,0.05332
1147.60346,0.05337
1145.67471,0.05328
1143.74597,0.05303
1141.81722,0.05247
1139.88848,0.05161
1137.95973,0.05093
1136.03099,0.05067
1134.10224,0.05064
1132.17350,0.05079
1130.24475,0.05110
1128.31600,0.05172
1126.38726,0.05283
1124.45851,0.05403
1122.52977,0.05506
1120.60102,0.05622
1118.67228,0.05746
1116.74353,0.05863
1114.81479,0.05985
1112.88604,0.06113
1110.95730,0.06263
1109.02855,0.06439
1107.09981,0.06588
1105.17106,0.06703
1103.24232,0.06799
1101.31357,0.06852
1099.38483,0.06874
1097.45608,0.06903
1095.52733,0.06945
1093.59859,0.06987
1091.66984,0.07016
1089.74110,0.07024
1087.81235,0.07025
1085.88361,0.07026
1083.95486,0.07028
1082.02612,0.07043
1080.09737,0.07077
1078.16863,0.07128
1076.23988,0.07193
1074.31114,0.07250
1072.38239,0.07265
1070.45365,0.07240
1068.52490,0.07191
1066.59615,0.07144
1064.66741,0.07149
1062.73866,0.07228
1060.80992,0.07347
1058.88117,0.07481
1056.95243,0.07645
1055.02368,0.07835
1053.09494,0.08003
1051.16619,0.08125
1049.23745,0.08217
1047.30870,0.08299
1045.37996,0.08391
1043.45121,0.08499
1041.52247,0.08595
1039.59372,0.08669
1037.66498,0.08741
1035.73623,0.08790
1033.80748,0.08796
1031.87874,0.08773
1029.94999,0.08735
1028.02125,0.08696
1026.09250,0.08661
1024.16376,0.08613
1022.23501,0.08554
1020.30627,0.08510
1018.37752,0.08472
1016.44878,0.08411
1014.52003,0.08355
1012.59129,0.08326
1010.66254,0.08299
1008.73380,0.08264
1006.80505,0.08232
1004.87631,0.08209
1002.94756,0.08202
1001.01881,0.08227
999.09007,0.08274
997.16132,0.08307
995.23258,0.08338
993.30383,0.08417
991.37509,0.08542
989.44634,0.08689
987.51760,0.08880
985.58885,0.09123
983.66011,0.09380
981.73136,0.09614
979.80262,0.09804
977.87387,0.09981
975.94513,0.10181
974.01638,0.10374
972.08763,0.10527
970.15889,0.10664
968.23014,0.10838
966.30140,0.11083
964.37265,0.11379
962.44391,0.11695
960.51516,0.12041
958.58642,0.12436
956.65767,0.12855
954.72893,0.13244
952.80018,0.13604
950.87144,0.13960
948.94269,0.14304
947.01395,0.14622
945.08520,0.14912
943.15646,0.15169
941.22771,0.15376
939.29896,0.15523
937.37022,0.15641
935.44147,0.15781
933.51273,0.15915
931.58398,0.15971
929.65524,0.15962
927.72649,0.15956
925.79775,0.15968
923.86900,0.15959
921.94026,0.15905
920.01151,0.15824
918.08277,0.15720
916.15402,0.15574
914.22528,0.15398
912.29653,0.15202
910.36779,0.14948
908.43904,0.14616
906.51029,0.14236
904.58155,0.13844
902.65280,0.13473
900.72406,0.13174
898.79531,0.13027
896.86657,0.13126
894.93782,0.13482
893.00908,0.13998
891.08033,0.14566
889.15159,0.15139
887.22284,0.15681
885.29410,0.16171
883.36535,0.16595
881.43661,0.16904
879.50786,0.17054
877.57911,0.17093
875.65037,0.17131
873.72162,0.17194
871.79288,0.17239
869.86413,0.17276
867.93539,0.17323
866.00664,0.17353
864.07790,0.17348
862.14915,0.17295
860.22041,0.17191
858.29166,0.17088
856.36292,0.16994
854.43417,0.16844
852.50543,0.16647
850.57668,0.16471
848.64794,0.16314
846.71919,0.16140
844.79044,0.15970
842.86170,0.15844
840.93295,0.15766
839.00421,0.15753
837.07546,0.15824
835.14672,0.15924
833.21797,0.16014
831.28923,0.16135
829.36048,0.16288
827.43174,0.16397
825.50299,0.16434
823.57425,0.16472
821.64550,0.16546
819.71676,0.16605
817.78801,0.16626
815.85926,0.16625
813.93052,0.16617
812.00177,0.16638
810.07303,0.16719
808.14428,0.16803
806.21554,0.16817
804.28679,0.16788
802.35805,0.16784
800.42930,0.16811
798.50056,0.16828
796.57181,0.16819
794.64307,0.16791
792.71432,0.16733
790.78558,0.16647
788.85683,0.16550
786.92809,0.16449
784.99934,0.16341
783.07059,0.16227
781.14185,0.16099
779.21310,0.15941
777.28436,0.15772
775.35561,0.15612
773.42687,0.15440
771.49812,0.15260
769.56938,0.15117
767.64063,0.15022
765.71189,0.14912
763.78314,0.14775
761.85440,0.14650
759.92565,0.14533
757.99691,0.14400
756.06816,0.14243
754.13942,0.14088
752.21067,0.13954
750.28192,0.13796
748.35318,0.13610
746.42443,0.13432
744.49569,0.13269
742.56694,0.13127
740.63820,0.13022
738.70945,0.12940
736.78071,0.12846
734.85196,0.12730
732.92322,0.12603
730.99447,0.12460
729.06573,0.12311
727.13698,0.12208
725.20824,0.12149
723.27949,0.12079
721.35074,0.11976
719.42200,0.11886
717.49325,0.11844
715.56451,0.11830
713.63576,0.11830
711.70702,0.11791
709.77827,0.11678
707.84953,0.11580
705.92078,0.11546
703.99204,0.11519
702.06329,0.11462
700.13455,0.11387
698.20580,0.11322
696.27706,0.11280
694.34831,0.11261
692.41957,0.11232
690.49082,0.11141
688.56207,0.10990
686.63333,0.10831
684.70458,0.10674
682.77584,0.10500
680.84709,0.10300
678.91835,0.10096
676.98960,0.09965
675.06086,0.09929
673.13211,0.09928
671.20337,0.09903
669.27462,0.09860
667.34588,0.09878
665.41713,0.09989
663.48839,0.10106
661.55964,0.10156
659.63090,0.10187
657.70215,0.10234
655.77340,0.10283
653.84466,0.10317
651.91591,0.10293
649.98717,0.10230
648.05842,0.10209
646.12968,0.10263
644.20093,0.10326
642.27219,0.10331
640.34344,0.10294
638.41470,0.10238
636.48595,0.10187
634.55721,0.10146
632.62846,0.10052
630.69972,0.09915
628.77097,0.09826
626.84222,0.09822
624.91348,0.09877
622.98473,0.09941
621.05599,0.09970
619.12724,0.10022
617.19850,0.10141
615.26975,0.10261
613.34101,0.10336
611.41226,0.10406
609.48352,0.10500
607.55477,0.10578
605.62603,0.10699
603.69728,0.10972
601.76854,0.11204
599.83979,0.11146
