7497.03301,0.85843
7495.10426,0.85240
7493.17552,0.84960
7491.24677,0.85257
7489.31803,0.85136
7487.38928,0.84392
7485.46054,0.83580
7483.53179,0.83024
7481.60305,0.82871
7479.67430,0.83085
7477.74556,0.83717
7475.81681,0.84445
7473.88807,0.84485
7471.95932,0.83966
7470.03057,0.83408
7468.10183,0.83086
7466.17308,0.83550
7464.24434,0.84479
7462.31559,0.84428
7460.38685,0.83213
7458.45810,0.82326
7456.52936,0.82432
7454.60061,0.82815
7452.67187,0.82976
7450.74312,0.83063
7448.81438,0.83207
7446.88563,0.83364
7444.95689,0.83252
7443.02814,0.82651
7441.09940,0.82416
7439.17065,0.82870
7437.24190,0.82848
7435.31316,0.82357
7433.38441,0.82057
7431.45567,0.81926
7429.52692,0.82363
7427.59818,0.83159
7425.66943,0.83405
7423.74069,0.83198
7421.81194,0.83003
7419.88320,0.82653
7417.95445,0.82241
7416.02571,0.82305
7414.09696,0.82589
7412.16822,0.82488
7410.23947,0.82392
7408.31073,0.82725
7406.38198,0.83001
7404.45323,0.82955
7402.52449,0.82719
7400.59574,0.82148
7398.66700,0.81473
7396.73825,0.81260
7394.80951,0.81535
7392.88076,0.81754
7390.95202,0.81524
7389.02327,0.81365
7387.09453,0.81893
7385.16578,0.82559
7383.23704,0.82657
7381.30829,0.82576
7379.37955,0.82777
7377.45080,0.82813
7375.52205,0.82402
7373.59331,0.81990
7371.66456,0.81760
7369.73582,0.81738
7367.80707,0.82018
7365.87833,0.82066
7363.94958,0.81591
7362.02084,0.81273
7360.09209,0.81393
7358.16335,0.81371
7356.23460,0.81084
7354.30586,0.81244
7352.37711,0.82099
7350.44837,0.82906
7348.51962,0.82815
7346.59088,0.81938
7344.66213,0.81252
7342.73338,0.81242
7340.80464,0.81506
7338.87589,0.81556
7336.94715,0.81361
7335.01840,0.81045
7333.08966,0.80554
7331.16091,0.80014
7329.23217,0.79944
7327.30342,0.80639
7325.37468,0.81434
7323.44593,0.81568
7321.51719,0.81260
7319.58844,0.80995
7317.65970,0.80869
7315.73095,0.80861
7313.80221,0.81106
7311.87346,0.81568
7309.94471,0.81746
7308.01597,0.81400
7306.08722,0.80994
7304.15848,0.81047
7302.22973,0.81427
7300.30099,0.81584
7298.37224,0.81399
7296.44350,0.81312
7294.51475,0.81525
7292.58601,0.81715
7290.65726,0.81662
7288.72852,0.81556
7286.79977,0.81615
7284.87103,0.81687
7282.94228,0.81406
7281.01353,0.80935
7279.08479,0.80900
7277.15604,0.81288
7275.22730,0.81544
7273.29855,0.81530
7271.36981,0.81510
7269.44106,0.81586
7267.51232,0.81389
7265.58357,0.80753
7263.65483,0.80297
7261.72608,0.80534
7259.79734,0.80993
7257.86859,0.80675
7255.93985,0.79809
7254.01110,0.79640
7252.08236,0.80171
7250.15361,0.80519
7248.22486,0.80506
7246.29612,0.80415
7244.36737,0.80529
7242.43863,0.81000
7240.50988,0.81448
7238.58114,0.81554
7236.65239,0.81708
7234.72365,0.81868
7232.79490,0.81591
7230.86616,0.81159
7228.93741,0.80847
7227.00867,0.80588
7225.07992,0.80486
7223.15118,0.80568
7221.22243,0.80751
7219.29369,0.80884
7217.36494,0.80907
7215.43619,0.81046
7213.50745,0.81209
7211.57870,0.81023
7209.64996,0.80772
7207.72121,0.80878
7205.79247,0.81008
7203.86372,0.80814
7201.93498,0.80625
7200.00623,0.80874
7198.07749,0.81410
7196.14874,0.81631
7194.22000,0.81360
7192.29125,0.81092
7190.36251,0.81157
7188.43376,0.81201
7186.50501,0.80994
7184.57627,0.80900
7182.64752,0.80980
7180.71878,0.80879
7178.79003,0.80687
7176.86129,0.80764
7174.93254,0.80951
7173.00380,0.80735
7171.07505,0.80152
7169.14631,0.79716
7167.21756,0.79723
7165.28882,0.79964
7163.36007,0.80045
7161.43133,0.80096
7159.50258,0.80275
7157.57384,0.80303
7155.64509,0.80187
7153.71634,0.80073
7151.78760,0.79846
7149.85885,0.79465
7147.93011,0.79139
7146.00136,0.78980
7144.07262,0.78985
7142.14387,0.79258
7140.21513,0.79681
7138.28638,0.79937
7136.35764,0.79834
7134.42889,0.79540
7132.50015,0.79387
7130.57140,0.79322
7128.64266,0.79361
7126.71391,0.79397
7124.78516,0.78844
7122.85642,0.78105
7120.92767,0.78188
7118.99893,0.78755
7117.07018,0.78759
7115.14144,0.78181
7113.21269,0.77753
7111.28395,0.77745
7109.35520,0.77958
7107.42646,0.78124
7105.49771,0.77933
7103.56897,0.77332
7101.64022,0.76930
7099.71148,0.77162
7097.78273,0.77344
7095.85399,0.76737
7093.92524,0.75892
7091.99649,0.75812
7090.06775,0.76531
7088.13900,0.77373
7086.21026,0.77740
7084.28151,0.77551
7082.35277,0.77238
7080.42402,0.76859
7078.49528,0.76282
7076.56653,0.75840
7074.63779,0.75667
7072.70904,0.75590
7070.78030,0.75451
7068.85155,0.75307
7066.92281,0.75385
7064.99406,0.75418
7063.06532,0.74963
7061.13657,0.74244
7059.20782,0.73931
7057.27908,0.74179
7055.35033,0.74497
7053.42159,0.74593
7051.49284,0.74515
7049.56410,0.74260
7047.63535,0.73929
7045.70661,0.73901
7043.77786,0.74160
7041.84912,0.74065
7039.92037,0.73516
7037.99163,0.73038
7036.06288,0.72743
7034.13414,0.72476
7032.20539,0.72344
7030.27664,0.72333
7028.34790,0.72234
7026.41915,0.72209
7024.49041,0.72367
7022.56166,0.72362
7020.63292,0.72160
7018.70417,0.71958
7016.77543,0.71702
7014.84668,0.71595
7012.91794,0.71904
7010.98919,0.72196
7009.06045,0.71943
7007.13170,0.71382
7005.20296,0.71132
7003.27421,0.71179
7001.34547,0.71090
6999.41672,0.70936
6997.48797,0.70758
6995.55923,0.70521
6993.63048,0.70529
6991.70174,0.70604
6989.77299,0.70466
6987.84425,0.70338
6985.91550,0.70337
6983.98676,0.70398
6982.05801,0.70348
6980.12927,0.70096
6978.20052,0.69924
6976.27178,0.70033
6974.34303,0.70246
6972.41429,0.70269
6970.48554,0.70008
6968.55680,0.69708
6966.62805,0.69550
6964.69930,0.69356
6962.77056,0.69073
6960.84181,0.68986
6958.91307,0.69142
6956.98432,0.69231
6955.05558,0.69097
6953.12683,0.68803
6951.19809,0.68651
6949.26934,0.68966
6947.34060,0.69323
6945.41185,0.69340
6943.48311,0.69430
6941.55436,0.69573
6939.62562,0.69471
6937.69687,0.69361
6935.76812,0.69292
6933.83938,0.69137
6931.91063,0.69106
6929.98189,0.69147
6928.05314,0.68921
6926.12440,0.68578
6924.19565,0.68568
6922.26691,0.68924
6920.33816,0.69290
6918.40942,0.69381
6916.48067,0.69115
6914.55193,0.68731
6912.62318,0.68694
6910.69444,0.69038
6908.76569,0.69304
6906.83695,0.69264
6904.90820,0.69126
6902.97945,0.69031
6901.05071,0.68922
6899.12196,0.68833
6897.19322,0.68743
6895.26447,0.68613
6893.33573,0.68639
6891.40698,0.68818
6889.47824,0.68845
6887.54949,0.68623
6885.62075,0.68403
6883.69200,0.68318
6881.76326,0.68173
6879.83451,0.67929
6877.90577,0.67904
6875.97702,0.68288
6874.04828,0.68649
6872.11953,0.68517
6870.19078,0.68237
6868.26204,0.68289
6866.33329,0.68372
6864.40455,0.68151
6862.47580,0.68100
6860.54706,0.68617
6858.61831,0.69122
6856.68957,0.69073
6854.76082,0.68757
6852.83208,0.68394
6850.90333,0.67996
6848.97459,0.67871
6847.04584,0.68075
6845.11710,0.68333
6843.18835,0.68592
6841.25960,0.68776
6839.33086,0.68737
6837.40211,0.68628
6835.47337,0.68618
6833.54462,0.68603
6831.61588,0.68581
6829.68713,0.68617
6827.75839,0.68563
6825.82964,0.68365
6823.90090,0.68222
6821.97215,0.68304
6820.04341,0.68460
6818.11466,0.68465
6816.18592,0.68407
6814.25717,0.68411
6812.32843,0.68523
6810.39968,0.68598
6808.47093,0.68264
6806.54219,0.67730
6804.61344,0.67627
6802.68470,0.67783
6800.75595,0.67666
6798.82721,0.67520
6796.89846,0.67768
6794.96972,0.68219
6793.04097,0.68495
6791.11223,0.68417
6789.18348,0.68136
6787.25474,0.68009
6785.32599,0.68208
6783.39725,0.68615
6781.46850,0.68930
6779.53975,0.68970
6777.61101,0.68900
6775.68226,0.68850
6773.75352,0.68797
6771.82477,0.68916
6769.89603,0.69268
6767.96728,0.69391
6766.03854,0.68953
6764.10979,0.68338
6762.18105,0.68092
6760.25230,0.68281
6758.32356,0.68526
6756.39481,0.68618
6754.46607,0.68643
6752.53732,0.68579
6750.60858,0.68489
6748.67983,0.68522
6746.75108,0.68532
6744.82234,0.68363
6742.89359,0.68231
6740.96485,0.68349
6739.03610,0.68558
6737.10736,0.68683
6735.17861,0.68754
6733.24987,0.68839
6731.32112,0.68927
6729.39238,0.68882
6727.46363,0.68752
6725.53489,0.68813
6723.60614,0.69044
6721.67740,0.69080
6719.74865,0.68937
6717.81991,0.68889
6715.89116,0.68761
6713.96241,0.68486
6712.03367,0.68392
6710.10492,0.68498
6708.17618,0.68607
6706.24743,0.68608
6704.31869,0.68538
6702.38994,0.68616
6700.46120,0.68844
6698.53245,0.68938
6696.60371,0.68896
6694.67496,0.68955
6692.74622,0.69089
6690.81747,0.69146
6688.88873,0.69122
6686.95998,0.69046
6685.03123,0.68949
6683.10249,0.68945
6681.17374,0.69066
6679.24500,0.69161
6677.31625,0.69127
6675.38751,0.69064
6673.45876,0.69053
6671.53002,0.68966
6669.60127,0.68799
6667.67253,0.68729
6665.74378,0.68769
6663.81504,0.68858
6661.88629,0.68975
6659.95755,0.69108
6658.02880,0.69271
6656.10006,0.69444
6654.17131,0.69568
6652.24256,0.69647
6650.31382,0.69726
6648.38507,0.69718
6646.45633,0.69616
6644.52758,0.69627
6642.59884,0.69757
6640.67009,0.69870
6638.74135,0.69976
6636.81260,0.70093
6634.88386,0.70205
6632.95511,0.70339
6631.02637,0.70527
6629.09762,0.70692
6627.16888,0.70611
6625.24013,0.70266
6623.31139,0.69965
6621.38264,0.69865
6619.45389,0.69788
6617.52515,0.69646
6615.59640,0.69611
6613.66766,0.69649
6611.73891,0.69565
6609.81017,0.69516
6607.88142,0.69654
6605.95268,0.69712
6604.02393,0.69634
6602.09519,0.69868
6600.16644,0.70369
6598.23770,0.70560
6596.30895,0.70396
6594.38021,0.70282
6592.45146,0.70409
6590.52271,0.70544
6588.59397,0.70501
6586.66522,0.70474
6584.73648,0.70504
6582.80773,0.70455
6580.87899,0.70298
6578.95024,0.70215
6577.02150,0.70446
6575.09275,0.70842
6573.16401,0.71033
6571.23526,0.70956
6569.30652,0.70775
6567.37777,0.70451
6565.44903,0.70093
6563.52028,0.70182
6561.59154,0.70577
6559.66279,0.70741
6557.73404,0.70782
6555.80530,0.70887
6553.87655,0.70912
6551.94781,0.70839
6550.01906,0.70854
6548.09032,0.71049
6546.16157,0.71173
6544.23283,0.71078
6542.30408,0.70989
6540.37534,0.70927
6538.44659,0.70810
6536.51785,0.70776
6534.58910,0.70883
6532.66036,0.71080
6530.73161,0.71326
6528.80287,0.71579
6526.87412,0.71779
6524.94537,0.71814
6523.01663,0.71742
6521.08788,0.71716
6519.15914,0.71579
6517.23039,0.71307
6515.30165,0.71226
6513.37290,0.71388
6511.44416,0.71547
6509.51541,0.71499
6507.58667,0.71266
6505.65792,0.71111
6503.72918,0.71089
6501.80043,0.71065
6499.87169,0.71150
6497.94294,0.71396
6496.01419,0.71586
6494.08545,0.71611
6492.15670,0.71508
6490.22796,0.71418
6488.29921,0.71548
6486.37047,0.71774
6484.44172,0.71787
6482.51298,0.71583
6480.58423,0.71469
6478.65549,0.71635
6476.72674,0.71787
6474.79800,0.71703
6472.86925,0.71676
6470.94051,0.71792
6469.01176,0.71744
6467.08302,0.71601
6465.15427,0.71741
6463.22552,0.72079
6461.29678,0.72214
6459.36803,0.72179
6457.43929,0.72284
6455.51054,0.72413
6453.58180,0.72321
6451.65305,0.72095
6449.72431,0.71855
6447.79556,0.71704
6445.86682,0.71733
6443.93807,0.71898
6442.00933,0.72097
6440.08058,0.72183
6438.15184,0.72117
6436.22309,0.72041
6434.29434,0.72011
6432.36560,0.71899
6430.43685,0.71653
6428.50811,0.71504
6426.57936,0.71693
6424.65062,0.72090
6422.72187,0.72370
6420.79313,0.72405
6418.86438,0.72332
6416.93564,0.72327
6415.00689,0.72276
6413.07815,0.72114
6411.14940,0.72098
6409.22066,0.72194
6407.29191,0.72231
6405.36317,0.72322
6403.43442,0.72433
6401.50567,0.72370
6399.57693,0.72227
6397.64818,0.72175
6395.71944,0.72135
6393.79069,0.72079
6391.86195,0.72128
6389.93320,0.72270
6388.00446,0.72337
6386.07571,0.72233
6384.14697,0.72084
6382.21822,0.72052
6380.28948,0.72237
6378.36073,0.72470
6376.43199,0.72406
6374.50324,0.72191
6372.57450,0.72142
6370.64575,0.72278
6368.71700,0.72521
6366.78826,0.72634
6364.85951,0.72489
6362.93077,0.72259
6361.00202,0.72029
6359.07328,0.71854
6357.14453,0.71893
6355.21579,0.72174
6353.28704,0.72478
6351.35830,0.72559
6349.42955,0.72451
6347.50081,0.72268
6345.57206,0.72111
6343.64332,0.72161
6341.71457,0.72297
6339.78582,0.72349
6337.85708,0.72465
6335.92833,0.72619
6333.99959,0.72629
6332.07084,0.72618
6330.14210,0.72791
6328.21335,0.73037
6326.28461,0.73075
6324.35586,0.72840
6322.42712,0.72597
6320.49837,0.72583
6318.56963,0.72653
6316.64088,0.72617
6314.71214,0.72584
6312.78339,0.72694
6310.85465,0.72852
6308.92590,0.72871
6306.99715,0.72751
6305.06841,0.72592
6303.13966,0.72552
6301.21092,0.72815
6299.28217,0.73154
6297.35343,0.73155
6295.42468,0.73003
6293.49594,0.73109
6291.56719,0.73329
6289.63845,0.73326
6287.70970,0.73126
6285.78096,0.73013
6283.85221,0.73161
6281.92347,0.73353
6279.99472,0.73315
6278.06598,0.73151
6276.13723,0.73034
6274.20848,0.72953
6272.27974,0.72949
6270.35099,0.73050
6268.42225,0.73228
6266.49350,0.73474
6264.56476,0.73640
6262.63601,0.73623
6260.70727,0.73575
6258.77852,0.73676
6256.84978,0.73944
6254.92103,0.74156
6252.99229,0.74147
6251.06354,0.74025
6249.13480,0.73912
6247.20605,0.73902
6245.27730,0.73997
6243.34856,0.74120
6241.41981,0.74313
6239.49107,0.74466
6237.56232,0.74456
6235.63358,0.74463
6233.70483,0.74459
6231.77609,0.74311
6229.84734,0.74280
6227.91860,0.74545
6225.98985,0.74794
6224.06111,0.74787
6222.13236,0.74744
6220.20362,0.74828
6218.27487,0.74938
6216.34613,0.75010
6214.41738,0.75022
6212.48863,0.74964
6210.55989,0.74898
6208.63114,0.74842
6206.70240,0.74801
6204.77365,0.74828
6202.84491,0.74881
6200.91616,0.74948
6198.98742,0.75040
6197.05867,0.75084
6195.12993,0.75175
6193.20118,0.75334
6191.27244,0.75355
6189.34369,0.75261
6187.41495,0.75232
6185.48620,0.75223
6183.55746,0.75135
6181.62871,0.75114
6179.69996,0.75249
6177.77122,0.75443
6175.84247,0.75627
6173.91373,0.75750
6171.98498,0.75804
6170.05624,0.75841
6168.12749,0.75896
6166.19875,0.75846
6164.27000,0.75644
6162.34126,0.75577
6160.41251,0.75755
6158.48377,0.75917
6156.55502,0.75944
6154.62628,0.76034
6152.69753,0.76274
6150.76878,0.76422
6148.84004,0.76341
6146.91129,0.76196
6144.98255,0.76143
6143.05380,0.76138
6141.12506,0.76097
6139.19631,0.76124
6137.26757,0.76333
6135.33882,0.76556
6133.41008,0.76562
6131.48133,0.76427
6129.55259,0.76359
6127.62384,0.76343
6125.69510,0.76304
6123.76635,0.76275
6121.83761,0.76265
6119.90886,0.76311
6117.98011,0.76461
6116.05137,0.76613
6114.12262,0.76617
6112.19388,0.76436
6110.26513,0.76241
6108.33639,0.76242
6106.40764,0.76439
6104.47890,0.76634
6102.55015,0.76646
6100.62141,0.76581
6098.69266,0.76678
6096.76392,0.76908
6094.83517,0.77011
6092.90643,0.76865
6090.97768,0.76683
6089.04893,0.76690
6087.12019,0.76802
6085.19144,0.76822
6083.26270,0.76740
6081.33395,0.76673
6079.40521,0.76638
6077.47646,0.76617
6075.54772,0.76712
6073.61897,0.76900
6071.69023,0.76945
6069.76148,0.76841
6067.83274,0.76791
6065.90399,0.76810
6063.97525,0.76844
6062.04650,0.76846
6060.11776,0.76757
6058.18901,0.76611
6056.26026,0.76528
6054.33152,0.76544
6052.40277,0.76552
6050.47403,0.76453
6048.54528,0.76278
6046.61654,0.76210
6044.68779,0.76289
6042.75905,0.76245
6040.83030,0.76095
6038.90156,0.76089
6036.97281,0.76107
6035.04407,0.76075
6033.11532,0.76169
6031.18658,0.76348
6029.25783,0.76465
6027.32909,0.76443
6025.40034,0.76246
6023.47159,0.76050
6021.54285,0.76034
6019.61410,0.76089
6017.68536,0.76042
6015.75661,0.75926
6013.82787,0.75855
6011.89912,0.75880
6009.97038,0.75926
6008.04163,0.75865
6006.11289,0.75739
6004.18414,0.75639
6002.25540,0.75581
6000.32665,0.75564
5998.39791,0.75474
5996.46916,0.75379
5994.54041,0.75474
5992.61167,0.75643
5990.68292,0.75740
5988.75418,0.75766
5986.82543,0.75688
5984.89669,0.75594
5982.96794,0.75647
5981.03920,0.75746
5979.11045,0.75661
5977.18171,0.75466
5975.25296,0.75367
5973.32422,0.75344
5971.39547,0.75338
5969.46673,0.75419
5967.53798,0.75550
5965.60924,0.75637
5963.68049,0.75647
5961.75174,0.75521
5959.82300,0.75356
5957.89425,0.75337
5955.96551,0.75338
5954.03676,0.75207
5952.10802,0.75119
5950.17927,0.75166
5948.25053,0.75167
5946.32178,0.75071
5944.39304,0.74974
5942.46429,0.74926
5940.53555,0.74927
5938.60680,0.74924
5936.67806,0.74949
5934.74931,0.75046
5932.82057,0.75099
5930.89182,0.75056
5928.96307,0.75083
5927.03433,0.75251
5925.10558,0.75346
5923.17684,0.75274
5921.24809,0.75194
5919.31935,0.75181
5917.39060,0.75145
5915.46186,0.74987
5913.53311,0.74832
5911.60437,0.74765
5909.67562,0.74649
5907.74688,0.74591
5905.81813,0.74711
5903.88939,0.74761
5901.96064,0.74606
5900.03189,0.74450
5898.10315,0.74483
5896.17440,0.74621
5894.24566,0.74644
5892.31691,0.74562
5890.38817,0.74612
5888.45942,0.74787
5886.53068,0.74795
5884.60193,0.74569
5882.67319,0.74282
5880.74444,0.74084
5878.81570,0.74085
5876.88695,0.74243
5874.95821,0.74345
5873.02946,0.74297
5871.10072,0.74155
5869.17197,0.73989
5867.24322,0.73897
5865.31448,0.73958
5863.38573,0.74135
5861.45699,0.74282
5859.52824,0.74310
5857.59950,0.74267
5855.67075,0.74205
5853.74201,0.74149
5851.81326,0.74163
5849.88452,0.74325
5847.95577,0.74538
5846.02703,0.74561
5844.09828,0.74392
5842.16954,0.74249
5840.24079,0.74217
5838.31205,0.74222
5836.38330,0.74205
5834.45455,0.74185
5832.52581,0.74171
5830.59706,0.74094
5828.66832,0.73983
5826.73957,0.73926
5824.81083,0.73805
5822.88208,0.73576
5820.95334,0.73476
5819.02459,0.73609
5817.09585,0.73826
5815.16710,0.73893
5813.23836,0.73690
5811.30961,0.73414
5809.38087,0.73311
5807.45212,0.73363
5805.52337,0.73428
5803.59463,0.73420
5801.66588,0.73365
5799.73714,0.73338
5797.80839,0.73305
5795.87965,0.73214
5793.95090,0.73185
5792.02216,0.73355
5790.09341,0.73564
5788.16467,0.73593
5786.23592,0.73560
5784.30718,0.73646
5782.37843,0.73742
5780.44969,0.73690
5778.52094,0.73577
5776.59220,0.73624
5774.66345,0.73859
5772.73470,0.74087
5770.80596,0.74151
5768.87721,0.74083
5766.94847,0.74025
5765.01972,0.74060
5763.09098,0.74098
5761.16223,0.74071
5759.23349,0.74090
5757.30474,0.74180
5755.37600,0.74218
5753.44725,0.74216
5751.51851,0.74256
5749.58976,0.74328
5747.66102,0.74363
5745.73227,0.74307
5743.80352,0.74209
5741.87478,0.74177
5739.94603,0.74284
5738.01729,0.74533
5736.08854,0.74716
5734.15980,0.74658
5732.23105,0.74477
5730.30231,0.74292
5728.37356,0.74200
5726.44482,0.74285
5724.51607,0.74404
5722.58733,0.74412
5720.65858,0.74363
5718.72984,0.74339
5716.80109,0.74352
5714.87235,0.74371
5712.94360,0.74352
5711.01485,0.74327
5709.08611,0.74389
5707.15736,0.74505
5705.22862,0.74562
5703.29987,0.74574
5701.37113,0.74582
5699.44238,0.74517
5697.51364,0.74354
5695.58489,0.74209
5693.65615,0.74169
5691.72740,0.74187
5689.79866,0.74221
5687.86991,0.74273
5685.94117,0.74253
5684.01242,0.74110
5682.08368,0.73990
5680.15493,0.74023
5678.22618,0.74144
5676.29744,0.74199
5674.36869,0.74166
5672.43995,0.74150
5670.51120,0.74187
5668.58246,0.74203
5666.65371,0.74203
5664.72497,0.74259
5662.79622,0.74296
5660.86748,0.74214
5658.93873,0.74096
5657.00999,0.74067
5655.08124,0.74139
5653.15250,0.74260
5651.22375,0.74359
5649.29500,0.74331
5647.36626,0.74202
5645.43751,0.74142
5643.50877,0.74162
5641.58002,0.74147
5639.65128,0.74096
5637.72253,0.74055
5635.79379,0.74018
5633.86504,0.74029
5631.93630,0.74090
5630.00755,0.74076
5628.07881,0.73935
5626.15006,0.73792
5624.22132,0.73787
5622.29257,0.73895
5620.36383,0.74025
5618.43508,0.74127
5616.50633,0.74172
5614.57759,0.74174
5612.64884,0.74106
5610.72010,0.73999
5608.79135,0.73995
5606.86261,0.74103
5604.93386,0.74143
5603.00512,0.74007
5601.07637,0.73913
5599.14763,0.74045
5597.21888,0.74218
5595.29014,0.74257
5593.36139,0.74214
5591.43265,0.74151
5589.50390,0.74078
5587.57516,0.74057
5585.64641,0.74121
5583.71766,0.74168
5581.78892,0.74171
5579.86017,0.74231
5577.93143,0.74294
5576.00268,0.74261
5574.07394,0.74249
5572.14519,0.74314
5570.21645,0.74384
5568.28770,0.74430
5566.35896,0.74368
5564.43021,0.74234
5562.50147,0.74199
5560.57272,0.74270
5558.64398,0.74351
5556.71523,0.74414
5554.78648,0.74420
5552.85774,0.74365
5550.92899,0.74361
5549.00025,0.74426
5547.07150,0.74475
5545.14276,0.74487
5543.21401,0.74441
5541.28527,0.74355
5539.35652,0.74306
5537.42778,0.74308
5535.49903,0.74325
5533.57029,0.74346
5531.64154,0.74416
5529.71280,0.74604
5527.78405,0.74825
5525.85531,0.74852
5523.92656,0.74666
5521.99781,0.74491
5520.06907,0.74474
5518.14032,0.74531
5516.21158,0.74521
5514.28283,0.74505
5512.35409,0.74574
5510.42534,0.74635
5508.49660,0.74646
5506.56785,0.74650
5504.63911,0.74674
5502.71036,0.74701
5500.78162,0.74646
5498.85287,0.74538
5496.92413,0.74545
5494.99538,0.74692
5493.06664,0.74845
5491.13789,0.74909
5489.20914,0.74872
5487.28040,0.74761
5485.35165,0.74674
5483.42291,0.74720
5481.49416,0.74868
5479.56542,0.74981
5477.63667,0.75004
5475.70793,0.74995
5473.77918,0.74970
5471.85044,0.74902
5469.92169,0.74861
5467.99295,0.74886
5466.06420,0.74937
5464.13546,0.75002
5462.20671,0.75069
5460.27796,0.75098
5458.34922,0.75082
5456.42047,0.75095
5454.49173,0.75145
5452.56298,0.75133
5450.63424,0.75062
5448.70549,0.75000
5446.77675,0.75004
5444.84800,0.75125
5442.91926,0.75264
5440.99051,0.75340
5439.06177,0.75418
5437.13302,0.75513
5435.20428,0.75556
5433.27553,0.75538
5431.34679,0.75524
5429.41804,0.75540
5427.48929,0.75567
5425.56055,0.75628
5423.63180,0.75705
5421.70306,0.75751
5419.77431,0.75797
5417.84557,0.75855
5415.91682,0.75866
5413.98808,0.75826
5412.05933,0.75769
5410.13059,0.75726
5408.20184,0.75715
5406.27310,0.75718
5404.34435,0.75774
5402.41561,0.75901
5400.48686,0.75974
5398.55811,0.75968
5396.62937,0.76020
5394.70062,0.76138
5392.77188,0.76246
5390.84313,0.76312
5388.91439,0.76316
5386.98564,0.76292
5385.05690,0.76276
5383.12815,0.76265
5381.19941,0.76256
5379.27066,0.76217
5377.34192,0.76115
5375.41317,0.75985
5373.48443,0.75922
5371.55568,0.75958
5369.62694,0.76019
5367.69819,0.76047
5365.76944,0.76078
5363.84070,0.76109
5361.91195,0.76088
5359.98321,0.76082
5358.05446,0.76160
5356.12572,0.76242
5354.19697,0.76261
5352.26823,0.76214
5350.33948,0.76098
5348.41074,0.75945
5346.48199,0.75846
5344.55325,0.75837
5342.62450,0.75865
5340.69576,0.75890
5338.76701,0.75913
5336.83827,0.75924
5334.90952,0.75914
5332.98077,0.75875
5331.05203,0.75802
5329.12328,0.75706
5327.19454,0.75606
5325.26579,0.75556
5323.33705,0.75578
5321.40830,0.75579
5319.47956,0.75439
5317.55081,0.75257
5315.62207,0.75179
5313.69332,0.75091
5311.76458,0.74900
5309.83583,0.74710
5307.90709,0.74569
5305.97834,0.74443
5304.04959,0.74334
5302.12085,0.74255
5300.19210,0.74128
5298.26336,0.73913
5296.33461,0.73701
5294.40587,0.73556
5292.47712,0.73424
5290.54838,0.73185
5288.61963,0.72837
5286.69089,0.72512
5284.76214,0.72261
5282.83340,0.72034
5280.90465,0.71801
5278.97591,0.71559
5277.04716,0.71305
5275.11842,0.71022
5273.18967,0.70712
5271.26092,0.70378
5269.33218,0.70024
5267.40343,0.69694
5265.47469,0.69391
5263.54594,0.69058
5261.61720,0.68718
5259.68845,0.68397
5257.75971,0.68046
5255.83096,0.67677
5253.90222,0.67336
5251.97347,0.67004
5250.04473,0.66689
5248.11598,0.66446
5246.18724,0.66279
5244.25849,0.66108
5242.32975,0.65871
5240.40100,0.65568
5238.47225,0.65264
5236.54351,0.65038
5234.61476,0.64901
5232.68602,0.64774
5230.75727,0.64564
5228.82853,0.64339
5226.89978,0.64209
5224.97104,0.64067
5223.04229,0.63800
5221.11355,0.63546
5219.18480,0.63443
5217.25606,0.63415
5215.32731,0.63381
5213.39857,0.63353
5211.46982,0.63290
5209.54107,0.63166
5207.61233,0.63072
5205.68358,0.63068
5203.75484,0.63077
5201.82609,0.63041
5199.89735,0.63025
5197.96860,0.63015
5196.03986,0.62962
5194.11111,0.62930
5192.18237,0.62951
5190.25362,0.62965
5188.32488,0.62961
5186.39613,0.62978
5184.46739,0.63019
5182.53864,0.63094
5180.60990,0.63206
5178.68115,0.63332
5176.75240,0.63467
5174.82366,0.63537
5172.89491,0.63494
5170.96617,0.63447
5169.03742,0.63469
5167.10868,0.63554
5165.17993,0.63707
5163.25119,0.63850
5161.32244,0.63887
5159.39370,0.63915
5157.46495,0.64076
5155.53621,0.64294
5153.60746,0.64422
5151.67872,0.64450
5149.74997,0.64490
5147.82123,0.64628
5145.89248,0.64785
5143.96373,0.64858
5142.03499,0.64940
5140.10624,0.65103
5138.17750,0.65237
5136.24875,0.65301
5134.32001,0.65379
5132.39126,0.65491
5130.46252,0.65604
5128.53377,0.65697
5126.60503,0.65791
5124.67628,0.65947
5122.74754,0.66124
5120.81879,0.66197
5118.89005,0.66190
5116.96130,0.66249
5115.03255,0.66395
5113.10381,0.66523
5111.17506,0.66620
5109.24632,0.66771
5107.31757,0.66957
5105.38883,0.67050
5103.46008,0.67034
5101.53134,0.67014
5099.60259,0.67047
5097.67385,0.67138
5095.74510,0.67291
5093.81636,0.67467
5091.88761,0.67587
5089.95887,0.67668
5088.03012,0.67778
5086.10138,0.67864
5084.17263,0.67875
5082.24388,0.67914
5080.31514,0.68056
5078.38639,0.68178
5076.45765,0.68203
5074.52890,0.68276
5072.60016,0.68429
5070.67141,0.68522
5068.74267,0.68546
5066.81392,0.68572
5064.88518,0.68615
5062.95643,0.68689
5061.02769,0.68767
5059.09894,0.68806
5057.17020,0.68839
5055.24145,0.68921
5053.31270,0.69026
5051.38396,0.69076
5049.45521,0.69093
5047.52647,0.69180
5045.59772,0.69303
5043.66898,0.69332
5041.74023,0.69297
5039.81149,0.69300
5037.88274,0.69324
5035.95400,0.69381
5034.02525,0.69512
5032.09651,0.69619
5030.16776,0.69632
5028.23902,0.69598
5026.31027,0.69535
5024.38153,0.69502
5022.45278,0.69570
5020.52403,0.69669
5018.59529,0.69703
5016.66654,0.69676
5014.73780,0.69642
5012.80905,0.69636
5010.88031,0.69656
5008.95156,0.69675
5007.02282,0.69659
5005.09407,0.69622
5003.16533,0.69632
5001.23658,0.69689
4999.30784,0.69693
4997.37909,0.69624
4995.45035,0.69570
4993.52160,0.69544
4991.59286,0.69488
4989.66411,0.69425
4987.73536,0.69392
4985.80662,0.69374
4983.87787,0.69364
4981.94913,0.69321
4980.02038,0.69203
4978.09164,0.69073
4976.16289,0.69000
4974.23415,0.68911
4972.30540,0.68749
4970.37666,0.68608
4968.44791,0.68549
4966.51917,0.68516
4964.59042,0.68457
4962.66168,0.68358
4960.73293,0.68228
4958.80418,0.68109
4956.87544,0.67957
4954.94669,0.67720
4953.01795,0.67508
4951.08920,0.67343
4949.16046,0.67137
4947.23171,0.66924
4945.30297,0.66743
4943.37422,0.66571
4941.44548,0.66415
4939.51673,0.66270
4937.58799,0.66095
4935.65924,0.65881
4933.73050,0.65631
4931.80175,0.65375
4929.87301,0.65162
4927.94426,0.64980
4926.01551,0.64813
4924.08677,0.64670
4922.15802,0.64476
4920.22928,0.64190
4918.30053,0.63910
4916.37179,0.63713
4914.44304,0.63550
4912.51430,0.63337
4910.58555,0.63076
4908.65681,0.62822
4906.72806,0.62589
4904.79932,0.62402
4902.87057,0.62250
4900.94183,0.62046
4899.01308,0.61800
4897.08434,0.61577
4895.15559,0.61379
4893.22684,0.61206
4891.29810,0.61025
4889.36935,0.60817
4887.44061,0.60635
4885.51186,0.60460
4883.58312,0.60221
4881.65437,0.59954
4879.72563,0.59756
4877.79688,0.59629
4875.86814,0.59478
4873.93939,0.59284
4872.01065,0.59091
4870.08190,0.58913
4868.15316,0.58752
4866.22441,0.58595
4864.29566,0.58438
4862.36692,0.58283
4860.43817,0.58113
4858.50943,0.57951
4856.58068,0.57798
4854.65194,0.57634
4852.72319,0.57482
4850.79445,0.57339
4848.86570,0.57183
4846.93696,0.57034
4845.00821,0.56942
4843.07947,0.56882
4841.15072,0.56769
4839.22198,0.56587
4837.29323,0.56383
4835.36449,0.56191
4833.43574,0.56016
4831.50699,0.55855
4829.57825,0.55716
4827.64950,0.55622
4825.72076,0.55587
4823.79201,0.55561
4821.86327,0.55467
4819.93452,0.55308
4818.00578,0.55158
4816.07703,0.55068
4814.14829,0.55012
4812.21954,0.54949
4810.29080,0.54906
4808.36205,0.54873
4806.43331,0.54800
4804.50456,0.54723
4802.57582,0.54673
4800.64707,0.54612
4798.71832,0.54561
4796.78958,0.54566
4794.86083,0.54568
4792.93209,0.54519
4791.00334,0.54445
4789.07460,0.54388
4787.14585,0.54379
4785.21711,0.54398
4783.28836,0.54397
4781.35962,0.54341
4779.43087,0.54233
4777.50213,0.54158
4775.57338,0.54150
4773.64464,0.54128
4771.71589,0.54043
4769.78714,0.53982
4767.85840,0.54027
4765.92965,0.54118
4764.00091,0.54154
4762.07216,0.54116
4760.14342,0.54074
4758.21467,0.54088
4756.28593,0.54121
4754.35718,0.54110
4752.42844,0.54082
4750.49969,0.54093
4748.57095,0.54133
4746.64220,0.54170
4744.71346,0.54188
4742.78471,0.54168
4740.85597,0.54138
4738.92722,0.54157
4736.99847,0.54225
4735.06973,0.54286
4733.14098,0.54300
4731.21224,0.54309
4729.28349,0.54359
4727.35475,0.54383
4725.42600,0.54347
4723.49726,0.54332
4721.56851,0.54370
4719.63977,0.54432
4717.71102,0.54530
4715.78228,0.54605
4713.85353,0.54561
4711.92479,0.54485
4709.99604,0.54509
4708.06729,0.54582
4706.13855,0.54647
4704.20980,0.54714
4702.28106,0.54752
4700.35231,0.54763
4698.42357,0.54822
4696.49482,0.54946
4694.56608,0.55041
4692.63733,0.55038
4690.70859,0.55008
4688.77984,0.55046
4686.85110,0.55131
4684.92235,0.55198
4682.99361,0.55258
4681.06486,0.55365
4679.13612,0.55502
4677.20737,0.55577
4675.27862,0.55586
4673.34988,0.55624
4671.42113,0.55722
4669.49239,0.55821
4667.56364,0.55904
4665.63490,0.55980
4663.70615,0.56025
4661.77741,0.56075
4659.84866,0.56192
4657.91992,0.56317
4655.99117,0.56371
4654.06243,0.56424
4652.13368,0.56538
4650.20494,0.56639
4648.27619,0.56694
4646.34745,0.56769
4644.41870,0.56883
4642.48995,0.56992
4640.56121,0.57052
4638.63246,0.57079
4636.70372,0.57137
4634.77497,0.57255
4632.84623,0.57388
4630.91748,0.57462
4628.98874,0.57491
4627.05999,0.57541
4625.13125,0.57612
4623.20250,0.57673
4621.27376,0.57728
4619.34501,0.57815
4617.41627,0.57945
4615.48752,0.58066
4613.55877,0.58142
4611.63003,0.58201
4609.70128,0.58278
4607.77254,0.58362
4605.84379,0.58424
4603.91505,0.58469
4601.98630,0.58521
4600.05756,0.58593
4598.12881,0.58670
4596.20007,0.58746
4594.27132,0.58844
4592.34258,0.58947
4590.41383,0.59029
4588.48509,0.59105
4586.55634,0.59161
4584.62760,0.59180
4582.69885,0.59205
4580.77010,0.59251
4578.84136,0.59292
4576.91261,0.59356
4574.98387,0.59470
4573.05512,0.59556
4571.12638,0.59578
4569.19763,0.59607
4567.26889,0.59653
4565.34014,0.59679
4563.41140,0.59719
4561.48265,0.59818
4559.55391,0.59917
4557.62516,0.59953
4555.69642,0.59953
4553.76767,0.59966
4551.83893,0.60010
4549.91018,0.60067
4547.98143,0.60140
4546.05269,0.60236
4544.12394,0.60308
4542.19520,0.60358
4540.26645,0.60431
4538.33771,0.60506
4536.40896,0.60534
4534.48022,0.60507
4532.55147,0.60469
4530.62273,0.60471
4528.69398,0.60522
4526.76524,0.60580
4524.83649,0.60627
4522.90775,0.60664
4520.97900,0.60679
4519.05025,0.60683
4517.12151,0.60678
4515.19276,0.60654
4513.26402,0.60624
4511.33527,0.60596
4509.40653,0.60599
4507.47778,0.60625
4505.54904,0.60617
4503.62029,0.60552
4501.69155,0.60458
4499.76280,0.60366
4497.83406,0.60290
4495.90531,0.60225
4493.97657,0.60136
4492.04782,0.60016
4490.11908,0.59899
4488.19033,0.59769
4486.26158,0.59599
4484.33284,0.59399
4482.40409,0.59184
4480.47535,0.59002
4478.54660,0.58854
4476.61786,0.58676
4474.68911,0.58456
4472.76037,0.58217
4470.83162,0.57957
4468.90288,0.57701
4466.97413,0.57479
4465.04539,0.57247
4463.11664,0.56981
4461.18790,0.56721
4459.25915,0.56474
4457.33041,0.56237
4455.40166,0.56008
4453.47291,0.55741
4451.54417,0.55425
4449.61542,0.55109
4447.68668,0.54822
4445.75793,0.54544
4443.82919,0.54268
4441.90044,0.54015
4439.97170,0.53762
4438.04295,0.53496
4436.11421,0.53242
4434.18546,0.53012
4432.25672,0.52815
4430.32797,0.52643
4428.39923,0.52448
4426.47048,0.52226
4424.54173,0.52035
4422.61299,0.51878
4420.68424,0.51698
4418.75550,0.51514
4416.82675,0.51364
4414.89801,0.51212
4412.96926,0.51072
4411.04052,0.50973
4409.11177,0.50885
4407.18303,0.50794
4405.25428,0.50702
4403.32554,0.50607
4401.39679,0.50535
4399.46805,0.50509
4397.53930,0.50501
4395.61056,0.50487
4393.68181,0.50487
4391.75306,0.50497
4389.82432,0.50496
4387.89557,0.50518
4385.96683,0.50589
4384.03808,0.50677
4382.10934,0.50753
4380.18059,0.50816
4378.25185,0.50894
4376.32310,0.51022
4374.39436,0.51154
4372.46561,0.51209
4370.53687,0.51227
4368.60812,0.51308
4366.67938,0.51439
4364.75063,0.51540
4362.82189,0.51574
4360.89314,0.51574
4358.96439,0.51585
4357.03565,0.51579
4355.10690,0.51510
4353.17816,0.51419
4351.24941,0.51354
4349.32067,0.51278
4347.39192,0.51176
4345.46318,0.51096
4343.53443,0.51044
4341.60569,0.50959
4339.67694,0.50835
4337.74820,0.50738
4335.81945,0.50680
4333.89071,0.50605
4331.96196,0.50498
4330.03321,0.50368
4328.10447,0.50236
4326.17572,0.50129
4324.24698,0.50059
4322.31823,0.50010
4320.38949,0.49940
4318.46074,0.49826
4316.53200,0.49709
4314.60325,0.49648
4312.67451,0.49631
4310.74576,0.49592
4308.81702,0.49517
4306.88827,0.49430
4304.95953,0.49336
4303.03078,0.49244
4301.10204,0.49177
4299.17329,0.49136
4297.24454,0.49105
4295.31580,0.49065
4293.38705,0.48994
4291.45831,0.48897
4289.52956,0.48799
4287.60082,0.48722
4285.67207,0.48684
4283.74333,0.48680
4281.81458,0.48709
4279.88584,0.48753
4277.95709,0.48772
4276.02835,0.48788
4274.09960,0.48822
4272.17086,0.48827
4270.24211,0.48825
4268.31336,0.48884
4266.38462,0.48958
4264.45587,0.48983
4262.52713,0.48992
4260.59838,0.49025
4258.66964,0.49067
4256.74089,0.49105
4254.81215,0.49156
4252.88340,0.49202
4250.95466,0.49228
4249.02591,0.49260
4247.09717,0.49314
4245.16842,0.49377
4243.23968,0.49437
4241.31093,0.49484
4239.38219,0.49518
4237.45344,0.49538
4235.52469,0.49561
4233.59595,0.49619
4231.66720,0.49678
4229.73846,0.49687
4227.80971,0.49685
4225.88097,0.49702
4223.95222,0.49703
4222.02348,0.49690
4220.09473,0.49703
4218.16599,0.49731
4216.23724,0.49742
4214.30850,0.49739
4212.37975,0.49738
4210.45101,0.49760
4208.52226,0.49817
4206.59352,0.49874
4204.66477,0.49906
4202.73602,0.49927
4200.80728,0.49934
4198.87853,0.49925
4196.94979,0.49925
4195.02104,0.49963
4193.09230,0.50003
4191.16355,0.50005
4189.23481,0.49997
4187.30606,0.50029
4185.37732,0.50108
4183.44857,0.50192
4181.51983,0.50247
4179.59108,0.50273
4177.66234,0.50295
4175.73359,0.50323
4173.80484,0.50334
4171.87610,0.50339
4169.94735,0.50384
4168.01861,0.50461
4166.08986,0.50512
4164.16112,0.50515
4162.23237,0.50500
4160.30363,0.50467
4158.37488,0.50395
4156.44614,0.50320
4154.51739,0.50290
4152.58865,0.50293
4150.65990,0.50287
4148.73116,0.50252
4146.80241,0.50190
4144.87367,0.50114
4142.94492,0.50029
4141.01617,0.49919
4139.08743,0.49788
4137.15868,0.49673
4135.22994,0.49574
4133.30119,0.49448
4131.37245,0.49282
4129.44370,0.49109
4127.51496,0.48971
4125.58621,0.48875
4123.65747,0.48775
4121.72872,0.48632
4119.79998,0.48456
4117.87123,0.48279
4115.94249,0.48106
4114.01374,0.47920
4112.08500,0.47726
4110.15625,0.47552
4108.22750,0.47383
4106.29876,0.47191
4104.37001,0.46982
4102.44127,0.46790
4100.51252,0.46602
4098.58378,0.46385
4096.65503,0.46175
4094.72629,0.46009
4092.79754,0.45845
4090.86880,0.45647
4088.94005,0.45417
4087.01131,0.45183
4085.08256,0.44976
4083.15382,0.44779
4081.22507,0.44585
4079.29632,0.44389
4077.36758,0.44161
4075.43883,0.43905
4073.51009,0.43657
4071.58134,0.43439
4069.65260,0.43233
4067.72385,0.42993
4065.79511,0.42716
4063.86636,0.42458
4061.93762,0.42252
4060.00887,0.42060
4058.08013,0.41844
4056.15138,0.41610
4054.22264,0.41379
4052.29389,0.41172
4050.36515,0.40995
4048.43640,0.40831
4046.50765,0.40660
4044.57891,0.40475
4042.65016,0.40304
4040.72142,0.40158
4038.79267,0.40008
4036.86393,0.39843
4034.93518,0.39671
4033.00644,0.39505
4031.07769,0.39361
4029.14895,0.39227
4027.22020,0.39111
4025.29146,0.39042
4023.36271,0.39005
4021.43397,0.38964
4019.50522,0.38908
4017.57648,0.38855
4015.64773,0.38826
4013.71898,0.38821
4011.79024,0.38833
4009.86149,0.38856
4007.93275,0.38885
4006.00400,0.38918
4004.07526,0.38972
4002.14651,0.39042
4000.21777,0.39083
3998.28902,0.39103
3996.36028,0.39153
3994.43153,0.39235
3992.50279,0.39315
3990.57404,0.39382
3988.64530,0.39450
3986.71655,0.39541
3984.78780,0.39643
3982.85906,0.39742
3980.93031,0.39844
3979.00157,0.39925
3977.07282,0.39981
3975.14408,0.40050
3973.21533,0.40136
3971.28659,0.40214
3969.35784,0.40300
3967.42910,0.40413
3965.50035,0.40530
3963.57161,0.40641
3961.64286,0.40758
3959.71412,0.40880
3957.78537,0.41003
3955.85663,0.41102
3953.92788,0.41163
3951.99913,0.41235
3950.07039,0.41362
3948.14164,0.41506
3946.21290,0.41620
3944.28415,0.41718
3942.35541,0.41825
3940.42666,0.41926
3938.49792,0.42018
3936.56917,0.42125
3934.64043,0.42257
3932.71168,0.42407
3930.78294,0.42546
3928.85419,0.42653
3926.92545,0.42743
3924.99670,0.42829
3923.06795,0.42919
3921.13921,0.43034
3919.21046,0.43190
3917.28172,0.43335
3915.35297,0.43431
3913.42423,0.43520
3911.49548,0.43624
3909.56674,0.43728
3907.63799,0.43811
3905.70925,0.43909
3903.78050,0.44055
3901.85176,0.44208
3899.92301,0.44331
3897.99427,0.44425
3896.06552,0.44514
3894.13678,0.44633
3892.20803,0.44756
3890.27928,0.44821
3888.35054,0.44875
3886.42179,0.45013
3884.49305,0.45195
3882.56430,0.45327
3880.63556,0.45406
3878.70681,0.45456
3876.77807,0.45514
3874.84932,0.45623
3872.92058,0.45772
3870.99183,0.45926
3869.06309,0.46054
3867.13434,0.46159
3865.20560,0.46271
3863.27685,0.46385
3861.34811,0.46500
3859.41936,0.46632
3857.49061,0.46762
3855.56187,0.46918
3853.63312,0.47150
3851.70438,0.47320
3849.77563,0.47389
3847.84689,0.47474
3845.91814,0.47580
3843.98940,0.47670
3842.06065,0.47743
3840.13191,0.47822
3838.20316,0.47950
3836.27442,0.48089
3834.34567,0.48163
3832.41693,0.48207
3830.48818,0.48245
3828.55943,0.48265
3826.63069,0.48297
3824.70194,0.48363
3822.77320,0.48450
3820.84445,0.48544
3818.91571,0.48584
3816.98696,0.48566
3815.05822,0.48519
3813.12947,0.48461
3811.20073,0.48448
3809.27198,0.48493
3807.34324,0.48561
3805.41449,0.48612
3803.48575,0.48637
3801.55700,0.48658
3799.62826,0.48659
3797.69951,0.48629
3795.77076,0.48587
3793.84202,0.48544
3791.91327,0.48523
3789.98453,0.48515
3788.05578,0.48503
3786.12704,0.48491
3784.19829,0.48481
3782.26955,0.48473
3780.34080,0.48463
3778.41206,0.48429
3776.48331,0.48363
3774.55457,0.48302
3772.62582,0.48282
3770.69708,0.48280
3768.76833,0.48249
3766.83959,0.48196
3764.91084,0.48140
3762.98209,0.48066
3761.05335,0.47995
3759.12460,0.47941
3757.19586,0.47882
3755.26711,0.47822
3753.33837,0.47780
3751.40962,0.47739
3749.48088,0.47656
3747.55213,0.47559
3745.62339,0.47511
3743.69464,0.47467
3741.76590,0.47339
3739.83715,0.47191
3737.90841,0.47092
3735.97966,0.47017
3734.05091,0.46900
3732.12217,0.46685
3730.19342,0.46430
3728.26468,0.46224
3726.33593,0.46049
3724.40719,0.45847
3722.47844,0.45633
3720.54970,0.45422
3718.62095,0.45191
3716.69221,0.44948
3714.76346,0.44724
3712.83472,0.44505
3710.90597,0.44222
3708.97723,0.43864
3707.04848,0.43481
3705.11974,0.43110
3703.19099,0.42738
3701.26224,0.42308
3699.33350,0.41844
3697.40475,0.41390
3695.47601,0.40920
3693.54726,0.40413
3691.61852,0.39841
3689.68977,0.39179
3687.76103,0.38446
3685.83228,0.37720
3683.90354,0.37018
3681.97479,0.36284
3680.04605,0.35516
3678.11730,0.34744
3676.18856,0.33888
3674.25981,0.32960
3672.33107,0.32092
3670.40232,0.31194
3668.47357,0.30232
3666.54483,0.29323
3664.61608,0.28450
3662.68734,0.27599
3660.75859,0.26802
3658.82985,0.26052
3656.90110,0.25295
3654.97236,0.24557
3653.04361,0.23904
3651.11487,0.23270
3649.18612,0.22575
3647.25738,0.21870
3645.32863,0.21241
3643.39989,0.20669
3641.47114,0.20096
3639.54239,0.19534
3637.61365,0.19015
3635.68490,0.18526
3633.75616,0.18062
3631.82741,0.17644
3629.89867,0.17206
3627.96992,0.16686
3626.04118,0.16195
3624.11243,0.15786
3622.18369,0.15421
3620.25494,0.15065
3618.32620,0.14692
3616.39745,0.14311
3614.46871,0.13945
3612.53996,0.13610
3610.61122,0.13307
3608.68247,0.12999
3606.75372,0.12652
3604.82498,0.12307
3602.89623,0.12014
3600.96749,0.11752
3599.03874,0.11488
3597.11000,0.11230
3595.18125,0.10994
3593.25251,0.10765
3591.32376,0.10549
3589.39502,0.10346
3587.46627,0.10109
3585.53753,0.09863
3583.60878,0.09651
3581.68004,0.09456
3579.75129,0.09271
3577.82254,0.09110
3575.89380,0.08971
3573.96505,0.08831
3572.03631,0.08683
3570.10756,0.08542
3568.17882,0.08411
3566.25007,0.08278
3564.32133,0.08145
3562.39258,0.08003
3560.46384,0.07851
3558.53509,0.07709
3556.60635,0.07585
3554.67760,0.07485
3552.74886,0.07394
3550.82011,0.07291
3548.89137,0.07188
3546.96262,0.07082
3545.03387,0.06969
3543.10513,0.06881
3541.17638,0.06787
3539.24764,0.06655
3537.31889,0.06548
3535.39015,0.06511
3533.46140,0.06499
3531.53266,0.06449
3529.60391,0.06362
3527.67517,0.06283
3525.74642,0.06221
3523.81768,0.06160
3521.88893,0.06114
3519.96019,0.06072
3518.03144,0.06010
3516.10270,0.05946
3514.17395,0.05882
3512.24520,0.05795
3510.31646,0.05701
3508.38771,0.05641
3506.45897,0.05643
3504.53022,0.05642
3502.60148,0.05580
3500.67273,0.05508
3498.74399,0.05459
3496.81524,0.05402
3494.88650,0.05328
3492.95775,0.05272
3491.02901,0.05256
3489.10026,0.05257
3487.17152,0.05238
3485.24277,0.05193
3483.31402,0.05154
3481.38528,0.05130
3479.45653,0.05114
3477.52779,0.05100
3475.59904,0.05064
3473.67030,0.04989
3471.74155,0.04911
3469.81281,0.04873
3467.88406,0.04864
3465.95532,0.04853
3464.02657,0.04843
3462.09783,0.04835
3460.16908,0.04820
3458.24034,0.04788
3456.31159,0.04745
3454.38285,0.04709
3452.45410,0.04689
3450.52535,0.04697
3448.59661,0.04724
3446.66786,0.04714
3444.73912,0.04660
3442.81037,0.04616
3440.88163,0.04598
3438.95288,0.04577
3437.02414,0.04561
3435.09539,0.04554
3433.16665,0.04526
3431.23790,0.04498
3429.30916,0.04520
3427.38041,0.04564
3425.45167,0.04574
3423.52292,0.04552
3421.59418,0.04532
3419.66543,0.04529
3417.73668,0.04532
3415.80794,0.04534
3413.87919,0.04551
3411.95045,0.04573
3410.02170,0.04567
3408.09296,0.04540
3406.16421,0.04518
3404.23547,0.04511
3402.30672,0.04520
3400.37798,0.04535
3398.44923,0.04547
3396.52049,0.04560
3394.59174,0.04581
3392.66300,0.04588
3390.73425,0.04578
3388.80550,0.04611
3386.87676,0.04684
3384.94801,0.04726
3383.01927,0.04719
3381.09052,0.04699
3379.16178,0.04682
3377.23303,0.04670
3375.30429,0.04686
3373.37554,0.04723
3371.44680,0.04736
3369.51805,0.04718
3367.58931,0.04707
3365.66056,0.04714
3363.73182,0.04716
3361.80307,0.04709
3359.87433,0.04719
3357.94558,0.04747
3356.01683,0.04769
3354.08809,0.04784
3352.15934,0.04795
3350.23060,0.04813
3348.30185,0.04855
3346.37311,0.04892
3344.44436,0.04899
3342.51562,0.04890
3340.58687,0.04883
3338.65813,0.04905
3336.72938,0.04956
3334.80064,0.04994
3332.87189,0.05008
3330.94315,0.05018
3329.01440,0.05039
3327.08566,0.05081
3325.15691,0.05133
3323.22816,0.05162
3321.29942,0.05164
3319.37067,0.05171
3317.44193,0.05208
3315.51318,0.05259
3313.58444,0.05310
3311.65569,0.05344
3309.72695,0.05364
3307.79820,0.05398
3305.86946,0.05445
3303.94071,0.05471
3302.01197,0.05466
3300.08322,0.05474
3298.15448,0.05520
3296.22573,0.05579
3294.29698,0.05641
3292.36824,0.05702
3290.43949,0.05734
3288.51075,0.05737
3286.58200,0.05729
3284.65326,0.05745
3282.72451,0.05814
3280.79577,0.05902
3278.86702,0.05961
3276.93828,0.05990
3275.00953,0.06004
3273.08079,0.06019
3271.15204,0.06044
3269.22330,0.06082
3267.29455,0.06135
3265.36581,0.06202
3263.43706,0.06277
3261.50831,0.06346
3259.57957,0.06393
3257.65082,0.06423
3255.72208,0.06471
3253.79333,0.06545
3251.86459,0.06614
3249.93584,0.06663
3248.00710,0.06719
3246.07835,0.06782
3244.14961,0.06836
3242.22086,0.06907
3240.29212,0.07012
3238.36337,0.07117
3236.43463,0.07174
3234.50588,0.07179
3232.57713,0.07192
3230.64839,0.07248
3228.71964,0.07340
3226.79090,0.07439
3224.86215,0.07487
3222.93341,0.07488
3221.00466,0.07528
3219.07592,0.07628
3217.14717,0.07732
3215.21843,0.07805
3213.28968,0.07871
3211.36094,0.07950
3209.43219,0.08009
3207.50345,0.08037
3205.57470,0.08069
3203.64596,0.08132
3201.71721,0.08210
3199.78846,0.08268
3197.85972,0.08313
3195.93097,0.08386
3194.00223,0.08497
3192.07348,0.08597
3190.14474,0.08630
3188.21599,0.08634
3186.28725,0.08700
3184.35850,0.08803
3182.42976,0.08861
3180.50101,0.08901
3178.57227,0.08986
3176.64352,0.09096
3174.71478,0.09180
3172.78603,0.09233
3170.85729,0.09281
3168.92854,0.09335
3166.99979,0.09405
3165.07105,0.09480
3163.14230,0.09550
3161.21356,0.09619
3159.28481,0.09689
3157.35607,0.09766
3155.42732,0.09859
3153.49858,0.09948
3151.56983,0.10011
3149.64109,0.10066
3147.71234,0.10134
3145.78360,0.10205
3143.85485,0.10267
3141.92611,0.10314
3139.99736,0.10347
3138.06861,0.10404
3136.13987,0.10516
3134.21112,0.10637
3132.28238,0.10732
3130.35363,0.10815
3128.42489,0.10881
3126.49614,0.10939
3124.56740,0.11027
3122.63865,0.11118
3120.70991,0.11161
3118.78116,0.11178
3116.85242,0.11218
3114.92367,0.11296
3112.99493,0.11390
3111.06618,0.11474
3109.13744,0.11554
3107.20869,0.11643
3105.27994,0.11721
3103.35120,0.11761
3101.42245,0.11797
3099.49371,0.11872
3097.56496,0.11957
3095.63622,0.12008
3093.70747,0.12047
3091.77873,0.12126
3089.84998,0.12234
3087.92124,0.12322
3085.99249,0.12378
3084.06375,0.12424
3082.13500,0.12479
3080.20626,0.12547
3078.27751,0.12610
3076.34877,0.12657
3074.42002,0.12697
3072.49127,0.12762
3070.56253,0.12854
3068.63378,0.12939
3066.70504,0.13011
3064.77629,0.13086
3062.84755,0.13163
3060.91880,0.13250
3058.99006,0.13356
3057.06131,0.13460
3055.13257,0.13541
3053.20382,0.13603
3051.27508,0.13651
3049.34633,0.13680
3047.41759,0.13710
3045.48884,0.13774
3043.56009,0.13870
3041.63135,0.13954
3039.70260,0.13993
3037.77386,0.14007
3035.84511,0.14017
3033.91637,0.14032
3031.98762,0.14060
3030.05888,0.14081
3028.13013,0.14082
3026.20139,0.14074
3024.27264,0.14053
3022.34390,0.14025
3020.41515,0.14006
3018.48641,0.13980
3016.55766,0.13929
3014.62892,0.13863
3012.70017,0.13785
3010.77142,0.13694
3008.84268,0.13607
3006.91393,0.13539
3004.98519,0.13480
3003.05644,0.13396
3001.12770,0.13293
2999.19895,0.13209
2997.27021,0.13138
2995.34146,0.13048
2993.41272,0.12962
2991.48397,0.12878
2989.55523,0.12740
2987.62648,0.12550
2985.69774,0.12364
2983.76899,0.12195
2981.84025,0.12024
2979.91150,0.11828
2977.98275,0.11607
2976.05401,0.11396
2974.12526,0.11209
2972.19652,0.11032
2970.26777,0.10867
2968.33903,0.10711
2966.41028,0.10548
2964.48154,0.10376
2962.55279,0.10212
2960.62405,0.10065
2958.69530,0.09922
2956.76656,0.09789
2954.83781,0.09672
2952.90907,0.09544
2950.98032,0.09403
2949.05157,0.09268
2947.12283,0.09142
2945.19408,0.09018
2943.26534,0.08906
2941.33659,0.08840
2939.40785,0.08815
2937.47910,0.08786
2935.55036,0.08753
2933.62161,0.08743
2931.69287,0.08767
2929.76412,0.08804
2927.83538,0.08818
2925.90663,0.08810
2923.97789,0.08818
2922.04914,0.08851
2920.12040,0.08890
2918.19165,0.08930
2916.26290,0.08961
2914.33416,0.08955
2912.40541,0.08917
2910.47667,0.08881
2908.54792,0.08853
2906.61918,0.08828
2904.69043,0.08810
2902.76169,0.08799
2900.83294,0.08798
2898.90420,0.08813
2896.97545,0.08842
2895.04671,0.08871
2893.11796,0.08884
2891.18922,0.08894
2889.26047,0.08929
2887.33172,0.08980
2885.40298,0.09029
2883.47423,0.09074
2881.54549,0.09118
2879.61674,0.09158
2877.68800,0.09181
2875.75925,0.09205
2873.83051,0.09268
2871.90176,0.09351
2869.97302,0.09417
2868.04427,0.09492
2866.11553,0.09599
2864.18678,0.09713
2862.25804,0.09805
2860.32929,0.09874
2858.40055,0.09943
2856.47180,0.10018
2854.54305,0.10111
2852.61431,0.10254
2850.68556,0.10437
2848.75682,0.10652
2846.82807,0.10900
2844.89933,0.11164
2842.97058,0.11414
2841.04184,0.11629
2839.11309,0.11824
2837.18435,0.12026
2835.25560,0.12240
2833.32686,0.12452
2831.39811,0.12659
2829.46937,0.12879
2827.54062,0.13109
2825.61188,0.13332
2823.68313,0.13552
2821.75438,0.13764
2819.82564,0.13951
2817.89689,0.14127
2815.96815,0.14307
2814.03940,0.14475
2812.11066,0.14625
2810.18191,0.14767
2808.25317,0.14903
2806.32442,0.15025
2804.39568,0.15138
2802.46693,0.15262
2800.53819,0.15405
2798.60944,0.15549
2796.68070,0.15652
2794.75195,0.15714
2792.82320,0.15773
2790.89446,0.15854
2788.96571,0.15962
2787.03697,0.16064
2785.10822,0.16122
2783.17948,0.16164
2781.25073,0.16221
2779.32199,0.16271
2777.39324,0.16311
2775.46450,0.16364
2773.53575,0.16420
2771.60701,0.16474
2769.67826,0.16543
2767.74952,0.16607
2765.82077,0.16640
2763.89203,0.16671
2761.96328,0.16722
2760.03453,0.16782
2758.10579,0.16832
2756.17704,0.16855
2754.24830,0.16864
2752.31955,0.16894
2750.39081,0.16949
2748.46206,0.16995
2746.53332,0.17007
2744.60457,0.16998
2742.67583,0.17008
2740.74708,0.17054
2738.81834,0.17117
2736.88959,0.17176
2734.96085,0.17222
2733.03210,0.17242
2731.10336,0.17250
2729.17461,0.17274
2727.24586,0.17317
2725.31712,0.17377
2723.38837,0.17452
2721.45963,0.17532
2719.53088,0.17608
2717.60214,0.17683
2715.67339,0.17763
2713.74465,0.17850
2711.81590,0.17937
2709.88716,0.18012
2707.95841,0.18085
2706.02967,0.18177
2704.10092,0.18280
2702.17218,0.18368
2700.24343,0.18456
2698.31468,0.18562
2696.38594,0.18667
2694.45719,0.18740
2692.52845,0.18787
2690.59970,0.18858
2688.67096,0.18963
2686.74221,0.19065
2684.81347,0.19145
2682.88472,0.19210
2680.95598,0.19279
2679.02723,0.19370
2677.09849,0.19478
2675.16974,0.19579
2673.24100,0.19666
2671.31225,0.19744
2669.38351,0.19806
2667.45476,0.19868
2665.52601,0.19970
2663.59727,0.20096
2661.66852,0.20182
2659.73978,0.20216
2657.81103,0.20243
2655.88229,0.20305
2653.95354,0.20408
2652.02480,0.20516
2650.09605,0.20591
2648.16731,0.20643
2646.23856,0.20705
2644.30982,0.20781
2642.38107,0.20860
2640.45233,0.20938
2638.52358,0.21019
2636.59484,0.21108
2634.66609,0.21200
2632.73734,0.21292
2630.80860,0.21370
2628.87985,0.21445
2626.95111,0.21545
2625.02236,0.21660
2623.09362,0.21765
2621.16487,0.21864
2619.23613,0.21965
2617.30738,0.22062
2615.37864,0.22142
2613.44989,0.22212
2611.52115,0.22289
2609.59240,0.22377
2607.66366,0.22469
2605.73491,0.22556
2603.80616,0.22630
2601.87742,0.22690
2599.94867,0.22752
2598.01993,0.22832
2596.09118,0.22921
2594.16244,0.23004
2592.23369,0.23086
2590.30495,0.23171
2588.37620,0.23252
2586.44746,0.23319
2584.51871,0.23368
2582.58997,0.23413
2580.66122,0.23456
2578.73248,0.23494
2576.80373,0.23533
2574.87499,0.23579
2572.94624,0.23621
2571.01749,0.23640
2569.08875,0.23651
2567.16000,0.23676
2565.23126,0.23721
2563.30251,0.23773
2561.37377,0.23826
2559.44502,0.23886
2557.51628,0.23930
2555.58753,0.23939
2553.65879,0.23948
2551.73004,0.23982
2549.80130,0.24027
2547.87255,0.24075
2545.94381,0.24121
2544.01506,0.24148
2542.08631,0.24174
2540.15757,0.24225
2538.22882,0.24296
2536.30008,0.24361
2534.37133,0.24415
2532.44259,0.24464
2530.51384,0.24510
2528.58510,0.24563
2526.65635,0.24631
2524.72761,0.24708
2522.79886,0.24770
2520.87012,0.24819
2518.94137,0.24864
2517.01263,0.24906
2515.08388,0.24962
2513.15514,0.25044
2511.22639,0.25132
2509.29764,0.25218
2507.36890,0.25305
2505.44015,0.25386
2503.51141,0.25469
2501.58266,0.25571
2499.65392,0.25699
2497.72517,0.25833
2495.79643,0.25946
2493.86768,0.26028
2491.93894,0.26093
2490.01019,0.26168
2488.08145,0.26270
2486.15270,0.26383
2484.22396,0.26486
2482.29521,0.26571
2480.36647,0.26645
2478.43772,0.26727
2476.50897,0.26821
2474.58023,0.26913
2472.65148,0.27007
2470.72274,0.27105
2468.79399,0.27198
2466.86525,0.27290
2464.93650,0.27384
2463.00776,0.27481
2461.07901,0.27586
2459.15027,0.27693
2457.22152,0.27793
2455.29278,0.27891
2453.36403,0.27989
2451.43529,0.28085
2449.50654,0.28188
2447.57779,0.28313
2445.64905,0.28456
2443.72030,0.28593
2441.79156,0.28696
2439.86281,0.28780
2437.93407,0.28890
2436.00532,0.29028
2434.07658,0.29169
2432.14783,0.29308
2430.21909,0.29437
2428.29034,0.29554
2426.36160,0.29676
2424.43285,0.29814
2422.50411,0.29953
2420.57536,0.30083
2418.64662,0.30214
2416.71787,0.30360
2414.78912,0.30510
2412.86038,0.30653
2410.93163,0.30783
2409.00289,0.30898
2407.07414,0.31015
2405.14540,0.31150
2403.21665,0.31297
2401.28791,0.31442
2399.35916,0.31575
2397.43042,0.31699
2395.50167,0.31814
2393.57293,0.31914
2391.64418,0.32013
2389.71544,0.32124
2387.78669,0.32232
2385.85795,0.32321
2383.92920,0.32412
2382.00045,0.32525
2380.07171,0.32633
2378.14296,0.32721
2376.21422,0.32804
2374.28547,0.32896
2372.35673,0.32998
2370.42798,0.33107
2368.49924,0.33210
2366.57049,0.33302
2364.64175,0.33389
2362.71300,0.33468
2360.78426,0.33542
2358.85551,0.33627
2356.92677,0.33723
2354.99802,0.33823
2353.06927,0.33923
2351.14053,0.34008
2349.21178,0.34080
2347.28304,0.34167
2345.35429,0.34276
2343.42555,0.34391
2341.49680,0.34494
2339.56806,0.34575
2337.63931,0.34638
2335.71057,0.34698
2333.78182,0.34759
2331.85308,0.34815
2329.92433,0.34869
2327.99559,0.34933
2326.06684,0.34996
2324.13810,0.35043
2322.20935,0.35086
2320.28060,0.35120
2318.35186,0.35140
2316.42311,0.35173
2314.49437,0.35229
2312.56562,0.35268
2310.63688,0.35268
2308.70813,0.35264
2306.77939,0.35272
2304.85064,0.35279
2302.92190,0.35277
2300.99315,0.35267
2299.06441,0.35251
2297.13566,0.35222
2295.20692,0.35198
2293.27817,0.35197
2291.34943,0.35204
2289.42068,0.35203
2287.49193,0.35197
2285.56319,0.35193
2283.63444,0.35193
2281.70570,0.35190
2279.77695,0.35170
2277.84821,0.35131
2275.91946,0.35094
2273.99072,0.35077
2272.06197,0.35069
2270.13323,0.35042
2268.20448,0.34987
2266.27574,0.34920
2264.34699,0.34862
2262.41825,0.34823
2260.48950,0.34792
2258.56075,0.34755
2256.63201,0.34711
2254.70326,0.34667
2252.77452,0.34631
2250.84577,0.34607
2248.91703,0.34590
2246.98828,0.34562
2245.05954,0.34529
2243.13079,0.34510
2241.20205,0.34509
2239.27330,0.34516
2237.34456,0.34521
2235.41581,0.34531
2233.48707,0.34539
2231.55832,0.34539
2229.62958,0.34540
2227.70083,0.34548
2225.77208,0.34557
2223.84334,0.34573
2221.91459,0.34598
2219.98585,0.34627
2218.05710,0.34651
2216.12836,0.34665
2214.19961,0.34662
2212.27087,0.34635
2210.34212,0.34606
2208.41338,0.34587
2206.48463,0.34569
2204.55589,0.34546
2202.62714,0.34513
2200.69840,0.34465
2198.76965,0.34408
2196.84090,0.34350
2194.91216,0.34275
2192.98341,0.34176
2191.05467,0.34064
2189.12592,0.33952
2187.19718,0.33837
2185.26843,0.33700
2183.33969,0.33554
2181.41094,0.33421
2179.48220,0.33266
2177.55345,0.33077
2175.62471,0.32898
2173.69596,0.32747
2171.76722,0.32611
2169.83847,0.32475
2167.90973,0.32333
2165.98098,0.32202
2164.05223,0.32092
2162.12349,0.31988
2160.19474,0.31884
2158.26600,0.31791
2156.33725,0.31709
2154.40851,0.31630
2152.47976,0.31559
2150.55102,0.31504
2148.62227,0.31461
2146.69353,0.31426
2144.76478,0.31390
2142.83604,0.31346
2140.90729,0.31310
2138.97855,0.31292
2137.04980,0.31284
2135.12106,0.31290
2133.19231,0.31304
2131.26356,0.31321
2129.33482,0.31350
2127.40607,0.31394
2125.47733,0.31452
2123.54858,0.31513
2121.61984,0.31572
2119.69109,0.31646
2117.76235,0.31734
2115.83360,0.31826
2113.90486,0.31921
2111.97611,0.32011
2110.04737,0.32089
2108.11862,0.32169
2106.18988,0.32266
2104.26113,0.32367
2102.33238,0.32456
2100.40364,0.32537
2098.47489,0.32624
2096.54615,0.32720
2094.61740,0.32803
2092.68866,0.32876
2090.75991,0.32957
2088.83117,0.33039
2086.90242,0.33109
2084.97368,0.33154
2083.04493,0.33167
2081.11619,0.33167
2079.18744,0.33174
2077.25870,0.33192
2075.32995,0.33216
2073.40121,0.33229
2071.47246,0.33224
2069.54371,0.33214
2067.61497,0.33209
2065.68622,0.33214
2063.75748,0.33223
2061.82873,0.33226
2059.89999,0.33238
2057.97124,0.33281
2056.04250,0.33336
2054.11375,0.33374
2052.18501,0.33405
2050.25626,0.33440
2048.32752,0.33483
2046.39877,0.33538
2044.47003,0.33601
2042.54128,0.33677
2040.61254,0.33769
2038.68379,0.33858
2036.75504,0.33932
2034.82630,0.34005
2032.89755,0.34107
2030.96881,0.34240
2029.04006,0.34384
2027.11132,0.34532
2025.18257,0.34677
2023.25383,0.34817
2021.32508,0.34969
2019.39634,0.35147
2017.46759,0.35332
2015.53885,0.35504
2013.61010,0.35662
2011.68136,0.35808
2009.75261,0.35946
2007.82386,0.36086
2005.89512,0.36232
2003.96637,0.36375
2002.03763,0.36508
2000.10888,0.36626
1998.18014,0.36723
1996.25139,0.36814
1994.32265,0.36918
1992.39390,0.37026
1990.46516,0.37116
1988.53641,0.37187
1986.60767,0.37253
1984.67892,0.37331
1982.75018,0.37409
1980.82143,0.37459
1978.89269,0.37482
1976.96394,0.37501
1975.03519,0.37521
1973.10645,0.37543
1971.17770,0.37565
1969.24896,0.37589
1967.32021,0.37620
1965.39147,0.37643
1963.46272,0.37651
1961.53398,0.37667
1959.60523,0.37700
1957.67649,0.37739
1955.74774,0.37781
1953.81900,0.37829
1951.89025,0.37891
1949.96151,0.37963
1948.03276,0.38050
1946.10402,0.38153
1944.17527,0.38254
1942.24652,0.38356
1940.31778,0.38472
1938.38903,0.38599
1936.46029,0.38734
1934.53154,0.38870
1932.60280,0.38994
1930.67405,0.39103
1928.74531,0.39195
1926.81656,0.39277
1924.88782,0.39369
1922.95907,0.39465
1921.03033,0.39550
1919.10158,0.39634
1917.17284,0.39704
1915.24409,0.39751
1913.31534,0.39803
1911.38660,0.39859
1909.45785,0.39894
1907.52911,0.39908
1905.60036,0.39909
1903.67162,0.39899
1901.74287,0.39888
1899.81413,0.39885
1897.88538,0.39897
1895.95664,0.39912
1894.02789,0.39909
1892.09915,0.39891
1890.17040,0.39884
1888.24166,0.39879
1886.31291,0.39862
1884.38417,0.39849
1882.45542,0.39843
1880.52667,0.39824
1878.59793,0.39791
1876.66918,0.39748
1874.74044,0.39693
1872.81169,0.39639
1870.88295,0.39602
1868.95420,0.39565
1867.02546,0.39499
1865.09671,0.39407
1863.16797,0.39316
1861.23922,0.39237
1859.31048,0.39159
1857.38173,0.39070
1855.45299,0.38972
1853.52424,0.38871
1851.59549,0.38773
1849.66675,0.38677
1847.73800,0.38583
1845.80926,0.38497
1843.88051,0.38383
1841.95177,0.38220
1840.02302,0.38054
1838.09428,0.37909
1836.16553,0.37771
1834.23679,0.37625
1832.30804,0.37475
1830.37930,0.37322
1828.45055,0.37147
1826.52181,0.36945
1824.59306,0.36718
1822.66432,0.36472
1820.73557,0.36229
1818.80682,0.35995
1816.87808,0.35760
1814.94933,0.35509
1813.02059,0.35238
1811.09184,0.34932
1809.16310,0.34598
1807.23435,0.34259
1805.30561,0.33921
1803.37686,0.33571
1801.44812,0.33176
1799.51937,0.32733
1797.59063,0.32275
1795.66188,0.31819
1793.73314,0.31334
1791.80439,0.30783
1789.87565,0.30209
1787.94690,0.29644
1786.01815,0.29048
1784.08941,0.28415
1782.16066,0.27771
1780.23192,0.27079
1778.30317,0.26319
1776.37443,0.25537
1774.44568,0.24705
1772.51694,0.23709
1770.58819,0.22582
1768.65945,0.21433
1766.73070,0.20282
1764.80196,0.19199
1762.87321,0.18143
1760.94447,0.17079
1759.01572,0.16126
1757.08697,0.15249
1755.15823,0.14416
1753.22948,0.13677
1751.30074,0.12987
1749.37199,0.12323
1747.44325,0.11746
1745.51450,0.11285
1743.58576,0.10939
1741.65701,0.10701
1739.72827,0.10551
1737.79952,0.10479
1735.87078,0.10475
1733.94203,0.10500
1732.01329,0.10520
1730.08454,0.10565
1728.15580,0.10660
1726.22705,0.10791
1724.29830,0.10948
1722.36956,0.11115
1720.44081,0.11289
1718.51207,0.11497
1716.58332,0.11724
1714.65458,0.11917
1712.72583,0.12076
1710.79709,0.12223
1708.86834,0.12362
1706.93960,0.12499
1705.01085,0.12632
1703.08211,0.12761
1701.15336,0.12893
1699.22462,0.12984
1697.29587,0.13007
1695.36713,0.13013
1693.43838,0.13025
1691.50963,0.13036
1689.58089,0.13035
1687.65214,0.13008
1685.72340,0.12935
1683.79465,0.12787
1681.86591,0.12599
1679.93716,0.12400
1678.00842,0.12174
1676.07967,0.11888
1674.15093,0.11544
1672.22218,0.11192
1670.29344,0.10797
1668.36469,0.10331
1666.43595,0.09896
1664.50720,0.09509
1662.57845,0.09125
1660.64971,0.08792
1658.72096,0.08579
1656.79222,0.08499
1654.86347,0.08534
1652.93473,0.08644
1651.00598,0.08756
1649.07724,0.08877
1647.14849,0.09014
1645.21975,0.09107
1643.29100,0.09135
1641.36226,0.09136
1639.43351,0.09123
1637.50477,0.09082
1635.57602,0.08997
1633.64728,0.08883
1631.71853,0.08781
1629.78978,0.08698
1627.86104,0.08609
1625.93229,0.08490
1624.00355,0.08345
1622.07480,0.08222
1620.14606,0.08147
1618.21731,0.08085
1616.28857,0.07999
1614.35982,0.07912
1612.43108,0.07846
1610.50233,0.07776
1608.57359,0.07701
1606.64484,0.07651
1604.71610,0.07633
1602.78735,0.07623
1600.85861,0.07598
1598.92986,0.07564
1597.00111,0.07556
1595.07237,0.07593
1593.14362,0.07670
1591.21488,0.07797
1589.28613,0.07980
1587.35739,0.08213
1585.42864,0.08485
1583.49990,0.08774
1581.57115,0.09068
1579.64241,0.09357
1577.71366,0.09655
1575.78492,0.09978
1573.85617,0.10270
1571.92743,0.10532
1569.99868,0.10814
1568.06993,0.11086
1566.14119,0.11319
1564.21244,0.11538
1562.28370,0.11753
1560.35495,0.11996
1558.42621,0.12263
1556.49746,0.12440
1554.56872,0.12544
1552.63997,0.12629
1550.71123,0.12695
1548.78248,0.12746
1546.85374,0.12791
1544.92499,0.12850
1542.99625,0.12931
1541.06750,0.12997
1539.13876,0.12936
1537.21001,0.12762
1535.28126,0.12551
1533.35252,0.12263
1531.42377,0.11898
1529.49503,0.11500
1527.56628,0.11027
1525.63754,0.10455
1523.70879,0.09832
1521.78005,0.09129
1519.85130,0.08433
1517.92256,0.07931
1515.99381,0.07608
1514.06507,0.07416
1512.13632,0.07322
1510.20758,0.07297
1508.27883,0.07317
1506.35008,0.07337
1504.42134,0.07341
1502.49259,0.07372
1500.56385,0.07439
1498.63510,0.07528
1496.70636,0.07656
1494.77761,0.07837
1492.84887,0.08044
1490.92012,0.08259
1488.99138,0.08438
1487.06263,0.08533
1485.13389,0.08534
1483.20514,0.08433
1481.27640,0.08239
1479.34765,0.07978
1477.41891,0.07661
1475.49016,0.07294
1473.56141,0.06889
1471.63267,0.06482
1469.70392,0.06170
1467.77518,0.05977
1465.84643,0.05865
1463.91769,0.05817
1461.98894,0.05830
1460.06020,0.05874
1458.13145,0.05908
1456.20271,0.05899
1454.27396,0.05871
1452.34522,0.05868
1450.41647,0.05905
1448.48773,0.05952
1446.55898,0.05955
1444.63024,0.05914
1442.70149,0.05857
1440.77274,0.05797
1438.84400,0.05734
1436.91525,0.05644
1434.98651,0.05529
1433.05776,0.05427
1431.12902,0.05349
1429.20027,0.05305
1427.27153,0.05304
1425.34278,0.05340
1423.41404,0.05409
1421.48529,0.05507
1419.55655,0.05620
1417.62780,0.05718
1415.69906,0.05800
1413.77031,0.05896
1411.84156,0.05996
1409.91282,0.06057
1407.98407,0.06064
1406.05533,0.06034
1404.12658,0.05993
1402.19784,0.05956
1400.26909,0.05907
1398.34035,0.05826
1396.41160,0.05722
1394.48286,0.05603
1392.55411,0.05478
1390.62537,0.05363
1388.69662,0.05245
1386.76788,0.05110
1384.83913,0.04977
1382.91039,0.04857
1380.98164,0.04753
1379.05289,0.04679
1377.12415,0.04645
1375.19540,0.04641
1373.26666,0.04653
1371.33791,0.04686
1369.40917,0.04735
1367.48042,0.04779
1365.55168,0.04820
1363.62293,0.04885
1361.69419,0.04963
1359.76544,0.05029
1357.83670,0.05084
1355.90795,0.05143
1353.97921,0.05205
1352.05046,0.05252
1350.12172,0.05268
1348.19297,0.05254
1346.26422,0.05236
1344.33548,0.05223
1342.40673,0.05189
1340.47799,0.05133
1338.54924,0.05091
1336.62050,0.05069
1334.69175,0.05059
1332.76301,0.05066
1330.83426,0.05075
1328.90552,0.05060
1326.97677,0.05022
1325.04803,0.04989
1323.11928,0.04989
1321.19054,0.05017
1319.26179,0.05040
1317.33304,0.05053
1315.40430,0.05087
1313.47555,0.05156
1311.54681,0.05236
1309.61806,0.05307
1307.68932,0.05373
1305.76057,0.05437
1303.83183,0.05485
1301.90308,0.05518
1299.97434,0.05542
1298.04559,0.05551
1296.11685,0.05533
1294.18810,0.05478
1292.25936,0.05388
1290.33061,0.05283
1288.40187,0.05189
1286.47312,0.05112
1284.54437,0.05037
1282.61563,0.04958
1280.68688,0.04882
1278.75814,0.04811
1276.82939,0.04741
1274.90065,0.04664
1272.97190,0.04578
1271.04316,0.04509
1269.11441,0.04474
1267.18567,0.04457
1265.25692,0.04440
1263.32818,0.04429
1261.39943,0.04429
1259.47069,0.04436
1257.54194,0.04449
1255.61320,0.04475
1253.68445,0.04518
1251.75570,0.04578
1249.82696,0.04638
1247.89821,0.04679
1245.96947,0.04713
1244.04072,0.04756
1242.11198,0.04806
1240.18323,0.04868
1238.25449,0.04961
1236.32574,0.05056
1234.39700,0.05112
1232.46825,0.05148
1230.53951,0.05204
1228.61076,0.05277
1226.68202,0.05356
1224.75327,0.05433
1222.82452,0.05497
1220.89578,0.05539
1218.96703,0.05564
1217.03829,0.05579
1215.10954,0.05590
1213.18080,0.05603
1211.25205,0.05595
1209.32331,0.05543
1207.39456,0.05479
1205.46582,0.05445
1203.53707,0.05442
1201.60833,0.05457
1199.67958,0.05478
1197.75084,0.05481
1195.82209,0.05447
1193.89335,0.05386
1191.96460,0.05316
1190.03585,0.05235
1188.10711,0.05132
1186.17836,0.05013
1184.24962,0.04879
1182.32087,0.04745
1180.39213,0.04645
1178.46338,0.04587
1176.53464,0.04545
1174.60589,0.04521
1172.67715,0.04549
1170.74840,0.04622
1168.81966,0.04711
1166.89091,0.04815
1164.96217,0.04943
1163.03342,0.05076
1161.10467,0.05190
1159.17593,0.05278
1157.24718,0.05343
1155.31844,0.05378
1153.38969,0.05378
1151.46095,0.05362
1149.53220,0.05357
1147.60346,0.05363
1145.67471,0.05350
1143.74597,0.05285
1141.81722,0.05205
1139.88848,0.05171
1137.95973,0.05164
1136.03099,0.05127
1134.10224,0.05080
1132.17350,0.05077
1130.24475,0.05116
1128.31600,0.05164
1126.38726,0.05230
1124.45851,0.05338
1122.52977,0.05481
1120.60102,0.05636
1118.67228,0.05799
1116.74353,0.05961
1114.81479,0.06100
1112.88604,0.06221
1110.95730,0.06348
1109.02855,0.06495
1107.09981,0.06648
1105.17106,0.06773
1103.24232,0.06865
1101.31357,0.06928
1099.38483,0.06954
1097.45608,0.06970
1095.52733,0.06997
1093.59859,0.07035
1091.66984,0.07070
1089.74110,0.07078
1087.81235,0.07067
1085.88361,0.07080
1083.95486,0.07114
1082.02612,0.07126
1080.09737,0.07140
1078.16863,0.07190
1076.23988,0.07230
1074.31114,0.07241
1072.38239,0.07253
1070.45365,0.07263
1068.52490,0.07264
1066.59615,0.07256
1064.66741,0.07246
1062.73866,0.07279
1060.80992,0.07388
1058.88117,0.07550
1056.95243,0.07717
1055.02368,0.07871
1053.09494,0.08000
1051.16619,0.08098
1049.23745,0.08190
1047.30870,0.08303
1045.37996,0.08426
1043.45121,0.08525
1041.52247,0.08591
1039.59372,0.08662
1037.66498,0.08741
1035.73623,0.08776
1033.80748,0.08777
1031.87874,0.08778
1029.94999,0.08774
1028.02125,0.08739
1026.09250,0.08654
1024.16376,0.08554
1022.23501,0.08475
1020.30627,0.08413
1018.37752,0.08383
1016.44878,0.08368
1014.52003,0.08333
1012.59129,0.08289
1010.66254,0.08262
1008.73380,0.08242
1006.80505,0.08220
1004.87631,0.08220
1002.94756,0.08249
1001.01881,0.08290
999.09007,0.08332
997.16132,0.08371
995.23258,0.08414
993.30383,0.08474
991.37509,0.08554
989.44634,0.08686
987.51760,0.08895
985.58885,0.09144
983.66011,0.09383
981.73136,0.09604
979.80262,0.09818
977.87387,0.10025
975.94513,0.10212
974.01638,0.10388
972.08763,0.10573
970.15889,0.10766
968.23014,0.10980
966.30140,0.11242
964.37265,0.11526
962.44391,0.11799
960.51516,0.12105
958.58642,0.12473
956.65767,0.12875
954.72893,0.13269
952.80018,0.13640
950.87144,0.14008
948.94269,0.14396
947.01395,0.14771
945.08520,0.15073
943.15646,0.15283
941.22771,0.15443
939.29896,0.15588
937.37022,0.15720
935.44147,0.15836
933.51273,0.15934
931.58398,0.15996
929.65524,0.16022
927.72649,0.16034
925.79775,0.16050
923.86900,0.16069
921.94026,0.16065
920.01151,0.16012
918.08277,0.15895
916.15402,0.15733
914.22528,0.15549
912.29653,0.15336
910.36779,0.15079
908.43904,0.14766
906.51029,0.14379
904.58155,0.13940
902.65280,0.13547
900.72406,0.13302
898.79531,0.13245
896.86657,0.13365
894.93782,0.13658
893.00908,0.14107
891.08033,0.14653
889.15159,0.15266
887.22284,0.15900
885.29410,0.16427
883.36535,0.16790
881.43661,0.17051
879.50786,0.17252
877.57911,0.17391
875.65037,0.17468
873.72162,0.17500
871.79288,0.17517
869.86413,0.17537
867.93539,0.17547
866.00664,0.17535
864.07790,0.17511
862.14915,0.17472
860.22041,0.17414
858.29166,0.17341
856.36292,0.17248
854.43417,0.17107
852.50543,0.16904
850.57668,0.16663
848.64794,0.16441
846.71919,0.16281
844.79044,0.16163
842.86170,0.16048
840.93295,0.15950
839.00421,0.15923
837.07546,0.15991
835.14672,0.16111
833.21797,0.16257
831.28923,0.16429
829.36048,0.16573
827.43174,0.16653
825.50299,0.16718
823.57425,0.16799
821.64550,0.16860
819.71676,0.16880
817.78801,0.16906
815.85926,0.16961
813.93052,0.17010
812.00177,0.17038
810.07303,0.17072
808.14428,0.17128
806.21554,0.17188
804.28679,0.17227
802.35805,0.17244
800.42930,0.17251
798.50056,0.17240
796.57181,0.17182
794.64307,0.17106
792.71432,0.17053
790.78558,0.16999
788.85683,0.16929
786.92809,0.16832
784.99934,0.16702
783.07059,0.16567
781.14185,0.16436
779.21310,0.16285
777.28436,0.16096
775.35561,0.15909
773.42687,0.15757
771.49812,0.15623
769.56938,0.15497
767.64063,0.15389
765.71189,0.15288
763.78314,0.15168
761.85440,0.15004
759.92565,0.14805
757.99691,0.14639
756.06816,0.14543
754.13942,0.14462
752.21067,0.14311
750.28192,0.14080
748.35318,0.13835
746.42443,0.13619
744.49569,0.13470
742.56694,0.13384
740.63820,0.13297
738.70945,0.13181
736.78071,0.13056
734.85196,0.12937
732.92322,0.12820
730.99447,0.12716
729.06573,0.12644
727.13698,0.12567
725.20824,0.12429
723.27949,0.12264
721.35074,0.12157
719.42200,0.12140
717.49325,0.12158
715.56451,0.12121
713.63576,0.12002
711.70702,0.11871
709.77827,0.11790
707.84953,0.11735
705.92078,0.11680
703.99204,0.11642
702.06329,0.11605
700.13455,0.11546
698.20580,0.11506
696.27706,0.11469
694.34831,0.11392
692.41957,0.11348
690.49082,0.11333
688.56207,0.11243
686.63333,0.11088
684.70458,0.10908
682.77584,0.10695
680.84709,0.10490
678.91835,0.10330
676.98960,0.10175
675.06086,0.10042
673.13211,0.10001
671.20337,0.10028
669.27462,0.10071
667.34588,0.10131
665.41713,0.10188
663.48839,0.10199
661.55964,0.10166
659.63090,0.10162
657.70215,0.10206
655.77340,0.10246
653.84466,0.10250
651.91591,0.10251
649.98717,0.10286
648.05842,0.10301
646.12968,0.10270
644.20093,0.10232
642.27219,0.10201
640.34344,0.10202
638.41470,0.10235
636.48595,0.10264
634.55721,0.10251
632.62846,0.10157
630.69972,0.10002
628.77097,0.09910
626.84222,0.09929
624.91348,0.09959
622.98473,0.09940
621.05599,0.09921
619.12724,0.09996
617.19850,0.10146
615.26975,0.10281
613.34101,0.10401
611.41226,0.10495
609.48352,0.10569
607.55477,0.10693
605.62603,0.10826
603.69728,0.10919
601.76854,0.11012
599.83979,0.11093
