7497.03301,0.83970
7495.10426,0.83912
7493.17552,0.83875
7491.24677,0.84380
7489.31803,0.85057
7487.38928,0.85206
7485.46054,0.84846
7483.53179,0.84434
7481.60305,0.84014
7479.67430,0.83351
7477.74556,0.82572
7475.81681,0.82234
7473.88807,0.82779
7471.95932,0.83872
7470.03057,0.84410
7468.10183,0.83766
7466.17308,0.82770
7464.24434,0.82526
7462.31559,0.83042
7460.38685,0.83649
7458.45810,0.83986
7456.52936,0.84355
7454.60061,0.84960
7452.67187,0.85106
7450.74312,0.84217
7448.81438,0.83063
7446.88563,0.82585
7444.95689,0.82378
7443.02814,0.81867
7441.09940,0.81501
7439.17065,0.81651
7437.24190,0.81933
7435.31316,0.81957
7433.38441,0.82089
7431.45567,0.82567
7429.52692,0.82778
7427.59818,0.82514
7425.66943,0.82283
7423.74069,0.82399
7421.81194,0.82768
7419.88320,0.83032
7417.95445,0.82795
7416.02571,0.82236
7414.09696,0.81978
7412.16822,0.82140
7410.23947,0.82414
7408.31073,0.82541
7406.38198,0.82473
7404.45323,0.82355
7402.52449,0.82370
7400.59574,0.82666
7398.66700,0.82960
7396.73825,0.82890
7394.80951,0.82775
7392.88076,0.83075
7390.95202,0.83360
7389.02327,0.82917
7387.09453,0.82362
7385.16578,0.82496
7383.23704,0.82914
7381.30829,0.83128
7379.37955,0.83013
7377.45080,0.82415
7375.52205,0.81566
7373.59331,0.81073
7371.66456,0.81060
7369.73582,0.81109
7367.80707,0.80900
7365.87833,0.80454
7363.94958,0.80197
7362.02084,0.80551
7360.09209,0.81204
7358.16335,0.81521
7356.23460,0.81679
7354.30586,0.82051
7352.37711,0.82249
7350.44837,0.82028
7348.51962,0.81635
7346.59088,0.81252
7344.66213,0.81107
7342.73338,0.81337
7340.80464,0.81650
7338.87589,0.81708
7336.94715,0.81526
7335.01840,0.81248
7333.08966,0.80987
7331.16091,0.80772
7329.23217,0.80748
7327.30342,0.81176
7325.37468,0.81642
7323.44593,0.81599
7321.51719,0.81411
7319.58844,0.81359
7317.65970,0.81256
7315.73095,0.81238
7313.80221,0.81418
7311.87346,0.81506
7309.94471,0.81366
7308.01597,0.81294
7306.08722,0.81420
7304.15848,0.81295
7302.22973,0.80848
7300.30099,0.80665
7298.37224,0.80962
7296.44350,0.81511
7294.51475,0.81977
7292.58601,0.81781
7290.65726,0.81014
7288.72852,0.80848
7286.79977,0.81684
7284.87103,0.82402
7282.94228,0.82261
7281.01353,0.81676
7279.08479,0.81179
7277.15604,0.80887
7275.22730,0.80519
7273.29855,0.80157
7271.36981,0.80501
7269.44106,0.81405
7267.51232,0.81804
7265.58357,0.81403
7263.65483,0.80967
7261.72608,0.81017
7259.79734,0.81199
7257.86859,0.81374
7255.93985,0.81801
7254.01110,0.82079
7252.08236,0.81969
7250.15361,0.81860
7248.22486,0.81867
7246.29612,0.81812
7244.36737,0.81750
7242.43863,0.81943
7240.50988,0.82144
7238.58114,0.81864
7236.65239,0.81275
7234.72365,0.80736
7232.79490,0.80257
7230.86616,0.79995
7228.93741,0.80187
7227.00867,0.80499
7225.07992,0.80748
7223.15118,0.81140
7221.22243,0.81258
7219.29369,0.80765
7217.36494,0.80298
7215.43619,0.80320
7213.50745,0.80479
7211.57870,0.80468
7209.64996,0.80431
7207.72121,0.80648
7205.79247,0.81121
7203.86372,0.81367
7201.93498,0.81105
7200.00623,0.80661
7198.07749,0.80374
7196.14874,0.80322
7194.22000,0.80567
7192.29125,0.81148
7190.36251,0.81691
7188.43376,0.81692
7186.50501,0.81124
7184.57627,0.80496
7182.64752,0.80377
7180.71878,0.80617
7178.79003,0.80612
7176.86129,0.80429
7174.93254,0.80466
7173.00380,0.80507
7171.07505,0.80391
7169.14631,0.80399
7167.21756,0.80382
7165.28882,0.80158
7163.36007,0.80056
7161.43133,0.80183
7159.50258,0.80062
7157.57384,0.79463
7155.64509,0.78961
7153.71634,0.78868
7151.78760,0.79064
7149.85885,0.79624
7147.93011,0.80181
7146.00136,0.80110
7144.07262,0.79570
7142.14387,0.79128
7140.21513,0.79032
7138.28638,0.79219
7136.35764,0.79391
7134.42889,0.79371
7132.50015,0.79341
7130.57140,0.79284
7128.64266,0.79037
7126.71391,0.78769
7124.78516,0.78530
7122.85642,0.78158
7120.92767,0.77750
7118.99893,0.77636
7117.07018,0.77977
7115.14144,0.78533
7113.21269,0.79066
7111.28395,0.79285
7109.35520,0.79056
7107.42646,0.78757
7105.49771,0.78361
7103.56897,0.77854
7101.64022,0.77643
7099.71148,0.77535
7097.78273,0.77315
7095.85399,0.77199
7093.92524,0.77140
7091.99649,0.76960
7090.06775,0.76810
7088.13900,0.76742
7086.21026,0.76481
7084.28151,0.76173
7082.35277,0.76118
7080.42402,0.76178
7078.49528,0.76175
7076.56653,0.76113
7074.63779,0.76143
7072.70904,0.76197
7070.78030,0.75976
7068.85155,0.75640
7066.92281,0.75587
7064.99406,0.75600
7063.06532,0.75171
7061.13657,0.74572
7059.20782,0.74444
7057.27908,0.74617
7055.35033,0.74532
7053.42159,0.74136
7051.49284,0.73572
7049.56410,0.73046
7047.63535,0.73028
7045.70661,0.73525
7043.77786,0.73977
7041.84912,0.74142
7039.92037,0.74028
7037.99163,0.73587
7036.06288,0.72938
7034.13414,0.72342
7032.20539,0.72157
7030.27664,0.72416
7028.34790,0.72602
7026.41915,0.72610
7024.49041,0.72753
7022.56166,0.72898
7020.63292,0.72805
7018.70417,0.72560
7016.77543,0.72270
7014.84668,0.71878
7012.91794,0.71518
7010.98919,0.71356
7009.06045,0.71233
7007.13170,0.71063
7005.20296,0.70842
7003.27421,0.70626
7001.34547,0.70591
6999.41672,0.70556
6997.48797,0.70381
6995.55923,0.70328
6993.63048,0.70428
6991.70174,0.70461
6989.77299,0.70480
6987.84425,0.70567
6985.91550,0.70504
6983.98676,0.70252
6982.05801,0.70132
6980.12927,0.70217
6978.20052,0.70171
6976.27178,0.69904
6974.34303,0.69737
6972.41429,0.69746
6970.48554,0.69635
6968.55680,0.69530
6966.62805,0.69729
6964.69930,0.69819
6962.77056,0.69561
6960.84181,0.69321
6958.91307,0.69213
6956.98432,0.69278
6955.05558,0.69474
6953.12683,0.69677
6951.19809,0.69905
6949.26934,0.69773
6947.34060,0.69154
6945.41185,0.68743
6943.48311,0.68913
6941.55436,0.69279
6939.62562,0.69386
6937.69687,0.69309
6935.76812,0.69347
6933.83938,0.69464
6931.91063,0.69424
6929.98189,0.69223
6928.05314,0.69153
6926.12440,0.69186
6924.19565,0.69075
6922.26691,0.69046
6920.33816,0.69208
6918.40942,0.69215
6916.48067,0.69078
6914.55193,0.69118
6912.62318,0.69201
6910.69444,0.69053
6908.76569,0.68839
6906.83695,0.68677
6904.90820,0.68573
6902.97945,0.68710
6901.05071,0.68970
6899.12196,0.69084
6897.19322,0.69103
6895.26447,0.69006
6893.33573,0.68797
6891.40698,0.68662
6889.47824,0.68573
6887.54949,0.68580
6885.62075,0.68794
6883.69200,0.68967
6881.76326,0.68896
6879.83451,0.68740
6877.90577,0.68641
6875.97702,0.68559
6874.04828,0.68667
6872.11953,0.68993
6870.19078,0.69008
6868.26204,0.68535
6866.33329,0.68048
6864.40455,0.67944
6862.47580,0.68130
6860.54706,0.68268
6858.61831,0.68308
6856.68957,0.68467
6854.76082,0.68868
6852.83208,0.69244
6850.90333,0.69160
6848.97459,0.68687
6847.04584,0.68497
6845.11710,0.68869
6843.18835,0.69150
6841.25960,0.68966
6839.33086,0.68819
6837.40211,0.68881
6835.47337,0.68721
6833.54462,0.68424
6831.61588,0.68423
6829.68713,0.68488
6827.75839,0.68496
6825.82964,0.68700
6823.90090,0.68807
6821.97215,0.68655
6820.04341,0.68673
6818.11466,0.68867
6816.18592,0.68849
6814.25717,0.68660
6812.32843,0.68473
6810.39968,0.68332
6808.47093,0.68383
6806.54219,0.68553
6804.61344,0.68662
6802.68470,0.68745
6800.75595,0.68699
6798.82721,0.68422
6796.89846,0.68135
6794.96972,0.67922
6793.04097,0.67783
6791.11223,0.67954
6789.18348,0.68288
6787.25474,0.68395
6785.32599,0.68319
6783.39725,0.68169
6781.46850,0.67921
6779.53975,0.67711
6777.61101,0.67804
6775.68226,0.68184
6773.75352,0.68439
6771.82477,0.68462
6769.89603,0.68549
6767.96728,0.68616
6766.03854,0.68432
6764.10979,0.68230
6762.18105,0.68252
6760.25230,0.68417
6758.32356,0.68528
6756.39481,0.68411
6754.46607,0.68077
6752.53732,0.67857
6750.60858,0.68114
6748.67983,0.68573
6746.75108,0.68656
6744.82234,0.68436
6742.89359,0.68290
6740.96485,0.68170
6739.03610,0.68073
6737.10736,0.68199
6735.17861,0.68336
6733.24987,0.68333
6731.32112,0.68476
6729.39238,0.68733
6727.46363,0.68720
6725.53489,0.68338
6723.60614,0.68084
6721.67740,0.68339
6719.74865,0.68749
6717.81991,0.68927
6715.89116,0.68892
6713.96241,0.68642
6712.03367,0.68237
6710.10492,0.68073
6708.17618,0.68202
6706.24743,0.68293
6704.31869,0.68336
6702.38994,0.68371
6700.46120,0.68350
6698.53245,0.68343
6696.60371,0.68465
6694.67496,0.68731
6692.74622,0.68923
6690.81747,0.68893
6688.88873,0.68767
6686.95998,0.68774
6685.03123,0.69013
6683.10249,0.69251
6681.17374,0.69201
6679.24500,0.68955
6677.31625,0.68821
6675.38751,0.68855
6673.45876,0.68954
6671.53002,0.69051
6669.60127,0.69000
6667.67253,0.68769
6665.74378,0.68589
6663.81504,0.68702
6661.88629,0.68995
6659.95755,0.69121
6658.02880,0.69105
6656.10006,0.69219
6654.17131,0.69473
6652.24256,0.69674
6650.31382,0.69695
6648.38507,0.69592
6646.45633,0.69463
6644.52758,0.69347
6642.59884,0.69266
6640.67009,0.69252
6638.74135,0.69340
6636.81260,0.69384
6634.88386,0.69193
6632.95511,0.69028
6631.02637,0.69197
6629.09762,0.69413
6627.16888,0.69377
6625.24013,0.69290
6623.31139,0.69359
6621.38264,0.69553
6619.45389,0.69797
6617.52515,0.70012
6615.59640,0.70130
6613.66766,0.70133
6611.73891,0.70069
6609.81017,0.69933
6607.88142,0.69733
6605.95268,0.69693
6604.02393,0.69951
6602.09519,0.70255
6600.16644,0.70297
6598.23770,0.70164
6596.30895,0.70190
6594.38021,0.70394
6592.45146,0.70510
6590.52271,0.70439
6588.59397,0.70254
6586.66522,0.70102
6584.73648,0.70141
6582.80773,0.70349
6580.87899,0.70527
6578.95024,0.70636
6577.02150,0.70791
6575.09275,0.70942
6573.16401,0.71049
6571.23526,0.71202
6569.30652,0.71287
6567.37777,0.71284
6565.44903,0.71371
6563.52028,0.71321
6561.59154,0.71004
6559.66279,0.70775
6557.73404,0.70675
6555.80530,0.70558
6553.87655,0.70588
6551.94781,0.70789
6550.01906,0.70927
6548.09032,0.70920
6546.16157,0.70913
6544.23283,0.71042
6542.30408,0.71287
6540.37534,0.71471
6538.44659,0.71405
6536.51785,0.71184
6534.58910,0.71028
6532.66036,0.70933
6530.73161,0.70872
6528.80287,0.70858
6526.87412,0.70770
6524.94537,0.70699
6523.01663,0.70983
6521.08788,0.71545
6519.15914,0.71927
6517.23039,0.71935
6515.30165,0.71717
6513.37290,0.71483
6511.44416,0.71374
6509.51541,0.71398
6507.58667,0.71404
6505.65792,0.71352
6503.72918,0.71433
6501.80043,0.71604
6499.87169,0.71622
6497.94294,0.71513
6496.01419,0.71545
6494.08545,0.71882
6492.15670,0.72334
6490.22796,0.72535
6488.29921,0.72363
6486.37047,0.72013
6484.44172,0.71733
6482.51298,0.71676
6480.58423,0.71840
6478.65549,0.71984
6476.72674,0.71972
6474.79800,0.71882
6472.86925,0.71614
6470.94051,0.71244
6469.01176,0.71191
6467.08302,0.71373
6465.15427,0.71331
6463.22552,0.71222
6461.29678,0.71399
6459.36803,0.71663
6457.43929,0.71770
6455.51054,0.71820
6453.58180,0.71904
6451.65305,0.72044
6449.72431,0.72282
6447.79556,0.72448
6445.86682,0.72352
6443.93807,0.72195
6442.00933,0.72205
6440.08058,0.72200
6438.15184,0.72060
6436.22309,0.71979
6434.29434,0.72010
6432.36560,0.72059
6430.43685,0.72043
6428.50811,0.71832
6426.57936,0.71585
6424.65062,0.71641
6422.72187,0.71931
6420.79313,0.72124
6418.86438,0.72074
6416.93564,0.71910
6415.00689,0.71894
6413.07815,0.72126
6411.14940,0.72394
6409.22066,0.72428
6407.29191,0.72205
6405.36317,0.71982
6403.43442,0.71999
6401.50567,0.72126
6399.57693,0.72160
6397.64818,0.72151
6395.71944,0.72121
6393.79069,0.71971
6391.86195,0.71775
6389.93320,0.71824
6388.00446,0.72167
6386.07571,0.72436
6384.14697,0.72460
6382.21822,0.72426
6380.28948,0.72406
6378.36073,0.72447
6376.43199,0.72580
6374.50324,0.72655
6372.57450,0.72640
6370.64575,0.72592
6368.71700,0.72453
6366.78826,0.72266
6364.85951,0.72178
6362.93077,0.72261
6361.00202,0.72474
6359.07328,0.72561
6357.14453,0.72389
6355.21579,0.72218
6353.28704,0.72131
6351.35830,0.72039
6349.42955,0.72107
6347.50081,0.72326
6345.57206,0.72538
6343.64332,0.72726
6341.71457,0.72769
6339.78582,0.72670
6337.85708,0.72583
6335.92833,0.72571
6333.99959,0.72689
6332.07084,0.72868
6330.14210,0.72922
6328.21335,0.72791
6326.28461,0.72578
6324.35586,0.72419
6322.42712,0.72378
6320.49837,0.72389
6318.56963,0.72363
6316.64088,0.72386
6314.71214,0.72529
6312.78339,0.72619
6310.85465,0.72603
6308.92590,0.72706
6306.99715,0.72943
6305.06841,0.73054
6303.13966,0.73029
6301.21092,0.73052
6299.28217,0.73201
6297.35343,0.73417
6295.42468,0.73446
6293.49594,0.73162
6291.56719,0.72869
6289.63845,0.72848
6287.70970,0.72999
6285.78096,0.73123
6283.85221,0.73205
6281.92347,0.73331
6279.99472,0.73503
6278.06598,0.73619
6276.13723,0.73603
6274.20848,0.73454
6272.27974,0.73242
6270.35099,0.73081
6268.42225,0.73063
6266.49350,0.73137
6264.56476,0.73171
6262.63601,0.73186
6260.70727,0.73185
6258.77852,0.73185
6256.84978,0.73444
6254.92103,0.73865
6252.99229,0.74000
6251.06354,0.73900
6249.13480,0.73913
6247.20605,0.73952
6245.27730,0.73859
6243.34856,0.73930
6241.41981,0.74312
6239.49107,0.74617
6237.56232,0.74571
6235.63358,0.74352
6233.70483,0.74148
6231.77609,0.73946
6229.84734,0.73918
6227.91860,0.74258
6225.98985,0.74624
6224.06111,0.74697
6222.13236,0.74721
6220.20362,0.74830
6218.27487,0.74820
6216.34613,0.74730
6214.41738,0.74724
6212.48863,0.74733
6210.55989,0.74686
6208.63114,0.74675
6206.70240,0.74778
6204.77365,0.74968
6202.84491,0.75130
6200.91616,0.75111
6198.98742,0.74905
6197.05867,0.74667
6195.12993,0.74540
6193.20118,0.74660
6191.27244,0.75046
6189.34369,0.75412
6187.41495,0.75491
6185.48620,0.75396
6183.55746,0.75382
6181.62871,0.75513
6179.69996,0.75673
6177.77122,0.75695
6175.84247,0.75612
6173.91373,0.75578
6171.98498,0.75568
6170.05624,0.75561
6168.12749,0.75605
6166.19875,0.75720
6164.27000,0.75903
6162.34126,0.76022
6160.41251,0.75991
6158.48377,0.75914
6156.55502,0.75899
6154.62628,0.75924
6152.69753,0.75932
6150.76878,0.76008
6148.84004,0.76127
6146.91129,0.76115
6144.98255,0.76082
6143.05380,0.76222
6141.12506,0.76407
6139.19631,0.76414
6137.26757,0.76310
6135.33882,0.76275
6133.41008,0.76311
6131.48133,0.76343
6129.55259,0.76301
6127.62384,0.76215
6125.69510,0.76246
6123.76635,0.76436
6121.83761,0.76666
6119.90886,0.76776
6117.98011,0.76696
6116.05137,0.76544
6114.12262,0.76473
6112.19388,0.76495
6110.26513,0.76565
6108.33639,0.76590
6106.40764,0.76478
6104.47890,0.76418
6102.55015,0.76596
6100.62141,0.76746
6098.69266,0.76709
6096.76392,0.76694
6094.83517,0.76694
6092.90643,0.76653
6090.97768,0.76637
6089.04893,0.76605
6087.12019,0.76621
6085.19144,0.76693
6083.26270,0.76618
6081.33395,0.76461
6079.40521,0.76485
6077.47646,0.76680
6075.54772,0.76789
6073.61897,0.76699
6071.69023,0.76575
6069.76148,0.76550
6067.83274,0.76601
6065.90399,0.76710
6063.97525,0.76777
6062.04650,0.76689
6060.11776,0.76586
6058.18901,0.76572
6056.26026,0.76478
6054.33152,0.76296
6052.40277,0.76203
6050.47403,0.76219
6048.54528,0.76314
6046.61654,0.76491
6044.68779,0.76634
6042.75905,0.76595
6040.83030,0.76410
6038.90156,0.76266
6036.97281,0.76234
6035.04407,0.76238
6033.11532,0.76293
6031.18658,0.76460
6029.25783,0.76561
6027.32909,0.76403
6025.40034,0.76141
6023.47159,0.75993
6021.54285,0.75941
6019.61410,0.75917
6017.68536,0.75935
6015.75661,0.75987
6013.82787,0.76041
6011.89912,0.76048
6009.97038,0.75940
6008.04163,0.75735
6006.11289,0.75574
6004.18414,0.75545
6002.25540,0.75598
6000.32665,0.75661
5998.39791,0.75744
5996.46916,0.75830
5994.54041,0.75772
5992.61167,0.75582
5990.68292,0.75490
5988.75418,0.75561
5986.82543,0.75685
5984.89669,0.75730
5982.96794,0.75591
5981.03920,0.75377
5979.11045,0.75282
5977.18171,0.75311
5975.25296,0.75382
5973.32422,0.75462
5971.39547,0.75545
5969.46673,0.75548
5967.53798,0.75372
5965.60924,0.75160
5963.68049,0.75117
5961.75174,0.75148
5959.82300,0.75158
5957.89425,0.75234
5955.96551,0.75281
5954.03676,0.75185
5952.10802,0.75038
5950.17927,0.74905
5948.25053,0.74861
5946.32178,0.74891
5944.39304,0.74882
5942.46429,0.74905
5940.53555,0.74951
5938.60680,0.74939
5936.67806,0.74984
5934.74931,0.75093
5932.82057,0.75109
5930.89182,0.75031
5928.96307,0.75012
5927.03433,0.75091
5925.10558,0.75124
5923.17684,0.75001
5921.24809,0.74838
5919.31935,0.74855
5917.39060,0.74965
5915.46186,0.74971
5913.53311,0.74988
5911.60437,0.75058
5909.67562,0.74966
5907.74688,0.74665
5905.81813,0.74383
5903.88939,0.74363
5901.96064,0.74488
5900.03189,0.74500
5898.10315,0.74462
5896.17440,0.74482
5894.24566,0.74486
5892.31691,0.74485
5890.38817,0.74521
5888.45942,0.74526
5886.53068,0.74460
5884.60193,0.74408
5882.67319,0.74446
5880.74444,0.74466
5878.81570,0.74362
5876.88695,0.74197
5874.95821,0.74057
5873.02946,0.74068
5871.10072,0.74317
5869.17197,0.74551
5867.24322,0.74547
5865.31448,0.74407
5863.38573,0.74268
5861.45699,0.74232
5859.52824,0.74330
5857.59950,0.74371
5855.67075,0.74223
5853.74201,0.74073
5851.81326,0.74106
5849.88452,0.74206
5847.95577,0.74251
5846.02703,0.74268
5844.09828,0.74202
5842.16954,0.74032
5840.24079,0.73962
5838.31205,0.74092
5836.38330,0.74241
5834.45455,0.74281
5832.52581,0.74221
5830.59706,0.74105
5828.66832,0.74022
5826.73957,0.73933
5824.81083,0.73721
5822.88208,0.73514
5820.95334,0.73481
5819.02459,0.73504
5817.09585,0.73453
5815.16710,0.73397
5813.23836,0.73354
5811.30961,0.73298
5809.38087,0.73285
5807.45212,0.73290
5805.52337,0.73284
5803.59463,0.73361
5801.66588,0.73550
5799.73714,0.73683
5797.80839,0.73634
5795.87965,0.73500
5793.95090,0.73391
5792.02216,0.73375
5790.09341,0.73513
5788.16467,0.73697
5786.23592,0.73772
5784.30718,0.73750
5782.37843,0.73708
5780.44969,0.73690
5778.52094,0.73726
5776.59220,0.73782
5774.66345,0.73804
5772.73470,0.73825
5770.80596,0.73945
5768.87721,0.74146
5766.94847,0.74213
5765.01972,0.74137
5763.09098,0.74214
5761.16223,0.74424
5759.23349,0.74442
5757.30474,0.74309
5755.37600,0.74312
5753.44725,0.74413
5751.51851,0.74410
5749.58976,0.74273
5747.66102,0.74120
5745.73227,0.74140
5743.80352,0.74335
5741.87478,0.74480
5739.94603,0.74474
5738.01729,0.74408
5736.08854,0.74386
5734.15980,0.74413
5732.23105,0.74385
5730.30231,0.74263
5728.37356,0.74200
5726.44482,0.74258
5724.51607,0.74293
5722.58733,0.74292
5720.65858,0.74354
5718.72984,0.74444
5716.80109,0.74417
5714.87235,0.74236
5712.94360,0.74028
5711.01485,0.73939
5709.08611,0.74065
5707.15736,0.74317
5705.22862,0.74481
5703.29987,0.74500
5701.37113,0.74407
5699.44238,0.74301
5697.51364,0.74229
5695.58489,0.74175
5693.65615,0.74273
5691.72740,0.74496
5689.79866,0.74571
5687.86991,0.74459
5685.94117,0.74304
5684.01242,0.74161
5682.08368,0.74064
5680.15493,0.74039
5678.22618,0.74036
5676.29744,0.73995
5674.36869,0.73957
5672.43995,0.74001
5670.51120,0.74067
5668.58246,0.74093
5666.65371,0.74118
5664.72497,0.74101
5662.79622,0.74042
5660.86748,0.74054
5658.93873,0.74131
5657.00999,0.74185
5655.08124,0.74175
5653.15250,0.74100
5651.22375,0.73989
5649.29500,0.73941
5647.36626,0.73989
5645.43751,0.74051
5643.50877,0.74143
5641.58002,0.74293
5639.65128,0.74339
5637.72253,0.74179
5635.79379,0.74002
5633.86504,0.74017
5631.93630,0.74117
5630.00755,0.74131
5628.07881,0.74080
5626.15006,0.74027
5624.22132,0.74013
5622.29257,0.74050
5620.36383,0.74072
5618.43508,0.74016
5616.50633,0.73942
5614.57759,0.73931
5612.64884,0.73930
5610.72010,0.73934
5608.79135,0.74045
5606.86261,0.74209
5604.93386,0.74305
5603.00512,0.74315
5601.07637,0.74259
5599.14763,0.74179
5597.21888,0.74114
5595.29014,0.74120
5593.36139,0.74213
5591.43265,0.74265
5589.50390,0.74179
5587.57516,0.74054
5585.64641,0.74073
5583.71766,0.74225
5581.78892,0.74257
5579.86017,0.74088
5577.93143,0.73955
5576.00268,0.74017
5574.07394,0.74178
5572.14519,0.74344
5570.21645,0.74514
5568.28770,0.74615
5566.35896,0.74605
5564.43021,0.74538
5562.50147,0.74421
5560.57272,0.74273
5558.64398,0.74206
5556.71523,0.74273
5554.78648,0.74451
5552.85774,0.74628
5550.92899,0.74659
5549.00025,0.74582
5547.07150,0.74505
5545.14276,0.74443
5543.21401,0.74435
5541.28527,0.74497
5539.35652,0.74543
5537.42778,0.74541
5535.49903,0.74560
5533.57029,0.74606
5531.64154,0.74665
5529.71280,0.74755
5527.78405,0.74804
5525.85531,0.74752
5523.92656,0.74661
5521.99781,0.74583
5520.06907,0.74503
5518.14032,0.74455
5516.21158,0.74503
5514.28283,0.74620
5512.35409,0.74741
5510.42534,0.74813
5508.49660,0.74804
5506.56785,0.74780
5504.63911,0.74780
5502.71036,0.74733
5500.78162,0.74681
5498.85287,0.74744
5496.92413,0.74832
5494.99538,0.74784
5493.06664,0.74667
5491.13789,0.74678
5489.20914,0.74827
5487.28040,0.74894
5485.35165,0.74768
5483.42291,0.74560
5481.49416,0.74415
5479.56542,0.74458
5477.63667,0.74658
5475.70793,0.74833
5473.77918,0.74957
5471.85044,0.75036
5469.92169,0.74987
5467.99295,0.74897
5466.06420,0.74881
5464.13546,0.74910
5462.20671,0.74959
5460.27796,0.75029
5458.34922,0.75101
5456.42047,0.75121
5454.49173,0.75078
5452.56298,0.75072
5450.63424,0.75146
5448.70549,0.75202
5446.77675,0.75189
5444.84800,0.75165
5442.91926,0.75149
5440.99051,0.75147
5439.06177,0.75173
5437.13302,0.75230
5435.20428,0.75328
5433.27553,0.75402
5431.34679,0.75418
5429.41804,0.75454
5427.48929,0.75525
5425.56055,0.75579
5423.63180,0.75619
5421.70306,0.75647
5419.77431,0.75625
5417.84557,0.75624
5415.91682,0.75718
5413.98808,0.75823
5412.05933,0.75875
5410.13059,0.75934
5408.20184,0.76005
5406.27310,0.75996
5404.34435,0.75906
5402.41561,0.75855
5400.48686,0.75902
5398.55811,0.76015
5396.62937,0.76127
5394.70062,0.76130
5392.77188,0.76000
5390.84313,0.75903
5388.91439,0.75951
5386.98564,0.76045
5385.05690,0.76098
5383.12815,0.76161
5381.19941,0.76253
5379.27066,0.76309
5377.34192,0.76281
5375.41317,0.76199
5373.48443,0.76116
5371.55568,0.76043
5369.62694,0.76031
5367.69819,0.76081
5365.76944,0.76088
5363.84070,0.76067
5361.91195,0.76103
5359.98321,0.76142
5358.05446,0.76113
5356.12572,0.76059
5354.19697,0.76045
5352.26823,0.76070
5350.33948,0.76092
5348.41074,0.76067
5346.48199,0.76028
5344.55325,0.76004
5342.62450,0.75971
5340.69576,0.75933
5338.76701,0.75899
5336.83827,0.75877
5334.90952,0.75847
5332.98077,0.75795
5331.05203,0.75728
5329.12328,0.75607
5327.19454,0.75499
5325.26579,0.75481
5323.33705,0.75413
5321.40830,0.75254
5319.47956,0.75138
5317.55081,0.75045
5315.62207,0.74904
5313.69332,0.74755
5311.76458,0.74636
5309.83583,0.74567
5307.90709,0.74529
5305.97834,0.74457
5304.04959,0.74339
5302.12085,0.74180
5300.19210,0.73965
5298.26336,0.73697
5296.33461,0.73400
5294.40587,0.73126
5292.47712,0.72931
5290.54838,0.72799
5288.61963,0.72668
5286.69089,0.72465
5284.76214,0.72126
5282.83340,0.71726
5280.90465,0.71397
5278.97591,0.71134
5277.04716,0.70862
5275.11842,0.70501
5273.18967,0.70057
5271.26092,0.69671
5269.33218,0.69397
5267.40343,0.69116
5265.47469,0.68761
5263.54594,0.68361
5261.61720,0.67953
5259.68845,0.67559
5257.75971,0.67180
5255.83096,0.66863
5253.90222,0.66636
5251.97347,0.66409
5250.04473,0.66095
5248.11598,0.65723
5246.18724,0.65435
5244.25849,0.65270
5242.32975,0.65078
5240.40100,0.64795
5238.47225,0.64516
5236.54351,0.64291
5234.61476,0.64077
5232.68602,0.63845
5230.75727,0.63615
5228.82853,0.63417
5226.89978,0.63273
5224.97104,0.63169
5223.04229,0.63035
5221.11355,0.62853
5219.18480,0.62684
5217.25606,0.62564
5215.32731,0.62464
5213.39857,0.62311
5211.46982,0.62145
5209.54107,0.62074
5207.61233,0.62063
5205.68358,0.62048
5203.75484,0.62031
5201.82609,0.62028
5199.89735,0.62045
5197.96860,0.62064
5196.03986,0.62086
5194.11111,0.62098
5192.18237,0.62064
5190.25362,0.62026
5188.32488,0.62052
5186.39613,0.62123
5184.46739,0.62195
5182.53864,0.62264
5180.60990,0.62315
5178.68115,0.62380
5176.75240,0.62509
5174.82366,0.62606
5172.89491,0.62597
5170.96617,0.62625
5169.03742,0.62741
5167.10868,0.62808
5165.17993,0.62837
5163.25119,0.62937
5161.32244,0.63078
5159.39370,0.63230
5157.46495,0.63399
5155.53621,0.63550
5153.60746,0.63646
5151.67872,0.63711
5149.74997,0.63805
5147.82123,0.63930
5145.89248,0.64063
5143.96373,0.64212
5142.03499,0.64331
5140.10624,0.64367
5138.17750,0.64378
5136.24875,0.64415
5134.32001,0.64504
5132.39126,0.64683
5130.46252,0.64891
5128.53377,0.65051
5126.60503,0.65153
5124.67628,0.65204
5122.74754,0.65263
5120.81879,0.65383
5118.89005,0.65534
5116.96130,0.65678
5115.03255,0.65781
5113.10381,0.65856
5111.17506,0.65974
5109.24632,0.66089
5107.31757,0.66107
5105.38883,0.66117
5103.46008,0.66208
5101.53134,0.66350
5099.60259,0.66504
5097.67385,0.66607
5095.74510,0.66660
5093.81636,0.66762
5091.88761,0.66914
5089.95887,0.67031
5088.03012,0.67087
5086.10138,0.67119
5084.17263,0.67163
5082.24388,0.67216
5080.31514,0.67315
5078.38639,0.67483
5076.45765,0.67640
5074.52890,0.67750
5072.60016,0.67854
5070.67141,0.67935
5068.74267,0.67962
5066.81392,0.67980
5064.88518,0.68044
5062.95643,0.68149
5061.02769,0.68261
5059.09894,0.68334
5057.17020,0.68309
5055.24145,0.68213
5053.31270,0.68181
5051.38396,0.68261
5049.45521,0.68373
5047.52647,0.68490
5045.59772,0.68624
5043.66898,0.68733
5041.74023,0.68806
5039.81149,0.68872
5037.88274,0.68949
5035.95400,0.69003
5034.02525,0.69027
5032.09651,0.69073
5030.16776,0.69126
5028.23902,0.69150
5026.31027,0.69174
5024.38153,0.69195
5022.45278,0.69191
5020.52403,0.69189
5018.59529,0.69185
5016.66654,0.69149
5014.73780,0.69129
5012.80905,0.69167
5010.88031,0.69237
5008.95156,0.69297
5007.02282,0.69317
5005.09407,0.69333
5003.16533,0.69370
5001.23658,0.69365
4999.30784,0.69320
4997.37909,0.69322
4995.45035,0.69364
4993.52160,0.69359
4991.59286,0.69284
4989.66411,0.69176
4987.73536,0.69083
4985.80662,0.69036
4983.87787,0.69027
4981.94913,0.69005
4980.02038,0.68939
4978.09164,0.68879
4976.16289,0.68828
4974.23415,0.68733
4972.30540,0.68576
4970.37666,0.68371
4968.44791,0.68185
4966.51917,0.68054
4964.59042,0.67937
4962.66168,0.67854
4960.73293,0.67835
4958.80418,0.67748
4956.87544,0.67531
4954.94669,0.67357
4953.01795,0.67284
4951.08920,0.67173
4949.16046,0.66952
4947.23171,0.66684
4945.30297,0.66503
4943.37422,0.66441
4941.44548,0.66353
4939.51673,0.66150
4937.58799,0.65909
4935.65924,0.65688
4933.73050,0.65486
4931.80175,0.65329
4929.87301,0.65207
4927.94426,0.65045
4926.01551,0.64815
4924.08677,0.64580
4922.15802,0.64365
4920.22928,0.64127
4918.30053,0.63875
4916.37179,0.63652
4914.44304,0.63493
4912.51430,0.63378
4910.58555,0.63234
4908.65681,0.63006
4906.72806,0.62731
4904.79932,0.62506
4902.87057,0.62319
4900.94183,0.62097
4899.01308,0.61862
4897.08434,0.61674
4895.15559,0.61532
4893.22684,0.61363
4891.29810,0.61125
4889.36935,0.60885
4887.44061,0.60685
4885.51186,0.60494
4883.58312,0.60316
4881.65437,0.60141
4879.72563,0.59906
4877.79688,0.59639
4875.86814,0.59412
4873.93939,0.59222
4872.01065,0.59059
4870.08190,0.58898
4868.15316,0.58705
4866.22441,0.58522
4864.29566,0.58390
4862.36692,0.58253
4860.43817,0.58063
4858.50943,0.57856
4856.58068,0.57694
4854.65194,0.57575
4852.72319,0.57450
4850.79445,0.57326
4848.86570,0.57202
4846.93696,0.57060
4845.00821,0.56918
4843.07947,0.56773
4841.15072,0.56599
4839.22198,0.56410
4837.29323,0.56252
4835.36449,0.56141
4833.43574,0.56038
4831.50699,0.55921
4829.57825,0.55824
4827.64950,0.55741
4825.72076,0.55620
4823.79201,0.55473
4821.86327,0.55323
4819.93452,0.55177
4818.00578,0.55070
4816.07703,0.54993
4814.14829,0.54929
4812.21954,0.54899
4810.29080,0.54878
4808.36205,0.54828
4806.43331,0.54798
4804.50456,0.54812
4802.57582,0.54807
4800.64707,0.54731
4798.71832,0.54611
4796.78958,0.54565
4794.86083,0.54603
4792.93209,0.54583
4791.00334,0.54473
4789.07460,0.54362
4787.14585,0.54302
4785.21711,0.54296
4783.28836,0.54302
4781.35962,0.54282
4779.43087,0.54286
4777.50213,0.54328
4775.57338,0.54325
4773.64464,0.54276
4771.71589,0.54245
4769.78714,0.54226
4767.85840,0.54213
4765.92965,0.54223
4764.00091,0.54202
4762.07216,0.54135
4760.14342,0.54105
4758.21467,0.54131
4756.28593,0.54162
4754.35718,0.54187
4752.42844,0.54196
4750.49969,0.54191
4748.57095,0.54201
4746.64220,0.54201
4744.71346,0.54166
4742.78471,0.54151
4740.85597,0.54158
4738.92722,0.54136
4736.99847,0.54110
4735.06973,0.54141
4733.14098,0.54214
4731.21224,0.54256
4729.28349,0.54288
4727.35475,0.54380
4725.42600,0.54476
4723.49726,0.54486
4721.56851,0.54448
4719.63977,0.54446
4717.71102,0.54484
4715.78228,0.54521
4713.85353,0.54551
4711.92479,0.54597
4709.99604,0.54654
4708.06729,0.54698
4706.13855,0.54730
4704.20980,0.54755
4702.28106,0.54780
4700.35231,0.54815
4698.42357,0.54840
4696.49482,0.54880
4694.56608,0.54947
4692.63733,0.54980
4690.70859,0.54978
4688.77984,0.54990
4686.85110,0.55037
4684.92235,0.55128
4682.99361,0.55249
4681.06486,0.55359
4679.13612,0.55421
4677.20737,0.55461
4675.27862,0.55557
4673.34988,0.55694
4671.42113,0.55786
4669.49239,0.55834
4667.56364,0.55917
4665.63490,0.56027
4663.70615,0.56101
4661.77741,0.56159
4659.84866,0.56236
4657.91992,0.56307
4655.99117,0.56383
4654.06243,0.56491
4652.13368,0.56616
4650.20494,0.56755
4648.27619,0.56868
4646.34745,0.56888
4644.41870,0.56850
4642.48995,0.56878
4640.56121,0.56996
4638.63246,0.57106
4636.70372,0.57176
4634.77497,0.57250
4632.84623,0.57321
4630.91748,0.57385
4628.98874,0.57491
4627.05999,0.57651
4625.13125,0.57789
4623.20250,0.57869
4621.27376,0.57937
4619.34501,0.57994
4617.41627,0.58008
4615.48752,0.58015
4613.55877,0.58083
4611.63003,0.58204
4609.70128,0.58323
4607.77254,0.58411
4605.84379,0.58480
4603.91505,0.58570
4601.98630,0.58655
4600.05756,0.58681
4598.12881,0.58703
4596.20007,0.58787
4594.27132,0.58895
4592.34258,0.58968
4590.41383,0.59025
4588.48509,0.59112
4586.55634,0.59223
4584.62760,0.59308
4582.69885,0.59310
4580.77010,0.59263
4578.84136,0.59299
4576.91261,0.59438
4574.98387,0.59549
4573.05512,0.59572
4571.12638,0.59550
4569.19763,0.59556
4567.26889,0.59634
4565.34014,0.59735
4563.41140,0.59796
4561.48265,0.59851
4559.55391,0.59916
4557.62516,0.59965
4555.69642,0.60025
4553.76767,0.60109
4551.83893,0.60161
4549.91018,0.60165
4547.98143,0.60177
4546.05269,0.60233
4544.12394,0.60326
4542.19520,0.60395
4540.26645,0.60383
4538.33771,0.60346
4536.40896,0.60379
4534.48022,0.60460
4532.55147,0.60519
4530.62273,0.60552
4528.69398,0.60568
4526.76524,0.60592
4524.83649,0.60653
4522.90775,0.60720
4520.97900,0.60759
4519.05025,0.60769
4517.12151,0.60749
4515.19276,0.60712
4513.26402,0.60688
4511.33527,0.60667
4509.40653,0.60632
4507.47778,0.60580
4505.54904,0.60519
4503.62029,0.60461
4501.69155,0.60421
4499.76280,0.60372
4497.83406,0.60284
4495.90531,0.60189
4493.97657,0.60103
4492.04782,0.59968
4490.11908,0.59790
4488.19033,0.59648
4486.26158,0.59544
4484.33284,0.59426
4482.40409,0.59282
4480.47535,0.59120
4478.54660,0.58936
4476.61786,0.58709
4474.68911,0.58445
4472.76037,0.58198
4470.83162,0.57959
4468.90288,0.57694
4466.97413,0.57440
4465.04539,0.57212
4463.11664,0.56961
4461.18790,0.56685
4459.25915,0.56432
4457.33041,0.56215
4455.40166,0.55983
4453.47291,0.55713
4451.54417,0.55448
4449.61542,0.55192
4447.68668,0.54901
4445.75793,0.54591
4443.82919,0.54294
4441.90044,0.54022
4439.97170,0.53790
4438.04295,0.53574
4436.11421,0.53344
4434.18546,0.53115
4432.25672,0.52877
4430.32797,0.52618
4428.39923,0.52393
4426.47048,0.52229
4424.54173,0.52068
4422.61299,0.51861
4420.68424,0.51669
4418.75550,0.51552
4416.82675,0.51440
4414.89801,0.51271
4412.96926,0.51096
4411.04052,0.50981
4409.11177,0.50927
4407.18303,0.50872
4405.25428,0.50763
4403.32554,0.50632
4401.39679,0.50549
4399.46805,0.50509
4397.53930,0.50488
4395.61056,0.50503
4393.68181,0.50533
4391.75306,0.50534
4389.82432,0.50534
4387.89557,0.50588
4385.96683,0.50686
4384.03808,0.50768
4382.10934,0.50823
4380.18059,0.50904
4378.25185,0.51017
4376.32310,0.51101
4374.39436,0.51143
4372.46561,0.51193
4370.53687,0.51269
4368.60812,0.51341
4366.67938,0.51417
4364.75063,0.51523
4362.82189,0.51597
4360.89314,0.51591
4358.96439,0.51557
4357.03565,0.51528
4355.10690,0.51472
4353.17816,0.51382
4351.24941,0.51296
4349.32067,0.51245
4347.39192,0.51209
4345.46318,0.51161
4343.53443,0.51098
4341.60569,0.51019
4339.67694,0.50946
4337.74820,0.50909
4335.81945,0.50854
4333.89071,0.50724
4331.96196,0.50559
4330.03321,0.50420
4328.10447,0.50295
4326.17572,0.50165
4324.24698,0.50055
4322.31823,0.49981
4320.38949,0.49935
4318.46074,0.49914
4316.53200,0.49901
4314.60325,0.49860
4312.67451,0.49768
4310.74576,0.49658
4308.81702,0.49573
4306.88827,0.49513
4304.95953,0.49444
4303.03078,0.49338
4301.10204,0.49221
4299.17329,0.49134
4297.24454,0.49072
4295.31580,0.49018
4293.38705,0.48973
4291.45831,0.48931
4289.52956,0.48890
4287.60082,0.48849
4285.67207,0.48795
4283.74333,0.48761
4281.81458,0.48777
4279.88584,0.48820
4277.95709,0.48850
4276.02835,0.48834
4274.09960,0.48798
4272.17086,0.48819
4270.24211,0.48910
4268.31336,0.48996
4266.38462,0.49044
4264.45587,0.49099
4262.52713,0.49164
4260.59838,0.49188
4258.66964,0.49180
4256.74089,0.49188
4254.81215,0.49195
4252.88340,0.49182
4250.95466,0.49199
4249.02591,0.49269
4247.09717,0.49332
4245.16842,0.49362
4243.23968,0.49416
4241.31093,0.49503
4239.38219,0.49570
4237.45344,0.49600
4235.52469,0.49599
4233.59595,0.49594
4231.66720,0.49603
4229.73846,0.49616
4227.80971,0.49635
4225.88097,0.49679
4223.95222,0.49735
4222.02348,0.49774
4220.09473,0.49782
4218.16599,0.49771
4216.23724,0.49765
4214.30850,0.49769
4212.37975,0.49782
4210.45101,0.49805
4208.52226,0.49820
4206.59352,0.49831
4204.66477,0.49858
4202.73602,0.49901
4200.80728,0.49942
4198.87853,0.49973
4196.94979,0.49995
4195.02104,0.49999
4193.09230,0.49979
4191.16355,0.49955
4189.23481,0.49971
4187.30606,0.50026
4185.37732,0.50069
4183.44857,0.50096
4181.51983,0.50131
4179.59108,0.50172
4177.66234,0.50209
4175.73359,0.50235
4173.80484,0.50272
4171.87610,0.50357
4169.94735,0.50458
4168.01861,0.50505
4166.08986,0.50504
4164.16112,0.50497
4162.23237,0.50472
4160.30363,0.50407
4158.37488,0.50330
4156.44614,0.50300
4154.51739,0.50319
4152.58865,0.50318
4150.65990,0.50244
4148.73116,0.50125
4146.80241,0.50024
4144.87367,0.49971
4142.94492,0.49931
4141.01617,0.49852
4139.08743,0.49732
4137.15868,0.49613
4135.22994,0.49512
4133.30119,0.49402
4131.37245,0.49271
4129.44370,0.49129
4127.51496,0.48978
4125.58621,0.48830
4123.65747,0.48686
4121.72872,0.48524
4119.79998,0.48332
4117.87123,0.48129
4115.94249,0.47938
4114.01374,0.47753
4112.08500,0.47593
4110.15625,0.47461
4108.22750,0.47306
4106.29876,0.47103
4104.37001,0.46891
4102.44127,0.46701
4100.51252,0.46528
4098.58378,0.46373
4096.65503,0.46218
4094.72629,0.46016
4092.79754,0.45773
4090.86880,0.45530
4088.94005,0.45294
4087.01131,0.45067
4085.08256,0.44859
4083.15382,0.44649
4081.22507,0.44440
4079.29632,0.44248
4077.36758,0.44051
4075.43883,0.43830
4073.51009,0.43586
4071.58134,0.43349
4069.65260,0.43144
4067.72385,0.42931
4065.79511,0.42685
4063.86636,0.42437
4061.93762,0.42204
4060.00887,0.41979
4058.08013,0.41753
4056.15138,0.41537
4054.22264,0.41358
4052.29389,0.41195
4050.36515,0.41004
4048.43640,0.40803
4046.50765,0.40615
4044.57891,0.40419
4042.65016,0.40226
4040.72142,0.40072
4038.79267,0.39948
4036.86393,0.39818
4034.93518,0.39645
4033.00644,0.39448
4031.07769,0.39299
4029.14895,0.39215
4027.22020,0.39149
4025.29146,0.39060
4023.36271,0.38965
4021.43397,0.38904
4019.50522,0.38866
4017.57648,0.38841
4015.64773,0.38843
4013.71898,0.38851
4011.79024,0.38841
4009.86149,0.38826
4007.93275,0.38824
4006.00400,0.38841
4004.07526,0.38876
4002.14651,0.38917
4000.21777,0.38977
3998.28902,0.39064
3996.36028,0.39155
3994.43153,0.39228
3992.50279,0.39296
3990.57404,0.39391
3988.64530,0.39494
3986.71655,0.39554
3984.78780,0.39592
3982.85906,0.39654
3980.93031,0.39733
3979.00157,0.39795
3977.07282,0.39866
3975.14408,0.39983
3973.21533,0.40103
3971.28659,0.40187
3969.35784,0.40263
3967.42910,0.40366
3965.50035,0.40496
3963.57161,0.40618
3961.64286,0.40703
3959.71412,0.40782
3957.78537,0.40900
3955.85663,0.41040
3953.92788,0.41150
3951.99913,0.41224
3950.07039,0.41310
3948.14164,0.41427
3946.21290,0.41541
3944.28415,0.41660
3942.35541,0.41791
3940.42666,0.41900
3938.49792,0.41990
3936.56917,0.42097
3934.64043,0.42217
3932.71168,0.42329
3930.78294,0.42433
3928.85419,0.42535
3926.92545,0.42640
3924.99670,0.42746
3923.06795,0.42850
3921.13921,0.42945
3919.21046,0.43041
3917.28172,0.43157
3915.35297,0.43276
3913.42423,0.43364
3911.49548,0.43453
3909.56674,0.43581
3907.63799,0.43728
3905.70925,0.43882
3903.78050,0.44049
3901.85176,0.44197
3899.92301,0.44288
3897.99427,0.44335
3896.06552,0.44401
3894.13678,0.44514
3892.20803,0.44626
3890.27928,0.44703
3888.35054,0.44815
3886.42179,0.44991
3884.49305,0.45116
3882.56430,0.45167
3880.63556,0.45250
3878.70681,0.45357
3876.77807,0.45452
3874.84932,0.45564
3872.92058,0.45692
3870.99183,0.45832
3869.06309,0.45962
3867.13434,0.46059
3865.20560,0.46185
3863.27685,0.46342
3861.34811,0.46460
3859.41936,0.46550
3857.49061,0.46669
3855.56187,0.46862
3853.63312,0.47095
3851.70438,0.47218
3849.77563,0.47243
3847.84689,0.47276
3845.91814,0.47346
3843.98940,0.47468
3842.06065,0.47632
3840.13191,0.47800
3838.20316,0.47948
3836.27442,0.48046
3834.34567,0.48086
3832.41693,0.48096
3830.48818,0.48098
3828.55943,0.48127
3826.63069,0.48179
3824.70194,0.48206
3822.77320,0.48225
3820.84445,0.48277
3818.91571,0.48318
3816.98696,0.48345
3815.05822,0.48382
3813.12947,0.48381
3811.20073,0.48339
3809.27198,0.48311
3807.34324,0.48327
3805.41449,0.48351
3803.48575,0.48370
3801.55700,0.48392
3799.62826,0.48377
3797.69951,0.48341
3795.77076,0.48323
3793.84202,0.48312
3791.91327,0.48294
3789.98453,0.48262
3788.05578,0.48207
3786.12704,0.48152
3784.19829,0.48159
3782.26955,0.48219
3780.34080,0.48233
3778.41206,0.48170
3776.48331,0.48095
3774.55457,0.48047
3772.62582,0.48013
3770.69708,0.47993
3768.76833,0.47946
3766.83959,0.47855
3764.91084,0.47774
3762.98209,0.47732
3761.05335,0.47716
3759.12460,0.47679
3757.19586,0.47585
3755.26711,0.47481
3753.33837,0.47430
3751.40962,0.47428
3749.48088,0.47391
3747.55213,0.47299
3745.62339,0.47211
3743.69464,0.47094
3741.76590,0.46910
3739.83715,0.46743
3737.90841,0.46643
3735.97966,0.46550
3734.05091,0.46381
3732.12217,0.46151
3730.19342,0.45935
3728.26468,0.45740
3726.33593,0.45565
3724.40719,0.45418
3722.47844,0.45249
3720.54970,0.45005
3718.62095,0.44727
3716.69221,0.44463
3714.76346,0.44219
3712.83472,0.43983
3710.90597,0.43687
3708.97723,0.43296
3707.04848,0.42875
3705.11974,0.42485
3703.19099,0.42123
3701.26224,0.41722
3699.33350,0.41253
3697.40475,0.40745
3695.47601,0.40227
3693.54726,0.39719
3691.61852,0.39197
3689.68977,0.38571
3687.76103,0.37799
3685.83228,0.36989
3683.90354,0.36208
3681.97479,0.35432
3680.04605,0.34666
3678.11730,0.33910
3676.18856,0.33048
3674.25981,0.32073
3672.33107,0.31181
3670.40232,0.30299
3668.47357,0.29324
3666.54483,0.28385
3664.61608,0.27534
3662.68734,0.26730
3660.75859,0.25932
3658.82985,0.25131
3656.90110,0.24325
3654.97236,0.23561
3653.04361,0.22909
3651.11487,0.22297
3649.18612,0.21614
3647.25738,0.20909
3645.32863,0.20281
3643.39989,0.19721
3641.47114,0.19197
3639.54239,0.18693
3637.61365,0.18198
3635.68490,0.17720
3633.75616,0.17263
3631.82741,0.16820
3629.89867,0.16354
3627.96992,0.15884
3626.04118,0.15491
3624.11243,0.15148
3622.18369,0.14809
3620.25494,0.14455
3618.32620,0.14083
3616.39745,0.13728
3614.46871,0.13398
3612.53996,0.13071
3610.61122,0.12751
3608.68247,0.12457
3606.75372,0.12187
3604.82498,0.11924
3602.89623,0.11649
3600.96749,0.11363
3599.03874,0.11101
3597.11000,0.10859
3595.18125,0.10606
3593.25251,0.10365
3591.32376,0.10168
3589.39502,0.09978
3587.46627,0.09760
3585.53753,0.09566
3583.60878,0.09436
3581.68004,0.09315
3579.75129,0.09149
3577.82254,0.08952
3575.89380,0.08771
3573.96505,0.08632
3572.03631,0.08509
3570.10756,0.08367
3568.17882,0.08198
3566.25007,0.08024
3564.32133,0.07883
3562.39258,0.07784
3560.46384,0.07700
3558.53509,0.07619
3556.60635,0.07522
3554.67760,0.07406
3552.74886,0.07294
3550.82011,0.07210
3548.89137,0.07133
3546.96262,0.07017
3545.03387,0.06875
3543.10513,0.06765
3541.17638,0.06697
3539.24764,0.06644
3537.31889,0.06588
3535.39015,0.06522
3533.46140,0.06449
3531.53266,0.06376
3529.60391,0.06289
3527.67517,0.06184
3525.74642,0.06091
3523.81768,0.06031
3521.88893,0.05998
3519.96019,0.05981
3518.03144,0.05938
3516.10270,0.05859
3514.17395,0.05773
3512.24520,0.05701
3510.31646,0.05658
3508.38771,0.05625
3506.45897,0.05575
3504.53022,0.05526
3502.60148,0.05480
3500.67273,0.05428
3498.74399,0.05368
3496.81524,0.05312
3494.88650,0.05273
3492.95775,0.05246
3491.02901,0.05209
3489.10026,0.05168
3487.17152,0.05145
3485.24277,0.05118
3483.31402,0.05072
3481.38528,0.05040
3479.45653,0.05033
3477.52779,0.05017
3475.59904,0.04984
3473.67030,0.04946
3471.74155,0.04905
3469.81281,0.04875
3467.88406,0.04865
3465.95532,0.04841
3464.02657,0.04800
3462.09783,0.04774
3460.16908,0.04752
3458.24034,0.04712
3456.31159,0.04674
3454.38285,0.04667
3452.45410,0.04672
3450.52535,0.04656
3448.59661,0.04627
3446.66786,0.04611
3444.73912,0.04608
3442.81037,0.04598
3440.88163,0.04574
3438.95288,0.04545
3437.02414,0.04522
3435.09539,0.04516
3433.16665,0.04520
3431.23790,0.04516
3429.30916,0.04503
3427.38041,0.04497
3425.45167,0.04529
3423.52292,0.04569
3421.59418,0.04552
3419.66543,0.04497
3417.73668,0.04475
3415.80794,0.04498
3413.87919,0.04531
3411.95045,0.04548
3410.02170,0.04543
3408.09296,0.04535
3406.16421,0.04533
3404.23547,0.04530
3402.30672,0.04530
3400.37798,0.04552
3398.44923,0.04600
3396.52049,0.04641
3394.59174,0.04641
3392.66300,0.04610
3390.73425,0.04596
3388.80550,0.04624
3386.87676,0.04659
3384.94801,0.04660
3383.01927,0.04634
3381.09052,0.04629
3379.16178,0.04665
3377.23303,0.04708
3375.30429,0.04722
3373.37554,0.04711
3371.44680,0.04712
3369.51805,0.04721
3367.58931,0.04707
3365.66056,0.04686
3363.73182,0.04706
3361.80307,0.04742
3359.87433,0.04745
3357.94558,0.04724
3356.01683,0.04704
3354.08809,0.04706
3352.15934,0.04756
3350.23060,0.04826
3348.30185,0.04850
3346.37311,0.04838
3344.44436,0.04858
3342.51562,0.04905
3340.58687,0.04923
3338.65813,0.04912
3336.72938,0.04919
3334.80064,0.04947
3332.87189,0.04958
3330.94315,0.04961
3329.01440,0.04990
3327.08566,0.05031
3325.15691,0.05064
3323.22816,0.05104
3321.29942,0.05141
3319.37067,0.05140
3317.44193,0.05132
3315.51318,0.05181
3313.58444,0.05242
3311.65569,0.05254
3309.72695,0.05249
3307.79820,0.05276
3305.86946,0.05322
3303.94071,0.05350
3302.01197,0.05367
3300.08322,0.05410
3298.15448,0.05480
3296.22573,0.05539
3294.29698,0.05565
3292.36824,0.05580
3290.43949,0.05605
3288.51075,0.05620
3286.58200,0.05642
3284.65326,0.05699
3282.72451,0.05760
3280.79577,0.05793
3278.86702,0.05814
3276.93828,0.05848
3275.00953,0.05902
3273.08079,0.05965
3271.15204,0.06025
3269.22330,0.06083
3267.29455,0.06121
3265.36581,0.06138
3263.43706,0.06169
3261.50831,0.06243
3259.57957,0.06338
3257.65082,0.06409
3255.72208,0.06455
3253.79333,0.06492
3251.86459,0.06532
3249.93584,0.06583
3248.00710,0.06634
3246.07835,0.06697
3244.14961,0.06758
3242.22086,0.06793
3240.29212,0.06845
3238.36337,0.06937
3236.43463,0.07032
3234.50588,0.07106
3232.57713,0.07156
3230.64839,0.07192
3228.71964,0.07247
3226.79090,0.07317
3224.86215,0.07367
3222.93341,0.07393
3221.00466,0.07426
3219.07592,0.07474
3217.14717,0.07536
3215.21843,0.07625
3213.28968,0.07717
3211.36094,0.07779
3209.43219,0.07830
3207.50345,0.07905
3205.57470,0.08003
3203.64596,0.08087
3201.71721,0.08136
3199.78846,0.08182
3197.85972,0.08244
3195.93097,0.08309
3194.00223,0.08374
3192.07348,0.08434
3190.14474,0.08484
3188.21599,0.08543
3186.28725,0.08619
3184.35850,0.08686
3182.42976,0.08728
3180.50101,0.08767
3178.57227,0.08811
3176.64352,0.08876
3174.71478,0.08985
3172.78603,0.09103
3170.85729,0.09185
3168.92854,0.09244
3166.99979,0.09311
3165.07105,0.09405
3163.14230,0.09510
3161.21356,0.09588
3159.28481,0.09645
3157.35607,0.09704
3155.42732,0.09758
3153.49858,0.09809
3151.56983,0.09876
3149.64109,0.09946
3147.71234,0.10004
3145.78360,0.10069
3143.85485,0.10152
3141.92611,0.10231
3139.99736,0.10289
3138.06861,0.10328
3136.13987,0.10364
3134.21112,0.10434
3132.28238,0.10529
3130.35363,0.10591
3128.42489,0.10628
3126.49614,0.10715
3124.56740,0.10834
3122.63865,0.10912
3120.70991,0.10953
3118.78116,0.11011
3116.85242,0.11093
3114.92367,0.11178
3112.99493,0.11263
3111.06618,0.11354
3109.13744,0.11440
3107.20869,0.11512
3105.27994,0.11570
3103.35120,0.11612
3101.42245,0.11656
3099.49371,0.11725
3097.56496,0.11806
3095.63622,0.11879
3093.70747,0.11952
3091.77873,0.12033
3089.84998,0.12099
3087.92124,0.12142
3085.99249,0.12190
3084.06375,0.12251
3082.13500,0.12318
3080.20626,0.12380
3078.27751,0.12438
3076.34877,0.12505
3074.42002,0.12567
3072.49127,0.12613
3070.56253,0.12676
3068.63378,0.12785
3066.70504,0.12910
3064.77629,0.13003
3062.84755,0.13073
3060.91880,0.13144
3058.99006,0.13218
3057.06131,0.13294
3055.13257,0.13360
3053.20382,0.13421
3051.27508,0.13489
3049.34633,0.13542
3047.41759,0.13571
3045.48884,0.13629
3043.56009,0.13713
3041.63135,0.13764
3039.70260,0.13783
3037.77386,0.13820
3035.84511,0.13877
3033.91637,0.13915
3031.98762,0.13915
3030.05888,0.13891
3028.13013,0.13869
3026.20139,0.13860
3024.27264,0.13856
3022.34390,0.13847
3020.41515,0.13812
3018.48641,0.13758
3016.55766,0.13716
3014.62892,0.13681
3012.70017,0.13637
3010.77142,0.13585
3008.84268,0.13538
3006.91393,0.13484
3004.98519,0.13402
3003.05644,0.13313
3001.12770,0.13236
2999.19895,0.13149
2997.27021,0.13057
2995.34146,0.12989
2993.41272,0.12927
2991.48397,0.12824
2989.55523,0.12672
2987.62648,0.12507
2985.69774,0.12338
2983.76899,0.12162
2981.84025,0.11984
2979.91150,0.11785
2977.98275,0.11565
2976.05401,0.11356
2974.12526,0.11173
2972.19652,0.11000
2970.26777,0.10826
2968.33903,0.10668
2966.41028,0.10531
2964.48154,0.10395
2962.55279,0.10249
2960.62405,0.10100
2958.69530,0.09956
2956.76656,0.09810
2954.83781,0.09660
2952.90907,0.09525
2950.98032,0.09413
2949.05157,0.09303
2947.12283,0.09179
2945.19408,0.09048
2943.26534,0.08926
2941.33659,0.08836
2939.40785,0.08799
2937.47910,0.08805
2935.55036,0.08820
2933.62161,0.08813
2931.69287,0.08776
2929.76412,0.08751
2927.83538,0.08768
2925.90663,0.08794
2923.97789,0.08814
2922.04914,0.08861
2920.12040,0.08927
2918.19165,0.08980
2916.26290,0.09014
2914.33416,0.09017
2912.40541,0.08966
2910.47667,0.08888
2908.54792,0.08831
2906.61918,0.08821
2904.69043,0.08833
2902.76169,0.08818
2900.83294,0.08786
2898.90420,0.08782
2896.97545,0.08814
2895.04671,0.08843
2893.11796,0.08846
2891.18922,0.08853
2889.26047,0.08905
2887.33172,0.08985
2885.40298,0.09031
2883.47423,0.09052
2881.54549,0.09107
2879.61674,0.09176
2877.68800,0.09213
2875.75925,0.09234
2873.83051,0.09278
2871.90176,0.09344
2869.97302,0.09414
2868.04427,0.09493
2866.11553,0.09584
2864.18678,0.09674
2862.25804,0.09773
2860.32929,0.09894
2858.40055,0.10010
2856.47180,0.10100
2854.54305,0.10181
2852.61431,0.10280
2850.68556,0.10441
2848.75682,0.10673
2846.82807,0.10919
2844.89933,0.11142
2842.97058,0.11338
2841.04184,0.11519
2839.11309,0.11726
2837.18435,0.11970
2835.25560,0.12222
2833.32686,0.12465
2831.39811,0.12697
2829.46937,0.12917
2827.54062,0.13121
2825.61188,0.13314
2823.68313,0.13513
2821.75438,0.13711
2819.82564,0.13906
2817.89689,0.14092
2815.96815,0.14238
2814.03940,0.14368
2812.11066,0.14533
2810.18191,0.14707
2808.25317,0.14842
2806.32442,0.14954
2804.39568,0.15073
2802.46693,0.15203
2800.53819,0.15336
2798.60944,0.15459
2796.68070,0.15566
2794.75195,0.15660
2792.82320,0.15749
2790.89446,0.15840
2788.96571,0.15928
2787.03697,0.16006
2785.10822,0.16066
2783.17948,0.16118
2781.25073,0.16187
2779.32199,0.16254
2777.39324,0.16297
2775.46450,0.16335
2773.53575,0.16385
2771.60701,0.16441
2769.67826,0.16496
2767.74952,0.16548
2765.82077,0.16594
2763.89203,0.16635
2761.96328,0.16680
2760.03453,0.16734
2758.10579,0.16785
2756.17704,0.16824
2754.24830,0.16859
2752.31955,0.16894
2750.39081,0.16926
2748.46206,0.16954
2746.53332,0.16971
2744.60457,0.16976
2742.67583,0.16976
2740.74708,0.16989
2738.81834,0.17026
2736.88959,0.17070
2734.96085,0.17113
2733.03210,0.17174
2731.10336,0.17233
2729.17461,0.17266
2727.24586,0.17304
2725.31712,0.17358
2723.38837,0.17412
2721.45963,0.17471
2719.53088,0.17542
2717.60214,0.17614
2715.67339,0.17682
2713.74465,0.17757
2711.81590,0.17841
2709.88716,0.17937
2707.95841,0.18047
2706.02967,0.18144
2704.10092,0.18218
2702.17218,0.18295
2700.24343,0.18394
2698.31468,0.18497
2696.38594,0.18581
2694.45719,0.18657
2692.52845,0.18740
2690.59970,0.18825
2688.67096,0.18911
2686.74221,0.18998
2684.81347,0.19078
2682.88472,0.19158
2680.95598,0.19242
2679.02723,0.19327
2677.09849,0.19420
2675.16974,0.19516
2673.24100,0.19608
2671.31225,0.19702
2669.38351,0.19793
2667.45476,0.19866
2665.52601,0.19926
2663.59727,0.19995
2661.66852,0.20078
2659.73978,0.20156
2657.81103,0.20221
2655.88229,0.20290
2653.95354,0.20370
2652.02480,0.20451
2650.09605,0.20522
2648.16731,0.20589
2646.23856,0.20659
2644.30982,0.20740
2642.38107,0.20835
2640.45233,0.20923
2638.52358,0.20993
2636.59484,0.21073
2634.66609,0.21175
2632.73734,0.21279
2630.80860,0.21387
2628.87985,0.21501
2626.95111,0.21601
2625.02236,0.21681
2623.09362,0.21753
2621.16487,0.21828
2619.23613,0.21913
2617.30738,0.21997
2615.37864,0.22081
2613.44989,0.22178
2611.52115,0.22275
2609.59240,0.22360
2607.66366,0.22443
2605.73491,0.22525
2603.80616,0.22602
2601.87742,0.22672
2599.94867,0.22744
2598.01993,0.22830
2596.09118,0.22915
2594.16244,0.22986
2592.23369,0.23045
2590.30495,0.23101
2588.37620,0.23160
2586.44746,0.23235
2584.51871,0.23332
2582.58997,0.23424
2580.66122,0.23485
2578.73248,0.23511
2576.80373,0.23518
2574.87499,0.23533
2572.94624,0.23564
2571.01749,0.23600
2569.08875,0.23636
2567.16000,0.23670
2565.23126,0.23698
2563.30251,0.23742
2561.37377,0.23807
2559.44502,0.23860
2557.51628,0.23882
2555.58753,0.23897
2553.65879,0.23933
2551.73004,0.23984
2549.80130,0.24036
2547.87255,0.24071
2545.94381,0.24087
2544.01506,0.24113
2542.08631,0.24149
2540.15757,0.24183
2538.22882,0.24226
2536.30008,0.24292
2534.37133,0.24373
2532.44259,0.24450
2530.51384,0.24510
2528.58510,0.24571
2526.65635,0.24628
2524.72761,0.24667
2522.79886,0.24710
2520.87012,0.24778
2518.94137,0.24849
2517.01263,0.24898
2515.08388,0.24940
2513.15514,0.25005
2511.22639,0.25095
2509.29764,0.25182
2507.36890,0.25265
2505.44015,0.25353
2503.51141,0.25455
2501.58266,0.25574
2499.65392,0.25687
2497.72517,0.25774
2495.79643,0.25857
2493.86768,0.25963
2491.93894,0.26081
2490.01019,0.26172
2488.08145,0.26240
2486.15270,0.26326
2484.22396,0.26429
2482.29521,0.26529
2480.36647,0.26633
2478.43772,0.26749
2476.50897,0.26855
2474.58023,0.26938
2472.65148,0.27014
2470.72274,0.27098
2468.79399,0.27194
2466.86525,0.27292
2464.93650,0.27384
2463.00776,0.27477
2461.07901,0.27582
2459.15027,0.27693
2457.22152,0.27795
2455.29278,0.27891
2453.36403,0.27988
2451.43529,0.28086
2449.50654,0.28194
2447.57779,0.28319
2445.64905,0.28458
2443.72030,0.28595
2441.79156,0.28710
2439.86281,0.28799
2437.93407,0.28900
2436.00532,0.29032
2434.07658,0.29174
2432.14783,0.29304
2430.21909,0.29419
2428.29034,0.29527
2426.36160,0.29644
2424.43285,0.29785
2422.50411,0.29937
2420.57536,0.30072
2418.64662,0.30191
2416.71787,0.30320
2414.78912,0.30465
2412.86038,0.30608
2410.93163,0.30744
2409.00289,0.30892
2407.07414,0.31055
2405.14540,0.31191
2403.21665,0.31296
2401.28791,0.31406
2399.35916,0.31521
2397.43042,0.31629
2395.50167,0.31740
2393.57293,0.31856
2391.64418,0.31971
2389.71544,0.32076
2387.78669,0.32173
2385.85795,0.32272
2383.92920,0.32375
2382.00045,0.32479
2380.07171,0.32580
2378.14296,0.32667
2376.21422,0.32751
2374.28547,0.32844
2372.35673,0.32941
2370.42798,0.33042
2368.49924,0.33158
2366.57049,0.33278
2364.64175,0.33386
2362.71300,0.33474
2360.78426,0.33533
2358.85551,0.33585
2356.92677,0.33656
2354.99802,0.33739
2353.06927,0.33818
2351.14053,0.33908
2349.21178,0.34024
2347.28304,0.34153
2345.35429,0.34277
2343.42555,0.34373
2341.49680,0.34436
2339.56806,0.34489
2337.63931,0.34543
2335.71057,0.34601
2333.78182,0.34666
2331.85308,0.34733
2329.92433,0.34796
2327.99559,0.34853
2326.06684,0.34912
2324.13810,0.34970
2322.20935,0.35010
2320.28060,0.35043
2318.35186,0.35090
2316.42311,0.35141
2314.49437,0.35170
2312.56562,0.35191
2310.63688,0.35212
2308.70813,0.35207
2306.77939,0.35183
2304.85064,0.35174
2302.92190,0.35166
2300.99315,0.35135
2299.06441,0.35112
2297.13566,0.35117
2295.20692,0.35119
2293.27817,0.35102
2291.34943,0.35088
2289.42068,0.35082
2287.49193,0.35074
2285.56319,0.35067
2283.63444,0.35073
2281.70570,0.35079
2279.77695,0.35062
2277.84821,0.35028
2275.91946,0.34980
2273.99072,0.34925
2272.06197,0.34889
2270.13323,0.34868
2268.20448,0.34843
2266.27574,0.34808
2264.34699,0.34759
2262.41825,0.34697
2260.48950,0.34640
2258.56075,0.34595
2256.63201,0.34555
2254.70326,0.34513
2252.77452,0.34476
2250.84577,0.34442
2248.91703,0.34403
2246.98828,0.34365
2245.05954,0.34339
2243.13079,0.34323
2241.20205,0.34319
2239.27330,0.34329
2237.34456,0.34341
2235.41581,0.34346
2233.48707,0.34351
2231.55832,0.34359
2229.62958,0.34369
2227.70083,0.34385
2225.77208,0.34405
2223.84334,0.34429
2221.91459,0.34448
2219.98585,0.34457
2218.05710,0.34461
2216.12836,0.34457
2214.19961,0.34438
2212.27087,0.34424
2210.34212,0.34431
2208.41338,0.34440
2206.48463,0.34424
2204.55589,0.34378
2202.62714,0.34311
2200.69840,0.34238
2198.76965,0.34174
2196.84090,0.34111
2194.91216,0.34036
2192.98341,0.33936
2191.05467,0.33829
2189.12592,0.33728
2187.19718,0.33612
2185.26843,0.33472
2183.33969,0.33329
2181.41094,0.33183
2179.48220,0.33031
2177.55345,0.32875
2175.62471,0.32716
2173.69596,0.32562
2171.76722,0.32416
2169.83847,0.32268
2167.90973,0.32117
2165.98098,0.31976
2164.05223,0.31851
2162.12349,0.31745
2160.19474,0.31652
2158.26600,0.31564
2156.33725,0.31483
2154.40851,0.31412
2152.47976,0.31332
2150.55102,0.31246
2148.62227,0.31190
2146.69353,0.31167
2144.76478,0.31140
2142.83604,0.31103
2140.90729,0.31074
2138.97855,0.31056
2137.04980,0.31052
2135.12106,0.31065
2133.19231,0.31087
2131.26356,0.31106
2129.33482,0.31128
2127.40607,0.31177
2125.47733,0.31256
2123.54858,0.31338
2121.61984,0.31414
2119.69109,0.31487
2117.76235,0.31544
2115.83360,0.31590
2113.90486,0.31657
2111.97611,0.31749
2110.04737,0.31845
2108.11862,0.31931
2106.18988,0.32016
2104.26113,0.32113
2102.33238,0.32206
2100.40364,0.32291
2098.47489,0.32380
2096.54615,0.32473
2094.61740,0.32566
2092.68866,0.32654
2090.75991,0.32739
2088.83117,0.32816
2086.90242,0.32872
2084.97368,0.32906
2083.04493,0.32927
2081.11619,0.32937
2079.18744,0.32952
2077.25870,0.32979
2075.32995,0.32997
2073.40121,0.32997
2071.47246,0.32995
2069.54371,0.33001
2067.61497,0.33006
2065.68622,0.33005
2063.75748,0.33003
2061.82873,0.33005
2059.89999,0.33016
2057.97124,0.33041
2056.04250,0.33077
2054.11375,0.33113
2052.18501,0.33150
2050.25626,0.33201
2048.32752,0.33256
2046.39877,0.33301
2044.47003,0.33343
2042.54128,0.33402
2040.61254,0.33485
2038.68379,0.33580
2036.75504,0.33680
2034.82630,0.33795
2032.89755,0.33932
2030.96881,0.34066
2029.04006,0.34182
2027.11132,0.34302
2025.18257,0.34444
2023.25383,0.34593
2021.32508,0.34739
2019.39634,0.34897
2017.46759,0.35081
2015.53885,0.35269
2013.61010,0.35439
2011.68136,0.35601
2009.75261,0.35749
2007.82386,0.35876
2005.89512,0.36005
2003.96637,0.36142
2002.03763,0.36271
2000.10888,0.36387
1998.18014,0.36502
1996.25139,0.36618
1994.32265,0.36722
1992.39390,0.36814
1990.46516,0.36902
1988.53641,0.36984
1986.60767,0.37054
1984.67892,0.37111
1982.75018,0.37169
1980.82143,0.37225
1978.89269,0.37262
1976.96394,0.37286
1975.03519,0.37318
1973.10645,0.37341
1971.17770,0.37347
1969.24896,0.37377
1967.32021,0.37429
1965.39147,0.37461
1963.46272,0.37477
1961.53398,0.37502
1959.60523,0.37533
1957.67649,0.37567
1955.74774,0.37613
1953.81900,0.37666
1951.89025,0.37714
1949.96151,0.37769
1948.03276,0.37848
1946.10402,0.37957
1944.17527,0.38084
1942.24652,0.38200
1940.31778,0.38294
1938.38903,0.38394
1936.46029,0.38519
1934.53154,0.38653
1932.60280,0.38778
1930.67405,0.38886
1928.74531,0.38979
1926.81656,0.39069
1924.88782,0.39175
1922.95907,0.39295
1921.03033,0.39408
1919.10158,0.39499
1917.17284,0.39557
1915.24409,0.39585
1913.31534,0.39607
1911.38660,0.39642
1909.45785,0.39678
1907.52911,0.39700
1905.60036,0.39712
1903.67162,0.39713
1901.74287,0.39709
1899.81413,0.39712
1897.88538,0.39717
1895.95664,0.39719
1894.02789,0.39716
1892.09915,0.39705
1890.17040,0.39694
1888.24166,0.39690
1886.31291,0.39690
1884.38417,0.39689
1882.45542,0.39676
1880.52667,0.39650
1878.59793,0.39618
1876.66918,0.39580
1874.74044,0.39528
1872.81169,0.39469
1870.88295,0.39423
1868.95420,0.39379
1867.02546,0.39306
1865.09671,0.39219
1863.16797,0.39143
1861.23922,0.39072
1859.31048,0.38988
1857.38173,0.38888
1855.45299,0.38791
1853.52424,0.38698
1851.59549,0.38590
1849.66675,0.38476
1847.73800,0.38389
1845.80926,0.38315
1843.88051,0.38209
1841.95177,0.38065
1840.02302,0.37915
1838.09428,0.37770
1836.16553,0.37625
1834.23679,0.37483
1832.30804,0.37344
1830.37930,0.37188
1828.45055,0.36999
1826.52181,0.36800
1824.59306,0.36593
1822.66432,0.36370
1820.73557,0.36139
1818.80682,0.35901
1816.87808,0.35645
1814.94933,0.35374
1813.02059,0.35098
1811.09184,0.34800
1809.16310,0.34471
1807.23435,0.34135
1805.30561,0.33803
1803.37686,0.33461
1801.44812,0.33081
1799.51937,0.32655
1797.59063,0.32203
1795.66188,0.31755
1793.73314,0.31293
1791.80439,0.30756
1789.87565,0.30179
1787.94690,0.29615
1786.01815,0.29033
1784.08941,0.28405
1782.16066,0.27747
1780.23192,0.27047
1778.30317,0.26294
1776.37443,0.25508
1774.44568,0.24673
1772.51694,0.23704
1770.58819,0.22619
1768.65945,0.21495
1766.73070,0.20354
1764.80196,0.19275
1762.87321,0.18234
1760.94447,0.17183
1759.01572,0.16211
1757.08697,0.15309
1755.15823,0.14479
1753.22948,0.13743
1751.30074,0.13024
1749.37199,0.12332
1747.44325,0.11758
1745.51450,0.11300
1743.58576,0.10946
1741.65701,0.10698
1739.72827,0.10536
1737.79952,0.10451
1735.87078,0.10428
1733.94203,0.10438
1732.01329,0.10477
1730.08454,0.10555
1728.15580,0.10652
1726.22705,0.10762
1724.29830,0.10903
1722.36956,0.11070
1720.44081,0.11253
1718.51207,0.11461
1716.58332,0.11659
1714.65458,0.11809
1712.72583,0.11945
1710.79709,0.12112
1708.86834,0.12303
1706.93960,0.12470
1705.01085,0.12590
1703.08211,0.12705
1701.15336,0.12846
1699.22462,0.12957
1697.29587,0.12995
1695.36713,0.12984
1693.43838,0.12946
1691.50963,0.12905
1689.58089,0.12864
1687.65214,0.12823
1685.72340,0.12766
1683.79465,0.12640
1681.86591,0.12453
1679.93716,0.12242
1678.00842,0.12010
1676.07967,0.11734
1674.15093,0.11402
1672.22218,0.11058
1670.29344,0.10685
1668.36469,0.10249
1666.43595,0.09826
1664.50720,0.09435
1662.57845,0.09051
1660.64971,0.08738
1658.72096,0.08543
1656.79222,0.08450
1654.86347,0.08456
1652.93473,0.08549
1651.00598,0.08656
1649.07724,0.08771
1647.14849,0.08907
1645.21975,0.09000
1643.29100,0.09026
1641.36226,0.09012
1639.43351,0.08983
1637.50477,0.08953
1635.57602,0.08903
1633.64728,0.08821
1631.71853,0.08735
1629.78978,0.08655
1627.86104,0.08566
1625.93229,0.08460
1624.00355,0.08337
1622.07480,0.08217
1620.14606,0.08130
1618.21731,0.08059
1616.28857,0.07964
1614.35982,0.07874
1612.43108,0.07826
1610.50233,0.07795
1608.57359,0.07754
1606.64484,0.07709
1604.71610,0.07659
1602.78735,0.07607
1600.85861,0.07569
1598.92986,0.07551
1597.00111,0.07547
1595.07237,0.07577
1593.14362,0.07662
1591.21488,0.07803
1589.28613,0.07992
1587.35739,0.08223
1585.42864,0.08492
1583.49990,0.08784
1581.57115,0.09081
1579.64241,0.09382
1577.71366,0.09699
1575.78492,0.10023
1573.85617,0.10305
1571.92743,0.10555
1569.99868,0.10799
1568.06993,0.11035
1566.14119,0.11273
1564.21244,0.11510
1562.28370,0.11730
1560.35495,0.11967
1558.42621,0.12205
1556.49746,0.12353
1554.56872,0.12464
1552.63997,0.12566
1550.71123,0.12645
1548.78248,0.12716
1546.85374,0.12791
1544.92499,0.12870
1542.99625,0.12916
1541.06750,0.12895
1539.13876,0.12792
1537.21001,0.12658
1535.28126,0.12509
1533.35252,0.12275
1531.42377,0.11927
1529.49503,0.11500
1527.56628,0.10994
1525.63754,0.10430
1523.70879,0.09828
1521.78005,0.09125
1519.85130,0.08431
1517.92256,0.07932
1515.99381,0.07610
1514.06507,0.07424
1512.13632,0.07341
1510.20758,0.07326
1508.27883,0.07350
1506.35008,0.07361
1504.42134,0.07353
1502.49259,0.07375
1500.56385,0.07447
1498.63510,0.07561
1496.70636,0.07703
1494.77761,0.07872
1492.84887,0.08070
1490.92012,0.08281
1488.99138,0.08460
1487.06263,0.08558
1485.13389,0.08560
1483.20514,0.08464
1481.27640,0.08269
1479.34765,0.07999
1477.41891,0.07678
1475.49016,0.07319
1473.56141,0.06915
1471.63267,0.06502
1469.70392,0.06192
1467.77518,0.06002
1465.84643,0.05900
1463.91769,0.05877
1461.98894,0.05893
1460.06020,0.05901
1458.13145,0.05888
1456.20271,0.05870
1454.27396,0.05871
1452.34522,0.05892
1450.41647,0.05932
1448.48773,0.05970
1446.55898,0.05984
1444.63024,0.05971
1442.70149,0.05916
1440.77274,0.05809
1438.84400,0.05691
1436.91525,0.05594
1434.98651,0.05506
1433.05776,0.05413
1431.12902,0.05339
1429.20027,0.05313
1427.27153,0.05319
1425.34278,0.05346
1423.41404,0.05419
1421.48529,0.05539
1419.55655,0.05674
1417.62780,0.05778
1415.69906,0.05855
1413.77031,0.05944
1411.84156,0.06030
1409.91282,0.06083
1407.98407,0.06099
1406.05533,0.06073
1404.12658,0.06008
1402.19784,0.05932
1400.26909,0.05871
1398.34035,0.05822
1396.41160,0.05757
1394.48286,0.05646
1392.55411,0.05514
1390.62537,0.05391
1388.69662,0.05258
1386.76788,0.05094
1384.83913,0.04934
1382.91039,0.04816
1380.98164,0.04743
1379.05289,0.04707
1377.12415,0.04701
1375.19540,0.04710
1373.26666,0.04715
1371.33791,0.04725
1369.40917,0.04759
1367.48042,0.04808
1365.55168,0.04854
1363.62293,0.04904
1361.69419,0.04965
1359.76544,0.05026
1357.83670,0.05081
1355.90795,0.05136
1353.97921,0.05199
1352.05046,0.05256
1350.12172,0.05287
1348.19297,0.05287
1346.26422,0.05258
1344.33548,0.05216
1342.40673,0.05173
1340.47799,0.05131
1338.54924,0.05092
1336.62050,0.05063
1334.69175,0.05051
1332.76301,0.05046
1330.83426,0.05044
1328.90552,0.05036
1326.97677,0.05017
1325.04803,0.05000
1323.11928,0.05000
1321.19054,0.05015
1319.26179,0.05034
1317.33304,0.05055
1315.40430,0.05095
1313.47555,0.05157
1311.54681,0.05224
1309.61806,0.05292
1307.68932,0.05363
1305.76057,0.05423
1303.83183,0.05466
1301.90308,0.05499
1299.97434,0.05521
1298.04559,0.05534
1296.11685,0.05533
1294.18810,0.05503
1292.25936,0.05436
1290.33061,0.05342
1288.40187,0.05236
1286.47312,0.05132
1284.54437,0.05030
1282.61563,0.04940
1280.68688,0.04871
1278.75814,0.04797
1276.82939,0.04705
1274.90065,0.04619
1272.97190,0.04557
1271.04316,0.04500
1269.11441,0.04440
1267.18567,0.04409
1265.25692,0.04413
1263.32818,0.04410
1261.39943,0.04393
1259.47069,0.04388
1257.54194,0.04414
1255.61320,0.04458
1253.68445,0.04502
1251.75570,0.04543
1249.82696,0.04584
1247.89821,0.04636
1245.96947,0.04698
1244.04072,0.04764
1242.11198,0.04819
1240.18323,0.04854
1238.25449,0.04890
1236.32574,0.04956
1234.39700,0.05045
1232.46825,0.05140
1230.53951,0.05232
1228.61076,0.05311
1226.68202,0.05380
1224.75327,0.05453
1222.82452,0.05520
1220.89578,0.05558
1218.96703,0.05582
1217.03829,0.05611
1215.10954,0.05624
1213.18080,0.05598
1211.25205,0.05551
1209.32331,0.05499
1207.39456,0.05450
1205.46582,0.05415
1203.53707,0.05406
1201.60833,0.05411
1199.67958,0.05415
1197.75084,0.05428
1195.82209,0.05436
1193.89335,0.05393
1191.96460,0.05303
1190.03585,0.05198
1188.10711,0.05088
1186.17836,0.04971
1184.24962,0.04841
1182.32087,0.04710
1180.39213,0.04613
1178.46338,0.04554
1176.53464,0.04514
1174.60589,0.04505
1172.67715,0.04543
1170.74840,0.04613
1168.81966,0.04698
1166.89091,0.04788
1164.96217,0.04881
1163.03342,0.04991
1161.10467,0.05125
1159.17593,0.05246
1157.24718,0.05313
1155.31844,0.05341
1153.38969,0.05343
1151.46095,0.05325
1149.53220,0.05321
1147.60346,0.05326
1145.67471,0.05310
1143.74597,0.05283
1141.81722,0.05248
1139.88848,0.05196
1137.95973,0.05154
1136.03099,0.05138
1134.10224,0.05121
1132.17350,0.05095
1130.24475,0.05096
1128.31600,0.05150
1126.38726,0.05254
1124.45851,0.05392
1122.52977,0.05535
1120.60102,0.05664
1118.67228,0.05788
1116.74353,0.05905
1114.81479,0.06013
1112.88604,0.06142
1110.95730,0.06306
1109.02855,0.06456
1107.09981,0.06560
1105.17106,0.06638
1103.24232,0.06726
1101.31357,0.06836
1099.38483,0.06946
1097.45608,0.07022
1095.52733,0.07057
1093.59859,0.07071
1091.66984,0.07071
1089.74110,0.07069
1087.81235,0.07066
1085.88361,0.07062
1083.95486,0.07067
1082.02612,0.07078
1080.09737,0.07092
1078.16863,0.07121
1076.23988,0.07160
1074.31114,0.07185
1072.38239,0.07209
1070.45365,0.07240
1068.52490,0.07248
1066.59615,0.07240
1064.66741,0.07266
1062.73866,0.07337
1060.80992,0.07437
1058.88117,0.07565
1056.95243,0.07715
1055.02368,0.07864
1053.09494,0.07998
1051.16619,0.08120
1049.23745,0.08221
1047.30870,0.08300
1045.37996,0.08383
1043.45121,0.08481
1041.52247,0.08569
1039.59372,0.08647
1037.66498,0.08728
1035.73623,0.08788
1033.80748,0.08798
1031.87874,0.08772
1029.94999,0.08734
1028.02125,0.08678
1026.09250,0.08600
1024.16376,0.08529
1022.23501,0.08473
1020.30627,0.08416
1018.37752,0.08377
1016.44878,0.08377
1014.52003,0.08375
1012.59129,0.08328
1010.66254,0.08268
1008.73380,0.08241
1006.80505,0.08246
1004.87631,0.08254
1002.94756,0.08268
1001.01881,0.08295
999.09007,0.08310
997.16132,0.08314
995.23258,0.08328
993.30383,0.08381
991.37509,0.08506
989.44634,0.08678
987.51760,0.08852
985.58885,0.09064
983.66011,0.09339
981.73136,0.09615
979.80262,0.09834
977.87387,0.09997
975.94513,0.10153
974.01638,0.10335
972.08763,0.10538
970.15889,0.10750
968.23014,0.10961
966.30140,0.11182
964.37265,0.11437
962.44391,0.11750
960.51516,0.12112
958.58642,0.12478
956.65767,0.12837
954.72893,0.13213
952.80018,0.13604
950.87144,0.13992
948.94269,0.14371
947.01395,0.14723
945.08520,0.15016
943.15646,0.15246
941.22771,0.15418
939.29896,0.15538
937.37022,0.15644
935.44147,0.15747
933.51273,0.15839
931.58398,0.15927
929.65524,0.15987
927.72649,0.15999
925.79775,0.15997
923.86900,0.16009
921.94026,0.16007
920.01151,0.15953
918.08277,0.15833
916.15402,0.15667
914.22528,0.15464
912.29653,0.15214
910.36779,0.14939
908.43904,0.14633
906.51029,0.14255
904.58155,0.13820
902.65280,0.13417
900.72406,0.13156
898.79531,0.13109
896.86657,0.13267
894.93782,0.13587
893.00908,0.14036
891.08033,0.14593
889.15159,0.15211
887.22284,0.15816
885.29410,0.16317
883.36535,0.16672
881.43661,0.16915
879.50786,0.17077
877.57911,0.17181
875.65037,0.17275
873.72162,0.17356
871.79288,0.17380
869.86413,0.17341
867.93539,0.17321
866.00664,0.17373
864.07790,0.17422
862.14915,0.17393
860.22041,0.17293
858.29166,0.17125
856.36292,0.16926
854.43417,0.16759
852.50543,0.16622
850.57668,0.16477
848.64794,0.16312
846.71919,0.16148
844.79044,0.15996
842.86170,0.15872
840.93295,0.15807
839.00421,0.15800
837.07546,0.15842
835.14672,0.15929
833.21797,0.16046
831.28923,0.16196
829.36048,0.16356
827.43174,0.16464
825.50299,0.16529
823.57425,0.16597
821.64550,0.16636
819.71676,0.16625
817.78801,0.16630
815.85926,0.16673
813.93052,0.16708
812.00177,0.16752
810.07303,0.16823
808.14428,0.16859
806.21554,0.16839
804.28679,0.16833
802.35805,0.16882
800.42930,0.16939
798.50056,0.16942
796.57181,0.16896
794.64307,0.16829
792.71432,0.16743
790.78558,0.16648
788.85683,0.16564
786.92809,0.16479
784.99934,0.16360
783.07059,0.16221
781.14185,0.16109
779.21310,0.15997
777.28436,0.15850
775.35561,0.15686
773.42687,0.15523
771.49812,0.15369
769.56938,0.15233
767.64063,0.15120
765.71189,0.15026
763.78314,0.14913
761.85440,0.14775
759.92565,0.14631
757.99691,0.14469
756.06816,0.14304
754.13942,0.14157
752.21067,0.14000
750.28192,0.13833
748.35318,0.13657
746.42443,0.13475
744.49569,0.13323
742.56694,0.13185
740.63820,0.13045
738.70945,0.12951
736.78071,0.12884
734.85196,0.12784
732.92322,0.12659
730.99447,0.12524
729.06573,0.12403
727.13698,0.12337
725.20824,0.12300
723.27949,0.12228
721.35074,0.12119
719.42200,0.12021
717.49325,0.11954
715.56451,0.11883
713.63576,0.11812
711.70702,0.11758
709.77827,0.11705
707.84953,0.11631
705.92078,0.11545
703.99204,0.11483
702.06329,0.11462
700.13455,0.11448
698.20580,0.11397
696.27706,0.11301
694.34831,0.11185
692.41957,0.11083
690.49082,0.10999
688.56207,0.10910
686.63333,0.10804
684.70458,0.10677
682.77584,0.10531
680.84709,0.10358
678.91835,0.10152
676.98960,0.09953
675.06086,0.09829
673.13211,0.09813
671.20337,0.09873
669.27462,0.09967
667.34588,0.10060
665.41713,0.10114
663.48839,0.10165
661.55964,0.10204
659.63090,0.10196
657.70215,0.10213
655.77340,0.10299
653.84466,0.10389
651.91591,0.10403
649.98717,0.10350
648.05842,0.10289
646.12968,0.10235
644.20093,0.10195
642.27219,0.10200
640.34344,0.10248
638.41470,0.10241
636.48595,0.10122
634.55721,0.10018
632.62846,0.09992
630.69972,0.09954
628.77097,0.09895
626.84222,0.09848
624.91348,0.09810
622.98473,0.09811
621.05599,0.09919
619.12724,0.10106
617.19850,0.10232
615.26975,0.10261
613.34101,0.10270
611.41226,0.10311
609.48352,0.10373
607.55477,0.10452
605.62603,0.10569
603.69728,0.10705
601.76854,0.10878
599.83979,0.11052
