7497.03301,0.83331
7495.10426,0.83015
7493.17552,0.83341
7491.24677,0.83956
7489.31803,0.84127
7487.38928,0.84026
7485.46054,0.84165
7483.53179,0.84280
7481.60305,0.84248
7479.67430,0.84374
7477.74556,0.84393
7475.81681,0.83996
7473.88807,0.83593
7471.95932,0.83554
7470.03057,0.83779
7468.10183,0.83948
7466.17308,0.83831
7464.24434,0.83642
7462.31559,0.83787
7460.38685,0.84143
7458.45810,0.84131
7456.52936,0.83599
7454.60061,0.83057
7452.67187,0.83219
7450.74312,0.83870
7448.81438,0.83867
7446.88563,0.83489
7444.95689,0.83721
7443.02814,0.83812
7441.09940,0.83216
7439.17065,0.82776
7437.24190,0.82759
7435.31316,0.82853
7433.38441,0.83123
7431.45567,0.83587
7429.52692,0.83958
7427.59818,0.84274
7425.66943,0.84812
7423.74069,0.85001
7421.81194,0.84287
7419.88320,0.83288
7417.95445,0.82424
7416.02571,0.81851
7414.09696,0.81964
7412.16822,0.82388
7410.23947,0.82665
7408.31073,0.82914
7406.38198,0.82959
7404.45323,0.82622
7402.52449,0.82187
7400.59574,0.81912
7398.66700,0.81872
7396.73825,0.82069
7394.80951,0.82344
7392.88076,0.82546
7390.95202,0.82818
7389.02327,0.83326
7387.09453,0.83639
7385.16578,0.83445
7383.23704,0.83281
7381.30829,0.83331
7379.37955,0.83159
7377.45080,0.82750
7375.52205,0.82385
7373.59331,0.82286
7371.66456,0.82158
7369.73582,0.81541
7367.80707,0.81010
7365.87833,0.81124
7363.94958,0.81367
7362.02084,0.81409
7360.09209,0.81671
7358.16335,0.82420
7356.23460,0.83090
7354.30586,0.82991
7352.37711,0.82563
7350.44837,0.82417
7348.51962,0.82179
7346.59088,0.81598
7344.66213,0.81253
7342.73338,0.81603
7340.80464,0.82305
7338.87589,0.82655
7336.94715,0.82403
7335.01840,0.81937
7333.08966,0.81643
7331.16091,0.81463
7329.23217,0.81288
7327.30342,0.81184
7325.37468,0.81215
7323.44593,0.81337
7321.51719,0.81371
7319.58844,0.81287
7317.65970,0.81163
7315.73095,0.81109
7313.80221,0.81177
7311.87346,0.81149
7309.94471,0.81001
7308.01597,0.80984
7306.08722,0.81151
7304.15848,0.81363
7302.22973,0.81580
7300.30099,0.81834
7298.37224,0.81799
7296.44350,0.81612
7294.51475,0.81835
7292.58601,0.81755
7290.65726,0.80916
7288.72852,0.80504
7286.79977,0.81008
7284.87103,0.81538
7282.94228,0.81492
7281.01353,0.81069
7279.08479,0.80632
7277.15604,0.80428
7275.22730,0.80509
7273.29855,0.80626
7271.36981,0.80769
7269.44106,0.81180
7267.51232,0.81594
7265.58357,0.81654
7263.65483,0.81552
7261.72608,0.81523
7259.79734,0.81555
7257.86859,0.81461
7255.93985,0.81194
7254.01110,0.81050
7252.08236,0.81140
7250.15361,0.81314
7248.22486,0.81323
7246.29612,0.81237
7244.36737,0.81559
7242.43863,0.82105
7240.50988,0.82267
7238.58114,0.82061
7236.65239,0.81870
7234.72365,0.81971
7232.79490,0.82114
7230.86616,0.81966
7228.93741,0.81469
7227.00867,0.80748
7225.07992,0.80340
7223.15118,0.80462
7221.22243,0.80705
7219.29369,0.80694
7217.36494,0.80383
7215.43619,0.80225
7213.50745,0.80507
7211.57870,0.80744
7209.64996,0.80614
7207.72121,0.80445
7205.79247,0.80378
7203.86372,0.80332
7201.93498,0.80425
7200.00623,0.80627
7198.07749,0.80745
7196.14874,0.80736
7194.22000,0.80676
7192.29125,0.80648
7190.36251,0.80692
7188.43376,0.80848
7186.50501,0.81065
7184.57627,0.80940
7182.64752,0.80258
7180.71878,0.79748
7178.79003,0.80047
7176.86129,0.80592
7174.93254,0.80876
7173.00380,0.81068
7171.07505,0.81020
7169.14631,0.80730
7167.21756,0.80657
7165.28882,0.80638
7163.36007,0.80485
7161.43133,0.80534
7159.50258,0.80564
7157.57384,0.80332
7155.64509,0.80302
7153.71634,0.80468
7151.78760,0.80321
7149.85885,0.79898
7147.93011,0.79618
7146.00136,0.79714
7144.07262,0.79921
7142.14387,0.79754
7140.21513,0.79444
7138.28638,0.79387
7136.35764,0.79399
7134.42889,0.79517
7132.50015,0.79685
7130.57140,0.79429
7128.64266,0.79023
7126.71391,0.79033
7124.78516,0.79238
7122.85642,0.79236
7120.92767,0.79068
7118.99893,0.78885
7117.07018,0.78618
7115.14144,0.78445
7113.21269,0.78551
7111.28395,0.78469
7109.35520,0.77970
7107.42646,0.77470
7105.49771,0.77219
7103.56897,0.77234
7101.64022,0.77539
7099.71148,0.77961
7097.78273,0.77979
7095.85399,0.77461
7093.92524,0.77141
7091.99649,0.77379
7090.06775,0.77644
7088.13900,0.77627
7086.21026,0.77444
7084.28151,0.77285
7082.35277,0.77284
7080.42402,0.77214
7078.49528,0.76933
7076.56653,0.76709
7074.63779,0.76623
7072.70904,0.76428
7070.78030,0.76043
7068.85155,0.75832
7066.92281,0.75912
7064.99406,0.75711
7063.06532,0.75073
7061.13657,0.74722
7059.20782,0.74873
7057.27908,0.74910
7055.35033,0.74760
7053.42159,0.74742
7051.49284,0.74594
7049.56410,0.74111
7047.63535,0.73606
7045.70661,0.73354
7043.77786,0.73269
7041.84912,0.73219
7039.92037,0.73349
7037.99163,0.73633
7036.06288,0.73633
7034.13414,0.73248
7032.20539,0.72826
7030.27664,0.72580
7028.34790,0.72529
7026.41915,0.72560
7024.49041,0.72521
7022.56166,0.72466
7020.63292,0.72520
7018.70417,0.72544
7016.77543,0.72242
7014.84668,0.71878
7012.91794,0.71994
7010.98919,0.72113
7009.06045,0.71663
7007.13170,0.71399
7005.20296,0.71699
7003.27421,0.71673
7001.34547,0.71177
6999.41672,0.70844
6997.48797,0.70679
6995.55923,0.70417
6993.63048,0.69958
6991.70174,0.69459
6989.77299,0.69334
6987.84425,0.69584
6985.91550,0.69831
6983.98676,0.69931
6982.05801,0.69926
6980.12927,0.69961
6978.20052,0.70135
6976.27178,0.70319
6974.34303,0.70386
6972.41429,0.70205
6970.48554,0.69878
6968.55680,0.69781
6966.62805,0.69660
6964.69930,0.69025
6962.77056,0.68519
6960.84181,0.68898
6958.91307,0.69527
6956.98432,0.69682
6955.05558,0.69603
6953.12683,0.69599
6951.19809,0.69690
6949.26934,0.69722
6947.34060,0.69621
6945.41185,0.69633
6943.48311,0.69796
6941.55436,0.69771
6939.62562,0.69514
6937.69687,0.69543
6935.76812,0.69916
6933.83938,0.69865
6931.91063,0.69316
6929.98189,0.68988
6928.05314,0.68880
6926.12440,0.68686
6924.19565,0.68628
6922.26691,0.68704
6920.33816,0.68620
6918.40942,0.68408
6916.48067,0.68266
6914.55193,0.68257
6912.62318,0.68303
6910.69444,0.68493
6908.76569,0.68949
6906.83695,0.69173
6904.90820,0.68671
6902.97945,0.67994
6901.05071,0.67882
6899.12196,0.68279
6897.19322,0.68774
6895.26447,0.69117
6893.33573,0.69230
6891.40698,0.69038
6889.47824,0.68653
6887.54949,0.68499
6885.62075,0.68660
6883.69200,0.68827
6881.76326,0.68891
6879.83451,0.68921
6877.90577,0.68874
6875.97702,0.68604
6874.04828,0.68379
6872.11953,0.68458
6870.19078,0.68455
6868.26204,0.68356
6866.33329,0.68422
6864.40455,0.68480
6862.47580,0.68614
6860.54706,0.68940
6858.61831,0.69144
6856.68957,0.69006
6854.76082,0.68737
6852.83208,0.68678
6850.90333,0.68677
6848.97459,0.68349
6847.04584,0.67838
6845.11710,0.67634
6843.18835,0.67914
6841.25960,0.68319
6839.33086,0.68404
6837.40211,0.68302
6835.47337,0.68428
6833.54462,0.68734
6831.61588,0.69088
6829.68713,0.69375
6827.75839,0.69227
6825.82964,0.68811
6823.90090,0.68613
6821.97215,0.68671
6820.04341,0.68828
6818.11466,0.68963
6816.18592,0.69021
6814.25717,0.68981
6812.32843,0.68881
6810.39968,0.68731
6808.47093,0.68486
6806.54219,0.68342
6804.61344,0.68439
6802.68470,0.68553
6800.75595,0.68450
6798.82721,0.68257
6796.89846,0.68272
6794.96972,0.68469
6793.04097,0.68529
6791.11223,0.68295
6789.18348,0.68065
6787.25474,0.68195
6785.32599,0.68546
6783.39725,0.68663
6781.46850,0.68412
6779.53975,0.68168
6777.61101,0.68143
6775.68226,0.68133
6773.75352,0.68037
6771.82477,0.67929
6769.89603,0.67934
6767.96728,0.68085
6766.03854,0.68183
6764.10979,0.68168
6762.18105,0.68233
6760.25230,0.68353
6758.32356,0.68372
6756.39481,0.68278
6754.46607,0.68109
6752.53732,0.68052
6750.60858,0.68283
6748.67983,0.68621
6746.75108,0.68796
6744.82234,0.68785
6742.89359,0.68710
6740.96485,0.68648
6739.03610,0.68629
6737.10736,0.68550
6735.17861,0.68342
6733.24987,0.68337
6731.32112,0.68643
6729.39238,0.68824
6727.46363,0.68736
6725.53489,0.68626
6723.60614,0.68581
6721.67740,0.68667
6719.74865,0.68974
6717.81991,0.69307
6715.89116,0.69389
6713.96241,0.69216
6712.03367,0.69023
6710.10492,0.68961
6708.17618,0.68899
6706.24743,0.68806
6704.31869,0.68878
6702.38994,0.68995
6700.46120,0.68868
6698.53245,0.68592
6696.60371,0.68413
6694.67496,0.68427
6692.74622,0.68637
6690.81747,0.68953
6688.88873,0.69182
6686.95998,0.69226
6685.03123,0.69252
6683.10249,0.69283
6681.17374,0.69141
6679.24500,0.68948
6677.31625,0.68944
6675.38751,0.69120
6673.45876,0.69257
6671.53002,0.69254
6669.60127,0.69302
6667.67253,0.69505
6665.74378,0.69688
6663.81504,0.69648
6661.88629,0.69503
6659.95755,0.69475
6658.02880,0.69399
6656.10006,0.69279
6654.17131,0.69412
6652.24256,0.69621
6650.31382,0.69627
6648.38507,0.69558
6646.45633,0.69600
6644.52758,0.69797
6642.59884,0.69876
6640.67009,0.69574
6638.74135,0.69227
6636.81260,0.69236
6634.88386,0.69372
6632.95511,0.69359
6631.02637,0.69396
6629.09762,0.69546
6627.16888,0.69638
6625.24013,0.69755
6623.31139,0.69947
6621.38264,0.70055
6619.45389,0.69906
6617.52515,0.69560
6615.59640,0.69421
6613.66766,0.69667
6611.73891,0.69926
6609.81017,0.69965
6607.88142,0.70048
6605.95268,0.70242
6604.02393,0.70340
6602.09519,0.70411
6600.16644,0.70513
6598.23770,0.70507
6596.30895,0.70395
6594.38021,0.70316
6592.45146,0.70291
6590.52271,0.70245
6588.59397,0.70204
6586.66522,0.70230
6584.73648,0.70337
6582.80773,0.70515
6580.87899,0.70744
6578.95024,0.70985
6577.02150,0.71115
6575.09275,0.70934
6573.16401,0.70455
6571.23526,0.70155
6569.30652,0.70365
6567.37777,0.70805
6565.44903,0.71059
6563.52028,0.70966
6561.59154,0.70720
6559.66279,0.70679
6557.73404,0.70915
6555.80530,0.71216
6553.87655,0.71381
6551.94781,0.71354
6550.01906,0.71348
6548.09032,0.71608
6546.16157,0.71863
6544.23283,0.71742
6542.30408,0.71443
6540.37534,0.71266
6538.44659,0.71125
6536.51785,0.70970
6534.58910,0.71012
6532.66036,0.71213
6530.73161,0.71333
6528.80287,0.71445
6526.87412,0.71612
6524.94537,0.71600
6523.01663,0.71441
6521.08788,0.71447
6519.15914,0.71580
6517.23039,0.71561
6515.30165,0.71386
6513.37290,0.71304
6511.44416,0.71457
6509.51541,0.71710
6507.58667,0.71892
6505.65792,0.71984
6503.72918,0.71868
6501.80043,0.71545
6499.87169,0.71312
6497.94294,0.71198
6496.01419,0.71143
6494.08545,0.71286
6492.15670,0.71500
6490.22796,0.71607
6488.29921,0.71723
6486.37047,0.71865
6484.44172,0.71854
6482.51298,0.71688
6480.58423,0.71505
6478.65549,0.71485
6476.72674,0.71717
6474.79800,0.71873
6472.86925,0.71734
6470.94051,0.71574
6469.01176,0.71457
6467.08302,0.71294
6465.15427,0.71254
6463.22552,0.71409
6461.29678,0.71594
6459.36803,0.71650
6457.43929,0.71600
6455.51054,0.71613
6453.58180,0.71660
6451.65305,0.71604
6449.72431,0.71562
6447.79556,0.71659
6445.86682,0.71765
6443.93807,0.71692
6442.00933,0.71538
6440.08058,0.71582
6438.15184,0.71780
6436.22309,0.71884
6434.29434,0.71883
6432.36560,0.71912
6430.43685,0.71918
6428.50811,0.71911
6426.57936,0.72008
6424.65062,0.71969
6422.72187,0.71731
6420.79313,0.71569
6418.86438,0.71480
6416.93564,0.71505
6415.00689,0.71703
6413.07815,0.71848
6411.14940,0.71910
6409.22066,0.71973
6407.29191,0.72007
6405.36317,0.72074
6403.43442,0.72153
6401.50567,0.72121
6399.57693,0.72077
6397.64818,0.72171
6395.71944,0.72364
6393.79069,0.72488
6391.86195,0.72422
6389.93320,0.72309
6388.00446,0.72305
6386.07571,0.72308
6384.14697,0.72229
6382.21822,0.72095
6380.28948,0.72034
6378.36073,0.72162
6376.43199,0.72308
6374.50324,0.72331
6372.57450,0.72401
6370.64575,0.72559
6368.71700,0.72609
6366.78826,0.72539
6364.85951,0.72529
6362.93077,0.72579
6361.00202,0.72516
6359.07328,0.72352
6357.14453,0.72347
6355.21579,0.72590
6353.28704,0.72848
6351.35830,0.72899
6349.42955,0.72791
6347.50081,0.72743
6345.57206,0.72745
6343.64332,0.72677
6341.71457,0.72647
6339.78582,0.72727
6337.85708,0.72879
6335.92833,0.73101
6333.99959,0.73214
6332.07084,0.73057
6330.14210,0.72798
6328.21335,0.72617
6326.28461,0.72589
6324.35586,0.72705
6322.42712,0.72748
6320.49837,0.72664
6318.56963,0.72621
6316.64088,0.72570
6314.71214,0.72431
6312.78339,0.72361
6310.85465,0.72526
6308.92590,0.72848
6306.99715,0.73130
6305.06841,0.73281
6303.13966,0.73209
6301.21092,0.72888
6299.28217,0.72598
6297.35343,0.72616
6295.42468,0.72848
6293.49594,0.73030
6291.56719,0.73004
6289.63845,0.72894
6287.70970,0.72977
6285.78096,0.73273
6283.85221,0.73612
6281.92347,0.73775
6279.99472,0.73632
6278.06598,0.73395
6276.13723,0.73281
6274.20848,0.73281
6272.27974,0.73377
6270.35099,0.73553
6268.42225,0.73714
6266.49350,0.73720
6264.56476,0.73577
6262.63601,0.73417
6260.70727,0.73356
6258.77852,0.73520
6256.84978,0.73788
6254.92103,0.73851
6252.99229,0.73752
6251.06354,0.73752
6249.13480,0.73844
6247.20605,0.73928
6245.27730,0.74039
6243.34856,0.74105
6241.41981,0.74061
6239.49107,0.74017
6237.56232,0.74104
6235.63358,0.74391
6233.70483,0.74632
6231.77609,0.74581
6229.84734,0.74429
6227.91860,0.74347
6225.98985,0.74326
6224.06111,0.74288
6222.13236,0.74195
6220.20362,0.74225
6218.27487,0.74396
6216.34613,0.74561
6214.41738,0.74779
6212.48863,0.74974
6210.55989,0.74978
6208.63114,0.74961
6206.70240,0.75030
6204.77365,0.75091
6202.84491,0.75180
6200.91616,0.75242
6198.98742,0.75151
6197.05867,0.75047
6195.12993,0.75032
6193.20118,0.75028
6191.27244,0.75089
6189.34369,0.75352
6187.41495,0.75727
6185.48620,0.75901
6183.55746,0.75815
6181.62871,0.75695
6179.69996,0.75586
6177.77122,0.75520
6175.84247,0.75640
6173.91373,0.75814
6171.98498,0.75831
6170.05624,0.75802
6168.12749,0.75912
6166.19875,0.76107
6164.27000,0.76256
6162.34126,0.76242
6160.41251,0.76067
6158.48377,0.75998
6156.55502,0.76079
6154.62628,0.76065
6152.69753,0.76051
6150.76878,0.76173
6148.84004,0.76231
6146.91129,0.76174
6144.98255,0.76185
6143.05380,0.76250
6141.12506,0.76284
6139.19631,0.76374
6137.26757,0.76541
6135.33882,0.76647
6133.41008,0.76552
6131.48133,0.76310
6129.55259,0.76252
6127.62384,0.76498
6125.69510,0.76744
6123.76635,0.76753
6121.83761,0.76633
6119.90886,0.76516
6117.98011,0.76342
6116.05137,0.76157
6114.12262,0.76099
6112.19388,0.76160
6110.26513,0.76306
6108.33639,0.76424
6106.40764,0.76431
6104.47890,0.76447
6102.55015,0.76536
6100.62141,0.76622
6098.69266,0.76663
6096.76392,0.76710
6094.83517,0.76779
6092.90643,0.76780
6090.97768,0.76738
6089.04893,0.76735
6087.12019,0.76643
6085.19144,0.76484
6083.26270,0.76512
6081.33395,0.76672
6079.40521,0.76749
6077.47646,0.76724
6075.54772,0.76693
6073.61897,0.76717
6071.69023,0.76706
6069.76148,0.76663
6067.83274,0.76675
6065.90399,0.76596
6063.97525,0.76368
6062.04650,0.76230
6060.11776,0.76307
6058.18901,0.76412
6056.26026,0.76378
6054.33152,0.76296
6052.40277,0.76278
6050.47403,0.76285
6048.54528,0.76262
6046.61654,0.76223
6044.68779,0.76247
6042.75905,0.76329
6040.83030,0.76340
6038.90156,0.76286
6036.97281,0.76250
6035.04407,0.76192
6033.11532,0.76083
6031.18658,0.76052
6029.25783,0.76174
6027.32909,0.76295
6025.40034,0.76361
6023.47159,0.76457
6021.54285,0.76504
6019.61410,0.76492
6017.68536,0.76550
6015.75661,0.76555
6013.82787,0.76345
6011.89912,0.76088
6009.97038,0.75969
6008.04163,0.75916
6006.11289,0.75870
6004.18414,0.75830
6002.25540,0.75746
6000.32665,0.75655
5998.39791,0.75622
5996.46916,0.75611
5994.54041,0.75623
5992.61167,0.75666
5990.68292,0.75659
5988.75418,0.75545
5986.82543,0.75414
5984.89669,0.75360
5982.96794,0.75334
5981.03920,0.75342
5979.11045,0.75390
5977.18171,0.75373
5975.25296,0.75383
5973.32422,0.75478
5971.39547,0.75487
5969.46673,0.75423
5967.53798,0.75435
5965.60924,0.75505
5963.68049,0.75492
5961.75174,0.75338
5959.82300,0.75153
5957.89425,0.75100
5955.96551,0.75153
5954.03676,0.75166
5952.10802,0.75160
5950.17927,0.75195
5948.25053,0.75200
5946.32178,0.75116
5944.39304,0.74944
5942.46429,0.74761
5940.53555,0.74703
5938.60680,0.74841
5936.67806,0.75038
5934.74931,0.75110
5932.82057,0.75119
5930.89182,0.75181
5928.96307,0.75192
5927.03433,0.75074
5925.10558,0.74995
5923.17684,0.74984
5921.24809,0.74876
5919.31935,0.74745
5917.39060,0.74729
5915.46186,0.74786
5913.53311,0.74898
5911.60437,0.75055
5909.67562,0.75139
5907.74688,0.75078
5905.81813,0.74954
5903.88939,0.74840
5901.96064,0.74712
5900.03189,0.74563
5898.10315,0.74472
5896.17440,0.74504
5894.24566,0.74597
5892.31691,0.74684
5890.38817,0.74718
5888.45942,0.74646
5886.53068,0.74580
5884.60193,0.74622
5882.67319,0.74595
5880.74444,0.74382
5878.81570,0.74157
5876.88695,0.74062
5874.95821,0.74107
5873.02946,0.74257
5871.10072,0.74402
5869.17197,0.74415
5867.24322,0.74311
5865.31448,0.74273
5863.38573,0.74388
5861.45699,0.74532
5859.52824,0.74570
5857.59950,0.74502
5855.67075,0.74435
5853.74201,0.74415
5851.81326,0.74388
5849.88452,0.74412
5847.95577,0.74530
5846.02703,0.74563
5844.09828,0.74393
5842.16954,0.74172
5840.24079,0.74072
5838.31205,0.74040
5836.38330,0.73947
5834.45455,0.73818
5832.52581,0.73726
5830.59706,0.73668
5828.66832,0.73603
5826.73957,0.73561
5824.81083,0.73639
5822.88208,0.73793
5820.95334,0.73879
5819.02459,0.73872
5817.09585,0.73802
5815.16710,0.73670
5813.23836,0.73532
5811.30961,0.73489
5809.38087,0.73536
5807.45212,0.73510
5805.52337,0.73339
5803.59463,0.73197
5801.66588,0.73202
5799.73714,0.73256
5797.80839,0.73350
5795.87965,0.73554
5793.95090,0.73709
5792.02216,0.73634
5790.09341,0.73444
5788.16467,0.73359
5786.23592,0.73428
5784.30718,0.73563
5782.37843,0.73664
5780.44969,0.73717
5778.52094,0.73812
5776.59220,0.73981
5774.66345,0.74093
5772.73470,0.74043
5770.80596,0.73951
5768.87721,0.74014
5766.94847,0.74179
5765.01972,0.74240
5763.09098,0.74218
5761.16223,0.74261
5759.23349,0.74330
5757.30474,0.74393
5755.37600,0.74491
5753.44725,0.74521
5751.51851,0.74440
5749.58976,0.74378
5747.66102,0.74347
5745.73227,0.74281
5743.80352,0.74208
5741.87478,0.74146
5739.94603,0.74124
5738.01729,0.74245
5736.08854,0.74427
5734.15980,0.74426
5732.23105,0.74277
5730.30231,0.74184
5728.37356,0.74215
5726.44482,0.74327
5724.51607,0.74389
5722.58733,0.74319
5720.65858,0.74244
5718.72984,0.74256
5716.80109,0.74240
5714.87235,0.74145
5712.94360,0.74108
5711.01485,0.74195
5709.08611,0.74303
5707.15736,0.74321
5705.22862,0.74261
5703.29987,0.74203
5701.37113,0.74182
5699.44238,0.74163
5697.51364,0.74183
5695.58489,0.74270
5693.65615,0.74290
5691.72740,0.74184
5689.79866,0.74092
5687.86991,0.74113
5685.94117,0.74180
5684.01242,0.74228
5682.08368,0.74235
5680.15493,0.74164
5678.22618,0.74125
5676.29744,0.74200
5674.36869,0.74262
5672.43995,0.74233
5670.51120,0.74197
5668.58246,0.74245
5666.65371,0.74263
5664.72497,0.74170
5662.79622,0.74108
5660.86748,0.74125
5658.93873,0.74202
5657.00999,0.74293
5655.08124,0.74246
5653.15250,0.74084
5651.22375,0.73993
5649.29500,0.74015
5647.36626,0.74066
5645.43751,0.74120
5643.50877,0.74173
5641.58002,0.74119
5639.65128,0.73986
5637.72253,0.73938
5635.79379,0.73935
5633.86504,0.73908
5631.93630,0.73940
5630.00755,0.74040
5628.07881,0.74119
5626.15006,0.74127
5624.22132,0.74093
5622.29257,0.74056
5620.36383,0.74054
5618.43508,0.74151
5616.50633,0.74276
5614.57759,0.74289
5612.64884,0.74223
5610.72010,0.74185
5608.79135,0.74156
5606.86261,0.74061
5604.93386,0.73975
5603.00512,0.73980
5601.07637,0.74036
5599.14763,0.74116
5597.21888,0.74178
5595.29014,0.74177
5593.36139,0.74163
5591.43265,0.74149
5589.50390,0.74093
5587.57516,0.74013
5585.64641,0.73973
5583.71766,0.74006
5581.78892,0.74120
5579.86017,0.74307
5577.93143,0.74457
5576.00268,0.74491
5574.07394,0.74507
5572.14519,0.74548
5570.21645,0.74509
5568.28770,0.74439
5566.35896,0.74460
5564.43021,0.74480
5562.50147,0.74449
5560.57272,0.74411
5558.64398,0.74327
5556.71523,0.74266
5554.78648,0.74330
5552.85774,0.74410
5550.92899,0.74409
5549.00025,0.74420
5547.07150,0.74465
5545.14276,0.74466
5543.21401,0.74498
5541.28527,0.74606
5539.35652,0.74709
5537.42778,0.74787
5535.49903,0.74813
5533.57029,0.74737
5531.64154,0.74633
5529.71280,0.74599
5527.78405,0.74605
5525.85531,0.74604
5523.92656,0.74650
5521.99781,0.74752
5520.06907,0.74790
5518.14032,0.74743
5516.21158,0.74677
5514.28283,0.74576
5512.35409,0.74509
5510.42534,0.74555
5508.49660,0.74645
5506.56785,0.74706
5504.63911,0.74689
5502.71036,0.74619
5500.78162,0.74578
5498.85287,0.74557
5496.92413,0.74562
5494.99538,0.74637
5493.06664,0.74727
5491.13789,0.74761
5489.20914,0.74755
5487.28040,0.74731
5485.35165,0.74718
5483.42291,0.74771
5481.49416,0.74857
5479.56542,0.74911
5477.63667,0.74966
5475.70793,0.75076
5473.77918,0.75132
5471.85044,0.75009
5469.92169,0.74830
5467.99295,0.74804
5466.06420,0.74914
5464.13546,0.75030
5462.20671,0.75146
5460.27796,0.75258
5458.34922,0.75227
5456.42047,0.75080
5454.49173,0.75048
5452.56298,0.75118
5450.63424,0.75150
5448.70549,0.75216
5446.77675,0.75329
5444.84800,0.75375
5442.91926,0.75380
5440.99051,0.75409
5439.06177,0.75396
5437.13302,0.75330
5435.20428,0.75333
5433.27553,0.75413
5431.34679,0.75466
5429.41804,0.75517
5427.48929,0.75557
5425.56055,0.75524
5423.63180,0.75485
5421.70306,0.75519
5419.77431,0.75608
5417.84557,0.75681
5415.91682,0.75748
5413.98808,0.75832
5412.05933,0.75847
5410.13059,0.75784
5408.20184,0.75729
5406.27310,0.75710
5404.34435,0.75765
5402.41561,0.75903
5400.48686,0.76061
5398.55811,0.76173
5396.62937,0.76215
5394.70062,0.76197
5392.77188,0.76128
5390.84313,0.76050
5388.91439,0.76048
5386.98564,0.76078
5385.05690,0.75996
5383.12815,0.75856
5381.19941,0.75812
5379.27066,0.75886
5377.34192,0.76014
5375.41317,0.76066
5373.48443,0.75994
5371.55568,0.75916
5369.62694,0.75899
5367.69819,0.75891
5365.76944,0.75875
5363.84070,0.75924
5361.91195,0.76023
5359.98321,0.76049
5358.05446,0.76018
5356.12572,0.76038
5354.19697,0.76069
5352.26823,0.76076
5350.33948,0.76147
5348.41074,0.76222
5346.48199,0.76182
5344.55325,0.76100
5342.62450,0.76060
5340.69576,0.76049
5338.76701,0.76057
5336.83827,0.76033
5334.90952,0.75964
5332.98077,0.75880
5331.05203,0.75769
5329.12328,0.75671
5327.19454,0.75644
5325.26579,0.75665
5323.33705,0.75679
5321.40830,0.75615
5319.47956,0.75435
5317.55081,0.75212
5315.62207,0.75059
5313.69332,0.75004
5311.76458,0.74944
5309.83583,0.74799
5307.90709,0.74637
5305.97834,0.74486
5304.04959,0.74301
5302.12085,0.74123
5300.19210,0.74008
5298.26336,0.73900
5296.33461,0.73713
5294.40587,0.73440
5292.47712,0.73163
5290.54838,0.72936
5288.61963,0.72693
5286.69089,0.72411
5284.76214,0.72175
5282.83340,0.71989
5280.90465,0.71756
5278.97591,0.71423
5277.04716,0.71069
5275.11842,0.70760
5273.18967,0.70439
5271.26092,0.70089
5269.33218,0.69759
5267.40343,0.69465
5265.47469,0.69162
5263.54594,0.68782
5261.61720,0.68366
5259.68845,0.68013
5257.75971,0.67714
5255.83096,0.67406
5253.90222,0.67106
5251.97347,0.66848
5250.04473,0.66582
5248.11598,0.66271
5246.18724,0.65979
5244.25849,0.65740
5242.32975,0.65452
5240.40100,0.65148
5238.47225,0.64935
5236.54351,0.64734
5234.61476,0.64507
5232.68602,0.64371
5230.75727,0.64290
5228.82853,0.64106
5226.89978,0.63863
5224.97104,0.63697
5223.04229,0.63559
5221.11355,0.63402
5219.18480,0.63265
5217.25606,0.63144
5215.32731,0.63031
5213.39857,0.62973
5211.46982,0.63005
5209.54107,0.63059
5207.61233,0.63030
5205.68358,0.62924
5203.75484,0.62818
5201.82609,0.62758
5199.89735,0.62742
5197.96860,0.62701
5196.03986,0.62623
5194.11111,0.62605
5192.18237,0.62620
5190.25362,0.62594
5188.32488,0.62583
5186.39613,0.62630
5184.46739,0.62721
5182.53864,0.62836
5180.60990,0.62936
5178.68115,0.63018
5176.75240,0.63078
5174.82366,0.63131
5172.89491,0.63237
5170.96617,0.63338
5169.03742,0.63347
5167.10868,0.63321
5165.17993,0.63350
5163.25119,0.63489
5161.32244,0.63673
5159.39370,0.63776
5157.46495,0.63827
5155.53621,0.63916
5153.60746,0.64078
5151.67872,0.64268
5149.74997,0.64371
5147.82123,0.64404
5145.89248,0.64487
5143.96373,0.64647
5142.03499,0.64829
5140.10624,0.64993
5138.17750,0.65103
5136.24875,0.65143
5134.32001,0.65185
5132.39126,0.65325
5130.46252,0.65493
5128.53377,0.65578
5126.60503,0.65636
5124.67628,0.65729
5122.74754,0.65800
5120.81879,0.65813
5118.89005,0.65845
5116.96130,0.65970
5115.03255,0.66135
5113.10381,0.66293
5111.17506,0.66449
5109.24632,0.66566
5107.31757,0.66637
5105.38883,0.66712
5103.46008,0.66777
5101.53134,0.66807
5099.60259,0.66873
5097.67385,0.66996
5095.74510,0.67111
5093.81636,0.67220
5091.88761,0.67314
5089.95887,0.67363
5088.03012,0.67419
5086.10138,0.67506
5084.17263,0.67613
5082.24388,0.67753
5080.31514,0.67888
5078.38639,0.67941
5076.45765,0.67939
5074.52890,0.68010
5072.60016,0.68140
5070.67141,0.68226
5068.74267,0.68297
5066.81392,0.68413
5064.88518,0.68549
5062.95643,0.68617
5061.02769,0.68561
5059.09894,0.68494
5057.17020,0.68567
5055.24145,0.68744
5053.31270,0.68890
5051.38396,0.68990
5049.45521,0.69069
5047.52647,0.69092
5045.59772,0.69081
5043.66898,0.69092
5041.74023,0.69155
5039.81149,0.69246
5037.88274,0.69273
5035.95400,0.69237
5034.02525,0.69236
5032.09651,0.69299
5030.16776,0.69396
5028.23902,0.69495
5026.31027,0.69559
5024.38153,0.69584
5022.45278,0.69610
5020.52403,0.69647
5018.59529,0.69689
5016.66654,0.69719
5014.73780,0.69707
5012.80905,0.69658
5010.88031,0.69612
5008.95156,0.69589
5007.02282,0.69572
5005.09407,0.69550
5003.16533,0.69513
5001.23658,0.69450
4999.30784,0.69427
4997.37909,0.69467
4995.45035,0.69451
4993.52160,0.69339
4991.59286,0.69254
4989.66411,0.69262
4987.73536,0.69276
4985.80662,0.69249
4983.87787,0.69235
4981.94913,0.69197
4980.02038,0.69080
4978.09164,0.68956
4976.16289,0.68882
4974.23415,0.68814
4972.30540,0.68710
4970.37666,0.68592
4968.44791,0.68490
4966.51917,0.68418
4964.59042,0.68346
4962.66168,0.68230
4960.73293,0.68090
4958.80418,0.67949
4956.87544,0.67800
4954.94669,0.67655
4953.01795,0.67497
4951.08920,0.67308
4949.16046,0.67133
4947.23171,0.66972
4945.30297,0.66789
4943.37422,0.66615
4941.44548,0.66487
4939.51673,0.66342
4937.58799,0.66100
4935.65924,0.65838
4933.73050,0.65646
4931.80175,0.65458
4929.87301,0.65245
4927.94426,0.65071
4926.01551,0.64873
4924.08677,0.64592
4922.15802,0.64325
4920.22928,0.64123
4918.30053,0.63946
4916.37179,0.63794
4914.44304,0.63649
4912.51430,0.63467
4910.58555,0.63242
4908.65681,0.62995
4906.72806,0.62736
4904.79932,0.62489
4902.87057,0.62297
4900.94183,0.62136
4899.01308,0.61937
4897.08434,0.61696
4895.15559,0.61441
4893.22684,0.61186
4891.29810,0.60988
4889.36935,0.60854
4887.44061,0.60700
4885.51186,0.60480
4883.58312,0.60238
4881.65437,0.60010
4879.72563,0.59793
4877.79688,0.59586
4875.86814,0.59412
4873.93939,0.59288
4872.01065,0.59158
4870.08190,0.58948
4868.15316,0.58717
4866.22441,0.58538
4864.29566,0.58375
4862.36692,0.58180
4860.43817,0.57967
4858.50943,0.57789
4856.58068,0.57674
4854.65194,0.57583
4852.72319,0.57471
4850.79445,0.57329
4848.86570,0.57174
4846.93696,0.57044
4845.00821,0.56927
4843.07947,0.56779
4841.15072,0.56641
4839.22198,0.56559
4837.29323,0.56461
4835.36449,0.56312
4833.43574,0.56157
4831.50699,0.55994
4829.57825,0.55848
4827.64950,0.55756
4825.72076,0.55664
4823.79201,0.55527
4821.86327,0.55394
4819.93452,0.55295
4818.00578,0.55209
4816.07703,0.55146
4814.14829,0.55101
4812.21954,0.55037
4810.29080,0.54958
4808.36205,0.54867
4806.43331,0.54781
4804.50456,0.54733
4802.57582,0.54700
4800.64707,0.54633
4798.71832,0.54536
4796.78958,0.54467
4794.86083,0.54446
4792.93209,0.54450
4791.00334,0.54450
4789.07460,0.54402
4787.14585,0.54321
4785.21711,0.54291
4783.28836,0.54319
4781.35962,0.54320
4779.43087,0.54300
4777.50213,0.54324
4775.57338,0.54360
4773.64464,0.54349
4771.71589,0.54299
4769.78714,0.54213
4767.85840,0.54114
4765.92965,0.54053
4764.00091,0.54056
4762.07216,0.54107
4760.14342,0.54154
4758.21467,0.54164
4756.28593,0.54120
4754.35718,0.54046
4752.42844,0.54035
4750.49969,0.54102
4748.57095,0.54161
4746.64220,0.54191
4744.71346,0.54229
4742.78471,0.54279
4740.85597,0.54286
4738.92722,0.54234
4736.99847,0.54221
4735.06973,0.54294
4733.14098,0.54358
4731.21224,0.54354
4729.28349,0.54336
4727.35475,0.54335
4725.42600,0.54353
4723.49726,0.54383
4721.56851,0.54395
4719.63977,0.54413
4717.71102,0.54470
4715.78228,0.54553
4713.85353,0.54627
4711.92479,0.54656
4709.99604,0.54657
4708.06729,0.54673
4706.13855,0.54732
4704.20980,0.54822
4702.28106,0.54901
4700.35231,0.54950
4698.42357,0.54966
4696.49482,0.54971
4694.56608,0.54986
4692.63733,0.55008
4690.70859,0.55038
4688.77984,0.55083
4686.85110,0.55153
4684.92235,0.55244
4682.99361,0.55328
4681.06486,0.55384
4679.13612,0.55411
4677.20737,0.55424
4675.27862,0.55459
4673.34988,0.55551
4671.42113,0.55672
4669.49239,0.55768
4667.56364,0.55863
4665.63490,0.55988
4663.70615,0.56114
4661.77741,0.56218
4659.84866,0.56272
4657.91992,0.56293
4655.99117,0.56344
4654.06243,0.56434
4652.13368,0.56543
4650.20494,0.56664
4648.27619,0.56766
4646.34745,0.56839
4644.41870,0.56895
4642.48995,0.56940
4640.56121,0.57014
4638.63246,0.57129
4636.70372,0.57217
4634.77497,0.57261
4632.84623,0.57323
4630.91748,0.57430
4628.98874,0.57564
4627.05999,0.57674
4625.13125,0.57721
4623.20250,0.57743
4621.27376,0.57809
4619.34501,0.57929
4617.41627,0.58053
4615.48752,0.58146
4613.55877,0.58228
4611.63003,0.58347
4609.70128,0.58475
4607.77254,0.58534
4605.84379,0.58535
4603.91505,0.58566
4601.98630,0.58665
4600.05756,0.58784
4598.12881,0.58852
4596.20007,0.58854
4594.27132,0.58864
4592.34258,0.58928
4590.41383,0.58989
4588.48509,0.59054
4586.55634,0.59156
4584.62760,0.59239
4582.69885,0.59274
4580.77010,0.59280
4578.84136,0.59291
4576.91261,0.59349
4574.98387,0.59461
4573.05512,0.59591
4571.12638,0.59684
4569.19763,0.59710
4567.26889,0.59700
4565.34014,0.59710
4563.41140,0.59753
4561.48265,0.59805
4559.55391,0.59857
4557.62516,0.59911
4555.69642,0.59968
4553.76767,0.60038
4551.83893,0.60107
4549.91018,0.60151
4547.98143,0.60198
4546.05269,0.60285
4544.12394,0.60387
4542.19520,0.60468
4540.26645,0.60512
4538.33771,0.60507
4536.40896,0.60469
4534.48022,0.60476
4532.55147,0.60558
4530.62273,0.60627
4528.69398,0.60636
4526.76524,0.60620
4524.83649,0.60610
4522.90775,0.60637
4520.97900,0.60703
4519.05025,0.60761
4517.12151,0.60769
4515.19276,0.60721
4513.26402,0.60665
4511.33527,0.60639
4509.40653,0.60618
4507.47778,0.60590
4505.54904,0.60561
4503.62029,0.60523
4501.69155,0.60478
4499.76280,0.60428
4497.83406,0.60332
4495.90531,0.60189
4493.97657,0.60051
4492.04782,0.59922
4490.11908,0.59774
4488.19033,0.59624
4486.26158,0.59488
4484.33284,0.59342
4482.40409,0.59182
4480.47535,0.59044
4478.54660,0.58905
4476.61786,0.58710
4474.68911,0.58459
4472.76037,0.58188
4470.83162,0.57939
4468.90288,0.57737
4466.97413,0.57550
4465.04539,0.57320
4463.11664,0.57037
4461.18790,0.56741
4459.25915,0.56468
4457.33041,0.56225
4455.40166,0.55988
4453.47291,0.55725
4451.54417,0.55415
4449.61542,0.55102
4447.68668,0.54843
4445.75793,0.54610
4443.82919,0.54341
4441.90044,0.54055
4439.97170,0.53807
4438.04295,0.53559
4436.11421,0.53292
4434.18546,0.53079
4432.25672,0.52883
4430.32797,0.52630
4428.39923,0.52389
4426.47048,0.52214
4424.54173,0.52047
4422.61299,0.51889
4420.68424,0.51774
4418.75550,0.51644
4416.82675,0.51450
4414.89801,0.51251
4412.96926,0.51103
4411.04052,0.50993
4409.11177,0.50902
4407.18303,0.50819
4405.25428,0.50730
4403.32554,0.50657
4401.39679,0.50609
4399.46805,0.50568
4397.53930,0.50526
4395.61056,0.50485
4393.68181,0.50450
4391.75306,0.50458
4389.82432,0.50547
4387.89557,0.50672
4385.96683,0.50767
4384.03808,0.50812
4382.10934,0.50830
4380.18059,0.50851
4378.25185,0.50895
4376.32310,0.50975
4374.39436,0.51075
4372.46561,0.51170
4370.53687,0.51271
4368.60812,0.51368
4366.67938,0.51428
4364.75063,0.51461
4362.82189,0.51507
4360.89314,0.51562
4358.96439,0.51593
4357.03565,0.51588
4355.10690,0.51536
4353.17816,0.51446
4351.24941,0.51367
4349.32067,0.51320
4347.39192,0.51244
4345.46318,0.51120
4343.53443,0.51013
4341.60569,0.50962
4339.67694,0.50920
4337.74820,0.50815
4335.81945,0.50676
4333.89071,0.50572
4331.96196,0.50471
4330.03321,0.50360
4328.10447,0.50269
4326.17572,0.50170
4324.24698,0.50051
4322.31823,0.49943
4320.38949,0.49851
4318.46074,0.49779
4316.53200,0.49734
4314.60325,0.49693
4312.67451,0.49651
4310.74576,0.49597
4308.81702,0.49502
4306.88827,0.49377
4304.95953,0.49293
4303.03078,0.49275
4301.10204,0.49244
4299.17329,0.49154
4297.24454,0.49063
4295.31580,0.49006
4293.38705,0.48951
4291.45831,0.48896
4289.52956,0.48867
4287.60082,0.48858
4285.67207,0.48853
4283.74333,0.48845
4281.81458,0.48838
4279.88584,0.48832
4277.95709,0.48809
4276.02835,0.48771
4274.09960,0.48758
4272.17086,0.48785
4270.24211,0.48823
4268.31336,0.48855
4266.38462,0.48883
4264.45587,0.48912
4262.52713,0.48954
4260.59838,0.49008
4258.66964,0.49070
4256.74089,0.49129
4254.81215,0.49163
4252.88340,0.49187
4250.95466,0.49213
4249.02591,0.49245
4247.09717,0.49302
4245.16842,0.49363
4243.23968,0.49401
4241.31093,0.49418
4239.38219,0.49450
4237.45344,0.49512
4235.52469,0.49563
4233.59595,0.49595
4231.66720,0.49624
4229.73846,0.49644
4227.80971,0.49659
4225.88097,0.49664
4223.95222,0.49673
4222.02348,0.49705
4220.09473,0.49736
4218.16599,0.49746
4216.23724,0.49758
4214.30850,0.49793
4212.37975,0.49814
4210.45101,0.49813
4208.52226,0.49848
4206.59352,0.49926
4204.66477,0.49983
4202.73602,0.49988
4200.80728,0.49966
4198.87853,0.49944
4196.94979,0.49945
4195.02104,0.49977
4193.09230,0.50003
4191.16355,0.49986
4189.23481,0.49966
4187.30606,0.50006
4185.37732,0.50082
4183.44857,0.50129
4181.51983,0.50141
4179.59108,0.50168
4177.66234,0.50230
4175.73359,0.50314
4173.80484,0.50393
4171.87610,0.50429
4169.94735,0.50418
4168.01861,0.50412
4166.08986,0.50433
4164.16112,0.50457
4162.23237,0.50466
4160.30363,0.50464
4158.37488,0.50461
4156.44614,0.50431
4154.51739,0.50366
4152.58865,0.50301
4150.65990,0.50246
4148.73116,0.50176
4146.80241,0.50099
4144.87367,0.50032
4142.94492,0.49966
4141.01617,0.49874
4139.08743,0.49753
4137.15868,0.49635
4135.22994,0.49536
4133.30119,0.49420
4131.37245,0.49269
4129.44370,0.49120
4127.51496,0.48998
4125.58621,0.48858
4123.65747,0.48681
4121.72872,0.48528
4119.79998,0.48402
4117.87123,0.48239
4115.94249,0.48053
4114.01374,0.47883
4112.08500,0.47719
4110.15625,0.47556
4108.22750,0.47380
4106.29876,0.47166
4104.37001,0.46934
4102.44127,0.46732
4100.51252,0.46555
4098.58378,0.46372
4096.65503,0.46170
4094.72629,0.45964
4092.79754,0.45782
4090.86880,0.45611
4088.94005,0.45406
4087.01131,0.45177
4085.08256,0.44957
4083.15382,0.44752
4081.22507,0.44550
4079.29632,0.44339
4077.36758,0.44099
4075.43883,0.43834
4073.51009,0.43582
4071.58134,0.43372
4069.65260,0.43169
4067.72385,0.42923
4065.79511,0.42664
4063.86636,0.42461
4061.93762,0.42293
4060.00887,0.42087
4058.08013,0.41844
4056.15138,0.41608
4054.22264,0.41391
4052.29389,0.41192
4050.36515,0.40997
4048.43640,0.40810
4046.50765,0.40658
4044.57891,0.40512
4042.65016,0.40337
4040.72142,0.40164
4038.79267,0.39994
4036.86393,0.39798
4034.93518,0.39627
4033.00644,0.39515
4031.07769,0.39386
4029.14895,0.39233
4027.22020,0.39131
4025.29146,0.39082
4023.36271,0.39017
4021.43397,0.38918
4019.50522,0.38841
4017.57648,0.38832
4015.64773,0.38856
4013.71898,0.38863
4011.79024,0.38844
4009.86149,0.38825
4007.93275,0.38837
4006.00400,0.38874
4004.07526,0.38915
4002.14651,0.38966
4000.21777,0.39036
3998.28902,0.39111
3996.36028,0.39179
3994.43153,0.39262
3992.50279,0.39362
3990.57404,0.39438
3988.64530,0.39485
3986.71655,0.39538
3984.78780,0.39609
3982.85906,0.39696
3980.93031,0.39786
3979.00157,0.39872
3977.07282,0.39972
3975.14408,0.40067
3973.21533,0.40120
3971.28659,0.40160
3969.35784,0.40238
3967.42910,0.40358
3965.50035,0.40493
3963.57161,0.40628
3961.64286,0.40756
3959.71412,0.40874
3957.78537,0.40970
3955.85663,0.41033
3953.92788,0.41101
3951.99913,0.41212
3950.07039,0.41348
3948.14164,0.41465
3946.21290,0.41557
3944.28415,0.41651
3942.35541,0.41770
3940.42666,0.41903
3938.49792,0.42019
3936.56917,0.42111
3934.64043,0.42211
3932.71168,0.42333
3930.78294,0.42447
3928.85419,0.42538
3926.92545,0.42649
3924.99670,0.42782
3923.06795,0.42894
3921.13921,0.42987
3919.21046,0.43087
3917.28172,0.43201
3915.35297,0.43326
3913.42423,0.43447
3911.49548,0.43573
3909.56674,0.43710
3907.63799,0.43816
3905.70925,0.43895
3903.78050,0.44018
3901.85176,0.44179
3899.92301,0.44322
3897.99427,0.44438
3896.06552,0.44520
3894.13678,0.44582
3892.20803,0.44684
3890.27928,0.44828
3888.35054,0.44961
3886.42179,0.45087
3884.49305,0.45172
3882.56430,0.45230
3880.63556,0.45344
3878.70681,0.45456
3876.77807,0.45529
3874.84932,0.45649
3872.92058,0.45809
3870.99183,0.45960
3869.06309,0.46092
3867.13434,0.46204
3865.20560,0.46317
3863.27685,0.46429
3861.34811,0.46525
3859.41936,0.46624
3857.49061,0.46730
3855.56187,0.46885
3853.63312,0.47130
3851.70438,0.47307
3849.77563,0.47342
3847.84689,0.47378
3845.91814,0.47480
3843.98940,0.47621
3842.06065,0.47762
3840.13191,0.47879
3838.20316,0.47985
3836.27442,0.48090
3834.34567,0.48178
3832.41693,0.48228
3830.48818,0.48228
3828.55943,0.48228
3826.63069,0.48274
3824.70194,0.48338
3822.77320,0.48406
3820.84445,0.48470
3818.91571,0.48484
3816.98696,0.48485
3815.05822,0.48494
3813.12947,0.48460
3811.20073,0.48407
3809.27198,0.48390
3807.34324,0.48427
3805.41449,0.48481
3803.48575,0.48526
3801.55700,0.48560
3799.62826,0.48523
3797.69951,0.48443
3795.77076,0.48401
3793.84202,0.48392
3791.91327,0.48400
3789.98453,0.48412
3788.05578,0.48408
3786.12704,0.48389
3784.19829,0.48365
3782.26955,0.48366
3780.34080,0.48399
3778.41206,0.48388
3776.48331,0.48302
3774.55457,0.48205
3772.62582,0.48153
3770.69708,0.48148
3768.76833,0.48142
3766.83959,0.48091
3764.91084,0.48006
3762.98209,0.47921
3761.05335,0.47868
3759.12460,0.47836
3757.19586,0.47780
3755.26711,0.47699
3753.33837,0.47654
3751.40962,0.47665
3749.48088,0.47653
3747.55213,0.47592
3745.62339,0.47515
3743.69464,0.47384
3741.76590,0.47187
3739.83715,0.47007
3737.90841,0.46889
3735.97966,0.46796
3734.05091,0.46669
3732.12217,0.46493
3730.19342,0.46294
3728.26468,0.46093
3726.33593,0.45897
3724.40719,0.45711
3722.47844,0.45507
3720.54970,0.45264
3718.62095,0.44986
3716.69221,0.44699
3714.76346,0.44452
3712.83472,0.44247
3710.90597,0.43992
3708.97723,0.43626
3707.04848,0.43223
3705.11974,0.42855
3703.19099,0.42506
3701.26224,0.42093
3699.33350,0.41615
3697.40475,0.41136
3695.47601,0.40644
3693.54726,0.40107
3691.61852,0.39543
3689.68977,0.38926
3687.76103,0.38210
3685.83228,0.37475
3683.90354,0.36766
3681.97479,0.36026
3680.04605,0.35243
3678.11730,0.34441
3676.18856,0.33554
3674.25981,0.32605
3672.33107,0.31733
3670.40232,0.30829
3668.47357,0.29854
3666.54483,0.28967
3664.61608,0.28146
3662.68734,0.27305
3660.75859,0.26469
3658.82985,0.25705
3656.90110,0.24965
3654.97236,0.24211
3653.04361,0.23513
3651.11487,0.22833
3649.18612,0.22100
3647.25738,0.21402
3645.32863,0.20798
3643.39989,0.20238
3641.47114,0.19690
3639.54239,0.19146
3637.61365,0.18626
3635.68490,0.18140
3633.75616,0.17686
3631.82741,0.17279
3629.89867,0.16861
3627.96992,0.16373
3626.04118,0.15926
3624.11243,0.15554
3622.18369,0.15205
3620.25494,0.14837
3618.32620,0.14455
3616.39745,0.14117
3614.46871,0.13803
3612.53996,0.13459
3610.61122,0.13099
3608.68247,0.12740
3606.75372,0.12398
3604.82498,0.12102
3602.89623,0.11843
3600.96749,0.11597
3599.03874,0.11357
3597.11000,0.11122
3595.18125,0.10885
3593.25251,0.10649
3591.32376,0.10430
3589.39502,0.10201
3587.46627,0.09939
3585.53753,0.09704
3583.60878,0.09519
3581.68004,0.09350
3579.75129,0.09188
3577.82254,0.09040
3575.89380,0.08900
3573.96505,0.08764
3572.03631,0.08623
3570.10756,0.08460
3568.17882,0.08273
3566.25007,0.08106
3564.32133,0.07987
3562.39258,0.07890
3560.46384,0.07792
3558.53509,0.07707
3556.60635,0.07632
3554.67760,0.07524
3552.74886,0.07385
3550.82011,0.07263
3548.89137,0.07157
3546.96262,0.07032
3545.03387,0.06898
3543.10513,0.06796
3541.17638,0.06742
3539.24764,0.06708
3537.31889,0.06644
3535.39015,0.06549
3533.46140,0.06469
3531.53266,0.06413
3529.60391,0.06373
3527.67517,0.06358
3525.74642,0.06316
3523.81768,0.06195
3521.88893,0.06063
3519.96019,0.05995
3518.03144,0.05964
3516.10270,0.05912
3514.17395,0.05837
3512.24520,0.05777
3510.31646,0.05731
3508.38771,0.05669
3506.45897,0.05596
3504.53022,0.05530
3502.60148,0.05482
3500.67273,0.05454
3498.74399,0.05422
3496.81524,0.05367
3494.88650,0.05309
3492.95775,0.05278
3491.02901,0.05267
3489.10026,0.05241
3487.17152,0.05197
3485.24277,0.05167
3483.31402,0.05152
3481.38528,0.05113
3479.45653,0.05045
3477.52779,0.04985
3475.59904,0.04951
3473.67030,0.04923
3471.74155,0.04894
3469.81281,0.04859
3467.88406,0.04818
3465.95532,0.04799
3464.02657,0.04803
3462.09783,0.04781
3460.16908,0.04723
3458.24034,0.04673
3456.31159,0.04662
3454.38285,0.04676
3452.45410,0.04692
3450.52535,0.04692
3448.59661,0.04664
3446.66786,0.04613
3444.73912,0.04573
3442.81037,0.04574
3440.88163,0.04591
3438.95288,0.04598
3437.02414,0.04599
3435.09539,0.04583
3433.16665,0.04557
3431.23790,0.04554
3429.30916,0.04573
3427.38041,0.04588
3425.45167,0.04590
3423.52292,0.04568
3421.59418,0.04529
3419.66543,0.04512
3417.73668,0.04529
3415.80794,0.04537
3413.87919,0.04511
3411.95045,0.04497
3410.02170,0.04520
3408.09296,0.04546
3406.16421,0.04562
3404.23547,0.04599
3402.30672,0.04627
3400.37798,0.04598
3398.44923,0.04550
3396.52049,0.04541
3394.59174,0.04560
3392.66300,0.04573
3390.73425,0.04595
3388.80550,0.04627
3386.87676,0.04632
3384.94801,0.04619
3383.01927,0.04619
3381.09052,0.04635
3379.16178,0.04656
3377.23303,0.04669
3375.30429,0.04667
3373.37554,0.04665
3371.44680,0.04684
3369.51805,0.04720
3367.58931,0.04758
3365.66056,0.04785
3363.73182,0.04795
3361.80307,0.04796
3359.87433,0.04805
3357.94558,0.04814
3356.01683,0.04802
3354.08809,0.04794
3352.15934,0.04804
3350.23060,0.04804
3348.30185,0.04794
3346.37311,0.04805
3344.44436,0.04834
3342.51562,0.04848
3340.58687,0.04851
3338.65813,0.04880
3336.72938,0.04919
3334.80064,0.04955
3332.87189,0.05003
3330.94315,0.05035
3329.01440,0.05033
3327.08566,0.05021
3325.15691,0.05013
3323.22816,0.05046
3321.29942,0.05139
3319.37067,0.05209
3317.44193,0.05196
3315.51318,0.05175
3313.58444,0.05206
3311.65569,0.05270
3309.72695,0.05344
3307.79820,0.05408
3305.86946,0.05435
3303.94071,0.05426
3302.01197,0.05434
3300.08322,0.05477
3298.15448,0.05504
3296.22573,0.05517
3294.29698,0.05551
3292.36824,0.05585
3290.43949,0.05604
3288.51075,0.05650
3286.58200,0.05728
3284.65326,0.05786
3282.72451,0.05819
3280.79577,0.05858
3278.86702,0.05886
3276.93828,0.05894
3275.00953,0.05918
3273.08079,0.05979
3271.15204,0.06040
3269.22330,0.06070
3267.29455,0.06103
3265.36581,0.06173
3263.43706,0.06245
3261.50831,0.06274
3259.57957,0.06301
3257.65082,0.06377
3255.72208,0.06456
3253.79333,0.06492
3251.86459,0.06541
3249.93584,0.06636
3248.00710,0.06717
3246.07835,0.06766
3244.14961,0.06821
3242.22086,0.06902
3240.29212,0.06982
3238.36337,0.07034
3236.43463,0.07062
3234.50588,0.07091
3232.57713,0.07154
3230.64839,0.07243
3228.71964,0.07303
3226.79090,0.07353
3224.86215,0.07446
3222.93341,0.07541
3221.00466,0.07588
3219.07592,0.07611
3217.14717,0.07637
3215.21843,0.07690
3213.28968,0.07784
3211.36094,0.07905
3209.43219,0.08011
3207.50345,0.08064
3205.57470,0.08082
3203.64596,0.08126
3201.71721,0.08194
3199.78846,0.08244
3197.85972,0.08272
3195.93097,0.08307
3194.00223,0.08373
3192.07348,0.08455
3190.14474,0.08548
3188.21599,0.08661
3186.28725,0.08748
3184.35850,0.08783
3182.42976,0.08817
3180.50101,0.08884
3178.57227,0.08971
3176.64352,0.09056
3174.71478,0.09122
3172.78603,0.09173
3170.85729,0.09219
3168.92854,0.09276
3166.99979,0.09352
3165.07105,0.09435
3163.14230,0.09512
3161.21356,0.09589
3159.28481,0.09670
3157.35607,0.09753
3155.42732,0.09820
3153.49858,0.09858
3151.56983,0.09899
3149.64109,0.09987
3147.71234,0.10094
3145.78360,0.10179
3143.85485,0.10246
3141.92611,0.10317
3139.99736,0.10399
3138.06861,0.10467
3136.13987,0.10500
3134.21112,0.10537
3132.28238,0.10603
3130.35363,0.10683
3128.42489,0.10768
3126.49614,0.10840
3124.56740,0.10908
3122.63865,0.11001
3120.70991,0.11103
3118.78116,0.11169
3116.85242,0.11200
3114.92367,0.11245
3112.99493,0.11326
3111.06618,0.11410
3109.13744,0.11484
3107.20869,0.11562
3105.27994,0.11633
3103.35120,0.11693
3101.42245,0.11765
3099.49371,0.11838
3097.56496,0.11898
3095.63622,0.11963
3093.70747,0.12025
3091.77873,0.12072
3089.84998,0.12121
3087.92124,0.12193
3085.99249,0.12292
3084.06375,0.12392
3082.13500,0.12457
3080.20626,0.12504
3078.27751,0.12561
3076.34877,0.12613
3074.42002,0.12663
3072.49127,0.12741
3070.56253,0.12842
3068.63378,0.12923
3066.70504,0.12969
3064.77629,0.13020
3062.84755,0.13106
3060.91880,0.13205
3058.99006,0.13282
3057.06131,0.13343
3055.13257,0.13428
3053.20382,0.13532
3051.27508,0.13610
3049.34633,0.13673
3047.41759,0.13733
3045.48884,0.13783
3043.56009,0.13837
3041.63135,0.13879
3039.70260,0.13885
3037.77386,0.13891
3035.84511,0.13910
3033.91637,0.13925
3031.98762,0.13957
3030.05888,0.13997
3028.13013,0.13991
3026.20139,0.13964
3024.27264,0.13959
3022.34390,0.13949
3020.41515,0.13902
3018.48641,0.13853
3016.55766,0.13833
3014.62892,0.13810
3012.70017,0.13757
3010.77142,0.13693
3008.84268,0.13620
3006.91393,0.13522
3004.98519,0.13420
3003.05644,0.13346
3001.12770,0.13288
2999.19895,0.13221
2997.27021,0.13135
2995.34146,0.13040
2993.41272,0.12959
2991.48397,0.12868
2989.55523,0.12730
2987.62648,0.12555
2985.69774,0.12374
2983.76899,0.12190
2981.84025,0.11984
2979.91150,0.11771
2977.98275,0.11578
2976.05401,0.11390
2974.12526,0.11189
2972.19652,0.10995
2970.26777,0.10823
2968.33903,0.10665
2966.41028,0.10525
2964.48154,0.10410
2962.55279,0.10285
2960.62405,0.10127
2958.69530,0.09984
2956.76656,0.09861
2954.83781,0.09718
2952.90907,0.09568
2950.98032,0.09420
2949.05157,0.09256
2947.12283,0.09103
2945.19408,0.08985
2943.26534,0.08885
2941.33659,0.08793
2939.40785,0.08735
2937.47910,0.08733
2935.55036,0.08773
2933.62161,0.08819
2931.69287,0.08841
2929.76412,0.08838
2927.83538,0.08823
2925.90663,0.08803
2923.97789,0.08785
2922.04914,0.08786
2920.12040,0.08825
2918.19165,0.08884
2916.26290,0.08916
2914.33416,0.08919
2912.40541,0.08901
2910.47667,0.08857
2908.54792,0.08819
2906.61918,0.08814
2904.69043,0.08816
2902.76169,0.08798
2900.83294,0.08771
2898.90420,0.08762
2896.97545,0.08789
2895.04671,0.08828
2893.11796,0.08856
2891.18922,0.08889
2889.26047,0.08939
2887.33172,0.08996
2885.40298,0.09045
2883.47423,0.09071
2881.54549,0.09084
2879.61674,0.09108
2877.68800,0.09154
2875.75925,0.09224
2873.83051,0.09300
2871.90176,0.09348
2869.97302,0.09382
2868.04427,0.09453
2866.11553,0.09556
2864.18678,0.09656
2862.25804,0.09751
2860.32929,0.09856
2858.40055,0.09961
2856.47180,0.10045
2854.54305,0.10121
2852.61431,0.10228
2850.68556,0.10401
2848.75682,0.10654
2846.82807,0.10944
2844.89933,0.11195
2842.97058,0.11395
2841.04184,0.11589
2839.11309,0.11803
2837.18435,0.12025
2835.25560,0.12244
2833.32686,0.12456
2831.39811,0.12676
2829.46937,0.12908
2827.54062,0.13130
2825.61188,0.13337
2823.68313,0.13536
2821.75438,0.13725
2819.82564,0.13891
2817.89689,0.14043
2815.96815,0.14206
2814.03940,0.14384
2812.11066,0.14552
2810.18191,0.14704
2808.25317,0.14850
2806.32442,0.14990
2804.39568,0.15125
2802.46693,0.15259
2800.53819,0.15386
2798.60944,0.15497
2796.68070,0.15588
2794.75195,0.15668
2792.82320,0.15774
2790.89446,0.15898
2788.96571,0.15983
2787.03697,0.16025
2785.10822,0.16072
2783.17948,0.16128
2781.25073,0.16170
2779.32199,0.16214
2777.39324,0.16282
2775.46450,0.16361
2773.53575,0.16429
2771.60701,0.16484
2769.67826,0.16535
2767.74952,0.16591
2765.82077,0.16653
2763.89203,0.16715
2761.96328,0.16768
2760.03453,0.16809
2758.10579,0.16843
2756.17704,0.16870
2754.24830,0.16897
2752.31955,0.16925
2750.39081,0.16946
2748.46206,0.16961
2746.53332,0.16970
2744.60457,0.16985
2742.67583,0.17023
2740.74708,0.17076
2738.81834,0.17115
2736.88959,0.17133
2734.96085,0.17147
2733.03210,0.17178
2731.10336,0.17237
2729.17461,0.17309
2727.24586,0.17358
2725.31712,0.17393
2723.38837,0.17446
2721.45963,0.17502
2719.53088,0.17558
2717.60214,0.17629
2715.67339,0.17704
2713.74465,0.17779
2711.81590,0.17877
2709.88716,0.17986
2707.95841,0.18077
2706.02967,0.18161
2704.10092,0.18261
2702.17218,0.18367
2700.24343,0.18463
2698.31468,0.18547
2696.38594,0.18626
2694.45719,0.18701
2692.52845,0.18770
2690.59970,0.18844
2688.67096,0.18933
2686.74221,0.19020
2684.81347,0.19103
2682.88472,0.19198
2680.95598,0.19294
2679.02723,0.19368
2677.09849,0.19442
2675.16974,0.19538
2673.24100,0.19643
2671.31225,0.19742
2669.38351,0.19829
2667.45476,0.19894
2665.52601,0.19958
2663.59727,0.20037
2661.66852,0.20113
2659.73978,0.20177
2657.81103,0.20237
2655.88229,0.20310
2653.95354,0.20395
2652.02480,0.20464
2650.09605,0.20519
2648.16731,0.20584
2646.23856,0.20664
2644.30982,0.20757
2642.38107,0.20856
2640.45233,0.20942
2638.52358,0.21019
2636.59484,0.21111
2634.66609,0.21221
2632.73734,0.21315
2630.80860,0.21386
2628.87985,0.21473
2626.95111,0.21592
2625.02236,0.21719
2623.09362,0.21832
2621.16487,0.21927
2619.23613,0.22015
2617.30738,0.22098
2615.37864,0.22167
2613.44989,0.22226
2611.52115,0.22292
2609.59240,0.22368
2607.66366,0.22442
2605.73491,0.22508
2603.80616,0.22582
2601.87742,0.22671
2599.94867,0.22751
2598.01993,0.22817
2596.09118,0.22895
2594.16244,0.22991
2592.23369,0.23078
2590.30495,0.23142
2588.37620,0.23201
2586.44746,0.23274
2584.51871,0.23348
2582.58997,0.23411
2580.66122,0.23469
2578.73248,0.23517
2576.80373,0.23558
2574.87499,0.23605
2572.94624,0.23645
2571.01749,0.23660
2569.08875,0.23665
2567.16000,0.23691
2565.23126,0.23734
2563.30251,0.23771
2561.37377,0.23800
2559.44502,0.23822
2557.51628,0.23846
2555.58753,0.23882
2553.65879,0.23923
2551.73004,0.23958
2549.80130,0.23995
2547.87255,0.24035
2545.94381,0.24070
2544.01506,0.24098
2542.08631,0.24136
2540.15757,0.24211
2538.22882,0.24300
2536.30008,0.24369
2534.37133,0.24421
2532.44259,0.24464
2530.51384,0.24520
2528.58510,0.24594
2526.65635,0.24664
2524.72761,0.24720
2522.79886,0.24769
2520.87012,0.24813
2518.94137,0.24867
2517.01263,0.24925
2515.08388,0.24970
2513.15514,0.25020
2511.22639,0.25099
2509.29764,0.25193
2507.36890,0.25281
2505.44015,0.25364
2503.51141,0.25448
2501.58266,0.25534
2499.65392,0.25639
2497.72517,0.25770
2495.79643,0.25889
2493.86768,0.25975
2491.93894,0.26060
2490.01019,0.26163
2488.08145,0.26268
2486.15270,0.26372
2484.22396,0.26477
2482.29521,0.26573
2480.36647,0.26654
2478.43772,0.26732
2476.50897,0.26823
2474.58023,0.26927
2472.65148,0.27030
2470.72274,0.27130
2468.79399,0.27226
2466.86525,0.27314
2464.93650,0.27392
2463.00776,0.27468
2461.07901,0.27558
2459.15027,0.27671
2457.22152,0.27797
2455.29278,0.27909
2453.36403,0.27998
2451.43529,0.28091
2449.50654,0.28209
2447.57779,0.28332
2445.64905,0.28445
2443.72030,0.28557
2441.79156,0.28669
2439.86281,0.28779
2437.93407,0.28894
2436.00532,0.29022
2434.07658,0.29150
2432.14783,0.29275
2430.21909,0.29400
2428.29034,0.29528
2426.36160,0.29672
2424.43285,0.29838
2422.50411,0.29984
2420.57536,0.30088
2418.64662,0.30194
2416.71787,0.30327
2414.78912,0.30469
2412.86038,0.30609
2410.93163,0.30742
2409.00289,0.30865
2407.07414,0.30984
2405.14540,0.31114
2403.21665,0.31252
2401.28791,0.31392
2399.35916,0.31530
2397.43042,0.31663
2395.50167,0.31787
2393.57293,0.31905
2391.64418,0.32019
2389.71544,0.32127
2387.78669,0.32230
2385.85795,0.32336
2383.92920,0.32437
2382.00045,0.32514
2380.07171,0.32586
2378.14296,0.32684
2376.21422,0.32799
2374.28547,0.32903
2372.35673,0.32989
2370.42798,0.33065
2368.49924,0.33149
2366.57049,0.33256
2364.64175,0.33371
2362.71300,0.33468
2360.78426,0.33548
2358.85551,0.33627
2356.92677,0.33717
2354.99802,0.33805
2353.06927,0.33882
2351.14053,0.33975
2349.21178,0.34092
2347.28304,0.34204
2345.35429,0.34309
2343.42555,0.34409
2341.49680,0.34477
2339.56806,0.34515
2337.63931,0.34562
2335.71057,0.34642
2333.78182,0.34731
2331.85308,0.34781
2329.92433,0.34802
2327.99559,0.34837
2326.06684,0.34889
2324.13810,0.34948
2322.20935,0.35018
2320.28060,0.35100
2318.35186,0.35179
2316.42311,0.35232
2314.49437,0.35248
2312.56562,0.35239
2310.63688,0.35224
2308.70813,0.35214
2306.77939,0.35222
2304.85064,0.35241
2302.92190,0.35235
2300.99315,0.35192
2299.06441,0.35157
2297.13566,0.35154
2295.20692,0.35157
2293.27817,0.35152
2291.34943,0.35153
2289.42068,0.35158
2287.49193,0.35161
2285.56319,0.35172
2283.63444,0.35187
2281.70570,0.35183
2279.77695,0.35157
2277.84821,0.35121
2275.91946,0.35085
2273.99072,0.35061
2272.06197,0.35038
2270.13323,0.35000
2268.20448,0.34951
2266.27574,0.34902
2264.34699,0.34851
2262.41825,0.34787
2260.48950,0.34724
2258.56075,0.34681
2256.63201,0.34654
2254.70326,0.34623
2252.77452,0.34577
2250.84577,0.34531
2248.91703,0.34495
2246.98828,0.34476
2245.05954,0.34477
2243.13079,0.34484
2241.20205,0.34473
2239.27330,0.34451
2237.34456,0.34433
2235.41581,0.34426
2233.48707,0.34435
2231.55832,0.34458
2229.62958,0.34483
2227.70083,0.34505
2225.77208,0.34525
2223.84334,0.34547
2221.91459,0.34567
2219.98585,0.34582
2218.05710,0.34592
2216.12836,0.34602
2214.19961,0.34617
2212.27087,0.34627
2210.34212,0.34603
2208.41338,0.34562
2206.48463,0.34536
2204.55589,0.34505
2202.62714,0.34445
2200.69840,0.34378
2198.76965,0.34322
2196.84090,0.34264
2194.91216,0.34196
2192.98341,0.34114
2191.05467,0.34009
2189.12592,0.33878
2187.19718,0.33738
2185.26843,0.33598
2183.33969,0.33452
2181.41094,0.33295
2179.48220,0.33130
2177.55345,0.32978
2175.62471,0.32844
2173.69596,0.32704
2171.76722,0.32544
2169.83847,0.32381
2167.90973,0.32235
2165.98098,0.32107
2164.05223,0.31986
2162.12349,0.31872
2160.19474,0.31782
2158.26600,0.31706
2156.33725,0.31625
2154.40851,0.31541
2152.47976,0.31460
2150.55102,0.31393
2148.62227,0.31349
2146.69353,0.31313
2144.76478,0.31268
2142.83604,0.31224
2140.90729,0.31198
2138.97855,0.31183
2137.04980,0.31171
2135.12106,0.31170
2133.19231,0.31178
2131.26356,0.31202
2129.33482,0.31246
2127.40607,0.31297
2125.47733,0.31354
2123.54858,0.31428
2121.61984,0.31508
2119.69109,0.31584
2117.76235,0.31663
2115.83360,0.31747
2113.90486,0.31832
2111.97611,0.31911
2110.04737,0.31988
2108.11862,0.32072
2106.18988,0.32157
2104.26113,0.32237
2102.33238,0.32316
2100.40364,0.32405
2098.47489,0.32500
2096.54615,0.32596
2094.61740,0.32693
2092.68866,0.32787
2090.75991,0.32875
2088.83117,0.32948
2086.90242,0.32998
2084.97368,0.33037
2083.04493,0.33086
2081.11619,0.33126
2079.18744,0.33132
2077.25870,0.33129
2075.32995,0.33142
2073.40121,0.33153
2071.47246,0.33150
2069.54371,0.33136
2067.61497,0.33127
2065.68622,0.33136
2063.75748,0.33149
2061.82873,0.33162
2059.89999,0.33185
2057.97124,0.33218
2056.04250,0.33249
2054.11375,0.33277
2052.18501,0.33312
2050.25626,0.33354
2048.32752,0.33393
2046.39877,0.33432
2044.47003,0.33485
2042.54128,0.33558
2040.61254,0.33651
2038.68379,0.33749
2036.75504,0.33851
2034.82630,0.33961
2032.89755,0.34071
2030.96881,0.34182
2029.04006,0.34314
2027.11132,0.34460
2025.18257,0.34603
2023.25383,0.34746
2021.32508,0.34886
2019.39634,0.35034
2017.46759,0.35218
2015.53885,0.35432
2013.61010,0.35628
2011.68136,0.35782
2009.75261,0.35910
2007.82386,0.36036
2005.89512,0.36166
2003.96637,0.36295
2002.03763,0.36415
2000.10888,0.36529
1998.18014,0.36639
1996.25139,0.36737
1994.32265,0.36837
1992.39390,0.36944
1990.46516,0.37043
1988.53641,0.37132
1986.60767,0.37206
1984.67892,0.37265
1982.75018,0.37315
1980.82143,0.37360
1978.89269,0.37399
1976.96394,0.37428
1975.03519,0.37443
1973.10645,0.37451
1971.17770,0.37462
1969.24896,0.37487
1967.32021,0.37531
1965.39147,0.37568
1963.46272,0.37585
1961.53398,0.37606
1959.60523,0.37647
1957.67649,0.37697
1955.74774,0.37741
1953.81900,0.37774
1951.89025,0.37816
1949.96151,0.37885
1948.03276,0.37973
1946.10402,0.38064
1944.17527,0.38162
1942.24652,0.38279
1940.31778,0.38413
1938.38903,0.38546
1936.46029,0.38663
1934.53154,0.38767
1932.60280,0.38881
1930.67405,0.39009
1928.74531,0.39128
1926.81656,0.39227
1924.88782,0.39327
1922.95907,0.39424
1921.03033,0.39501
1919.10158,0.39567
1917.17284,0.39632
1915.24409,0.39696
1913.31534,0.39755
1911.38660,0.39801
1909.45785,0.39836
1907.52911,0.39858
1905.60036,0.39853
1903.67162,0.39837
1901.74287,0.39823
1899.81413,0.39806
1897.88538,0.39801
1895.95664,0.39815
1894.02789,0.39831
1892.09915,0.39842
1890.17040,0.39850
1888.24166,0.39850
1886.31291,0.39840
1884.38417,0.39820
1882.45542,0.39785
1880.52667,0.39742
1878.59793,0.39701
1876.66918,0.39661
1874.74044,0.39624
1872.81169,0.39586
1870.88295,0.39544
1868.95420,0.39492
1867.02546,0.39420
1865.09671,0.39334
1863.16797,0.39246
1861.23922,0.39159
1859.31048,0.39073
1857.38173,0.38984
1855.45299,0.38888
1853.52424,0.38790
1851.59549,0.38688
1849.66675,0.38592
1847.73800,0.38512
1845.80926,0.38427
1843.88051,0.38307
1841.95177,0.38158
1840.02302,0.38015
1838.09428,0.37877
1836.16553,0.37730
1834.23679,0.37572
1832.30804,0.37419
1830.37930,0.37271
1828.45055,0.37101
1826.52181,0.36900
1824.59306,0.36673
1822.66432,0.36440
1820.73557,0.36212
1818.80682,0.35969
1816.87808,0.35718
1814.94933,0.35470
1813.02059,0.35225
1811.09184,0.34948
1809.16310,0.34611
1807.23435,0.34243
1805.30561,0.33884
1803.37686,0.33524
1801.44812,0.33127
1799.51937,0.32687
1797.59063,0.32230
1795.66188,0.31786
1793.73314,0.31327
1791.80439,0.30789
1789.87565,0.30210
1787.94690,0.29643
1786.01815,0.29053
1784.08941,0.28413
1782.16066,0.27747
1780.23192,0.27039
1778.30317,0.26278
1776.37443,0.25500
1774.44568,0.24669
1772.51694,0.23670
1770.58819,0.22551
1768.65945,0.21434
1766.73070,0.20308
1764.80196,0.19222
1762.87321,0.18166
1760.94447,0.17112
1759.01572,0.16151
1757.08697,0.15255
1755.15823,0.14417
1753.22948,0.13685
1751.30074,0.12994
1749.37199,0.12325
1747.44325,0.11752
1745.51450,0.11300
1743.58576,0.10956
1741.65701,0.10704
1739.72827,0.10522
1737.79952,0.10423
1735.87078,0.10420
1733.94203,0.10478
1732.01329,0.10536
1730.08454,0.10599
1728.15580,0.10700
1726.22705,0.10824
1724.29830,0.10965
1722.36956,0.11132
1720.44081,0.11320
1718.51207,0.11518
1716.58332,0.11696
1714.65458,0.11854
1712.72583,0.12015
1710.79709,0.12176
1708.86834,0.12335
1706.93960,0.12503
1705.01085,0.12662
1703.08211,0.12788
1701.15336,0.12908
1699.22462,0.13016
1697.29587,0.13067
1695.36713,0.13061
1693.43838,0.13035
1691.50963,0.13018
1689.58089,0.12991
1687.65214,0.12943
1685.72340,0.12869
1683.79465,0.12728
1681.86591,0.12531
1679.93716,0.12328
1678.00842,0.12106
1676.07967,0.11825
1674.15093,0.11483
1672.22218,0.11126
1670.29344,0.10726
1668.36469,0.10285
1666.43595,0.09885
1664.50720,0.09507
1662.57845,0.09124
1660.64971,0.08806
1658.72096,0.08604
1656.79222,0.08502
1654.86347,0.08484
1652.93473,0.08557
1651.00598,0.08674
1649.07724,0.08789
1647.14849,0.08916
1645.21975,0.09015
1643.29100,0.09060
1641.36226,0.09078
1639.43351,0.09078
1637.50477,0.09059
1635.57602,0.08999
1633.64728,0.08896
1631.71853,0.08799
1629.78978,0.08713
1627.86104,0.08609
1625.93229,0.08494
1624.00355,0.08368
1622.07480,0.08238
1620.14606,0.08138
1618.21731,0.08055
1616.28857,0.07963
1614.35982,0.07907
1612.43108,0.07878
1610.50233,0.07812
1608.57359,0.07716
1606.64484,0.07650
1604.71610,0.07618
1602.78735,0.07602
1600.85861,0.07594
1598.92986,0.07588
1597.00111,0.07582
1595.07237,0.07601
1593.14362,0.07673
1591.21488,0.07803
1589.28613,0.07985
1587.35739,0.08214
1585.42864,0.08491
1583.49990,0.08795
1581.57115,0.09097
1579.64241,0.09383
1577.71366,0.09673
1575.78492,0.09983
1573.85617,0.10275
1571.92743,0.10547
1569.99868,0.10824
1568.06993,0.11085
1566.14119,0.11332
1564.21244,0.11568
1562.28370,0.11781
1560.35495,0.12012
1558.42621,0.12253
1556.49746,0.12399
1554.56872,0.12501
1552.63997,0.12608
1550.71123,0.12698
1548.78248,0.12749
1546.85374,0.12783
1544.92499,0.12848
1542.99625,0.12923
1541.06750,0.12945
1539.13876,0.12862
1537.21001,0.12724
1535.28126,0.12558
1533.35252,0.12296
1531.42377,0.11930
1529.49503,0.11507
1527.56628,0.11009
1525.63754,0.10432
1523.70879,0.09824
1521.78005,0.09156
1519.85130,0.08494
1517.92256,0.07990
1515.99381,0.07642
1514.06507,0.07433
1512.13632,0.07353
1510.20758,0.07355
1508.27883,0.07374
1506.35008,0.07367
1504.42134,0.07357
1502.49259,0.07382
1500.56385,0.07442
1498.63510,0.07542
1496.70636,0.07685
1494.77761,0.07856
1492.84887,0.08045
1490.92012,0.08261
1488.99138,0.08457
1487.06263,0.08545
1485.13389,0.08518
1483.20514,0.08411
1481.27640,0.08234
1479.34765,0.07984
1477.41891,0.07667
1475.49016,0.07305
1473.56141,0.06911
1471.63267,0.06509
1469.70392,0.06191
1467.77518,0.05993
1465.84643,0.05890
1463.91769,0.05857
1461.98894,0.05865
1460.06020,0.05883
1458.13145,0.05885
1456.20271,0.05860
1454.27396,0.05851
1452.34522,0.05873
1450.41647,0.05918
1448.48773,0.05968
1446.55898,0.05992
1444.63024,0.05980
1442.70149,0.05944
1440.77274,0.05883
1438.84400,0.05789
1436.91525,0.05655
1434.98651,0.05517
1433.05776,0.05413
1431.12902,0.05345
1429.20027,0.05305
1427.27153,0.05296
1425.34278,0.05328
1423.41404,0.05401
1421.48529,0.05499
1419.55655,0.05614
1417.62780,0.05734
1415.69906,0.05843
1413.77031,0.05927
1411.84156,0.05990
1409.91282,0.06036
1407.98407,0.06057
1406.05533,0.06043
1404.12658,0.06001
1402.19784,0.05958
1400.26909,0.05909
1398.34035,0.05832
1396.41160,0.05727
1394.48286,0.05602
1392.55411,0.05464
1390.62537,0.05331
1388.69662,0.05218
1386.76788,0.05107
1384.83913,0.04982
1382.91039,0.04864
1380.98164,0.04769
1379.05289,0.04700
1377.12415,0.04664
1375.19540,0.04656
1373.26666,0.04663
1371.33791,0.04694
1369.40917,0.04752
1367.48042,0.04820
1365.55168,0.04874
1363.62293,0.04910
1361.69419,0.04955
1359.76544,0.05019
1357.83670,0.05085
1355.90795,0.05146
1353.97921,0.05198
1352.05046,0.05240
1350.12172,0.05275
1348.19297,0.05292
1346.26422,0.05273
1344.33548,0.05220
1342.40673,0.05162
1340.47799,0.05121
1338.54924,0.05101
1336.62050,0.05093
1334.69175,0.05077
1332.76301,0.05047
1330.83426,0.05032
1328.90552,0.05044
1326.97677,0.05050
1325.04803,0.05039
1323.11928,0.05035
1321.19054,0.05046
1319.26179,0.05063
1317.33304,0.05093
1315.40430,0.05133
1313.47555,0.05177
1311.54681,0.05238
1309.61806,0.05302
1307.68932,0.05350
1305.76057,0.05395
1303.83183,0.05452
1301.90308,0.05509
1299.97434,0.05541
1298.04559,0.05538
1296.11685,0.05511
1294.18810,0.05466
1292.25936,0.05401
1290.33061,0.05315
1288.40187,0.05214
1286.47312,0.05120
1284.54437,0.05036
1282.61563,0.04970
1280.68688,0.04923
1278.75814,0.04868
1276.82939,0.04791
1274.90065,0.04709
1272.97190,0.04631
1271.04316,0.04558
1269.11441,0.04499
1267.18567,0.04458
1265.25692,0.04434
1263.32818,0.04429
1261.39943,0.04442
1259.47069,0.04460
1257.54194,0.04469
1255.61320,0.04482
1253.68445,0.04519
1251.75570,0.04568
1249.82696,0.04611
1247.89821,0.04655
1245.96947,0.04701
1244.04072,0.04743
1242.11198,0.04800
1240.18323,0.04872
1238.25449,0.04933
1236.32574,0.04989
1234.39700,0.05058
1232.46825,0.05141
1230.53951,0.05221
1228.61076,0.05289
1226.68202,0.05356
1224.75327,0.05429
1222.82452,0.05504
1220.89578,0.05567
1218.96703,0.05605
1217.03829,0.05616
1215.10954,0.05609
1213.18080,0.05600
1211.25205,0.05586
1209.32331,0.05540
1207.39456,0.05476
1205.46582,0.05429
1203.53707,0.05408
1201.60833,0.05410
1199.67958,0.05439
1197.75084,0.05463
1195.82209,0.05456
1193.89335,0.05416
1191.96460,0.05352
1190.03585,0.05271
1188.10711,0.05158
1186.17836,0.05009
1184.24962,0.04869
1182.32087,0.04763
1180.39213,0.04669
1178.46338,0.04584
1176.53464,0.04524
1174.60589,0.04497
1172.67715,0.04519
1170.74840,0.04595
1168.81966,0.04708
1166.89091,0.04833
1164.96217,0.04951
1163.03342,0.05045
1161.10467,0.05130
1159.17593,0.05229
1157.24718,0.05322
1155.31844,0.05384
1153.38969,0.05413
1151.46095,0.05416
1149.53220,0.05408
1147.60346,0.05398
1145.67471,0.05385
1143.74597,0.05359
1141.81722,0.05309
1139.88848,0.05235
1137.95973,0.05141
1136.03099,0.05056
1134.10224,0.05018
1132.17350,0.05028
1130.24475,0.05074
1128.31600,0.05157
1126.38726,0.05273
1124.45851,0.05395
1122.52977,0.05499
1120.60102,0.05604
1118.67228,0.05724
1116.74353,0.05844
1114.81479,0.05971
1112.88604,0.06136
1110.95730,0.06327
1109.02855,0.06501
1107.09981,0.06639
1105.17106,0.06742
1103.24232,0.06821
1101.31357,0.06890
1099.38483,0.06945
1097.45608,0.06982
1095.52733,0.07022
1093.59859,0.07071
1091.66984,0.07122
1089.74110,0.07164
1087.81235,0.07180
1085.88361,0.07180
1083.95486,0.07192
1082.02612,0.07211
1080.09737,0.07213
1078.16863,0.07203
1076.23988,0.07204
1074.31114,0.07204
1072.38239,0.07197
1070.45365,0.07211
1068.52490,0.07247
1066.59615,0.07291
1064.66741,0.07339
1062.73866,0.07396
1060.80992,0.07476
1058.88117,0.07574
1056.95243,0.07691
1055.02368,0.07834
1053.09494,0.07988
1051.16619,0.08144
1049.23745,0.08281
1047.30870,0.08381
1045.37996,0.08448
1043.45121,0.08507
1041.52247,0.08575
1039.59372,0.08651
1037.66498,0.08727
1035.73623,0.08784
1033.80748,0.08805
1031.87874,0.08804
1029.94999,0.08782
1028.02125,0.08724
1026.09250,0.08641
1024.16376,0.08559
1022.23501,0.08500
1020.30627,0.08463
1018.37752,0.08422
1016.44878,0.08372
1014.52003,0.08340
1012.59129,0.08330
1010.66254,0.08311
1008.73380,0.08268
1006.80505,0.08224
1004.87631,0.08210
1002.94756,0.08229
1001.01881,0.08268
999.09007,0.08307
997.16132,0.08328
995.23258,0.08358
993.30383,0.08434
991.37509,0.08558
989.44634,0.08710
987.51760,0.08885
985.58885,0.09100
983.66011,0.09354
981.73136,0.09610
979.80262,0.09825
977.87387,0.10014
975.94513,0.10218
974.01638,0.10417
972.08763,0.10589
970.15889,0.10772
968.23014,0.10993
966.30140,0.11227
964.37265,0.11469
962.44391,0.11743
960.51516,0.12053
958.58642,0.12411
956.65767,0.12834
954.72893,0.13269
952.80018,0.13663
950.87144,0.14013
948.94269,0.14351
947.01395,0.14699
945.08520,0.15013
943.15646,0.15249
941.22771,0.15430
939.29896,0.15575
937.37022,0.15685
935.44147,0.15773
933.51273,0.15853
931.58398,0.15912
929.65524,0.15940
927.72649,0.15975
925.79775,0.16024
923.86900,0.16041
921.94026,0.16007
920.01151,0.15944
918.08277,0.15848
916.15402,0.15699
914.22528,0.15490
912.29653,0.15248
910.36779,0.15007
908.43904,0.14720
906.51029,0.14329
904.58155,0.13872
902.65280,0.13467
900.72406,0.13215
898.79531,0.13150
896.86657,0.13281
894.93782,0.13603
893.00908,0.14073
891.08033,0.14634
889.15159,0.15243
887.22284,0.15830
885.29410,0.16314
883.36535,0.16663
881.43661,0.16908
879.50786,0.17085
877.57911,0.17214
875.65037,0.17316
873.72162,0.17391
871.79288,0.17422
869.86413,0.17440
867.93539,0.17473
866.00664,0.17489
864.07790,0.17476
862.14915,0.17473
860.22041,0.17461
858.29166,0.17369
856.36292,0.17200
854.43417,0.17010
852.50543,0.16830
850.57668,0.16660
848.64794,0.16486
846.71919,0.16298
844.79044,0.16087
842.86170,0.15892
840.93295,0.15797
839.00421,0.15828
837.07546,0.15947
835.14672,0.16090
833.21797,0.16206
831.28923,0.16313
829.36048,0.16447
827.43174,0.16580
825.50299,0.16669
823.57425,0.16713
821.64550,0.16731
819.71676,0.16740
817.78801,0.16768
815.85926,0.16819
813.93052,0.16865
812.00177,0.16896
810.07303,0.16932
808.14428,0.16977
806.21554,0.17024
804.28679,0.17091
802.35805,0.17158
800.42930,0.17170
798.50056,0.17124
796.57181,0.17064
794.64307,0.17031
792.71432,0.16995
790.78558,0.16911
788.85683,0.16794
786.92809,0.16670
784.99934,0.16560
783.07059,0.16478
781.14185,0.16374
779.21310,0.16210
777.28436,0.16024
775.35561,0.15850
773.42687,0.15685
771.49812,0.15549
769.56938,0.15461
767.64063,0.15399
765.71189,0.15306
763.78314,0.15150
761.85440,0.14962
759.92565,0.14795
757.99691,0.14656
756.06816,0.14514
754.13942,0.14336
752.21067,0.14134
750.28192,0.13966
748.35318,0.13833
746.42443,0.13691
744.49569,0.13541
742.56694,0.13406
740.63820,0.13282
738.70945,0.13164
736.78071,0.13050
734.85196,0.12927
732.92322,0.12815
730.99447,0.12729
729.06573,0.12638
727.13698,0.12530
725.20824,0.12395
723.27949,0.12237
721.35074,0.12104
719.42200,0.12032
717.49325,0.12007
715.56451,0.11963
713.63576,0.11873
711.70702,0.11789
709.77827,0.11750
707.84953,0.11732
705.92078,0.11692
703.99204,0.11618
702.06329,0.11526
700.13455,0.11462
698.20580,0.11447
696.27706,0.11431
694.34831,0.11351
692.41957,0.11213
690.49082,0.11100
688.56207,0.11028
686.63333,0.10914
684.70458,0.10740
682.77584,0.10541
680.84709,0.10330
678.91835,0.10167
676.98960,0.10093
675.06086,0.10053
673.13211,0.10015
671.20337,0.09992
669.27462,0.09999
667.34588,0.10039
665.41713,0.10076
663.48839,0.10109
661.55964,0.10156
659.63090,0.10177
657.70215,0.10185
655.77340,0.10257
653.84466,0.10366
651.91591,0.10419
649.98717,0.10373
648.05842,0.10271
646.12968,0.10207
644.20093,0.10200
642.27219,0.10211
640.34344,0.10242
638.41470,0.10267
636.48595,0.10186
634.55721,0.10032
632.62846,0.10010
630.69972,0.10126
628.77097,0.10170
626.84222,0.10044
624.91348,0.09875
622.98473,0.09831
621.05599,0.09891
619.12724,0.09986
617.19850,0.10145
615.26975,0.10311
613.34101,0.10403
611.41226,0.10487
609.48352,0.10614
607.55477,0.10763
605.62603,0.10878
603.69728,0.10894
601.76854,0.10903
599.83979,0.11015
