7497.03301,0.84355
7495.10426,0.84027
7493.17552,0.84117
7491.24677,0.84248
7489.31803,0.84247
7487.38928,0.84031
7485.46054,0.83798
7483.53179,0.83887
7481.60305,0.84350
7479.67430,0.85014
7477.74556,0.85094
7475.81681,0.84366
7473.88807,0.83851
7471.95932,0.83901
7470.03057,0.84010
7468.10183,0.83974
7466.17308,0.83908
7464.24434,0.83892
7462.31559,0.83794
7460.38685,0.83511
7458.45810,0.83259
7456.52936,0.83256
7454.60061,0.83577
7452.67187,0.84052
7450.74312,0.84026
7448.81438,0.83699
7446.88563,0.84067
7444.95689,0.84642
7443.02814,0.84537
7441.09940,0.84134
7439.17065,0.83565
7437.24190,0.82836
7435.31316,0.82678
7433.38441,0.83190
7431.45567,0.83645
7429.52692,0.83672
7427.59818,0.83420
7425.66943,0.83188
7423.74069,0.83209
7421.81194,0.83444
7419.88320,0.83520
7417.95445,0.83149
7416.02571,0.82806
7414.09696,0.82913
7412.16822,0.82967
7410.23947,0.82774
7408.31073,0.82747
7406.38198,0.82919
7404.45323,0.82994
7402.52449,0.82909
7400.59574,0.82956
7398.66700,0.82957
7396.73825,0.82473
7394.80951,0.81916
7392.88076,0.81665
7390.95202,0.81558
7389.02327,0.81661
7387.09453,0.82190
7385.16578,0.83000
7383.23704,0.83480
7381.30829,0.83474
7379.37955,0.83236
7377.45080,0.82663
7375.52205,0.81925
7373.59331,0.81367
7371.66456,0.81243
7369.73582,0.81702
7367.80707,0.82192
7365.87833,0.82147
7363.94958,0.81834
7362.02084,0.81643
7360.09209,0.81566
7358.16335,0.81641
7356.23460,0.82062
7354.30586,0.82661
7352.37711,0.82933
7350.44837,0.82739
7348.51962,0.82657
7346.59088,0.82810
7344.66213,0.82675
7342.73338,0.82470
7340.80464,0.82437
7338.87589,0.82318
7336.94715,0.82090
7335.01840,0.81741
7333.08966,0.81313
7331.16091,0.80970
7329.23217,0.80871
7327.30342,0.81066
7325.37468,0.81319
7323.44593,0.81322
7321.51719,0.81141
7319.58844,0.81232
7317.65970,0.81578
7315.73095,0.81808
7313.80221,0.81803
7311.87346,0.81333
7309.94471,0.80558
7308.01597,0.80173
7306.08722,0.80336
7304.15848,0.80587
7302.22973,0.80762
7300.30099,0.81099
7298.37224,0.81625
7296.44350,0.81993
7294.51475,0.81822
7292.58601,0.81490
7290.65726,0.81482
7288.72852,0.81278
7286.79977,0.80831
7284.87103,0.80806
7282.94228,0.81114
7281.01353,0.81385
7279.08479,0.81555
7277.15604,0.81679
7275.22730,0.81798
7273.29855,0.81649
7271.36981,0.81086
7269.44106,0.80497
7267.51232,0.80286
7265.58357,0.80395
7263.65483,0.80576
7261.72608,0.80992
7259.79734,0.81644
7257.86859,0.81901
7255.93985,0.81661
7254.01110,0.81461
7252.08236,0.81444
7250.15361,0.81543
7248.22486,0.81693
7246.29612,0.81611
7244.36737,0.81273
7242.43863,0.81074
7240.50988,0.81228
7238.58114,0.81569
7236.65239,0.81796
7234.72365,0.81822
7232.79490,0.81704
7230.86616,0.81449
7228.93741,0.81298
7227.00867,0.81430
7225.07992,0.81655
7223.15118,0.81658
7221.22243,0.81407
7219.29369,0.81163
7217.36494,0.80928
7215.43619,0.80753
7213.50745,0.80650
7211.57870,0.80286
7209.64996,0.79893
7207.72121,0.79941
7205.79247,0.80336
7203.86372,0.80626
7201.93498,0.80575
7200.00623,0.80598
7198.07749,0.80968
7196.14874,0.81262
7194.22000,0.81162
7192.29125,0.80861
7190.36251,0.80597
7188.43376,0.80557
7186.50501,0.80767
7184.57627,0.80843
7182.64752,0.80656
7180.71878,0.80612
7178.79003,0.80836
7176.86129,0.80904
7174.93254,0.80633
7173.00380,0.80338
7171.07505,0.80228
7169.14631,0.80285
7167.21756,0.80232
7165.28882,0.80026
7163.36007,0.80164
7161.43133,0.80458
7159.50258,0.80420
7157.57384,0.80305
7155.64509,0.80138
7153.71634,0.79805
7151.78760,0.79564
7149.85885,0.79366
7147.93011,0.79150
7146.00136,0.79206
7144.07262,0.79553
7142.14387,0.79798
7140.21513,0.79775
7138.28638,0.79754
7136.35764,0.79827
7134.42889,0.79806
7132.50015,0.79599
7130.57140,0.79246
7128.64266,0.78962
7126.71391,0.78889
7124.78516,0.78988
7122.85642,0.79014
7120.92767,0.78639
7118.99893,0.78164
7117.07018,0.78138
7115.14144,0.78367
7113.21269,0.78371
7111.28395,0.78289
7109.35520,0.78397
7107.42646,0.78345
7105.49771,0.78027
7103.56897,0.77896
7101.64022,0.78069
7099.71148,0.78262
7097.78273,0.78143
7095.85399,0.77695
7093.92524,0.77312
7091.99649,0.77287
7090.06775,0.77286
7088.13900,0.76825
7086.21026,0.76246
7084.28151,0.76124
7082.35277,0.76352
7080.42402,0.76609
7078.49528,0.76738
7076.56653,0.76596
7074.63779,0.76214
7072.70904,0.75805
7070.78030,0.75533
7068.85155,0.75545
7066.92281,0.75700
7064.99406,0.75544
7063.06532,0.75081
7061.13657,0.74683
7059.20782,0.74491
7057.27908,0.74518
7055.35033,0.74490
7053.42159,0.74071
7051.49284,0.73604
7049.56410,0.73604
7047.63535,0.73987
7045.70661,0.74312
7043.77786,0.74295
7041.84912,0.73847
7039.92037,0.73041
7037.99163,0.72305
7036.06288,0.72120
7034.13414,0.72459
7032.20539,0.72768
7030.27664,0.72723
7028.34790,0.72596
7026.41915,0.72460
7024.49041,0.72242
7022.56166,0.72194
7020.63292,0.72296
7018.70417,0.72302
7016.77543,0.72161
7014.84668,0.71740
7012.91794,0.71210
7010.98919,0.71101
7009.06045,0.71371
7007.13170,0.71599
7005.20296,0.71615
7003.27421,0.71419
7001.34547,0.71161
6999.41672,0.71006
6997.48797,0.70980
6995.55923,0.70968
6993.63048,0.70720
6991.70174,0.70394
6989.77299,0.70535
6987.84425,0.70958
6985.91550,0.71000
6983.98676,0.70816
6982.05801,0.70712
6980.12927,0.70358
6978.20052,0.69777
6976.27178,0.69437
6974.34303,0.69303
6972.41429,0.69151
6970.48554,0.69219
6968.55680,0.69707
6966.62805,0.70253
6964.69930,0.70494
6962.77056,0.70478
6960.84181,0.70289
6958.91307,0.70024
6956.98432,0.69834
6955.05558,0.69731
6953.12683,0.69613
6951.19809,0.69341
6949.26934,0.69120
6947.34060,0.69093
6945.41185,0.68923
6943.48311,0.68691
6941.55436,0.68676
6939.62562,0.68722
6937.69687,0.68863
6935.76812,0.69182
6933.83938,0.69206
6931.91063,0.68743
6929.98189,0.68429
6928.05314,0.68642
6926.12440,0.69087
6924.19565,0.69388
6922.26691,0.69349
6920.33816,0.69074
6918.40942,0.68667
6916.48067,0.68189
6914.55193,0.68032
6912.62318,0.68273
6910.69444,0.68465
6908.76569,0.68545
6906.83695,0.68665
6904.90820,0.68679
6902.97945,0.68567
6901.05071,0.68512
6899.12196,0.68569
6897.19322,0.68666
6895.26447,0.68742
6893.33573,0.68742
6891.40698,0.68664
6889.47824,0.68641
6887.54949,0.68669
6885.62075,0.68742
6883.69200,0.68966
6881.76326,0.69100
6879.83451,0.68901
6877.90577,0.68660
6875.97702,0.68649
6874.04828,0.68626
6872.11953,0.68455
6870.19078,0.68429
6868.26204,0.68640
6866.33329,0.68868
6864.40455,0.68935
6862.47580,0.68842
6860.54706,0.68621
6858.61831,0.68240
6856.68957,0.67941
6854.76082,0.67975
6852.83208,0.68124
6850.90333,0.68139
6848.97459,0.68133
6847.04584,0.68339
6845.11710,0.68709
6843.18835,0.68913
6841.25960,0.68918
6839.33086,0.69063
6837.40211,0.69314
6835.47337,0.69324
6833.54462,0.69217
6831.61588,0.69147
6829.68713,0.68861
6827.75839,0.68438
6825.82964,0.68173
6823.90090,0.68109
6821.97215,0.68384
6820.04341,0.68941
6818.11466,0.69147
6816.18592,0.68738
6814.25717,0.68177
6812.32843,0.67844
6810.39968,0.67799
6808.47093,0.67932
6806.54219,0.68204
6804.61344,0.68579
6802.68470,0.68680
6800.75595,0.68406
6798.82721,0.68187
6796.89846,0.68155
6794.96972,0.68159
6793.04097,0.68271
6791.11223,0.68479
6789.18348,0.68484
6787.25474,0.68315
6785.32599,0.68308
6783.39725,0.68446
6781.46850,0.68554
6779.53975,0.68593
6777.61101,0.68641
6775.68226,0.68883
6773.75352,0.69079
6771.82477,0.68729
6769.89603,0.68157
6767.96728,0.68061
6766.03854,0.68298
6764.10979,0.68383
6762.18105,0.68315
6760.25230,0.68214
6758.32356,0.68166
6756.39481,0.68344
6754.46607,0.68603
6752.53732,0.68691
6750.60858,0.68719
6748.67983,0.68765
6746.75108,0.68800
6744.82234,0.68869
6742.89359,0.68866
6740.96485,0.68834
6739.03610,0.69008
6737.10736,0.69173
6735.17861,0.69004
6733.24987,0.68680
6731.32112,0.68369
6729.39238,0.68111
6727.46363,0.68057
6725.53489,0.68078
6723.60614,0.67941
6721.67740,0.67799
6719.74865,0.67964
6717.81991,0.68413
6715.89116,0.68731
6713.96241,0.68842
6712.03367,0.69001
6710.10492,0.69055
6708.17618,0.68868
6706.24743,0.68719
6704.31869,0.68687
6702.38994,0.68603
6700.46120,0.68535
6698.53245,0.68637
6696.60371,0.68723
6694.67496,0.68631
6692.74622,0.68590
6690.81747,0.68773
6688.88873,0.69013
6686.95998,0.69125
6685.03123,0.69128
6683.10249,0.69082
6681.17374,0.69026
6679.24500,0.69070
6677.31625,0.69256
6675.38751,0.69396
6673.45876,0.69321
6671.53002,0.69141
6669.60127,0.69068
6667.67253,0.69140
6665.74378,0.69246
6663.81504,0.69359
6661.88629,0.69405
6659.95755,0.69272
6658.02880,0.69149
6656.10006,0.69162
6654.17131,0.69175
6652.24256,0.69115
6650.31382,0.68957
6648.38507,0.68932
6646.45633,0.69375
6644.52758,0.69929
6642.59884,0.70012
6640.67009,0.69717
6638.74135,0.69408
6636.81260,0.69292
6634.88386,0.69393
6632.95511,0.69510
6631.02637,0.69602
6629.09762,0.69800
6627.16888,0.69963
6625.24013,0.69912
6623.31139,0.69763
6621.38264,0.69762
6619.45389,0.70020
6617.52515,0.70354
6615.59640,0.70464
6613.66766,0.70289
6611.73891,0.69955
6609.81017,0.69697
6607.88142,0.69780
6605.95268,0.70165
6604.02393,0.70499
6602.09519,0.70593
6600.16644,0.70538
6598.23770,0.70339
6596.30895,0.70006
6594.38021,0.69759
6592.45146,0.69806
6590.52271,0.70270
6588.59397,0.70867
6586.66522,0.70926
6584.73648,0.70427
6582.80773,0.70136
6580.87899,0.70358
6578.95024,0.70585
6577.02150,0.70591
6575.09275,0.70643
6573.16401,0.70731
6571.23526,0.70758
6569.30652,0.70707
6567.37777,0.70607
6565.44903,0.70757
6563.52028,0.71117
6561.59154,0.71194
6559.66279,0.71009
6557.73404,0.70954
6555.80530,0.71029
6553.87655,0.71046
6551.94781,0.71005
6550.01906,0.70932
6548.09032,0.70821
6546.16157,0.70796
6544.23283,0.70807
6542.30408,0.70786
6540.37534,0.70900
6538.44659,0.71052
6536.51785,0.71104
6534.58910,0.71221
6532.66036,0.71295
6530.73161,0.71009
6528.80287,0.70570
6526.87412,0.70510
6524.94537,0.70820
6523.01663,0.71067
6521.08788,0.71233
6519.15914,0.71595
6517.23039,0.71955
6515.30165,0.72002
6513.37290,0.71847
6511.44416,0.71609
6509.51541,0.71431
6507.58667,0.71364
6505.65792,0.71200
6503.72918,0.71064
6501.80043,0.71264
6499.87169,0.71671
6497.94294,0.71890
6496.01419,0.71810
6494.08545,0.71664
6492.15670,0.71578
6490.22796,0.71488
6488.29921,0.71428
6486.37047,0.71410
6484.44172,0.71262
6482.51298,0.71122
6480.58423,0.71375
6478.65549,0.71876
6476.72674,0.72157
6474.79800,0.72111
6472.86925,0.71948
6470.94051,0.71783
6469.01176,0.71637
6467.08302,0.71566
6465.15427,0.71510
6463.22552,0.71431
6461.29678,0.71522
6459.36803,0.71814
6457.43929,0.72030
6455.51054,0.72112
6453.58180,0.72129
6451.65305,0.72054
6449.72431,0.72021
6447.79556,0.71965
6445.86682,0.71726
6443.93807,0.71623
6442.00933,0.71813
6440.08058,0.71972
6438.15184,0.71931
6436.22309,0.71858
6434.29434,0.71876
6432.36560,0.71841
6430.43685,0.71737
6428.50811,0.71862
6426.57936,0.72144
6424.65062,0.72167
6422.72187,0.71952
6420.79313,0.71897
6418.86438,0.72059
6416.93564,0.72080
6415.00689,0.71962
6413.07815,0.72008
6411.14940,0.72095
6409.22066,0.72115
6407.29191,0.72328
6405.36317,0.72634
6403.43442,0.72662
6401.50567,0.72565
6399.57693,0.72616
6397.64818,0.72660
6395.71944,0.72468
6393.79069,0.72049
6391.86195,0.71770
6389.93320,0.71906
6388.00446,0.72126
6386.07571,0.72170
6384.14697,0.72205
6382.21822,0.72251
6380.28948,0.72245
6378.36073,0.72318
6376.43199,0.72444
6374.50324,0.72415
6372.57450,0.72266
6370.64575,0.72189
6368.71700,0.72215
6366.78826,0.72273
6364.85951,0.72332
6362.93077,0.72370
6361.00202,0.72400
6359.07328,0.72484
6357.14453,0.72634
6355.21579,0.72702
6353.28704,0.72581
6351.35830,0.72538
6349.42955,0.72690
6347.50081,0.72759
6345.57206,0.72678
6343.64332,0.72564
6341.71457,0.72560
6339.78582,0.72696
6337.85708,0.72683
6335.92833,0.72486
6333.99959,0.72403
6332.07084,0.72443
6330.14210,0.72511
6328.21335,0.72603
6326.28461,0.72621
6324.35586,0.72592
6322.42712,0.72597
6320.49837,0.72536
6318.56963,0.72446
6316.64088,0.72461
6314.71214,0.72497
6312.78339,0.72517
6310.85465,0.72690
6308.92590,0.72943
6306.99715,0.73079
6305.06841,0.73146
6303.13966,0.73136
6301.21092,0.73008
6299.28217,0.72963
6297.35343,0.73068
6295.42468,0.73101
6293.49594,0.73027
6291.56719,0.73019
6289.63845,0.73059
6287.70970,0.73011
6285.78096,0.72933
6283.85221,0.73040
6281.92347,0.73266
6279.99472,0.73294
6278.06598,0.73154
6276.13723,0.73071
6274.20848,0.73098
6272.27974,0.73252
6270.35099,0.73413
6268.42225,0.73377
6266.49350,0.73262
6264.56476,0.73352
6262.63601,0.73658
6260.70727,0.73885
6258.77852,0.73860
6256.84978,0.73820
6254.92103,0.73925
6252.99229,0.73984
6251.06354,0.73906
6249.13480,0.73786
6247.20605,0.73692
6245.27730,0.73662
6243.34856,0.73805
6241.41981,0.74164
6239.49107,0.74445
6237.56232,0.74387
6235.63358,0.74241
6233.70483,0.74305
6231.77609,0.74454
6229.84734,0.74389
6227.91860,0.74075
6225.98985,0.73812
6224.06111,0.73869
6222.13236,0.74140
6220.20362,0.74352
6218.27487,0.74586
6216.34613,0.74979
6214.41738,0.75130
6212.48863,0.74945
6210.55989,0.74873
6208.63114,0.74933
6206.70240,0.75023
6204.77365,0.75172
6202.84491,0.75167
6200.91616,0.75071
6198.98742,0.75142
6197.05867,0.75277
6195.12993,0.75289
6193.20118,0.75199
6191.27244,0.75183
6189.34369,0.75298
6187.41495,0.75379
6185.48620,0.75450
6183.55746,0.75600
6181.62871,0.75675
6179.69996,0.75659
6177.77122,0.75662
6175.84247,0.75648
6173.91373,0.75655
6171.98498,0.75708
6170.05624,0.75671
6168.12749,0.75623
6166.19875,0.75807
6164.27000,0.76066
6162.34126,0.76058
6160.41251,0.75917
6158.48377,0.75929
6156.55502,0.76016
6154.62628,0.76075
6152.69753,0.76158
6150.76878,0.76239
6148.84004,0.76222
6146.91129,0.76056
6144.98255,0.75855
6143.05380,0.75783
6141.12506,0.75837
6139.19631,0.75933
6137.26757,0.75993
6135.33882,0.76057
6133.41008,0.76233
6131.48133,0.76436
6129.55259,0.76478
6127.62384,0.76388
6125.69510,0.76391
6123.76635,0.76477
6121.83761,0.76465
6119.90886,0.76447
6117.98011,0.76474
6116.05137,0.76400
6114.12262,0.76339
6112.19388,0.76459
6110.26513,0.76611
6108.33639,0.76646
6106.40764,0.76597
6104.47890,0.76466
6102.55015,0.76266
6100.62141,0.76166
6098.69266,0.76340
6096.76392,0.76685
6094.83517,0.76901
6092.90643,0.76922
6090.97768,0.76852
6089.04893,0.76709
6087.12019,0.76609
6085.19144,0.76656
6083.26270,0.76701
6081.33395,0.76617
6079.40521,0.76521
6077.47646,0.76554
6075.54772,0.76659
6073.61897,0.76687
6071.69023,0.76582
6069.76148,0.76429
6067.83274,0.76352
6065.90399,0.76330
6063.97525,0.76361
6062.04650,0.76483
6060.11776,0.76562
6058.18901,0.76625
6056.26026,0.76762
6054.33152,0.76788
6052.40277,0.76597
6050.47403,0.76255
6048.54528,0.75967
6046.61654,0.75995
6044.68779,0.76237
6042.75905,0.76414
6040.83030,0.76516
6038.90156,0.76579
6036.97281,0.76498
6035.04407,0.76350
6033.11532,0.76262
6031.18658,0.76198
6029.25783,0.76230
6027.32909,0.76329
6025.40034,0.76252
6023.47159,0.76044
6021.54285,0.75974
6019.61410,0.76043
6017.68536,0.76095
6015.75661,0.76076
6013.82787,0.76024
6011.89912,0.75991
6009.97038,0.75964
6008.04163,0.75954
6006.11289,0.75989
6004.18414,0.75943
6002.25540,0.75790
6000.32665,0.75689
5998.39791,0.75682
5996.46916,0.75689
5994.54041,0.75671
5992.61167,0.75606
5990.68292,0.75490
5988.75418,0.75441
5986.82543,0.75530
5984.89669,0.75630
5982.96794,0.75672
5981.03920,0.75658
5979.11045,0.75523
5977.18171,0.75343
5975.25296,0.75259
5973.32422,0.75241
5971.39547,0.75212
5969.46673,0.75239
5967.53798,0.75361
5965.60924,0.75450
5963.68049,0.75486
5961.75174,0.75519
5959.82300,0.75446
5957.89425,0.75264
5955.96551,0.75151
5954.03676,0.75109
5952.10802,0.74991
5950.17927,0.74839
5948.25053,0.74802
5946.32178,0.74841
5944.39304,0.74861
5942.46429,0.74835
5940.53555,0.74786
5938.60680,0.74763
5936.67806,0.74733
5934.74931,0.74745
5932.82057,0.74899
5930.89182,0.75001
5928.96307,0.74915
5927.03433,0.74921
5925.10558,0.75155
5923.17684,0.75334
5921.24809,0.75282
5919.31935,0.75139
5917.39060,0.75053
5915.46186,0.75042
5913.53311,0.75056
5911.60437,0.75004
5909.67562,0.74863
5907.74688,0.74760
5905.81813,0.74735
5903.88939,0.74713
5901.96064,0.74682
5900.03189,0.74632
5898.10315,0.74525
5896.17440,0.74453
5894.24566,0.74457
5892.31691,0.74388
5890.38817,0.74270
5888.45942,0.74219
5886.53068,0.74208
5884.60193,0.74249
5882.67319,0.74361
5880.74444,0.74471
5878.81570,0.74455
5876.88695,0.74310
5874.95821,0.74245
5873.02946,0.74322
5871.10072,0.74381
5869.17197,0.74386
5867.24322,0.74396
5865.31448,0.74403
5863.38573,0.74413
5861.45699,0.74490
5859.52824,0.74608
5857.59950,0.74622
5855.67075,0.74491
5853.74201,0.74344
5851.81326,0.74245
5849.88452,0.74184
5847.95577,0.74182
5846.02703,0.74209
5844.09828,0.74187
5842.16954,0.74117
5840.24079,0.74087
5838.31205,0.74131
5836.38330,0.74152
5834.45455,0.74084
5832.52581,0.74018
5830.59706,0.73985
5828.66832,0.73889
5826.73957,0.73744
5824.81083,0.73617
5822.88208,0.73548
5820.95334,0.73592
5819.02459,0.73662
5817.09585,0.73650
5815.16710,0.73629
5813.23836,0.73607
5811.30961,0.73515
5809.38087,0.73419
5807.45212,0.73364
5805.52337,0.73346
5803.59463,0.73377
5801.66588,0.73406
5799.73714,0.73408
5797.80839,0.73418
5795.87965,0.73416
5793.95090,0.73396
5792.02216,0.73397
5790.09341,0.73429
5788.16467,0.73471
5786.23592,0.73540
5784.30718,0.73671
5782.37843,0.73805
5780.44969,0.73831
5778.52094,0.73783
5776.59220,0.73792
5774.66345,0.73834
5772.73470,0.73828
5770.80596,0.73830
5768.87721,0.73923
5766.94847,0.74083
5765.01972,0.74156
5763.09098,0.74105
5761.16223,0.74079
5759.23349,0.74067
5757.30474,0.73989
5755.37600,0.73955
5753.44725,0.74012
5751.51851,0.74113
5749.58976,0.74321
5747.66102,0.74544
5745.73227,0.74514
5743.80352,0.74290
5741.87478,0.74211
5739.94603,0.74306
5738.01729,0.74279
5736.08854,0.74090
5734.15980,0.74025
5732.23105,0.74135
5730.30231,0.74233
5728.37356,0.74287
5726.44482,0.74328
5724.51607,0.74314
5722.58733,0.74250
5720.65858,0.74160
5718.72984,0.74118
5716.80109,0.74231
5714.87235,0.74326
5712.94360,0.74203
5711.01485,0.74047
5709.08611,0.74071
5707.15736,0.74236
5705.22862,0.74338
5703.29987,0.74272
5701.37113,0.74188
5699.44238,0.74206
5697.51364,0.74237
5695.58489,0.74190
5693.65615,0.74142
5691.72740,0.74185
5689.79866,0.74233
5687.86991,0.74213
5685.94117,0.74193
5684.01242,0.74229
5682.08368,0.74241
5680.15493,0.74174
5678.22618,0.74078
5676.29744,0.74007
5674.36869,0.74007
5672.43995,0.74047
5670.51120,0.74042
5668.58246,0.74034
5666.65371,0.74130
5664.72497,0.74226
5662.79622,0.74172
5660.86748,0.74070
5658.93873,0.74005
5657.00999,0.73913
5655.08124,0.73811
5653.15250,0.73781
5651.22375,0.73851
5649.29500,0.73952
5647.36626,0.73990
5645.43751,0.73967
5643.50877,0.73964
5641.58002,0.74027
5639.65128,0.74124
5637.72253,0.74141
5635.79379,0.74032
5633.86504,0.73980
5631.93630,0.74025
5630.00755,0.74005
5628.07881,0.73966
5626.15006,0.74000
5624.22132,0.74075
5622.29257,0.74183
5620.36383,0.74335
5618.43508,0.74452
5616.50633,0.74418
5614.57759,0.74284
5612.64884,0.74174
5610.72010,0.74107
5608.79135,0.74077
5606.86261,0.74070
5604.93386,0.74091
5603.00512,0.74122
5601.07637,0.74106
5599.14763,0.74065
5597.21888,0.74060
5595.29014,0.74121
5593.36139,0.74178
5591.43265,0.74118
5589.50390,0.74020
5587.57516,0.74006
5585.64641,0.74047
5583.71766,0.74096
5581.78892,0.74118
5579.86017,0.74113
5577.93143,0.74115
5576.00268,0.74086
5574.07394,0.74020
5572.14519,0.74000
5570.21645,0.74046
5568.28770,0.74100
5566.35896,0.74158
5564.43021,0.74223
5562.50147,0.74269
5560.57272,0.74294
5558.64398,0.74298
5556.71523,0.74251
5554.78648,0.74182
5552.85774,0.74170
5550.92899,0.74223
5549.00025,0.74327
5547.07150,0.74480
5545.14276,0.74561
5543.21401,0.74504
5541.28527,0.74449
5539.35652,0.74480
5537.42778,0.74508
5535.49903,0.74527
5533.57029,0.74606
5531.64154,0.74684
5529.71280,0.74665
5527.78405,0.74566
5525.85531,0.74495
5523.92656,0.74513
5521.99781,0.74558
5520.06907,0.74586
5518.14032,0.74648
5516.21158,0.74711
5514.28283,0.74670
5512.35409,0.74540
5510.42534,0.74413
5508.49660,0.74365
5506.56785,0.74406
5504.63911,0.74440
5502.71036,0.74432
5500.78162,0.74445
5498.85287,0.74525
5496.92413,0.74692
5494.99538,0.74855
5493.06664,0.74859
5491.13789,0.74741
5489.20914,0.74674
5487.28040,0.74679
5485.35165,0.74730
5483.42291,0.74842
5481.49416,0.74916
5479.56542,0.74866
5477.63667,0.74762
5475.70793,0.74726
5473.77918,0.74790
5471.85044,0.74851
5469.92169,0.74833
5467.99295,0.74807
5466.06420,0.74855
5464.13546,0.74977
5462.20671,0.75111
5460.27796,0.75161
5458.34922,0.75083
5456.42047,0.74974
5454.49173,0.74964
5452.56298,0.75036
5450.63424,0.75111
5448.70549,0.75173
5446.77675,0.75221
5444.84800,0.75249
5442.91926,0.75244
5440.99051,0.75234
5439.06177,0.75286
5437.13302,0.75398
5435.20428,0.75481
5433.27553,0.75501
5431.34679,0.75552
5429.41804,0.75647
5427.48929,0.75708
5425.56055,0.75737
5423.63180,0.75764
5421.70306,0.75806
5419.77431,0.75797
5417.84557,0.75690
5415.91682,0.75612
5413.98808,0.75621
5412.05933,0.75675
5410.13059,0.75763
5408.20184,0.75816
5406.27310,0.75834
5404.34435,0.75850
5402.41561,0.75797
5400.48686,0.75743
5398.55811,0.75800
5396.62937,0.75873
5394.70062,0.75880
5392.77188,0.75913
5390.84313,0.76008
5388.91439,0.76085
5386.98564,0.76151
5385.05690,0.76206
5383.12815,0.76148
5381.19941,0.76004
5379.27066,0.75936
5377.34192,0.75994
5375.41317,0.76080
5373.48443,0.76101
5371.55568,0.76042
5369.62694,0.75971
5367.69819,0.75996
5365.76944,0.76093
5363.84070,0.76122
5361.91195,0.76076
5359.98321,0.76068
5358.05446,0.76102
5356.12572,0.76096
5354.19697,0.76045
5352.26823,0.76006
5350.33948,0.76025
5348.41074,0.76062
5346.48199,0.76061
5344.55325,0.76049
5342.62450,0.76022
5340.69576,0.75967
5338.76701,0.75937
5336.83827,0.75922
5334.90952,0.75863
5332.98077,0.75819
5331.05203,0.75845
5329.12328,0.75827
5327.19454,0.75714
5325.26579,0.75575
5323.33705,0.75441
5321.40830,0.75334
5319.47956,0.75268
5317.55081,0.75190
5315.62207,0.75052
5313.69332,0.74913
5311.76458,0.74827
5309.83583,0.74726
5307.90709,0.74604
5305.97834,0.74513
5304.04959,0.74399
5302.12085,0.74219
5300.19210,0.74026
5298.26336,0.73840
5296.33461,0.73641
5294.40587,0.73451
5292.47712,0.73265
5290.54838,0.73044
5288.61963,0.72805
5286.69089,0.72568
5284.76214,0.72293
5282.83340,0.71966
5280.90465,0.71695
5278.97591,0.71534
5277.04716,0.71328
5275.11842,0.70944
5273.18967,0.70479
5271.26092,0.70112
5269.33218,0.69850
5267.40343,0.69567
5265.47469,0.69226
5263.54594,0.68865
5261.61720,0.68491
5259.68845,0.68121
5257.75971,0.67805
5255.83096,0.67565
5253.90222,0.67344
5251.97347,0.67031
5250.04473,0.66636
5248.11598,0.66268
5246.18724,0.65942
5244.25849,0.65656
5242.32975,0.65439
5240.40100,0.65249
5238.47225,0.65049
5236.54351,0.64809
5234.61476,0.64545
5232.68602,0.64366
5230.75727,0.64277
5228.82853,0.64161
5226.89978,0.63991
5224.97104,0.63822
5223.04229,0.63657
5221.11355,0.63474
5219.18480,0.63330
5217.25606,0.63320
5215.32731,0.63378
5213.39857,0.63315
5211.46982,0.63128
5209.54107,0.62972
5207.61233,0.62911
5205.68358,0.62882
5203.75484,0.62817
5201.82609,0.62737
5199.89735,0.62702
5197.96860,0.62696
5196.03986,0.62669
5194.11111,0.62639
5192.18237,0.62651
5190.25362,0.62709
5188.32488,0.62804
5186.39613,0.62898
5184.46739,0.62967
5182.53864,0.63034
5180.60990,0.63097
5178.68115,0.63112
5176.75240,0.63076
5174.82366,0.63059
5172.89491,0.63107
5170.96617,0.63187
5169.03742,0.63285
5167.10868,0.63440
5165.17993,0.63617
5163.25119,0.63718
5161.32244,0.63768
5159.39370,0.63878
5157.46495,0.64040
5155.53621,0.64188
5153.60746,0.64333
5151.67872,0.64467
5149.74997,0.64551
5147.82123,0.64617
5145.89248,0.64707
5143.96373,0.64799
5142.03499,0.64851
5140.10624,0.64894
5138.17750,0.65017
5136.24875,0.65223
5134.32001,0.65408
5132.39126,0.65532
5130.46252,0.65620
5128.53377,0.65656
5126.60503,0.65691
5124.67628,0.65778
5122.74754,0.65882
5120.81879,0.66001
5118.89005,0.66133
5116.96130,0.66245
5115.03255,0.66337
5113.10381,0.66435
5111.17506,0.66570
5109.24632,0.66702
5107.31757,0.66765
5105.38883,0.66809
5103.46008,0.66900
5101.53134,0.66991
5099.60259,0.67064
5097.67385,0.67136
5095.74510,0.67177
5093.81636,0.67213
5091.88761,0.67299
5089.95887,0.67429
5088.03012,0.67532
5086.10138,0.67559
5084.17263,0.67608
5082.24388,0.67770
5080.31514,0.67967
5078.38639,0.68098
5076.45765,0.68161
5074.52890,0.68207
5072.60016,0.68271
5070.67141,0.68359
5068.74267,0.68429
5066.81392,0.68453
5064.88518,0.68453
5062.95643,0.68450
5061.02769,0.68475
5059.09894,0.68557
5057.17020,0.68667
5055.24145,0.68783
5053.31270,0.68914
5051.38396,0.68997
5049.45521,0.69013
5047.52647,0.69041
5045.59772,0.69091
5043.66898,0.69143
5041.74023,0.69193
5039.81149,0.69206
5037.88274,0.69200
5035.95400,0.69245
5034.02525,0.69350
5032.09651,0.69467
5030.16776,0.69568
5028.23902,0.69623
5026.31027,0.69603
5024.38153,0.69563
5022.45278,0.69560
5020.52403,0.69577
5018.59529,0.69613
5016.66654,0.69676
5014.73780,0.69687
5012.80905,0.69618
5010.88031,0.69545
5008.95156,0.69512
5007.02282,0.69535
5005.09407,0.69594
5003.16533,0.69599
5001.23658,0.69538
4999.30784,0.69523
4997.37909,0.69565
4995.45035,0.69551
4993.52160,0.69471
4991.59286,0.69380
4989.66411,0.69293
4987.73536,0.69233
4985.80662,0.69169
4983.87787,0.69078
4981.94913,0.69022
4980.02038,0.69007
4978.09164,0.68984
4976.16289,0.68917
4974.23415,0.68788
4972.30540,0.68665
4970.37666,0.68618
4968.44791,0.68554
4966.51917,0.68370
4964.59042,0.68157
4962.66168,0.68038
4960.73293,0.67977
4958.80418,0.67901
4956.87544,0.67802
4954.94669,0.67677
4953.01795,0.67536
4951.08920,0.67389
4949.16046,0.67182
4947.23171,0.66919
4945.30297,0.66684
4943.37422,0.66511
4941.44548,0.66360
4939.51673,0.66176
4937.58799,0.65940
4935.65924,0.65682
4933.73050,0.65447
4931.80175,0.65258
4929.87301,0.65099
4927.94426,0.64940
4926.01551,0.64756
4924.08677,0.64554
4922.15802,0.64376
4920.22928,0.64222
4918.30053,0.64042
4916.37179,0.63812
4914.44304,0.63562
4912.51430,0.63339
4910.58555,0.63162
4908.65681,0.63009
4906.72806,0.62798
4904.79932,0.62520
4902.87057,0.62291
4900.94183,0.62118
4899.01308,0.61911
4897.08434,0.61678
4895.15559,0.61434
4893.22684,0.61166
4891.29810,0.60919
4889.36935,0.60713
4887.44061,0.60532
4885.51186,0.60357
4883.58312,0.60159
4881.65437,0.59954
4879.72563,0.59759
4877.79688,0.59566
4875.86814,0.59397
4873.93939,0.59241
4872.01065,0.59065
4870.08190,0.58886
4868.15316,0.58749
4866.22441,0.58629
4864.29566,0.58472
4862.36692,0.58289
4860.43817,0.58116
4858.50943,0.57939
4856.58068,0.57737
4854.65194,0.57540
4852.72319,0.57377
4850.79445,0.57256
4848.86570,0.57164
4846.93696,0.57030
4845.00821,0.56832
4843.07947,0.56651
4841.15072,0.56509
4839.22198,0.56357
4837.29323,0.56208
4835.36449,0.56123
4833.43574,0.56075
4831.50699,0.55990
4829.57825,0.55880
4827.64950,0.55754
4825.72076,0.55597
4823.79201,0.55424
4821.86327,0.55227
4819.93452,0.55081
4818.00578,0.55075
4816.07703,0.55117
4814.14829,0.55081
4812.21954,0.54977
4810.29080,0.54880
4808.36205,0.54807
4806.43331,0.54737
4804.50456,0.54695
4802.57582,0.54667
4800.64707,0.54621
4798.71832,0.54593
4796.78958,0.54590
4794.86083,0.54552
4792.93209,0.54449
4791.00334,0.54346
4789.07460,0.54307
4787.14585,0.54282
4785.21711,0.54256
4783.28836,0.54271
4781.35962,0.54292
4779.43087,0.54283
4777.50213,0.54280
4775.57338,0.54300
4773.64464,0.54310
4771.71589,0.54255
4769.78714,0.54132
4767.85840,0.54030
4765.92965,0.54042
4764.00091,0.54108
4762.07216,0.54121
4760.14342,0.54104
4758.21467,0.54104
4756.28593,0.54110
4754.35718,0.54108
4752.42844,0.54096
4750.49969,0.54084
4748.57095,0.54098
4746.64220,0.54153
4744.71346,0.54206
4742.78471,0.54197
4740.85597,0.54141
4738.92722,0.54126
4736.99847,0.54169
4735.06973,0.54190
4733.14098,0.54206
4731.21224,0.54261
4729.28349,0.54302
4727.35475,0.54309
4725.42600,0.54312
4723.49726,0.54323
4721.56851,0.54333
4719.63977,0.54349
4717.71102,0.54373
4715.78228,0.54388
4713.85353,0.54414
4711.92479,0.54485
4709.99604,0.54559
4708.06729,0.54585
4706.13855,0.54583
4704.20980,0.54591
4702.28106,0.54627
4700.35231,0.54691
4698.42357,0.54763
4696.49482,0.54850
4694.56608,0.54969
4692.63733,0.55108
4690.70859,0.55201
4688.77984,0.55209
4686.85110,0.55175
4684.92235,0.55160
4682.99361,0.55202
4681.06486,0.55305
4679.13612,0.55430
4677.20737,0.55497
4675.27862,0.55502
4673.34988,0.55542
4671.42113,0.55617
4669.49239,0.55678
4667.56364,0.55772
4665.63490,0.55916
4663.70615,0.56050
4661.77741,0.56143
4659.84866,0.56201
4657.91992,0.56264
4655.99117,0.56365
4654.06243,0.56470
4652.13368,0.56553
4650.20494,0.56644
4648.27619,0.56740
4646.34745,0.56803
4644.41870,0.56852
4642.48995,0.56930
4640.56121,0.57028
4638.63246,0.57124
4636.70372,0.57206
4634.77497,0.57260
4632.84623,0.57307
4630.91748,0.57377
4628.98874,0.57461
4627.05999,0.57539
4625.13125,0.57602
4623.20250,0.57671
4621.27376,0.57781
4619.34501,0.57894
4617.41627,0.57940
4615.48752,0.57951
4613.55877,0.58015
4611.63003,0.58106
4609.70128,0.58166
4607.77254,0.58255
4605.84379,0.58395
4603.91505,0.58516
4601.98630,0.58604
4600.05756,0.58695
4598.12881,0.58790
4596.20007,0.58871
4594.27132,0.58941
4592.34258,0.58996
4590.41383,0.59048
4588.48509,0.59129
4586.55634,0.59194
4584.62760,0.59197
4582.69885,0.59190
4580.77010,0.59226
4578.84136,0.59290
4576.91261,0.59357
4574.98387,0.59438
4573.05512,0.59532
4571.12638,0.59579
4569.19763,0.59562
4567.26889,0.59556
4565.34014,0.59599
4563.41140,0.59680
4561.48265,0.59797
4559.55391,0.59914
4557.62516,0.59997
4555.69642,0.60049
4553.76767,0.60094
4551.83893,0.60147
4549.91018,0.60173
4547.98143,0.60169
4546.05269,0.60195
4544.12394,0.60255
4542.19520,0.60311
4540.26645,0.60348
4538.33771,0.60362
4536.40896,0.60359
4534.48022,0.60363
4532.55147,0.60407
4530.62273,0.60483
4528.69398,0.60530
4526.76524,0.60538
4524.83649,0.60557
4522.90775,0.60569
4520.97900,0.60542
4519.05025,0.60555
4517.12151,0.60630
4515.19276,0.60669
4513.26402,0.60637
4511.33527,0.60591
4509.40653,0.60556
4507.47778,0.60512
4505.54904,0.60452
4503.62029,0.60394
4501.69155,0.60323
4499.76280,0.60236
4497.83406,0.60163
4495.90531,0.60101
4493.97657,0.60023
4492.04782,0.59918
4490.11908,0.59778
4488.19033,0.59604
4486.26158,0.59422
4484.33284,0.59276
4482.40409,0.59158
4480.47535,0.59007
4478.54660,0.58802
4476.61786,0.58584
4474.68911,0.58359
4472.76037,0.58129
4470.83162,0.57913
4468.90288,0.57693
4466.97413,0.57474
4465.04539,0.57288
4463.11664,0.57098
4461.18790,0.56833
4459.25915,0.56495
4457.33041,0.56169
4455.40166,0.55900
4453.47291,0.55652
4451.54417,0.55415
4449.61542,0.55203
4447.68668,0.54971
4445.75793,0.54681
4443.82919,0.54374
4441.90044,0.54086
4439.97170,0.53807
4438.04295,0.53528
4436.11421,0.53272
4434.18546,0.53056
4432.25672,0.52852
4430.32797,0.52625
4428.39923,0.52375
4426.47048,0.52128
4424.54173,0.51923
4422.61299,0.51770
4420.68424,0.51642
4418.75550,0.51519
4416.82675,0.51380
4414.89801,0.51203
4412.96926,0.51009
4411.04052,0.50847
4409.11177,0.50746
4407.18303,0.50690
4405.25428,0.50645
4403.32554,0.50591
4401.39679,0.50521
4399.46805,0.50450
4397.53930,0.50399
4395.61056,0.50370
4393.68181,0.50365
4391.75306,0.50390
4389.82432,0.50442
4387.89557,0.50499
4385.96683,0.50552
4384.03808,0.50625
4382.10934,0.50724
4380.18059,0.50818
4378.25185,0.50910
4376.32310,0.51005
4374.39436,0.51096
4372.46561,0.51191
4370.53687,0.51287
4368.60812,0.51368
4366.67938,0.51444
4364.75063,0.51506
4362.82189,0.51520
4360.89314,0.51504
4358.96439,0.51480
4357.03565,0.51438
4355.10690,0.51384
4353.17816,0.51342
4351.24941,0.51332
4349.32067,0.51338
4347.39192,0.51291
4345.46318,0.51158
4343.53443,0.51006
4341.60569,0.50907
4339.67694,0.50855
4337.74820,0.50803
4335.81945,0.50706
4333.89071,0.50584
4331.96196,0.50503
4330.03321,0.50443
4328.10447,0.50341
4326.17572,0.50191
4324.24698,0.50041
4322.31823,0.49950
4320.38949,0.49903
4318.46074,0.49854
4316.53200,0.49821
4314.60325,0.49791
4312.67451,0.49693
4310.74576,0.49542
4308.81702,0.49413
4306.88827,0.49313
4304.95953,0.49227
4303.03078,0.49171
4301.10204,0.49162
4299.17329,0.49147
4297.24454,0.49084
4295.31580,0.49031
4293.38705,0.49003
4291.45831,0.48947
4289.52956,0.48866
4287.60082,0.48806
4285.67207,0.48787
4283.74333,0.48781
4281.81458,0.48767
4279.88584,0.48732
4277.95709,0.48701
4276.02835,0.48726
4274.09960,0.48791
4272.17086,0.48837
4270.24211,0.48861
4268.31336,0.48898
4266.38462,0.48943
4264.45587,0.48977
4262.52713,0.49000
4260.59838,0.49018
4258.66964,0.49031
4256.74089,0.49044
4254.81215,0.49082
4252.88340,0.49130
4250.95466,0.49141
4249.02591,0.49131
4247.09717,0.49167
4245.16842,0.49251
4243.23968,0.49329
4241.31093,0.49390
4239.38219,0.49439
4237.45344,0.49455
4235.52469,0.49453
4233.59595,0.49499
4231.66720,0.49579
4229.73846,0.49621
4227.80971,0.49617
4225.88097,0.49615
4223.95222,0.49653
4222.02348,0.49720
4220.09473,0.49768
4218.16599,0.49773
4216.23724,0.49751
4214.30850,0.49753
4212.37975,0.49800
4210.45101,0.49841
4208.52226,0.49852
4206.59352,0.49860
4204.66477,0.49879
4202.73602,0.49896
4200.80728,0.49899
4198.87853,0.49916
4196.94979,0.49975
4195.02104,0.50037
4193.09230,0.50043
4191.16355,0.49992
4189.23481,0.49940
4187.30606,0.49948
4185.37732,0.50014
4183.44857,0.50091
4181.51983,0.50148
4179.59108,0.50182
4177.66234,0.50218
4175.73359,0.50275
4173.80484,0.50324
4171.87610,0.50336
4169.94735,0.50347
4168.01861,0.50421
4166.08986,0.50516
4164.16112,0.50515
4162.23237,0.50427
4160.30363,0.50385
4158.37488,0.50410
4156.44614,0.50420
4154.51739,0.50381
4152.58865,0.50313
4150.65990,0.50239
4148.73116,0.50162
4146.80241,0.50072
4144.87367,0.49957
4142.94492,0.49824
4141.01617,0.49729
4139.08743,0.49692
4137.15868,0.49638
4135.22994,0.49523
4133.30119,0.49384
4131.37245,0.49251
4129.44370,0.49107
4127.51496,0.48937
4125.58621,0.48753
4123.65747,0.48590
4121.72872,0.48465
4119.79998,0.48343
4117.87123,0.48193
4115.94249,0.48028
4114.01374,0.47857
4112.08500,0.47655
4110.15625,0.47427
4108.22750,0.47226
4106.29876,0.47062
4104.37001,0.46897
4102.44127,0.46714
4100.51252,0.46523
4098.58378,0.46332
4096.65503,0.46137
4094.72629,0.45939
4092.79754,0.45740
4090.86880,0.45538
4088.94005,0.45358
4087.01131,0.45196
4085.08256,0.44985
4083.15382,0.44715
4081.22507,0.44442
4079.29632,0.44218
4077.36758,0.44029
4075.43883,0.43822
4073.51009,0.43583
4071.58134,0.43338
4069.65260,0.43125
4067.72385,0.42932
4065.79511,0.42714
4063.86636,0.42484
4061.93762,0.42271
4060.00887,0.42054
4058.08013,0.41831
4056.15138,0.41617
4054.22264,0.41413
4052.29389,0.41202
4050.36515,0.40978
4048.43640,0.40777
4046.50765,0.40604
4044.57891,0.40408
4042.65016,0.40203
4040.72142,0.40036
4038.79267,0.39900
4036.86393,0.39765
4034.93518,0.39627
4033.00644,0.39490
4031.07769,0.39341
4029.14895,0.39189
4027.22020,0.39072
4025.29146,0.39004
4023.36271,0.38982
4021.43397,0.38955
4019.50522,0.38879
4017.57648,0.38798
4015.64773,0.38761
4013.71898,0.38750
4011.79024,0.38744
4009.86149,0.38757
4007.93275,0.38802
4006.00400,0.38859
4004.07526,0.38914
4002.14651,0.38972
4000.21777,0.39019
3998.28902,0.39062
3996.36028,0.39128
3994.43153,0.39215
3992.50279,0.39296
3990.57404,0.39368
3988.64530,0.39455
3986.71655,0.39563
3984.78780,0.39675
3982.85906,0.39769
3980.93031,0.39841
3979.00157,0.39911
3977.07282,0.39992
3975.14408,0.40072
3973.21533,0.40147
3971.28659,0.40226
3969.35784,0.40307
3967.42910,0.40394
3965.50035,0.40504
3963.57161,0.40633
3961.64286,0.40753
3959.71412,0.40848
3957.78537,0.40929
3955.85663,0.41017
3953.92788,0.41120
3951.99913,0.41236
3950.07039,0.41356
3948.14164,0.41467
3946.21290,0.41573
3944.28415,0.41691
3942.35541,0.41818
3940.42666,0.41931
3938.49792,0.42016
3936.56917,0.42093
3934.64043,0.42203
3932.71168,0.42351
3930.78294,0.42481
3928.85419,0.42550
3926.92545,0.42595
3924.99670,0.42679
3923.06795,0.42820
3921.13921,0.42957
3919.21046,0.43068
3917.28172,0.43184
3915.35297,0.43304
3913.42423,0.43402
3911.49548,0.43498
3909.56674,0.43626
3907.63799,0.43782
3905.70925,0.43932
3903.78050,0.44045
3901.85176,0.44127
3899.92301,0.44216
3897.99427,0.44326
3896.06552,0.44431
3894.13678,0.44522
3892.20803,0.44630
3890.27928,0.44756
3888.35054,0.44870
3886.42179,0.45001
3884.49305,0.45128
3882.56430,0.45204
3880.63556,0.45289
3878.70681,0.45400
3876.77807,0.45488
3874.84932,0.45568
3872.92058,0.45662
3870.99183,0.45800
3869.06309,0.45986
3867.13434,0.46142
3865.20560,0.46269
3863.27685,0.46395
3861.34811,0.46506
3859.41936,0.46610
3857.49061,0.46718
3855.56187,0.46866
3853.63312,0.47089
3851.70438,0.47258
3849.77563,0.47323
3847.84689,0.47396
3845.91814,0.47503
3843.98940,0.47607
3842.06065,0.47705
3840.13191,0.47826
3838.20316,0.47961
3836.27442,0.48049
3834.34567,0.48087
3832.41693,0.48125
3830.48818,0.48159
3828.55943,0.48199
3826.63069,0.48263
3824.70194,0.48323
3822.77320,0.48386
3820.84445,0.48446
3818.91571,0.48438
3816.98696,0.48415
3815.05822,0.48421
3813.12947,0.48411
3811.20073,0.48408
3809.27198,0.48441
3807.34324,0.48471
3805.41449,0.48466
3803.48575,0.48469
3801.55700,0.48514
3799.62826,0.48534
3797.69951,0.48506
3795.77076,0.48489
3793.84202,0.48492
3791.91327,0.48490
3789.98453,0.48470
3788.05578,0.48427
3786.12704,0.48381
3784.19829,0.48353
3782.26955,0.48339
3780.34080,0.48326
3778.41206,0.48297
3776.48331,0.48256
3774.55457,0.48205
3772.62582,0.48134
3770.69708,0.48071
3768.76833,0.48048
3766.83959,0.48058
3764.91084,0.48055
3762.98209,0.48011
3761.05335,0.47965
3759.12460,0.47919
3757.19586,0.47842
3755.26711,0.47765
3753.33837,0.47723
3751.40962,0.47703
3749.48088,0.47638
3747.55213,0.47524
3745.62339,0.47435
3743.69464,0.47340
3741.76590,0.47182
3739.83715,0.47035
3737.90841,0.46949
3735.97966,0.46871
3734.05091,0.46725
3732.12217,0.46515
3730.19342,0.46303
3728.26468,0.46111
3726.33593,0.45930
3724.40719,0.45756
3722.47844,0.45569
3720.54970,0.45342
3718.62095,0.45074
3716.69221,0.44802
3714.76346,0.44557
3712.83472,0.44328
3710.90597,0.44037
3708.97723,0.43664
3707.04848,0.43283
3705.11974,0.42928
3703.19099,0.42577
3701.26224,0.42192
3699.33350,0.41754
3697.40475,0.41268
3695.47601,0.40756
3693.54726,0.40253
3691.61852,0.39739
3689.68977,0.39126
3687.76103,0.38364
3685.83228,0.37554
3683.90354,0.36772
3681.97479,0.36008
3680.04605,0.35289
3678.11730,0.34603
3676.18856,0.33778
3674.25981,0.32816
3672.33107,0.31923
3670.40232,0.31001
3668.47357,0.30018
3666.54483,0.29133
3664.61608,0.28296
3662.68734,0.27455
3660.75859,0.26656
3658.82985,0.25905
3656.90110,0.25130
3654.97236,0.24348
3653.04361,0.23664
3651.11487,0.23030
3649.18612,0.22354
3647.25738,0.21661
3645.32863,0.21015
3643.39989,0.20423
3641.47114,0.19869
3639.54239,0.19343
3637.61365,0.18847
3635.68490,0.18379
3633.75616,0.17930
3631.82741,0.17497
3629.89867,0.17036
3627.96992,0.16537
3626.04118,0.16105
3624.11243,0.15737
3622.18369,0.15365
3620.25494,0.14962
3618.32620,0.14545
3616.39745,0.14178
3614.46871,0.13876
3612.53996,0.13592
3610.61122,0.13278
3608.68247,0.12917
3606.75372,0.12541
3604.82498,0.12225
3602.89623,0.11976
3600.96749,0.11712
3599.03874,0.11415
3597.11000,0.11164
3595.18125,0.10964
3593.25251,0.10736
3591.32376,0.10474
3589.39502,0.10223
3587.46627,0.09986
3585.53753,0.09760
3583.60878,0.09554
3581.68004,0.09373
3579.75129,0.09204
3577.82254,0.09038
3575.89380,0.08890
3573.96505,0.08754
3572.03631,0.08624
3570.10756,0.08506
3568.17882,0.08361
3566.25007,0.08180
3564.32133,0.08027
3562.39258,0.07896
3560.46384,0.07760
3558.53509,0.07646
3556.60635,0.07556
3554.67760,0.07471
3552.74886,0.07395
3550.82011,0.07327
3548.89137,0.07243
3546.96262,0.07125
3545.03387,0.06975
3543.10513,0.06838
3541.17638,0.06765
3539.24764,0.06724
3537.31889,0.06652
3535.39015,0.06539
3533.46140,0.06434
3531.53266,0.06377
3529.60391,0.06355
3527.67517,0.06329
3525.74642,0.06280
3523.81768,0.06228
3521.88893,0.06180
3519.96019,0.06095
3518.03144,0.05974
3516.10270,0.05881
3514.17395,0.05832
3512.24520,0.05798
3510.31646,0.05762
3508.38771,0.05715
3506.45897,0.05648
3504.53022,0.05578
3502.60148,0.05527
3500.67273,0.05498
3498.74399,0.05476
3496.81524,0.05433
3494.88650,0.05369
3492.95775,0.05325
3491.02901,0.05309
3489.10026,0.05279
3487.17152,0.05232
3485.24277,0.05187
3483.31402,0.05139
3481.38528,0.05090
3479.45653,0.05044
3477.52779,0.04992
3475.59904,0.04957
3473.67030,0.04948
3471.74155,0.04913
3469.81281,0.04835
3467.88406,0.04771
3465.95532,0.04756
3464.02657,0.04758
3462.09783,0.04748
3460.16908,0.04712
3458.24034,0.04658
3456.31159,0.04632
3454.38285,0.04660
3452.45410,0.04702
3450.52535,0.04706
3448.59661,0.04675
3446.66786,0.04642
3444.73912,0.04623
3442.81037,0.04608
3440.88163,0.04601
3438.95288,0.04625
3437.02414,0.04652
3435.09539,0.04628
3433.16665,0.04579
3431.23790,0.04563
3429.30916,0.04566
3427.38041,0.04558
3425.45167,0.04554
3423.52292,0.04557
3421.59418,0.04548
3419.66543,0.04547
3417.73668,0.04571
3415.80794,0.04579
3413.87919,0.04547
3411.95045,0.04513
3410.02170,0.04503
3408.09296,0.04510
3406.16421,0.04528
3404.23547,0.04560
3402.30672,0.04617
3400.37798,0.04681
3398.44923,0.04709
3396.52049,0.04703
3394.59174,0.04698
3392.66300,0.04688
3390.73425,0.04638
3388.80550,0.04583
3386.87676,0.04571
3384.94801,0.04592
3383.01927,0.04616
3381.09052,0.04641
3379.16178,0.04674
3377.23303,0.04701
3375.30429,0.04692
3373.37554,0.04664
3371.44680,0.04677
3369.51805,0.04720
3367.58931,0.04744
3365.66056,0.04741
3363.73182,0.04735
3361.80307,0.04741
3359.87433,0.04756
3357.94558,0.04768
3356.01683,0.04775
3354.08809,0.04798
3352.15934,0.04829
3350.23060,0.04835
3348.30185,0.04818
3346.37311,0.04808
3344.44436,0.04813
3342.51562,0.04836
3340.58687,0.04876
3338.65813,0.04914
3336.72938,0.04926
3334.80064,0.04927
3332.87189,0.04969
3330.94315,0.05039
3329.01440,0.05082
3327.08566,0.05096
3325.15691,0.05111
3323.22816,0.05135
3321.29942,0.05168
3319.37067,0.05218
3317.44193,0.05262
3315.51318,0.05281
3313.58444,0.05300
3311.65569,0.05347
3309.72695,0.05397
3307.79820,0.05407
3305.86946,0.05390
3303.94071,0.05401
3302.01197,0.05443
3300.08322,0.05486
3298.15448,0.05528
3296.22573,0.05571
3294.29698,0.05609
3292.36824,0.05640
3290.43949,0.05648
3288.51075,0.05647
3286.58200,0.05673
3284.65326,0.05725
3282.72451,0.05775
3280.79577,0.05828
3278.86702,0.05892
3276.93828,0.05954
3275.00953,0.05998
3273.08079,0.06020
3271.15204,0.06039
3269.22330,0.06087
3267.29455,0.06153
3265.36581,0.06208
3263.43706,0.06253
3261.50831,0.06305
3259.57957,0.06377
3257.65082,0.06462
3255.72208,0.06532
3253.79333,0.06575
3251.86459,0.06630
3249.93584,0.06713
3248.00710,0.06772
3246.07835,0.06777
3244.14961,0.06786
3242.22086,0.06855
3240.29212,0.06942
3238.36337,0.07000
3236.43463,0.07053
3234.50588,0.07121
3232.57713,0.07190
3230.64839,0.07266
3228.71964,0.07354
3226.79090,0.07426
3224.86215,0.07481
3222.93341,0.07537
3221.00466,0.07584
3219.07592,0.07611
3217.14717,0.07646
3215.21843,0.07712
3213.28968,0.07798
3211.36094,0.07888
3209.43219,0.07974
3207.50345,0.08057
3205.57470,0.08135
3203.64596,0.08203
3201.71721,0.08258
3199.78846,0.08308
3197.85972,0.08360
3195.93097,0.08410
3194.00223,0.08464
3192.07348,0.08536
3190.14474,0.08619
3188.21599,0.08684
3186.28725,0.08732
3184.35850,0.08799
3182.42976,0.08883
3180.50101,0.08947
3178.57227,0.08986
3176.64352,0.09030
3174.71478,0.09092
3172.78603,0.09157
3170.85729,0.09218
3168.92854,0.09274
3166.99979,0.09340
3165.07105,0.09431
3163.14230,0.09534
3161.21356,0.09631
3159.28481,0.09709
3157.35607,0.09760
3155.42732,0.09797
3153.49858,0.09857
3151.56983,0.09949
3149.64109,0.10032
3147.71234,0.10081
3145.78360,0.10112
3143.85485,0.10147
3141.92611,0.10213
3139.99736,0.10319
3138.06861,0.10437
3136.13987,0.10536
3134.21112,0.10607
3132.28238,0.10666
3130.35363,0.10729
3128.42489,0.10789
3126.49614,0.10863
3124.56740,0.10946
3122.63865,0.10993
3120.70991,0.11028
3118.78116,0.11114
3116.85242,0.11232
3114.92367,0.11313
3112.99493,0.11351
3111.06618,0.11409
3109.13744,0.11508
3107.20869,0.11598
3105.27994,0.11649
3103.35120,0.11683
3101.42245,0.11752
3099.49371,0.11863
3097.56496,0.11962
3095.63622,0.12015
3093.70747,0.12045
3091.77873,0.12082
3089.84998,0.12136
3087.92124,0.12197
3085.99249,0.12265
3084.06375,0.12341
3082.13500,0.12419
3080.20626,0.12500
3078.27751,0.12584
3076.34877,0.12667
3074.42002,0.12744
3072.49127,0.12819
3070.56253,0.12893
3068.63378,0.12962
3066.70504,0.13025
3064.77629,0.13082
3062.84755,0.13144
3060.91880,0.13217
3058.99006,0.13276
3057.06131,0.13319
3055.13257,0.13394
3053.20382,0.13501
3051.27508,0.13584
3049.34633,0.13642
3047.41759,0.13705
3045.48884,0.13772
3043.56009,0.13840
3041.63135,0.13893
3039.70260,0.13928
3037.77386,0.13966
3035.84511,0.13995
3033.91637,0.14015
3031.98762,0.14038
3030.05888,0.14036
3028.13013,0.14012
3026.20139,0.14005
3024.27264,0.14013
3022.34390,0.14012
3020.41515,0.13986
3018.48641,0.13936
3016.55766,0.13882
3014.62892,0.13831
3012.70017,0.13772
3010.77142,0.13699
3008.84268,0.13619
3006.91393,0.13531
3004.98519,0.13450
3003.05644,0.13392
3001.12770,0.13340
2999.19895,0.13272
2997.27021,0.13193
2995.34146,0.13097
2993.41272,0.12969
2991.48397,0.12829
2989.55523,0.12694
2987.62648,0.12553
2985.69774,0.12395
2983.76899,0.12215
2981.84025,0.12025
2979.91150,0.11846
2977.98275,0.11664
2976.05401,0.11464
2974.12526,0.11255
2972.19652,0.11050
2970.26777,0.10848
2968.33903,0.10666
2966.41028,0.10529
2964.48154,0.10423
2962.55279,0.10300
2960.62405,0.10149
2958.69530,0.10004
2956.76656,0.09873
2954.83781,0.09738
2952.90907,0.09581
2950.98032,0.09404
2949.05157,0.09235
2947.12283,0.09093
2945.19408,0.08983
2943.26534,0.08910
2941.33659,0.08867
2939.40785,0.08846
2937.47910,0.08838
2935.55036,0.08835
2933.62161,0.08827
2931.69287,0.08805
2929.76412,0.08785
2927.83538,0.08776
2925.90663,0.08775
2923.97789,0.08787
2922.04914,0.08808
2920.12040,0.08838
2918.19165,0.08898
2916.26290,0.08960
2914.33416,0.08969
2912.40541,0.08916
2910.47667,0.08836
2908.54792,0.08783
2906.61918,0.08775
2904.69043,0.08784
2902.76169,0.08788
2900.83294,0.08791
2898.90420,0.08800
2896.97545,0.08825
2895.04671,0.08861
2893.11796,0.08890
2891.18922,0.08913
2889.26047,0.08941
2887.33172,0.08976
2885.40298,0.09014
2883.47423,0.09052
2881.54549,0.09085
2879.61674,0.09127
2877.68800,0.09187
2875.75925,0.09246
2873.83051,0.09298
2871.90176,0.09360
2869.97302,0.09426
2868.04427,0.09485
2866.11553,0.09548
2864.18678,0.09632
2862.25804,0.09737
2860.32929,0.09842
2858.40055,0.09951
2856.47180,0.10067
2854.54305,0.10175
2852.61431,0.10282
2850.68556,0.10436
2848.75682,0.10658
2846.82807,0.10913
2844.89933,0.11155
2842.97058,0.11369
2841.04184,0.11570
2839.11309,0.11788
2837.18435,0.12021
2835.25560,0.12239
2833.32686,0.12443
2831.39811,0.12665
2829.46937,0.12910
2827.54062,0.13143
2825.61188,0.13351
2823.68313,0.13545
2821.75438,0.13723
2819.82564,0.13899
2817.89689,0.14097
2815.96815,0.14282
2814.03940,0.14430
2812.11066,0.14559
2810.18191,0.14683
2808.25317,0.14811
2806.32442,0.14947
2804.39568,0.15083
2802.46693,0.15211
2800.53819,0.15339
2798.60944,0.15471
2796.68070,0.15594
2794.75195,0.15702
2792.82320,0.15798
2790.89446,0.15869
2788.96571,0.15916
2787.03697,0.15964
2785.10822,0.16036
2783.17948,0.16112
2781.25073,0.16165
2779.32199,0.16219
2777.39324,0.16296
2775.46450,0.16371
2773.53575,0.16422
2771.60701,0.16473
2769.67826,0.16534
2767.74952,0.16577
2765.82077,0.16606
2763.89203,0.16644
2761.96328,0.16688
2760.03453,0.16730
2758.10579,0.16772
2756.17704,0.16817
2754.24830,0.16861
2752.31955,0.16908
2750.39081,0.16952
2748.46206,0.16972
2746.53332,0.16990
2744.60457,0.17024
2742.67583,0.17058
2740.74708,0.17085
2738.81834,0.17108
2736.88959,0.17131
2734.96085,0.17163
2733.03210,0.17206
2731.10336,0.17261
2729.17461,0.17318
2727.24586,0.17363
2725.31712,0.17397
2723.38837,0.17444
2721.45963,0.17514
2719.53088,0.17584
2717.60214,0.17646
2715.67339,0.17716
2713.74465,0.17805
2711.81590,0.17900
2709.88716,0.17985
2707.95841,0.18067
2706.02967,0.18158
2704.10092,0.18253
2702.17218,0.18353
2700.24343,0.18459
2698.31468,0.18561
2696.38594,0.18645
2694.45719,0.18707
2692.52845,0.18760
2690.59970,0.18819
2688.67096,0.18891
2686.74221,0.18980
2684.81347,0.19071
2682.88472,0.19147
2680.95598,0.19231
2679.02723,0.19328
2677.09849,0.19426
2675.16974,0.19522
2673.24100,0.19614
2671.31225,0.19693
2669.38351,0.19765
2667.45476,0.19851
2665.52601,0.19949
2663.59727,0.20031
2661.66852,0.20094
2659.73978,0.20159
2657.81103,0.20230
2655.88229,0.20291
2653.95354,0.20345
2652.02480,0.20411
2650.09605,0.20498
2648.16731,0.20591
2646.23856,0.20680
2644.30982,0.20771
2642.38107,0.20868
2640.45233,0.20957
2638.52358,0.21021
2636.59484,0.21087
2634.66609,0.21178
2632.73734,0.21278
2630.80860,0.21379
2628.87985,0.21474
2626.95111,0.21563
2625.02236,0.21661
2623.09362,0.21758
2621.16487,0.21847
2619.23613,0.21943
2617.30738,0.22034
2615.37864,0.22108
2613.44989,0.22182
2611.52115,0.22263
2609.59240,0.22347
2607.66366,0.22433
2605.73491,0.22520
2603.80616,0.22608
2601.87742,0.22693
2599.94867,0.22761
2598.01993,0.22827
2596.09118,0.22905
2594.16244,0.22990
2592.23369,0.23068
2590.30495,0.23128
2588.37620,0.23180
2586.44746,0.23239
2584.51871,0.23299
2582.58997,0.23357
2580.66122,0.23409
2578.73248,0.23453
2576.80373,0.23499
2574.87499,0.23551
2572.94624,0.23595
2571.01749,0.23620
2569.08875,0.23626
2567.16000,0.23626
2565.23126,0.23649
2563.30251,0.23715
2561.37377,0.23800
2559.44502,0.23860
2557.51628,0.23887
2555.58753,0.23895
2553.65879,0.23899
2551.73004,0.23921
2549.80130,0.23967
2547.87255,0.24020
2545.94381,0.24058
2544.01506,0.24087
2542.08631,0.24124
2540.15757,0.24169
2538.22882,0.24226
2536.30008,0.24298
2534.37133,0.24370
2532.44259,0.24433
2530.51384,0.24489
2528.58510,0.24537
2526.65635,0.24591
2524.72761,0.24657
2522.79886,0.24714
2520.87012,0.24755
2518.94137,0.24807
2517.01263,0.24877
2515.08388,0.24947
2513.15514,0.25020
2511.22639,0.25103
2509.29764,0.25186
2507.36890,0.25276
2505.44015,0.25384
2503.51141,0.25496
2501.58266,0.25595
2499.65392,0.25687
2497.72517,0.25780
2495.79643,0.25875
2493.86768,0.25980
2491.93894,0.26088
2490.01019,0.26184
2488.08145,0.26280
2486.15270,0.26377
2484.22396,0.26458
2482.29521,0.26528
2480.36647,0.26610
2478.43772,0.26711
2476.50897,0.26828
2474.58023,0.26945
2472.65148,0.27042
2470.72274,0.27119
2468.79399,0.27200
2466.86525,0.27290
2464.93650,0.27379
2463.00776,0.27467
2461.07901,0.27559
2459.15027,0.27654
2457.22152,0.27754
2455.29278,0.27850
2453.36403,0.27948
2451.43529,0.28069
2449.50654,0.28204
2447.57779,0.28323
2445.64905,0.28432
2443.72030,0.28546
2441.79156,0.28667
2439.86281,0.28791
2437.93407,0.28906
2436.00532,0.29015
2434.07658,0.29133
2432.14783,0.29265
2430.21909,0.29396
2428.29034,0.29507
2426.36160,0.29618
2424.43285,0.29759
2422.50411,0.29911
2420.57536,0.30052
2418.64662,0.30190
2416.71787,0.30336
2414.78912,0.30477
2412.86038,0.30603
2410.93163,0.30730
2409.00289,0.30872
2407.07414,0.31017
2405.14540,0.31153
2403.21665,0.31281
2401.28791,0.31404
2399.35916,0.31534
2397.43042,0.31665
2395.50167,0.31770
2393.57293,0.31859
2391.64418,0.31962
2389.71544,0.32075
2387.78669,0.32173
2385.85795,0.32258
2383.92920,0.32356
2382.00045,0.32465
2380.07171,0.32564
2378.14296,0.32652
2376.21422,0.32745
2374.28547,0.32845
2372.35673,0.32947
2370.42798,0.33046
2368.49924,0.33134
2366.57049,0.33212
2364.64175,0.33303
2362.71300,0.33403
2360.78426,0.33488
2358.85551,0.33566
2356.92677,0.33662
2354.99802,0.33766
2353.06927,0.33856
2351.14053,0.33942
2349.21178,0.34046
2347.28304,0.34153
2345.35429,0.34252
2343.42555,0.34362
2341.49680,0.34470
2339.56806,0.34539
2337.63931,0.34576
2335.71057,0.34613
2333.78182,0.34668
2331.85308,0.34734
2329.92433,0.34799
2327.99559,0.34861
2326.06684,0.34926
2324.13810,0.34995
2322.20935,0.35050
2320.28060,0.35087
2318.35186,0.35125
2316.42311,0.35168
2314.49437,0.35196
2312.56562,0.35212
2310.63688,0.35228
2308.70813,0.35242
2306.77939,0.35257
2304.85064,0.35268
2302.92190,0.35258
2300.99315,0.35229
2299.06441,0.35196
2297.13566,0.35174
2295.20692,0.35176
2293.27817,0.35182
2291.34943,0.35171
2289.42068,0.35145
2287.49193,0.35122
2285.56319,0.35104
2283.63444,0.35099
2281.70570,0.35103
2279.77695,0.35101
2277.84821,0.35096
2275.91946,0.35098
2273.99072,0.35075
2272.06197,0.35005
2270.13323,0.34931
2268.20448,0.34891
2266.27574,0.34865
2264.34699,0.34824
2262.41825,0.34763
2260.48950,0.34698
2258.56075,0.34653
2256.63201,0.34625
2254.70326,0.34594
2252.77452,0.34558
2250.84577,0.34528
2248.91703,0.34508
2246.98828,0.34485
2245.05954,0.34465
2243.13079,0.34466
2241.20205,0.34476
2239.27330,0.34474
2237.34456,0.34472
2235.41581,0.34474
2233.48707,0.34468
2231.55832,0.34466
2229.62958,0.34478
2227.70083,0.34492
2225.77208,0.34505
2223.84334,0.34530
2221.91459,0.34566
2219.98585,0.34587
2218.05710,0.34579
2216.12836,0.34564
2214.19961,0.34571
2212.27087,0.34583
2210.34212,0.34572
2208.41338,0.34550
2206.48463,0.34524
2204.55589,0.34487
2202.62714,0.34448
2200.69840,0.34412
2198.76965,0.34359
2196.84090,0.34279
2194.91216,0.34178
2192.98341,0.34072
2191.05467,0.33963
2189.12592,0.33855
2187.19718,0.33752
2185.26843,0.33640
2183.33969,0.33505
2181.41094,0.33348
2179.48220,0.33181
2177.55345,0.33013
2175.62471,0.32852
2173.69596,0.32689
2171.76722,0.32528
2169.83847,0.32384
2167.90973,0.32249
2165.98098,0.32118
2164.05223,0.32004
2162.12349,0.31909
2160.19474,0.31822
2158.26600,0.31729
2156.33725,0.31634
2154.40851,0.31549
2152.47976,0.31474
2150.55102,0.31408
2148.62227,0.31365
2146.69353,0.31345
2144.76478,0.31326
2142.83604,0.31291
2140.90729,0.31247
2138.97855,0.31217
2137.04980,0.31209
2135.12106,0.31223
2133.19231,0.31253
2131.26356,0.31290
2129.33482,0.31322
2127.40607,0.31353
2125.47733,0.31391
2123.54858,0.31433
2121.61984,0.31482
2119.69109,0.31553
2117.76235,0.31641
2115.83360,0.31732
2113.90486,0.31817
2111.97611,0.31901
2110.04737,0.32001
2108.11862,0.32112
2106.18988,0.32210
2104.26113,0.32287
2102.33238,0.32355
2100.40364,0.32430
2098.47489,0.32522
2096.54615,0.32627
2094.61740,0.32731
2092.68866,0.32815
2090.75991,0.32876
2088.83117,0.32943
2086.90242,0.33022
2084.97368,0.33089
2083.04493,0.33130
2081.11619,0.33149
2079.18744,0.33155
2077.25870,0.33164
2075.32995,0.33172
2073.40121,0.33163
2071.47246,0.33147
2069.54371,0.33149
2067.61497,0.33166
2065.68622,0.33173
2063.75748,0.33170
2061.82873,0.33169
2059.89999,0.33177
2057.97124,0.33200
2056.04250,0.33234
2054.11375,0.33268
2052.18501,0.33298
2050.25626,0.33338
2048.32752,0.33395
2046.39877,0.33457
2044.47003,0.33522
2042.54128,0.33595
2040.61254,0.33663
2038.68379,0.33735
2036.75504,0.33831
2034.82630,0.33946
2032.89755,0.34068
2030.96881,0.34195
2029.04006,0.34326
2027.11132,0.34457
2025.18257,0.34597
2023.25383,0.34752
2021.32508,0.34912
2019.39634,0.35073
2017.46759,0.35246
2015.53885,0.35415
2013.61010,0.35566
2011.68136,0.35723
2009.75261,0.35900
2007.82386,0.36061
2005.89512,0.36188
2003.96637,0.36299
2002.03763,0.36405
2000.10888,0.36517
1998.18014,0.36643
1996.25139,0.36769
1994.32265,0.36880
1992.39390,0.36988
1990.46516,0.37087
1988.53641,0.37166
1986.60767,0.37231
1984.67892,0.37278
1982.75018,0.37305
1980.82143,0.37336
1978.89269,0.37378
1976.96394,0.37414
1975.03519,0.37442
1973.10645,0.37478
1971.17770,0.37514
1969.24896,0.37532
1967.32021,0.37548
1965.39147,0.37576
1963.46272,0.37604
1961.53398,0.37625
1959.60523,0.37646
1957.67649,0.37667
1955.74774,0.37687
1953.81900,0.37725
1951.89025,0.37795
1949.96151,0.37895
1948.03276,0.37998
1946.10402,0.38093
1944.17527,0.38200
1942.24652,0.38317
1940.31778,0.38419
1938.38903,0.38521
1936.46029,0.38639
1934.53154,0.38751
1932.60280,0.38855
1930.67405,0.38971
1928.74531,0.39094
1926.81656,0.39208
1924.88782,0.39317
1922.95907,0.39428
1921.03033,0.39538
1919.10158,0.39626
1917.17284,0.39671
1915.24409,0.39691
1913.31534,0.39714
1911.38660,0.39751
1909.45785,0.39789
1907.52911,0.39812
1905.60036,0.39820
1903.67162,0.39825
1901.74287,0.39838
1899.81413,0.39846
1897.88538,0.39837
1895.95664,0.39822
1894.02789,0.39804
1892.09915,0.39784
1890.17040,0.39772
1888.24166,0.39776
1886.31291,0.39796
1884.38417,0.39809
1882.45542,0.39791
1880.52667,0.39753
1878.59793,0.39706
1876.66918,0.39651
1874.74044,0.39598
1872.81169,0.39563
1870.88295,0.39537
1868.95420,0.39485
1867.02546,0.39402
1865.09671,0.39313
1863.16797,0.39227
1861.23922,0.39144
1859.31048,0.39052
1857.38173,0.38958
1855.45299,0.38876
1853.52424,0.38794
1851.59549,0.38697
1849.66675,0.38595
1847.73800,0.38496
1845.80926,0.38396
1843.88051,0.38278
1841.95177,0.38131
1840.02302,0.37978
1838.09428,0.37834
1836.16553,0.37690
1834.23679,0.37545
1832.30804,0.37405
1830.37930,0.37259
1828.45055,0.37081
1826.52181,0.36880
1824.59306,0.36661
1822.66432,0.36423
1820.73557,0.36181
1818.80682,0.35938
1816.87808,0.35687
1814.94933,0.35434
1813.02059,0.35179
1811.09184,0.34896
1809.16310,0.34570
1807.23435,0.34218
1805.30561,0.33859
1803.37686,0.33496
1801.44812,0.33112
1799.51937,0.32691
1797.59063,0.32243
1795.66188,0.31792
1793.73314,0.31327
1791.80439,0.30795
1789.87565,0.30213
1787.94690,0.29639
1786.01815,0.29051
1784.08941,0.28414
1782.16066,0.27744
1780.23192,0.27035
1778.30317,0.26274
1776.37443,0.25500
1774.44568,0.24685
1772.51694,0.23699
1770.58819,0.22569
1768.65945,0.21413
1766.73070,0.20258
1764.80196,0.19176
1762.87321,0.18119
1760.94447,0.17050
1759.01572,0.16095
1757.08697,0.15218
1755.15823,0.14385
1753.22948,0.13651
1751.30074,0.12969
1749.37199,0.12300
1747.44325,0.11711
1745.51450,0.11256
1743.58576,0.10931
1741.65701,0.10698
1739.72827,0.10532
1737.79952,0.10448
1735.87078,0.10440
1733.94203,0.10463
1732.01329,0.10495
1730.08454,0.10551
1728.15580,0.10636
1726.22705,0.10754
1724.29830,0.10916
1722.36956,0.11101
1720.44081,0.11291
1718.51207,0.11501
1716.58332,0.11710
1714.65458,0.11894
1712.72583,0.12060
1710.79709,0.12208
1708.86834,0.12353
1706.93960,0.12513
1705.01085,0.12663
1703.08211,0.12796
1701.15336,0.12934
1699.22462,0.13030
1697.29587,0.13060
1695.36713,0.13065
1693.43838,0.13045
1691.50963,0.12998
1689.58089,0.12953
1687.65214,0.12931
1685.72340,0.12896
1683.79465,0.12767
1681.86591,0.12564
1679.93716,0.12356
1678.00842,0.12137
1676.07967,0.11866
1674.15093,0.11530
1672.22218,0.11181
1670.29344,0.10798
1668.36469,0.10337
1666.43595,0.09881
1664.50720,0.09472
1662.57845,0.09090
1660.64971,0.08781
1658.72096,0.08589
1656.79222,0.08513
1654.86347,0.08534
1652.93473,0.08620
1651.00598,0.08713
1649.07724,0.08808
1647.14849,0.08927
1645.21975,0.09035
1643.29100,0.09094
1641.36226,0.09112
1639.43351,0.09102
1637.50477,0.09062
1635.57602,0.08987
1633.64728,0.08890
1631.71853,0.08789
1629.78978,0.08684
1627.86104,0.08569
1625.93229,0.08439
1624.00355,0.08308
1622.07480,0.08207
1620.14606,0.08136
1618.21731,0.08070
1616.28857,0.07990
1614.35982,0.07906
1612.43108,0.07838
1610.50233,0.07785
1608.57359,0.07731
1606.64484,0.07661
1604.71610,0.07586
1602.78735,0.07544
1600.85861,0.07553
1598.92986,0.07580
1597.00111,0.07595
1595.07237,0.07619
1593.14362,0.07684
1591.21488,0.07810
1589.28613,0.07995
1587.35739,0.08226
1585.42864,0.08495
1583.49990,0.08779
1581.57115,0.09064
1579.64241,0.09346
1577.71366,0.09640
1575.78492,0.09954
1573.85617,0.10237
1571.92743,0.10508
1569.99868,0.10809
1568.06993,0.11096
1566.14119,0.11331
1564.21244,0.11550
1562.28370,0.11773
1560.35495,0.12019
1558.42621,0.12259
1556.49746,0.12395
1554.56872,0.12480
1552.63997,0.12570
1550.71123,0.12668
1548.78248,0.12753
1546.85374,0.12818
1544.92499,0.12885
1542.99625,0.12949
1541.06750,0.12960
1539.13876,0.12869
1537.21001,0.12725
1535.28126,0.12553
1533.35252,0.12287
1531.42377,0.11928
1529.49503,0.11521
1527.56628,0.11041
1525.63754,0.10478
1523.70879,0.09860
1521.78005,0.09162
1519.85130,0.08480
1517.92256,0.07975
1515.99381,0.07639
1514.06507,0.07439
1512.13632,0.07344
1510.20758,0.07317
1508.27883,0.07325
1506.35008,0.07330
1504.42134,0.07336
1502.49259,0.07359
1500.56385,0.07404
1498.63510,0.07495
1496.70636,0.07656
1494.77761,0.07849
1492.84887,0.08035
1490.92012,0.08229
1488.99138,0.08408
1487.06263,0.08510
1485.13389,0.08510
1483.20514,0.08411
1481.27640,0.08226
1479.34765,0.07967
1477.41891,0.07639
1475.49016,0.07276
1473.56141,0.06893
1471.63267,0.06502
1469.70392,0.06190
1467.77518,0.05994
1465.84643,0.05888
1463.91769,0.05860
1461.98894,0.05872
1460.06020,0.05886
1458.13145,0.05886
1456.20271,0.05866
1454.27396,0.05848
1452.34522,0.05849
1450.41647,0.05868
1448.48773,0.05911
1446.55898,0.05951
1444.63024,0.05947
1442.70149,0.05897
1440.77274,0.05815
1438.84400,0.05713
1436.91525,0.05586
1434.98651,0.05473
1433.05776,0.05402
1431.12902,0.05345
1429.20027,0.05295
1427.27153,0.05273
1425.34278,0.05307
1423.41404,0.05400
1421.48529,0.05518
1419.55655,0.05646
1417.62780,0.05771
1415.69906,0.05866
1413.77031,0.05934
1411.84156,0.05987
1409.91282,0.06025
1407.98407,0.06046
1406.05533,0.06042
1404.12658,0.06013
1402.19784,0.05962
1400.26909,0.05885
1398.34035,0.05783
1396.41160,0.05675
1394.48286,0.05578
1392.55411,0.05476
1390.62537,0.05355
1388.69662,0.05226
1386.76788,0.05097
1384.83913,0.04965
1382.91039,0.04844
1380.98164,0.04750
1379.05289,0.04678
1377.12415,0.04632
1375.19540,0.04625
1373.26666,0.04644
1371.33791,0.04674
1369.40917,0.04712
1367.48042,0.04758
1365.55168,0.04815
1363.62293,0.04884
1361.69419,0.04952
1359.76544,0.05011
1357.83670,0.05071
1355.90795,0.05141
1353.97921,0.05206
1352.05046,0.05253
1350.12172,0.05276
1348.19297,0.05274
1346.26422,0.05254
1344.33548,0.05218
1342.40673,0.05173
1340.47799,0.05131
1338.54924,0.05098
1336.62050,0.05078
1334.69175,0.05071
1332.76301,0.05073
1330.83426,0.05070
1328.90552,0.05048
1326.97677,0.05020
1325.04803,0.05001
1323.11928,0.04992
1321.19054,0.05003
1319.26179,0.05032
1317.33304,0.05069
1315.40430,0.05112
1313.47555,0.05168
1311.54681,0.05227
1309.61806,0.05281
1307.68932,0.05335
1305.76057,0.05395
1303.83183,0.05459
1301.90308,0.05517
1299.97434,0.05541
1298.04559,0.05519
1296.11685,0.05478
1294.18810,0.05436
1292.25936,0.05384
1290.33061,0.05313
1288.40187,0.05221
1286.47312,0.05112
1284.54437,0.05009
1282.61563,0.04936
1280.68688,0.04887
1278.75814,0.04836
1276.82939,0.04757
1274.90065,0.04651
1272.97190,0.04549
1271.04316,0.04485
1269.11441,0.04460
1267.18567,0.04449
1265.25692,0.04426
1263.32818,0.04405
1261.39943,0.04413
1259.47069,0.04446
1257.54194,0.04482
1255.61320,0.04507
1253.68445,0.04523
1251.75570,0.04549
1249.82696,0.04593
1247.89821,0.04643
1245.96947,0.04701
1244.04072,0.04762
1242.11198,0.04813
1240.18323,0.04863
1238.25449,0.04934
1236.32574,0.05014
1234.39700,0.05082
1232.46825,0.05145
1230.53951,0.05212
1228.61076,0.05280
1226.68202,0.05353
1224.75327,0.05424
1222.82452,0.05483
1220.89578,0.05539
1218.96703,0.05592
1217.03829,0.05608
1215.10954,0.05581
1213.18080,0.05546
1211.25205,0.05529
1209.32331,0.05513
1207.39456,0.05483
1205.46582,0.05450
1203.53707,0.05427
1201.60833,0.05403
1199.67958,0.05387
1197.75084,0.05391
1195.82209,0.05400
1193.89335,0.05383
1191.96460,0.05332
1190.03585,0.05264
1188.10711,0.05176
1186.17836,0.05051
1184.24962,0.04897
1182.32087,0.04752
1180.39213,0.04648
1178.46338,0.04596
1176.53464,0.04565
1174.60589,0.04526
1172.67715,0.04525
1170.74840,0.04598
1168.81966,0.04711
1166.89091,0.04835
1164.96217,0.04959
1163.03342,0.05071
1161.10467,0.05166
1159.17593,0.05239
1157.24718,0.05298
1155.31844,0.05356
1153.38969,0.05400
1151.46095,0.05396
1149.53220,0.05369
1147.60346,0.05372
1145.67471,0.05387
1143.74597,0.05367
1141.81722,0.05303
1139.88848,0.05217
1137.95973,0.05138
1136.03099,0.05088
1134.10224,0.05073
1132.17350,0.05095
1130.24475,0.05146
1128.31600,0.05207
1126.38726,0.05279
1124.45851,0.05373
1122.52977,0.05482
1120.60102,0.05595
1118.67228,0.05712
1116.74353,0.05853
1114.81479,0.06029
1112.88604,0.06210
1110.95730,0.06358
1109.02855,0.06477
1107.09981,0.06602
1105.17106,0.06730
1103.24232,0.06821
1101.31357,0.06883
1099.38483,0.06954
1097.45608,0.07028
1095.52733,0.07074
1093.59859,0.07076
1091.66984,0.07055
1089.74110,0.07046
1087.81235,0.07069
1085.88361,0.07112
1083.95486,0.07133
1082.02612,0.07106
1080.09737,0.07080
1078.16863,0.07116
1076.23988,0.07200
1074.31114,0.07253
1072.38239,0.07237
1070.45365,0.07193
1068.52490,0.07171
1066.59615,0.07198
1064.66741,0.07257
1062.73866,0.07308
1060.80992,0.07377
1058.88117,0.07524
1056.95243,0.07725
1055.02368,0.07905
1053.09494,0.08047
1051.16619,0.08172
1049.23745,0.08290
1047.30870,0.08398
1045.37996,0.08472
1043.45121,0.08518
1041.52247,0.08587
1039.59372,0.08674
1037.66498,0.08737
1035.73623,0.08779
1033.80748,0.08802
1031.87874,0.08798
1029.94999,0.08765
1028.02125,0.08707
1026.09250,0.08626
1024.16376,0.08544
1022.23501,0.08491
1020.30627,0.08459
1018.37752,0.08419
1016.44878,0.08369
1014.52003,0.08315
1012.59129,0.08262
1010.66254,0.08211
1008.73380,0.08171
1006.80505,0.08157
1004.87631,0.08184
1002.94756,0.08244
1001.01881,0.08294
999.09007,0.08298
997.16132,0.08295
995.23258,0.08333
993.30383,0.08413
991.37509,0.08528
989.44634,0.08700
987.51760,0.08929
985.58885,0.09169
983.66011,0.09398
981.73136,0.09632
979.80262,0.09862
977.87387,0.10066
975.94513,0.10240
974.01638,0.10380
972.08763,0.10515
970.15889,0.10689
968.23014,0.10907
966.30140,0.11161
964.37265,0.11444
962.44391,0.11756
960.51516,0.12119
958.58642,0.12516
956.65767,0.12910
954.72893,0.13304
952.80018,0.13699
950.87144,0.14074
948.94269,0.14420
947.01395,0.14728
945.08520,0.15003
943.15646,0.15252
941.22771,0.15459
939.29896,0.15623
937.37022,0.15746
935.44147,0.15835
933.51273,0.15906
931.58398,0.15962
929.65524,0.15992
927.72649,0.16013
925.79775,0.16051
923.86900,0.16076
921.94026,0.16064
920.01151,0.16017
918.08277,0.15910
916.15402,0.15718
914.22528,0.15471
912.29653,0.15238
910.36779,0.15020
908.43904,0.14736
906.51029,0.14358
904.58155,0.13938
902.65280,0.13546
900.72406,0.13254
898.79531,0.13131
896.86657,0.13231
894.93782,0.13551
893.00908,0.14035
891.08033,0.14613
889.15159,0.15226
887.22284,0.15813
885.29410,0.16316
883.36535,0.16707
881.43661,0.16974
879.50786,0.17114
877.57911,0.17197
875.65037,0.17307
873.72162,0.17435
871.79288,0.17524
869.86413,0.17568
867.93539,0.17592
866.00664,0.17583
864.07790,0.17524
862.14915,0.17446
860.22041,0.17383
858.29166,0.17318
856.36292,0.17219
854.43417,0.17055
852.50543,0.16836
850.57668,0.16618
848.64794,0.16420
846.71919,0.16221
844.79044,0.16056
842.86170,0.15957
840.93295,0.15887
839.00421,0.15845
837.07546,0.15898
835.14672,0.16052
833.21797,0.16239
831.28923,0.16401
829.36048,0.16534
827.43174,0.16657
825.50299,0.16756
823.57425,0.16799
821.64550,0.16788
819.71676,0.16762
817.78801,0.16777
815.85926,0.16842
813.93052,0.16913
812.00177,0.16971
810.07303,0.17034
808.14428,0.17091
806.21554,0.17121
804.28679,0.17128
802.35805,0.17119
800.42930,0.17095
798.50056,0.17069
796.57181,0.17048
794.64307,0.17017
792.71432,0.16974
790.78558,0.16914
788.85683,0.16836
786.92809,0.16747
784.99934,0.16638
783.07059,0.16513
781.14185,0.16399
779.21310,0.16280
777.28436,0.16119
775.35561,0.15943
773.42687,0.15803
771.49812,0.15684
769.56938,0.15563
767.64063,0.15438
765.71189,0.15277
763.78314,0.15097
761.85440,0.14955
759.92565,0.14823
757.99691,0.14652
756.06816,0.14468
754.13942,0.14302
752.21067,0.14130
750.28192,0.13941
748.35318,0.13768
746.42443,0.13620
744.49569,0.13495
742.56694,0.13381
740.63820,0.13272
738.70945,0.13172
736.78071,0.13073
734.85196,0.12962
732.92322,0.12838
730.99447,0.12726
729.06573,0.12614
727.13698,0.12472
725.20824,0.12326
723.27949,0.12220
721.35074,0.12156
719.42200,0.12107
717.49325,0.12039
715.56451,0.11962
713.63576,0.11895
711.70702,0.11835
709.77827,0.11793
707.84953,0.11789
705.92078,0.11791
703.99204,0.11733
702.06329,0.11609
700.13455,0.11517
698.20580,0.11504
696.27706,0.11482
694.34831,0.11411
692.41957,0.11340
690.49082,0.11259
688.56207,0.11122
686.63333,0.10962
684.70458,0.10813
682.77584,0.10645
680.84709,0.10467
678.91835,0.10328
676.98960,0.10206
675.06086,0.10079
673.13211,0.10006
671.20337,0.09983
669.27462,0.09974
667.34588,0.10010
665.41713,0.10081
663.48839,0.10167
661.55964,0.10282
659.63090,0.10389
657.70215,0.10452
655.77340,0.10471
653.84466,0.10449
651.91591,0.10395
649.98717,0.10339
648.05842,0.10310
646.12968,0.10311
644.20093,0.10316
642.27219,0.10311
640.34344,0.10307
638.41470,0.10314
636.48595,0.10306
634.55721,0.10266
632.62846,0.10230
630.69972,0.10195
628.77097,0.10153
626.84222,0.10134
624.91348,0.10113
622.98473,0.10084
621.05599,0.10135
619.12724,0.10267
617.19850,0.10382
615.26975,0.10456
613.34101,0.10499
611.41226,0.10483
609.48352,0.10493
607.55477,0.10634
605.62603,0.10862
603.69728,0.11077
601.76854,0.11250
599.83979,0.11355
