7497.03301,0.17859
7495.10426,0.17700
7493.17552,0.17475
7491.24677,0.17211
7489.31803,0.17016
7487.38928,0.17162
7485.46054,0.17439
7483.53179,0.17699
7481.60305,0.17992
7479.67430,0.18059
7477.74556,0.17986
7475.81681,0.18210
7473.88807,0.18554
7471.95932,0.18583
7470.03057,0.18267
7468.10183,0.17945
7466.17308,0.17922
7464.24434,0.18038
7462.31559,0.17974
7460.38685,0.17844
7458.45810,0.17543
7456.52936,0.16954
7454.60061,0.16718
7452.67187,0.16886
7450.74312,0.16884
7448.81438,0.17070
7446.88563,0.17620
7444.95689,0.17887
7443.02814,0.17719
7441.09940,0.17554
7439.17065,0.17837
7437.24190,0.18552
7435.31316,0.18884
7433.38441,0.18369
7431.45567,0.17698
7429.52692,0.17461
7427.59818,0.17590
7425.66943,0.17925
7423.74069,0.18086
7421.81194,0.17760
7419.88320,0.17324
7417.95445,0.17182
7416.02571,0.17169
7414.09696,0.17234
7412.16822,0.17402
7410.23947,0.17400
7408.31073,0.17395
7406.38198,0.17566
7404.45323,0.17356
7402.52449,0.16913
7400.59574,0.17067
7398.66700,0.17428
7396.73825,0.17129
7394.80951,0.16757
7392.88076,0.17185
7390.95202,0.17965
7389.02327,0.18268
7387.09453,0.17883
7385.16578,0.17230
7383.23704,0.17047
7381.30829,0.17337
7379.37955,0.17545
7377.45080,0.17630
7375.52205,0.17581
7373.59331,0.17414
7371.66456,0.17473
7369.73582,0.17591
7367.80707,0.17348
7365.87833,0.17038
7363.94958,0.17091
7362.02084,0.17348
7360.09209,0.17638
7358.16335,0.17835
7356.23460,0.17581
7354.30586,0.17174
7352.37711,0.17326
7350.44837,0.17694
7348.51962,0.17557
7346.59088,0.17154
7344.66213,0.16937
7342.73338,0.16978
7340.80464,0.17400
7338.87589,0.17858
7336.94715,0.17672
7335.01840,0.17053
7333.08966,0.16650
7331.16091,0.16640
7329.23217,0.16877
7327.30342,0.16987
7325.37468,0.16746
7323.44593,0.16608
7321.51719,0.16966
7319.58844,0.17393
7317.65970,0.17526
7315.73095,0.17481
7313.80221,0.17328
7311.87346,0.17105
7309.94471,0.17000
7308.01597,0.17172
7306.08722,0.17523
7304.15848,0.17670
7302.22973,0.17436
7300.30099,0.17223
7298.37224,0.17343
7296.44350,0.17613
7294.51475,0.17819
7292.58601,0.17814
7290.65726,0.17687
7288.72852,0.17535
7286.79977,0.17250
7284.87103,0.17011
7282.94228,0.16986
7281.01353,0.17116
7279.08479,0.17542
7277.15604,0.18084
7275.22730,0.18129
7273.29855,0.17605
7271.36981,0.17120
7269.44106,0.17029
7267.51232,0.17193
7265.58357,0.17412
7263.65483,0.17505
7261.72608,0.17408
7259.79734,0.17383
7257.86859,0.17527
7255.93985,0.17513
7254.01110,0.17448
7252.08236,0.17576
7250.15361,0.17475
7248.22486,0.17122
7246.29612,0.17128
7244.36737,0.17523
7242.43863,0.17824
7240.50988,0.17882
7238.58114,0.17809
7236.65239,0.17600
7234.72365,0.17324
7232.79490,0.17074
7230.86616,0.16866
7228.93741,0.16845
7227.00867,0.17001
7225.07992,0.17059
7223.15118,0.16909
7221.22243,0.16826
7219.29369,0.16991
7217.36494,0.17115
7215.43619,0.17068
7213.50745,0.17105
7211.57870,0.17140
7209.64996,0.16999
7207.72121,0.16932
7205.79247,0.17108
7203.86372,0.17258
7201.93498,0.17147
7200.00623,0.17003
7198.07749,0.17063
7196.14874,0.17193
7194.22000,0.17260
7192.29125,0.17107
7190.36251,0.16709
7188.43376,0.16463
7186.50501,0.16515
7184.57627,0.16601
7182.64752,0.16780
7180.71878,0.17185
7178.79003,0.17535
7176.86129,0.17555
7174.93254,0.17273
7173.00380,0.16871
7171.07505,0.16675
7169.14631,0.16837
7167.21756,0.16993
7165.28882,0.16959
7163.36007,0.16987
7161.43133,0.16985
7159.50258,0.16953
7157.57384,0.17197
7155.64509,0.17434
7153.71634,0.17249
7151.78760,0.17029
7149.85885,0.17215
7147.93011,0.17366
7146.00136,0.17004
7144.07262,0.16544
7142.14387,0.16590
7140.21513,0.17061
7138.28638,0.17421
7136.35764,0.17582
7134.42889,0.17695
7132.50015,0.17656
7130.57140,0.17562
7128.64266,0.17588
7126.71391,0.17620
7124.78516,0.17523
7122.85642,0.17284
7120.92767,0.17071
7118.99893,0.17047
7117.07018,0.17085
7115.14144,0.17113
7113.21269,0.17194
7111.28395,0.17152
7109.35520,0.16984
7107.42646,0.16843
7105.49771,0.16656
7103.56897,0.16480
7101.64022,0.16505
7099.71148,0.16737
7097.78273,0.16983
7095.85399,0.17069
7093.92524,0.16978
7091.99649,0.16713
7090.06775,0.16478
7088.13900,0.16566
7086.21026,0.16837
7084.28151,0.16944
7082.35277,0.16845
7080.42402,0.16675
7078.49528,0.16612
7076.56653,0.16740
7074.63779,0.16839
7072.70904,0.16698
7070.78030,0.16493
7068.85155,0.16463
7066.92281,0.16429
7064.99406,0.16159
7063.06532,0.15922
7061.13657,0.15996
7059.20782,0.16226
7057.27908,0.16397
7055.35033,0.16431
7053.42159,0.16350
7051.49284,0.16228
7049.56410,0.16035
7047.63535,0.15846
7045.70661,0.15919
7043.77786,0.16304
7041.84912,0.16627
7039.92037,0.16475
7037.99163,0.16130
7036.06288,0.16214
7034.13414,0.16549
7032.20539,0.16603
7030.27664,0.16439
7028.34790,0.16429
7026.41915,0.16608
7024.49041,0.16690
7022.56166,0.16584
7020.63292,0.16451
7018.70417,0.16367
7016.77543,0.16321
7014.84668,0.16250
7012.91794,0.16138
7010.98919,0.16108
7009.06045,0.16100
7007.13170,0.15943
7005.20296,0.15783
7003.27421,0.15709
7001.34547,0.15537
6999.41672,0.15356
6997.48797,0.15529
6995.55923,0.15942
6993.63048,0.16102
6991.70174,0.15938
6989.77299,0.15662
6987.84425,0.15408
6985.91550,0.15280
6983.98676,0.15282
6982.05801,0.15483
6980.12927,0.15838
6978.20052,0.16108
6976.27178,0.16276
6974.34303,0.16470
6972.41429,0.16589
6970.48554,0.16391
6968.55680,0.16086
6966.62805,0.16144
6964.69930,0.16337
6962.77056,0.16213
6960.84181,0.15990
6958.91307,0.15999
6956.98432,0.16083
6955.05558,0.16007
6953.12683,0.15756
6951.19809,0.15414
6949.26934,0.15290
6947.34060,0.15550
6945.41185,0.15804
6943.48311,0.15791
6941.55436,0.15678
6939.62562,0.15708
6937.69687,0.15926
6935.76812,0.16102
6933.83938,0.16133
6931.91063,0.16135
6929.98189,0.16112
6928.05314,0.16027
6926.12440,0.15899
6924.19565,0.15788
6922.26691,0.15766
6920.33816,0.15800
6918.40942,0.15682
6916.48067,0.15378
6914.55193,0.15195
6912.62318,0.15272
6910.69444,0.15281
6908.76569,0.15089
6906.83695,0.15139
6904.90820,0.15476
6902.97945,0.15609
6901.05071,0.15701
6899.12196,0.16040
6897.19322,0.16259
6895.26447,0.16212
6893.33573,0.16144
6891.40698,0.16090
6889.47824,0.15936
6887.54949,0.15713
6885.62075,0.15611
6883.69200,0.15665
6881.76326,0.15752
6879.83451,0.15820
6877.90577,0.15765
6875.97702,0.15602
6874.04828,0.15564
6872.11953,0.15563
6870.19078,0.15454
6868.26204,0.15501
6866.33329,0.15692
6864.40455,0.15636
6862.47580,0.15402
6860.54706,0.15396
6858.61831,0.15541
6856.68957,0.15470
6854.76082,0.15338
6852.83208,0.15423
6850.90333,0.15559
6848.97459,0.15666
6847.04584,0.15806
6845.11710,0.15850
6843.18835,0.15738
6841.25960,0.15572
6839.33086,0.15494
6837.40211,0.15526
6835.47337,0.15633
6833.54462,0.15797
6831.61588,0.15861
6829.68713,0.15723
6827.75839,0.15610
6825.82964,0.15751
6823.90090,0.16031
6821.97215,0.16091
6820.04341,0.15702
6818.11466,0.15106
6816.18592,0.14862
6814.25717,0.15115
6812.32843,0.15500
6810.39968,0.15688
6808.47093,0.15722
6806.54219,0.15798
6804.61344,0.15905
6802.68470,0.15938
6800.75595,0.15948
6798.82721,0.15924
6796.89846,0.15812
6794.96972,0.15809
6793.04097,0.15994
6791.11223,0.16075
6789.18348,0.16004
6787.25474,0.15911
6785.32599,0.15804
6783.39725,0.15826
6781.46850,0.16000
6779.53975,0.16035
6777.61101,0.15868
6775.68226,0.15749
6773.75352,0.15729
6771.82477,0.15660
6769.89603,0.15638
6767.96728,0.15707
6766.03854,0.15673
6764.10979,0.15589
6762.18105,0.15696
6760.25230,0.15960
6758.32356,0.16096
6756.39481,0.15967
6754.46607,0.15747
6752.53732,0.15536
6750.60858,0.15379
6748.67983,0.15502
6746.75108,0.15906
6744.82234,0.16218
6742.89359,0.16103
6740.96485,0.15663
6739.03610,0.15311
6737.10736,0.15266
6735.17861,0.15507
6733.24987,0.15849
6731.32112,0.16035
6729.39238,0.16075
6727.46363,0.16072
6725.53489,0.15976
6723.60614,0.15850
6721.67740,0.15783
6719.74865,0.15762
6717.81991,0.15819
6715.89116,0.15760
6713.96241,0.15445
6712.03367,0.15221
6710.10492,0.15281
6708.17618,0.15471
6706.24743,0.15656
6704.31869,0.15677
6702.38994,0.15570
6700.46120,0.15557
6698.53245,0.15712
6696.60371,0.16035
6694.67496,0.16309
6692.74622,0.16266
6690.81747,0.16101
6688.88873,0.16010
6686.95998,0.15920
6685.03123,0.15946
6683.10249,0.16120
6681.17374,0.16142
6679.24500,0.15979
6677.31625,0.15877
6675.38751,0.15795
6673.45876,0.15670
6671.53002,0.15681
6669.60127,0.15759
6667.67253,0.15783
6665.74378,0.15878
6663.81504,0.16025
6661.88629,0.16134
6659.95755,0.16178
6658.02880,0.16090
6656.10006,0.15990
6654.17131,0.15999
6652.24256,0.16048
6650.31382,0.16096
6648.38507,0.16073
6646.45633,0.16006
6644.52758,0.16017
6642.59884,0.15999
6640.67009,0.15878
6638.74135,0.15835
6636.81260,0.15865
6634.88386,0.15798
6632.95511,0.15755
6631.02637,0.15891
6629.09762,0.16027
6627.16888,0.15989
6625.24013,0.15926
6623.31139,0.16036
6621.38264,0.16204
6619.45389,0.16243
6617.52515,0.16201
6615.59640,0.16153
6613.66766,0.16080
6611.73891,0.16013
6609.81017,0.16005
6607.88142,0.16075
6605.95268,0.16190
6604.02393,0.16305
6602.09519,0.16415
6600.16644,0.16419
6598.23770,0.16156
6596.30895,0.15762
6594.38021,0.15552
6592.45146,0.15648
6590.52271,0.15964
6588.59397,0.16229
6586.66522,0.16183
6584.73648,0.16020
6582.80773,0.16034
6580.87899,0.16140
6578.95024,0.16271
6577.02150,0.16377
6575.09275,0.16287
6573.16401,0.16114
6571.23526,0.16026
6569.30652,0.16049
6567.37777,0.16243
6565.44903,0.16520
6563.52028,0.16629
6561.59154,0.16507
6559.66279,0.16404
6557.73404,0.16390
6555.80530,0.16231
6553.87655,0.15963
6551.94781,0.15878
6550.01906,0.16025
6548.09032,0.16218
6546.16157,0.16362
6544.23283,0.16437
6542.30408,0.16430
6540.37534,0.16447
6538.44659,0.16569
6536.51785,0.16630
6534.58910,0.16479
6532.66036,0.16339
6530.73161,0.16464
6528.80287,0.16733
6526.87412,0.16910
6524.94537,0.16856
6523.01663,0.16700
6521.08788,0.16682
6519.15914,0.16589
6517.23039,0.16229
6515.30165,0.16041
6513.37290,0.16263
6511.44416,0.16549
6509.51541,0.16639
6507.58667,0.16589
6505.65792,0.16560
6503.72918,0.16656
6501.80043,0.16747
6499.87169,0.16620
6497.94294,0.16318
6496.01419,0.16078
6494.08545,0.16074
6492.15670,0.16270
6490.22796,0.16492
6488.29921,0.16640
6486.37047,0.16705
6484.44172,0.16724
6482.51298,0.16722
6480.58423,0.16722
6478.65549,0.16798
6476.72674,0.16925
6474.79800,0.16957
6472.86925,0.16879
6470.94051,0.16818
6469.01176,0.16817
6467.08302,0.16750
6465.15427,0.16586
6463.22552,0.16501
6461.29678,0.16555
6459.36803,0.16607
6457.43929,0.16537
6455.51054,0.16246
6453.58180,0.15955
6451.65305,0.16106
6449.72431,0.16521
6447.79556,0.16673
6445.86682,0.16558
6443.93807,0.16474
6442.00933,0.16492
6440.08058,0.16517
6438.15184,0.16547
6436.22309,0.16504
6434.29434,0.16355
6432.36560,0.16370
6430.43685,0.16612
6428.50811,0.16785
6426.57936,0.16779
6424.65062,0.16741
6422.72187,0.16679
6420.79313,0.16530
6418.86438,0.16441
6416.93564,0.16484
6415.00689,0.16552
6413.07815,0.16609
6411.14940,0.16634
6409.22066,0.16654
6407.29191,0.16711
6405.36317,0.16732
6403.43442,0.16693
6401.50567,0.16671
6399.57693,0.16678
6397.64818,0.16654
6395.71944,0.16630
6393.79069,0.16737
6391.86195,0.16880
6389.93320,0.16868
6388.00446,0.16770
6386.07571,0.16697
6384.14697,0.16708
6382.21822,0.16783
6380.28948,0.16818
6378.36073,0.16830
6376.43199,0.16836
6374.50324,0.16775
6372.57450,0.16720
6370.64575,0.16725
6368.71700,0.16686
6366.78826,0.16604
6364.85951,0.16595
6362.93077,0.16581
6361.00202,0.16510
6359.07328,0.16534
6357.14453,0.16601
6355.21579,0.16529
6353.28704,0.16437
6351.35830,0.16513
6349.42955,0.16644
6347.50081,0.16684
6345.57206,0.16778
6343.64332,0.17003
6341.71457,0.17195
6339.78582,0.17278
6337.85708,0.17244
6335.92833,0.17113
6333.99959,0.17052
6332.07084,0.17101
6330.14210,0.17128
6328.21335,0.17107
6326.28461,0.16973
6324.35586,0.16719
6322.42712,0.16609
6320.49837,0.16706
6318.56963,0.16798
6316.64088,0.16745
6314.71214,0.16600
6312.78339,0.16605
6310.85465,0.16846
6308.92590,0.17071
6306.99715,0.17045
6305.06841,0.16912
6303.13966,0.16975
6301.21092,0.17153
6299.28217,0.17146
6297.35343,0.16966
6295.42468,0.16823
6293.49594,0.16757
6291.56719,0.16659
6289.63845,0.16551
6287.70970,0.16616
6285.78096,0.16880
6283.85221,0.17102
6281.92347,0.17076
6279.99472,0.16926
6278.06598,0.16941
6276.13723,0.17081
6274.20848,0.17031
6272.27974,0.16850
6270.35099,0.16836
6268.42225,0.16961
6266.49350,0.17084
6264.56476,0.17202
6262.63601,0.17307
6260.70727,0.17298
6258.77852,0.17204
6256.84978,0.17222
6254.92103,0.17324
6252.99229,0.17320
6251.06354,0.17200
6249.13480,0.17032
6247.20605,0.16860
6245.27730,0.16849
6243.34856,0.17115
6241.41981,0.17424
6239.49107,0.17489
6237.56232,0.17343
6235.63358,0.17213
6233.70483,0.17210
6231.77609,0.17243
6229.84734,0.17244
6227.91860,0.17262
6225.98985,0.17312
6224.06111,0.17310
6222.13236,0.17208
6220.20362,0.17047
6218.27487,0.16961
6216.34613,0.17081
6214.41738,0.17297
6212.48863,0.17466
6210.55989,0.17588
6208.63114,0.17595
6206.70240,0.17443
6204.77365,0.17223
6202.84491,0.17077
6200.91616,0.17132
6198.98742,0.17282
6197.05867,0.17310
6195.12993,0.17274
6193.20118,0.17383
6191.27244,0.17615
6189.34369,0.17709
6187.41495,0.17571
6185.48620,0.17449
6183.55746,0.17486
6181.62871,0.17526
6179.69996,0.17463
6177.77122,0.17340
6175.84247,0.17273
6173.91373,0.17371
6171.98498,0.17620
6170.05624,0.17832
6168.12749,0.17833
6166.19875,0.17750
6164.27000,0.17793
6162.34126,0.17849
6160.41251,0.17702
6158.48377,0.17419
6156.55502,0.17245
6154.62628,0.17317
6152.69753,0.17586
6150.76878,0.17841
6148.84004,0.17941
6146.91129,0.17888
6144.98255,0.17666
6143.05380,0.17410
6141.12506,0.17356
6139.19631,0.17465
6137.26757,0.17516
6135.33882,0.17437
6133.41008,0.17429
6131.48133,0.17640
6129.55259,0.17855
6127.62384,0.17884
6125.69510,0.17833
6123.76635,0.17789
6121.83761,0.17782
6119.90886,0.17790
6117.98011,0.17716
6116.05137,0.17572
6114.12262,0.17483
6112.19388,0.17510
6110.26513,0.17567
6108.33639,0.17580
6106.40764,0.17653
6104.47890,0.17823
6102.55015,0.17920
6100.62141,0.17812
6098.69266,0.17625
6096.76392,0.17606
6094.83517,0.17724
6092.90643,0.17786
6090.97768,0.17807
6089.04893,0.17796
6087.12019,0.17756
6085.19144,0.17818
6083.26270,0.17970
6081.33395,0.18043
6079.40521,0.17992
6077.47646,0.17931
6075.54772,0.17903
6073.61897,0.17889
6071.69023,0.17888
6069.76148,0.17824
6067.83274,0.17749
6065.90399,0.17781
6063.97525,0.17744
6062.04650,0.17543
6060.11776,0.17478
6058.18901,0.17614
6056.26026,0.17672
6054.33152,0.17631
6052.40277,0.17588
6050.47403,0.17531
6048.54528,0.17507
6046.61654,0.17533
6044.68779,0.17551
6042.75905,0.17542
6040.83030,0.17610
6038.90156,0.17760
6036.97281,0.17798
6035.04407,0.17701
6033.11532,0.17597
6031.18658,0.17537
6029.25783,0.17518
6027.32909,0.17456
6025.40034,0.17356
6023.47159,0.17392
6021.54285,0.17566
6019.61410,0.17663
6017.68536,0.17591
6015.75661,0.17434
6013.82787,0.17301
6011.89912,0.17252
6009.97038,0.17266
6008.04163,0.17322
6006.11289,0.17414
6004.18414,0.17456
6002.25540,0.17339
6000.32665,0.17125
5998.39791,0.16996
5996.46916,0.17065
5994.54041,0.17293
5992.61167,0.17480
5990.68292,0.17447
5988.75418,0.17324
5986.82543,0.17332
5984.89669,0.17436
5982.96794,0.17499
5981.03920,0.17461
5979.11045,0.17301
5977.18171,0.17164
5975.25296,0.17187
5973.32422,0.17235
5971.39547,0.17238
5969.46673,0.17310
5967.53798,0.17403
5965.60924,0.17416
5963.68049,0.17407
5961.75174,0.17439
5959.82300,0.17472
5957.89425,0.17436
5955.96551,0.17320
5954.03676,0.17161
5952.10802,0.17071
5950.17927,0.17160
5948.25053,0.17337
5946.32178,0.17421
5944.39304,0.17379
5942.46429,0.17305
5940.53555,0.17271
5938.60680,0.17314
5936.67806,0.17464
5934.74931,0.17620
5932.82057,0.17626
5930.89182,0.17531
5928.96307,0.17456
5927.03433,0.17374
5925.10558,0.17279
5923.17684,0.17260
5921.24809,0.17319
5919.31935,0.17402
5917.39060,0.17480
5915.46186,0.17523
5913.53311,0.17524
5911.60437,0.17486
5909.67562,0.17427
5907.74688,0.17295
5905.81813,0.17107
5903.88939,0.17074
5901.96064,0.17233
5900.03189,0.17393
5898.10315,0.17454
5896.17440,0.17432
5894.24566,0.17378
5892.31691,0.17349
5890.38817,0.17337
5888.45942,0.17332
5886.53068,0.17316
5884.60193,0.17254
5882.67319,0.17186
5880.74444,0.17127
5878.81570,0.17070
5876.88695,0.17093
5874.95821,0.17200
5873.02946,0.17258
5871.10072,0.17213
5869.17197,0.17137
5867.24322,0.17056
5865.31448,0.16974
5863.38573,0.17042
5861.45699,0.17324
5859.52824,0.17543
5857.59950,0.17444
5855.67075,0.17171
5853.74201,0.17009
5851.81326,0.17037
5849.88452,0.17116
5847.95577,0.17095
5846.02703,0.17083
5844.09828,0.17241
5842.16954,0.17420
5840.24079,0.17452
5838.31205,0.17409
5836.38330,0.17391
5834.45455,0.17369
5832.52581,0.17313
5830.59706,0.17300
5828.66832,0.17372
5826.73957,0.17385
5824.81083,0.17238
5822.88208,0.17084
5820.95334,0.17068
5819.02459,0.17133
5817.09585,0.17191
5815.16710,0.17215
5813.23836,0.17193
5811.30961,0.17117
5809.38087,0.17054
5807.45212,0.17091
5805.52337,0.17198
5803.59463,0.17287
5801.66588,0.17317
5799.73714,0.17286
5797.80839,0.17248
5795.87965,0.17282
5793.95090,0.17304
5792.02216,0.17158
5790.09341,0.16956
5788.16467,0.16910
5786.23592,0.17012
5784.30718,0.17079
5782.37843,0.17081
5780.44969,0.17134
5778.52094,0.17188
5776.59220,0.17236
5774.66345,0.17388
5772.73470,0.17541
5770.80596,0.17554
5768.87721,0.17458
5766.94847,0.17327
5765.01972,0.17219
5763.09098,0.17189
5761.16223,0.17249
5759.23349,0.17338
5757.30474,0.17384
5755.37600,0.17384
5753.44725,0.17428
5751.51851,0.17529
5749.58976,0.17561
5747.66102,0.17506
5745.73227,0.17451
5743.80352,0.17496
5741.87478,0.17630
5739.94603,0.17637
5738.01729,0.17512
5736.08854,0.17486
5734.15980,0.17550
5732.23105,0.17548
5730.30231,0.17495
5728.37356,0.17467
5726.44482,0.17421
5724.51607,0.17366
5722.58733,0.17428
5720.65858,0.17577
5718.72984,0.17645
5716.80109,0.17598
5714.87235,0.17522
5712.94360,0.17464
5711.01485,0.17410
5709.08611,0.17363
5707.15736,0.17375
5705.22862,0.17454
5703.29987,0.17502
5701.37113,0.17461
5699.44238,0.17389
5697.51364,0.17401
5695.58489,0.17531
5693.65615,0.17630
5691.72740,0.17580
5689.79866,0.17435
5687.86991,0.17323
5685.94117,0.17329
5684.01242,0.17412
5682.08368,0.17504
5680.15493,0.17592
5678.22618,0.17683
5676.29744,0.17757
5674.36869,0.17721
5672.43995,0.17581
5670.51120,0.17510
5668.58246,0.17545
5666.65371,0.17544
5664.72497,0.17499
5662.79622,0.17481
5660.86748,0.17478
5658.93873,0.17470
5657.00999,0.17501
5655.08124,0.17601
5653.15250,0.17718
5651.22375,0.17733
5649.29500,0.17619
5647.36626,0.17551
5645.43751,0.17613
5643.50877,0.17658
5641.58002,0.17640
5639.65128,0.17654
5637.72253,0.17709
5635.79379,0.17778
5633.86504,0.17815
5631.93630,0.17761
5630.00755,0.17700
5628.07881,0.17745
5626.15006,0.17796
5624.22132,0.17744
5622.29257,0.17676
5620.36383,0.17670
5618.43508,0.17681
5616.50633,0.17713
5614.57759,0.17775
5612.64884,0.17786
5610.72010,0.17727
5608.79135,0.17677
5606.86261,0.17680
5604.93386,0.17703
5603.00512,0.17696
5601.07637,0.17676
5599.14763,0.17682
5597.21888,0.17727
5595.29014,0.17829
5593.36139,0.17956
5591.43265,0.17997
5589.50390,0.17884
5587.57516,0.17761
5585.64641,0.17770
5583.71766,0.17815
5581.78892,0.17831
5579.86017,0.17860
5577.93143,0.17884
5576.00268,0.17863
5574.07394,0.17818
5572.14519,0.17797
5570.21645,0.17807
5568.28770,0.17854
5566.35896,0.17901
5564.43021,0.17866
5562.50147,0.17804
5560.57272,0.17842
5558.64398,0.17958
5556.71523,0.18014
5554.78648,0.17946
5552.85774,0.17862
5550.92899,0.17899
5549.00025,0.18036
5547.07150,0.18116
5545.14276,0.18085
5543.21401,0.17986
5541.28527,0.17855
5539.35652,0.17810
5537.42778,0.17885
5535.49903,0.17941
5533.57029,0.17996
5531.64154,0.18115
5529.71280,0.18168
5527.78405,0.18112
5525.85531,0.18042
5523.92656,0.18006
5521.99781,0.18036
5520.06907,0.18112
5518.14032,0.18146
5516.21158,0.18117
5514.28283,0.18060
5512.35409,0.17997
5510.42534,0.17939
5508.49660,0.17908
5506.56785,0.17940
5504.63911,0.18013
5502.71036,0.18065
5500.78162,0.18070
5498.85287,0.18021
5496.92413,0.17989
5494.99538,0.18043
5493.06664,0.18131
5491.13789,0.18199
5489.20914,0.18247
5487.28040,0.18262
5485.35165,0.18241
5483.42291,0.18176
5481.49416,0.18099
5479.56542,0.18118
5477.63667,0.18211
5475.70793,0.18234
5473.77918,0.18193
5471.85044,0.18186
5469.92169,0.18235
5467.99295,0.18294
5466.06420,0.18288
5464.13546,0.18222
5462.20671,0.18166
5460.27796,0.18131
5458.34922,0.18112
5456.42047,0.18145
5454.49173,0.18209
5452.56298,0.18253
5450.63424,0.18295
5448.70549,0.18338
5446.77675,0.18389
5444.84800,0.18427
5442.91926,0.18385
5440.99051,0.18305
5439.06177,0.18304
5437.13302,0.18388
5435.20428,0.18462
5433.27553,0.18467
5431.34679,0.18443
5429.41804,0.18445
5427.48929,0.18450
5425.56055,0.18405
5423.63180,0.18366
5421.70306,0.18404
5419.77431,0.18441
5417.84557,0.18404
5415.91682,0.18366
5413.98808,0.18402
5412.05933,0.18449
5410.13059,0.18449
5408.20184,0.18464
5406.27310,0.18497
5404.34435,0.18478
5402.41561,0.18403
5400.48686,0.18364
5398.55811,0.18430
5396.62937,0.18518
5394.70062,0.18516
5392.77188,0.18477
5390.84313,0.18488
5388.91439,0.18504
5386.98564,0.18507
5385.05690,0.18570
5383.12815,0.18652
5381.19941,0.18655
5379.27066,0.18595
5377.34192,0.18522
5375.41317,0.18505
5373.48443,0.18558
5371.55568,0.18584
5369.62694,0.18567
5367.69819,0.18538
5365.76944,0.18480
5363.84070,0.18438
5361.91195,0.18458
5359.98321,0.18486
5358.05446,0.18453
5356.12572,0.18390
5354.19697,0.18384
5352.26823,0.18433
5350.33948,0.18462
5348.41074,0.18476
5346.48199,0.18490
5344.55325,0.18472
5342.62450,0.18455
5340.69576,0.18471
5338.76701,0.18478
5336.83827,0.18449
5334.90952,0.18397
5332.98077,0.18366
5331.05203,0.18372
5329.12328,0.18377
5327.19454,0.18355
5325.26579,0.18334
5323.33705,0.18365
5321.40830,0.18419
5319.47956,0.18431
5317.55081,0.18420
5315.62207,0.18375
5313.69332,0.18284
5311.76458,0.18223
5309.83583,0.18170
5307.90709,0.18061
5305.97834,0.17962
5304.04959,0.17931
5302.12085,0.17938
5300.19210,0.17927
5298.26336,0.17874
5296.33461,0.17821
5294.40587,0.17786
5292.47712,0.17728
5290.54838,0.17643
5288.61963,0.17599
5286.69089,0.17586
5284.76214,0.17514
5282.83340,0.17370
5280.90465,0.17192
5278.97591,0.17022
5277.04716,0.16899
5275.11842,0.16825
5273.18967,0.16767
5271.26092,0.16719
5269.33218,0.16709
5267.40343,0.16692
5265.47469,0.16603
5263.54594,0.16476
5261.61720,0.16339
5259.68845,0.16193
5257.75971,0.16073
5255.83096,0.16008
5253.90222,0.15996
5251.97347,0.15971
5250.04473,0.15889
5248.11598,0.15789
5246.18724,0.15720
5244.25849,0.15683
5242.32975,0.15626
5240.40100,0.15535
5238.47225,0.15472
5236.54351,0.15447
5234.61476,0.15406
5232.68602,0.15355
5230.75727,0.15314
5228.82853,0.15268
5226.89978,0.15256
5224.97104,0.15280
5223.04229,0.15260
5221.11355,0.15207
5219.18480,0.15156
5217.25606,0.15071
5215.32731,0.14985
5213.39857,0.14965
5211.46982,0.14963
5209.54107,0.14951
5207.61233,0.14948
5205.68358,0.14918
5203.75484,0.14879
5201.82609,0.14878
5199.89735,0.14894
5197.96860,0.14926
5196.03986,0.14967
5194.11111,0.14949
5192.18237,0.14885
5190.25362,0.14876
5188.32488,0.14919
5186.39613,0.14928
5184.46739,0.14893
5182.53864,0.14855
5180.60990,0.14831
5178.68115,0.14812
5176.75240,0.14812
5174.82366,0.14848
5172.89491,0.14889
5170.96617,0.14895
5169.03742,0.14861
5167.10868,0.14829
5165.17993,0.14829
5163.25119,0.14850
5161.32244,0.14898
5159.39370,0.14960
5157.46495,0.15031
5155.53621,0.15107
5153.60746,0.15151
5151.67872,0.15135
5149.74997,0.15109
5147.82123,0.15112
5145.89248,0.15128
5143.96373,0.15160
5142.03499,0.15224
5140.10624,0.15284
5138.17750,0.15292
5136.24875,0.15265
5134.32001,0.15253
5132.39126,0.15265
5130.46252,0.15283
5128.53377,0.15293
5126.60503,0.15275
5124.67628,0.15261
5122.74754,0.15311
5120.81879,0.15398
5118.89005,0.15458
5116.96130,0.15468
5115.03255,0.15457
5113.10381,0.15459
5111.17506,0.15478
5109.24632,0.15497
5107.31757,0.15510
5105.38883,0.15513
5103.46008,0.15510
5101.53134,0.15530
5099.60259,0.15578
5097.67385,0.15591
5095.74510,0.15558
5093.81636,0.15534
5091.88761,0.15534
5089.95887,0.15581
5088.03012,0.15696
5086.10138,0.15794
5084.17263,0.15813
5082.24388,0.15820
5080.31514,0.15824
5078.38639,0.15791
5076.45765,0.15765
5074.52890,0.15747
5072.60016,0.15737
5070.67141,0.15783
5068.74267,0.15848
5066.81392,0.15857
5064.88518,0.15836
5062.95643,0.15896
5061.02769,0.15996
5059.09894,0.16012
5057.17020,0.15981
5055.24145,0.15996
5053.31270,0.16041
5051.38396,0.16065
5049.45521,0.16053
5047.52647,0.16043
5045.59772,0.16074
5043.66898,0.16134
5041.74023,0.16195
5039.81149,0.16234
5037.88274,0.16225
5035.95400,0.16174
5034.02525,0.16090
5032.09651,0.16035
5030.16776,0.16095
5028.23902,0.16172
5026.31027,0.16185
5024.38153,0.16226
5022.45278,0.16277
5020.52403,0.16231
5018.59529,0.16131
5016.66654,0.16099
5014.73780,0.16160
5012.80905,0.16251
5010.88031,0.16304
5008.95156,0.16280
5007.02282,0.16237
5005.09407,0.16266
5003.16533,0.16325
5001.23658,0.16346
4999.30784,0.16352
4997.37909,0.16368
4995.45035,0.16378
4993.52160,0.16336
4991.59286,0.16270
4989.66411,0.16285
4987.73536,0.16381
4985.80662,0.16430
4983.87787,0.16361
4981.94913,0.16264
4980.02038,0.16248
4978.09164,0.16284
4976.16289,0.16315
4974.23415,0.16336
4972.30540,0.16339
4970.37666,0.16294
4968.44791,0.16211
4966.51917,0.16176
4964.59042,0.16225
4962.66168,0.16247
4960.73293,0.16191
4958.80418,0.16146
4956.87544,0.16150
4954.94669,0.16146
4953.01795,0.16089
4951.08920,0.16039
4949.16046,0.16062
4947.23171,0.16080
4945.30297,0.16014
4943.37422,0.15922
4941.44548,0.15867
4939.51673,0.15837
4937.58799,0.15839
4935.65924,0.15843
4933.73050,0.15798
4931.80175,0.15778
4929.87301,0.15820
4927.94426,0.15849
4926.01551,0.15839
4924.08677,0.15805
4922.15802,0.15763
4920.22928,0.15734
4918.30053,0.15709
4916.37179,0.15649
4914.44304,0.15591
4912.51430,0.15580
4910.58555,0.15532
4908.65681,0.15414
4906.72806,0.15324
4904.79932,0.15317
4902.87057,0.15351
4900.94183,0.15378
4899.01308,0.15379
4897.08434,0.15362
4895.15559,0.15332
4893.22684,0.15288
4891.29810,0.15271
4889.36935,0.15296
4887.44061,0.15295
4885.51186,0.15245
4883.58312,0.15205
4881.65437,0.15210
4879.72563,0.15226
4877.79688,0.15215
4875.86814,0.15178
4873.93939,0.15144
4872.01065,0.15112
4870.08190,0.15082
4868.15316,0.15099
4866.22441,0.15160
4864.29566,0.15187
4862.36692,0.15139
4860.43817,0.15050
4858.50943,0.14970
4856.58068,0.14929
4854.65194,0.14949
4852.72319,0.15001
4850.79445,0.15032
4848.86570,0.15053
4846.93696,0.15098
4845.00821,0.15154
4843.07947,0.15177
4841.15072,0.15138
4839.22198,0.15053
4837.29323,0.14990
4835.36449,0.14985
4833.43574,0.14994
4831.50699,0.14963
4829.57825,0.14915
4827.64950,0.14890
4825.72076,0.14860
4823.79201,0.14812
4821.86327,0.14802
4819.93452,0.14840
4818.00578,0.14873
4816.07703,0.14880
4814.14829,0.14887
4812.21954,0.14914
4810.29080,0.14945
4808.36205,0.14963
4806.43331,0.14952
4804.50456,0.14913
4802.57582,0.14884
4800.64707,0.14874
4798.71832,0.14858
4796.78958,0.14868
4794.86083,0.14896
4792.93209,0.14887
4791.00334,0.14867
4789.07460,0.14888
4787.14585,0.14895
4785.21711,0.14840
4783.28836,0.14782
4781.35962,0.14774
4779.43087,0.14826
4777.50213,0.14879
4775.57338,0.14853
4773.64464,0.14797
4771.71589,0.14793
4769.78714,0.14819
4767.85840,0.14827
4765.92965,0.14812
4764.00091,0.14794
4762.07216,0.14787
4760.14342,0.14776
4758.21467,0.14763
4756.28593,0.14773
4754.35718,0.14810
4752.42844,0.14852
4750.49969,0.14859
4748.57095,0.14837
4746.64220,0.14851
4744.71346,0.14902
4742.78471,0.14945
4740.85597,0.14955
4738.92722,0.14929
4736.99847,0.14896
4735.06973,0.14889
4733.14098,0.14894
4731.21224,0.14872
4729.28349,0.14836
4727.35475,0.14822
4725.42600,0.14836
4723.49726,0.14858
4721.56851,0.14846
4719.63977,0.14791
4717.71102,0.14768
4715.78228,0.14812
4713.85353,0.14874
4711.92479,0.14922
4709.99604,0.14942
4708.06729,0.14929
4706.13855,0.14914
4704.20980,0.14895
4702.28106,0.14861
4700.35231,0.14819
4698.42357,0.14759
4696.49482,0.14705
4694.56608,0.14699
4692.63733,0.14708
4690.70859,0.14710
4688.77984,0.14730
4686.85110,0.14759
4684.92235,0.14767
4682.99361,0.14766
4681.06486,0.14790
4679.13612,0.14834
4677.20737,0.14840
4675.27862,0.14806
4673.34988,0.14808
4671.42113,0.14845
4669.49239,0.14838
4667.56364,0.14795
4665.63490,0.14783
4663.70615,0.14822
4661.77741,0.14881
4659.84866,0.14909
4657.91992,0.14922
4655.99117,0.14966
4654.06243,0.15001
4652.13368,0.14997
4650.20494,0.14995
4648.27619,0.15006
4646.34745,0.15002
4644.41870,0.15006
4642.48995,0.15041
4640.56121,0.15083
4638.63246,0.15128
4636.70372,0.15188
4634.77497,0.15211
4632.84623,0.15164
4630.91748,0.15117
4628.98874,0.15130
4627.05999,0.15157
4625.13125,0.15133
4623.20250,0.15095
4621.27376,0.15129
4619.34501,0.15217
4617.41627,0.15266
4615.48752,0.15274
4613.55877,0.15292
4611.63003,0.15334
4609.70128,0.15385
4607.77254,0.15408
4605.84379,0.15374
4603.91505,0.15312
4601.98630,0.15297
4600.05756,0.15355
4598.12881,0.15422
4596.20007,0.15432
4594.27132,0.15399
4592.34258,0.15391
4590.41383,0.15432
4588.48509,0.15465
4586.55634,0.15451
4584.62760,0.15436
4582.69885,0.15457
4580.77010,0.15496
4578.84136,0.15518
4576.91261,0.15497
4574.98387,0.15473
4573.05512,0.15494
4571.12638,0.15528
4569.19763,0.15521
4567.26889,0.15499
4565.34014,0.15499
4563.41140,0.15506
4561.48265,0.15531
4559.55391,0.15584
4557.62516,0.15625
4555.69642,0.15639
4553.76767,0.15635
4551.83893,0.15623
4549.91018,0.15631
4547.98143,0.15648
4546.05269,0.15644
4544.12394,0.15633
4542.19520,0.15645
4540.26645,0.15672
4538.33771,0.15666
4536.40896,0.15628
4534.48022,0.15626
4532.55147,0.15663
4530.62273,0.15660
4528.69398,0.15627
4526.76524,0.15628
4524.83649,0.15663
4522.90775,0.15710
4520.97900,0.15732
4519.05025,0.15701
4517.12151,0.15660
4515.19276,0.15645
4513.26402,0.15648
4511.33527,0.15675
4509.40653,0.15711
4507.47778,0.15725
4505.54904,0.15733
4503.62029,0.15723
4501.69155,0.15662
4499.76280,0.15595
4497.83406,0.15579
4495.90531,0.15584
4493.97657,0.15568
4492.04782,0.15525
4490.11908,0.15460
4488.19033,0.15415
4486.26158,0.15406
4484.33284,0.15384
4482.40409,0.15328
4480.47535,0.15264
4478.54660,0.15212
4476.61786,0.15177
4474.68911,0.15150
4472.76037,0.15111
4470.83162,0.15039
4468.90288,0.14941
4466.97413,0.14860
4465.04539,0.14811
4463.11664,0.14755
4461.18790,0.14667
4459.25915,0.14577
4457.33041,0.14532
4455.40166,0.14524
4453.47291,0.14457
4451.54417,0.14299
4449.61542,0.14163
4447.68668,0.14124
4445.75793,0.14121
4443.82919,0.14076
4441.90044,0.13993
4439.97170,0.13908
4438.04295,0.13822
4436.11421,0.13738
4434.18546,0.13689
4432.25672,0.13663
4430.32797,0.13629
4428.39923,0.13588
4426.47048,0.13545
4424.54173,0.13512
4422.61299,0.13492
4420.68424,0.13482
4418.75550,0.13493
4416.82675,0.13521
4414.89801,0.13532
4412.96926,0.13506
4411.04052,0.13460
4409.11177,0.13425
4407.18303,0.13401
4405.25428,0.13377
4403.32554,0.13386
4401.39679,0.13428
4399.46805,0.13428
4397.53930,0.13387
4395.61056,0.13384
4393.68181,0.13416
4391.75306,0.13420
4389.82432,0.13396
4387.89557,0.13389
4385.96683,0.13428
4384.03808,0.13472
4382.10934,0.13477
4380.18059,0.13475
4378.25185,0.13474
4376.32310,0.13438
4374.39436,0.13388
4372.46561,0.13351
4370.53687,0.13333
4368.60812,0.13354
4366.67938,0.13393
4364.75063,0.13401
4362.82189,0.13380
4360.89314,0.13358
4358.96439,0.13355
4357.03565,0.13359
4355.10690,0.13351
4353.17816,0.13318
4351.24941,0.13253
4349.32067,0.13178
4347.39192,0.13142
4345.46318,0.13122
4343.53443,0.13082
4341.60569,0.13054
4339.67694,0.13053
4337.74820,0.13045
4335.81945,0.13025
4333.89071,0.13020
4331.96196,0.13033
4330.03321,0.13022
4328.10447,0.12966
4326.17572,0.12921
4324.24698,0.12930
4322.31823,0.12954
4320.38949,0.12959
4318.46074,0.12986
4316.53200,0.13052
4314.60325,0.13101
4312.67451,0.13117
4310.74576,0.13135
4308.81702,0.13161
4306.88827,0.13173
4304.95953,0.13178
4303.03078,0.13188
4301.10204,0.13193
4299.17329,0.13200
4297.24454,0.13202
4295.31580,0.13191
4293.38705,0.13195
4291.45831,0.13230
4289.52956,0.13249
4287.60082,0.13220
4285.67207,0.13200
4283.74333,0.13206
4281.81458,0.13165
4279.88584,0.13077
4277.95709,0.13040
4276.02835,0.13055
4274.09960,0.13046
4272.17086,0.13026
4270.24211,0.13041
4268.31336,0.13069
4266.38462,0.13082
4264.45587,0.13078
4262.52713,0.13045
4260.59838,0.12991
4258.66964,0.12951
4256.74089,0.12933
4254.81215,0.12931
4252.88340,0.12955
4250.95466,0.13009
4249.02591,0.13074
4247.09717,0.13122
4245.16842,0.13138
4243.23968,0.13142
4241.31093,0.13165
4239.38219,0.13210
4237.45344,0.13288
4235.52469,0.13386
4233.59595,0.13426
4231.66720,0.13395
4229.73846,0.13376
4227.80971,0.13399
4225.88097,0.13427
4223.95222,0.13436
4222.02348,0.13434
4220.09473,0.13446
4218.16599,0.13487
4216.23724,0.13534
4214.30850,0.13542
4212.37975,0.13497
4210.45101,0.13436
4208.52226,0.13412
4206.59352,0.13429
4204.66477,0.13433
4202.73602,0.13413
4200.80728,0.13409
4198.87853,0.13425
4196.94979,0.13453
4195.02104,0.13472
4193.09230,0.13464
4191.16355,0.13441
4189.23481,0.13433
4187.30606,0.13454
4185.37732,0.13488
4183.44857,0.13517
4181.51983,0.13533
4179.59108,0.13532
4177.66234,0.13522
4175.73359,0.13513
4173.80484,0.13525
4171.87610,0.13547
4169.94735,0.13522
4168.01861,0.13456
4166.08986,0.13442
4164.16112,0.13500
4162.23237,0.13536
4160.30363,0.13488
4158.37488,0.13407
4156.44614,0.13356
4154.51739,0.13339
4152.58865,0.13345
4150.65990,0.13349
4148.73116,0.13334
4146.80241,0.13308
4144.87367,0.13293
4142.94492,0.13298
4141.01617,0.13309
4139.08743,0.13307
4137.15868,0.13294
4135.22994,0.13272
4133.30119,0.13239
4131.37245,0.13207
4129.44370,0.13200
4127.51496,0.13210
4125.58621,0.13198
4123.65747,0.13158
4121.72872,0.13134
4119.79998,0.13146
4117.87123,0.13145
4115.94249,0.13114
4114.01374,0.13082
4112.08500,0.13045
4110.15625,0.12999
4108.22750,0.12968
4106.29876,0.12948
4104.37001,0.12927
4102.44127,0.12913
4100.51252,0.12906
4098.58378,0.12904
4096.65503,0.12890
4094.72629,0.12833
4092.79754,0.12758
4090.86880,0.12717
4088.94005,0.12709
4087.01131,0.12702
4085.08256,0.12688
4083.15382,0.12661
4081.22507,0.12609
4079.29632,0.12534
4077.36758,0.12473
4075.43883,0.12445
4073.51009,0.12411
4071.58134,0.12359
4069.65260,0.12327
4067.72385,0.12309
4065.79511,0.12280
4063.86636,0.12245
4061.93762,0.12199
4060.00887,0.12141
4058.08013,0.12099
4056.15138,0.12070
4054.22264,0.12028
4052.29389,0.11990
4050.36515,0.11987
4048.43640,0.11995
4046.50765,0.11977
4044.57891,0.11941
4042.65016,0.11914
4040.72142,0.11902
4038.79267,0.11891
4036.86393,0.11875
4034.93518,0.11854
4033.00644,0.11814
4031.07769,0.11780
4029.14895,0.11771
4027.22020,0.11769
4025.29146,0.11774
4023.36271,0.11788
4021.43397,0.11788
4019.50522,0.11766
4017.57648,0.11734
4015.64773,0.11709
4013.71898,0.11706
4011.79024,0.11731
4009.86149,0.11770
4007.93275,0.11788
4006.00400,0.11773
4004.07526,0.11759
4002.14651,0.11772
4000.21777,0.11809
3998.28902,0.11843
3996.36028,0.11851
3994.43153,0.11840
3992.50279,0.11819
3990.57404,0.11805
3988.64530,0.11819
3986.71655,0.11836
3984.78780,0.11825
3982.85906,0.11819
3980.93031,0.11840
3979.00157,0.11884
3977.07282,0.11930
3975.14408,0.11952
3973.21533,0.11962
3971.28659,0.11965
3969.35784,0.11930
3967.42910,0.11897
3965.50035,0.11921
3963.57161,0.11958
3961.64286,0.11975
3959.71412,0.11999
3957.78537,0.12036
3955.85663,0.12063
3953.92788,0.12080
3951.99913,0.12106
3950.07039,0.12152
3948.14164,0.12178
3946.21290,0.12177
3944.28415,0.12202
3942.35541,0.12242
3940.42666,0.12253
3938.49792,0.12262
3936.56917,0.12289
3934.64043,0.12319
3932.71168,0.12353
3930.78294,0.12369
3928.85419,0.12363
3926.92545,0.12369
3924.99670,0.12394
3923.06795,0.12438
3921.13921,0.12498
3919.21046,0.12540
3917.28172,0.12564
3915.35297,0.12607
3913.42423,0.12658
3911.49548,0.12681
3909.56674,0.12682
3907.63799,0.12688
3905.70925,0.12714
3903.78050,0.12748
3901.85176,0.12778
3899.92301,0.12792
3897.99427,0.12784
3896.06552,0.12801
3894.13678,0.12857
3892.20803,0.12901
3890.27928,0.12908
3888.35054,0.12919
3886.42179,0.12935
3884.49305,0.12942
3882.56430,0.12959
3880.63556,0.12983
3878.70681,0.12995
3876.77807,0.12994
3874.84932,0.13003
3872.92058,0.13049
3870.99183,0.13107
3869.06309,0.13130
3867.13434,0.13137
3865.20560,0.13174
3863.27685,0.13229
3861.34811,0.13261
3859.41936,0.13277
3857.49061,0.13307
3855.56187,0.13331
3853.63312,0.13325
3851.70438,0.13340
3849.77563,0.13386
3847.84689,0.13424
3845.91814,0.13443
3843.98940,0.13447
3842.06065,0.13467
3840.13191,0.13510
3838.20316,0.13537
3836.27442,0.13531
3834.34567,0.13505
3832.41693,0.13485
3830.48818,0.13500
3828.55943,0.13531
3826.63069,0.13544
3824.70194,0.13552
3822.77320,0.13577
3820.84445,0.13594
3818.91571,0.13574
3816.98696,0.13540
3815.05822,0.13524
3813.12947,0.13525
3811.20073,0.13536
3809.27198,0.13554
3807.34324,0.13569
3805.41449,0.13582
3803.48575,0.13598
3801.55700,0.13611
3799.62826,0.13609
3797.69951,0.13583
3795.77076,0.13540
3793.84202,0.13517
3791.91327,0.13521
3789.98453,0.13532
3788.05578,0.13548
3786.12704,0.13558
3784.19829,0.13542
3782.26955,0.13499
3780.34080,0.13448
3778.41206,0.13419
3776.48331,0.13411
3774.55457,0.13410
3772.62582,0.13407
3770.69708,0.13381
3768.76833,0.13336
3766.83959,0.13315
3764.91084,0.13317
3762.98209,0.13300
3761.05335,0.13255
3759.12460,0.13216
3757.19586,0.13206
3755.26711,0.13194
3753.33837,0.13165
3751.40962,0.13147
3749.48088,0.13139
3747.55213,0.13116
3745.62339,0.13081
3743.69464,0.13039
3741.76590,0.13009
3739.83715,0.12986
3737.90841,0.12931
3735.97966,0.12859
3734.05091,0.12823
3732.12217,0.12795
3730.19342,0.12756
3728.26468,0.12722
3726.33593,0.12693
3724.40719,0.12674
3722.47844,0.12632
3720.54970,0.12535
3718.62095,0.12426
3716.69221,0.12351
3714.76346,0.12285
3712.83472,0.12209
3710.90597,0.12135
3708.97723,0.12047
3707.04848,0.11950
3705.11974,0.11865
3703.19099,0.11763
3701.26224,0.11633
3699.33350,0.11524
3697.40475,0.11428
3695.47601,0.11318
3693.54726,0.11212
3691.61852,0.11094
3689.68977,0.10900
3687.76103,0.10649
3685.83228,0.10444
3683.90354,0.10282
3681.97479,0.10067
3680.04605,0.09681
3678.11730,0.09164
3676.18856,0.08824
3674.25981,0.08868
3672.33107,0.09007
3670.40232,0.08986
3668.47357,0.08832
3666.54483,0.08668
3664.61608,0.08525
3662.68734,0.08388
3660.75859,0.08272
3658.82985,0.08186
3656.90110,0.08080
3654.97236,0.07949
3653.04361,0.07852
3651.11487,0.07767
3649.18612,0.07645
3647.25738,0.07526
3645.32863,0.07455
3643.39989,0.07401
3641.47114,0.07318
3639.54239,0.07206
3637.61365,0.07106
3635.68490,0.07038
3633.75616,0.06977
3631.82741,0.06924
3629.89867,0.06877
3627.96992,0.06812
3626.04118,0.06750
3624.11243,0.06694
3622.18369,0.06624
3620.25494,0.06542
3618.32620,0.06468
3616.39745,0.06437
3614.46871,0.06440
3612.53996,0.06410
3610.61122,0.06347
3608.68247,0.06294
3606.75372,0.06244
3604.82498,0.06190
3602.89623,0.06144
3600.96749,0.06108
3599.03874,0.06087
3597.11000,0.06068
3595.18125,0.06030
3593.25251,0.05973
3591.32376,0.05919
3589.39502,0.05902
3587.46627,0.05913
3585.53753,0.05902
3583.60878,0.05842
3581.68004,0.05774
3579.75129,0.05729
3577.82254,0.05692
3575.89380,0.05661
3573.96505,0.05658
3572.03631,0.05664
3570.10756,0.05641
3568.17882,0.05598
3566.25007,0.05552
3564.32133,0.05518
3562.39258,0.05511
3560.46384,0.05512
3558.53509,0.05491
3556.60635,0.05459
3554.67760,0.05448
3552.74886,0.05449
3550.82011,0.05445
3548.89137,0.05443
3546.96262,0.05428
3545.03387,0.05373
3543.10513,0.05315
3541.17638,0.05313
3539.24764,0.05331
3537.31889,0.05316
3535.39015,0.05297
3533.46140,0.05299
3531.53266,0.05288
3529.60391,0.05255
3527.67517,0.05253
3525.74642,0.05287
3523.81768,0.05299
3521.88893,0.05280
3519.96019,0.05273
3518.03144,0.05266
3516.10270,0.05237
3514.17395,0.05210
3512.24520,0.05204
3510.31646,0.05217
3508.38771,0.05226
3506.45897,0.05214
3504.53022,0.05194
3502.60148,0.05183
3500.67273,0.05185
3498.74399,0.05189
3496.81524,0.05177
3494.88650,0.05156
3492.95775,0.05146
3491.02901,0.05149
3489.10026,0.05151
3487.17152,0.05150
3485.24277,0.05147
3483.31402,0.05144
3481.38528,0.05151
3479.45653,0.05153
3477.52779,0.05142
3475.59904,0.05152
3473.67030,0.05188
3471.74155,0.05214
3469.81281,0.05220
3467.88406,0.05210
3465.95532,0.05196
3464.02657,0.05171
3462.09783,0.05119
3460.16908,0.05085
3458.24034,0.05128
3456.31159,0.05197
3454.38285,0.05202
3452.45410,0.05167
3450.52535,0.05154
3448.59661,0.05147
3446.66786,0.05137
3444.73912,0.05145
3442.81037,0.05152
3440.88163,0.05145
3438.95288,0.05146
3437.02414,0.05155
3435.09539,0.05154
3433.16665,0.05161
3431.23790,0.05180
3429.30916,0.05168
3427.38041,0.05127
3425.45167,0.05115
3423.52292,0.05149
3421.59418,0.05178
3419.66543,0.05156
3417.73668,0.05119
3415.80794,0.05113
3413.87919,0.05116
3411.95045,0.05115
3410.02170,0.05127
3408.09296,0.05131
3406.16421,0.05112
3404.23547,0.05119
3402.30672,0.05169
3400.37798,0.05205
3398.44923,0.05187
3396.52049,0.05150
3394.59174,0.05133
3392.66300,0.05144
3390.73425,0.05163
3388.80550,0.05159
3386.87676,0.05143
3384.94801,0.05151
3383.01927,0.05166
3381.09052,0.05159
3379.16178,0.05145
3377.23303,0.05140
3375.30429,0.05149
3373.37554,0.05177
3371.44680,0.05218
3369.51805,0.05256
3367.58931,0.05261
3365.66056,0.05217
3363.73182,0.05167
3361.80307,0.05147
3359.87433,0.05140
3357.94558,0.05136
3356.01683,0.05145
3354.08809,0.05163
3352.15934,0.05164
3350.23060,0.05148
3348.30185,0.05148
3346.37311,0.05167
3344.44436,0.05199
3342.51562,0.05243
3340.58687,0.05264
3338.65813,0.05255
3336.72938,0.05245
3334.80064,0.05238
3332.87189,0.05224
3330.94315,0.05202
3329.01440,0.05206
3327.08566,0.05243
3325.15691,0.05267
3323.22816,0.05264
3321.29942,0.05245
3319.37067,0.05220
3317.44193,0.05207
3315.51318,0.05208
3313.58444,0.05221
3311.65569,0.05243
3309.72695,0.05262
3307.79820,0.05276
3305.86946,0.05286
3303.94071,0.05282
3302.01197,0.05256
3300.08322,0.05219
3298.15448,0.05218
3296.22573,0.05251
3294.29698,0.05264
3292.36824,0.05260
3290.43949,0.05284
3288.51075,0.05307
3286.58200,0.05287
3284.65326,0.05261
3282.72451,0.05271
3280.79577,0.05298
3278.86702,0.05324
3276.93828,0.05355
3275.00953,0.05358
3273.08079,0.05322
3271.15204,0.05289
3269.22330,0.05282
3267.29455,0.05308
3265.36581,0.05366
3263.43706,0.05417
3261.50831,0.05423
3259.57957,0.05413
3257.65082,0.05419
3255.72208,0.05418
3253.79333,0.05402
3251.86459,0.05400
3249.93584,0.05417
3248.00710,0.05428
3246.07835,0.05423
3244.14961,0.05421
3242.22086,0.05437
3240.29212,0.05470
3238.36337,0.05497
3236.43463,0.05504
3234.50588,0.05501
3232.57713,0.05488
3230.64839,0.05478
3228.71964,0.05503
3226.79090,0.05548
3224.86215,0.05571
3222.93341,0.05561
3221.00466,0.05554
3219.07592,0.05573
3217.14717,0.05592
3215.21843,0.05599
3213.28968,0.05609
3211.36094,0.05607
3209.43219,0.05588
3207.50345,0.05587
3205.57470,0.05607
3203.64596,0.05619
3201.71721,0.05623
3199.78846,0.05621
3197.85972,0.05617
3195.93097,0.05622
3194.00223,0.05636
3192.07348,0.05648
3190.14474,0.05665
3188.21599,0.05695
3186.28725,0.05713
3184.35850,0.05709
3182.42976,0.05718
3180.50101,0.05740
3178.57227,0.05736
3176.64352,0.05718
3174.71478,0.05717
3172.78603,0.05736
3170.85729,0.05772
3168.92854,0.05801
3166.99979,0.05790
3165.07105,0.05765
3163.14230,0.05778
3161.21356,0.05809
3159.28481,0.05827
3157.35607,0.05846
3155.42732,0.05863
3153.49858,0.05850
3151.56983,0.05824
3149.64109,0.05837
3147.71234,0.05880
3145.78360,0.05908
3143.85485,0.05908
3141.92611,0.05900
3139.99736,0.05895
3138.06861,0.05894
3136.13987,0.05907
3134.21112,0.05935
3132.28238,0.05966
3130.35363,0.05992
3128.42489,0.05999
3126.49614,0.05996
3124.56740,0.06005
3122.63865,0.06006
3120.70991,0.05996
3118.78116,0.06001
3116.85242,0.06024
3114.92367,0.06037
3112.99493,0.06024
3111.06618,0.06018
3109.13744,0.06036
3107.20869,0.06048
3105.27994,0.06036
3103.35120,0.06022
3101.42245,0.06038
3099.49371,0.06073
3097.56496,0.06091
3095.63622,0.06080
3093.70747,0.06058
3091.77873,0.06053
3089.84998,0.06071
3087.92124,0.06085
3085.99249,0.06076
3084.06375,0.06054
3082.13500,0.06049
3080.20626,0.06062
3078.27751,0.06065
3076.34877,0.06060
3074.42002,0.06066
3072.49127,0.06083
3070.56253,0.06089
3068.63378,0.06080
3066.70504,0.06078
3064.77629,0.06100
3062.84755,0.06134
3060.91880,0.06144
3058.99006,0.06129
3057.06131,0.06122
3055.13257,0.06126
3053.20382,0.06128
3051.27508,0.06138
3049.34633,0.06166
3047.41759,0.06185
3045.48884,0.06184
3043.56009,0.06181
3041.63135,0.06181
3039.70260,0.06182
3037.77386,0.06186
3035.84511,0.06178
3033.91637,0.06149
3031.98762,0.06108
3030.05888,0.06086
3028.13013,0.06105
3026.20139,0.06139
3024.27264,0.06146
3022.34390,0.06111
3020.41515,0.06065
3018.48641,0.06030
3016.55766,0.06007
3014.62892,0.05994
3012.70017,0.05982
3010.77142,0.05952
3008.84268,0.05912
3006.91393,0.05883
3004.98519,0.05859
3003.05644,0.05838
3001.12770,0.05839
2999.19895,0.05843
2997.27021,0.05818
2995.34146,0.05795
2993.41272,0.05797
2991.48397,0.05782
2989.55523,0.05728
2987.62648,0.05662
2985.69774,0.05604
2983.76899,0.05558
2981.84025,0.05531
2979.91150,0.05511
2977.98275,0.05476
2976.05401,0.05430
2974.12526,0.05399
2972.19652,0.05388
2970.26777,0.05366
2968.33903,0.05332
2966.41028,0.05307
2964.48154,0.05299
2962.55279,0.05301
2960.62405,0.05307
2958.69530,0.05302
2956.76656,0.05282
2954.83781,0.05263
2952.90907,0.05259
2950.98032,0.05253
2949.05157,0.05232
2947.12283,0.05201
2945.19408,0.05157
2943.26534,0.05107
2941.33659,0.05089
2939.40785,0.05110
2937.47910,0.05136
2935.55036,0.05160
2933.62161,0.05193
2931.69287,0.05236
2929.76412,0.05285
2927.83538,0.05327
2925.90663,0.05369
2923.97789,0.05435
2922.04914,0.05512
2920.12040,0.05564
2918.19165,0.05574
2916.26290,0.05559
2914.33416,0.05542
2912.40541,0.05545
2910.47667,0.05560
2908.54792,0.05558
2906.61918,0.05549
2904.69043,0.05555
2902.76169,0.05569
2900.83294,0.05584
2898.90420,0.05596
2896.97545,0.05601
2895.04671,0.05600
2893.11796,0.05614
2891.18922,0.05644
2889.26047,0.05662
2887.33172,0.05653
2885.40298,0.05627
2883.47423,0.05600
2881.54549,0.05584
2879.61674,0.05574
2877.68800,0.05565
2875.75925,0.05563
2873.83051,0.05572
2871.90176,0.05585
2869.97302,0.05592
2868.04427,0.05597
2866.11553,0.05599
2864.18678,0.05606
2862.25804,0.05624
2860.32929,0.05634
2858.40055,0.05630
2856.47180,0.05636
2854.54305,0.05666
2852.61431,0.05712
2850.68556,0.05767
2848.75682,0.05825
2846.82807,0.05886
2844.89933,0.05941
2842.97058,0.05984
2841.04184,0.06025
2839.11309,0.06078
2837.18435,0.06146
2835.25560,0.06210
2833.32686,0.06245
2831.39811,0.06273
2829.46937,0.06330
2827.54062,0.06411
2825.61188,0.06480
2823.68313,0.06521
2821.75438,0.06545
2819.82564,0.06571
2817.89689,0.06615
2815.96815,0.06673
2814.03940,0.06720
2812.11066,0.06750
2810.18191,0.06765
2808.25317,0.06766
2806.32442,0.06778
2804.39568,0.06812
2802.46693,0.06856
2800.53819,0.06904
2798.60944,0.06939
2796.68070,0.06954
2794.75195,0.06963
2792.82320,0.06971
2790.89446,0.06982
2788.96571,0.06997
2787.03697,0.07012
2785.10822,0.07039
2783.17948,0.07070
2781.25073,0.07094
2779.32199,0.07118
2777.39324,0.07145
2775.46450,0.07168
2773.53575,0.07182
2771.60701,0.07185
2769.67826,0.07174
2767.74952,0.07163
2765.82077,0.07181
2763.89203,0.07226
2761.96328,0.07262
2760.03453,0.07272
2758.10579,0.07270
2756.17704,0.07278
2754.24830,0.07307
2752.31955,0.07326
2750.39081,0.07317
2748.46206,0.07311
2746.53332,0.07318
2744.60457,0.07316
2742.67583,0.07303
2740.74708,0.07298
2738.81834,0.07309
2736.88959,0.07320
2734.96085,0.07329
2733.03210,0.07343
2731.10336,0.07354
2729.17461,0.07366
2727.24586,0.07393
2725.31712,0.07424
2723.38837,0.07442
2721.45963,0.07454
2719.53088,0.07470
2717.60214,0.07489
2715.67339,0.07503
2713.74465,0.07503
2711.81590,0.07506
2709.88716,0.07533
2707.95841,0.07574
2706.02967,0.07602
2704.10092,0.07613
2702.17218,0.07626
2700.24343,0.07650
2698.31468,0.07659
2696.38594,0.07647
2694.45719,0.07651
2692.52845,0.07687
2690.59970,0.07726
2688.67096,0.07746
2686.74221,0.07755
2684.81347,0.07756
2682.88472,0.07751
2680.95598,0.07758
2679.02723,0.07773
2677.09849,0.07783
2675.16974,0.07798
2673.24100,0.07825
2671.31225,0.07850
2669.38351,0.07855
2667.45476,0.07845
2665.52601,0.07853
2663.59727,0.07873
2661.66852,0.07877
2659.73978,0.07866
2657.81103,0.07866
2655.88229,0.07878
2653.95354,0.07880
2652.02480,0.07875
2650.09605,0.07880
2648.16731,0.07896
2646.23856,0.07919
2644.30982,0.07943
2642.38107,0.07966
2640.45233,0.07998
2638.52358,0.08031
2636.59484,0.08044
2634.66609,0.08049
2632.73734,0.08060
2630.80860,0.08080
2628.87985,0.08120
2626.95111,0.08166
2625.02236,0.08185
2623.09362,0.08185
2621.16487,0.08194
2619.23613,0.08205
2617.30738,0.08202
2615.37864,0.08197
2613.44989,0.08205
2611.52115,0.08223
2609.59240,0.08241
2607.66366,0.08272
2605.73491,0.08320
2603.80616,0.08350
2601.87742,0.08342
2599.94867,0.08334
2598.01993,0.08349
2596.09118,0.08365
2594.16244,0.08374
2592.23369,0.08391
2590.30495,0.08432
2588.37620,0.08474
2586.44746,0.08473
2584.51871,0.08435
2582.58997,0.08411
2580.66122,0.08420
2578.73248,0.08435
2576.80373,0.08432
2574.87499,0.08412
2572.94624,0.08389
2571.01749,0.08366
2569.08875,0.08342
2567.16000,0.08326
2565.23126,0.08326
2563.30251,0.08323
2561.37377,0.08291
2559.44502,0.08258
2557.51628,0.08258
2555.58753,0.08283
2553.65879,0.08307
2551.73004,0.08314
2549.80130,0.08316
2547.87255,0.08328
2545.94381,0.08350
2544.01506,0.08390
2542.08631,0.08451
2540.15757,0.08509
2538.22882,0.08557
2536.30008,0.08600
2534.37133,0.08646
2532.44259,0.08686
2530.51384,0.08712
2528.58510,0.08737
2526.65635,0.08780
2524.72761,0.08824
2522.79886,0.08841
2520.87012,0.08843
2518.94137,0.08853
2517.01263,0.08876
2515.08388,0.08917
2513.15514,0.08974
2511.22639,0.09015
2509.29764,0.09034
2507.36890,0.09060
2505.44015,0.09092
2503.51141,0.09114
2501.58266,0.09128
2499.65392,0.09143
2497.72517,0.09161
2495.79643,0.09194
2493.86768,0.09241
2491.93894,0.09278
2490.01019,0.09304
2488.08145,0.09334
2486.15270,0.09367
2484.22396,0.09394
2482.29521,0.09420
2480.36647,0.09451
2478.43772,0.09490
2476.50897,0.09528
2474.58023,0.09552
2472.65148,0.09565
2470.72274,0.09582
2468.79399,0.09598
2466.86525,0.09605
2464.93650,0.09616
2463.00776,0.09633
2461.07901,0.09655
2459.15027,0.09683
2457.22152,0.09700
2455.29278,0.09704
2453.36403,0.09709
2451.43529,0.09724
2449.50654,0.09751
2447.57779,0.09789
2445.64905,0.09814
2443.72030,0.09807
2441.79156,0.09797
2439.86281,0.09813
2437.93407,0.09840
2436.00532,0.09855
2434.07658,0.09868
2432.14783,0.09898
2430.21909,0.09936
2428.29034,0.09950
2426.36160,0.09957
2424.43285,0.09986
2422.50411,0.10021
2420.57536,0.10044
2418.64662,0.10064
2416.71787,0.10086
2414.78912,0.10105
2412.86038,0.10119
2410.93163,0.10130
2409.00289,0.10153
2407.07414,0.10187
2405.14540,0.10217
2403.21665,0.10251
2401.28791,0.10287
2399.35916,0.10301
2397.43042,0.10296
2395.50167,0.10299
2393.57293,0.10320
2391.64418,0.10348
2389.71544,0.10367
2387.78669,0.10370
2385.85795,0.10364
2383.92920,0.10370
2382.00045,0.10403
2380.07171,0.10447
2378.14296,0.10482
2376.21422,0.10498
2374.28547,0.10500
2372.35673,0.10509
2370.42798,0.10542
2368.49924,0.10568
2366.57049,0.10572
2364.64175,0.10583
2362.71300,0.10604
2360.78426,0.10622
2358.85551,0.10632
2356.92677,0.10639
2354.99802,0.10662
2353.06927,0.10702
2351.14053,0.10738
2349.21178,0.10761
2347.28304,0.10769
2345.35429,0.10778
2343.42555,0.10785
2341.49680,0.10776
2339.56806,0.10760
2337.63931,0.10745
2335.71057,0.10740
2333.78182,0.10764
2331.85308,0.10786
2329.92433,0.10782
2327.99559,0.10792
2326.06684,0.10838
2324.13810,0.10883
2322.20935,0.10905
2320.28060,0.10900
2318.35186,0.10881
2316.42311,0.10880
2314.49437,0.10897
2312.56562,0.10905
2310.63688,0.10904
2308.70813,0.10911
2306.77939,0.10918
2304.85064,0.10906
2302.92190,0.10884
2300.99315,0.10873
2299.06441,0.10876
2297.13566,0.10879
2295.20692,0.10868
2293.27817,0.10857
2291.34943,0.10853
2289.42068,0.10847
2287.49193,0.10846
2285.56319,0.10854
2283.63444,0.10861
2281.70570,0.10859
2279.77695,0.10856
2277.84821,0.10861
2275.91946,0.10858
2273.99072,0.10841
2272.06197,0.10822
2270.13323,0.10806
2268.20448,0.10785
2266.27574,0.10754
2264.34699,0.10727
2262.41825,0.10709
2260.48950,0.10688
2258.56075,0.10657
2256.63201,0.10630
2254.70326,0.10613
2252.77452,0.10602
2250.84577,0.10593
2248.91703,0.10580
2246.98828,0.10564
2245.05954,0.10554
2243.13079,0.10548
2241.20205,0.10542
2239.27330,0.10540
2237.34456,0.10536
2235.41581,0.10524
2233.48707,0.10505
2231.55832,0.10493
2229.62958,0.10495
2227.70083,0.10497
2225.77208,0.10496
2223.84334,0.10496
2221.91459,0.10493
2219.98585,0.10485
2218.05710,0.10483
2216.12836,0.10487
2214.19961,0.10476
2212.27087,0.10458
2210.34212,0.10455
2208.41338,0.10466
2206.48463,0.10467
2204.55589,0.10437
2202.62714,0.10382
2200.69840,0.10333
2198.76965,0.10310
2196.84090,0.10310
2194.91216,0.10299
2192.98341,0.10270
2191.05467,0.10243
2189.12592,0.10224
2187.19718,0.10203
2185.26843,0.10180
2183.33969,0.10154
2181.41094,0.10112
2179.48220,0.10058
2177.55345,0.10018
2175.62471,0.09996
2173.69596,0.09968
2171.76722,0.09934
2169.83847,0.09901
2167.90973,0.09856
2165.98098,0.09810
2164.05223,0.09775
2162.12349,0.09742
2160.19474,0.09704
2158.26600,0.09672
2156.33725,0.09651
2154.40851,0.09629
2152.47976,0.09601
2150.55102,0.09575
2148.62227,0.09555
2146.69353,0.09537
2144.76478,0.09516
2142.83604,0.09503
2140.90729,0.09507
2138.97855,0.09518
2137.04980,0.09526
2135.12106,0.09520
2133.19231,0.09514
2131.26356,0.09521
2129.33482,0.09523
2127.40607,0.09521
2125.47733,0.09538
2123.54858,0.09560
2121.61984,0.09569
2119.69109,0.09572
2117.76235,0.09574
2115.83360,0.09580
2113.90486,0.09591
2111.97611,0.09604
2110.04737,0.09619
2108.11862,0.09640
2106.18988,0.09671
2104.26113,0.09702
2102.33238,0.09720
2100.40364,0.09732
2098.47489,0.09745
2096.54615,0.09755
2094.61740,0.09765
2092.68866,0.09777
2090.75991,0.09794
2088.83117,0.09812
2086.90242,0.09821
2084.97368,0.09825
2083.04493,0.09833
2081.11619,0.09844
2079.18744,0.09847
2077.25870,0.09852
2075.32995,0.09854
2073.40121,0.09844
2071.47246,0.09827
2069.54371,0.09818
2067.61497,0.09825
2065.68622,0.09842
2063.75748,0.09856
2061.82873,0.09855
2059.89999,0.09847
2057.97124,0.09843
2056.04250,0.09838
2054.11375,0.09833
2052.18501,0.09845
2050.25626,0.09868
2048.32752,0.09883
2046.39877,0.09890
2044.47003,0.09909
2042.54128,0.09939
2040.61254,0.09952
2038.68379,0.09949
2036.75504,0.09956
2034.82630,0.09980
2032.89755,0.10014
2030.96881,0.10033
2029.04006,0.10031
2027.11132,0.10038
2025.18257,0.10055
2023.25383,0.10060
2021.32508,0.10065
2019.39634,0.10080
2017.46759,0.10101
2015.53885,0.10121
2013.61010,0.10142
2011.68136,0.10169
2009.75261,0.10197
2007.82386,0.10212
2005.89512,0.10208
2003.96637,0.10200
2002.03763,0.10193
2000.10888,0.10181
1998.18014,0.10155
1996.25139,0.10129
1994.32265,0.10122
1992.39390,0.10121
1990.46516,0.10113
1988.53641,0.10101
1986.60767,0.10101
1984.67892,0.10119
1982.75018,0.10131
1980.82143,0.10122
1978.89269,0.10108
1976.96394,0.10106
1975.03519,0.10108
1973.10645,0.10103
1971.17770,0.10087
1969.24896,0.10065
1967.32021,0.10041
1965.39147,0.10011
1963.46272,0.09966
1961.53398,0.09927
1959.60523,0.09917
1957.67649,0.09928
1955.74774,0.09934
1953.81900,0.09940
1951.89025,0.09967
1949.96151,0.10006
1948.03276,0.10047
1946.10402,0.10093
1944.17527,0.10137
1942.24652,0.10168
1940.31778,0.10203
1938.38903,0.10247
1936.46029,0.10297
1934.53154,0.10353
1932.60280,0.10402
1930.67405,0.10432
1928.74531,0.10441
1926.81656,0.10438
1924.88782,0.10446
1922.95907,0.10471
1921.03033,0.10500
1919.10158,0.10524
1917.17284,0.10537
1915.24409,0.10541
1913.31534,0.10549
1911.38660,0.10565
1909.45785,0.10579
1907.52911,0.10590
1905.60036,0.10599
1903.67162,0.10605
1901.74287,0.10594
1899.81413,0.10562
1897.88538,0.10531
1895.95664,0.10517
1894.02789,0.10503
1892.09915,0.10482
1890.17040,0.10468
1888.24166,0.10445
1886.31291,0.10395
1884.38417,0.10346
1882.45542,0.10310
1880.52667,0.10277
1878.59793,0.10254
1876.66918,0.10244
1874.74044,0.10229
1872.81169,0.10195
1870.88295,0.10144
1868.95420,0.10087
1867.02546,0.10032
1865.09671,0.09975
1863.16797,0.09910
1861.23922,0.09838
1859.31048,0.09769
1857.38173,0.09697
1855.45299,0.09609
1853.52424,0.09511
1851.59549,0.09426
1849.66675,0.09365
1847.73800,0.09330
1845.80926,0.09315
1843.88051,0.09285
1841.95177,0.09220
1840.02302,0.09145
1838.09428,0.09086
1836.16553,0.09045
1834.23679,0.09000
1832.30804,0.08932
1830.37930,0.08850
1828.45055,0.08785
1826.52181,0.08742
1824.59306,0.08679
1822.66432,0.08583
1820.73557,0.08488
1818.80682,0.08408
1816.87808,0.08327
1814.94933,0.08229
1813.02059,0.08123
1811.09184,0.08023
1809.16310,0.07919
1807.23435,0.07798
1805.30561,0.07671
1803.37686,0.07544
1801.44812,0.07410
1799.51937,0.07271
1797.59063,0.07124
1795.66188,0.06983
1793.73314,0.06850
1791.80439,0.06703
1789.87565,0.06559
1787.94690,0.06430
1786.01815,0.06281
1784.08941,0.06103
1782.16066,0.05923
1780.23192,0.05751
1778.30317,0.05591
1776.37443,0.05448
1774.44568,0.05300
1772.51694,0.05113
1770.58819,0.04913
1768.65945,0.04732
1766.73070,0.04560
1764.80196,0.04402
1762.87321,0.04244
1760.94447,0.04082
1759.01572,0.03946
1757.08697,0.03835
1755.15823,0.03737
1753.22948,0.03659
1751.30074,0.03601
1749.37199,0.03572
1747.44325,0.03586
1745.51450,0.03638
1743.58576,0.03721
1741.65701,0.03834
1739.72827,0.03981
1737.79952,0.04133
1735.87078,0.04276
1733.94203,0.04452
1732.01329,0.04650
1730.08454,0.04827
1728.15580,0.04990
1726.22705,0.05137
1724.29830,0.05275
1722.36956,0.05404
1720.44081,0.05515
1718.51207,0.05602
1716.58332,0.05660
1714.65458,0.05692
1712.72583,0.05705
1710.79709,0.05700
1708.86834,0.05674
1706.93960,0.05624
1705.01085,0.05558
1703.08211,0.05494
1701.15336,0.05403
1699.22462,0.05289
1697.29587,0.05187
1695.36713,0.05074
1693.43838,0.04956
1691.50963,0.04839
1689.58089,0.04713
1687.65214,0.04598
1685.72340,0.04482
1683.79465,0.04338
1681.86591,0.04211
1679.93716,0.04130
1678.00842,0.04090
1676.07967,0.04087
1674.15093,0.04103
1672.22218,0.04142
1670.29344,0.04244
1668.36469,0.04412
1666.43595,0.04587
1664.50720,0.04746
1662.57845,0.04911
1660.64971,0.05081
1658.72096,0.05243
1656.79222,0.05388
1654.86347,0.05526
1652.93473,0.05684
1651.00598,0.05827
1649.07724,0.05955
1647.14849,0.06106
1645.21975,0.06259
1643.29100,0.06376
1641.36226,0.06470
1639.43351,0.06563
1637.50477,0.06648
1635.57602,0.06705
1633.64728,0.06711
1631.71853,0.06673
1629.78978,0.06614
1627.86104,0.06557
1625.93229,0.06508
1624.00355,0.06460
1622.07480,0.06417
1620.14606,0.06392
1618.21731,0.06368
1616.28857,0.06307
1614.35982,0.06243
1612.43108,0.06216
1610.50233,0.06186
1608.57359,0.06119
1606.64484,0.06031
1604.71610,0.05945
1602.78735,0.05869
1600.85861,0.05831
1598.92986,0.05848
1597.00111,0.05907
1595.07237,0.05977
1593.14362,0.06030
1591.21488,0.06055
1589.28613,0.06047
1587.35739,0.06003
1585.42864,0.05939
1583.49990,0.05895
1581.57115,0.05890
1579.64241,0.05925
1577.71366,0.06010
1575.78492,0.06142
1573.85617,0.06272
1571.92743,0.06376
1569.99868,0.06463
1568.06993,0.06525
1566.14119,0.06583
1564.21244,0.06656
1562.28370,0.06732
1560.35495,0.06811
1558.42621,0.06910
1556.49746,0.07005
1554.56872,0.07099
1552.63997,0.07196
1550.71123,0.07274
1548.78248,0.07334
1546.85374,0.07369
1544.92499,0.07363
1542.99625,0.07304
1541.06750,0.07151
1539.13876,0.06909
1537.21001,0.06734
1535.28126,0.06648
1533.35252,0.06589
1531.42377,0.06555
1529.49503,0.06544
1527.56628,0.06527
1525.63754,0.06492
1523.70879,0.06448
1521.78005,0.06384
1519.85130,0.06300
1517.92256,0.06224
1515.99381,0.06160
1514.06507,0.06106
1512.13632,0.06068
1510.20758,0.06038
1508.27883,0.05996
1506.35008,0.05951
1504.42134,0.05924
1502.49259,0.05894
1500.56385,0.05845
1498.63510,0.05782
1496.70636,0.05704
1494.77761,0.05617
1492.84887,0.05542
1490.92012,0.05507
1488.99138,0.05523
1487.06263,0.05557
1485.13389,0.05576
1483.20514,0.05571
1481.27640,0.05535
1479.34765,0.05475
1477.41891,0.05394
1475.49016,0.05285
1473.56141,0.05154
1471.63267,0.05023
1469.70392,0.04931
1467.77518,0.04880
1465.84643,0.04861
1463.91769,0.04868
1461.98894,0.04879
1460.06020,0.04884
1458.13145,0.04901
1456.20271,0.04935
1454.27396,0.04957
1452.34522,0.04967
1450.41647,0.04988
1448.48773,0.05034
1446.55898,0.05088
1444.63024,0.05135
1442.70149,0.05192
1440.77274,0.05245
1438.84400,0.05273
1436.91525,0.05287
1434.98651,0.05288
1433.05776,0.05273
1431.12902,0.05258
1429.20027,0.05250
1427.27153,0.05234
1425.34278,0.05186
1423.41404,0.05112
1421.48529,0.05043
1419.55655,0.04985
1417.62780,0.04947
1415.69906,0.04950
1413.77031,0.04970
1411.84156,0.04972
1409.91282,0.04951
1407.98407,0.04913
1406.05533,0.04864
1404.12658,0.04817
1402.19784,0.04780
1400.26909,0.04763
1398.34035,0.04760
1396.41160,0.04754
1394.48286,0.04735
1392.55411,0.04694
1390.62537,0.04636
1388.69662,0.04588
1386.76788,0.04565
1384.83913,0.04544
1382.91039,0.04513
1380.98164,0.04487
1379.05289,0.04473
1377.12415,0.04472
1375.19540,0.04484
1373.26666,0.04507
1371.33791,0.04533
1369.40917,0.04546
1367.48042,0.04537
1365.55168,0.04520
1363.62293,0.04513
1361.69419,0.04505
1359.76544,0.04480
1357.83670,0.04450
1355.90795,0.04421
1353.97921,0.04382
1352.05046,0.04345
1350.12172,0.04320
1348.19297,0.04290
1346.26422,0.04246
1344.33548,0.04198
1342.40673,0.04143
1340.47799,0.04072
1338.54924,0.04000
1336.62050,0.03940
1334.69175,0.03889
1332.76301,0.03850
1330.83426,0.03823
1328.90552,0.03800
1326.97677,0.03771
1325.04803,0.03737
1323.11928,0.03703
1321.19054,0.03669
1319.26179,0.03631
1317.33304,0.03583
1315.40430,0.03527
1313.47555,0.03480
1311.54681,0.03444
1309.61806,0.03409
1307.68932,0.03383
1305.76057,0.03378
1303.83183,0.03382
1301.90308,0.03387
1299.97434,0.03413
1298.04559,0.03478
1296.11685,0.03590
1294.18810,0.03780
1292.25936,0.04077
1290.33061,0.04472
1288.40187,0.04938
1286.47312,0.05472
1284.54437,0.06079
1282.61563,0.06731
1280.68688,0.07361
1278.75814,0.07876
1276.82939,0.08180
1274.90065,0.08237
1272.97190,0.08090
1271.04316,0.07824
1269.11441,0.07536
1267.18567,0.07297
1265.25692,0.07127
1263.32818,0.07019
1261.39943,0.06962
1259.47069,0.06941
1257.54194,0.06929
1255.61320,0.06907
1253.68445,0.06879
1251.75570,0.06847
1249.82696,0.06805
1247.89821,0.06744
1245.96947,0.06658
1244.04072,0.06586
1242.11198,0.06544
1240.18323,0.06490
1238.25449,0.06399
1236.32574,0.06295
1234.39700,0.06212
1232.46825,0.06156
1230.53951,0.06108
1228.61076,0.06051
1226.68202,0.05984
1224.75327,0.05907
1222.82452,0.05833
1220.89578,0.05770
1218.96703,0.05726
1217.03829,0.05697
1215.10954,0.05654
1213.18080,0.05596
1211.25205,0.05556
1209.32331,0.05530
1207.39456,0.05501
1205.46582,0.05466
1203.53707,0.05434
1201.60833,0.05409
1199.67958,0.05381
1197.75084,0.05335
1195.82209,0.05268
1193.89335,0.05197
1191.96460,0.05142
1190.03585,0.05106
1188.10711,0.05075
1186.17836,0.05038
1184.24962,0.04975
1182.32087,0.04897
1180.39213,0.04846
1178.46338,0.04809
1176.53464,0.04736
1174.60589,0.04649
1172.67715,0.04597
1170.74840,0.04581
1168.81966,0.04569
1166.89091,0.04550
1164.96217,0.04536
1163.03342,0.04528
1161.10467,0.04532
1159.17593,0.04554
1157.24718,0.04584
1155.31844,0.04611
1153.38969,0.04620
1151.46095,0.04613
1149.53220,0.04622
1147.60346,0.04653
1145.67471,0.04672
1143.74597,0.04691
1141.81722,0.04742
1139.88848,0.04819
1137.95973,0.04900
1136.03099,0.04961
1134.10224,0.04990
1132.17350,0.05016
1130.24475,0.05070
1128.31600,0.05155
1126.38726,0.05260
1124.45851,0.05361
1122.52977,0.05443
1120.60102,0.05506
1118.67228,0.05573
1116.74353,0.05656
1114.81479,0.05731
1112.88604,0.05746
1110.95730,0.05697
1109.02855,0.05631
1107.09981,0.05574
1105.17106,0.05518
1103.24232,0.05453
1101.31357,0.05370
1099.38483,0.05289
1097.45608,0.05249
1095.52733,0.05243
1093.59859,0.05220
1091.66984,0.05185
1089.74110,0.05163
1087.81235,0.05154
1085.88361,0.05165
1083.95486,0.05210
1082.02612,0.05315
1080.09737,0.05487
1078.16863,0.05684
1076.23988,0.05874
1074.31114,0.06057
1072.38239,0.06242
1070.45365,0.06430
1068.52490,0.06614
1066.59615,0.06761
1064.66741,0.06854
1062.73866,0.06922
1060.80992,0.06982
1058.88117,0.07011
1056.95243,0.07015
1055.02368,0.07027
1053.09494,0.07019
1051.16619,0.06962
1049.23745,0.06890
1047.30870,0.06839
1045.37996,0.06819
1043.45121,0.06826
1041.52247,0.06846
1039.59372,0.06874
1037.66498,0.06922
1035.73623,0.06972
1033.80748,0.06996
1031.87874,0.07003
1029.94999,0.07018
1028.02125,0.07041
1026.09250,0.07050
1024.16376,0.07050
1022.23501,0.07057
1020.30627,0.07070
1018.37752,0.07098
1016.44878,0.07132
1014.52003,0.07130
1012.59129,0.07084
1010.66254,0.07039
1008.73380,0.06993
1006.80505,0.06929
1004.87631,0.06888
1002.94756,0.06886
1001.01881,0.06900
999.09007,0.06926
997.16132,0.06948
995.23258,0.06951
993.30383,0.06964
991.37509,0.06986
989.44634,0.06989
987.51760,0.06996
985.58885,0.07016
983.66011,0.07030
981.73136,0.07047
979.80262,0.07072
977.87387,0.07083
975.94513,0.07076
974.01638,0.07069
972.08763,0.07061
970.15889,0.07057
968.23014,0.07070
966.30140,0.07091
964.37265,0.07106
962.44391,0.07106
960.51516,0.07075
958.58642,0.07021
956.65767,0.06980
954.72893,0.06950
952.80018,0.06919
950.87144,0.06899
948.94269,0.06879
947.01395,0.06844
945.08520,0.06813
943.15646,0.06802
941.22771,0.06790
939.29896,0.06736
937.37022,0.06665
935.44147,0.06629
933.51273,0.06605
931.58398,0.06559
929.65524,0.06509
927.72649,0.06478
925.79775,0.06463
923.86900,0.06444
921.94026,0.06413
920.01151,0.06398
918.08277,0.06400
916.15402,0.06371
914.22528,0.06314
912.29653,0.06281
910.36779,0.06269
908.43904,0.06232
906.51029,0.06187
904.58155,0.06142
902.65280,0.06071
900.72406,0.06004
898.79531,0.05970
896.86657,0.05935
894.93782,0.05892
893.00908,0.05871
891.08033,0.05872
889.15159,0.05857
887.22284,0.05794
885.29410,0.05691
883.36535,0.05596
881.43661,0.05546
879.50786,0.05523
877.57911,0.05488
875.65037,0.05452
873.72162,0.05447
871.79288,0.05461
869.86413,0.05469
867.93539,0.05464
866.00664,0.05449
864.07790,0.05457
862.14915,0.05491
860.22041,0.05526
858.29166,0.05590
856.36292,0.05708
854.43417,0.05842
852.50543,0.05976
850.57668,0.06119
848.64794,0.06272
846.71919,0.06448
844.79044,0.06647
842.86170,0.06830
840.93295,0.06985
839.00421,0.07126
837.07546,0.07253
835.14672,0.07352
833.21797,0.07418
831.28923,0.07478
829.36048,0.07548
827.43174,0.07592
825.50299,0.07599
823.57425,0.07591
821.64550,0.07567
819.71676,0.07526
817.78801,0.07457
815.85926,0.07378
813.93052,0.07326
812.00177,0.07289
810.07303,0.07238
808.14428,0.07182
806.21554,0.07113
804.28679,0.06999
802.35805,0.06874
800.42930,0.06806
798.50056,0.06776
796.57181,0.06748
794.64307,0.06723
792.71432,0.06676
790.78558,0.06604
788.85683,0.06557
786.92809,0.06532
784.99934,0.06465
783.07059,0.06368
781.14185,0.06307
779.21310,0.06279
777.28436,0.06270
775.35561,0.06296
773.42687,0.06326
771.49812,0.06297
769.56938,0.06222
767.64063,0.06153
765.71189,0.06098
763.78314,0.06029
761.85440,0.05926
759.92565,0.05816
757.99691,0.05762
756.06816,0.05769
754.13942,0.05800
752.21067,0.05857
750.28192,0.05942
748.35318,0.06062
746.42443,0.06241
744.49569,0.06444
742.56694,0.06603
740.63820,0.06693
738.70945,0.06726
736.78071,0.06714
734.85196,0.06657
732.92322,0.06584
730.99447,0.06539
729.06573,0.06511
727.13698,0.06472
725.20824,0.06439
723.27949,0.06424
721.35074,0.06374
719.42200,0.06260
717.49325,0.06135
715.56451,0.06057
713.63576,0.06054
711.70702,0.06099
709.77827,0.06119
707.84953,0.06114
705.92078,0.06161
703.99204,0.06260
702.06329,0.06333
700.13455,0.06370
698.20580,0.06399
696.27706,0.06400
694.34831,0.06375
692.41957,0.06369
690.49082,0.06390
688.56207,0.06431
686.63333,0.06459
684.70458,0.06440
682.77584,0.06410
680.84709,0.06406
678.91835,0.06408
676.98960,0.06413
675.06086,0.06454
673.13211,0.06518
671.20337,0.06567
669.27462,0.06596
667.34588,0.06598
665.41713,0.06553
663.48839,0.06460
661.55964,0.06359
659.63090,0.06292
657.70215,0.06242
655.77340,0.06197
653.84466,0.06162
651.91591,0.06105
649.98717,0.06028
648.05842,0.05967
646.12968,0.05932
644.20093,0.05938
642.27219,0.05952
640.34344,0.05918
638.41470,0.05874
636.48595,0.05856
634.55721,0.05863
632.62846,0.05901
630.69972,0.05936
628.77097,0.05910
626.84222,0.05831
624.91348,0.05787
622.98473,0.05804
621.05599,0.05797
619.12724,0.05739
617.19850,0.05758
615.26975,0.05886
613.34101,0.05954
611.41226,0.05900
609.48352,0.05829
607.55477,0.05778
605.62603,0.05752
603.69728,0.05800
601.76854,0.05867
599.83979,0.05859
