7497.03301,0.17562
7495.10426,0.17679
7493.17552,0.17975
7491.24677,0.18259
7489.31803,0.18025
7487.38928,0.17509
7485.46054,0.17424
7483.53179,0.17739
7481.60305,0.18054
7479.67430,0.18226
7477.74556,0.17965
7475.81681,0.17130
7473.88807,0.16351
7471.95932,0.16243
7470.03057,0.16605
7468.10183,0.17038
7466.17308,0.17331
7464.24434,0.17390
7462.31559,0.17356
7460.38685,0.17407
7458.45810,0.17412
7456.52936,0.17361
7454.60061,0.17346
7452.67187,0.17230
7450.74312,0.17233
7448.81438,0.17496
7446.88563,0.17615
7444.95689,0.17509
7443.02814,0.17376
7441.09940,0.17352
7439.17065,0.17407
7437.24190,0.17338
7435.31316,0.17232
7433.38441,0.17253
7431.45567,0.17205
7429.52692,0.17035
7427.59818,0.17100
7425.66943,0.17405
7423.74069,0.17593
7421.81194,0.17667
7419.88320,0.17690
7417.95445,0.17733
7416.02571,0.17945
7414.09696,0.18090
7412.16822,0.17958
7410.23947,0.17840
7408.31073,0.17929
7406.38198,0.17870
7404.45323,0.17424
7402.52449,0.16991
7400.59574,0.16964
7398.66700,0.17196
7396.73825,0.17315
7394.80951,0.17268
7392.88076,0.17293
7390.95202,0.17196
7389.02327,0.16716
7387.09453,0.16429
7385.16578,0.16852
7383.23704,0.17745
7381.30829,0.18550
7379.37955,0.18634
7377.45080,0.17976
7375.52205,0.17425
7373.59331,0.17406
7371.66456,0.17380
7369.73582,0.17186
7367.80707,0.17394
7365.87833,0.17883
7363.94958,0.17997
7362.02084,0.17825
7360.09209,0.17817
7358.16335,0.17842
7356.23460,0.17573
7354.30586,0.17210
7352.37711,0.17143
7350.44837,0.17333
7348.51962,0.17502
7346.59088,0.17487
7344.66213,0.17123
7342.73338,0.16601
7340.80464,0.16615
7338.87589,0.17085
7336.94715,0.17150
7335.01840,0.16787
7333.08966,0.16733
7331.16091,0.17150
7329.23217,0.17476
7327.30342,0.17451
7325.37468,0.17297
7323.44593,0.17180
7321.51719,0.17261
7319.58844,0.17551
7317.65970,0.17907
7315.73095,0.18249
7313.80221,0.18327
7311.87346,0.18120
7309.94471,0.17899
7308.01597,0.17532
7306.08722,0.17239
7304.15848,0.17421
7302.22973,0.17779
7300.30099,0.18137
7298.37224,0.18326
7296.44350,0.17977
7294.51475,0.17357
7292.58601,0.16844
7290.65726,0.16509
7288.72852,0.16546
7286.79977,0.16918
7284.87103,0.17220
7282.94228,0.17295
7281.01353,0.17308
7279.08479,0.17342
7277.15604,0.17227
7275.22730,0.16988
7273.29855,0.16931
7271.36981,0.17031
7269.44106,0.17170
7267.51232,0.17461
7265.58357,0.17672
7263.65483,0.17616
7261.72608,0.17582
7259.79734,0.17538
7257.86859,0.17123
7255.93985,0.16731
7254.01110,0.16847
7252.08236,0.16991
7250.15361,0.16819
7248.22486,0.16716
7246.29612,0.16844
7244.36737,0.17002
7242.43863,0.17033
7240.50988,0.17037
7238.58114,0.17263
7236.65239,0.17589
7234.72365,0.17639
7232.79490,0.17376
7230.86616,0.17025
7228.93741,0.16874
7227.00867,0.17089
7225.07992,0.17423
7223.15118,0.17422
7221.22243,0.17024
7219.29369,0.16696
7217.36494,0.16826
7215.43619,0.17170
7213.50745,0.17230
7211.57870,0.16931
7209.64996,0.16687
7207.72121,0.16844
7205.79247,0.17268
7203.86372,0.17451
7201.93498,0.17343
7200.00623,0.17522
7198.07749,0.17908
7196.14874,0.17765
7194.22000,0.17125
7192.29125,0.16693
7190.36251,0.16762
7188.43376,0.16967
7186.50501,0.17061
7184.57627,0.17201
7182.64752,0.17333
7180.71878,0.17255
7178.79003,0.17029
7176.86129,0.16746
7174.93254,0.16577
7173.00380,0.16697
7171.07505,0.16727
7169.14631,0.16346
7167.21756,0.16128
7165.28882,0.16440
7163.36007,0.16851
7161.43133,0.17199
7159.50258,0.17604
7157.57384,0.17838
7155.64509,0.17828
7153.71634,0.17826
7151.78760,0.17730
7149.85885,0.17331
7147.93011,0.16872
7146.00136,0.16667
7144.07262,0.16937
7142.14387,0.17420
7140.21513,0.17559
7138.28638,0.17507
7136.35764,0.17566
7134.42889,0.17562
7132.50015,0.17388
7130.57140,0.17089
7128.64266,0.16845
7126.71391,0.16814
7124.78516,0.16879
7122.85642,0.16832
7120.92767,0.16674
7118.99893,0.16556
7117.07018,0.16495
7115.14144,0.16386
7113.21269,0.16289
7111.28395,0.16360
7109.35520,0.16634
7107.42646,0.16860
7105.49771,0.16930
7103.56897,0.17078
7101.64022,0.17229
7099.71148,0.17211
7097.78273,0.17250
7095.85399,0.17418
7093.92524,0.17373
7091.99649,0.16847
7090.06775,0.16207
7088.13900,0.16050
7086.21026,0.16245
7084.28151,0.16350
7082.35277,0.16384
7080.42402,0.16352
7078.49528,0.16250
7076.56653,0.16264
7074.63779,0.16353
7072.70904,0.16431
7070.78030,0.16587
7068.85155,0.16702
7066.92281,0.16587
7064.99406,0.16371
7063.06532,0.16318
7061.13657,0.16388
7059.20782,0.16269
7057.27908,0.15905
7055.35033,0.15664
7053.42159,0.15733
7051.49284,0.15924
7049.56410,0.16097
7047.63535,0.16251
7045.70661,0.16311
7043.77786,0.16307
7041.84912,0.16426
7039.92037,0.16565
7037.99163,0.16482
7036.06288,0.16298
7034.13414,0.16090
7032.20539,0.15858
7030.27664,0.15877
7028.34790,0.16166
7026.41915,0.16322
7024.49041,0.16325
7022.56166,0.16386
7020.63292,0.16350
7018.70417,0.16233
7016.77543,0.16317
7014.84668,0.16389
7012.91794,0.16080
7010.98919,0.15603
7009.06045,0.15407
7007.13170,0.15577
7005.20296,0.15937
7003.27421,0.16203
7001.34547,0.16160
6999.41672,0.15952
6997.48797,0.15887
6995.55923,0.16027
6993.63048,0.16096
6991.70174,0.15910
6989.77299,0.15703
6987.84425,0.15599
6985.91550,0.15484
6983.98676,0.15410
6982.05801,0.15472
6980.12927,0.15673
6978.20052,0.15874
6976.27178,0.15842
6974.34303,0.15685
6972.41429,0.15561
6970.48554,0.15384
6968.55680,0.15269
6966.62805,0.15360
6964.69930,0.15567
6962.77056,0.15780
6960.84181,0.16052
6958.91307,0.16413
6956.98432,0.16483
6955.05558,0.16109
6953.12683,0.15751
6951.19809,0.15731
6949.26934,0.16061
6947.34060,0.16489
6945.41185,0.16571
6943.48311,0.16242
6941.55436,0.15856
6939.62562,0.15706
6937.69687,0.15739
6935.76812,0.15736
6933.83938,0.15690
6931.91063,0.15718
6929.98189,0.15791
6928.05314,0.15834
6926.12440,0.15791
6924.19565,0.15715
6922.26691,0.15786
6920.33816,0.15898
6918.40942,0.15786
6916.48067,0.15572
6914.55193,0.15464
6912.62318,0.15410
6910.69444,0.15467
6908.76569,0.15813
6906.83695,0.16185
6904.90820,0.16214
6902.97945,0.15950
6901.05071,0.15655
6899.12196,0.15597
6897.19322,0.15801
6895.26447,0.15948
6893.33573,0.15951
6891.40698,0.15997
6889.47824,0.16000
6887.54949,0.15858
6885.62075,0.15768
6883.69200,0.15773
6881.76326,0.15847
6879.83451,0.15848
6877.90577,0.15591
6875.97702,0.15362
6874.04828,0.15350
6872.11953,0.15311
6870.19078,0.15269
6868.26204,0.15438
6866.33329,0.15685
6864.40455,0.15753
6862.47580,0.15630
6860.54706,0.15478
6858.61831,0.15436
6856.68957,0.15328
6854.76082,0.15152
6852.83208,0.15290
6850.90333,0.15637
6848.97459,0.15820
6847.04584,0.15733
6845.11710,0.15443
6843.18835,0.15274
6841.25960,0.15405
6839.33086,0.15628
6837.40211,0.15713
6835.47337,0.15549
6833.54462,0.15253
6831.61588,0.15147
6829.68713,0.15250
6827.75839,0.15223
6825.82964,0.15039
6823.90090,0.14983
6821.97215,0.15176
6820.04341,0.15542
6818.11466,0.15853
6816.18592,0.15906
6814.25717,0.15846
6812.32843,0.15897
6810.39968,0.15957
6808.47093,0.15924
6806.54219,0.15892
6804.61344,0.15844
6802.68470,0.15684
6800.75595,0.15497
6798.82721,0.15394
6796.89846,0.15352
6794.96972,0.15362
6793.04097,0.15444
6791.11223,0.15605
6789.18348,0.15802
6787.25474,0.15855
6785.32599,0.15667
6783.39725,0.15400
6781.46850,0.15296
6779.53975,0.15467
6777.61101,0.15776
6775.68226,0.15939
6773.75352,0.15874
6771.82477,0.15757
6769.89603,0.15659
6767.96728,0.15552
6766.03854,0.15552
6764.10979,0.15615
6762.18105,0.15469
6760.25230,0.15212
6758.32356,0.15168
6756.39481,0.15306
6754.46607,0.15487
6752.53732,0.15682
6750.60858,0.15837
6748.67983,0.15834
6746.75108,0.15677
6744.82234,0.15601
6742.89359,0.15640
6740.96485,0.15596
6739.03610,0.15490
6737.10736,0.15440
6735.17861,0.15533
6733.24987,0.15748
6731.32112,0.15901
6729.39238,0.15894
6727.46363,0.15729
6725.53489,0.15485
6723.60614,0.15401
6721.67740,0.15537
6719.74865,0.15634
6717.81991,0.15647
6715.89116,0.15759
6713.96241,0.15846
6712.03367,0.15817
6710.10492,0.15897
6708.17618,0.16017
6706.24743,0.15872
6704.31869,0.15562
6702.38994,0.15486
6700.46120,0.15705
6698.53245,0.15782
6696.60371,0.15584
6694.67496,0.15530
6692.74622,0.15772
6690.81747,0.16031
6688.88873,0.16004
6686.95998,0.15601
6685.03123,0.15201
6683.10249,0.15225
6681.17374,0.15440
6679.24500,0.15466
6677.31625,0.15428
6675.38751,0.15490
6673.45876,0.15608
6671.53002,0.15798
6669.60127,0.15944
6667.67253,0.15890
6665.74378,0.15831
6663.81504,0.15862
6661.88629,0.15846
6659.95755,0.15954
6658.02880,0.16257
6656.10006,0.16366
6654.17131,0.16187
6652.24256,0.16044
6650.31382,0.16003
6648.38507,0.15881
6646.45633,0.15746
6644.52758,0.15767
6642.59884,0.15762
6640.67009,0.15557
6638.74135,0.15433
6636.81260,0.15597
6634.88386,0.15785
6632.95511,0.15872
6631.02637,0.16040
6629.09762,0.16124
6627.16888,0.15949
6625.24013,0.15780
6623.31139,0.15787
6621.38264,0.15929
6619.45389,0.16169
6617.52515,0.16367
6615.59640,0.16356
6613.66766,0.16261
6611.73891,0.16302
6609.81017,0.16367
6607.88142,0.16251
6605.95268,0.15986
6604.02393,0.15795
6602.09519,0.15800
6600.16644,0.15844
6598.23770,0.15823
6596.30895,0.15832
6594.38021,0.15911
6592.45146,0.16004
6590.52271,0.16121
6588.59397,0.16247
6586.66522,0.16199
6584.73648,0.16033
6582.80773,0.16010
6580.87899,0.16024
6578.95024,0.15901
6577.02150,0.15866
6575.09275,0.16133
6573.16401,0.16473
6571.23526,0.16513
6569.30652,0.16272
6567.37777,0.16069
6565.44903,0.15996
6563.52028,0.15948
6561.59154,0.15979
6559.66279,0.16127
6557.73404,0.16304
6555.80530,0.16451
6553.87655,0.16501
6551.94781,0.16410
6550.01906,0.16249
6548.09032,0.16180
6546.16157,0.16267
6544.23283,0.16413
6542.30408,0.16563
6540.37534,0.16594
6538.44659,0.16400
6536.51785,0.16225
6534.58910,0.16245
6532.66036,0.16312
6530.73161,0.16295
6528.80287,0.16149
6526.87412,0.15999
6524.94537,0.16046
6523.01663,0.16148
6521.08788,0.16164
6519.15914,0.16246
6517.23039,0.16285
6515.30165,0.16124
6513.37290,0.15997
6511.44416,0.16066
6509.51541,0.16223
6507.58667,0.16381
6505.65792,0.16462
6503.72918,0.16386
6501.80043,0.16214
6499.87169,0.16089
6497.94294,0.16099
6496.01419,0.16267
6494.08545,0.16431
6492.15670,0.16499
6490.22796,0.16583
6488.29921,0.16697
6486.37047,0.16831
6484.44172,0.16880
6482.51298,0.16707
6480.58423,0.16520
6478.65549,0.16430
6476.72674,0.16280
6474.79800,0.16165
6472.86925,0.16229
6470.94051,0.16266
6469.01176,0.16129
6467.08302,0.16042
6465.15427,0.16202
6463.22552,0.16501
6461.29678,0.16632
6459.36803,0.16430
6457.43929,0.16171
6455.51054,0.16185
6453.58180,0.16378
6451.65305,0.16521
6449.72431,0.16523
6447.79556,0.16448
6445.86682,0.16488
6443.93807,0.16639
6442.00933,0.16763
6440.08058,0.16872
6438.15184,0.16845
6436.22309,0.16525
6434.29434,0.16179
6432.36560,0.16167
6430.43685,0.16333
6428.50811,0.16311
6426.57936,0.16274
6424.65062,0.16484
6422.72187,0.16734
6420.79313,0.16875
6418.86438,0.16987
6416.93564,0.17031
6415.00689,0.16921
6413.07815,0.16740
6411.14940,0.16566
6409.22066,0.16361
6407.29191,0.16159
6405.36317,0.16046
6403.43442,0.16091
6401.50567,0.16308
6399.57693,0.16524
6397.64818,0.16582
6395.71944,0.16595
6393.79069,0.16646
6391.86195,0.16566
6389.93320,0.16350
6388.00446,0.16229
6386.07571,0.16287
6384.14697,0.16422
6382.21822,0.16498
6380.28948,0.16440
6378.36073,0.16304
6376.43199,0.16274
6374.50324,0.16456
6372.57450,0.16672
6370.64575,0.16740
6368.71700,0.16685
6366.78826,0.16556
6364.85951,0.16435
6362.93077,0.16497
6361.00202,0.16728
6359.07328,0.16863
6357.14453,0.16880
6355.21579,0.16941
6353.28704,0.16964
6351.35830,0.16877
6349.42955,0.16777
6347.50081,0.16721
6345.57206,0.16776
6343.64332,0.16950
6341.71457,0.17027
6339.78582,0.16873
6337.85708,0.16685
6335.92833,0.16676
6333.99959,0.16802
6332.07084,0.16906
6330.14210,0.16915
6328.21335,0.16783
6326.28461,0.16573
6324.35586,0.16503
6322.42712,0.16627
6320.49837,0.16760
6318.56963,0.16762
6316.64088,0.16707
6314.71214,0.16728
6312.78339,0.16802
6310.85465,0.16858
6308.92590,0.16913
6306.99715,0.17029
6305.06841,0.17157
6303.13966,0.17183
6301.21092,0.17081
6299.28217,0.16899
6297.35343,0.16743
6295.42468,0.16683
6293.49594,0.16704
6291.56719,0.16709
6289.63845,0.16603
6287.70970,0.16560
6285.78096,0.16755
6283.85221,0.17005
6281.92347,0.17037
6279.99472,0.16819
6278.06598,0.16557
6276.13723,0.16466
6274.20848,0.16562
6272.27974,0.16725
6270.35099,0.16912
6268.42225,0.17094
6266.49350,0.17055
6264.56476,0.16767
6262.63601,0.16635
6260.70727,0.16829
6258.77852,0.17066
6256.84978,0.17164
6254.92103,0.17118
6252.99229,0.16982
6251.06354,0.16879
6249.13480,0.16788
6247.20605,0.16696
6245.27730,0.16703
6243.34856,0.16771
6241.41981,0.16868
6239.49107,0.17013
6237.56232,0.17147
6235.63358,0.17208
6233.70483,0.17162
6231.77609,0.17091
6229.84734,0.17107
6227.91860,0.17165
6225.98985,0.17175
6224.06111,0.17186
6222.13236,0.17223
6220.20362,0.17160
6218.27487,0.17006
6216.34613,0.16933
6214.41738,0.16953
6212.48863,0.17038
6210.55989,0.17179
6208.63114,0.17262
6206.70240,0.17316
6204.77365,0.17412
6202.84491,0.17442
6200.91616,0.17378
6198.98742,0.17329
6197.05867,0.17342
6195.12993,0.17365
6193.20118,0.17377
6191.27244,0.17417
6189.34369,0.17421
6187.41495,0.17368
6185.48620,0.17360
6183.55746,0.17332
6181.62871,0.17264
6179.69996,0.17334
6177.77122,0.17451
6175.84247,0.17408
6173.91373,0.17338
6171.98498,0.17300
6170.05624,0.17192
6168.12749,0.17160
6166.19875,0.17294
6164.27000,0.17447
6162.34126,0.17562
6160.41251,0.17667
6158.48377,0.17763
6156.55502,0.17770
6154.62628,0.17619
6152.69753,0.17431
6150.76878,0.17363
6148.84004,0.17358
6146.91129,0.17283
6144.98255,0.17160
6143.05380,0.17112
6141.12506,0.17240
6139.19631,0.17503
6137.26757,0.17733
6135.33882,0.17809
6133.41008,0.17741
6131.48133,0.17627
6129.55259,0.17569
6127.62384,0.17540
6125.69510,0.17473
6123.76635,0.17485
6121.83761,0.17608
6119.90886,0.17605
6117.98011,0.17432
6116.05137,0.17356
6114.12262,0.17515
6112.19388,0.17760
6110.26513,0.17870
6108.33639,0.17801
6106.40764,0.17735
6104.47890,0.17781
6102.55015,0.17761
6100.62141,0.17537
6098.69266,0.17370
6096.76392,0.17522
6094.83517,0.17801
6092.90643,0.17887
6090.97768,0.17802
6089.04893,0.17743
6087.12019,0.17753
6085.19144,0.17752
6083.26270,0.17677
6081.33395,0.17552
6079.40521,0.17454
6077.47646,0.17397
6075.54772,0.17370
6073.61897,0.17417
6071.69023,0.17571
6069.76148,0.17737
6067.83274,0.17697
6065.90399,0.17474
6063.97525,0.17395
6062.04650,0.17550
6060.11776,0.17707
6058.18901,0.17701
6056.26026,0.17567
6054.33152,0.17424
6052.40277,0.17367
6050.47403,0.17462
6048.54528,0.17670
6046.61654,0.17790
6044.68779,0.17703
6042.75905,0.17594
6040.83030,0.17567
6038.90156,0.17499
6036.97281,0.17423
6035.04407,0.17363
6033.11532,0.17257
6031.18658,0.17239
6029.25783,0.17315
6027.32909,0.17319
6025.40034,0.17320
6023.47159,0.17325
6021.54285,0.17204
6019.61410,0.17122
6017.68536,0.17218
6015.75661,0.17302
6013.82787,0.17267
6011.89912,0.17233
6009.97038,0.17287
6008.04163,0.17361
6006.11289,0.17357
6004.18414,0.17274
6002.25540,0.17172
6000.32665,0.17136
5998.39791,0.17190
5996.46916,0.17240
5994.54041,0.17235
5992.61167,0.17238
5990.68292,0.17279
5988.75418,0.17310
5986.82543,0.17341
5984.89669,0.17371
5982.96794,0.17290
5981.03920,0.17111
5979.11045,0.17007
5977.18171,0.17040
5975.25296,0.17098
5973.32422,0.17088
5971.39547,0.17100
5969.46673,0.17249
5967.53798,0.17437
5965.60924,0.17518
5963.68049,0.17511
5961.75174,0.17489
5959.82300,0.17480
5957.89425,0.17471
5955.96551,0.17431
5954.03676,0.17359
5952.10802,0.17358
5950.17927,0.17429
5948.25053,0.17408
5946.32178,0.17346
5944.39304,0.17403
5942.46429,0.17451
5940.53555,0.17385
5938.60680,0.17348
5936.67806,0.17406
5934.74931,0.17434
5932.82057,0.17401
5930.89182,0.17377
5928.96307,0.17336
5927.03433,0.17282
5925.10558,0.17279
5923.17684,0.17322
5921.24809,0.17375
5919.31935,0.17381
5917.39060,0.17397
5915.46186,0.17488
5913.53311,0.17486
5911.60437,0.17341
5909.67562,0.17261
5907.74688,0.17301
5905.81813,0.17365
5903.88939,0.17423
5901.96064,0.17436
5900.03189,0.17321
5898.10315,0.17157
5896.17440,0.17089
5894.24566,0.17054
5892.31691,0.16950
5890.38817,0.16863
5888.45942,0.16890
5886.53068,0.17046
5884.60193,0.17266
5882.67319,0.17379
5880.74444,0.17330
5878.81570,0.17227
5876.88695,0.17147
5874.95821,0.17150
5873.02946,0.17222
5871.10072,0.17246
5869.17197,0.17209
5867.24322,0.17190
5865.31448,0.17192
5863.38573,0.17204
5861.45699,0.17203
5859.52824,0.17162
5857.59950,0.17183
5855.67075,0.17296
5853.74201,0.17306
5851.81326,0.17183
5849.88452,0.17046
5847.95577,0.16919
5846.02703,0.16862
5844.09828,0.16908
5842.16954,0.16935
5840.24079,0.16873
5838.31205,0.16801
5836.38330,0.16818
5834.45455,0.16950
5832.52581,0.17155
5830.59706,0.17315
5828.66832,0.17350
5826.73957,0.17297
5824.81083,0.17159
5822.88208,0.16949
5820.95334,0.16830
5819.02459,0.16871
5817.09585,0.16945
5815.16710,0.16952
5813.23836,0.16875
5811.30961,0.16809
5809.38087,0.16895
5807.45212,0.17057
5805.52337,0.17128
5803.59463,0.17111
5801.66588,0.17067
5799.73714,0.17056
5797.80839,0.17110
5795.87965,0.17146
5793.95090,0.17101
5792.02216,0.17038
5790.09341,0.17026
5788.16467,0.17026
5786.23592,0.16968
5784.30718,0.16918
5782.37843,0.16965
5780.44969,0.17009
5778.52094,0.16944
5776.59220,0.16882
5774.66345,0.16970
5772.73470,0.17122
5770.80596,0.17182
5768.87721,0.17162
5766.94847,0.17148
5765.01972,0.17220
5763.09098,0.17325
5761.16223,0.17352
5759.23349,0.17373
5757.30474,0.17390
5755.37600,0.17319
5753.44725,0.17268
5751.51851,0.17285
5749.58976,0.17276
5747.66102,0.17223
5745.73227,0.17195
5743.80352,0.17254
5741.87478,0.17369
5739.94603,0.17418
5738.01729,0.17393
5736.08854,0.17440
5734.15980,0.17493
5732.23105,0.17426
5730.30231,0.17368
5728.37356,0.17391
5726.44482,0.17451
5724.51607,0.17509
5722.58733,0.17459
5720.65858,0.17307
5718.72984,0.17217
5716.80109,0.17246
5714.87235,0.17328
5712.94360,0.17454
5711.01485,0.17613
5709.08611,0.17691
5707.15736,0.17647
5705.22862,0.17586
5703.29987,0.17618
5701.37113,0.17683
5699.44238,0.17622
5697.51364,0.17476
5695.58489,0.17360
5693.65615,0.17297
5691.72740,0.17318
5689.79866,0.17368
5687.86991,0.17343
5685.94117,0.17290
5684.01242,0.17302
5682.08368,0.17312
5680.15493,0.17270
5678.22618,0.17293
5676.29744,0.17390
5674.36869,0.17444
5672.43995,0.17426
5670.51120,0.17389
5668.58246,0.17401
5666.65371,0.17437
5664.72497,0.17427
5662.79622,0.17447
5660.86748,0.17539
5658.93873,0.17549
5657.00999,0.17452
5655.08124,0.17382
5653.15250,0.17357
5651.22375,0.17340
5649.29500,0.17359
5647.36626,0.17418
5645.43751,0.17483
5643.50877,0.17570
5641.58002,0.17655
5639.65128,0.17663
5637.72253,0.17632
5635.79379,0.17642
5633.86504,0.17676
5631.93630,0.17697
5630.00755,0.17667
5628.07881,0.17603
5626.15006,0.17584
5624.22132,0.17577
5622.29257,0.17536
5620.36383,0.17572
5618.43508,0.17709
5616.50633,0.17784
5614.57759,0.17696
5612.64884,0.17568
5610.72010,0.17547
5608.79135,0.17605
5606.86261,0.17699
5604.93386,0.17812
5603.00512,0.17858
5601.07637,0.17827
5599.14763,0.17751
5597.21888,0.17631
5595.29014,0.17573
5593.36139,0.17633
5591.43265,0.17690
5589.50390,0.17674
5587.57516,0.17607
5585.64641,0.17554
5583.71766,0.17584
5581.78892,0.17668
5579.86017,0.17759
5577.93143,0.17833
5576.00268,0.17814
5574.07394,0.17712
5572.14519,0.17640
5570.21645,0.17578
5568.28770,0.17508
5566.35896,0.17554
5564.43021,0.17684
5562.50147,0.17774
5560.57272,0.17813
5558.64398,0.17777
5556.71523,0.17683
5554.78648,0.17670
5552.85774,0.17771
5550.92899,0.17832
5549.00025,0.17792
5547.07150,0.17775
5545.14276,0.17818
5543.21401,0.17835
5541.28527,0.17792
5539.35652,0.17734
5537.42778,0.17758
5535.49903,0.17849
5533.57029,0.17835
5531.64154,0.17717
5529.71280,0.17669
5527.78405,0.17703
5525.85531,0.17737
5523.92656,0.17753
5521.99781,0.17788
5520.06907,0.17859
5518.14032,0.17867
5516.21158,0.17809
5514.28283,0.17833
5512.35409,0.17958
5510.42534,0.18049
5508.49660,0.18021
5506.56785,0.17933
5504.63911,0.17873
5502.71036,0.17868
5500.78162,0.17918
5498.85287,0.17981
5496.92413,0.17987
5494.99538,0.17970
5493.06664,0.18024
5491.13789,0.18058
5489.20914,0.17968
5487.28040,0.17873
5485.35165,0.17837
5483.42291,0.17824
5481.49416,0.17849
5479.56542,0.17912
5477.63667,0.17949
5475.70793,0.17953
5473.77918,0.18011
5471.85044,0.18074
5469.92169,0.18051
5467.99295,0.18031
5466.06420,0.18044
5464.13546,0.18038
5462.20671,0.18017
5460.27796,0.17980
5458.34922,0.17988
5456.42047,0.18079
5454.49173,0.18132
5452.56298,0.18071
5450.63424,0.18044
5448.70549,0.18134
5446.77675,0.18212
5444.84800,0.18242
5442.91926,0.18259
5440.99051,0.18236
5439.06177,0.18217
5437.13302,0.18257
5435.20428,0.18299
5433.27553,0.18257
5431.34679,0.18173
5429.41804,0.18155
5427.48929,0.18179
5425.56055,0.18171
5423.63180,0.18195
5421.70306,0.18302
5419.77431,0.18402
5417.84557,0.18405
5415.91682,0.18319
5413.98808,0.18249
5412.05933,0.18255
5410.13059,0.18274
5408.20184,0.18299
5406.27310,0.18354
5404.34435,0.18395
5402.41561,0.18399
5400.48686,0.18391
5398.55811,0.18372
5396.62937,0.18357
5394.70062,0.18384
5392.77188,0.18437
5390.84313,0.18452
5388.91439,0.18419
5386.98564,0.18382
5385.05690,0.18371
5383.12815,0.18372
5381.19941,0.18359
5379.27066,0.18331
5377.34192,0.18352
5375.41317,0.18450
5373.48443,0.18511
5371.55568,0.18444
5369.62694,0.18371
5367.69819,0.18403
5365.76944,0.18431
5363.84070,0.18389
5361.91195,0.18368
5359.98321,0.18381
5358.05446,0.18349
5356.12572,0.18288
5354.19697,0.18270
5352.26823,0.18290
5350.33948,0.18301
5348.41074,0.18307
5346.48199,0.18320
5344.55325,0.18311
5342.62450,0.18294
5340.69576,0.18298
5338.76701,0.18295
5336.83827,0.18280
5334.90952,0.18250
5332.98077,0.18195
5331.05203,0.18169
5329.12328,0.18165
5327.19454,0.18117
5325.26579,0.18086
5323.33705,0.18118
5321.40830,0.18112
5319.47956,0.18024
5317.55081,0.17930
5315.62207,0.17881
5313.69332,0.17857
5311.76458,0.17820
5309.83583,0.17781
5307.90709,0.17788
5305.97834,0.17849
5304.04959,0.17910
5302.12085,0.17903
5300.19210,0.17803
5298.26336,0.17673
5296.33461,0.17577
5294.40587,0.17505
5292.47712,0.17456
5290.54838,0.17437
5288.61963,0.17413
5286.69089,0.17353
5284.76214,0.17279
5282.83340,0.17189
5280.90465,0.17074
5278.97591,0.16947
5277.04716,0.16830
5275.11842,0.16743
5273.18967,0.16685
5271.26092,0.16626
5269.33218,0.16551
5267.40343,0.16475
5265.47469,0.16377
5263.54594,0.16245
5261.61720,0.16110
5259.68845,0.16001
5257.75971,0.15939
5255.83096,0.15904
5253.90222,0.15856
5251.97347,0.15792
5250.04473,0.15698
5248.11598,0.15573
5246.18724,0.15472
5244.25849,0.15416
5242.32975,0.15366
5240.40100,0.15302
5238.47225,0.15239
5236.54351,0.15209
5234.61476,0.15193
5232.68602,0.15154
5230.75727,0.15143
5228.82853,0.15178
5226.89978,0.15165
5224.97104,0.15083
5223.04229,0.15001
5221.11355,0.14919
5219.18480,0.14822
5217.25606,0.14744
5215.32731,0.14688
5213.39857,0.14660
5211.46982,0.14677
5209.54107,0.14712
5207.61233,0.14734
5205.68358,0.14705
5203.75484,0.14630
5201.82609,0.14584
5199.89735,0.14623
5197.96860,0.14735
5196.03986,0.14817
5194.11111,0.14809
5192.18237,0.14731
5190.25362,0.14648
5188.32488,0.14641
5186.39613,0.14692
5184.46739,0.14725
5182.53864,0.14730
5180.60990,0.14708
5178.68115,0.14670
5176.75240,0.14681
5174.82366,0.14768
5172.89491,0.14856
5170.96617,0.14845
5169.03742,0.14728
5167.10868,0.14630
5165.17993,0.14640
5163.25119,0.14697
5161.32244,0.14729
5159.39370,0.14723
5157.46495,0.14706
5155.53621,0.14702
5153.60746,0.14716
5151.67872,0.14761
5149.74997,0.14828
5147.82123,0.14866
5145.89248,0.14890
5143.96373,0.14946
5142.03499,0.14985
5140.10624,0.14949
5138.17750,0.14892
5136.24875,0.14916
5134.32001,0.15034
5132.39126,0.15123
5130.46252,0.15087
5128.53377,0.14986
5126.60503,0.14959
5124.67628,0.15029
5122.74754,0.15099
5120.81879,0.15143
5118.89005,0.15181
5116.96130,0.15182
5115.03255,0.15184
5113.10381,0.15241
5111.17506,0.15274
5109.24632,0.15248
5107.31757,0.15253
5105.38883,0.15301
5103.46008,0.15335
5101.53134,0.15372
5099.60259,0.15440
5097.67385,0.15494
5095.74510,0.15497
5093.81636,0.15452
5091.88761,0.15422
5089.95887,0.15462
5088.03012,0.15530
5086.10138,0.15558
5084.17263,0.15543
5082.24388,0.15532
5080.31514,0.15546
5078.38639,0.15548
5076.45765,0.15542
5074.52890,0.15545
5072.60016,0.15548
5070.67141,0.15549
5068.74267,0.15550
5066.81392,0.15554
5064.88518,0.15580
5062.95643,0.15655
5061.02769,0.15733
5059.09894,0.15760
5057.17020,0.15760
5055.24145,0.15763
5053.31270,0.15775
5051.38396,0.15777
5049.45521,0.15742
5047.52647,0.15716
5045.59772,0.15751
5043.66898,0.15824
5041.74023,0.15882
5039.81149,0.15889
5037.88274,0.15851
5035.95400,0.15841
5034.02525,0.15925
5032.09651,0.16060
5030.16776,0.16147
5028.23902,0.16164
5026.31027,0.16173
5024.38153,0.16178
5022.45278,0.16130
5020.52403,0.16063
5018.59529,0.16037
5016.66654,0.16055
5014.73780,0.16113
5012.80905,0.16158
5010.88031,0.16124
5008.95156,0.16047
5007.02282,0.16011
5005.09407,0.16029
5003.16533,0.16069
5001.23658,0.16123
4999.30784,0.16169
4997.37909,0.16175
4995.45035,0.16179
4993.52160,0.16204
4991.59286,0.16218
4989.66411,0.16216
4987.73536,0.16223
4985.80662,0.16234
4983.87787,0.16196
4981.94913,0.16104
4980.02038,0.16049
4978.09164,0.16075
4976.16289,0.16090
4974.23415,0.16032
4972.30540,0.15970
4970.37666,0.15977
4968.44791,0.16043
4966.51917,0.16116
4964.59042,0.16127
4962.66168,0.16074
4960.73293,0.16023
4958.80418,0.15990
4956.87544,0.15968
4954.94669,0.15964
4953.01795,0.15978
4951.08920,0.15999
4949.16046,0.16013
4947.23171,0.15988
4945.30297,0.15890
4943.37422,0.15776
4941.44548,0.15726
4939.51673,0.15727
4937.58799,0.15755
4935.65924,0.15805
4933.73050,0.15820
4931.80175,0.15764
4929.87301,0.15687
4927.94426,0.15639
4926.01551,0.15597
4924.08677,0.15541
4922.15802,0.15487
4920.22928,0.15460
4918.30053,0.15466
4916.37179,0.15475
4914.44304,0.15448
4912.51430,0.15387
4910.58555,0.15346
4908.65681,0.15344
4906.72806,0.15338
4904.79932,0.15339
4902.87057,0.15355
4900.94183,0.15306
4899.01308,0.15196
4897.08434,0.15137
4895.15559,0.15157
4893.22684,0.15180
4891.29810,0.15159
4889.36935,0.15137
4887.44061,0.15142
4885.51186,0.15141
4883.58312,0.15136
4881.65437,0.15148
4879.72563,0.15154
4877.79688,0.15130
4875.86814,0.15095
4873.93939,0.15065
4872.01065,0.15020
4870.08190,0.14954
4868.15316,0.14915
4866.22441,0.14912
4864.29566,0.14917
4862.36692,0.14945
4860.43817,0.14977
4858.50943,0.14956
4856.58068,0.14906
4854.65194,0.14886
4852.72319,0.14895
4850.79445,0.14905
4848.86570,0.14896
4846.93696,0.14855
4845.00821,0.14791
4843.07947,0.14760
4841.15072,0.14814
4839.22198,0.14889
4837.29323,0.14882
4835.36449,0.14824
4833.43574,0.14787
4831.50699,0.14783
4829.57825,0.14801
4827.64950,0.14800
4825.72076,0.14771
4823.79201,0.14770
4821.86327,0.14785
4819.93452,0.14744
4818.00578,0.14681
4816.07703,0.14672
4814.14829,0.14707
4812.21954,0.14735
4810.29080,0.14733
4808.36205,0.14701
4806.43331,0.14659
4804.50456,0.14636
4802.57582,0.14646
4800.64707,0.14666
4798.71832,0.14676
4796.78958,0.14671
4794.86083,0.14661
4792.93209,0.14683
4791.00334,0.14726
4789.07460,0.14726
4787.14585,0.14698
4785.21711,0.14725
4783.28836,0.14804
4781.35962,0.14845
4779.43087,0.14818
4777.50213,0.14775
4775.57338,0.14748
4773.64464,0.14739
4771.71589,0.14766
4769.78714,0.14816
4767.85840,0.14818
4765.92965,0.14762
4764.00091,0.14748
4762.07216,0.14778
4760.14342,0.14765
4758.21467,0.14716
4756.28593,0.14688
4754.35718,0.14701
4752.42844,0.14720
4750.49969,0.14681
4748.57095,0.14622
4746.64220,0.14627
4744.71346,0.14692
4742.78471,0.14744
4740.85597,0.14737
4738.92722,0.14704
4736.99847,0.14701
4735.06973,0.14730
4733.14098,0.14751
4731.21224,0.14749
4729.28349,0.14734
4727.35475,0.14705
4725.42600,0.14683
4723.49726,0.14688
4721.56851,0.14705
4719.63977,0.14714
4717.71102,0.14713
4715.78228,0.14734
4713.85353,0.14781
4711.92479,0.14798
4709.99604,0.14771
4708.06729,0.14742
4706.13855,0.14713
4704.20980,0.14663
4702.28106,0.14620
4700.35231,0.14636
4698.42357,0.14689
4696.49482,0.14713
4694.56608,0.14699
4692.63733,0.14695
4690.70859,0.14707
4688.77984,0.14704
4686.85110,0.14693
4684.92235,0.14668
4682.99361,0.14617
4681.06486,0.14595
4679.13612,0.14626
4677.20737,0.14664
4675.27862,0.14687
4673.34988,0.14696
4671.42113,0.14675
4669.49239,0.14649
4667.56364,0.14664
4665.63490,0.14713
4663.70615,0.14763
4661.77741,0.14782
4659.84866,0.14774
4657.91992,0.14762
4655.99117,0.14763
4654.06243,0.14795
4652.13368,0.14847
4650.20494,0.14892
4648.27619,0.14933
4646.34745,0.14968
4644.41870,0.14983
4642.48995,0.14978
4640.56121,0.14975
4638.63246,0.14980
4636.70372,0.14967
4634.77497,0.14939
4632.84623,0.14930
4630.91748,0.14933
4628.98874,0.14932
4627.05999,0.14950
4625.13125,0.14987
4623.20250,0.14993
4621.27376,0.14968
4619.34501,0.14977
4617.41627,0.15027
4615.48752,0.15075
4613.55877,0.15113
4611.63003,0.15141
4609.70128,0.15164
4607.77254,0.15184
4605.84379,0.15202
4603.91505,0.15250
4601.98630,0.15299
4600.05756,0.15291
4598.12881,0.15260
4596.20007,0.15241
4594.27132,0.15216
4592.34258,0.15218
4590.41383,0.15265
4588.48509,0.15304
4586.55634,0.15308
4584.62760,0.15301
4582.69885,0.15319
4580.77010,0.15352
4578.84136,0.15357
4576.91261,0.15364
4574.98387,0.15408
4573.05512,0.15438
4571.12638,0.15430
4569.19763,0.15414
4567.26889,0.15393
4565.34014,0.15357
4563.41140,0.15332
4561.48265,0.15341
4559.55391,0.15369
4557.62516,0.15393
4555.69642,0.15416
4553.76767,0.15452
4551.83893,0.15470
4549.91018,0.15457
4547.98143,0.15448
4546.05269,0.15456
4544.12394,0.15466
4542.19520,0.15476
4540.26645,0.15480
4538.33771,0.15456
4536.40896,0.15402
4534.48022,0.15344
4532.55147,0.15316
4530.62273,0.15333
4528.69398,0.15377
4526.76524,0.15422
4524.83649,0.15464
4522.90775,0.15498
4520.97900,0.15514
4519.05025,0.15500
4517.12151,0.15462
4515.19276,0.15444
4513.26402,0.15474
4511.33527,0.15516
4509.40653,0.15543
4507.47778,0.15559
4505.54904,0.15550
4503.62029,0.15517
4501.69155,0.15487
4499.76280,0.15477
4497.83406,0.15478
4495.90531,0.15472
4493.97657,0.15452
4492.04782,0.15410
4490.11908,0.15365
4488.19033,0.15331
4486.26158,0.15288
4484.33284,0.15223
4482.40409,0.15172
4480.47535,0.15141
4478.54660,0.15083
4476.61786,0.14966
4474.68911,0.14833
4472.76037,0.14768
4470.83162,0.14772
4468.90288,0.14766
4466.97413,0.14713
4465.04539,0.14638
4463.11664,0.14550
4461.18790,0.14446
4459.25915,0.14366
4457.33041,0.14332
4455.40166,0.14281
4453.47291,0.14183
4451.54417,0.14097
4449.61542,0.14035
4447.68668,0.13984
4445.75793,0.13950
4443.82919,0.13897
4441.90044,0.13801
4439.97170,0.13725
4438.04295,0.13708
4436.11421,0.13690
4434.18546,0.13638
4432.25672,0.13584
4430.32797,0.13544
4428.39923,0.13505
4426.47048,0.13466
4424.54173,0.13443
4422.61299,0.13436
4420.68424,0.13425
4418.75550,0.13388
4416.82675,0.13343
4414.89801,0.13329
4412.96926,0.13349
4411.04052,0.13365
4409.11177,0.13353
4407.18303,0.13332
4405.25428,0.13328
4403.32554,0.13350
4401.39679,0.13377
4399.46805,0.13345
4397.53930,0.13255
4395.61056,0.13203
4393.68181,0.13237
4391.75306,0.13304
4389.82432,0.13341
4387.89557,0.13338
4385.96683,0.13322
4384.03808,0.13322
4382.10934,0.13318
4380.18059,0.13294
4378.25185,0.13299
4376.32310,0.13338
4374.39436,0.13355
4372.46561,0.13334
4370.53687,0.13298
4368.60812,0.13258
4366.67938,0.13233
4364.75063,0.13240
4362.82189,0.13261
4360.89314,0.13268
4358.96439,0.13252
4357.03565,0.13244
4355.10690,0.13256
4353.17816,0.13253
4351.24941,0.13212
4349.32067,0.13138
4347.39192,0.13062
4345.46318,0.13023
4343.53443,0.13013
4341.60569,0.12991
4339.67694,0.12939
4337.74820,0.12891
4335.81945,0.12881
4333.89071,0.12881
4331.96196,0.12861
4330.03321,0.12828
4328.10447,0.12796
4326.17572,0.12759
4324.24698,0.12734
4322.31823,0.12784
4320.38949,0.12894
4318.46074,0.12973
4316.53200,0.13019
4314.60325,0.13075
4312.67451,0.13116
4310.74576,0.13099
4308.81702,0.13044
4306.88827,0.13015
4304.95953,0.13024
4303.03078,0.13025
4301.10204,0.13020
4299.17329,0.13047
4297.24454,0.13098
4295.31580,0.13132
4293.38705,0.13137
4291.45831,0.13127
4289.52956,0.13111
4287.60082,0.13095
4285.67207,0.13080
4283.74333,0.13060
4281.81458,0.13040
4279.88584,0.13034
4277.95709,0.13032
4276.02835,0.13006
4274.09960,0.12962
4272.17086,0.12926
4270.24211,0.12919
4268.31336,0.12933
4266.38462,0.12945
4264.45587,0.12951
4262.52713,0.12931
4260.59838,0.12874
4258.66964,0.12837
4256.74089,0.12852
4254.81215,0.12886
4252.88340,0.12928
4250.95466,0.12979
4249.02591,0.13009
4247.09717,0.13025
4245.16842,0.13066
4243.23968,0.13119
4241.31093,0.13139
4239.38219,0.13144
4237.45344,0.13184
4235.52469,0.13253
4233.59595,0.13289
4231.66720,0.13279
4229.73846,0.13255
4227.80971,0.13222
4225.88097,0.13197
4223.95222,0.13213
4222.02348,0.13255
4220.09473,0.13281
4218.16599,0.13304
4216.23724,0.13355
4214.30850,0.13391
4212.37975,0.13371
4210.45101,0.13331
4208.52226,0.13326
4206.59352,0.13353
4204.66477,0.13368
4202.73602,0.13354
4200.80728,0.13335
4198.87853,0.13324
4196.94979,0.13324
4195.02104,0.13342
4193.09230,0.13368
4191.16355,0.13361
4189.23481,0.13311
4187.30606,0.13276
4185.37732,0.13305
4183.44857,0.13349
4181.51983,0.13347
4179.59108,0.13341
4177.66234,0.13374
4175.73359,0.13397
4173.80484,0.13371
4171.87610,0.13356
4169.94735,0.13394
4168.01861,0.13432
4166.08986,0.13431
4164.16112,0.13420
4162.23237,0.13416
4160.30363,0.13391
4158.37488,0.13367
4156.44614,0.13382
4154.51739,0.13385
4152.58865,0.13329
4150.65990,0.13262
4148.73116,0.13224
4146.80241,0.13201
4144.87367,0.13179
4142.94492,0.13157
4141.01617,0.13146
4139.08743,0.13152
4137.15868,0.13147
4135.22994,0.13120
4133.30119,0.13107
4131.37245,0.13098
4129.44370,0.13062
4127.51496,0.13008
4125.58621,0.12972
4123.65747,0.12975
4121.72872,0.12979
4119.79998,0.12948
4117.87123,0.12896
4115.94249,0.12852
4114.01374,0.12835
4112.08500,0.12831
4110.15625,0.12811
4108.22750,0.12779
4106.29876,0.12737
4104.37001,0.12694
4102.44127,0.12683
4100.51252,0.12704
4098.58378,0.12710
4096.65503,0.12688
4094.72629,0.12653
4092.79754,0.12604
4090.86880,0.12558
4088.94005,0.12546
4087.01131,0.12551
4085.08256,0.12528
4083.15382,0.12466
4081.22507,0.12402
4079.29632,0.12358
4077.36758,0.12326
4075.43883,0.12303
4073.51009,0.12282
4071.58134,0.12238
4069.65260,0.12181
4067.72385,0.12140
4065.79511,0.12111
4063.86636,0.12093
4061.93762,0.12070
4060.00887,0.12029
4058.08013,0.12006
4056.15138,0.12007
4054.22264,0.11997
4052.29389,0.11975
4050.36515,0.11954
4048.43640,0.11934
4046.50765,0.11921
4044.57891,0.11903
4042.65016,0.11852
4040.72142,0.11782
4038.79267,0.11740
4036.86393,0.11731
4034.93518,0.11747
4033.00644,0.11770
4031.07769,0.11760
4029.14895,0.11728
4027.22020,0.11713
4025.29146,0.11709
4023.36271,0.11685
4021.43397,0.11634
4019.50522,0.11598
4017.57648,0.11609
4015.64773,0.11636
4013.71898,0.11655
4011.79024,0.11667
4009.86149,0.11662
4007.93275,0.11635
4006.00400,0.11607
4004.07526,0.11594
4002.14651,0.11616
4000.21777,0.11654
3998.28902,0.11666
3996.36028,0.11659
3994.43153,0.11664
3992.50279,0.11675
3990.57404,0.11683
3988.64530,0.11700
3986.71655,0.11726
3984.78780,0.11734
3982.85906,0.11720
3980.93031,0.11718
3979.00157,0.11744
3977.07282,0.11771
3975.14408,0.11771
3973.21533,0.11759
3971.28659,0.11773
3969.35784,0.11802
3967.42910,0.11807
3965.50035,0.11809
3963.57161,0.11843
3961.64286,0.11903
3959.71412,0.11944
3957.78537,0.11940
3955.85663,0.11918
3953.92788,0.11926
3951.99913,0.11968
3950.07039,0.11994
3948.14164,0.11998
3946.21290,0.12036
3944.28415,0.12107
3942.35541,0.12134
3940.42666,0.12121
3938.49792,0.12145
3936.56917,0.12196
3934.64043,0.12209
3932.71168,0.12195
3930.78294,0.12198
3928.85419,0.12218
3926.92545,0.12237
3924.99670,0.12278
3923.06795,0.12339
3921.13921,0.12365
3919.21046,0.12355
3917.28172,0.12371
3915.35297,0.12433
3913.42423,0.12492
3911.49548,0.12518
3909.56674,0.12531
3907.63799,0.12555
3905.70925,0.12584
3903.78050,0.12591
3901.85176,0.12574
3899.92301,0.12573
3897.99427,0.12610
3896.06552,0.12654
3894.13678,0.12670
3892.20803,0.12671
3890.27928,0.12700
3888.35054,0.12762
3886.42179,0.12818
3884.49305,0.12847
3882.56430,0.12861
3880.63556,0.12855
3878.70681,0.12850
3876.77807,0.12877
3874.84932,0.12932
3872.92058,0.12988
3870.99183,0.13002
3869.06309,0.12981
3867.13434,0.12980
3865.20560,0.13004
3863.27685,0.13035
3861.34811,0.13073
3859.41936,0.13120
3857.49061,0.13155
3855.56187,0.13144
3853.63312,0.13117
3851.70438,0.13166
3849.77563,0.13243
3847.84689,0.13284
3845.91814,0.13308
3843.98940,0.13318
3842.06065,0.13309
3840.13191,0.13309
3838.20316,0.13324
3836.27442,0.13331
3834.34567,0.13321
3832.41693,0.13315
3830.48818,0.13343
3828.55943,0.13387
3826.63069,0.13393
3824.70194,0.13373
3822.77320,0.13363
3820.84445,0.13347
3818.91571,0.13331
3816.98696,0.13347
3815.05822,0.13371
3813.12947,0.13382
3811.20073,0.13382
3809.27198,0.13373
3807.34324,0.13355
3805.41449,0.13359
3803.48575,0.13388
3801.55700,0.13401
3799.62826,0.13397
3797.69951,0.13402
3795.77076,0.13402
3793.84202,0.13389
3791.91327,0.13377
3789.98453,0.13372
3788.05578,0.13362
3786.12704,0.13346
3784.19829,0.13348
3782.26955,0.13346
3780.34080,0.13302
3778.41206,0.13256
3776.48331,0.13239
3774.55457,0.13217
3772.62582,0.13169
3770.69708,0.13114
3768.76833,0.13094
3766.83959,0.13111
3764.91084,0.13128
3762.98209,0.13129
3761.05335,0.13120
3759.12460,0.13102
3757.19586,0.13075
3755.26711,0.13052
3753.33837,0.13036
3751.40962,0.13016
3749.48088,0.12988
3747.55213,0.12966
3745.62339,0.12943
3743.69464,0.12899
3741.76590,0.12861
3739.83715,0.12846
3737.90841,0.12827
3735.97966,0.12785
3734.05091,0.12732
3732.12217,0.12688
3730.19342,0.12652
3728.26468,0.12604
3726.33593,0.12535
3724.40719,0.12462
3722.47844,0.12393
3720.54970,0.12331
3718.62095,0.12288
3716.69221,0.12259
3714.76346,0.12208
3712.83472,0.12110
3710.90597,0.11986
3708.97723,0.11875
3707.04848,0.11790
3705.11974,0.11713
3703.19099,0.11605
3701.26224,0.11470
3699.33350,0.11355
3697.40475,0.11254
3695.47601,0.11141
3693.54726,0.11004
3691.61852,0.10837
3689.68977,0.10645
3687.76103,0.10449
3685.83228,0.10285
3683.90354,0.10147
3681.97479,0.09944
3680.04605,0.09557
3678.11730,0.09029
3676.18856,0.08651
3674.25981,0.08647
3672.33107,0.08773
3670.40232,0.08794
3668.47357,0.08701
3666.54483,0.08572
3664.61608,0.08449
3662.68734,0.08317
3660.75859,0.08173
3658.82985,0.08040
3656.90110,0.07919
3654.97236,0.07818
3653.04361,0.07746
3651.11487,0.07649
3649.18612,0.07501
3647.25738,0.07368
3645.32863,0.07282
3643.39989,0.07217
3641.47114,0.07165
3639.54239,0.07125
3637.61365,0.07067
3635.68490,0.06977
3633.75616,0.06904
3631.82741,0.06861
3629.89867,0.06801
3627.96992,0.06729
3626.04118,0.06670
3624.11243,0.06614
3622.18369,0.06555
3620.25494,0.06483
3618.32620,0.06410
3616.39745,0.06360
3614.46871,0.06316
3612.53996,0.06268
3610.61122,0.06224
3608.68247,0.06189
3606.75372,0.06146
3604.82498,0.06082
3602.89623,0.06029
3600.96749,0.06019
3599.03874,0.06017
3597.11000,0.05968
3595.18125,0.05898
3593.25251,0.05862
3591.32376,0.05854
3589.39502,0.05846
3587.46627,0.05841
3585.53753,0.05819
3583.60878,0.05760
3581.68004,0.05694
3579.75129,0.05655
3577.82254,0.05647
3575.89380,0.05648
3573.96505,0.05636
3572.03631,0.05607
3570.10756,0.05560
3568.17882,0.05500
3566.25007,0.05470
3564.32133,0.05471
3562.39258,0.05464
3560.46384,0.05459
3558.53509,0.05467
3556.60635,0.05460
3554.67760,0.05431
3552.74886,0.05409
3550.82011,0.05399
3548.89137,0.05374
3546.96262,0.05346
3545.03387,0.05351
3543.10513,0.05349
3541.17638,0.05310
3539.24764,0.05274
3537.31889,0.05260
3535.39015,0.05257
3533.46140,0.05255
3531.53266,0.05239
3529.60391,0.05222
3527.67517,0.05210
3525.74642,0.05184
3523.81768,0.05160
3521.88893,0.05160
3519.96019,0.05167
3518.03144,0.05164
3516.10270,0.05165
3514.17395,0.05168
3512.24520,0.05165
3510.31646,0.05171
3508.38771,0.05182
3506.45897,0.05177
3504.53022,0.05163
3502.60148,0.05159
3500.67273,0.05150
3498.74399,0.05122
3496.81524,0.05094
3494.88650,0.05083
3492.95775,0.05075
3491.02901,0.05071
3489.10026,0.05095
3487.17152,0.05137
3485.24277,0.05151
3483.31402,0.05133
3481.38528,0.05119
3479.45653,0.05126
3477.52779,0.05136
3475.59904,0.05130
3473.67030,0.05113
3471.74155,0.05106
3469.81281,0.05107
3467.88406,0.05103
3465.95532,0.05094
3464.02657,0.05098
3462.09783,0.05114
3460.16908,0.05119
3458.24034,0.05118
3456.31159,0.05118
3454.38285,0.05098
3452.45410,0.05080
3450.52535,0.05107
3448.59661,0.05150
3446.66786,0.05157
3444.73912,0.05126
3442.81037,0.05096
3440.88163,0.05093
3438.95288,0.05102
3437.02414,0.05110
3435.09539,0.05123
3433.16665,0.05130
3431.23790,0.05124
3429.30916,0.05119
3427.38041,0.05123
3425.45167,0.05130
3423.52292,0.05132
3421.59418,0.05137
3419.66543,0.05143
3417.73668,0.05137
3415.80794,0.05125
3413.87919,0.05122
3411.95045,0.05122
3410.02170,0.05110
3408.09296,0.05093
3406.16421,0.05085
3404.23547,0.05088
3402.30672,0.05103
3400.37798,0.05131
3398.44923,0.05140
3396.52049,0.05120
3394.59174,0.05114
3392.66300,0.05129
3390.73425,0.05125
3388.80550,0.05099
3386.87676,0.05081
3384.94801,0.05092
3383.01927,0.05124
3381.09052,0.05162
3379.16178,0.05180
3377.23303,0.05167
3375.30429,0.05136
3373.37554,0.05106
3371.44680,0.05105
3369.51805,0.05132
3367.58931,0.05156
3365.66056,0.05165
3363.73182,0.05143
3361.80307,0.05095
3359.87433,0.05071
3357.94558,0.05095
3356.01683,0.05127
3354.08809,0.05124
3352.15934,0.05113
3350.23060,0.05132
3348.30185,0.05157
3346.37311,0.05154
3344.44436,0.05142
3342.51562,0.05151
3340.58687,0.05164
3338.65813,0.05139
3336.72938,0.05086
3334.80064,0.05074
3332.87189,0.05122
3330.94315,0.05170
3329.01440,0.05169
3327.08566,0.05151
3325.15691,0.05160
3323.22816,0.05169
3321.29942,0.05163
3319.37067,0.05183
3317.44193,0.05222
3315.51318,0.05242
3313.58444,0.05230
3311.65569,0.05205
3309.72695,0.05218
3307.79820,0.05263
3305.86946,0.05277
3303.94071,0.05237
3302.01197,0.05196
3300.08322,0.05196
3298.15448,0.05211
3296.22573,0.05214
3294.29698,0.05220
3292.36824,0.05242
3290.43949,0.05267
3288.51075,0.05280
3286.58200,0.05276
3284.65326,0.05261
3282.72451,0.05251
3280.79577,0.05266
3278.86702,0.05279
3276.93828,0.05283
3275.00953,0.05300
3273.08079,0.05301
3271.15204,0.05274
3269.22330,0.05273
3267.29455,0.05303
3265.36581,0.05322
3263.43706,0.05349
3261.50831,0.05398
3259.57957,0.05429
3257.65082,0.05422
3255.72208,0.05398
3253.79333,0.05392
3251.86459,0.05415
3249.93584,0.05432
3248.00710,0.05427
3246.07835,0.05427
3244.14961,0.05445
3242.22086,0.05480
3240.29212,0.05511
3238.36337,0.05507
3236.43463,0.05481
3234.50588,0.05468
3232.57713,0.05467
3230.64839,0.05473
3228.71964,0.05488
3226.79090,0.05485
3224.86215,0.05463
3222.93341,0.05462
3221.00466,0.05489
3219.07592,0.05520
3217.14717,0.05532
3215.21843,0.05530
3213.28968,0.05533
3211.36094,0.05537
3209.43219,0.05536
3207.50345,0.05538
3205.57470,0.05552
3203.64596,0.05560
3201.71721,0.05550
3199.78846,0.05550
3197.85972,0.05564
3195.93097,0.05576
3194.00223,0.05595
3192.07348,0.05621
3190.14474,0.05629
3188.21599,0.05610
3186.28725,0.05601
3184.35850,0.05620
3182.42976,0.05653
3180.50101,0.05692
3178.57227,0.05725
3176.64352,0.05724
3174.71478,0.05686
3172.78603,0.05657
3170.85729,0.05679
3168.92854,0.05730
3166.99979,0.05755
3165.07105,0.05767
3163.14230,0.05798
3161.21356,0.05812
3159.28481,0.05785
3157.35607,0.05765
3155.42732,0.05788
3153.49858,0.05824
3151.56983,0.05831
3149.64109,0.05816
3147.71234,0.05814
3145.78360,0.05831
3143.85485,0.05852
3141.92611,0.05867
3139.99736,0.05879
3138.06861,0.05882
3136.13987,0.05879
3134.21112,0.05889
3132.28238,0.05909
3130.35363,0.05917
3128.42489,0.05913
3126.49614,0.05925
3124.56740,0.05943
3122.63865,0.05951
3120.70991,0.05969
3118.78116,0.05992
3116.85242,0.05998
3114.92367,0.05988
3112.99493,0.05983
3111.06618,0.05993
3109.13744,0.06003
3107.20869,0.06002
3105.27994,0.06009
3103.35120,0.06025
3101.42245,0.06014
3099.49371,0.05992
3097.56496,0.05993
3095.63622,0.06001
3093.70747,0.05994
3091.77873,0.05977
3089.84998,0.05973
3087.92124,0.06002
3085.99249,0.06028
3084.06375,0.06020
3082.13500,0.06005
3080.20626,0.06002
3078.27751,0.06014
3076.34877,0.06038
3074.42002,0.06036
3072.49127,0.06016
3070.56253,0.06038
3068.63378,0.06072
3066.70504,0.06067
3064.77629,0.06053
3062.84755,0.06072
3060.91880,0.06110
3058.99006,0.06129
3057.06131,0.06121
3055.13257,0.06108
3053.20382,0.06106
3051.27508,0.06113
3049.34633,0.06124
3047.41759,0.06139
3045.48884,0.06158
3043.56009,0.06161
3041.63135,0.06133
3039.70260,0.06109
3037.77386,0.06120
3035.84511,0.06139
3033.91637,0.06134
3031.98762,0.06109
3030.05888,0.06091
3028.13013,0.06088
3026.20139,0.06084
3024.27264,0.06058
3022.34390,0.06020
3020.41515,0.06020
3018.48641,0.06055
3016.55766,0.06057
3014.62892,0.06013
3012.70017,0.05963
3010.77142,0.05909
3008.84268,0.05847
3006.91393,0.05800
3004.98519,0.05784
3003.05644,0.05796
3001.12770,0.05809
2999.19895,0.05789
2997.27021,0.05740
2995.34146,0.05697
2993.41272,0.05676
2991.48397,0.05668
2989.55523,0.05645
2987.62648,0.05608
2985.69774,0.05582
2983.76899,0.05546
2981.84025,0.05483
2979.91150,0.05426
2977.98275,0.05388
2976.05401,0.05369
2974.12526,0.05357
2972.19652,0.05329
2970.26777,0.05288
2968.33903,0.05258
2966.41028,0.05249
2964.48154,0.05252
2962.55279,0.05256
2960.62405,0.05260
2958.69530,0.05260
2956.76656,0.05257
2954.83781,0.05246
2952.90907,0.05236
2950.98032,0.05241
2949.05157,0.05241
2947.12283,0.05214
2945.19408,0.05188
2943.26534,0.05184
2941.33659,0.05177
2939.40785,0.05164
2937.47910,0.05165
2935.55036,0.05173
2933.62161,0.05189
2931.69287,0.05231
2929.76412,0.05276
2927.83538,0.05295
2925.90663,0.05310
2923.97789,0.05346
2922.04914,0.05392
2920.12040,0.05437
2918.19165,0.05481
2916.26290,0.05512
2914.33416,0.05529
2912.40541,0.05541
2910.47667,0.05549
2908.54792,0.05559
2906.61918,0.05577
2904.69043,0.05592
2902.76169,0.05592
2900.83294,0.05588
2898.90420,0.05594
2896.97545,0.05603
2895.04671,0.05601
2893.11796,0.05588
2891.18922,0.05572
2889.26047,0.05561
2887.33172,0.05559
2885.40298,0.05556
2883.47423,0.05561
2881.54549,0.05600
2879.61674,0.05642
2877.68800,0.05631
2875.75925,0.05578
2873.83051,0.05540
2871.90176,0.05541
2869.97302,0.05558
2868.04427,0.05573
2866.11553,0.05575
2864.18678,0.05550
2862.25804,0.05527
2860.32929,0.05539
2858.40055,0.05565
2856.47180,0.05584
2854.54305,0.05607
2852.61431,0.05659
2850.68556,0.05742
2848.75682,0.05824
2846.82807,0.05893
2844.89933,0.05957
2842.97058,0.06003
2841.04184,0.06014
2839.11309,0.06024
2837.18435,0.06068
2835.25560,0.06139
2833.32686,0.06217
2831.39811,0.06272
2829.46937,0.06296
2827.54062,0.06331
2825.61188,0.06401
2823.68313,0.06473
2821.75438,0.06518
2819.82564,0.06547
2817.89689,0.06584
2815.96815,0.06630
2814.03940,0.06665
2812.11066,0.06684
2810.18191,0.06717
2808.25317,0.06768
2806.32442,0.06820
2804.39568,0.06863
2802.46693,0.06881
2800.53819,0.06882
2798.60944,0.06890
2796.68070,0.06913
2794.75195,0.06940
2792.82320,0.06967
2790.89446,0.06995
2788.96571,0.07019
2787.03697,0.07050
2785.10822,0.07084
2783.17948,0.07096
2781.25073,0.07091
2779.32199,0.07086
2777.39324,0.07089
2775.46450,0.07114
2773.53575,0.07160
2771.60701,0.07186
2769.67826,0.07178
2767.74952,0.07182
2765.82077,0.07217
2763.89203,0.07250
2761.96328,0.07252
2760.03453,0.07236
2758.10579,0.07220
2756.17704,0.07218
2754.24830,0.07240
2752.31955,0.07259
2750.39081,0.07251
2748.46206,0.07235
2746.53332,0.07240
2744.60457,0.07263
2742.67583,0.07290
2740.74708,0.07306
2738.81834,0.07301
2736.88959,0.07280
2734.96085,0.07260
2733.03210,0.07251
2731.10336,0.07258
2729.17461,0.07267
2727.24586,0.07283
2725.31712,0.07317
2723.38837,0.07358
2721.45963,0.07387
2719.53088,0.07395
2717.60214,0.07402
2715.67339,0.07437
2713.74465,0.07487
2711.81590,0.07521
2709.88716,0.07529
2707.95841,0.07519
2706.02967,0.07506
2704.10092,0.07506
2702.17218,0.07530
2700.24343,0.07576
2698.31468,0.07623
2696.38594,0.07657
2694.45719,0.07673
2692.52845,0.07671
2690.59970,0.07668
2688.67096,0.07682
2686.74221,0.07704
2684.81347,0.07716
2682.88472,0.07718
2680.95598,0.07724
2679.02723,0.07731
2677.09849,0.07734
2675.16974,0.07749
2673.24100,0.07772
2671.31225,0.07770
2669.38351,0.07751
2667.45476,0.07751
2665.52601,0.07768
2663.59727,0.07779
2661.66852,0.07780
2659.73978,0.07776
2657.81103,0.07779
2655.88229,0.07802
2653.95354,0.07831
2652.02480,0.07847
2650.09605,0.07855
2648.16731,0.07866
2646.23856,0.07883
2644.30982,0.07902
2642.38107,0.07915
2640.45233,0.07926
2638.52358,0.07945
2636.59484,0.07967
2634.66609,0.07990
2632.73734,0.08011
2630.80860,0.08021
2628.87985,0.08027
2626.95111,0.08034
2625.02236,0.08045
2623.09362,0.08065
2621.16487,0.08090
2619.23613,0.08110
2617.30738,0.08133
2615.37864,0.08158
2613.44989,0.08171
2611.52115,0.08177
2609.59240,0.08185
2607.66366,0.08195
2605.73491,0.08213
2603.80616,0.08240
2601.87742,0.08265
2599.94867,0.08290
2598.01993,0.08312
2596.09118,0.08322
2594.16244,0.08327
2592.23369,0.08330
2590.30495,0.08332
2588.37620,0.08348
2586.44746,0.08370
2584.51871,0.08381
2582.58997,0.08376
2580.66122,0.08370
2578.73248,0.08377
2576.80373,0.08380
2574.87499,0.08362
2572.94624,0.08342
2571.01749,0.08335
2569.08875,0.08325
2567.16000,0.08294
2565.23126,0.08259
2563.30251,0.08243
2561.37377,0.08246
2559.44502,0.08247
2557.51628,0.08227
2555.58753,0.08197
2553.65879,0.08187
2551.73004,0.08208
2549.80130,0.08258
2547.87255,0.08311
2545.94381,0.08346
2544.01506,0.08377
2542.08631,0.08420
2540.15757,0.08467
2538.22882,0.08508
2536.30008,0.08537
2534.37133,0.08559
2532.44259,0.08583
2530.51384,0.08613
2528.58510,0.08643
2526.65635,0.08666
2524.72761,0.08694
2522.79886,0.08744
2520.87012,0.08793
2518.94137,0.08815
2517.01263,0.08825
2515.08388,0.08845
2513.15514,0.08883
2511.22639,0.08934
2509.29764,0.08973
2507.36890,0.08986
2505.44015,0.08998
2503.51141,0.09028
2501.58266,0.09066
2499.65392,0.09098
2497.72517,0.09124
2495.79643,0.09144
2493.86768,0.09163
2491.93894,0.09188
2490.01019,0.09214
2488.08145,0.09239
2486.15270,0.09274
2484.22396,0.09316
2482.29521,0.09352
2480.36647,0.09378
2478.43772,0.09395
2476.50897,0.09409
2474.58023,0.09431
2472.65148,0.09456
2470.72274,0.09473
2468.79399,0.09489
2466.86525,0.09518
2464.93650,0.09552
2463.00776,0.09575
2461.07901,0.09593
2459.15027,0.09621
2457.22152,0.09655
2455.29278,0.09679
2453.36403,0.09680
2451.43529,0.09672
2449.50654,0.09679
2447.57779,0.09698
2445.64905,0.09712
2443.72030,0.09728
2441.79156,0.09751
2439.86281,0.09772
2437.93407,0.09794
2436.00532,0.09808
2434.07658,0.09805
2432.14783,0.09806
2430.21909,0.09823
2428.29034,0.09840
2426.36160,0.09860
2424.43285,0.09892
2422.50411,0.09915
2420.57536,0.09919
2418.64662,0.09929
2416.71787,0.09955
2414.78912,0.09977
2412.86038,0.09986
2410.93163,0.10009
2409.00289,0.10059
2407.07414,0.10111
2405.14540,0.10130
2403.21665,0.10133
2401.28791,0.10154
2399.35916,0.10184
2397.43042,0.10201
2395.50167,0.10211
2393.57293,0.10229
2391.64418,0.10248
2389.71544,0.10255
2387.78669,0.10256
2385.85795,0.10259
2383.92920,0.10276
2382.00045,0.10308
2380.07171,0.10336
2378.14296,0.10356
2376.21422,0.10377
2374.28547,0.10399
2372.35673,0.10420
2370.42798,0.10446
2368.49924,0.10473
2366.57049,0.10486
2364.64175,0.10492
2362.71300,0.10524
2360.78426,0.10570
2358.85551,0.10594
2356.92677,0.10596
2354.99802,0.10584
2353.06927,0.10575
2351.14053,0.10592
2349.21178,0.10621
2347.28304,0.10635
2345.35429,0.10632
2343.42555,0.10622
2341.49680,0.10615
2339.56806,0.10610
2337.63931,0.10608
2335.71057,0.10622
2333.78182,0.10654
2331.85308,0.10683
2329.92433,0.10700
2327.99559,0.10715
2326.06684,0.10734
2324.13810,0.10756
2322.20935,0.10777
2320.28060,0.10788
2318.35186,0.10796
2316.42311,0.10813
2314.49437,0.10818
2312.56562,0.10809
2310.63688,0.10808
2308.70813,0.10807
2306.77939,0.10791
2304.85064,0.10773
2302.92190,0.10768
2300.99315,0.10778
2299.06441,0.10790
2297.13566,0.10792
2295.20692,0.10778
2293.27817,0.10750
2291.34943,0.10732
2289.42068,0.10738
2287.49193,0.10744
2285.56319,0.10728
2283.63444,0.10703
2281.70570,0.10694
2279.77695,0.10695
2277.84821,0.10685
2275.91946,0.10669
2273.99072,0.10668
2272.06197,0.10671
2270.13323,0.10657
2268.20448,0.10627
2266.27574,0.10606
2264.34699,0.10608
2262.41825,0.10613
2260.48950,0.10594
2258.56075,0.10564
2256.63201,0.10547
2254.70326,0.10535
2252.77452,0.10513
2250.84577,0.10484
2248.91703,0.10457
2246.98828,0.10429
2245.05954,0.10400
2243.13079,0.10380
2241.20205,0.10366
2239.27330,0.10359
2237.34456,0.10372
2235.41581,0.10401
2233.48707,0.10419
2231.55832,0.10409
2229.62958,0.10395
2227.70083,0.10388
2225.77208,0.10384
2223.84334,0.10384
2221.91459,0.10385
2219.98585,0.10378
2218.05710,0.10363
2216.12836,0.10348
2214.19961,0.10332
2212.27087,0.10317
2210.34212,0.10307
2208.41338,0.10301
2206.48463,0.10299
2204.55589,0.10288
2202.62714,0.10258
2200.69840,0.10230
2198.76965,0.10219
2196.84090,0.10203
2194.91216,0.10175
2192.98341,0.10145
2191.05467,0.10119
2189.12592,0.10100
2187.19718,0.10076
2185.26843,0.10034
2183.33969,0.09994
2181.41094,0.09974
2179.48220,0.09953
2177.55345,0.09903
2175.62471,0.09843
2173.69596,0.09797
2171.76722,0.09748
2169.83847,0.09705
2167.90973,0.09686
2165.98098,0.09676
2164.05223,0.09656
2162.12349,0.09615
2160.19474,0.09558
2158.26600,0.09513
2156.33725,0.09492
2154.40851,0.09478
2152.47976,0.09463
2150.55102,0.09443
2148.62227,0.09425
2146.69353,0.09411
2144.76478,0.09393
2142.83604,0.09373
2140.90729,0.09368
2138.97855,0.09389
2137.04980,0.09423
2135.12106,0.09437
2133.19231,0.09418
2131.26356,0.09406
2129.33482,0.09427
2127.40607,0.09456
2125.47733,0.09459
2123.54858,0.09447
2121.61984,0.09452
2119.69109,0.09476
2117.76235,0.09488
2115.83360,0.09490
2113.90486,0.09495
2111.97611,0.09506
2110.04737,0.09522
2108.11862,0.09534
2106.18988,0.09540
2104.26113,0.09559
2102.33238,0.09587
2100.40364,0.09604
2098.47489,0.09610
2096.54615,0.09617
2094.61740,0.09630
2092.68866,0.09635
2090.75991,0.09640
2088.83117,0.09668
2086.90242,0.09700
2084.97368,0.09709
2083.04493,0.09716
2081.11619,0.09731
2079.18744,0.09735
2077.25870,0.09725
2075.32995,0.09706
2073.40121,0.09686
2071.47246,0.09688
2069.54371,0.09709
2067.61497,0.09717
2065.68622,0.09705
2063.75748,0.09680
2061.82873,0.09663
2059.89999,0.09665
2057.97124,0.09688
2056.04250,0.09723
2054.11375,0.09747
2052.18501,0.09748
2050.25626,0.09741
2048.32752,0.09750
2046.39877,0.09774
2044.47003,0.09795
2042.54128,0.09790
2040.61254,0.09771
2038.68379,0.09777
2036.75504,0.09807
2034.82630,0.09825
2032.89755,0.09823
2030.96881,0.09822
2029.04006,0.09835
2027.11132,0.09862
2025.18257,0.09895
2023.25383,0.09928
2021.32508,0.09949
2019.39634,0.09957
2017.46759,0.09977
2015.53885,0.10007
2013.61010,0.10029
2011.68136,0.10042
2009.75261,0.10045
2007.82386,0.10033
2005.89512,0.10020
2003.96637,0.10021
2002.03763,0.10026
2000.10888,0.10024
1998.18014,0.10011
1996.25139,0.09996
1994.32265,0.09983
1992.39390,0.09971
1990.46516,0.09969
1988.53641,0.09977
1986.60767,0.09980
1984.67892,0.09977
1982.75018,0.09980
1980.82143,0.09991
1978.89269,0.09998
1976.96394,0.09995
1975.03519,0.09988
1973.10645,0.09975
1971.17770,0.09955
1969.24896,0.09945
1967.32021,0.09938
1965.39147,0.09915
1963.46272,0.09880
1961.53398,0.09850
1959.60523,0.09837
1957.67649,0.09838
1955.74774,0.09832
1953.81900,0.09831
1951.89025,0.09850
1949.96151,0.09877
1948.03276,0.09904
1946.10402,0.09940
1944.17527,0.09992
1942.24652,0.10043
1940.31778,0.10083
1938.38903,0.10121
1936.46029,0.10163
1934.53154,0.10204
1932.60280,0.10234
1930.67405,0.10257
1928.74531,0.10282
1926.81656,0.10309
1924.88782,0.10337
1922.95907,0.10361
1921.03033,0.10374
1919.10158,0.10380
1917.17284,0.10383
1915.24409,0.10397
1913.31534,0.10427
1911.38660,0.10451
1909.45785,0.10455
1907.52911,0.10451
1905.60036,0.10448
1903.67162,0.10443
1901.74287,0.10437
1899.81413,0.10420
1897.88538,0.10394
1895.95664,0.10376
1894.02789,0.10366
1892.09915,0.10359
1890.17040,0.10342
1888.24166,0.10301
1886.31291,0.10244
1884.38417,0.10202
1882.45542,0.10185
1880.52667,0.10169
1878.59793,0.10137
1876.66918,0.10105
1874.74044,0.10083
1872.81169,0.10064
1870.88295,0.10038
1868.95420,0.09999
1867.02546,0.09943
1865.09671,0.09877
1863.16797,0.09807
1861.23922,0.09735
1859.31048,0.09664
1857.38173,0.09597
1855.45299,0.09530
1853.52424,0.09458
1851.59549,0.09386
1849.66675,0.09325
1847.73800,0.09278
1845.80926,0.09231
1843.88051,0.09180
1841.95177,0.09130
1840.02302,0.09074
1838.09428,0.09009
1836.16553,0.08944
1834.23679,0.08876
1832.30804,0.08810
1830.37930,0.08753
1828.45055,0.08701
1826.52181,0.08644
1824.59306,0.08565
1822.66432,0.08480
1820.73557,0.08415
1818.80682,0.08347
1816.87808,0.08253
1814.94933,0.08154
1813.02059,0.08060
1811.09184,0.07951
1809.16310,0.07833
1807.23435,0.07729
1805.30561,0.07628
1803.37686,0.07507
1801.44812,0.07370
1799.51937,0.07229
1797.59063,0.07100
1795.66188,0.06979
1793.73314,0.06831
1791.80439,0.06648
1789.87565,0.06483
1787.94690,0.06346
1786.01815,0.06208
1784.08941,0.06063
1782.16066,0.05913
1780.23192,0.05752
1778.30317,0.05583
1776.37443,0.05415
1774.44568,0.05243
1772.51694,0.05057
1770.58819,0.04874
1768.65945,0.04698
1766.73070,0.04528
1764.80196,0.04385
1762.87321,0.04249
1760.94447,0.04099
1759.01572,0.03949
1757.08697,0.03797
1755.15823,0.03658
1753.22948,0.03568
1751.30074,0.03528
1749.37199,0.03528
1747.44325,0.03562
1745.51450,0.03626
1743.58576,0.03718
1741.65701,0.03830
1739.72827,0.03963
1737.79952,0.04114
1735.87078,0.04278
1733.94203,0.04460
1732.01329,0.04639
1730.08454,0.04803
1728.15580,0.04968
1726.22705,0.05118
1724.29830,0.05245
1722.36956,0.05362
1720.44081,0.05478
1718.51207,0.05584
1716.58332,0.05645
1714.65458,0.05657
1712.72583,0.05655
1710.79709,0.05643
1708.86834,0.05613
1706.93960,0.05569
1705.01085,0.05513
1703.08211,0.05443
1701.15336,0.05339
1699.22462,0.05214
1697.29587,0.05108
1695.36713,0.05001
1693.43838,0.04903
1691.50963,0.04813
1689.58089,0.04703
1687.65214,0.04582
1685.72340,0.04451
1683.79465,0.04305
1681.86591,0.04199
1679.93716,0.04137
1678.00842,0.04087
1676.07967,0.04056
1674.15093,0.04071
1672.22218,0.04145
1670.29344,0.04271
1668.36469,0.04409
1666.43595,0.04544
1664.50720,0.04702
1662.57845,0.04893
1660.64971,0.05075
1658.72096,0.05228
1656.79222,0.05361
1654.86347,0.05479
1652.93473,0.05615
1651.00598,0.05768
1649.07724,0.05911
1647.14849,0.06066
1645.21975,0.06221
1643.29100,0.06347
1641.36226,0.06446
1639.43351,0.06522
1637.50477,0.06568
1635.57602,0.06585
1633.64728,0.06586
1631.71853,0.06574
1629.78978,0.06547
1627.86104,0.06518
1625.93229,0.06494
1624.00355,0.06450
1622.07480,0.06383
1620.14606,0.06329
1618.21731,0.06287
1616.28857,0.06240
1614.35982,0.06192
1612.43108,0.06158
1610.50233,0.06127
1608.57359,0.06079
1606.64484,0.06004
1604.71610,0.05919
1602.78735,0.05855
1600.85861,0.05825
1598.92986,0.05836
1597.00111,0.05892
1595.07237,0.05967
1593.14362,0.06020
1591.21488,0.06035
1589.28613,0.06019
1587.35739,0.05980
1585.42864,0.05913
1583.49990,0.05834
1581.57115,0.05797
1579.64241,0.05848
1577.71366,0.05974
1575.78492,0.06123
1573.85617,0.06246
1571.92743,0.06353
1569.99868,0.06445
1568.06993,0.06502
1566.14119,0.06545
1564.21244,0.06593
1562.28370,0.06646
1560.35495,0.06725
1558.42621,0.06842
1556.49746,0.06943
1554.56872,0.07025
1552.63997,0.07109
1550.71123,0.07199
1548.78248,0.07288
1546.85374,0.07348
1544.92499,0.07345
1542.99625,0.07269
1541.06750,0.07114
1539.13876,0.06883
1537.21001,0.06695
1535.28126,0.06587
1533.35252,0.06511
1531.42377,0.06461
1529.49503,0.06436
1527.56628,0.06412
1525.63754,0.06386
1523.70879,0.06369
1521.78005,0.06337
1519.85130,0.06259
1517.92256,0.06159
1515.99381,0.06087
1514.06507,0.06062
1512.13632,0.06049
1510.20758,0.06022
1508.27883,0.05983
1506.35008,0.05916
1504.42134,0.05844
1502.49259,0.05807
1500.56385,0.05787
1498.63510,0.05739
1496.70636,0.05639
1494.77761,0.05538
1492.84887,0.05476
1490.92012,0.05443
1488.99138,0.05436
1487.06263,0.05465
1485.13389,0.05509
1483.20514,0.05523
1481.27640,0.05488
1479.34765,0.05428
1477.41891,0.05366
1475.49016,0.05291
1473.56141,0.05178
1471.63267,0.05033
1469.70392,0.04934
1467.77518,0.04900
1465.84643,0.04876
1463.91769,0.04857
1461.98894,0.04876
1460.06020,0.04906
1458.13145,0.04918
1456.20271,0.04917
1454.27396,0.04927
1452.34522,0.04958
1450.41647,0.04990
1448.48773,0.05026
1446.55898,0.05078
1444.63024,0.05132
1442.70149,0.05174
1440.77274,0.05206
1438.84400,0.05232
1436.91525,0.05252
1434.98651,0.05263
1433.05776,0.05265
1431.12902,0.05247
1429.20027,0.05201
1427.27153,0.05143
1425.34278,0.05093
1423.41404,0.05049
1421.48529,0.05009
1419.55655,0.04972
1417.62780,0.04930
1415.69906,0.04887
1413.77031,0.04868
1411.84156,0.04878
1409.91282,0.04890
1407.98407,0.04877
1406.05533,0.04845
1404.12658,0.04810
1402.19784,0.04780
1400.26909,0.04757
1398.34035,0.04728
1396.41160,0.04694
1394.48286,0.04659
1392.55411,0.04621
1390.62537,0.04580
1388.69662,0.04543
1386.76788,0.04521
1384.83913,0.04508
1382.91039,0.04480
1380.98164,0.04445
1379.05289,0.04428
1377.12415,0.04442
1375.19540,0.04473
1373.26666,0.04497
1371.33791,0.04503
1369.40917,0.04496
1367.48042,0.04482
1365.55168,0.04475
1363.62293,0.04483
1361.69419,0.04480
1359.76544,0.04447
1357.83670,0.04399
1355.90795,0.04360
1353.97921,0.04337
1352.05046,0.04314
1350.12172,0.04270
1348.19297,0.04221
1346.26422,0.04186
1344.33548,0.04144
1342.40673,0.04078
1340.47799,0.04019
1338.54924,0.03977
1336.62050,0.03919
1334.69175,0.03847
1332.76301,0.03793
1330.83426,0.03775
1328.90552,0.03770
1326.97677,0.03749
1325.04803,0.03709
1323.11928,0.03671
1321.19054,0.03636
1319.26179,0.03596
1317.33304,0.03551
1315.40430,0.03508
1313.47555,0.03473
1311.54681,0.03449
1309.61806,0.03432
1307.68932,0.03418
1305.76057,0.03410
1303.83183,0.03406
1301.90308,0.03408
1299.97434,0.03425
1298.04559,0.03475
1296.11685,0.03582
1294.18810,0.03769
1292.25936,0.04049
1290.33061,0.04423
1288.40187,0.04882
1286.47312,0.05418
1284.54437,0.06038
1282.61563,0.06706
1280.68688,0.07336
1278.75814,0.07839
1276.82939,0.08135
1274.90065,0.08179
1272.97190,0.08011
1271.04316,0.07734
1269.11441,0.07452
1267.18567,0.07221
1265.25692,0.07050
1263.32818,0.06939
1261.39943,0.06887
1259.47069,0.06864
1257.54194,0.06847
1255.61320,0.06837
1253.68445,0.06816
1251.75570,0.06783
1249.82696,0.06757
1247.89821,0.06731
1245.96947,0.06672
1244.04072,0.06582
1242.11198,0.06491
1240.18323,0.06409
1238.25449,0.06330
1236.32574,0.06254
1234.39700,0.06180
1232.46825,0.06116
1230.53951,0.06061
1228.61076,0.06008
1226.68202,0.05951
1224.75327,0.05880
1222.82452,0.05808
1220.89578,0.05762
1218.96703,0.05744
1217.03829,0.05717
1215.10954,0.05665
1213.18080,0.05614
1211.25205,0.05574
1209.32331,0.05535
1207.39456,0.05493
1205.46582,0.05455
1203.53707,0.05417
1201.60833,0.05376
1199.67958,0.05331
1197.75084,0.05284
1195.82209,0.05248
1193.89335,0.05215
1191.96460,0.05155
1190.03585,0.05081
1188.10711,0.05027
1186.17836,0.04985
1184.24962,0.04926
1182.32087,0.04855
1180.39213,0.04788
1178.46338,0.04725
1176.53464,0.04673
1174.60589,0.04643
1172.67715,0.04609
1170.74840,0.04562
1168.81966,0.04537
1166.89091,0.04530
1164.96217,0.04535
1163.03342,0.04565
1161.10467,0.04604
1159.17593,0.04621
1157.24718,0.04607
1155.31844,0.04574
1153.38969,0.04560
1151.46095,0.04574
1149.53220,0.04593
1147.60346,0.04618
1145.67471,0.04658
1143.74597,0.04708
1141.81722,0.04755
1139.88848,0.04792
1137.95973,0.04833
1136.03099,0.04881
1134.10224,0.04927
1132.17350,0.04996
1130.24475,0.05090
1128.31600,0.05180
1126.38726,0.05271
1124.45851,0.05373
1122.52977,0.05458
1120.60102,0.05524
1118.67228,0.05590
1116.74353,0.05652
1114.81479,0.05693
1112.88604,0.05701
1110.95730,0.05667
1109.02855,0.05602
1107.09981,0.05539
1105.17106,0.05491
1103.24232,0.05432
1101.31357,0.05363
1099.38483,0.05316
1097.45608,0.05298
1095.52733,0.05278
1093.59859,0.05233
1091.66984,0.05188
1089.74110,0.05157
1087.81235,0.05133
1085.88361,0.05143
1083.95486,0.05189
1082.02612,0.05262
1080.09737,0.05392
1078.16863,0.05573
1076.23988,0.05773
1074.31114,0.05994
1072.38239,0.06229
1070.45365,0.06448
1068.52490,0.06632
1066.59615,0.06762
1064.66741,0.06847
1062.73866,0.06924
1060.80992,0.06987
1058.88117,0.06998
1056.95243,0.06976
1055.02368,0.06954
1053.09494,0.06932
1051.16619,0.06915
1049.23745,0.06899
1047.30870,0.06876
1045.37996,0.06853
1043.45121,0.06834
1041.52247,0.06826
1039.59372,0.06838
1037.66498,0.06863
1035.73623,0.06897
1033.80748,0.06922
1031.87874,0.06929
1029.94999,0.06943
1028.02125,0.06976
1026.09250,0.07009
1024.16376,0.07017
1022.23501,0.07006
1020.30627,0.07005
1018.37752,0.07017
1016.44878,0.07028
1014.52003,0.07019
1012.59129,0.06984
1010.66254,0.06948
1008.73380,0.06923
1006.80505,0.06895
1004.87631,0.06857
1002.94756,0.06825
1001.01881,0.06817
999.09007,0.06817
997.16132,0.06817
995.23258,0.06848
993.30383,0.06903
991.37509,0.06945
989.44634,0.06975
987.51760,0.07002
985.58885,0.07017
983.66011,0.07019
981.73136,0.07025
979.80262,0.07039
977.87387,0.07044
975.94513,0.07043
974.01638,0.07043
972.08763,0.07036
970.15889,0.07029
968.23014,0.07025
966.30140,0.07009
964.37265,0.06998
962.44391,0.07009
960.51516,0.07008
958.58642,0.06976
956.65767,0.06948
954.72893,0.06934
952.80018,0.06904
950.87144,0.06856
948.94269,0.06809
947.01395,0.06781
945.08520,0.06770
943.15646,0.06753
941.22771,0.06729
939.29896,0.06713
937.37022,0.06698
935.44147,0.06671
933.51273,0.06626
931.58398,0.06570
929.65524,0.06513
927.72649,0.06452
925.79775,0.06414
923.86900,0.06406
921.94026,0.06382
920.01151,0.06332
918.08277,0.06295
916.15402,0.06286
914.22528,0.06279
912.29653,0.06257
910.36779,0.06235
908.43904,0.06202
906.51029,0.06138
904.58155,0.06065
902.65280,0.06000
900.72406,0.05951
898.79531,0.05915
896.86657,0.05883
894.93782,0.05862
893.00908,0.05848
891.08033,0.05827
889.15159,0.05785
887.22284,0.05719
885.29410,0.05660
883.36535,0.05619
881.43661,0.05562
879.50786,0.05484
877.57911,0.05424
875.65037,0.05392
873.72162,0.05380
871.79288,0.05385
869.86413,0.05399
867.93539,0.05405
866.00664,0.05405
864.07790,0.05449
862.14915,0.05531
860.22041,0.05596
858.29166,0.05651
856.36292,0.05729
854.43417,0.05842
852.50543,0.05983
850.57668,0.06121
848.64794,0.06243
846.71919,0.06373
844.79044,0.06534
842.86170,0.06734
840.93295,0.06944
839.00421,0.07106
837.07546,0.07220
835.14672,0.07313
833.21797,0.07382
831.28923,0.07433
829.36048,0.07485
827.43174,0.07532
825.50299,0.07554
823.57425,0.07532
821.64550,0.07487
819.71676,0.07454
817.78801,0.07416
815.85926,0.07359
813.93052,0.07310
812.00177,0.07267
810.07303,0.07209
808.14428,0.07132
806.21554,0.07028
804.28679,0.06925
802.35805,0.06861
800.42930,0.06832
798.50056,0.06809
796.57181,0.06761
794.64307,0.06699
792.71432,0.06667
790.78558,0.06637
788.85683,0.06569
786.92809,0.06504
784.99934,0.06452
783.07059,0.06388
781.14185,0.06331
779.21310,0.06294
777.28436,0.06280
775.35561,0.06282
773.42687,0.06265
771.49812,0.06236
769.56938,0.06204
767.64063,0.06144
765.71189,0.06061
763.78314,0.05974
761.85440,0.05881
759.92565,0.05782
757.99691,0.05685
756.06816,0.05647
754.13942,0.05713
752.21067,0.05835
750.28192,0.05937
748.35318,0.06037
746.42443,0.06207
744.49569,0.06421
742.56694,0.06585
740.63820,0.06672
738.70945,0.06720
736.78071,0.06723
734.85196,0.06650
732.92322,0.06543
730.99447,0.06477
729.06573,0.06464
727.13698,0.06465
725.20824,0.06435
723.27949,0.06353
721.35074,0.06259
719.42200,0.06220
717.49325,0.06231
715.56451,0.06209
713.63576,0.06121
711.70702,0.06026
709.77827,0.05995
707.84953,0.06038
705.92078,0.06108
703.99204,0.06181
702.06329,0.06261
700.13455,0.06321
698.20580,0.06320
696.27706,0.06294
694.34831,0.06312
692.41957,0.06365
690.49082,0.06399
688.56207,0.06394
686.63333,0.06354
684.70458,0.06312
682.77584,0.06314
680.84709,0.06362
678.91835,0.06448
676.98960,0.06531
675.06086,0.06559
673.13211,0.06553
671.20337,0.06540
669.27462,0.06496
667.34588,0.06422
665.41713,0.06371
663.48839,0.06334
661.55964,0.06277
659.63090,0.06188
657.70215,0.06113
655.77340,0.06137
653.84466,0.06214
651.91591,0.06232
649.98717,0.06171
648.05842,0.06085
646.12968,0.06044
644.20093,0.06018
642.27219,0.05957
640.34344,0.05908
638.41470,0.05897
636.48595,0.05890
634.55721,0.05872
632.62846,0.05849
630.69972,0.05812
628.77097,0.05770
626.84222,0.05726
624.91348,0.05685
622.98473,0.05702
621.05599,0.05777
619.12724,0.05818
617.19850,0.05785
615.26975,0.05773
613.34101,0.05804
611.41226,0.05777
609.48352,0.05745
607.55477,0.05794
605.62603,0.05814
603.69728,0.05752
601.76854,0.05705
599.83979,0.05709
