7497.03301,0.50112
7495.10426,0.49947
7493.17552,0.49843
7491.24677,0.50120
7489.31803,0.50532
7487.38928,0.50631
7485.46054,0.50497
7483.53179,0.50212
7481.60305,0.49847
7479.67430,0.49833
7477.74556,0.49942
7475.81681,0.49603
7473.88807,0.49317
7471.95932,0.49703
7470.03057,0.50216
7468.10183,0.50161
7466.17308,0.49832
7464.24434,0.49812
7462.31559,0.49983
7460.38685,0.49868
7458.45810,0.49615
7456.52936,0.49780
7454.60061,0.50292
7452.67187,0.50514
7450.74312,0.50224
7448.81438,0.49929
7446.88563,0.50043
7444.95689,0.50230
7443.02814,0.50020
7441.09940,0.49798
7439.17065,0.50136
7437.24190,0.50572
7435.31316,0.50459
7433.38441,0.50074
7431.45567,0.49829
7429.52692,0.49753
7427.59818,0.49889
7425.66943,0.50016
7423.74069,0.49855
7421.81194,0.49742
7419.88320,0.49836
7417.95445,0.49663
7416.02571,0.49320
7414.09696,0.49455
7412.16822,0.49958
7410.23947,0.50259
7408.31073,0.50294
7406.38198,0.50395
7404.45323,0.50629
7402.52449,0.50549
7400.59574,0.50115
7398.66700,0.49839
7396.73825,0.49717
7394.80951,0.49559
7392.88076,0.49588
7390.95202,0.49909
7389.02327,0.50066
7387.09453,0.49602
7385.16578,0.48969
7383.23704,0.48979
7381.30829,0.49624
7379.37955,0.50182
7377.45080,0.50260
7375.52205,0.50056
7373.59331,0.49814
7371.66456,0.49765
7369.73582,0.49787
7367.80707,0.49440
7365.87833,0.49024
7363.94958,0.49083
7362.02084,0.49404
7360.09209,0.49604
7358.16335,0.49683
7356.23460,0.49790
7354.30586,0.49909
7352.37711,0.49860
7350.44837,0.49686
7348.51962,0.49646
7346.59088,0.49687
7344.66213,0.49665
7342.73338,0.49741
7340.80464,0.49765
7338.87589,0.49492
7336.94715,0.49331
7335.01840,0.49374
7333.08966,0.49250
7331.16091,0.49198
7329.23217,0.49442
7327.30342,0.49390
7325.37468,0.48720
7323.44593,0.48191
7321.51719,0.48402
7319.58844,0.48771
7317.65970,0.48617
7315.73095,0.48325
7313.80221,0.48545
7311.87346,0.48932
7309.94471,0.48840
7308.01597,0.48505
7306.08722,0.48409
7304.15848,0.48592
7302.22973,0.48810
7300.30099,0.48871
7298.37224,0.48773
7296.44350,0.48610
7294.51475,0.48582
7292.58601,0.48708
7290.65726,0.48714
7288.72852,0.48604
7286.79977,0.48478
7284.87103,0.48261
7282.94228,0.48039
7281.01353,0.47852
7279.08479,0.47722
7277.15604,0.47748
7275.22730,0.47838
7273.29855,0.48064
7271.36981,0.48444
7269.44106,0.48752
7267.51232,0.48938
7265.58357,0.48823
7263.65483,0.48405
7261.72608,0.48193
7259.79734,0.48242
7257.86859,0.48001
7255.93985,0.47429
7254.01110,0.47138
7252.08236,0.47252
7250.15361,0.47331
7248.22486,0.47395
7246.29612,0.47633
7244.36737,0.47674
7242.43863,0.47552
7240.50988,0.47669
7238.58114,0.47669
7236.65239,0.47468
7234.72365,0.47468
7232.79490,0.47582
7230.86616,0.47677
7228.93741,0.47733
7227.00867,0.47579
7225.07992,0.47347
7223.15118,0.47412
7221.22243,0.47818
7219.29369,0.48097
7217.36494,0.47879
7215.43619,0.47553
7213.50745,0.47540
7211.57870,0.47603
7209.64996,0.47575
7207.72121,0.47641
7205.79247,0.47697
7203.86372,0.47400
7201.93498,0.46919
7200.00623,0.46814
7198.07749,0.47219
7196.14874,0.47687
7194.22000,0.47662
7192.29125,0.47104
7190.36251,0.46520
7188.43376,0.46195
7186.50501,0.46100
7184.57627,0.46353
7182.64752,0.46831
7180.71878,0.47045
7178.79003,0.46976
7176.86129,0.46971
7174.93254,0.47120
7173.00380,0.47278
7171.07505,0.47347
7169.14631,0.47402
7167.21756,0.47388
7165.28882,0.47248
7163.36007,0.47238
7161.43133,0.47448
7159.50258,0.47477
7157.57384,0.47232
7155.64509,0.47222
7153.71634,0.47513
7151.78760,0.47740
7149.85885,0.47842
7147.93011,0.47815
7146.00136,0.47569
7144.07262,0.47197
7142.14387,0.46927
7140.21513,0.46972
7138.28638,0.47315
7136.35764,0.47427
7134.42889,0.47257
7132.50015,0.47388
7130.57140,0.47587
7128.64266,0.47478
7126.71391,0.47325
7124.78516,0.47334
7122.85642,0.47496
7120.92767,0.47510
7118.99893,0.47183
7117.07018,0.46864
7115.14144,0.46855
7113.21269,0.46960
7111.28395,0.46815
7109.35520,0.46571
7107.42646,0.46718
7105.49771,0.47173
7103.56897,0.47356
7101.64022,0.47161
7099.71148,0.46900
7097.78273,0.46576
7095.85399,0.46246
7093.92524,0.46307
7091.99649,0.46773
7090.06775,0.47140
7088.13900,0.47057
7086.21026,0.46840
7084.28151,0.46881
7082.35277,0.46866
7080.42402,0.46507
7078.49528,0.46247
7076.56653,0.46486
7074.63779,0.46845
7072.70904,0.46822
7070.78030,0.46612
7068.85155,0.46549
7066.92281,0.46583
7064.99406,0.46535
7063.06532,0.46379
7061.13657,0.46320
7059.20782,0.46443
7057.27908,0.46669
7055.35033,0.46884
7053.42159,0.46933
7051.49284,0.46836
7049.56410,0.46628
7047.63535,0.46401
7045.70661,0.46398
7043.77786,0.46493
7041.84912,0.46408
7039.92037,0.46414
7037.99163,0.46755
7036.06288,0.46948
7034.13414,0.46807
7032.20539,0.46797
7030.27664,0.46988
7028.34790,0.47046
7026.41915,0.46843
7024.49041,0.46555
7022.56166,0.46464
7020.63292,0.46674
7018.70417,0.46999
7016.77543,0.47140
7014.84668,0.47011
7012.91794,0.46769
7010.98919,0.46601
7009.06045,0.46570
7007.13170,0.46632
7005.20296,0.46735
7003.27421,0.46849
7001.34547,0.47024
6999.41672,0.47295
6997.48797,0.47522
6995.55923,0.47497
6993.63048,0.47268
6991.70174,0.47121
6989.77299,0.47145
6987.84425,0.47171
6985.91550,0.47150
6983.98676,0.47162
6982.05801,0.47200
6980.12927,0.47205
6978.20052,0.47290
6976.27178,0.47538
6974.34303,0.47598
6972.41429,0.47215
6970.48554,0.46749
6968.55680,0.46460
6966.62805,0.46290
6964.69930,0.46320
6962.77056,0.46579
6960.84181,0.46830
6958.91307,0.46873
6956.98432,0.46828
6955.05558,0.46931
6953.12683,0.47201
6951.19809,0.47402
6949.26934,0.47401
6947.34060,0.47370
6945.41185,0.47297
6943.48311,0.47053
6941.55436,0.46726
6939.62562,0.46556
6937.69687,0.46731
6935.76812,0.46889
6933.83938,0.46694
6931.91063,0.46547
6929.98189,0.46723
6928.05314,0.47010
6926.12440,0.47077
6924.19565,0.46761
6922.26691,0.46483
6920.33816,0.46635
6918.40942,0.46908
6916.48067,0.46959
6914.55193,0.46920
6912.62318,0.46979
6910.69444,0.47088
6908.76569,0.47159
6906.83695,0.47149
6904.90820,0.46945
6902.97945,0.46665
6901.05071,0.46755
6899.12196,0.47191
6897.19322,0.47400
6895.26447,0.47306
6893.33573,0.47215
6891.40698,0.47152
6889.47824,0.47211
6887.54949,0.47320
6885.62075,0.47231
6883.69200,0.47103
6881.76326,0.47009
6879.83451,0.46901
6877.90577,0.46909
6875.97702,0.46948
6874.04828,0.46943
6872.11953,0.47100
6870.19078,0.47445
6868.26204,0.47722
6866.33329,0.47808
6864.40455,0.47659
6862.47580,0.47294
6860.54706,0.47128
6858.61831,0.47373
6856.68957,0.47602
6854.76082,0.47522
6852.83208,0.47333
6850.90333,0.47279
6848.97459,0.47339
6847.04584,0.47280
6845.11710,0.47100
6843.18835,0.47077
6841.25960,0.47210
6839.33086,0.47408
6837.40211,0.47703
6835.47337,0.47868
6833.54462,0.47748
6831.61588,0.47521
6829.68713,0.47343
6827.75839,0.47290
6825.82964,0.47294
6823.90090,0.47216
6821.97215,0.47169
6820.04341,0.47363
6818.11466,0.47703
6816.18592,0.47815
6814.25717,0.47669
6812.32843,0.47646
6810.39968,0.47761
6808.47093,0.47725
6806.54219,0.47572
6804.61344,0.47538
6802.68470,0.47727
6800.75595,0.47990
6798.82721,0.48051
6796.89846,0.47819
6794.96972,0.47494
6793.04097,0.47416
6791.11223,0.47674
6789.18348,0.47918
6787.25474,0.47905
6785.32599,0.47862
6783.39725,0.47852
6781.46850,0.47690
6779.53975,0.47555
6777.61101,0.47630
6775.68226,0.47768
6773.75352,0.47903
6771.82477,0.48057
6769.89603,0.48075
6767.96728,0.47859
6766.03854,0.47771
6764.10979,0.48068
6762.18105,0.48395
6760.25230,0.48518
6758.32356,0.48493
6756.39481,0.48363
6754.46607,0.48275
6752.53732,0.48269
6750.60858,0.48101
6748.67983,0.47787
6746.75108,0.47815
6744.82234,0.48312
6742.89359,0.48828
6740.96485,0.49009
6739.03610,0.48786
6737.10736,0.48335
6735.17861,0.47983
6733.24987,0.47860
6731.32112,0.47941
6729.39238,0.48145
6727.46363,0.48213
6725.53489,0.47977
6723.60614,0.47783
6721.67740,0.47967
6719.74865,0.48271
6717.81991,0.48426
6715.89116,0.48456
6713.96241,0.48365
6712.03367,0.48174
6710.10492,0.47964
6708.17618,0.47901
6706.24743,0.48077
6704.31869,0.48274
6702.38994,0.48298
6700.46120,0.48308
6698.53245,0.48443
6696.60371,0.48480
6694.67496,0.48287
6692.74622,0.48101
6690.81747,0.48110
6688.88873,0.48175
6686.95998,0.48038
6685.03123,0.47736
6683.10249,0.47577
6681.17374,0.47731
6679.24500,0.48043
6677.31625,0.48358
6675.38751,0.48661
6673.45876,0.48818
6671.53002,0.48688
6669.60127,0.48315
6667.67253,0.48031
6665.74378,0.48144
6663.81504,0.48423
6661.88629,0.48530
6659.95755,0.48493
6658.02880,0.48528
6656.10006,0.48748
6654.17131,0.48958
6652.24256,0.48867
6650.31382,0.48561
6648.38507,0.48471
6646.45633,0.48592
6644.52758,0.48578
6642.59884,0.48528
6640.67009,0.48605
6638.74135,0.48630
6636.81260,0.48629
6634.88386,0.48798
6632.95511,0.48981
6631.02637,0.49008
6629.09762,0.48949
6627.16888,0.48925
6625.24013,0.49023
6623.31139,0.49010
6621.38264,0.48755
6619.45389,0.48522
6617.52515,0.48441
6615.59640,0.48499
6613.66766,0.48589
6611.73891,0.48530
6609.81017,0.48365
6607.88142,0.48273
6605.95268,0.48347
6604.02393,0.48519
6602.09519,0.48644
6600.16644,0.48702
6598.23770,0.48745
6596.30895,0.48874
6594.38021,0.49111
6592.45146,0.49264
6590.52271,0.49286
6588.59397,0.49247
6586.66522,0.49138
6584.73648,0.49067
6582.80773,0.49070
6580.87899,0.49072
6578.95024,0.49074
6577.02150,0.49084
6575.09275,0.49032
6573.16401,0.48968
6571.23526,0.49112
6569.30652,0.49337
6567.37777,0.49287
6565.44903,0.49137
6563.52028,0.49199
6561.59154,0.49293
6559.66279,0.49278
6557.73404,0.49311
6555.80530,0.49316
6553.87655,0.49132
6551.94781,0.48956
6550.01906,0.48947
6548.09032,0.48912
6546.16157,0.48836
6544.23283,0.48952
6542.30408,0.49143
6540.37534,0.49236
6538.44659,0.49274
6536.51785,0.49115
6534.58910,0.48783
6532.66036,0.48635
6530.73161,0.48806
6528.80287,0.49086
6526.87412,0.49181
6524.94537,0.49104
6523.01663,0.49125
6521.08788,0.49340
6519.15914,0.49620
6517.23039,0.49756
6515.30165,0.49669
6513.37290,0.49441
6511.44416,0.49223
6509.51541,0.49210
6507.58667,0.49282
6505.65792,0.49252
6503.72918,0.49268
6501.80043,0.49294
6499.87169,0.49178
6497.94294,0.49076
6496.01419,0.49130
6494.08545,0.49241
6492.15670,0.49261
6490.22796,0.49160
6488.29921,0.49068
6486.37047,0.49195
6484.44172,0.49536
6482.51298,0.49768
6480.58423,0.49718
6478.65549,0.49527
6476.72674,0.49352
6474.79800,0.49293
6472.86925,0.49344
6470.94051,0.49326
6469.01176,0.49148
6467.08302,0.48988
6465.15427,0.49113
6463.22552,0.49446
6461.29678,0.49561
6459.36803,0.49381
6457.43929,0.49241
6455.51054,0.49217
6453.58180,0.49189
6451.65305,0.49175
6449.72431,0.49106
6447.79556,0.49006
6445.86682,0.49043
6443.93807,0.49070
6442.00933,0.49022
6440.08058,0.49121
6438.15184,0.49260
6436.22309,0.49230
6434.29434,0.49107
6432.36560,0.49029
6430.43685,0.49048
6428.50811,0.49105
6426.57936,0.49124
6424.65062,0.49056
6422.72187,0.48971
6420.79313,0.49058
6418.86438,0.49195
6416.93564,0.49169
6415.00689,0.49169
6413.07815,0.49333
6411.14940,0.49467
6409.22066,0.49414
6407.29191,0.49290
6405.36317,0.49256
6403.43442,0.49319
6401.50567,0.49463
6399.57693,0.49626
6397.64818,0.49648
6395.71944,0.49489
6393.79069,0.49312
6391.86195,0.49256
6389.93320,0.49287
6388.00446,0.49331
6386.07571,0.49313
6384.14697,0.49230
6382.21822,0.49146
6380.28948,0.49072
6378.36073,0.49088
6376.43199,0.49198
6374.50324,0.49281
6372.57450,0.49414
6370.64575,0.49635
6368.71700,0.49629
6366.78826,0.49276
6364.85951,0.49030
6362.93077,0.49200
6361.00202,0.49490
6359.07328,0.49536
6357.14453,0.49376
6355.21579,0.49288
6353.28704,0.49324
6351.35830,0.49359
6349.42955,0.49355
6347.50081,0.49272
6345.57206,0.49201
6343.64332,0.49316
6341.71457,0.49445
6339.78582,0.49316
6337.85708,0.49051
6335.92833,0.48917
6333.99959,0.48931
6332.07084,0.49005
6330.14210,0.49105
6328.21335,0.49222
6326.28461,0.49322
6324.35586,0.49299
6322.42712,0.49203
6320.49837,0.49229
6318.56963,0.49316
6316.64088,0.49339
6314.71214,0.49448
6312.78339,0.49593
6310.85465,0.49477
6308.92590,0.49189
6306.99715,0.49051
6305.06841,0.49187
6303.13966,0.49507
6301.21092,0.49727
6299.28217,0.49673
6297.35343,0.49498
6295.42468,0.49403
6293.49594,0.49341
6291.56719,0.49199
6289.63845,0.49108
6287.70970,0.49168
6285.78096,0.49268
6283.85221,0.49347
6281.92347,0.49379
6279.99472,0.49340
6278.06598,0.49340
6276.13723,0.49453
6274.20848,0.49535
6272.27974,0.49477
6270.35099,0.49421
6268.42225,0.49497
6266.49350,0.49558
6264.56476,0.49478
6262.63601,0.49431
6260.70727,0.49509
6258.77852,0.49533
6256.84978,0.49413
6254.92103,0.49263
6252.99229,0.49178
6251.06354,0.49168
6249.13480,0.49264
6247.20605,0.49391
6245.27730,0.49417
6243.34856,0.49398
6241.41981,0.49405
6239.49107,0.49385
6237.56232,0.49347
6235.63358,0.49382
6233.70483,0.49535
6231.77609,0.49742
6229.84734,0.49910
6227.91860,0.49975
6225.98985,0.49944
6224.06111,0.49873
6222.13236,0.49784
6220.20362,0.49705
6218.27487,0.49642
6216.34613,0.49531
6214.41738,0.49400
6212.48863,0.49365
6210.55989,0.49401
6208.63114,0.49413
6206.70240,0.49424
6204.77365,0.49464
6202.84491,0.49540
6200.91616,0.49615
6198.98742,0.49557
6197.05867,0.49384
6195.12993,0.49302
6193.20118,0.49406
6191.27244,0.49569
6189.34369,0.49604
6187.41495,0.49512
6185.48620,0.49498
6183.55746,0.49539
6181.62871,0.49456
6179.69996,0.49418
6177.77122,0.49535
6175.84247,0.49592
6173.91373,0.49536
6171.98498,0.49415
6170.05624,0.49285
6168.12749,0.49276
6166.19875,0.49321
6164.27000,0.49288
6162.34126,0.49290
6160.41251,0.49350
6158.48377,0.49320
6156.55502,0.49300
6154.62628,0.49431
6152.69753,0.49493
6150.76878,0.49322
6148.84004,0.49135
6146.91129,0.49085
6144.98255,0.49055
6143.05380,0.49010
6141.12506,0.49030
6139.19631,0.49079
6137.26757,0.49061
6135.33882,0.48971
6133.41008,0.48924
6131.48133,0.48946
6129.55259,0.48902
6127.62384,0.48777
6125.69510,0.48724
6123.76635,0.48749
6121.83761,0.48776
6119.90886,0.48796
6117.98011,0.48832
6116.05137,0.48917
6114.12262,0.48974
6112.19388,0.48877
6110.26513,0.48665
6108.33639,0.48477
6106.40764,0.48422
6104.47890,0.48485
6102.55015,0.48568
6100.62141,0.48592
6098.69266,0.48538
6096.76392,0.48486
6094.83517,0.48513
6092.90643,0.48604
6090.97768,0.48694
6089.04893,0.48750
6087.12019,0.48788
6085.19144,0.48793
6083.26270,0.48725
6081.33395,0.48599
6079.40521,0.48504
6077.47646,0.48443
6075.54772,0.48302
6073.61897,0.48173
6071.69023,0.48231
6069.76148,0.48378
6067.83274,0.48441
6065.90399,0.48414
6063.97525,0.48386
6062.04650,0.48411
6060.11776,0.48400
6058.18901,0.48335
6056.26026,0.48333
6054.33152,0.48317
6052.40277,0.48190
6050.47403,0.48091
6048.54528,0.48093
6046.61654,0.48087
6044.68779,0.48011
6042.75905,0.47959
6040.83030,0.48030
6038.90156,0.48102
6036.97281,0.48035
6035.04407,0.47906
6033.11532,0.47830
6031.18658,0.47832
6029.25783,0.47844
6027.32909,0.47767
6025.40034,0.47640
6023.47159,0.47545
6021.54285,0.47479
6019.61410,0.47407
6017.68536,0.47287
6015.75661,0.47156
6013.82787,0.47085
6011.89912,0.47064
6009.97038,0.47045
6008.04163,0.46984
6006.11289,0.46848
6004.18414,0.46701
6002.25540,0.46708
6000.32665,0.46857
5998.39791,0.46911
5996.46916,0.46829
5994.54041,0.46719
5992.61167,0.46607
5990.68292,0.46525
5988.75418,0.46438
5986.82543,0.46358
5984.89669,0.46412
5982.96794,0.46493
5981.03920,0.46415
5979.11045,0.46270
5977.18171,0.46151
5975.25296,0.46011
5973.32422,0.45918
5971.39547,0.45908
5969.46673,0.45847
5967.53798,0.45700
5965.60924,0.45520
5963.68049,0.45393
5961.75174,0.45411
5959.82300,0.45439
5957.89425,0.45347
5955.96551,0.45271
5954.03676,0.45241
5952.10802,0.45131
5950.17927,0.45011
5948.25053,0.44974
5946.32178,0.44949
5944.39304,0.44887
5942.46429,0.44781
5940.53555,0.44610
5938.60680,0.44421
5936.67806,0.44251
5934.74931,0.44086
5932.82057,0.43952
5930.89182,0.43792
5928.96307,0.43565
5927.03433,0.43405
5925.10558,0.43362
5923.17684,0.43306
5921.24809,0.43177
5919.31935,0.43020
5917.39060,0.42828
5915.46186,0.42579
5913.53311,0.42328
5911.60437,0.42120
5909.67562,0.41941
5907.74688,0.41746
5905.81813,0.41493
5903.88939,0.41156
5901.96064,0.40732
5900.03189,0.40296
5898.10315,0.39944
5896.17440,0.39699
5894.24566,0.39468
5892.31691,0.39143
5890.38817,0.38796
5888.45942,0.38582
5886.53068,0.38507
5884.60193,0.38506
5882.67319,0.38562
5880.74444,0.38599
5878.81570,0.38582
5876.88695,0.38641
5874.95821,0.38769
5873.02946,0.38797
5871.10072,0.38730
5869.17197,0.38693
5867.24322,0.38683
5865.31448,0.38679
5863.38573,0.38620
5861.45699,0.38379
5859.52824,0.38006
5857.59950,0.37639
5855.67075,0.37341
5853.74201,0.37106
5851.81326,0.36833
5849.88452,0.36493
5847.95577,0.36194
5846.02703,0.35992
5844.09828,0.35788
5842.16954,0.35528
5840.24079,0.35306
5838.31205,0.35159
5836.38330,0.35062
5834.45455,0.35011
5832.52581,0.34983
5830.59706,0.34940
5828.66832,0.34883
5826.73957,0.34882
5824.81083,0.34952
5822.88208,0.34974
5820.95334,0.34908
5819.02459,0.34888
5817.09585,0.35011
5815.16710,0.35160
5813.23836,0.35184
5811.30961,0.35130
5809.38087,0.35138
5807.45212,0.35249
5805.52337,0.35384
5803.59463,0.35406
5801.66588,0.35356
5799.73714,0.35436
5797.80839,0.35670
5795.87965,0.35886
5793.95090,0.35972
5792.02216,0.36006
5790.09341,0.36144
5788.16467,0.36410
5786.23592,0.36680
5784.30718,0.36828
5782.37843,0.36870
5780.44969,0.36949
5778.52094,0.37157
5776.59220,0.37454
5774.66345,0.37728
5772.73470,0.37887
5770.80596,0.37938
5768.87721,0.37986
5766.94847,0.38066
5765.01972,0.38119
5763.09098,0.38193
5761.16223,0.38276
5759.23349,0.38228
5757.30474,0.38098
5755.37600,0.38034
5753.44725,0.38027
5751.51851,0.38018
5749.58976,0.38048
5747.66102,0.38138
5745.73227,0.38197
5743.80352,0.38213
5741.87478,0.38249
5739.94603,0.38252
5738.01729,0.38185
5736.08854,0.38148
5734.15980,0.38193
5732.23105,0.38257
5730.30231,0.38245
5728.37356,0.38173
5726.44482,0.38109
5724.51607,0.38045
5722.58733,0.38021
5720.65858,0.38092
5718.72984,0.38185
5716.80109,0.38242
5714.87235,0.38246
5712.94360,0.38175
5711.01485,0.38112
5709.08611,0.38139
5707.15736,0.38192
5705.22862,0.38145
5703.29987,0.38026
5701.37113,0.37985
5699.44238,0.38014
5697.51364,0.37973
5695.58489,0.37825
5693.65615,0.37710
5691.72740,0.37774
5689.79866,0.37932
5687.86991,0.38056
5685.94117,0.38163
5684.01242,0.38247
5682.08368,0.38265
5680.15493,0.38249
5678.22618,0.38270
5676.29744,0.38309
5674.36869,0.38279
5672.43995,0.38193
5670.51120,0.38198
5668.58246,0.38364
5666.65371,0.38564
5664.72497,0.38705
5662.79622,0.38827
5660.86748,0.38918
5658.93873,0.38943
5657.00999,0.38967
5655.08124,0.39034
5653.15250,0.39077
5651.22375,0.39078
5649.29500,0.39114
5647.36626,0.39144
5645.43751,0.39077
5643.50877,0.39014
5641.58002,0.39042
5639.65128,0.39055
5637.72253,0.39021
5635.79379,0.39062
5633.86504,0.39144
5631.93630,0.39064
5630.00755,0.38819
5628.07881,0.38640
5626.15006,0.38625
5624.22132,0.38647
5622.29257,0.38619
5620.36383,0.38641
5618.43508,0.38717
5616.50633,0.38731
5614.57759,0.38760
5612.64884,0.38851
5610.72010,0.38933
5608.79135,0.39095
5606.86261,0.39370
5604.93386,0.39631
5603.00512,0.39860
5601.07637,0.40096
5599.14763,0.40307
5597.21888,0.40471
5595.29014,0.40620
5593.36139,0.40823
5591.43265,0.41088
5589.50390,0.41309
5587.57516,0.41472
5585.64641,0.41663
5583.71766,0.41827
5581.78892,0.41908
5579.86017,0.42032
5577.93143,0.42257
5576.00268,0.42489
5574.07394,0.42672
5572.14519,0.42823
5570.21645,0.42943
5568.28770,0.43020
5566.35896,0.43072
5564.43021,0.43116
5562.50147,0.43150
5560.57272,0.43174
5558.64398,0.43197
5556.71523,0.43254
5554.78648,0.43372
5552.85774,0.43542
5550.92899,0.43709
5549.00025,0.43810
5547.07150,0.43830
5545.14276,0.43790
5543.21401,0.43728
5541.28527,0.43711
5539.35652,0.43779
5537.42778,0.43864
5535.49903,0.43933
5533.57029,0.44042
5531.64154,0.44161
5529.71280,0.44228
5527.78405,0.44300
5525.85531,0.44383
5523.92656,0.44375
5521.99781,0.44305
5520.06907,0.44224
5518.14032,0.44155
5516.21158,0.44207
5514.28283,0.44335
5512.35409,0.44383
5510.42534,0.44375
5508.49660,0.44366
5506.56785,0.44314
5504.63911,0.44247
5502.71036,0.44275
5500.78162,0.44400
5498.85287,0.44544
5496.92413,0.44656
5494.99538,0.44687
5493.06664,0.44654
5491.13789,0.44582
5489.20914,0.44485
5487.28040,0.44471
5485.35165,0.44568
5483.42291,0.44612
5481.49416,0.44563
5479.56542,0.44558
5477.63667,0.44573
5475.70793,0.44530
5473.77918,0.44504
5471.85044,0.44538
5469.92169,0.44590
5467.99295,0.44605
5466.06420,0.44586
5464.13546,0.44592
5462.20671,0.44644
5460.27796,0.44705
5458.34922,0.44719
5456.42047,0.44689
5454.49173,0.44669
5452.56298,0.44668
5450.63424,0.44644
5448.70549,0.44615
5446.77675,0.44671
5444.84800,0.44823
5442.91926,0.44943
5440.99051,0.44895
5439.06177,0.44745
5437.13302,0.44671
5435.20428,0.44693
5433.27553,0.44702
5431.34679,0.44647
5429.41804,0.44587
5427.48929,0.44590
5425.56055,0.44607
5423.63180,0.44581
5421.70306,0.44581
5419.77431,0.44662
5417.84557,0.44734
5415.91682,0.44686
5413.98808,0.44584
5412.05933,0.44584
5410.13059,0.44643
5408.20184,0.44616
5406.27310,0.44536
5404.34435,0.44555
5402.41561,0.44720
5400.48686,0.44860
5398.55811,0.44808
5396.62937,0.44662
5394.70062,0.44623
5392.77188,0.44674
5390.84313,0.44689
5388.91439,0.44684
5386.98564,0.44702
5385.05690,0.44728
5383.12815,0.44740
5381.19941,0.44746
5379.27066,0.44786
5377.34192,0.44860
5375.41317,0.44911
5373.48443,0.44894
5371.55568,0.44822
5369.62694,0.44764
5367.69819,0.44774
5365.76944,0.44820
5363.84070,0.44839
5361.91195,0.44820
5359.98321,0.44785
5358.05446,0.44754
5356.12572,0.44746
5354.19697,0.44771
5352.26823,0.44833
5350.33948,0.44912
5348.41074,0.44963
5346.48199,0.44937
5344.55325,0.44852
5342.62450,0.44778
5340.69576,0.44737
5338.76701,0.44707
5336.83827,0.44662
5334.90952,0.44623
5332.98077,0.44619
5331.05203,0.44673
5329.12328,0.44749
5327.19454,0.44771
5325.26579,0.44787
5323.33705,0.44802
5321.40830,0.44711
5319.47956,0.44563
5317.55081,0.44492
5315.62207,0.44509
5313.69332,0.44559
5311.76458,0.44636
5309.83583,0.44719
5307.90709,0.44744
5305.97834,0.44705
5304.04959,0.44684
5302.12085,0.44702
5300.19210,0.44709
5298.26336,0.44713
5296.33461,0.44750
5294.40587,0.44808
5292.47712,0.44856
5290.54838,0.44831
5288.61963,0.44739
5286.69089,0.44668
5284.76214,0.44635
5282.83340,0.44629
5280.90465,0.44653
5278.97591,0.44673
5277.04716,0.44626
5275.11842,0.44506
5273.18967,0.44406
5271.26092,0.44376
5269.33218,0.44340
5267.40343,0.44261
5265.47469,0.44203
5263.54594,0.44172
5261.61720,0.44124
5259.68845,0.44044
5257.75971,0.43941
5255.83096,0.43837
5253.90222,0.43734
5251.97347,0.43660
5250.04473,0.43631
5248.11598,0.43570
5246.18724,0.43475
5244.25849,0.43455
5242.32975,0.43493
5240.40100,0.43489
5238.47225,0.43456
5236.54351,0.43413
5234.61476,0.43330
5232.68602,0.43229
5230.75727,0.43126
5228.82853,0.43033
5226.89978,0.42982
5224.97104,0.42957
5223.04229,0.42946
5221.11355,0.42929
5219.18480,0.42858
5217.25606,0.42753
5215.32731,0.42677
5213.39857,0.42648
5211.46982,0.42651
5209.54107,0.42670
5207.61233,0.42661
5205.68358,0.42615
5203.75484,0.42614
5201.82609,0.42665
5199.89735,0.42643
5197.96860,0.42520
5196.03986,0.42448
5194.11111,0.42486
5192.18237,0.42488
5190.25362,0.42394
5188.32488,0.42323
5186.39613,0.42322
5184.46739,0.42311
5182.53864,0.42252
5180.60990,0.42176
5178.68115,0.42138
5176.75240,0.42175
5174.82366,0.42241
5172.89491,0.42267
5170.96617,0.42246
5169.03742,0.42225
5167.10868,0.42244
5165.17993,0.42258
5163.25119,0.42253
5161.32244,0.42289
5159.39370,0.42361
5157.46495,0.42426
5155.53621,0.42476
5153.60746,0.42512
5151.67872,0.42537
5149.74997,0.42522
5147.82123,0.42472
5145.89248,0.42475
5143.96373,0.42540
5142.03499,0.42617
5140.10624,0.42694
5138.17750,0.42720
5136.24875,0.42698
5134.32001,0.42722
5132.39126,0.42746
5130.46252,0.42676
5128.53377,0.42602
5126.60503,0.42623
5124.67628,0.42691
5122.74754,0.42737
5120.81879,0.42776
5118.89005,0.42816
5116.96130,0.42851
5115.03255,0.42875
5113.10381,0.42894
5111.17506,0.42936
5109.24632,0.42953
5107.31757,0.42915
5105.38883,0.42908
5103.46008,0.42965
5101.53134,0.43026
5099.60259,0.43052
5097.67385,0.43065
5095.74510,0.43105
5093.81636,0.43141
5091.88761,0.43129
5089.95887,0.43106
5088.03012,0.43125
5086.10138,0.43164
5084.17263,0.43201
5082.24388,0.43223
5080.31514,0.43200
5078.38639,0.43152
5076.45765,0.43149
5074.52890,0.43224
5072.60016,0.43303
5070.67141,0.43340
5068.74267,0.43369
5066.81392,0.43374
5064.88518,0.43386
5062.95643,0.43423
5061.02769,0.43409
5059.09894,0.43353
5057.17020,0.43325
5055.24145,0.43330
5053.31270,0.43370
5051.38396,0.43418
5049.45521,0.43418
5047.52647,0.43401
5045.59772,0.43439
5043.66898,0.43512
5041.74023,0.43551
5039.81149,0.43524
5037.88274,0.43463
5035.95400,0.43429
5034.02525,0.43423
5032.09651,0.43390
5030.16776,0.43370
5028.23902,0.43444
5026.31027,0.43547
5024.38153,0.43562
5022.45278,0.43513
5020.52403,0.43506
5018.59529,0.43538
5016.66654,0.43549
5014.73780,0.43557
5012.80905,0.43564
5010.88031,0.43530
5008.95156,0.43508
5007.02282,0.43549
5005.09407,0.43571
5003.16533,0.43515
5001.23658,0.43466
4999.30784,0.43498
4997.37909,0.43569
4995.45035,0.43594
4993.52160,0.43549
4991.59286,0.43468
4989.66411,0.43425
4987.73536,0.43474
4985.80662,0.43553
4983.87787,0.43579
4981.94913,0.43578
4980.02038,0.43573
4978.09164,0.43521
4976.16289,0.43416
4974.23415,0.43342
4972.30540,0.43351
4970.37666,0.43365
4968.44791,0.43316
4966.51917,0.43263
4964.59042,0.43270
4962.66168,0.43285
4960.73293,0.43268
4958.80418,0.43259
4956.87544,0.43253
4954.94669,0.43212
4953.01795,0.43164
4951.08920,0.43135
4949.16046,0.43134
4947.23171,0.43141
4945.30297,0.43115
4943.37422,0.43061
4941.44548,0.43011
4939.51673,0.42992
4937.58799,0.42993
4935.65924,0.42988
4933.73050,0.42993
4931.80175,0.43005
4929.87301,0.42977
4927.94426,0.42908
4926.01551,0.42853
4924.08677,0.42838
4922.15802,0.42848
4920.22928,0.42862
4918.30053,0.42837
4916.37179,0.42774
4914.44304,0.42742
4912.51430,0.42764
4910.58555,0.42783
4908.65681,0.42771
4906.72806,0.42769
4904.79932,0.42789
4902.87057,0.42795
4900.94183,0.42755
4899.01308,0.42710
4897.08434,0.42724
4895.15559,0.42776
4893.22684,0.42812
4891.29810,0.42813
4889.36935,0.42775
4887.44061,0.42723
4885.51186,0.42690
4883.58312,0.42653
4881.65437,0.42609
4879.72563,0.42595
4877.79688,0.42588
4875.86814,0.42567
4873.93939,0.42576
4872.01065,0.42612
4870.08190,0.42611
4868.15316,0.42551
4866.22441,0.42460
4864.29566,0.42400
4862.36692,0.42427
4860.43817,0.42494
4858.50943,0.42512
4856.58068,0.42476
4854.65194,0.42425
4852.72319,0.42393
4850.79445,0.42395
4848.86570,0.42405
4846.93696,0.42393
4845.00821,0.42377
4843.07947,0.42371
4841.15072,0.42359
4839.22198,0.42335
4837.29323,0.42280
4835.36449,0.42219
4833.43574,0.42229
4831.50699,0.42291
4829.57825,0.42310
4827.64950,0.42262
4825.72076,0.42191
4823.79201,0.42131
4821.86327,0.42081
4819.93452,0.42056
4818.00578,0.42078
4816.07703,0.42115
4814.14829,0.42102
4812.21954,0.42044
4810.29080,0.42001
4808.36205,0.41992
4806.43331,0.41983
4804.50456,0.41953
4802.57582,0.41941
4800.64707,0.41978
4798.71832,0.42018
4796.78958,0.41997
4794.86083,0.41922
4792.93209,0.41853
4791.00334,0.41836
4789.07460,0.41847
4787.14585,0.41842
4785.21711,0.41830
4783.28836,0.41818
4781.35962,0.41783
4779.43087,0.41738
4777.50213,0.41701
4775.57338,0.41677
4773.64464,0.41679
4771.71589,0.41680
4769.78714,0.41659
4767.85840,0.41656
4765.92965,0.41657
4764.00091,0.41609
4762.07216,0.41545
4760.14342,0.41519
4758.21467,0.41536
4756.28593,0.41576
4754.35718,0.41603
4752.42844,0.41591
4750.49969,0.41533
4748.57095,0.41443
4746.64220,0.41416
4744.71346,0.41493
4742.78471,0.41531
4740.85597,0.41432
4738.92722,0.41286
4736.99847,0.41236
4735.06973,0.41284
4733.14098,0.41282
4731.21224,0.41177
4729.28349,0.41056
4727.35475,0.40971
4725.42600,0.40925
4723.49726,0.40879
4721.56851,0.40779
4719.63977,0.40669
4717.71102,0.40611
4715.78228,0.40566
4713.85353,0.40499
4711.92479,0.40436
4709.99604,0.40392
4708.06729,0.40352
4706.13855,0.40291
4704.20980,0.40234
4702.28106,0.40199
4700.35231,0.40132
4698.42357,0.40037
4696.49482,0.39996
4694.56608,0.40038
4692.63733,0.40102
4690.70859,0.40134
4688.77984,0.40142
4686.85110,0.40146
4684.92235,0.40142
4682.99361,0.40133
4681.06486,0.40136
4679.13612,0.40145
4677.20737,0.40149
4675.27862,0.40124
4673.34988,0.40050
4671.42113,0.39967
4669.49239,0.39929
4667.56364,0.39913
4665.63490,0.39844
4663.70615,0.39718
4661.77741,0.39610
4659.84866,0.39547
4657.91992,0.39485
4655.99117,0.39413
4654.06243,0.39362
4652.13368,0.39313
4650.20494,0.39240
4648.27619,0.39151
4646.34745,0.39049
4644.41870,0.38926
4642.48995,0.38791
4640.56121,0.38647
4638.63246,0.38487
4636.70372,0.38355
4634.77497,0.38267
4632.84623,0.38151
4630.91748,0.38030
4628.98874,0.37994
4627.05999,0.38012
4625.13125,0.38018
4623.20250,0.38029
4621.27376,0.38061
4619.34501,0.38097
4617.41627,0.38133
4615.48752,0.38169
4613.55877,0.38186
4611.63003,0.38172
4609.70128,0.38142
4607.77254,0.38111
4605.84379,0.38090
4603.91505,0.38111
4601.98630,0.38171
4600.05756,0.38234
4598.12881,0.38289
4596.20007,0.38331
4594.27132,0.38342
4592.34258,0.38335
4590.41383,0.38367
4588.48509,0.38473
4586.55634,0.38603
4584.62760,0.38684
4582.69885,0.38696
4580.77010,0.38673
4578.84136,0.38650
4576.91261,0.38643
4574.98387,0.38674
4573.05512,0.38751
4571.12638,0.38831
4569.19763,0.38890
4567.26889,0.38962
4565.34014,0.39066
4563.41140,0.39174
4561.48265,0.39231
4559.55391,0.39225
4557.62516,0.39196
4555.69642,0.39160
4553.76767,0.39132
4551.83893,0.39162
4549.91018,0.39228
4547.98143,0.39255
4546.05269,0.39219
4544.12394,0.39154
4542.19520,0.39115
4540.26645,0.39128
4538.33771,0.39151
4536.40896,0.39116
4534.48022,0.38988
4532.55147,0.38807
4530.62273,0.38652
4528.69398,0.38564
4526.76524,0.38500
4524.83649,0.38408
4522.90775,0.38323
4520.97900,0.38302
4519.05025,0.38306
4517.12151,0.38276
4515.19276,0.38243
4513.26402,0.38281
4511.33527,0.38365
4509.40653,0.38414
4507.47778,0.38411
4505.54904,0.38397
4503.62029,0.38408
4501.69155,0.38440
4499.76280,0.38448
4497.83406,0.38427
4495.90531,0.38408
4493.97657,0.38367
4492.04782,0.38282
4490.11908,0.38198
4488.19033,0.38128
4486.26158,0.38029
4484.33284,0.37881
4482.40409,0.37724
4480.47535,0.37625
4478.54660,0.37585
4476.61786,0.37534
4474.68911,0.37460
4472.76037,0.37395
4470.83162,0.37348
4468.90288,0.37303
4466.97413,0.37222
4465.04539,0.37078
4463.11664,0.36903
4461.18790,0.36743
4459.25915,0.36578
4457.33041,0.36362
4455.40166,0.36139
4453.47291,0.35966
4451.54417,0.35793
4449.61542,0.35566
4447.68668,0.35307
4445.75793,0.35059
4443.82919,0.34856
4441.90044,0.34682
4439.97170,0.34480
4438.04295,0.34230
4436.11421,0.33938
4434.18546,0.33602
4432.25672,0.33234
4430.32797,0.32871
4428.39923,0.32558
4426.47048,0.32249
4424.54173,0.31891
4422.61299,0.31525
4420.68424,0.31181
4418.75550,0.30819
4416.82675,0.30457
4414.89801,0.30129
4412.96926,0.29790
4411.04052,0.29414
4409.11177,0.29041
4407.18303,0.28703
4405.25428,0.28405
4403.32554,0.28147
4401.39679,0.27918
4399.46805,0.27711
4397.53930,0.27545
4395.61056,0.27411
4393.68181,0.27261
4391.75306,0.27082
4389.82432,0.26889
4387.89557,0.26702
4385.96683,0.26524
4384.03808,0.26329
4382.10934,0.26115
4380.18059,0.25910
4378.25185,0.25726
4376.32310,0.25552
4374.39436,0.25380
4372.46561,0.25214
4370.53687,0.25050
4368.60812,0.24865
4366.67938,0.24667
4364.75063,0.24497
4362.82189,0.24349
4360.89314,0.24178
4358.96439,0.23980
4357.03565,0.23793
4355.10690,0.23641
4353.17816,0.23523
4351.24941,0.23432
4349.32067,0.23326
4347.39192,0.23153
4345.46318,0.22944
4343.53443,0.22765
4341.60569,0.22626
4339.67694,0.22494
4337.74820,0.22359
4335.81945,0.22232
4333.89071,0.22119
4331.96196,0.22066
4330.03321,0.22127
4328.10447,0.22266
4326.17572,0.22411
4324.24698,0.22568
4322.31823,0.22781
4320.38949,0.23040
4318.46074,0.23297
4316.53200,0.23514
4314.60325,0.23668
4312.67451,0.23755
4310.74576,0.23783
4308.81702,0.23751
4306.88827,0.23674
4304.95953,0.23584
4303.03078,0.23471
4301.10204,0.23331
4299.17329,0.23195
4297.24454,0.23064
4295.31580,0.22954
4293.38705,0.22915
4291.45831,0.22939
4289.52956,0.22961
4287.60082,0.22957
4285.67207,0.22974
4283.74333,0.23052
4281.81458,0.23159
4279.88584,0.23266
4277.95709,0.23374
4276.02835,0.23474
4274.09960,0.23560
4272.17086,0.23626
4270.24211,0.23655
4268.31336,0.23667
4266.38462,0.23684
4264.45587,0.23674
4262.52713,0.23623
4260.59838,0.23571
4258.66964,0.23545
4256.74089,0.23536
4254.81215,0.23532
4252.88340,0.23532
4250.95466,0.23545
4249.02591,0.23589
4247.09717,0.23656
4245.16842,0.23716
4243.23968,0.23780
4241.31093,0.23883
4239.38219,0.24016
4237.45344,0.24136
4235.52469,0.24218
4233.59595,0.24296
4231.66720,0.24406
4229.73846,0.24526
4227.80971,0.24601
4225.88097,0.24637
4223.95222,0.24707
4222.02348,0.24841
4220.09473,0.24995
4218.16599,0.25132
4216.23724,0.25257
4214.30850,0.25388
4212.37975,0.25526
4210.45101,0.25657
4208.52226,0.25780
4206.59352,0.25896
4204.66477,0.25991
4202.73602,0.26072
4200.80728,0.26146
4198.87853,0.26208
4196.94979,0.26268
4195.02104,0.26320
4193.09230,0.26330
4191.16355,0.26326
4189.23481,0.26371
4187.30606,0.26444
4185.37732,0.26487
4183.44857,0.26499
4181.51983,0.26493
4179.59108,0.26486
4177.66234,0.26496
4175.73359,0.26510
4173.80484,0.26511
4171.87610,0.26519
4169.94735,0.26550
4168.01861,0.26573
4166.08986,0.26570
4164.16112,0.26566
4162.23237,0.26569
4160.30363,0.26578
4158.37488,0.26617
4156.44614,0.26706
4154.51739,0.26816
4152.58865,0.26905
4150.65990,0.26987
4148.73116,0.27085
4146.80241,0.27196
4144.87367,0.27324
4142.94492,0.27450
4141.01617,0.27542
4139.08743,0.27625
4137.15868,0.27722
4135.22994,0.27823
4133.30119,0.27912
4131.37245,0.27983
4129.44370,0.28047
4127.51496,0.28107
4125.58621,0.28138
4123.65747,0.28129
4121.72872,0.28114
4119.79998,0.28126
4117.87123,0.28157
4115.94249,0.28176
4114.01374,0.28170
4112.08500,0.28148
4110.15625,0.28113
4108.22750,0.28077
4106.29876,0.28076
4104.37001,0.28084
4102.44127,0.28052
4100.51252,0.27995
4098.58378,0.27945
4096.65503,0.27906
4094.72629,0.27875
4092.79754,0.27850
4090.86880,0.27812
4088.94005,0.27744
4087.01131,0.27662
4085.08256,0.27592
4083.15382,0.27532
4081.22507,0.27454
4079.29632,0.27321
4077.36758,0.27125
4075.43883,0.26902
4073.51009,0.26653
4071.58134,0.26341
4069.65260,0.25972
4067.72385,0.25606
4065.79511,0.25299
4063.86636,0.25096
4061.93762,0.25043
4060.00887,0.25144
4058.08013,0.25355
4056.15138,0.25611
4054.22264,0.25859
4052.29389,0.26094
4050.36515,0.26312
4048.43640,0.26483
4046.50765,0.26600
4044.57891,0.26682
4042.65016,0.26737
4040.72142,0.26771
4038.79267,0.26807
4036.86393,0.26856
4034.93518,0.26914
4033.00644,0.26967
4031.07769,0.27015
4029.14895,0.27074
4027.22020,0.27130
4025.29146,0.27169
4023.36271,0.27216
4021.43397,0.27273
4019.50522,0.27291
4017.57648,0.27270
4015.64773,0.27261
4013.71898,0.27264
4011.79024,0.27256
4009.86149,0.27243
4007.93275,0.27238
4006.00400,0.27239
4004.07526,0.27239
4002.14651,0.27236
4000.21777,0.27226
3998.28902,0.27215
3996.36028,0.27217
3994.43153,0.27219
3992.50279,0.27199
3990.57404,0.27177
3988.64530,0.27169
3986.71655,0.27159
3984.78780,0.27132
3982.85906,0.27098
3980.93031,0.27068
3979.00157,0.27048
3977.07282,0.27021
3975.14408,0.26957
3973.21533,0.26894
3971.28659,0.26875
3969.35784,0.26860
3967.42910,0.26839
3965.50035,0.26847
3963.57161,0.26854
3961.64286,0.26815
3959.71412,0.26772
3957.78537,0.26749
3955.85663,0.26727
3953.92788,0.26707
3951.99913,0.26686
3950.07039,0.26667
3948.14164,0.26669
3946.21290,0.26678
3944.28415,0.26671
3942.35541,0.26683
3940.42666,0.26743
3938.49792,0.26837
3936.56917,0.26965
3934.64043,0.27120
3932.71168,0.27246
3930.78294,0.27321
3928.85419,0.27405
3926.92545,0.27520
3924.99670,0.27631
3923.06795,0.27749
3921.13921,0.27892
3919.21046,0.28015
3917.28172,0.28084
3915.35297,0.28144
3913.42423,0.28249
3911.49548,0.28364
3909.56674,0.28440
3907.63799,0.28494
3905.70925,0.28553
3903.78050,0.28608
3901.85176,0.28651
3899.92301,0.28683
3897.99427,0.28717
3896.06552,0.28777
3894.13678,0.28837
3892.20803,0.28863
3890.27928,0.28893
3888.35054,0.28961
3886.42179,0.29024
3884.49305,0.29078
3882.56430,0.29179
3880.63556,0.29309
3878.70681,0.29412
3876.77807,0.29492
3874.84932,0.29577
3872.92058,0.29656
3870.99183,0.29709
3869.06309,0.29755
3867.13434,0.29828
3865.20560,0.29918
3863.27685,0.30002
3861.34811,0.30070
3859.41936,0.30116
3857.49061,0.30177
3855.56187,0.30255
3853.63312,0.30303
3851.70438,0.30374
3849.77563,0.30486
3847.84689,0.30563
3845.91814,0.30619
3843.98940,0.30702
3842.06065,0.30791
3840.13191,0.30846
3838.20316,0.30884
3836.27442,0.30926
3834.34567,0.30950
3832.41693,0.30959
3830.48818,0.30994
3828.55943,0.31064
3826.63069,0.31128
3824.70194,0.31171
3822.77320,0.31193
3820.84445,0.31197
3818.91571,0.31224
3816.98696,0.31251
3815.05822,0.31269
3813.12947,0.31339
3811.20073,0.31436
3809.27198,0.31491
3807.34324,0.31500
3805.41449,0.31519
3803.48575,0.31553
3801.55700,0.31574
3799.62826,0.31605
3797.69951,0.31653
3795.77076,0.31677
3793.84202,0.31666
3791.91327,0.31650
3789.98453,0.31661
3788.05578,0.31678
3786.12704,0.31665
3784.19829,0.31634
3782.26955,0.31616
3780.34080,0.31614
3778.41206,0.31618
3776.48331,0.31617
3774.55457,0.31603
3772.62582,0.31572
3770.69708,0.31535
3768.76833,0.31503
3766.83959,0.31475
3764.91084,0.31441
3762.98209,0.31410
3761.05335,0.31389
3759.12460,0.31378
3757.19586,0.31385
3755.26711,0.31393
3753.33837,0.31386
3751.40962,0.31358
3749.48088,0.31326
3747.55213,0.31341
3745.62339,0.31371
3743.69464,0.31357
3741.76590,0.31337
3739.83715,0.31348
3737.90841,0.31342
3735.97966,0.31279
3734.05091,0.31209
3732.12217,0.31187
3730.19342,0.31189
3728.26468,0.31150
3726.33593,0.31052
3724.40719,0.30943
3722.47844,0.30870
3720.54970,0.30827
3718.62095,0.30778
3716.69221,0.30715
3714.76346,0.30652
3712.83472,0.30539
3710.90597,0.30350
3708.97723,0.30178
3707.04848,0.30047
3705.11974,0.29889
3703.19099,0.29672
3701.26224,0.29428
3699.33350,0.29199
3697.40475,0.28963
3695.47601,0.28707
3693.54726,0.28471
3691.61852,0.28225
3689.68977,0.27863
3687.76103,0.27399
3685.83228,0.26969
3683.90354,0.26565
3681.97479,0.26123
3680.04605,0.25669
3678.11730,0.25234
3676.18856,0.24789
3674.25981,0.24408
3672.33107,0.24154
3670.40232,0.23884
3668.47357,0.23572
3666.54483,0.23299
3664.61608,0.23015
3662.68734,0.22691
3660.75859,0.22378
3658.82985,0.22085
3656.90110,0.21751
3654.97236,0.21383
3653.04361,0.21064
3651.11487,0.20737
3649.18612,0.20313
3647.25738,0.19873
3645.32863,0.19529
3643.39989,0.19243
3641.47114,0.18933
3639.54239,0.18592
3637.61365,0.18256
3635.68490,0.17917
3633.75616,0.17580
3631.82741,0.17271
3629.89867,0.16944
3627.96992,0.16561
3626.04118,0.16208
3624.11243,0.15901
3622.18369,0.15597
3620.25494,0.15275
3618.32620,0.14949
3616.39745,0.14675
3614.46871,0.14425
3612.53996,0.14160
3610.61122,0.13897
3608.68247,0.13658
3606.75372,0.13473
3604.82498,0.13333
3602.89623,0.13171
3600.96749,0.12969
3599.03874,0.12747
3597.11000,0.12522
3595.18125,0.12325
3593.25251,0.12166
3591.32376,0.12024
3589.39502,0.11861
3587.46627,0.11664
3585.53753,0.11473
3583.60878,0.11314
3581.68004,0.11183
3579.75129,0.11074
3577.82254,0.10971
3575.89380,0.10828
3573.96505,0.10662
3572.03631,0.10537
3570.10756,0.10429
3568.17882,0.10278
3566.25007,0.10103
3564.32133,0.09954
3562.39258,0.09839
3560.46384,0.09739
3558.53509,0.09647
3556.60635,0.09560
3554.67760,0.09471
3552.74886,0.09384
3550.82011,0.09290
3548.89137,0.09171
3546.96262,0.09052
3545.03387,0.08968
3543.10513,0.08909
3541.17638,0.08829
3539.24764,0.08706
3537.31889,0.08590
3535.39015,0.08513
3533.46140,0.08449
3531.53266,0.08383
3529.60391,0.08325
3527.67517,0.08274
3525.74642,0.08215
3523.81768,0.08159
3521.88893,0.08117
3519.96019,0.08068
3518.03144,0.07998
3516.10270,0.07925
3514.17395,0.07860
3512.24520,0.07796
3510.31646,0.07725
3508.38771,0.07665
3506.45897,0.07629
3504.53022,0.07595
3502.60148,0.07545
3500.67273,0.07493
3498.74399,0.07448
3496.81524,0.07406
3494.88650,0.07362
3492.95775,0.07313
3491.02901,0.07256
3489.10026,0.07207
3487.17152,0.07177
3485.24277,0.07155
3483.31402,0.07126
3481.38528,0.07085
3479.45653,0.07022
3477.52779,0.06940
3475.59904,0.06879
3473.67030,0.06860
3471.74155,0.06843
3469.81281,0.06792
3467.88406,0.06730
3465.95532,0.06679
3464.02657,0.06634
3462.09783,0.06606
3460.16908,0.06596
3458.24034,0.06596
3456.31159,0.06591
3454.38285,0.06557
3452.45410,0.06507
3450.52535,0.06467
3448.59661,0.06437
3446.66786,0.06394
3444.73912,0.06345
3442.81037,0.06319
3440.88163,0.06296
3438.95288,0.06252
3437.02414,0.06219
3435.09539,0.06211
3433.16665,0.06192
3431.23790,0.06168
3429.30916,0.06160
3427.38041,0.06143
3425.45167,0.06128
3423.52292,0.06125
3421.59418,0.06099
3419.66543,0.06045
3417.73668,0.06004
3415.80794,0.06008
3413.87919,0.06038
3411.95045,0.06038
3410.02170,0.05980
3408.09296,0.05920
3406.16421,0.05903
3404.23547,0.05915
3402.30672,0.05914
3400.37798,0.05867
3398.44923,0.05815
3396.52049,0.05812
3394.59174,0.05856
3392.66300,0.05886
3390.73425,0.05859
3388.80550,0.05825
3386.87676,0.05826
3384.94801,0.05815
3383.01927,0.05770
3381.09052,0.05737
3379.16178,0.05749
3377.23303,0.05769
3375.30429,0.05753
3373.37554,0.05719
3371.44680,0.05689
3369.51805,0.05665
3367.58931,0.05653
3365.66056,0.05662
3363.73182,0.05672
3361.80307,0.05650
3359.87433,0.05617
3357.94558,0.05610
3356.01683,0.05629
3354.08809,0.05651
3352.15934,0.05642
3350.23060,0.05605
3348.30185,0.05588
3346.37311,0.05610
3344.44436,0.05638
3342.51562,0.05626
3340.58687,0.05572
3338.65813,0.05531
3336.72938,0.05548
3334.80064,0.05596
3332.87189,0.05634
3330.94315,0.05647
3329.01440,0.05625
3327.08566,0.05576
3325.15691,0.05542
3323.22816,0.05561
3321.29942,0.05618
3319.37067,0.05640
3317.44193,0.05593
3315.51318,0.05537
3313.58444,0.05524
3311.65569,0.05533
3309.72695,0.05536
3307.79820,0.05539
3305.86946,0.05534
3303.94071,0.05521
3302.01197,0.05537
3300.08322,0.05582
3298.15448,0.05605
3296.22573,0.05592
3294.29698,0.05572
3292.36824,0.05571
3290.43949,0.05615
3288.51075,0.05688
3286.58200,0.05724
3284.65326,0.05715
3282.72451,0.05710
3280.79577,0.05724
3278.86702,0.05746
3276.93828,0.05757
3275.00953,0.05758
3273.08079,0.05785
3271.15204,0.05829
3269.22330,0.05858
3267.29455,0.05871
3265.36581,0.05871
3263.43706,0.05871
3261.50831,0.05903
3259.57957,0.05978
3257.65082,0.06063
3255.72208,0.06114
3253.79333,0.06139
3251.86459,0.06172
3249.93584,0.06228
3248.00710,0.06295
3246.07835,0.06331
3244.14961,0.06322
3242.22086,0.06308
3240.29212,0.06316
3238.36337,0.06350
3236.43463,0.06417
3234.50588,0.06491
3232.57713,0.06516
3230.64839,0.06519
3228.71964,0.06562
3226.79090,0.06621
3224.86215,0.06653
3222.93341,0.06675
3221.00466,0.06699
3219.07592,0.06721
3217.14717,0.06755
3215.21843,0.06802
3213.28968,0.06847
3211.36094,0.06878
3209.43219,0.06891
3207.50345,0.06902
3205.57470,0.06922
3203.64596,0.06928
3201.71721,0.06934
3199.78846,0.06972
3197.85972,0.07031
3195.93097,0.07071
3194.00223,0.07080
3192.07348,0.07098
3190.14474,0.07152
3188.21599,0.07200
3186.28725,0.07212
3184.35850,0.07217
3182.42976,0.07245
3180.50101,0.07293
3178.57227,0.07342
3176.64352,0.07389
3174.71478,0.07443
3172.78603,0.07486
3170.85729,0.07503
3168.92854,0.07523
3166.99979,0.07556
3165.07105,0.07588
3163.14230,0.07617
3161.21356,0.07656
3159.28481,0.07711
3157.35607,0.07767
3155.42732,0.07807
3153.49858,0.07827
3151.56983,0.07837
3149.64109,0.07860
3147.71234,0.07896
3145.78360,0.07908
3143.85485,0.07887
3141.92611,0.07887
3139.99736,0.07930
3138.06861,0.07973
3136.13987,0.07987
3134.21112,0.07997
3132.28238,0.08020
3130.35363,0.08054
3128.42489,0.08088
3126.49614,0.08104
3124.56740,0.08092
3122.63865,0.08073
3120.70991,0.08081
3118.78116,0.08089
3116.85242,0.08074
3114.92367,0.08076
3112.99493,0.08110
3111.06618,0.08145
3109.13744,0.08164
3107.20869,0.08164
3105.27994,0.08148
3103.35120,0.08148
3101.42245,0.08168
3099.49371,0.08176
3097.56496,0.08160
3095.63622,0.08116
3093.70747,0.08054
3091.77873,0.08006
3089.84998,0.07984
3087.92124,0.07968
3085.99249,0.07940
3084.06375,0.07906
3082.13500,0.07871
3080.20626,0.07837
3078.27751,0.07830
3076.34877,0.07841
3074.42002,0.07837
3072.49127,0.07816
3070.56253,0.07787
3068.63378,0.07751
3066.70504,0.07715
3064.77629,0.07690
3062.84755,0.07666
3060.91880,0.07627
3058.99006,0.07586
3057.06131,0.07544
3055.13257,0.07481
3053.20382,0.07412
3051.27508,0.07349
3049.34633,0.07259
3047.41759,0.07138
3045.48884,0.07010
3043.56009,0.06875
3041.63135,0.06736
3039.70260,0.06594
3037.77386,0.06446
3035.84511,0.06312
3033.91637,0.06219
3031.98762,0.06151
3030.05888,0.06090
3028.13013,0.06048
3026.20139,0.06037
3024.27264,0.06059
3022.34390,0.06128
3020.41515,0.06219
3018.48641,0.06265
3016.55766,0.06256
3014.62892,0.06207
3012.70017,0.06129
3010.77142,0.06041
3008.84268,0.05948
3006.91393,0.05842
3004.98519,0.05726
3003.05644,0.05594
3001.12770,0.05444
2999.19895,0.05294
2997.27021,0.05135
2995.34146,0.04967
2993.41272,0.04799
2991.48397,0.04620
2989.55523,0.04440
2987.62648,0.04293
2985.69774,0.04181
2983.76899,0.04090
2981.84025,0.03998
2979.91150,0.03889
2977.98275,0.03780
2976.05401,0.03684
2974.12526,0.03578
2972.19652,0.03442
2970.26777,0.03311
2968.33903,0.03216
2966.41028,0.03135
2964.48154,0.03053
2962.55279,0.02994
2960.62405,0.02975
2958.69530,0.02983
2956.76656,0.02992
2954.83781,0.02993
2952.90907,0.02995
2950.98032,0.03005
2949.05157,0.03025
2947.12283,0.03046
2945.19408,0.03045
2943.26534,0.03014
2941.33659,0.02970
2939.40785,0.02926
2937.47910,0.02890
2935.55036,0.02859
2933.62161,0.02820
2931.69287,0.02777
2929.76412,0.02759
2927.83538,0.02781
2925.90663,0.02801
2923.97789,0.02803
2922.04914,0.02832
2920.12040,0.02906
2918.19165,0.02975
2916.26290,0.03019
2914.33416,0.03066
2912.40541,0.03122
2910.47667,0.03186
2908.54792,0.03256
2906.61918,0.03301
2904.69043,0.03322
2902.76169,0.03359
2900.83294,0.03415
2898.90420,0.03465
2896.97545,0.03509
2895.04671,0.03565
2893.11796,0.03622
2891.18922,0.03664
2889.26047,0.03705
2887.33172,0.03748
2885.40298,0.03778
2883.47423,0.03798
2881.54549,0.03801
2879.61674,0.03795
2877.68800,0.03805
2875.75925,0.03812
2873.83051,0.03787
2871.90176,0.03745
2869.97302,0.03707
2868.04427,0.03690
2866.11553,0.03687
2864.18678,0.03660
2862.25804,0.03591
2860.32929,0.03509
2858.40055,0.03450
2856.47180,0.03408
2854.54305,0.03359
2852.61431,0.03337
2850.68556,0.03387
2848.75682,0.03523
2846.82807,0.03722
2844.89933,0.03954
2842.97058,0.04206
2841.04184,0.04466
2839.11309,0.04727
2837.18435,0.05013
2835.25560,0.05341
2833.32686,0.05689
2831.39811,0.06017
2829.46937,0.06322
2827.54062,0.06624
2825.61188,0.06937
2823.68313,0.07249
2821.75438,0.07521
2819.82564,0.07740
2817.89689,0.07945
2815.96815,0.08171
2814.03940,0.08401
2812.11066,0.08595
2810.18191,0.08757
2808.25317,0.08922
2806.32442,0.09108
2804.39568,0.09296
2802.46693,0.09472
2800.53819,0.09660
2798.60944,0.09872
2796.68070,0.10089
2794.75195,0.10297
2792.82320,0.10498
2790.89446,0.10685
2788.96571,0.10849
2787.03697,0.11004
2785.10822,0.11161
2783.17948,0.11306
2781.25073,0.11433
2779.32199,0.11552
2777.39324,0.11689
2775.46450,0.11839
2773.53575,0.11967
2771.60701,0.12056
2769.67826,0.12131
2767.74952,0.12212
2765.82077,0.12291
2763.89203,0.12349
2761.96328,0.12391
2760.03453,0.12447
2758.10579,0.12507
2756.17704,0.12552
2754.24830,0.12609
2752.31955,0.12694
2750.39081,0.12768
2748.46206,0.12797
2746.53332,0.12801
2744.60457,0.12801
2742.67583,0.12775
2740.74708,0.12720
2738.81834,0.12640
2736.88959,0.12505
2734.96085,0.12281
2733.03210,0.11971
2731.10336,0.11610
2729.17461,0.11278
2727.24586,0.11093
2725.31712,0.11158
2723.38837,0.11479
2721.45963,0.11963
2719.53088,0.12471
2717.60214,0.12900
2715.67339,0.13223
2713.74465,0.13449
2711.81590,0.13606
2709.88716,0.13732
2707.95841,0.13833
2706.02967,0.13905
2704.10092,0.13955
2702.17218,0.13983
2700.24343,0.14001
2698.31468,0.14023
2696.38594,0.14038
2694.45719,0.14042
2692.52845,0.14043
2690.59970,0.14038
2688.67096,0.14019
2686.74221,0.14007
2684.81347,0.14033
2682.88472,0.14080
2680.95598,0.14115
2679.02723,0.14134
2677.09849,0.14146
2675.16974,0.14171
2673.24100,0.14205
2671.31225,0.14224
2669.38351,0.14229
2667.45476,0.14231
2665.52601,0.14223
2663.59727,0.14215
2661.66852,0.14210
2659.73978,0.14181
2657.81103,0.14114
2655.88229,0.14041
2653.95354,0.13986
2652.02480,0.13936
2650.09605,0.13873
2648.16731,0.13787
2646.23856,0.13695
2644.30982,0.13600
2642.38107,0.13472
2640.45233,0.13313
2638.52358,0.13139
2636.59484,0.12948
2634.66609,0.12742
2632.73734,0.12539
2630.80860,0.12365
2628.87985,0.12230
2626.95111,0.12127
2625.02236,0.12066
2623.09362,0.12050
2621.16487,0.12053
2619.23613,0.12054
2617.30738,0.12050
2615.37864,0.12034
2613.44989,0.12005
2611.52115,0.11966
2609.59240,0.11900
2607.66366,0.11812
2605.73491,0.11746
2603.80616,0.11714
2601.87742,0.11668
2599.94867,0.11584
2598.01993,0.11483
2596.09118,0.11377
2594.16244,0.11254
2592.23369,0.11123
2590.30495,0.11015
2588.37620,0.10951
2586.44746,0.10912
2584.51871,0.10873
2582.58997,0.10834
2580.66122,0.10793
2578.73248,0.10748
2576.80373,0.10705
2574.87499,0.10676
2572.94624,0.10663
2571.01749,0.10655
2569.08875,0.10635
2567.16000,0.10595
2565.23126,0.10521
2563.30251,0.10411
2561.37377,0.10289
2559.44502,0.10180
2557.51628,0.10079
2555.58753,0.09976
2553.65879,0.09873
2551.73004,0.09785
2549.80130,0.09715
2547.87255,0.09637
2545.94381,0.09534
2544.01506,0.09416
2542.08631,0.09271
2540.15757,0.09081
2538.22882,0.08872
2536.30008,0.08662
2534.37133,0.08435
2532.44259,0.08202
2530.51384,0.08002
2528.58510,0.07843
2526.65635,0.07713
2524.72761,0.07608
2522.79886,0.07528
2520.87012,0.07492
2518.94137,0.07500
2517.01263,0.07534
2515.08388,0.07601
2513.15514,0.07708
2511.22639,0.07848
2509.29764,0.08036
2507.36890,0.08289
2505.44015,0.08598
2503.51141,0.08937
2501.58266,0.09283
2499.65392,0.09632
2497.72517,0.09993
2495.79643,0.10368
2493.86768,0.10752
2491.93894,0.11135
2490.01019,0.11513
2488.08145,0.11919
2486.15270,0.12379
2484.22396,0.12872
2482.29521,0.13372
2480.36647,0.13881
2478.43772,0.14387
2476.50897,0.14861
2474.58023,0.15309
2472.65148,0.15737
2470.72274,0.16124
2468.79399,0.16461
2466.86525,0.16756
2464.93650,0.17014
2463.00776,0.17243
2461.07901,0.17463
2459.15027,0.17682
2457.22152,0.17887
2455.29278,0.18068
2453.36403,0.18243
2451.43529,0.18426
2449.50654,0.18606
2447.57779,0.18784
2445.64905,0.18963
2443.72030,0.19127
2441.79156,0.19271
2439.86281,0.19409
2437.93407,0.19541
2436.00532,0.19662
2434.07658,0.19783
2432.14783,0.19913
2430.21909,0.20037
2428.29034,0.20132
2426.36160,0.20208
2424.43285,0.20293
2422.50411,0.20394
2420.57536,0.20490
2418.64662,0.20570
2416.71787,0.20642
2414.78912,0.20712
2412.86038,0.20777
2410.93163,0.20837
2409.00289,0.20898
2407.07414,0.20986
2405.14540,0.21109
2403.21665,0.21235
2401.28791,0.21335
2399.35916,0.21427
2397.43042,0.21535
2395.50167,0.21658
2393.57293,0.21776
2391.64418,0.21882
2389.71544,0.21984
2387.78669,0.22090
2385.85795,0.22195
2383.92920,0.22294
2382.00045,0.22378
2380.07171,0.22438
2378.14296,0.22482
2376.21422,0.22536
2374.28547,0.22610
2372.35673,0.22696
2370.42798,0.22771
2368.49924,0.22828
2366.57049,0.22890
2364.64175,0.22947
2362.71300,0.22971
2360.78426,0.22972
2358.85551,0.22977
2356.92677,0.23009
2354.99802,0.23076
2353.06927,0.23139
2351.14053,0.23174
2349.21178,0.23189
2347.28304,0.23198
2345.35429,0.23207
2343.42555,0.23203
2341.49680,0.23190
2339.56806,0.23192
2337.63931,0.23212
2335.71057,0.23236
2333.78182,0.23256
2331.85308,0.23282
2329.92433,0.23310
2327.99559,0.23325
2326.06684,0.23334
2324.13810,0.23349
2322.20935,0.23368
2320.28060,0.23396
2318.35186,0.23440
2316.42311,0.23493
2314.49437,0.23540
2312.56562,0.23569
2310.63688,0.23595
2308.70813,0.23640
2306.77939,0.23703
2304.85064,0.23763
2302.92190,0.23811
2300.99315,0.23861
2299.06441,0.23919
2297.13566,0.23963
2295.20692,0.23981
2293.27817,0.23981
2291.34943,0.23974
2289.42068,0.23964
2287.49193,0.23953
2285.56319,0.23935
2283.63444,0.23909
2281.70570,0.23869
2279.77695,0.23812
2277.84821,0.23759
2275.91946,0.23724
2273.99072,0.23685
2272.06197,0.23626
2270.13323,0.23558
2268.20448,0.23485
2266.27574,0.23391
2264.34699,0.23284
2262.41825,0.23168
2260.48950,0.23024
2258.56075,0.22837
2256.63201,0.22598
2254.70326,0.22289
2252.77452,0.21904
2250.84577,0.21455
2248.91703,0.20956
2246.98828,0.20450
2245.05954,0.20015
2243.13079,0.19748
2241.20205,0.19753
2239.27330,0.20073
2237.34456,0.20633
2235.41581,0.21292
2233.48707,0.21912
2231.55832,0.22390
2229.62958,0.22687
2227.70083,0.22838
2225.77208,0.22900
2223.84334,0.22921
2221.91459,0.22919
2219.98585,0.22900
2218.05710,0.22876
2216.12836,0.22857
2214.19961,0.22832
2212.27087,0.22800
2210.34212,0.22773
2208.41338,0.22747
2206.48463,0.22713
2204.55589,0.22668
2202.62714,0.22622
2200.69840,0.22580
2198.76965,0.22534
2196.84090,0.22478
2194.91216,0.22414
2192.98341,0.22351
2191.05467,0.22293
2189.12592,0.22240
2187.19718,0.22186
2185.26843,0.22115
2183.33969,0.22034
2181.41094,0.21950
2179.48220,0.21859
2177.55345,0.21759
2175.62471,0.21655
2173.69596,0.21543
2171.76722,0.21424
2169.83847,0.21313
2167.90973,0.21216
2165.98098,0.21123
2164.05223,0.21037
2162.12349,0.20951
2160.19474,0.20853
2158.26600,0.20727
2156.33725,0.20587
2154.40851,0.20468
2152.47976,0.20375
2150.55102,0.20296
2148.62227,0.20238
2146.69353,0.20212
2144.76478,0.20224
2142.83604,0.20268
2140.90729,0.20342
2138.97855,0.20446
2137.04980,0.20566
2135.12106,0.20711
2133.19231,0.20889
2131.26356,0.21081
2129.33482,0.21277
2127.40607,0.21482
2125.47733,0.21683
2123.54858,0.21875
2121.61984,0.22062
2119.69109,0.22238
2117.76235,0.22395
2115.83360,0.22531
2113.90486,0.22643
2111.97611,0.22726
2110.04737,0.22786
2108.11862,0.22828
2106.18988,0.22861
2104.26113,0.22889
2102.33238,0.22909
2100.40364,0.22918
2098.47489,0.22932
2096.54615,0.22955
2094.61740,0.22965
2092.68866,0.22956
2090.75991,0.22942
2088.83117,0.22919
2086.90242,0.22878
2084.97368,0.22825
2083.04493,0.22761
2081.11619,0.22695
2079.18744,0.22643
2077.25870,0.22606
2075.32995,0.22579
2073.40121,0.22549
2071.47246,0.22513
2069.54371,0.22483
2067.61497,0.22469
2065.68622,0.22465
2063.75748,0.22440
2061.82873,0.22382
2059.89999,0.22314
2057.97124,0.22251
2056.04250,0.22203
2054.11375,0.22173
2052.18501,0.22149
2050.25626,0.22120
2048.32752,0.22086
2046.39877,0.22043
2044.47003,0.21981
2042.54128,0.21920
2040.61254,0.21894
2038.68379,0.21895
2036.75504,0.21906
2034.82630,0.21924
2032.89755,0.21948
2030.96881,0.21987
2029.04006,0.22046
2027.11132,0.22126
2025.18257,0.22217
2023.25383,0.22300
2021.32508,0.22369
2019.39634,0.22440
2017.46759,0.22526
2015.53885,0.22616
2013.61010,0.22691
2011.68136,0.22754
2009.75261,0.22820
2007.82386,0.22894
2005.89512,0.22964
2003.96637,0.23023
2002.03763,0.23081
2000.10888,0.23136
1998.18014,0.23175
1996.25139,0.23198
1994.32265,0.23213
1992.39390,0.23223
1990.46516,0.23225
1988.53641,0.23211
1986.60767,0.23166
1984.67892,0.23096
1982.75018,0.23029
1980.82143,0.22956
1978.89269,0.22838
1976.96394,0.22700
1975.03519,0.22604
1973.10645,0.22565
1971.17770,0.22555
1969.24896,0.22529
1967.32021,0.22434
1965.39147,0.22252
1963.46272,0.22036
1961.53398,0.21891
1959.60523,0.21892
1957.67649,0.22003
1955.74774,0.22126
1953.81900,0.22212
1951.89025,0.22253
1949.96151,0.22243
1948.03276,0.22197
1946.10402,0.22151
1944.17527,0.22121
1942.24652,0.22103
1940.31778,0.22103
1938.38903,0.22141
1936.46029,0.22207
1934.53154,0.22279
1932.60280,0.22346
1930.67405,0.22390
1928.74531,0.22404
1926.81656,0.22404
1924.88782,0.22395
1922.95907,0.22364
1921.03033,0.22308
1919.10158,0.22244
1917.17284,0.22180
1915.24409,0.22103
1913.31534,0.22007
1911.38660,0.21908
1909.45785,0.21794
1907.52911,0.21659
1905.60036,0.21531
1903.67162,0.21421
1901.74287,0.21299
1899.81413,0.21150
1897.88538,0.20987
1895.95664,0.20829
1894.02789,0.20686
1892.09915,0.20544
1890.17040,0.20386
1888.24166,0.20219
1886.31291,0.20066
1884.38417,0.19926
1882.45542,0.19795
1880.52667,0.19679
1878.59793,0.19572
1876.66918,0.19455
1874.74044,0.19324
1872.81169,0.19195
1870.88295,0.19061
1868.95420,0.18906
1867.02546,0.18752
1865.09671,0.18626
1863.16797,0.18520
1861.23922,0.18407
1859.31048,0.18288
1857.38173,0.18176
1855.45299,0.18061
1853.52424,0.17916
1851.59549,0.17717
1849.66675,0.17475
1847.73800,0.17213
1845.80926,0.16923
1843.88051,0.16569
1841.95177,0.16167
1840.02302,0.15750
1838.09428,0.15283
1836.16553,0.14745
1834.23679,0.14159
1832.30804,0.13535
1830.37930,0.12858
1828.45055,0.12195
1826.52181,0.11628
1824.59306,0.11156
1822.66432,0.10792
1820.73557,0.10528
1818.80682,0.10300
1816.87808,0.10072
1814.94933,0.09846
1813.02059,0.09600
1811.09184,0.09273
1809.16310,0.08823
1807.23435,0.08260
1805.30561,0.07631
1803.37686,0.07035
1801.44812,0.06565
1799.51937,0.06262
1797.59063,0.06111
1795.66188,0.06081
1793.73314,0.06190
1791.80439,0.06505
1789.87565,0.06996
1787.94690,0.07535
1786.01815,0.08057
1784.08941,0.08542
1782.16066,0.08957
1780.23192,0.09265
1778.30317,0.09447
1776.37443,0.09521
1774.44568,0.09520
1772.51694,0.09444
1770.58819,0.09291
1768.65945,0.09090
1766.73070,0.08853
1764.80196,0.08580
1762.87321,0.08251
1760.94447,0.07878
1759.01572,0.07505
1757.08697,0.07087
1755.15823,0.06625
1753.22948,0.06183
1751.30074,0.05736
1749.37199,0.05285
1747.44325,0.04899
1745.51450,0.04590
1743.58576,0.04357
1741.65701,0.04206
1739.72827,0.04125
1737.79952,0.04091
1735.87078,0.04072
1733.94203,0.04033
1732.01329,0.03986
1730.08454,0.03970
1728.15580,0.03981
1726.22705,0.03993
1724.29830,0.04000
1722.36956,0.04013
1720.44081,0.04036
1718.51207,0.04072
1716.58332,0.04129
1714.65458,0.04219
1712.72583,0.04337
1710.79709,0.04464
1708.86834,0.04583
1706.93960,0.04692
1705.01085,0.04793
1703.08211,0.04876
1701.15336,0.04927
1699.22462,0.04959
1697.29587,0.04981
1695.36713,0.04957
1693.43838,0.04889
1691.50963,0.04815
1689.58089,0.04748
1687.65214,0.04696
1685.72340,0.04632
1683.79465,0.04515
1681.86591,0.04387
1679.93716,0.04297
1678.00842,0.04232
1676.07967,0.04162
1674.15093,0.04078
1672.22218,0.03989
1670.29344,0.03879
1668.36469,0.03755
1666.43595,0.03672
1664.50720,0.03643
1662.57845,0.03639
1660.64971,0.03642
1658.72096,0.03663
1656.79222,0.03708
1654.86347,0.03757
1652.93473,0.03777
1651.00598,0.03781
1649.07724,0.03807
1647.14849,0.03845
1645.21975,0.03870
1643.29100,0.03878
1641.36226,0.03889
1639.43351,0.03916
1637.50477,0.03949
1635.57602,0.03975
1633.64728,0.03995
1631.71853,0.04016
1629.78978,0.04046
1627.86104,0.04095
1625.93229,0.04154
1624.00355,0.04194
1622.07480,0.04218
1620.14606,0.04264
1618.21731,0.04323
1616.28857,0.04382
1614.35982,0.04445
1612.43108,0.04496
1610.50233,0.04532
1608.57359,0.04557
1606.64484,0.04573
1604.71610,0.04585
1602.78735,0.04607
1600.85861,0.04638
1598.92986,0.04668
1597.00111,0.04704
1595.07237,0.04761
1593.14362,0.04834
1591.21488,0.04908
1589.28613,0.04970
1587.35739,0.05024
1585.42864,0.05087
1583.49990,0.05146
1581.57115,0.05201
1579.64241,0.05280
1577.71366,0.05391
1575.78492,0.05511
1573.85617,0.05612
1571.92743,0.05706
1569.99868,0.05804
1568.06993,0.05885
1566.14119,0.05933
1564.21244,0.05963
1562.28370,0.05993
1560.35495,0.06016
1558.42621,0.06012
1556.49746,0.05995
1554.56872,0.05986
1552.63997,0.05971
1550.71123,0.05948
1548.78248,0.05935
1546.85374,0.05920
1544.92499,0.05881
1542.99625,0.05844
1541.06750,0.05834
1539.13876,0.05848
1537.21001,0.05877
1535.28126,0.05914
1533.35252,0.05964
1531.42377,0.06028
1529.49503,0.06070
1527.56628,0.06064
1525.63754,0.06036
1523.70879,0.06019
1521.78005,0.05968
1519.85130,0.05872
1517.92256,0.05784
1515.99381,0.05721
1514.06507,0.05672
1512.13632,0.05629
1510.20758,0.05588
1508.27883,0.05530
1506.35008,0.05424
1504.42134,0.05312
1502.49259,0.05237
1500.56385,0.05170
1498.63510,0.05071
1496.70636,0.04937
1494.77761,0.04829
1492.84887,0.04771
1490.92012,0.04716
1488.99138,0.04640
1487.06263,0.04557
1485.13389,0.04476
1483.20514,0.04387
1481.27640,0.04290
1479.34765,0.04198
1477.41891,0.04116
1475.49016,0.04026
1473.56141,0.03908
1471.63267,0.03779
1469.70392,0.03685
1467.77518,0.03628
1465.84643,0.03580
1463.91769,0.03529
1461.98894,0.03484
1460.06020,0.03446
1458.13145,0.03402
1456.20271,0.03366
1454.27396,0.03343
1452.34522,0.03319
1450.41647,0.03317
1448.48773,0.03353
1446.55898,0.03393
1444.63024,0.03412
1442.70149,0.03430
1440.77274,0.03458
1438.84400,0.03481
1436.91525,0.03499
1434.98651,0.03529
1433.05776,0.03557
1431.12902,0.03582
1429.20027,0.03634
1427.27153,0.03699
1425.34278,0.03738
1423.41404,0.03752
1421.48529,0.03768
1419.55655,0.03793
1417.62780,0.03812
1415.69906,0.03817
1413.77031,0.03817
1411.84156,0.03824
1409.91282,0.03843
1407.98407,0.03859
1406.05533,0.03862
1404.12658,0.03855
1402.19784,0.03855
1400.26909,0.03863
1398.34035,0.03865
1396.41160,0.03863
1394.48286,0.03875
1392.55411,0.03906
1390.62537,0.03940
1388.69662,0.03967
1386.76788,0.03976
1384.83913,0.03962
1382.91039,0.03928
1380.98164,0.03867
1379.05289,0.03791
1377.12415,0.03749
1375.19540,0.03791
1373.26666,0.03917
1371.33791,0.04062
1369.40917,0.04169
1367.48042,0.04243
1365.55168,0.04307
1363.62293,0.04372
1361.69419,0.04427
1359.76544,0.04470
1357.83670,0.04525
1355.90795,0.04604
1353.97921,0.04696
1352.05046,0.04781
1350.12172,0.04852
1348.19297,0.04915
1346.26422,0.04967
1344.33548,0.05007
1342.40673,0.05049
1340.47799,0.05100
1338.54924,0.05141
1336.62050,0.05154
1334.69175,0.05149
1332.76301,0.05147
1330.83426,0.05146
1328.90552,0.05144
1326.97677,0.05135
1325.04803,0.05115
1323.11928,0.05095
1321.19054,0.05082
1319.26179,0.05069
1317.33304,0.05055
1315.40430,0.05049
1313.47555,0.05052
1311.54681,0.05060
1309.61806,0.05076
1307.68932,0.05093
1305.76057,0.05108
1303.83183,0.05135
1301.90308,0.05177
1299.97434,0.05218
1298.04559,0.05250
1296.11685,0.05276
1294.18810,0.05301
1292.25936,0.05317
1290.33061,0.05316
1288.40187,0.05297
1286.47312,0.05278
1284.54437,0.05267
1282.61563,0.05258
1280.68688,0.05246
1278.75814,0.05232
1276.82939,0.05217
1274.90065,0.05194
1272.97190,0.05141
1271.04316,0.05058
1269.11441,0.04965
1267.18567,0.04875
1265.25692,0.04798
1263.32818,0.04743
1261.39943,0.04712
1259.47069,0.04705
1257.54194,0.04697
1255.61320,0.04676
1253.68445,0.04652
1251.75570,0.04632
1249.82696,0.04611
1247.89821,0.04580
1245.96947,0.04535
1244.04072,0.04477
1242.11198,0.04402
1240.18323,0.04341
1238.25449,0.04332
1236.32574,0.04367
1234.39700,0.04395
1232.46825,0.04383
1230.53951,0.04364
1228.61076,0.04369
1226.68202,0.04378
1224.75327,0.04369
1222.82452,0.04355
1220.89578,0.04351
1218.96703,0.04350
1217.03829,0.04339
1215.10954,0.04322
1213.18080,0.04300
1211.25205,0.04259
1209.32331,0.04199
1207.39456,0.04149
1205.46582,0.04127
1203.53707,0.04110
1201.60833,0.04087
1199.67958,0.04086
1197.75084,0.04102
1195.82209,0.04098
1193.89335,0.04087
1191.96460,0.04083
1190.03585,0.04061
1188.10711,0.04025
1186.17836,0.03994
1184.24962,0.03970
1182.32087,0.03946
1180.39213,0.03908
1178.46338,0.03867
1176.53464,0.03843
1174.60589,0.03824
1172.67715,0.03781
1170.74840,0.03725
1168.81966,0.03686
1166.89091,0.03665
1164.96217,0.03658
1163.03342,0.03660
1161.10467,0.03666
1159.17593,0.03679
1157.24718,0.03705
1155.31844,0.03743
1153.38969,0.03777
1151.46095,0.03793
1149.53220,0.03796
1147.60346,0.03803
1145.67471,0.03805
1143.74597,0.03787
1141.81722,0.03769
1139.88848,0.03763
1137.95973,0.03754
1136.03099,0.03743
1134.10224,0.03752
1132.17350,0.03772
1130.24475,0.03773
1128.31600,0.03757
1126.38726,0.03736
1124.45851,0.03714
1122.52977,0.03726
1120.60102,0.03808
1118.67228,0.03919
1116.74353,0.03983
1114.81479,0.04002
1112.88604,0.04014
1110.95730,0.04025
1109.02855,0.04033
1107.09981,0.04039
1105.17106,0.04013
1103.24232,0.03942
1101.31357,0.03864
1099.38483,0.03811
1097.45608,0.03759
1095.52733,0.03704
1093.59859,0.03672
1091.66984,0.03662
1089.74110,0.03659
1087.81235,0.03667
1085.88361,0.03699
1083.95486,0.03754
1082.02612,0.03813
1080.09737,0.03864
1078.16863,0.03924
1076.23988,0.03992
1074.31114,0.04048
1072.38239,0.04100
1070.45365,0.04155
1068.52490,0.04189
1066.59615,0.04197
1064.66741,0.04217
1062.73866,0.04254
1060.80992,0.04258
1058.88117,0.04214
1056.95243,0.04146
1055.02368,0.04097
1053.09494,0.04093
1051.16619,0.04095
1049.23745,0.04071
1047.30870,0.04046
1045.37996,0.04041
1043.45121,0.04044
1041.52247,0.04061
1039.59372,0.04083
1037.66498,0.04076
1035.73623,0.04053
1033.80748,0.04051
1031.87874,0.04074
1029.94999,0.04108
1028.02125,0.04137
1026.09250,0.04146
1024.16376,0.04159
1022.23501,0.04202
1020.30627,0.04261
1018.37752,0.04304
1016.44878,0.04315
1014.52003,0.04311
1012.59129,0.04326
1010.66254,0.04364
1008.73380,0.04388
1006.80505,0.04400
1004.87631,0.04438
1002.94756,0.04497
1001.01881,0.04547
999.09007,0.04573
997.16132,0.04582
995.23258,0.04594
993.30383,0.04617
991.37509,0.04657
989.44634,0.04716
987.51760,0.04779
985.58885,0.04834
983.66011,0.04888
981.73136,0.04945
979.80262,0.04980
977.87387,0.04952
975.94513,0.04867
974.01638,0.04772
972.08763,0.04691
970.15889,0.04637
968.23014,0.04643
966.30140,0.04724
964.37265,0.04860
962.44391,0.05053
960.51516,0.05306
958.58642,0.05571
956.65767,0.05792
954.72893,0.05957
952.80018,0.06065
950.87144,0.06129
948.94269,0.06171
947.01395,0.06191
945.08520,0.06203
943.15646,0.06219
941.22771,0.06218
939.29896,0.06187
937.37022,0.06150
935.44147,0.06141
933.51273,0.06162
931.58398,0.06181
929.65524,0.06190
927.72649,0.06220
925.79775,0.06279
923.86900,0.06328
921.94026,0.06346
920.01151,0.06350
918.08277,0.06340
916.15402,0.06308
914.22528,0.06287
912.29653,0.06304
910.36779,0.06358
908.43904,0.06452
906.51029,0.06589
904.58155,0.06752
902.65280,0.06902
900.72406,0.07000
898.79531,0.07031
896.86657,0.07001
894.93782,0.06902
893.00908,0.06730
891.08033,0.06477
889.15159,0.06078
887.22284,0.05504
885.29410,0.04886
883.36535,0.04419
881.43661,0.04147
879.50786,0.03974
877.57911,0.03830
875.65037,0.03763
873.72162,0.03857
871.79288,0.04107
869.86413,0.04456
867.93539,0.04841
866.00664,0.05173
864.07790,0.05413
862.14915,0.05572
860.22041,0.05642
858.29166,0.05628
856.36292,0.05536
854.43417,0.05369
852.50543,0.05172
850.57668,0.04970
848.64794,0.04822
846.71919,0.04827
844.79044,0.04913
842.86170,0.04937
840.93295,0.04908
839.00421,0.04885
837.07546,0.04887
835.14672,0.04907
833.21797,0.04933
831.28923,0.04970
829.36048,0.05023
827.43174,0.05081
825.50299,0.05137
823.57425,0.05188
821.64550,0.05252
819.71676,0.05336
817.78801,0.05434
815.85926,0.05559
813.93052,0.05689
812.00177,0.05739
810.07303,0.05715
808.14428,0.05714
806.21554,0.05757
804.28679,0.05793
802.35805,0.05802
800.42930,0.05816
798.50056,0.05866
796.57181,0.05941
794.64307,0.06017
792.71432,0.06073
790.78558,0.06120
788.85683,0.06171
786.92809,0.06208
784.99934,0.06236
783.07059,0.06276
781.14185,0.06299
779.21310,0.06271
777.28436,0.06200
775.35561,0.06114
773.42687,0.06006
771.49812,0.05856
769.56938,0.05683
767.64063,0.05513
765.71189,0.05348
763.78314,0.05204
761.85440,0.05108
759.92565,0.05054
757.99691,0.05025
756.06816,0.05027
754.13942,0.05058
752.21067,0.05079
750.28192,0.05078
748.35318,0.05073
746.42443,0.05064
744.49569,0.05020
742.56694,0.04935
740.63820,0.04823
738.70945,0.04681
736.78071,0.04521
734.85196,0.04363
732.92322,0.04158
730.99447,0.03897
729.06573,0.03721
727.13698,0.03732
725.20824,0.03821
723.27949,0.03834
721.35074,0.03748
719.42200,0.03606
717.49325,0.03423
715.56451,0.03269
713.63576,0.03275
711.70702,0.03474
709.77827,0.03742
707.84953,0.03940
705.92078,0.04051
703.99204,0.04111
702.06329,0.04150
700.13455,0.04246
698.20580,0.04463
696.27706,0.04755
694.34831,0.05002
692.41957,0.05168
690.49082,0.05292
688.56207,0.05378
686.63333,0.05410
684.70458,0.05399
682.77584,0.05348
680.84709,0.05260
678.91835,0.05178
676.98960,0.05137
675.06086,0.05125
673.13211,0.05116
671.20337,0.05094
669.27462,0.05083
667.34588,0.05125
665.41713,0.05170
663.48839,0.05131
661.55964,0.05008
659.63090,0.04902
657.70215,0.04857
655.77340,0.04791
653.84466,0.04714
651.91591,0.04734
649.98717,0.04796
648.05842,0.04772
646.12968,0.04693
644.20093,0.04629
642.27219,0.04593
640.34344,0.04575
638.41470,0.04554
636.48595,0.04553
634.55721,0.04605
632.62846,0.04742
630.69972,0.04866
628.77097,0.04792
626.84222,0.04583
624.91348,0.04398
622.98473,0.04220
621.05599,0.04085
619.12724,0.04100
617.19850,0.04235
615.26975,0.04333
613.34101,0.04239
611.41226,0.04011
609.48352,0.03848
607.55477,0.03771
605.62603,0.03729
603.69728,0.03734
601.76854,0.03740
599.83979,0.03721
