7497.03301,0.49724
7495.10426,0.49772
7493.17552,0.49831
7491.24677,0.49995
7489.31803,0.50108
7487.38928,0.50108
7485.46054,0.50021
7483.53179,0.49861
7481.60305,0.49761
7479.67430,0.49763
7477.74556,0.49897
7475.81681,0.50150
7473.88807,0.50496
7471.95932,0.50969
7470.03057,0.51251
7468.10183,0.51049
7466.17308,0.50559
7464.24434,0.50187
7462.31559,0.50062
7460.38685,0.49959
7458.45810,0.49898
7456.52936,0.50090
7454.60061,0.50195
7452.67187,0.49881
7450.74312,0.49604
7448.81438,0.49775
7446.88563,0.50036
7444.95689,0.50068
7443.02814,0.50232
7441.09940,0.50740
7439.17065,0.50961
7437.24190,0.50482
7435.31316,0.49722
7433.38441,0.49261
7431.45567,0.49366
7429.52692,0.49787
7427.59818,0.50126
7425.66943,0.50169
7423.74069,0.49803
7421.81194,0.49166
7419.88320,0.48555
7417.95445,0.48194
7416.02571,0.48276
7414.09696,0.49022
7412.16822,0.50175
7410.23947,0.50840
7408.31073,0.50548
7406.38198,0.49768
7404.45323,0.49110
7402.52449,0.48873
7400.59574,0.49216
7398.66700,0.49896
7396.73825,0.50203
7394.80951,0.49929
7392.88076,0.49648
7390.95202,0.49716
7389.02327,0.49825
7387.09453,0.49786
7385.16578,0.49972
7383.23704,0.50346
7381.30829,0.50309
7379.37955,0.50002
7377.45080,0.49915
7375.52205,0.49851
7373.59331,0.49631
7371.66456,0.49349
7369.73582,0.48979
7367.80707,0.48768
7365.87833,0.48976
7363.94958,0.49132
7362.02084,0.48726
7360.09209,0.48175
7358.16335,0.48147
7356.23460,0.48565
7354.30586,0.49024
7352.37711,0.49519
7350.44837,0.49896
7348.51962,0.49693
7346.59088,0.49114
7344.66213,0.48829
7342.73338,0.48969
7340.80464,0.49096
7338.87589,0.48987
7336.94715,0.48947
7335.01840,0.49086
7333.08966,0.49170
7331.16091,0.49040
7329.23217,0.48782
7327.30342,0.48614
7325.37468,0.48686
7323.44593,0.48975
7321.51719,0.49135
7319.58844,0.48835
7317.65970,0.48201
7315.73095,0.47684
7313.80221,0.47700
7311.87346,0.48150
7309.94471,0.48510
7308.01597,0.48688
7306.08722,0.48887
7304.15848,0.48887
7302.22973,0.48615
7300.30099,0.48370
7298.37224,0.48221
7296.44350,0.48225
7294.51475,0.48316
7292.58601,0.48087
7290.65726,0.47649
7288.72852,0.47521
7286.79977,0.47864
7284.87103,0.48565
7282.94228,0.49201
7281.01353,0.49231
7279.08479,0.48804
7277.15604,0.48461
7275.22730,0.48280
7273.29855,0.48202
7271.36981,0.48216
7269.44106,0.48169
7267.51232,0.48152
7265.58357,0.48341
7263.65483,0.48531
7261.72608,0.48480
7259.79734,0.48290
7257.86859,0.48225
7255.93985,0.48281
7254.01110,0.48151
7252.08236,0.47862
7250.15361,0.47896
7248.22486,0.48210
7246.29612,0.48153
7244.36737,0.47720
7242.43863,0.47496
7240.50988,0.47669
7238.58114,0.48093
7236.65239,0.48458
7234.72365,0.48399
7232.79490,0.47984
7230.86616,0.47474
7228.93741,0.47176
7227.00867,0.47511
7225.07992,0.48076
7223.15118,0.48040
7221.22243,0.47779
7219.29369,0.47833
7217.36494,0.47721
7215.43619,0.47231
7213.50745,0.46916
7211.57870,0.47087
7209.64996,0.47339
7207.72121,0.47308
7205.79247,0.47256
7203.86372,0.47357
7201.93498,0.47279
7200.00623,0.46964
7198.07749,0.46814
7196.14874,0.46897
7194.22000,0.47018
7192.29125,0.47227
7190.36251,0.47478
7188.43376,0.47521
7186.50501,0.47257
7184.57627,0.46886
7182.64752,0.46784
7180.71878,0.46994
7178.79003,0.47196
7176.86129,0.47374
7174.93254,0.47628
7173.00380,0.47609
7171.07505,0.47112
7169.14631,0.46798
7167.21756,0.47200
7165.28882,0.47620
7163.36007,0.47450
7161.43133,0.47115
7159.50258,0.46939
7157.57384,0.46850
7155.64509,0.46932
7153.71634,0.47227
7151.78760,0.47314
7149.85885,0.47073
7147.93011,0.47013
7146.00136,0.47135
7144.07262,0.47086
7142.14387,0.47048
7140.21513,0.47339
7138.28638,0.47683
7136.35764,0.47531
7134.42889,0.47109
7132.50015,0.46979
7130.57140,0.46997
7128.64266,0.46907
7126.71391,0.46965
7124.78516,0.47161
7122.85642,0.47103
7120.92767,0.47000
7118.99893,0.47215
7117.07018,0.47487
7115.14144,0.47460
7113.21269,0.47075
7111.28395,0.46643
7109.35520,0.46667
7107.42646,0.47061
7105.49771,0.47218
7103.56897,0.47058
7101.64022,0.47006
7099.71148,0.47177
7097.78273,0.47381
7095.85399,0.47362
7093.92524,0.47003
7091.99649,0.46614
7090.06775,0.46514
7088.13900,0.46574
7086.21026,0.46617
7084.28151,0.46627
7082.35277,0.46598
7080.42402,0.46592
7078.49528,0.46656
7076.56653,0.46818
7074.63779,0.47115
7072.70904,0.47310
7070.78030,0.47091
7068.85155,0.46669
7066.92281,0.46576
7064.99406,0.46783
7063.06532,0.46855
7061.13657,0.46674
7059.20782,0.46359
7057.27908,0.46092
7055.35033,0.46017
7053.42159,0.46180
7051.49284,0.46575
7049.56410,0.46916
7047.63535,0.46882
7045.70661,0.46622
7043.77786,0.46411
7041.84912,0.46223
7039.92037,0.45992
7037.99163,0.45802
7036.06288,0.45887
7034.13414,0.46279
7032.20539,0.46508
7030.27664,0.46480
7028.34790,0.46504
7026.41915,0.46480
7024.49041,0.46470
7022.56166,0.46736
7020.63292,0.46993
7018.70417,0.46929
7016.77543,0.46834
7014.84668,0.47032
7012.91794,0.47232
7010.98919,0.47095
7009.06045,0.46782
7007.13170,0.46506
7005.20296,0.46443
7003.27421,0.46602
7001.34547,0.46688
6999.41672,0.46744
6997.48797,0.46931
6995.55923,0.46962
6993.63048,0.46767
6991.70174,0.46776
6989.77299,0.47057
6987.84425,0.47012
6985.91550,0.46489
6983.98676,0.46059
6982.05801,0.46004
6980.12927,0.46311
6978.20052,0.46775
6976.27178,0.46921
6974.34303,0.46760
6972.41429,0.46889
6970.48554,0.47409
6968.55680,0.47653
6966.62805,0.47391
6964.69930,0.47032
6962.77056,0.46772
6960.84181,0.46653
6958.91307,0.46582
6956.98432,0.46400
6955.05558,0.46328
6953.12683,0.46532
6951.19809,0.46762
6949.26934,0.46830
6947.34060,0.46849
6945.41185,0.46893
6943.48311,0.46816
6941.55436,0.46737
6939.62562,0.46843
6937.69687,0.46887
6935.76812,0.46846
6933.83938,0.46853
6931.91063,0.46796
6929.98189,0.46812
6928.05314,0.46937
6926.12440,0.46869
6924.19565,0.46709
6922.26691,0.46804
6920.33816,0.47073
6918.40942,0.47231
6916.48067,0.47216
6914.55193,0.47042
6912.62318,0.46797
6910.69444,0.46759
6908.76569,0.47032
6906.83695,0.47359
6904.90820,0.47477
6902.97945,0.47338
6901.05071,0.47042
6899.12196,0.46816
6897.19322,0.46759
6895.26447,0.46847
6893.33573,0.47113
6891.40698,0.47307
6889.47824,0.47199
6887.54949,0.47140
6885.62075,0.47345
6883.69200,0.47477
6881.76326,0.47465
6879.83451,0.47507
6877.90577,0.47445
6875.97702,0.47202
6874.04828,0.47081
6872.11953,0.47154
6870.19078,0.47267
6868.26204,0.47428
6866.33329,0.47649
6864.40455,0.47859
6862.47580,0.47974
6860.54706,0.47874
6858.61831,0.47611
6856.68957,0.47486
6854.76082,0.47559
6852.83208,0.47522
6850.90333,0.47320
6848.97459,0.47257
6847.04584,0.47464
6845.11710,0.47698
6843.18835,0.47675
6841.25960,0.47554
6839.33086,0.47561
6837.40211,0.47579
6835.47337,0.47587
6833.54462,0.47647
6831.61588,0.47754
6829.68713,0.47899
6827.75839,0.47926
6825.82964,0.47788
6823.90090,0.47621
6821.97215,0.47430
6820.04341,0.47283
6818.11466,0.47356
6816.18592,0.47594
6814.25717,0.47820
6812.32843,0.47854
6810.39968,0.47745
6808.47093,0.47823
6806.54219,0.47958
6804.61344,0.47905
6802.68470,0.47955
6800.75595,0.48168
6798.82721,0.48181
6796.89846,0.47921
6794.96972,0.47713
6793.04097,0.47755
6791.11223,0.47834
6789.18348,0.47676
6787.25474,0.47475
6785.32599,0.47591
6783.39725,0.47811
6781.46850,0.47808
6779.53975,0.47733
6777.61101,0.47758
6775.68226,0.47793
6773.75352,0.47794
6771.82477,0.47915
6769.89603,0.48135
6767.96728,0.48181
6766.03854,0.48064
6764.10979,0.48014
6762.18105,0.47971
6760.25230,0.47912
6758.32356,0.48052
6756.39481,0.48289
6754.46607,0.48332
6752.53732,0.48160
6750.60858,0.47926
6748.67983,0.47854
6746.75108,0.48050
6744.82234,0.48250
6742.89359,0.48224
6740.96485,0.48227
6739.03610,0.48368
6737.10736,0.48407
6735.17861,0.48272
6733.24987,0.47947
6731.32112,0.47546
6729.39238,0.47420
6727.46363,0.47631
6725.53489,0.47925
6723.60614,0.48155
6721.67740,0.48221
6719.74865,0.48085
6717.81991,0.47959
6715.89116,0.48000
6713.96241,0.48179
6712.03367,0.48357
6710.10492,0.48369
6708.17618,0.48239
6706.24743,0.48064
6704.31869,0.48020
6702.38994,0.48234
6700.46120,0.48470
6698.53245,0.48516
6696.60371,0.48499
6694.67496,0.48504
6692.74622,0.48368
6690.81747,0.48134
6688.88873,0.48144
6686.95998,0.48416
6685.03123,0.48583
6683.10249,0.48621
6681.17374,0.48786
6679.24500,0.48922
6677.31625,0.48799
6675.38751,0.48510
6673.45876,0.48232
6671.53002,0.48139
6669.60127,0.48274
6667.67253,0.48550
6665.74378,0.48793
6663.81504,0.48769
6661.88629,0.48524
6659.95755,0.48376
6658.02880,0.48428
6656.10006,0.48510
6654.17131,0.48549
6652.24256,0.48637
6650.31382,0.48778
6648.38507,0.48812
6646.45633,0.48784
6644.52758,0.48843
6642.59884,0.48816
6640.67009,0.48689
6638.74135,0.48696
6636.81260,0.48744
6634.88386,0.48695
6632.95511,0.48670
6631.02637,0.48698
6629.09762,0.48671
6627.16888,0.48613
6625.24013,0.48625
6623.31139,0.48749
6621.38264,0.48905
6619.45389,0.48907
6617.52515,0.48739
6615.59640,0.48621
6613.66766,0.48654
6611.73891,0.48668
6609.81017,0.48517
6607.88142,0.48427
6605.95268,0.48642
6604.02393,0.48885
6602.09519,0.48873
6600.16644,0.48797
6598.23770,0.48778
6596.30895,0.48800
6594.38021,0.48961
6592.45146,0.49213
6590.52271,0.49329
6588.59397,0.49263
6586.66522,0.49172
6584.73648,0.49040
6582.80773,0.48820
6580.87899,0.48719
6578.95024,0.48851
6577.02150,0.49062
6575.09275,0.49172
6573.16401,0.49143
6571.23526,0.48975
6569.30652,0.48656
6567.37777,0.48330
6565.44903,0.48206
6563.52028,0.48368
6561.59154,0.48724
6559.66279,0.49002
6557.73404,0.49029
6555.80530,0.49000
6553.87655,0.49105
6551.94781,0.49265
6550.01906,0.49451
6548.09032,0.49568
6546.16157,0.49398
6544.23283,0.49095
6542.30408,0.48988
6540.37534,0.49026
6538.44659,0.49007
6536.51785,0.48967
6534.58910,0.48975
6532.66036,0.48938
6530.73161,0.48873
6528.80287,0.48829
6526.87412,0.48745
6524.94537,0.48803
6523.01663,0.49068
6521.08788,0.49222
6519.15914,0.49218
6517.23039,0.49194
6515.30165,0.49171
6513.37290,0.49196
6511.44416,0.49183
6509.51541,0.49025
6507.58667,0.48911
6505.65792,0.49034
6503.72918,0.49333
6501.80043,0.49588
6499.87169,0.49598
6497.94294,0.49455
6496.01419,0.49413
6494.08545,0.49472
6492.15670,0.49551
6490.22796,0.49651
6488.29921,0.49650
6486.37047,0.49449
6484.44172,0.49220
6482.51298,0.49081
6480.58423,0.49018
6478.65549,0.49044
6476.72674,0.49085
6474.79800,0.49088
6472.86925,0.49096
6470.94051,0.49074
6469.01176,0.49009
6467.08302,0.49009
6465.15427,0.49127
6463.22552,0.49261
6461.29678,0.49345
6459.36803,0.49378
6457.43929,0.49295
6455.51054,0.49139
6453.58180,0.49062
6451.65305,0.49061
6449.72431,0.49116
6447.79556,0.49263
6445.86682,0.49354
6443.93807,0.49320
6442.00933,0.49329
6440.08058,0.49379
6438.15184,0.49418
6436.22309,0.49477
6434.29434,0.49430
6432.36560,0.49179
6430.43685,0.48924
6428.50811,0.48919
6426.57936,0.49137
6424.65062,0.49320
6422.72187,0.49304
6420.79313,0.49154
6418.86438,0.49047
6416.93564,0.49063
6415.00689,0.49193
6413.07815,0.49428
6411.14940,0.49632
6409.22066,0.49627
6407.29191,0.49432
6405.36317,0.49250
6403.43442,0.49216
6401.50567,0.49221
6399.57693,0.49209
6397.64818,0.49226
6395.71944,0.49213
6393.79069,0.49211
6391.86195,0.49299
6389.93320,0.49332
6388.00446,0.49160
6386.07571,0.48900
6384.14697,0.48795
6382.21822,0.48881
6380.28948,0.49039
6378.36073,0.49200
6376.43199,0.49337
6374.50324,0.49435
6372.57450,0.49416
6370.64575,0.49228
6368.71700,0.49103
6366.78826,0.49176
6364.85951,0.49215
6362.93077,0.49158
6361.00202,0.49170
6359.07328,0.49241
6357.14453,0.49264
6355.21579,0.49229
6353.28704,0.49169
6351.35830,0.49099
6349.42955,0.49065
6347.50081,0.49108
6345.57206,0.49173
6343.64332,0.49191
6341.71457,0.49228
6339.78582,0.49375
6337.85708,0.49491
6335.92833,0.49406
6333.99959,0.49254
6332.07084,0.49248
6330.14210,0.49374
6328.21335,0.49460
6326.28461,0.49367
6324.35586,0.49160
6322.42712,0.49014
6320.49837,0.48973
6318.56963,0.49003
6316.64088,0.49106
6314.71214,0.49219
6312.78339,0.49269
6310.85465,0.49341
6308.92590,0.49423
6306.99715,0.49340
6305.06841,0.49161
6303.13966,0.49091
6301.21092,0.49150
6299.28217,0.49226
6297.35343,0.49213
6295.42468,0.49199
6293.49594,0.49275
6291.56719,0.49361
6289.63845,0.49393
6287.70970,0.49345
6285.78096,0.49269
6283.85221,0.49311
6281.92347,0.49441
6279.99472,0.49500
6278.06598,0.49498
6276.13723,0.49596
6274.20848,0.49861
6272.27974,0.50028
6270.35099,0.49848
6268.42225,0.49632
6266.49350,0.49667
6264.56476,0.49738
6262.63601,0.49602
6260.70727,0.49292
6258.77852,0.49064
6256.84978,0.49058
6254.92103,0.49158
6252.99229,0.49307
6251.06354,0.49470
6249.13480,0.49462
6247.20605,0.49281
6245.27730,0.49190
6243.34856,0.49256
6241.41981,0.49431
6239.49107,0.49663
6237.56232,0.49754
6235.63358,0.49665
6233.70483,0.49519
6231.77609,0.49416
6229.84734,0.49413
6227.91860,0.49420
6225.98985,0.49401
6224.06111,0.49375
6222.13236,0.49329
6220.20362,0.49330
6218.27487,0.49388
6216.34613,0.49493
6214.41738,0.49640
6212.48863,0.49684
6210.55989,0.49598
6208.63114,0.49570
6206.70240,0.49649
6204.77365,0.49663
6202.84491,0.49518
6200.91616,0.49338
6198.98742,0.49199
6197.05867,0.49063
6195.12993,0.49025
6193.20118,0.49142
6191.27244,0.49290
6189.34369,0.49403
6187.41495,0.49488
6185.48620,0.49559
6183.55746,0.49681
6181.62871,0.49795
6179.69996,0.49749
6177.77122,0.49578
6175.84247,0.49432
6173.91373,0.49409
6171.98498,0.49471
6170.05624,0.49470
6168.12749,0.49444
6166.19875,0.49485
6164.27000,0.49541
6162.34126,0.49534
6160.41251,0.49450
6158.48377,0.49418
6156.55502,0.49481
6154.62628,0.49493
6152.69753,0.49364
6150.76878,0.49123
6148.84004,0.48958
6146.91129,0.49020
6144.98255,0.49208
6143.05380,0.49354
6141.12506,0.49352
6139.19631,0.49224
6137.26757,0.49073
6135.33882,0.48960
6133.41008,0.48966
6131.48133,0.49081
6129.55259,0.49149
6127.62384,0.49116
6125.69510,0.49043
6123.76635,0.48968
6121.83761,0.48902
6119.90886,0.48784
6117.98011,0.48612
6116.05137,0.48532
6114.12262,0.48598
6112.19388,0.48725
6110.26513,0.48814
6108.33639,0.48772
6106.40764,0.48619
6104.47890,0.48513
6102.55015,0.48524
6100.62141,0.48498
6098.69266,0.48360
6096.76392,0.48293
6094.83517,0.48333
6092.90643,0.48356
6090.97768,0.48449
6089.04893,0.48600
6087.12019,0.48650
6085.19144,0.48634
6083.26270,0.48660
6081.33395,0.48760
6079.40521,0.48763
6077.47646,0.48447
6075.54772,0.48076
6073.61897,0.48027
6071.69023,0.48148
6069.76148,0.48197
6067.83274,0.48253
6065.90399,0.48341
6063.97525,0.48358
6062.04650,0.48360
6060.11776,0.48399
6058.18901,0.48400
6056.26026,0.48381
6054.33152,0.48352
6052.40277,0.48234
6050.47403,0.48059
6048.54528,0.47943
6046.61654,0.47944
6044.68779,0.47989
6042.75905,0.47995
6040.83030,0.48019
6038.90156,0.48031
6036.97281,0.47951
6035.04407,0.47868
6033.11532,0.47800
6031.18658,0.47690
6029.25783,0.47599
6027.32909,0.47546
6025.40034,0.47440
6023.47159,0.47310
6021.54285,0.47265
6019.61410,0.47244
6017.68536,0.47196
6015.75661,0.47192
6013.82787,0.47175
6011.89912,0.47107
6009.97038,0.47061
6008.04163,0.47017
6006.11289,0.46957
6004.18414,0.46902
6002.25540,0.46853
6000.32665,0.46780
5998.39791,0.46629
5996.46916,0.46527
5994.54041,0.46650
5992.61167,0.46815
5990.68292,0.46778
5988.75418,0.46644
5986.82543,0.46523
5984.89669,0.46398
5982.96794,0.46345
5981.03920,0.46326
5979.11045,0.46189
5977.18171,0.45994
5975.25296,0.45873
5973.32422,0.45870
5971.39547,0.45919
5969.46673,0.45855
5967.53798,0.45714
5965.60924,0.45666
5963.68049,0.45693
5961.75174,0.45680
5959.82300,0.45567
5957.89425,0.45357
5955.96551,0.45116
5954.03676,0.44971
5952.10802,0.44947
5950.17927,0.44919
5948.25053,0.44846
5946.32178,0.44755
5944.39304,0.44651
5942.46429,0.44558
5940.53555,0.44444
5938.60680,0.44298
5936.67806,0.44200
5934.74931,0.44145
5932.82057,0.44065
5930.89182,0.43982
5928.96307,0.43940
5927.03433,0.43868
5925.10558,0.43729
5923.17684,0.43529
5921.24809,0.43191
5919.31935,0.42783
5917.39060,0.42507
5915.46186,0.42373
5913.53311,0.42238
5911.60437,0.42013
5909.67562,0.41707
5907.74688,0.41398
5905.81813,0.41116
5903.88939,0.40860
5901.96064,0.40625
5900.03189,0.40329
5898.10315,0.39978
5896.17440,0.39754
5894.24566,0.39624
5892.31691,0.39391
5890.38817,0.39049
5888.45942,0.38719
5886.53068,0.38519
5884.60193,0.38485
5882.67319,0.38523
5880.74444,0.38526
5878.81570,0.38454
5876.88695,0.38371
5874.95821,0.38364
5873.02946,0.38427
5871.10072,0.38539
5869.17197,0.38691
5867.24322,0.38845
5865.31448,0.38888
5863.38573,0.38670
5861.45699,0.38244
5859.52824,0.37875
5857.59950,0.37683
5855.67075,0.37536
5853.74201,0.37302
5851.81326,0.36998
5849.88452,0.36671
5847.95577,0.36324
5846.02703,0.35978
5844.09828,0.35664
5842.16954,0.35431
5840.24079,0.35327
5838.31205,0.35232
5836.38330,0.34999
5834.45455,0.34773
5832.52581,0.34737
5830.59706,0.34778
5828.66832,0.34795
5826.73957,0.34837
5824.81083,0.34868
5822.88208,0.34868
5820.95334,0.34892
5819.02459,0.34895
5817.09585,0.34851
5815.16710,0.34871
5813.23836,0.34959
5811.30961,0.35017
5809.38087,0.35131
5807.45212,0.35345
5805.52337,0.35474
5803.59463,0.35494
5801.66588,0.35533
5799.73714,0.35580
5797.80839,0.35662
5795.87965,0.35893
5793.95090,0.36211
5792.02216,0.36410
5790.09341,0.36448
5788.16467,0.36469
5786.23592,0.36534
5784.30718,0.36619
5782.37843,0.36721
5780.44969,0.36858
5778.52094,0.37046
5776.59220,0.37246
5774.66345,0.37402
5772.73470,0.37521
5770.80596,0.37634
5768.87721,0.37775
5766.94847,0.37930
5765.01972,0.38068
5763.09098,0.38147
5761.16223,0.38142
5759.23349,0.38114
5757.30474,0.38120
5755.37600,0.38158
5753.44725,0.38203
5751.51851,0.38251
5749.58976,0.38282
5747.66102,0.38250
5745.73227,0.38224
5743.80352,0.38249
5741.87478,0.38229
5739.94603,0.38135
5738.01729,0.38017
5736.08854,0.37965
5734.15980,0.38018
5732.23105,0.38066
5730.30231,0.38092
5728.37356,0.38160
5726.44482,0.38169
5724.51607,0.38075
5722.58733,0.38001
5720.65858,0.37977
5718.72984,0.37903
5716.80109,0.37789
5714.87235,0.37792
5712.94360,0.37913
5711.01485,0.38012
5709.08611,0.38071
5707.15736,0.38104
5705.22862,0.38087
5703.29987,0.38052
5701.37113,0.38024
5699.44238,0.37994
5697.51364,0.37979
5695.58489,0.38004
5693.65615,0.38057
5691.72740,0.38095
5689.79866,0.38116
5687.86991,0.38172
5685.94117,0.38233
5684.01242,0.38208
5682.08368,0.38120
5680.15493,0.38052
5678.22618,0.38034
5676.29744,0.38047
5674.36869,0.38041
5672.43995,0.38062
5670.51120,0.38187
5668.58246,0.38380
5666.65371,0.38561
5664.72497,0.38680
5662.79622,0.38707
5660.86748,0.38665
5658.93873,0.38667
5657.00999,0.38804
5655.08124,0.39031
5653.15250,0.39228
5651.22375,0.39295
5649.29500,0.39192
5647.36626,0.39071
5645.43751,0.39091
5643.50877,0.39151
5641.58002,0.39145
5639.65128,0.39099
5637.72253,0.39056
5635.79379,0.39059
5633.86504,0.39093
5631.93630,0.39098
5630.00755,0.39037
5628.07881,0.38930
5626.15006,0.38845
5624.22132,0.38762
5622.29257,0.38682
5620.36383,0.38649
5618.43508,0.38615
5616.50633,0.38600
5614.57759,0.38696
5612.64884,0.38866
5610.72010,0.39016
5608.79135,0.39142
5606.86261,0.39326
5604.93386,0.39606
5603.00512,0.39882
5601.07637,0.40061
5599.14763,0.40202
5597.21888,0.40435
5595.29014,0.40726
5593.36139,0.40909
5591.43265,0.41011
5589.50390,0.41184
5587.57516,0.41439
5585.64641,0.41665
5583.71766,0.41825
5581.78892,0.41996
5579.86017,0.42188
5577.93143,0.42318
5576.00268,0.42379
5574.07394,0.42444
5572.14519,0.42576
5570.21645,0.42755
5568.28770,0.42934
5566.35896,0.43087
5564.43021,0.43191
5562.50147,0.43253
5560.57272,0.43281
5558.64398,0.43321
5556.71523,0.43423
5554.78648,0.43497
5552.85774,0.43486
5550.92899,0.43484
5549.00025,0.43548
5547.07150,0.43693
5545.14276,0.43854
5543.21401,0.43910
5541.28527,0.43925
5539.35652,0.43993
5537.42778,0.44050
5535.49903,0.44065
5533.57029,0.44091
5531.64154,0.44147
5529.71280,0.44190
5527.78405,0.44207
5525.85531,0.44243
5523.92656,0.44295
5521.99781,0.44296
5520.06907,0.44274
5518.14032,0.44278
5516.21158,0.44287
5514.28283,0.44309
5512.35409,0.44334
5510.42534,0.44341
5508.49660,0.44385
5506.56785,0.44462
5504.63911,0.44507
5502.71036,0.44507
5500.78162,0.44473
5498.85287,0.44448
5496.92413,0.44499
5494.99538,0.44579
5493.06664,0.44608
5491.13789,0.44603
5489.20914,0.44613
5487.28040,0.44670
5485.35165,0.44699
5483.42291,0.44627
5481.49416,0.44598
5479.56542,0.44675
5477.63667,0.44713
5475.70793,0.44636
5473.77918,0.44536
5471.85044,0.44543
5469.92169,0.44670
5467.99295,0.44794
5466.06420,0.44810
5464.13546,0.44751
5462.20671,0.44707
5460.27796,0.44713
5458.34922,0.44744
5456.42047,0.44741
5454.49173,0.44703
5452.56298,0.44660
5450.63424,0.44609
5448.70549,0.44607
5446.77675,0.44693
5444.84800,0.44727
5442.91926,0.44639
5440.99051,0.44580
5439.06177,0.44643
5437.13302,0.44750
5435.20428,0.44814
5433.27553,0.44807
5431.34679,0.44753
5429.41804,0.44683
5427.48929,0.44632
5425.56055,0.44627
5423.63180,0.44660
5421.70306,0.44722
5419.77431,0.44798
5417.84557,0.44825
5415.91682,0.44796
5413.98808,0.44790
5412.05933,0.44804
5410.13059,0.44735
5408.20184,0.44597
5406.27310,0.44525
5404.34435,0.44568
5402.41561,0.44664
5400.48686,0.44735
5398.55811,0.44738
5396.62937,0.44709
5394.70062,0.44694
5392.77188,0.44697
5390.84313,0.44699
5388.91439,0.44701
5386.98564,0.44732
5385.05690,0.44760
5383.12815,0.44750
5381.19941,0.44707
5379.27066,0.44666
5377.34192,0.44706
5375.41317,0.44784
5373.48443,0.44763
5371.55568,0.44694
5369.62694,0.44730
5367.69819,0.44829
5365.76944,0.44862
5363.84070,0.44833
5361.91195,0.44797
5359.98321,0.44765
5358.05446,0.44739
5356.12572,0.44726
5354.19697,0.44737
5352.26823,0.44772
5350.33948,0.44809
5348.41074,0.44820
5346.48199,0.44813
5344.55325,0.44826
5342.62450,0.44849
5340.69576,0.44818
5338.76701,0.44713
5336.83827,0.44592
5334.90952,0.44515
5332.98077,0.44525
5331.05203,0.44602
5329.12328,0.44648
5327.19454,0.44652
5325.26579,0.44659
5323.33705,0.44626
5321.40830,0.44575
5319.47956,0.44609
5317.55081,0.44675
5315.62207,0.44660
5313.69332,0.44626
5311.76458,0.44680
5309.83583,0.44735
5307.90709,0.44722
5305.97834,0.44758
5304.04959,0.44869
5302.12085,0.44920
5300.19210,0.44872
5298.26336,0.44805
5296.33461,0.44796
5294.40587,0.44832
5292.47712,0.44827
5290.54838,0.44768
5288.61963,0.44737
5286.69089,0.44770
5284.76214,0.44810
5282.83340,0.44800
5280.90465,0.44728
5278.97591,0.44658
5277.04716,0.44622
5275.11842,0.44580
5273.18967,0.44584
5271.26092,0.44650
5269.33218,0.44632
5267.40343,0.44498
5265.47469,0.44333
5263.54594,0.44187
5261.61720,0.44090
5259.68845,0.44008
5257.75971,0.43900
5255.83096,0.43832
5253.90222,0.43838
5251.97347,0.43844
5250.04473,0.43820
5248.11598,0.43783
5246.18724,0.43734
5244.25849,0.43648
5242.32975,0.43550
5240.40100,0.43511
5238.47225,0.43514
5236.54351,0.43518
5234.61476,0.43514
5232.68602,0.43472
5230.75727,0.43405
5228.82853,0.43335
5226.89978,0.43240
5224.97104,0.43119
5223.04229,0.43007
5221.11355,0.42931
5219.18480,0.42918
5217.25606,0.42981
5215.32731,0.43051
5213.39857,0.43048
5211.46982,0.43010
5209.54107,0.42995
5207.61233,0.42943
5205.68358,0.42845
5203.75484,0.42802
5201.82609,0.42808
5199.89735,0.42803
5197.96860,0.42773
5196.03986,0.42730
5194.11111,0.42731
5192.18237,0.42746
5190.25362,0.42690
5188.32488,0.42620
5186.39613,0.42608
5184.46739,0.42637
5182.53864,0.42702
5180.60990,0.42767
5178.68115,0.42767
5176.75240,0.42721
5174.82366,0.42642
5172.89491,0.42535
5170.96617,0.42494
5169.03742,0.42537
5167.10868,0.42571
5165.17993,0.42572
5163.25119,0.42594
5161.32244,0.42631
5159.39370,0.42646
5157.46495,0.42655
5155.53621,0.42664
5153.60746,0.42665
5151.67872,0.42688
5149.74997,0.42759
5147.82123,0.42842
5145.89248,0.42895
5143.96373,0.42906
5142.03499,0.42888
5140.10624,0.42845
5138.17750,0.42797
5136.24875,0.42793
5134.32001,0.42849
5132.39126,0.42926
5130.46252,0.42978
5128.53377,0.42978
5126.60503,0.42923
5124.67628,0.42867
5122.74754,0.42888
5120.81879,0.42976
5118.89005,0.43043
5116.96130,0.43056
5115.03255,0.43048
5113.10381,0.43037
5111.17506,0.43033
5109.24632,0.43034
5107.31757,0.43052
5105.38883,0.43124
5103.46008,0.43245
5101.53134,0.43350
5099.60259,0.43403
5097.67385,0.43409
5095.74510,0.43380
5093.81636,0.43324
5091.88761,0.43249
5089.95887,0.43192
5088.03012,0.43186
5086.10138,0.43249
5084.17263,0.43368
5082.24388,0.43456
5080.31514,0.43455
5078.38639,0.43447
5076.45765,0.43496
5074.52890,0.43526
5072.60016,0.43468
5070.67141,0.43379
5068.74267,0.43331
5066.81392,0.43350
5064.88518,0.43411
5062.95643,0.43434
5061.02769,0.43431
5059.09894,0.43486
5057.17020,0.43579
5055.24145,0.43637
5053.31270,0.43622
5051.38396,0.43546
5049.45521,0.43501
5047.52647,0.43550
5045.59772,0.43604
5043.66898,0.43590
5041.74023,0.43578
5039.81149,0.43612
5037.88274,0.43641
5035.95400,0.43625
5034.02525,0.43580
5032.09651,0.43578
5030.16776,0.43631
5028.23902,0.43657
5026.31027,0.43644
5024.38153,0.43619
5022.45278,0.43583
5020.52403,0.43607
5018.59529,0.43721
5016.66654,0.43799
5014.73780,0.43762
5012.80905,0.43693
5010.88031,0.43665
5008.95156,0.43666
5007.02282,0.43680
5005.09407,0.43694
5003.16533,0.43698
5001.23658,0.43688
4999.30784,0.43677
4997.37909,0.43696
4995.45035,0.43722
4993.52160,0.43708
4991.59286,0.43654
4989.66411,0.43569
4987.73536,0.43493
4985.80662,0.43471
4983.87787,0.43486
4981.94913,0.43477
4980.02038,0.43432
4978.09164,0.43420
4976.16289,0.43478
4974.23415,0.43546
4972.30540,0.43556
4970.37666,0.43505
4968.44791,0.43432
4966.51917,0.43372
4964.59042,0.43341
4962.66168,0.43314
4960.73293,0.43272
4958.80418,0.43252
4956.87544,0.43272
4954.94669,0.43268
4953.01795,0.43210
4951.08920,0.43161
4949.16046,0.43157
4947.23171,0.43160
4945.30297,0.43119
4943.37422,0.43027
4941.44548,0.42964
4939.51673,0.42982
4937.58799,0.43027
4935.65924,0.43045
4933.73050,0.43045
4931.80175,0.43036
4929.87301,0.43001
4927.94426,0.42938
4926.01551,0.42891
4924.08677,0.42880
4922.15802,0.42881
4920.22928,0.42872
4918.30053,0.42835
4916.37179,0.42801
4914.44304,0.42797
4912.51430,0.42805
4910.58555,0.42829
4908.65681,0.42845
4906.72806,0.42815
4904.79932,0.42804
4902.87057,0.42842
4900.94183,0.42864
4899.01308,0.42858
4897.08434,0.42844
4895.15559,0.42819
4893.22684,0.42771
4891.29810,0.42704
4889.36935,0.42683
4887.44061,0.42698
4885.51186,0.42669
4883.58312,0.42626
4881.65437,0.42629
4879.72563,0.42636
4877.79688,0.42615
4875.86814,0.42580
4873.93939,0.42525
4872.01065,0.42459
4870.08190,0.42393
4868.15316,0.42344
4866.22441,0.42363
4864.29566,0.42422
4862.36692,0.42424
4860.43817,0.42368
4858.50943,0.42352
4856.58068,0.42394
4854.65194,0.42406
4852.72319,0.42387
4850.79445,0.42397
4848.86570,0.42412
4846.93696,0.42416
4845.00821,0.42426
4843.07947,0.42438
4841.15072,0.42426
4839.22198,0.42375
4837.29323,0.42302
4835.36449,0.42252
4833.43574,0.42260
4831.50699,0.42276
4829.57825,0.42237
4827.64950,0.42170
4825.72076,0.42125
4823.79201,0.42096
4821.86327,0.42078
4819.93452,0.42081
4818.00578,0.42081
4816.07703,0.42065
4814.14829,0.42055
4812.21954,0.42028
4810.29080,0.41962
4808.36205,0.41889
4806.43331,0.41839
4804.50456,0.41831
4802.57582,0.41862
4800.64707,0.41904
4798.71832,0.41933
4796.78958,0.41944
4794.86083,0.41954
4792.93209,0.41939
4791.00334,0.41856
4789.07460,0.41771
4787.14585,0.41775
4785.21711,0.41828
4783.28836,0.41844
4781.35962,0.41788
4779.43087,0.41703
4777.50213,0.41674
4775.57338,0.41690
4773.64464,0.41672
4771.71589,0.41634
4769.78714,0.41638
4767.85840,0.41675
4765.92965,0.41687
4764.00091,0.41640
4762.07216,0.41563
4760.14342,0.41536
4758.21467,0.41583
4756.28593,0.41630
4754.35718,0.41589
4752.42844,0.41492
4750.49969,0.41452
4748.57095,0.41487
4746.64220,0.41526
4744.71346,0.41513
4742.78471,0.41438
4740.85597,0.41354
4738.92722,0.41305
4736.99847,0.41269
4735.06973,0.41238
4733.14098,0.41221
4731.21224,0.41158
4729.28349,0.41016
4727.35475,0.40891
4725.42600,0.40852
4723.49726,0.40845
4721.56851,0.40813
4719.63977,0.40735
4717.71102,0.40625
4715.78228,0.40524
4713.85353,0.40435
4711.92479,0.40376
4709.99604,0.40358
4708.06729,0.40327
4706.13855,0.40260
4704.20980,0.40191
4702.28106,0.40155
4700.35231,0.40148
4698.42357,0.40139
4696.49482,0.40141
4694.56608,0.40179
4692.63733,0.40235
4690.70859,0.40277
4688.77984,0.40274
4686.85110,0.40216
4684.92235,0.40149
4682.99361,0.40132
4681.06486,0.40133
4679.13612,0.40091
4677.20737,0.40029
4675.27862,0.39983
4673.34988,0.39958
4671.42113,0.39932
4669.49239,0.39881
4667.56364,0.39818
4665.63490,0.39768
4663.70615,0.39702
4661.77741,0.39609
4659.84866,0.39526
4657.91992,0.39482
4655.99117,0.39473
4654.06243,0.39451
4652.13368,0.39394
4650.20494,0.39301
4648.27619,0.39156
4646.34745,0.39001
4644.41870,0.38876
4642.48995,0.38766
4640.56121,0.38642
4638.63246,0.38505
4636.70372,0.38366
4634.77497,0.38245
4632.84623,0.38179
4630.91748,0.38166
4628.98874,0.38163
4627.05999,0.38138
4625.13125,0.38099
4623.20250,0.38074
4621.27376,0.38068
4619.34501,0.38095
4617.41627,0.38162
4615.48752,0.38212
4613.55877,0.38204
4611.63003,0.38170
4609.70128,0.38143
4607.77254,0.38121
4605.84379,0.38104
4603.91505,0.38108
4601.98630,0.38150
4600.05756,0.38245
4598.12881,0.38356
4596.20007,0.38421
4594.27132,0.38436
4592.34258,0.38449
4590.41383,0.38491
4588.48509,0.38545
4586.55634,0.38589
4584.62760,0.38597
4582.69885,0.38579
4580.77010,0.38617
4578.84136,0.38708
4576.91261,0.38758
4574.98387,0.38756
4573.05512,0.38771
4571.12638,0.38843
4569.19763,0.38949
4567.26889,0.39038
4565.34014,0.39110
4563.41140,0.39162
4561.48265,0.39173
4559.55391,0.39174
4557.62516,0.39200
4555.69642,0.39239
4553.76767,0.39280
4551.83893,0.39318
4549.91018,0.39321
4547.98143,0.39289
4546.05269,0.39229
4544.12394,0.39143
4542.19520,0.39089
4540.26645,0.39082
4538.33771,0.39050
4536.40896,0.38970
4534.48022,0.38882
4532.55147,0.38808
4530.62273,0.38740
4528.69398,0.38661
4526.76524,0.38559
4524.83649,0.38463
4522.90775,0.38417
4520.97900,0.38419
4519.05025,0.38418
4517.12151,0.38375
4515.19276,0.38319
4513.26402,0.38326
4511.33527,0.38398
4509.40653,0.38459
4507.47778,0.38474
4505.54904,0.38462
4503.62029,0.38442
4501.69155,0.38445
4499.76280,0.38498
4497.83406,0.38538
4495.90531,0.38498
4493.97657,0.38409
4492.04782,0.38326
4490.11908,0.38220
4488.19033,0.38068
4486.26158,0.37953
4484.33284,0.37910
4482.40409,0.37854
4480.47535,0.37759
4478.54660,0.37665
4476.61786,0.37579
4474.68911,0.37479
4472.76037,0.37384
4470.83162,0.37335
4468.90288,0.37301
4466.97413,0.37210
4465.04539,0.37052
4463.11664,0.36872
4461.18790,0.36703
4459.25915,0.36544
4457.33041,0.36376
4455.40166,0.36202
4453.47291,0.36040
4451.54417,0.35869
4449.61542,0.35652
4447.68668,0.35399
4445.75793,0.35125
4443.82919,0.34840
4441.90044,0.34587
4439.97170,0.34355
4438.04295,0.34098
4436.11421,0.33834
4434.18546,0.33589
4432.25672,0.33327
4430.32797,0.33014
4428.39923,0.32660
4426.47048,0.32296
4424.54173,0.31949
4422.61299,0.31624
4420.68424,0.31283
4418.75550,0.30899
4416.82675,0.30488
4414.89801,0.30086
4412.96926,0.29711
4411.04052,0.29358
4409.11177,0.29033
4407.18303,0.28735
4405.25428,0.28442
4403.32554,0.28159
4401.39679,0.27916
4399.46805,0.27726
4397.53930,0.27555
4395.61056,0.27370
4393.68181,0.27187
4391.75306,0.27018
4389.82432,0.26847
4387.89557,0.26668
4385.96683,0.26476
4384.03808,0.26279
4382.10934,0.26095
4380.18059,0.25904
4378.25185,0.25700
4376.32310,0.25530
4374.39436,0.25409
4372.46561,0.25253
4370.53687,0.25016
4368.60812,0.24771
4366.67938,0.24580
4364.75063,0.24408
4362.82189,0.24207
4360.89314,0.24004
4358.96439,0.23854
4357.03565,0.23752
4355.10690,0.23650
4353.17816,0.23537
4351.24941,0.23422
4349.32067,0.23296
4347.39192,0.23164
4345.46318,0.23019
4343.53443,0.22853
4341.60569,0.22690
4339.67694,0.22536
4337.74820,0.22385
4335.81945,0.22261
4333.89071,0.22177
4331.96196,0.22131
4330.03321,0.22142
4328.10447,0.22219
4326.17572,0.22353
4324.24698,0.22550
4322.31823,0.22800
4320.38949,0.23057
4318.46074,0.23295
4316.53200,0.23497
4314.60325,0.23650
4312.67451,0.23736
4310.74576,0.23744
4308.81702,0.23707
4306.88827,0.23661
4304.95953,0.23586
4303.03078,0.23456
4301.10204,0.23296
4299.17329,0.23161
4297.24454,0.23073
4295.31580,0.23009
4293.38705,0.22945
4291.45831,0.22911
4289.52956,0.22941
4287.60082,0.23008
4285.67207,0.23078
4283.74333,0.23149
4281.81458,0.23235
4279.88584,0.23339
4277.95709,0.23443
4276.02835,0.23526
4274.09960,0.23577
4272.17086,0.23610
4270.24211,0.23658
4268.31336,0.23706
4266.38462,0.23716
4264.45587,0.23695
4262.52713,0.23654
4260.59838,0.23587
4258.66964,0.23513
4256.74089,0.23465
4254.81215,0.23460
4252.88340,0.23494
4250.95466,0.23551
4249.02591,0.23603
4247.09717,0.23649
4245.16842,0.23712
4243.23968,0.23796
4241.31093,0.23880
4239.38219,0.23963
4237.45344,0.24070
4235.52469,0.24194
4233.59595,0.24286
4231.66720,0.24356
4229.73846,0.24460
4227.80971,0.24584
4225.88097,0.24690
4223.95222,0.24774
4222.02348,0.24845
4220.09473,0.24933
4218.16599,0.25079
4216.23724,0.25268
4214.30850,0.25427
4212.37975,0.25547
4210.45101,0.25657
4208.52226,0.25762
4206.59352,0.25870
4204.66477,0.25979
4202.73602,0.26063
4200.80728,0.26112
4198.87853,0.26144
4196.94979,0.26186
4195.02104,0.26246
4193.09230,0.26308
4191.16355,0.26359
4189.23481,0.26396
4187.30606,0.26431
4185.37732,0.26476
4183.44857,0.26513
4181.51983,0.26532
4179.59108,0.26551
4177.66234,0.26561
4175.73359,0.26568
4173.80484,0.26584
4171.87610,0.26573
4169.94735,0.26515
4168.01861,0.26470
4166.08986,0.26487
4164.16112,0.26508
4162.23237,0.26505
4160.30363,0.26539
4158.37488,0.26618
4156.44614,0.26706
4154.51739,0.26810
4152.58865,0.26906
4150.65990,0.26982
4148.73116,0.27077
4146.80241,0.27199
4144.87367,0.27323
4142.94492,0.27440
4141.01617,0.27546
4139.08743,0.27651
4137.15868,0.27754
4135.22994,0.27854
4133.30119,0.27956
4131.37245,0.28026
4129.44370,0.28054
4127.51496,0.28084
4125.58621,0.28130
4123.65747,0.28178
4121.72872,0.28221
4119.79998,0.28244
4117.87123,0.28248
4115.94249,0.28259
4114.01374,0.28260
4112.08500,0.28229
4110.15625,0.28187
4108.22750,0.28158
4106.29876,0.28133
4104.37001,0.28100
4102.44127,0.28052
4100.51252,0.27992
4098.58378,0.27945
4096.65503,0.27924
4094.72629,0.27900
4092.79754,0.27858
4090.86880,0.27808
4088.94005,0.27774
4087.01131,0.27756
4085.08256,0.27721
4083.15382,0.27634
4081.22507,0.27495
4079.29632,0.27330
4077.36758,0.27157
4075.43883,0.26949
4073.51009,0.26670
4071.58134,0.26324
4069.65260,0.25954
4067.72385,0.25601
4065.79511,0.25301
4063.86636,0.25118
4061.93762,0.25087
4060.00887,0.25186
4058.08013,0.25385
4056.15138,0.25664
4054.22264,0.25971
4052.29389,0.26220
4050.36515,0.26386
4048.43640,0.26513
4046.50765,0.26632
4044.57891,0.26736
4042.65016,0.26799
4040.72142,0.26821
4038.79267,0.26864
4036.86393,0.26942
4034.93518,0.27004
4033.00644,0.27033
4031.07769,0.27048
4029.14895,0.27071
4027.22020,0.27118
4025.29146,0.27172
4023.36271,0.27215
4021.43397,0.27257
4019.50522,0.27305
4017.57648,0.27360
4015.64773,0.27400
4013.71898,0.27408
4011.79024,0.27386
4009.86149,0.27326
4007.93275,0.27252
4006.00400,0.27212
4004.07526,0.27206
4002.14651,0.27211
4000.21777,0.27224
3998.28902,0.27237
3996.36028,0.27242
3994.43153,0.27225
3992.50279,0.27188
3990.57404,0.27172
3988.64530,0.27176
3986.71655,0.27164
3984.78780,0.27119
3982.85906,0.27064
3980.93031,0.27048
3979.00157,0.27067
3977.07282,0.27064
3975.14408,0.27033
3973.21533,0.27001
3971.28659,0.26965
3969.35784,0.26933
3967.42910,0.26916
3965.50035,0.26897
3963.57161,0.26869
3961.64286,0.26832
3959.71412,0.26774
3957.78537,0.26712
3955.85663,0.26682
3953.92788,0.26676
3951.99913,0.26669
3950.07039,0.26669
3948.14164,0.26694
3946.21290,0.26725
3944.28415,0.26739
3942.35541,0.26758
3940.42666,0.26810
3938.49792,0.26882
3936.56917,0.26962
3934.64043,0.27056
3932.71168,0.27165
3930.78294,0.27282
3928.85419,0.27407
3926.92545,0.27543
3924.99670,0.27676
3923.06795,0.27789
3921.13921,0.27888
3919.21046,0.27997
3917.28172,0.28115
3915.35297,0.28232
3913.42423,0.28342
3911.49548,0.28435
3909.56674,0.28510
3907.63799,0.28565
3905.70925,0.28602
3903.78050,0.28638
3901.85176,0.28702
3899.92301,0.28775
3897.99427,0.28821
3896.06552,0.28860
3894.13678,0.28891
3892.20803,0.28903
3890.27928,0.28950
3888.35054,0.29045
3886.42179,0.29125
3884.49305,0.29168
3882.56430,0.29230
3880.63556,0.29321
3878.70681,0.29396
3876.77807,0.29449
3874.84932,0.29519
3872.92058,0.29626
3870.99183,0.29722
3869.06309,0.29792
3867.13434,0.29866
3865.20560,0.29927
3863.27685,0.29971
3861.34811,0.30064
3859.41936,0.30201
3857.49061,0.30306
3855.56187,0.30345
3853.63312,0.30337
3851.70438,0.30355
3849.77563,0.30439
3847.84689,0.30548
3845.91814,0.30635
3843.98940,0.30689
3842.06065,0.30745
3840.13191,0.30820
3838.20316,0.30882
3836.27442,0.30906
3834.34567,0.30934
3832.41693,0.31004
3830.48818,0.31071
3828.55943,0.31093
3826.63069,0.31121
3824.70194,0.31196
3822.77320,0.31261
3820.84445,0.31280
3818.91571,0.31312
3816.98696,0.31361
3815.05822,0.31391
3813.12947,0.31430
3811.20073,0.31484
3809.27198,0.31512
3807.34324,0.31522
3805.41449,0.31571
3803.48575,0.31636
3801.55700,0.31632
3799.62826,0.31602
3797.69951,0.31624
3795.77076,0.31674
3793.84202,0.31717
3791.91327,0.31738
3789.98453,0.31737
3788.05578,0.31730
3786.12704,0.31711
3784.19829,0.31679
3782.26955,0.31663
3780.34080,0.31665
3778.41206,0.31653
3776.48331,0.31625
3774.55457,0.31607
3772.62582,0.31598
3770.69708,0.31589
3768.76833,0.31584
3766.83959,0.31570
3764.91084,0.31549
3762.98209,0.31537
3761.05335,0.31526
3759.12460,0.31507
3757.19586,0.31495
3755.26711,0.31492
3753.33837,0.31485
3751.40962,0.31450
3749.48088,0.31430
3747.55213,0.31475
3745.62339,0.31505
3743.69464,0.31467
3741.76590,0.31452
3739.83715,0.31465
3737.90841,0.31440
3735.97966,0.31382
3734.05091,0.31343
3732.12217,0.31317
3730.19342,0.31282
3728.26468,0.31230
3726.33593,0.31166
3724.40719,0.31106
3722.47844,0.31042
3720.54970,0.30971
3718.62095,0.30914
3716.69221,0.30859
3714.76346,0.30797
3712.83472,0.30700
3710.90597,0.30542
3708.97723,0.30377
3707.04848,0.30230
3705.11974,0.30072
3703.19099,0.29888
3701.26224,0.29657
3699.33350,0.29398
3697.40475,0.29152
3695.47601,0.28936
3693.54726,0.28727
3691.61852,0.28467
3689.68977,0.28108
3687.76103,0.27670
3685.83228,0.27236
3683.90354,0.26833
3681.97479,0.26434
3680.04605,0.26017
3678.11730,0.25566
3676.18856,0.25083
3674.25981,0.24687
3672.33107,0.24418
3670.40232,0.24140
3668.47357,0.23839
3666.54483,0.23580
3664.61608,0.23338
3662.68734,0.23080
3660.75859,0.22798
3658.82985,0.22484
3656.90110,0.22131
3654.97236,0.21782
3653.04361,0.21476
3651.11487,0.21132
3649.18612,0.20685
3647.25738,0.20246
3645.32863,0.19914
3643.39989,0.19625
3641.47114,0.19295
3639.54239,0.18919
3637.61365,0.18558
3635.68490,0.18235
3633.75616,0.17933
3631.82741,0.17636
3629.89867,0.17283
3627.96992,0.16881
3626.04118,0.16549
3624.11243,0.16269
3622.18369,0.15965
3620.25494,0.15611
3618.32620,0.15251
3616.39745,0.14957
3614.46871,0.14706
3612.53996,0.14447
3610.61122,0.14199
3608.68247,0.14000
3606.75372,0.13833
3604.82498,0.13653
3602.89623,0.13427
3600.96749,0.13179
3599.03874,0.12968
3597.11000,0.12803
3595.18125,0.12647
3593.25251,0.12478
3591.32376,0.12298
3589.39502,0.12104
3587.46627,0.11904
3585.53753,0.11730
3583.60878,0.11591
3581.68004,0.11449
3579.75129,0.11289
3577.82254,0.11156
3575.89380,0.11050
3573.96505,0.10918
3572.03631,0.10768
3570.10756,0.10623
3568.17882,0.10471
3566.25007,0.10321
3564.32133,0.10193
3562.39258,0.10079
3560.46384,0.09977
3558.53509,0.09871
3556.60635,0.09747
3554.67760,0.09629
3552.74886,0.09524
3550.82011,0.09419
3548.89137,0.09318
3546.96262,0.09223
3545.03387,0.09134
3543.10513,0.09049
3541.17638,0.08969
3539.24764,0.08898
3537.31889,0.08821
3535.39015,0.08729
3533.46140,0.08650
3531.53266,0.08598
3529.60391,0.08540
3527.67517,0.08448
3525.74642,0.08346
3523.81768,0.08266
3521.88893,0.08209
3519.96019,0.08154
3518.03144,0.08095
3516.10270,0.08036
3514.17395,0.07997
3512.24520,0.07978
3510.31646,0.07944
3508.38771,0.07874
3506.45897,0.07787
3504.53022,0.07702
3502.60148,0.07640
3500.67273,0.07619
3498.74399,0.07606
3496.81524,0.07553
3494.88650,0.07468
3492.95775,0.07388
3491.02901,0.07337
3489.10026,0.07316
3487.17152,0.07289
3485.24277,0.07241
3483.31402,0.07201
3481.38528,0.07172
3479.45653,0.07140
3477.52779,0.07090
3475.59904,0.07006
3473.67030,0.06922
3471.74155,0.06880
3469.81281,0.06864
3467.88406,0.06843
3465.95532,0.06805
3464.02657,0.06752
3462.09783,0.06690
3460.16908,0.06636
3458.24034,0.06615
3456.31159,0.06607
3454.38285,0.06578
3452.45410,0.06541
3450.52535,0.06522
3448.59661,0.06515
3446.66786,0.06490
3444.73912,0.06441
3442.81037,0.06394
3440.88163,0.06383
3438.95288,0.06382
3437.02414,0.06347
3435.09539,0.06306
3433.16665,0.06285
3431.23790,0.06264
3429.30916,0.06244
3427.38041,0.06234
3425.45167,0.06234
3423.52292,0.06237
3421.59418,0.06204
3419.66543,0.06142
3417.73668,0.06105
3415.80794,0.06093
3413.87919,0.06088
3411.95045,0.06078
3410.02170,0.06046
3408.09296,0.06013
3406.16421,0.05999
3404.23547,0.05998
3402.30672,0.05996
3400.37798,0.05982
3398.44923,0.05970
3396.52049,0.05963
3394.59174,0.05951
3392.66300,0.05952
3390.73425,0.05956
3388.80550,0.05912
3386.87676,0.05853
3384.94801,0.05844
3383.01927,0.05856
3381.09052,0.05841
3379.16178,0.05812
3377.23303,0.05795
3375.30429,0.05803
3373.37554,0.05822
3371.44680,0.05819
3369.51805,0.05793
3367.58931,0.05777
3365.66056,0.05763
3363.73182,0.05740
3361.80307,0.05732
3359.87433,0.05733
3357.94558,0.05731
3356.01683,0.05728
3354.08809,0.05713
3352.15934,0.05687
3350.23060,0.05670
3348.30185,0.05663
3346.37311,0.05654
3344.44436,0.05633
3342.51562,0.05620
3340.58687,0.05639
3338.65813,0.05659
3336.72938,0.05646
3334.80064,0.05633
3332.87189,0.05643
3330.94315,0.05648
3329.01440,0.05622
3327.08566,0.05592
3325.15691,0.05601
3323.22816,0.05634
3321.29942,0.05642
3319.37067,0.05629
3317.44193,0.05628
3315.51318,0.05631
3313.58444,0.05618
3311.65569,0.05592
3309.72695,0.05573
3307.79820,0.05592
3305.86946,0.05642
3303.94071,0.05687
3302.01197,0.05708
3300.08322,0.05705
3298.15448,0.05680
3296.22573,0.05670
3294.29698,0.05706
3292.36824,0.05750
3290.43949,0.05758
3288.51075,0.05752
3286.58200,0.05738
3284.65326,0.05704
3282.72451,0.05694
3280.79577,0.05727
3278.86702,0.05769
3276.93828,0.05814
3275.00953,0.05853
3273.08079,0.05868
3271.15204,0.05873
3269.22330,0.05885
3267.29455,0.05913
3265.36581,0.05977
3263.43706,0.06048
3261.50831,0.06073
3259.57957,0.06068
3257.65082,0.06070
3255.72208,0.06107
3253.79333,0.06178
3251.86459,0.06242
3249.93584,0.06298
3248.00710,0.06353
3246.07835,0.06394
3244.14961,0.06414
3242.22086,0.06432
3240.29212,0.06467
3238.36337,0.06498
3236.43463,0.06491
3234.50588,0.06462
3232.57713,0.06483
3230.64839,0.06580
3228.71964,0.06652
3226.79090,0.06657
3224.86215,0.06686
3222.93341,0.06758
3221.00466,0.06783
3219.07592,0.06757
3217.14717,0.06756
3215.21843,0.06791
3213.28968,0.06851
3211.36094,0.06906
3209.43219,0.06919
3207.50345,0.06920
3205.57470,0.06946
3203.64596,0.06994
3201.71721,0.07045
3199.78846,0.07081
3197.85972,0.07109
3195.93097,0.07151
3194.00223,0.07208
3192.07348,0.07250
3190.14474,0.07263
3188.21599,0.07283
3186.28725,0.07331
3184.35850,0.07373
3182.42976,0.07373
3180.50101,0.07349
3178.57227,0.07356
3176.64352,0.07404
3174.71478,0.07450
3172.78603,0.07486
3170.85729,0.07539
3168.92854,0.07603
3166.99979,0.07649
3165.07105,0.07670
3163.14230,0.07698
3161.21356,0.07743
3159.28481,0.07790
3157.35607,0.07843
3155.42732,0.07890
3153.49858,0.07909
3151.56983,0.07929
3149.64109,0.07968
3147.71234,0.07989
3145.78360,0.07974
3143.85485,0.07952
3141.92611,0.07960
3139.99736,0.07993
3138.06861,0.08044
3136.13987,0.08096
3134.21112,0.08121
3132.28238,0.08131
3130.35363,0.08148
3128.42489,0.08155
3126.49614,0.08149
3124.56740,0.08154
3122.63865,0.08179
3120.70991,0.08203
3118.78116,0.08220
3116.85242,0.08225
3114.92367,0.08198
3112.99493,0.08154
3111.06618,0.08150
3109.13744,0.08195
3107.20869,0.08228
3105.27994,0.08224
3103.35120,0.08217
3101.42245,0.08222
3099.49371,0.08215
3097.56496,0.08188
3095.63622,0.08165
3093.70747,0.08153
3091.77873,0.08134
3089.84998,0.08102
3087.92124,0.08053
3085.99249,0.07988
3084.06375,0.07936
3082.13500,0.07925
3080.20626,0.07940
3078.27751,0.07945
3076.34877,0.07919
3074.42002,0.07898
3072.49127,0.07902
3070.56253,0.07882
3068.63378,0.07808
3066.70504,0.07712
3064.77629,0.07642
3062.84755,0.07617
3060.91880,0.07619
3058.99006,0.07620
3057.06131,0.07605
3055.13257,0.07566
3053.20382,0.07498
3051.27508,0.07404
3049.34633,0.07286
3047.41759,0.07155
3045.48884,0.07011
3043.56009,0.06854
3041.63135,0.06700
3039.70260,0.06561
3037.77386,0.06446
3035.84511,0.06350
3033.91637,0.06263
3031.98762,0.06184
3030.05888,0.06118
3028.13013,0.06077
3026.20139,0.06077
3024.27264,0.06112
3022.34390,0.06162
3020.41515,0.06218
3018.48641,0.06263
3016.55766,0.06258
3014.62892,0.06208
3012.70017,0.06152
3010.77142,0.06093
3008.84268,0.06015
3006.91393,0.05914
3004.98519,0.05777
3003.05644,0.05603
3001.12770,0.05428
2999.19895,0.05286
2997.27021,0.05159
2995.34146,0.05006
2993.41272,0.04820
2991.48397,0.04636
2989.55523,0.04482
2987.62648,0.04340
2985.69774,0.04190
2983.76899,0.04067
2981.84025,0.03992
2979.91150,0.03922
2977.98275,0.03820
2976.05401,0.03691
2974.12526,0.03555
2972.19652,0.03419
2970.26777,0.03288
2968.33903,0.03178
2966.41028,0.03106
2964.48154,0.03058
2962.55279,0.03015
2960.62405,0.02992
2958.69530,0.02997
2956.76656,0.03018
2954.83781,0.03052
2952.90907,0.03075
2950.98032,0.03064
2949.05157,0.03039
2947.12283,0.03035
2945.19408,0.03046
2943.26534,0.03032
2941.33659,0.02987
2939.40785,0.02942
2937.47910,0.02909
2935.55036,0.02872
2933.62161,0.02822
2931.69287,0.02797
2929.76412,0.02825
2927.83538,0.02862
2925.90663,0.02858
2923.97789,0.02833
2922.04914,0.02839
2920.12040,0.02877
2918.19165,0.02918
2916.26290,0.02961
2914.33416,0.03011
2912.40541,0.03065
2910.47667,0.03121
2908.54792,0.03177
2906.61918,0.03236
2904.69043,0.03307
2902.76169,0.03385
2900.83294,0.03447
2898.90420,0.03489
2896.97545,0.03533
2895.04671,0.03594
2893.11796,0.03650
2891.18922,0.03685
2889.26047,0.03708
2887.33172,0.03725
2885.40298,0.03743
2883.47423,0.03759
2881.54549,0.03763
2879.61674,0.03758
2877.68800,0.03748
2875.75925,0.03732
2873.83051,0.03722
2871.90176,0.03723
2869.97302,0.03721
2868.04427,0.03690
2866.11553,0.03635
2864.18678,0.03576
2862.25804,0.03517
2860.32929,0.03462
2858.40055,0.03422
2856.47180,0.03389
2854.54305,0.03350
2852.61431,0.03343
2850.68556,0.03400
2848.75682,0.03514
2846.82807,0.03689
2844.89933,0.03934
2842.97058,0.04218
2841.04184,0.04496
2839.11309,0.04771
2837.18435,0.05060
2835.25560,0.05358
2833.32686,0.05670
2831.39811,0.06002
2829.46937,0.06357
2827.54062,0.06712
2825.61188,0.07023
2823.68313,0.07284
2821.75438,0.07521
2819.82564,0.07748
2817.89689,0.07965
2815.96815,0.08168
2814.03940,0.08377
2812.11066,0.08603
2810.18191,0.08817
2808.25317,0.09005
2806.32442,0.09177
2804.39568,0.09337
2802.46693,0.09498
2800.53819,0.09671
2798.60944,0.09867
2796.68070,0.10090
2794.75195,0.10317
2792.82320,0.10535
2790.89446,0.10732
2788.96571,0.10897
2787.03697,0.11049
2785.10822,0.11203
2783.17948,0.11353
2781.25073,0.11493
2779.32199,0.11627
2777.39324,0.11752
2775.46450,0.11857
2773.53575,0.11942
2771.60701,0.12024
2769.67826,0.12118
2767.74952,0.12210
2765.82077,0.12282
2763.89203,0.12339
2761.96328,0.12403
2760.03453,0.12488
2758.10579,0.12582
2756.17704,0.12658
2754.24830,0.12701
2752.31955,0.12734
2750.39081,0.12768
2748.46206,0.12794
2746.53332,0.12824
2744.60457,0.12839
2742.67583,0.12811
2740.74708,0.12754
2738.81834,0.12669
2736.88959,0.12524
2734.96085,0.12293
2733.03210,0.11990
2731.10336,0.11658
2729.17461,0.11366
2727.24586,0.11203
2725.31712,0.11248
2723.38837,0.11524
2721.45963,0.11972
2719.53088,0.12470
2717.60214,0.12919
2715.67339,0.13266
2713.74465,0.13503
2711.81590,0.13658
2709.88716,0.13780
2707.95841,0.13885
2706.02967,0.13963
2704.10092,0.14004
2702.17218,0.14018
2700.24343,0.14036
2698.31468,0.14077
2696.38594,0.14111
2694.45719,0.14115
2692.52845,0.14110
2690.59970,0.14112
2688.67096,0.14111
2686.74221,0.14106
2684.81347,0.14109
2682.88472,0.14125
2680.95598,0.14156
2679.02723,0.14193
2677.09849,0.14210
2675.16974,0.14205
2673.24100,0.14200
2671.31225,0.14208
2669.38351,0.14221
2667.45476,0.14217
2665.52601,0.14204
2663.59727,0.14210
2661.66852,0.14224
2659.73978,0.14211
2657.81103,0.14170
2655.88229,0.14122
2653.95354,0.14061
2652.02480,0.13976
2650.09605,0.13897
2648.16731,0.13829
2646.23856,0.13745
2644.30982,0.13638
2642.38107,0.13514
2640.45233,0.13367
2638.52358,0.13198
2636.59484,0.13003
2634.66609,0.12790
2632.73734,0.12587
2630.80860,0.12406
2628.87985,0.12260
2626.95111,0.12166
2625.02236,0.12113
2623.09362,0.12081
2621.16487,0.12071
2619.23613,0.12076
2617.30738,0.12072
2615.37864,0.12053
2613.44989,0.12027
2611.52115,0.11995
2609.59240,0.11947
2607.66366,0.11881
2605.73491,0.11810
2603.80616,0.11741
2601.87742,0.11671
2599.94867,0.11587
2598.01993,0.11480
2596.09118,0.11369
2594.16244,0.11278
2592.23369,0.11195
2590.30495,0.11093
2588.37620,0.10985
2586.44746,0.10902
2584.51871,0.10855
2582.58997,0.10827
2580.66122,0.10791
2578.73248,0.10740
2576.80373,0.10698
2574.87499,0.10686
2572.94624,0.10686
2571.01749,0.10664
2569.08875,0.10624
2567.16000,0.10580
2565.23126,0.10522
2563.30251,0.10435
2561.37377,0.10310
2559.44502,0.10166
2557.51628,0.10043
2555.58753,0.09945
2553.65879,0.09851
2551.73004,0.09757
2549.80130,0.09672
2547.87255,0.09598
2545.94381,0.09525
2544.01506,0.09432
2542.08631,0.09293
2540.15757,0.09104
2538.22882,0.08892
2536.30008,0.08682
2534.37133,0.08476
2532.44259,0.08260
2530.51384,0.08039
2528.58510,0.07843
2526.65635,0.07681
2524.72761,0.07551
2522.79886,0.07459
2520.87012,0.07423
2518.94137,0.07448
2517.01263,0.07516
2515.08388,0.07593
2513.15514,0.07679
2511.22639,0.07815
2509.29764,0.08022
2507.36890,0.08280
2505.44015,0.08580
2503.51141,0.08922
2501.58266,0.09292
2499.65392,0.09657
2497.72517,0.10009
2495.79643,0.10368
2493.86768,0.10753
2491.93894,0.11162
2490.01019,0.11578
2488.08145,0.12000
2486.15270,0.12443
2484.22396,0.12913
2482.29521,0.13401
2480.36647,0.13900
2478.43772,0.14400
2476.50897,0.14881
2474.58023,0.15333
2472.65148,0.15753
2470.72274,0.16129
2468.79399,0.16451
2466.86525,0.16733
2464.93650,0.16998
2463.00776,0.17244
2461.07901,0.17472
2459.15027,0.17685
2457.22152,0.17882
2455.29278,0.18076
2453.36403,0.18278
2451.43529,0.18482
2449.50654,0.18671
2447.57779,0.18836
2445.64905,0.18977
2443.72030,0.19117
2441.79156,0.19269
2439.86281,0.19426
2437.93407,0.19572
2436.00532,0.19697
2434.07658,0.19814
2432.14783,0.19940
2430.21909,0.20064
2428.29034,0.20165
2426.36160,0.20248
2424.43285,0.20334
2422.50411,0.20418
2420.57536,0.20487
2418.64662,0.20557
2416.71787,0.20637
2414.78912,0.20706
2412.86038,0.20758
2410.93163,0.20823
2409.00289,0.20913
2407.07414,0.21016
2405.14540,0.21122
2403.21665,0.21237
2401.28791,0.21365
2399.35916,0.21486
2397.43042,0.21593
2395.50167,0.21700
2393.57293,0.21804
2391.64418,0.21917
2389.71544,0.22037
2387.78669,0.22142
2385.85795,0.22235
2383.92920,0.22316
2382.00045,0.22392
2380.07171,0.22484
2378.14296,0.22583
2376.21422,0.22644
2374.28547,0.22669
2372.35673,0.22699
2370.42798,0.22755
2368.49924,0.22825
2366.57049,0.22897
2364.64175,0.22960
2362.71300,0.23006
2360.78426,0.23047
2358.85551,0.23098
2356.92677,0.23152
2354.99802,0.23183
2353.06927,0.23194
2351.14053,0.23211
2349.21178,0.23238
2347.28304,0.23257
2345.35429,0.23251
2343.42555,0.23227
2341.49680,0.23207
2339.56806,0.23198
2337.63931,0.23214
2335.71057,0.23255
2333.78182,0.23299
2331.85308,0.23342
2329.92433,0.23392
2327.99559,0.23437
2326.06684,0.23455
2324.13810,0.23462
2322.20935,0.23486
2320.28060,0.23508
2318.35186,0.23512
2316.42311,0.23522
2314.49437,0.23551
2312.56562,0.23584
2310.63688,0.23626
2308.70813,0.23688
2306.77939,0.23761
2304.85064,0.23836
2302.92190,0.23907
2300.99315,0.23964
2299.06441,0.24006
2297.13566,0.24036
2295.20692,0.24069
2293.27817,0.24097
2291.34943,0.24089
2289.42068,0.24057
2287.49193,0.24034
2285.56319,0.24025
2283.63444,0.24019
2281.70570,0.23996
2279.77695,0.23943
2277.84821,0.23869
2275.91946,0.23796
2273.99072,0.23737
2272.06197,0.23692
2270.13323,0.23647
2268.20448,0.23577
2266.27574,0.23470
2264.34699,0.23342
2262.41825,0.23217
2260.48950,0.23096
2258.56075,0.22937
2256.63201,0.22701
2254.70326,0.22383
2252.77452,0.21994
2250.84577,0.21544
2248.91703,0.21044
2246.98828,0.20535
2245.05954,0.20096
2243.13079,0.19829
2241.20205,0.19819
2239.27330,0.20098
2237.34456,0.20632
2235.41581,0.21301
2233.48707,0.21946
2231.55832,0.22446
2229.62958,0.22767
2227.70083,0.22936
2225.77208,0.23006
2223.84334,0.23031
2221.91459,0.23035
2219.98585,0.23014
2218.05710,0.22988
2216.12836,0.22974
2214.19961,0.22960
2212.27087,0.22934
2210.34212,0.22891
2208.41338,0.22839
2206.48463,0.22792
2204.55589,0.22751
2202.62714,0.22715
2200.69840,0.22683
2198.76965,0.22641
2196.84090,0.22578
2194.91216,0.22507
2192.98341,0.22438
2191.05467,0.22374
2189.12592,0.22323
2187.19718,0.22273
2185.26843,0.22212
2183.33969,0.22135
2181.41094,0.22042
2179.48220,0.21945
2177.55345,0.21847
2175.62471,0.21734
2173.69596,0.21616
2171.76722,0.21513
2169.83847,0.21417
2167.90973,0.21313
2165.98098,0.21212
2164.05223,0.21112
2162.12349,0.21004
2160.19474,0.20897
2158.26600,0.20798
2156.33725,0.20691
2154.40851,0.20571
2152.47976,0.20454
2150.55102,0.20357
2148.62227,0.20291
2146.69353,0.20276
2144.76478,0.20319
2142.83604,0.20403
2140.90729,0.20490
2138.97855,0.20577
2137.04980,0.20702
2135.12106,0.20862
2133.19231,0.21018
2131.26356,0.21169
2129.33482,0.21351
2127.40607,0.21573
2125.47733,0.21803
2123.54858,0.22016
2121.61984,0.22210
2119.69109,0.22386
2117.76235,0.22533
2115.83360,0.22651
2113.90486,0.22753
2111.97611,0.22843
2110.04737,0.22916
2108.11862,0.22967
2106.18988,0.23001
2104.26113,0.23021
2102.33238,0.23038
2100.40364,0.23056
2098.47489,0.23063
2096.54615,0.23058
2094.61740,0.23055
2092.68866,0.23056
2090.75991,0.23048
2088.83117,0.23023
2086.90242,0.22982
2084.97368,0.22933
2083.04493,0.22878
2081.11619,0.22813
2079.18744,0.22752
2077.25870,0.22712
2075.32995,0.22688
2073.40121,0.22662
2071.47246,0.22629
2069.54371,0.22592
2067.61497,0.22556
2065.68622,0.22519
2063.75748,0.22491
2061.82873,0.22471
2059.89999,0.22432
2057.97124,0.22372
2056.04250,0.22313
2054.11375,0.22265
2052.18501,0.22226
2050.25626,0.22184
2048.32752,0.22135
2046.39877,0.22090
2044.47003,0.22054
2042.54128,0.22024
2040.61254,0.21997
2038.68379,0.21974
2036.75504,0.21967
2034.82630,0.21977
2032.89755,0.22015
2030.96881,0.22078
2029.04006,0.22139
2027.11132,0.22196
2025.18257,0.22271
2023.25383,0.22358
2021.32508,0.22446
2019.39634,0.22534
2017.46759,0.22615
2015.53885,0.22683
2013.61010,0.22757
2011.68136,0.22843
2009.75261,0.22930
2007.82386,0.22999
2005.89512,0.23049
2003.96637,0.23104
2002.03763,0.23164
2000.10888,0.23212
1998.18014,0.23244
1996.25139,0.23268
1994.32265,0.23276
1992.39390,0.23271
1990.46516,0.23259
1988.53641,0.23231
1986.60767,0.23194
1984.67892,0.23156
1982.75018,0.23094
1980.82143,0.22993
1978.89269,0.22869
1976.96394,0.22751
1975.03519,0.22672
1973.10645,0.22645
1971.17770,0.22647
1969.24896,0.22632
1967.32021,0.22542
1965.39147,0.22348
1963.46272,0.22115
1961.53398,0.21973
1959.60523,0.21984
1957.67649,0.22104
1955.74774,0.22240
1953.81900,0.22328
1951.89025,0.22350
1949.96151,0.22321
1948.03276,0.22268
1946.10402,0.22213
1944.17527,0.22163
1942.24652,0.22127
1940.31778,0.22129
1938.38903,0.22179
1936.46029,0.22259
1934.53154,0.22346
1932.60280,0.22417
1930.67405,0.22463
1928.74531,0.22490
1926.81656,0.22499
1924.88782,0.22480
1922.95907,0.22438
1921.03033,0.22390
1919.10158,0.22339
1917.17284,0.22266
1915.24409,0.22173
1913.31534,0.22082
1911.38660,0.21989
1909.45785,0.21882
1907.52911,0.21762
1905.60036,0.21624
1903.67162,0.21463
1901.74287,0.21297
1899.81413,0.21157
1897.88538,0.21036
1895.95664,0.20893
1894.02789,0.20726
1892.09915,0.20562
1890.17040,0.20402
1888.24166,0.20236
1886.31291,0.20073
1884.38417,0.19928
1882.45542,0.19812
1880.52667,0.19713
1878.59793,0.19607
1876.66918,0.19484
1874.74044,0.19354
1872.81169,0.19219
1870.88295,0.19080
1868.95420,0.18937
1867.02546,0.18795
1865.09671,0.18665
1863.16797,0.18553
1861.23922,0.18455
1859.31048,0.18344
1857.38173,0.18212
1855.45299,0.18066
1853.52424,0.17897
1851.59549,0.17701
1849.66675,0.17486
1847.73800,0.17244
1845.80926,0.16940
1843.88051,0.16555
1841.95177,0.16146
1840.02302,0.15741
1838.09428,0.15284
1836.16553,0.14746
1834.23679,0.14155
1832.30804,0.13540
1830.37930,0.12885
1828.45055,0.12228
1826.52181,0.11647
1824.59306,0.11163
1822.66432,0.10794
1820.73557,0.10524
1818.80682,0.10290
1816.87808,0.10057
1814.94933,0.09821
1813.02059,0.09563
1811.09184,0.09235
1809.16310,0.08800
1807.23435,0.08254
1805.30561,0.07639
1803.37686,0.07043
1801.44812,0.06561
1799.51937,0.06242
1797.59063,0.06081
1795.66188,0.06062
1793.73314,0.06192
1791.80439,0.06517
1789.87565,0.07011
1787.94690,0.07565
1786.01815,0.08103
1784.08941,0.08574
1782.16066,0.08959
1780.23192,0.09263
1778.30317,0.09461
1776.37443,0.09546
1774.44568,0.09534
1772.51694,0.09435
1770.58819,0.09270
1768.65945,0.09064
1766.73070,0.08824
1764.80196,0.08573
1762.87321,0.08281
1760.94447,0.07899
1759.01572,0.07475
1757.08697,0.07036
1755.15823,0.06589
1753.22948,0.06151
1751.30074,0.05697
1749.37199,0.05261
1747.44325,0.04904
1745.51450,0.04622
1743.58576,0.04405
1741.65701,0.04238
1739.72827,0.04108
1737.79952,0.04042
1735.87078,0.04035
1733.94203,0.04039
1732.01329,0.04029
1730.08454,0.04019
1728.15580,0.04016
1726.22705,0.04013
1724.29830,0.04009
1722.36956,0.04011
1720.44081,0.04028
1718.51207,0.04061
1716.58332,0.04114
1714.65458,0.04196
1712.72583,0.04309
1710.79709,0.04433
1708.86834,0.04547
1706.93960,0.04661
1705.01085,0.04778
1703.08211,0.04879
1701.15336,0.04959
1699.22462,0.05000
1697.29587,0.04991
1695.36713,0.04939
1693.43838,0.04866
1691.50963,0.04804
1689.58089,0.04755
1687.65214,0.04716
1685.72340,0.04663
1683.79465,0.04551
1681.86591,0.04425
1679.93716,0.04341
1678.00842,0.04279
1676.07967,0.04191
1674.15093,0.04073
1672.22218,0.03962
1670.29344,0.03856
1668.36469,0.03752
1666.43595,0.03679
1664.50720,0.03640
1662.57845,0.03638
1660.64971,0.03667
1658.72096,0.03695
1656.79222,0.03719
1654.86347,0.03746
1652.93473,0.03757
1651.00598,0.03773
1649.07724,0.03813
1647.14849,0.03847
1645.21975,0.03858
1643.29100,0.03868
1641.36226,0.03890
1639.43351,0.03921
1637.50477,0.03954
1635.57602,0.03983
1633.64728,0.04013
1631.71853,0.04048
1629.78978,0.04076
1627.86104,0.04095
1625.93229,0.04127
1624.00355,0.04179
1622.07480,0.04240
1620.14606,0.04299
1618.21731,0.04358
1616.28857,0.04424
1614.35982,0.04470
1612.43108,0.04487
1610.50233,0.04506
1608.57359,0.04534
1606.64484,0.04552
1604.71610,0.04566
1602.78735,0.04592
1600.85861,0.04623
1598.92986,0.04659
1597.00111,0.04707
1595.07237,0.04766
1593.14362,0.04823
1591.21488,0.04876
1589.28613,0.04940
1587.35739,0.05013
1585.42864,0.05081
1583.49990,0.05143
1581.57115,0.05216
1579.64241,0.05306
1577.71366,0.05404
1575.78492,0.05516
1573.85617,0.05646
1571.92743,0.05767
1569.99868,0.05855
1568.06993,0.05907
1566.14119,0.05949
1564.21244,0.05992
1562.28370,0.06036
1560.35495,0.06070
1558.42621,0.06067
1556.49746,0.06042
1554.56872,0.06006
1552.63997,0.05958
1550.71123,0.05933
1548.78248,0.05923
1546.85374,0.05901
1544.92499,0.05873
1542.99625,0.05855
1541.06750,0.05843
1539.13876,0.05836
1537.21001,0.05849
1535.28126,0.05900
1533.35252,0.05974
1531.42377,0.06032
1529.49503,0.06064
1527.56628,0.06074
1525.63754,0.06058
1523.70879,0.06023
1521.78005,0.05962
1519.85130,0.05881
1517.92256,0.05799
1515.99381,0.05730
1514.06507,0.05682
1512.13632,0.05630
1510.20758,0.05565
1508.27883,0.05497
1506.35008,0.05399
1504.42134,0.05288
1502.49259,0.05200
1500.56385,0.05119
1498.63510,0.05026
1496.70636,0.04916
1494.77761,0.04822
1492.84887,0.04769
1490.92012,0.04723
1488.99138,0.04655
1487.06263,0.04570
1485.13389,0.04474
1483.20514,0.04379
1481.27640,0.04289
1479.34765,0.04199
1477.41891,0.04113
1475.49016,0.04020
1473.56141,0.03904
1471.63267,0.03784
1469.70392,0.03702
1467.77518,0.03650
1465.84643,0.03592
1463.91769,0.03518
1461.98894,0.03456
1460.06020,0.03428
1458.13145,0.03418
1456.20271,0.03396
1454.27396,0.03356
1452.34522,0.03325
1450.41647,0.03324
1448.48773,0.03348
1446.55898,0.03372
1444.63024,0.03385
1442.70149,0.03393
1440.77274,0.03399
1438.84400,0.03426
1436.91525,0.03481
1434.98651,0.03532
1433.05776,0.03559
1431.12902,0.03584
1429.20027,0.03635
1427.27153,0.03709
1425.34278,0.03768
1423.41404,0.03797
1421.48529,0.03811
1419.55655,0.03812
1417.62780,0.03796
1415.69906,0.03794
1413.77031,0.03823
1411.84156,0.03846
1409.91282,0.03847
1407.98407,0.03848
1406.05533,0.03837
1404.12658,0.03804
1402.19784,0.03783
1400.26909,0.03795
1398.34035,0.03825
1396.41160,0.03856
1394.48286,0.03880
1392.55411,0.03898
1390.62537,0.03916
1388.69662,0.03924
1386.76788,0.03910
1384.83913,0.03890
1382.91039,0.03871
1380.98164,0.03835
1379.05289,0.03785
1377.12415,0.03765
1375.19540,0.03814
1373.26666,0.03923
1371.33791,0.04045
1369.40917,0.04147
1367.48042,0.04225
1365.55168,0.04293
1363.62293,0.04352
1361.69419,0.04395
1359.76544,0.04438
1357.83670,0.04498
1355.90795,0.04585
1353.97921,0.04694
1352.05046,0.04788
1350.12172,0.04843
1348.19297,0.04894
1346.26422,0.04963
1344.33548,0.05025
1342.40673,0.05063
1340.47799,0.05096
1338.54924,0.05132
1336.62050,0.05161
1334.69175,0.05172
1332.76301,0.05158
1330.83426,0.05142
1328.90552,0.05137
1326.97677,0.05131
1325.04803,0.05119
1323.11928,0.05101
1321.19054,0.05070
1319.26179,0.05041
1317.33304,0.05036
1315.40430,0.05048
1313.47555,0.05050
1311.54681,0.05042
1309.61806,0.05045
1307.68932,0.05066
1305.76057,0.05096
1303.83183,0.05124
1301.90308,0.05153
1299.97434,0.05191
1298.04559,0.05233
1296.11685,0.05272
1294.18810,0.05293
1292.25936,0.05289
1290.33061,0.05263
1288.40187,0.05231
1286.47312,0.05219
1284.54437,0.05225
1282.61563,0.05236
1280.68688,0.05251
1278.75814,0.05248
1276.82939,0.05209
1274.90065,0.05165
1272.97190,0.05123
1271.04316,0.05049
1269.11441,0.04945
1267.18567,0.04853
1265.25692,0.04780
1263.32818,0.04709
1261.39943,0.04647
1259.47069,0.04623
1257.54194,0.04634
1255.61320,0.04643
1253.68445,0.04639
1251.75570,0.04625
1249.82696,0.04594
1247.89821,0.04546
1245.96947,0.04491
1244.04072,0.04443
1242.11198,0.04418
1240.18323,0.04398
1238.25449,0.04369
1236.32574,0.04338
1234.39700,0.04317
1232.46825,0.04317
1230.53951,0.04334
1228.61076,0.04360
1226.68202,0.04385
1224.75327,0.04384
1222.82452,0.04355
1220.89578,0.04330
1218.96703,0.04325
1217.03829,0.04315
1215.10954,0.04288
1213.18080,0.04250
1211.25205,0.04200
1209.32331,0.04145
1207.39456,0.04095
1205.46582,0.04058
1203.53707,0.04055
1201.60833,0.04081
1199.67958,0.04115
1197.75084,0.04136
1195.82209,0.04129
1193.89335,0.04100
1191.96460,0.04078
1190.03585,0.04057
1188.10711,0.04028
1186.17836,0.04001
1184.24962,0.03978
1182.32087,0.03944
1180.39213,0.03911
1178.46338,0.03883
1176.53464,0.03854
1174.60589,0.03833
1172.67715,0.03814
1170.74840,0.03777
1168.81966,0.03729
1166.89091,0.03688
1164.96217,0.03668
1163.03342,0.03675
1161.10467,0.03686
1159.17593,0.03683
1157.24718,0.03685
1155.31844,0.03711
1153.38969,0.03749
1151.46095,0.03772
1149.53220,0.03782
1147.60346,0.03795
1145.67471,0.03805
1143.74597,0.03801
1141.81722,0.03786
1139.88848,0.03767
1137.95973,0.03758
1136.03099,0.03766
1134.10224,0.03767
1132.17350,0.03746
1130.24475,0.03725
1128.31600,0.03719
1126.38726,0.03729
1124.45851,0.03764
1122.52977,0.03819
1120.60102,0.03878
1118.67228,0.03942
1116.74353,0.03999
1114.81479,0.04031
1112.88604,0.04028
1110.95730,0.04008
1109.02855,0.03995
1107.09981,0.03987
1105.17106,0.03964
1103.24232,0.03920
1101.31357,0.03866
1099.38483,0.03807
1097.45608,0.03755
1095.52733,0.03736
1093.59859,0.03736
1091.66984,0.03710
1089.74110,0.03666
1087.81235,0.03649
1085.88361,0.03669
1083.95486,0.03714
1082.02612,0.03790
1080.09737,0.03875
1078.16863,0.03943
1076.23988,0.03983
1074.31114,0.04011
1072.38239,0.04067
1070.45365,0.04155
1068.52490,0.04227
1066.59615,0.04252
1064.66741,0.04239
1062.73866,0.04216
1060.80992,0.04194
1058.88117,0.04162
1056.95243,0.04120
1055.02368,0.04093
1053.09494,0.04086
1051.16619,0.04074
1049.23745,0.04046
1047.30870,0.04034
1045.37996,0.04034
1043.45121,0.04014
1041.52247,0.03991
1039.59372,0.03993
1037.66498,0.04015
1035.73623,0.04044
1033.80748,0.04068
1031.87874,0.04086
1029.94999,0.04116
1028.02125,0.04167
1026.09250,0.04212
1024.16376,0.04235
1022.23501,0.04236
1020.30627,0.04222
1018.37752,0.04210
1016.44878,0.04230
1014.52003,0.04279
1012.59129,0.04332
1010.66254,0.04384
1008.73380,0.04434
1006.80505,0.04449
1004.87631,0.04432
1002.94756,0.04432
1001.01881,0.04470
999.09007,0.04530
997.16132,0.04579
995.23258,0.04595
993.30383,0.04624
991.37509,0.04690
989.44634,0.04754
987.51760,0.04811
985.58885,0.04861
983.66011,0.04883
981.73136,0.04907
979.80262,0.04957
977.87387,0.04982
975.94513,0.04940
974.01638,0.04856
972.08763,0.04764
970.15889,0.04678
968.23014,0.04647
966.30140,0.04713
964.37265,0.04860
962.44391,0.05065
960.51516,0.05310
958.58642,0.05563
956.65767,0.05799
954.72893,0.05982
952.80018,0.06082
950.87144,0.06136
948.94269,0.06180
947.01395,0.06193
945.08520,0.06182
943.15646,0.06178
941.22771,0.06180
939.29896,0.06185
937.37022,0.06194
935.44147,0.06199
933.51273,0.06218
931.58398,0.06255
929.65524,0.06268
927.72649,0.06252
925.79775,0.06258
923.86900,0.06307
921.94026,0.06346
920.01151,0.06348
918.08277,0.06342
916.15402,0.06340
914.22528,0.06350
912.29653,0.06374
910.36779,0.06427
908.43904,0.06531
906.51029,0.06671
904.58155,0.06817
902.65280,0.06953
900.72406,0.07054
898.79531,0.07080
896.86657,0.07018
894.93782,0.06882
893.00908,0.06682
891.08033,0.06419
889.15159,0.06055
887.22284,0.05534
885.29410,0.04934
883.36535,0.04455
881.43661,0.04164
879.50786,0.03958
877.57911,0.03789
875.65037,0.03715
873.72162,0.03783
871.79288,0.04019
869.86413,0.04400
867.93539,0.04820
866.00664,0.05173
864.07790,0.05416
862.14915,0.05576
860.22041,0.05686
858.29166,0.05719
856.36292,0.05621
854.43417,0.05409
852.50543,0.05179
850.57668,0.04988
848.64794,0.04879
846.71919,0.04915
844.79044,0.05022
842.86170,0.05065
840.93295,0.05006
839.00421,0.04898
837.07546,0.04841
835.14672,0.04865
833.21797,0.04920
831.28923,0.04967
829.36048,0.04986
827.43174,0.05026
825.50299,0.05143
823.57425,0.05289
821.64550,0.05392
819.71676,0.05451
817.78801,0.05511
815.85926,0.05608
813.93052,0.05723
812.00177,0.05793
810.07303,0.05816
808.14428,0.05828
806.21554,0.05821
804.28679,0.05794
802.35805,0.05780
800.42930,0.05785
798.50056,0.05806
796.57181,0.05867
794.64307,0.05970
792.71432,0.06090
790.78558,0.06188
788.85683,0.06263
786.92809,0.06340
784.99934,0.06402
783.07059,0.06410
781.14185,0.06361
779.21310,0.06274
777.28436,0.06142
775.35561,0.05978
773.42687,0.05858
771.49812,0.05772
769.56938,0.05634
767.64063,0.05458
765.71189,0.05315
763.78314,0.05209
761.85440,0.05127
759.92565,0.05075
757.99691,0.05056
756.06816,0.05067
754.13942,0.05097
752.21067,0.05125
750.28192,0.05143
748.35318,0.05151
746.42443,0.05121
744.49569,0.05053
742.56694,0.04963
740.63820,0.04828
738.70945,0.04667
736.78071,0.04528
734.85196,0.04386
732.92322,0.04174
730.99447,0.03931
729.06573,0.03800
727.13698,0.03838
725.20824,0.03919
723.27949,0.03905
721.35074,0.03785
719.42200,0.03616
717.49325,0.03442
715.56451,0.03295
713.63576,0.03251
711.70702,0.03391
709.77827,0.03658
707.84953,0.03901
705.92078,0.04040
703.99204,0.04088
702.06329,0.04109
700.13455,0.04191
698.20580,0.04394
696.27706,0.04702
694.34831,0.05010
692.41957,0.05248
690.49082,0.05432
688.56207,0.05518
686.63333,0.05467
684.70458,0.05386
682.77584,0.05374
680.84709,0.05392
678.91835,0.05374
676.98960,0.05316
675.06086,0.05256
673.13211,0.05214
671.20337,0.05178
669.27462,0.05154
667.34588,0.05165
665.41713,0.05159
663.48839,0.05073
661.55964,0.04941
659.63090,0.04844
657.70215,0.04819
655.77340,0.04833
653.84466,0.04836
651.91591,0.04820
649.98717,0.04783
648.05842,0.04722
646.12968,0.04697
644.20093,0.04718
642.27219,0.04689
640.34344,0.04613
638.41470,0.04573
636.48595,0.04565
634.55721,0.04539
632.62846,0.04545
630.69972,0.04662
628.77097,0.04770
626.84222,0.04682
624.91348,0.04432
622.98473,0.04188
621.05599,0.04092
619.12724,0.04158
617.19850,0.04274
615.26975,0.04341
613.34101,0.04320
611.41226,0.04217
609.48352,0.04092
607.55477,0.04050
605.62603,0.04089
603.69728,0.03996
601.76854,0.03737
599.83979,0.03552
