7497.03301,0.50480
7495.10426,0.50300
7493.17552,0.50046
7491.24677,0.49996
7489.31803,0.50187
7487.38928,0.49915
7485.46054,0.49175
7483.53179,0.48956
7481.60305,0.49600
7479.67430,0.50494
7477.74556,0.51141
7475.81681,0.51388
7473.88807,0.50987
7471.95932,0.50363
7470.03057,0.50467
7468.10183,0.51011
7466.17308,0.51011
7464.24434,0.50565
7462.31559,0.50336
7460.38685,0.50409
7458.45810,0.50585
7456.52936,0.50769
7454.60061,0.50677
7452.67187,0.50166
7450.74312,0.49623
7448.81438,0.49435
7446.88563,0.49656
7444.95689,0.49992
7443.02814,0.50076
7441.09940,0.50119
7439.17065,0.50252
7437.24190,0.50016
7435.31316,0.49537
7433.38441,0.49388
7431.45567,0.49531
7429.52692,0.49669
7427.59818,0.49843
7425.66943,0.50139
7423.74069,0.50395
7421.81194,0.50418
7419.88320,0.50128
7417.95445,0.49745
7416.02571,0.49601
7414.09696,0.49786
7412.16822,0.50191
7410.23947,0.50398
7408.31073,0.50246
7406.38198,0.50128
7404.45323,0.50207
7402.52449,0.50428
7400.59574,0.50632
7398.66700,0.50463
7396.73825,0.49939
7394.80951,0.49639
7392.88076,0.49833
7390.95202,0.49900
7389.02327,0.49589
7387.09453,0.49644
7385.16578,0.50177
7383.23704,0.50409
7381.30829,0.50114
7379.37955,0.49676
7377.45080,0.49401
7375.52205,0.49563
7373.59331,0.50061
7371.66456,0.50327
7369.73582,0.50147
7367.80707,0.49772
7365.87833,0.49475
7363.94958,0.49324
7362.02084,0.49298
7360.09209,0.49401
7358.16335,0.49468
7356.23460,0.49519
7354.30586,0.49741
7352.37711,0.49906
7350.44837,0.49691
7348.51962,0.49197
7346.59088,0.48875
7344.66213,0.48856
7342.73338,0.48601
7340.80464,0.47984
7338.87589,0.47741
7336.94715,0.48256
7335.01840,0.49080
7333.08966,0.49488
7331.16091,0.49165
7329.23217,0.48692
7327.30342,0.48719
7325.37468,0.48929
7323.44593,0.48688
7321.51719,0.48248
7319.58844,0.48194
7317.65970,0.48377
7315.73095,0.48490
7313.80221,0.48508
7311.87346,0.48530
7309.94471,0.48627
7308.01597,0.48536
7306.08722,0.48427
7304.15848,0.48795
7302.22973,0.49176
7300.30099,0.48982
7298.37224,0.48591
7296.44350,0.48508
7294.51475,0.48623
7292.58601,0.48569
7290.65726,0.48252
7288.72852,0.47879
7286.79977,0.47720
7284.87103,0.47803
7282.94228,0.48021
7281.01353,0.48350
7279.08479,0.48518
7277.15604,0.48230
7275.22730,0.47815
7273.29855,0.47786
7271.36981,0.48188
7269.44106,0.48571
7267.51232,0.48512
7265.58357,0.48252
7263.65483,0.48218
7261.72608,0.48321
7259.79734,0.48484
7257.86859,0.48698
7255.93985,0.48554
7254.01110,0.48043
7252.08236,0.47829
7250.15361,0.47988
7248.22486,0.48079
7246.29612,0.48089
7244.36737,0.48071
7242.43863,0.47998
7240.50988,0.47913
7238.58114,0.47656
7236.65239,0.47333
7234.72365,0.47430
7232.79490,0.47828
7230.86616,0.47845
7228.93741,0.47517
7227.00867,0.47330
7225.07992,0.47297
7223.15118,0.47375
7221.22243,0.47688
7219.29369,0.47997
7217.36494,0.47845
7215.43619,0.47437
7213.50745,0.47276
7211.57870,0.47151
7209.64996,0.46877
7207.72121,0.46850
7205.79247,0.47177
7203.86372,0.47460
7201.93498,0.47372
7200.00623,0.47031
7198.07749,0.46851
7196.14874,0.47057
7194.22000,0.47471
7192.29125,0.47617
7190.36251,0.47234
7188.43376,0.46936
7186.50501,0.47268
7184.57627,0.47472
7182.64752,0.47086
7180.71878,0.46888
7178.79003,0.47064
7176.86129,0.47040
7174.93254,0.46946
7173.00380,0.47191
7171.07505,0.47349
7169.14631,0.47084
7167.21756,0.47042
7165.28882,0.47444
7163.36007,0.47746
7161.43133,0.47944
7159.50258,0.48213
7157.57384,0.48204
7155.64509,0.47747
7153.71634,0.47209
7151.78760,0.46945
7149.85885,0.46906
7147.93011,0.46904
7146.00136,0.46850
7144.07262,0.46835
7142.14387,0.47036
7140.21513,0.47309
7138.28638,0.47401
7136.35764,0.47438
7134.42889,0.47542
7132.50015,0.47494
7130.57140,0.47231
7128.64266,0.47067
7126.71391,0.47141
7124.78516,0.47253
7122.85642,0.47245
7120.92767,0.47275
7118.99893,0.47506
7117.07018,0.47588
7115.14144,0.47189
7113.21269,0.46591
7111.28395,0.46322
7109.35520,0.46708
7107.42646,0.47469
7105.49771,0.47982
7103.56897,0.48104
7101.64022,0.48063
7099.71148,0.47754
7097.78273,0.46992
7095.85399,0.46192
7093.92524,0.45988
7091.99649,0.46291
7090.06775,0.46525
7088.13900,0.46567
7086.21026,0.46657
7084.28151,0.46865
7082.35277,0.47135
7080.42402,0.47280
7078.49528,0.47088
7076.56653,0.46777
7074.63779,0.46737
7072.70904,0.46861
7070.78030,0.46890
7068.85155,0.46958
7066.92281,0.47144
7064.99406,0.47274
7063.06532,0.47382
7061.13657,0.47389
7059.20782,0.47021
7057.27908,0.46582
7055.35033,0.46406
7053.42159,0.46380
7051.49284,0.46493
7049.56410,0.46622
7047.63535,0.46604
7045.70661,0.46498
7043.77786,0.46440
7041.84912,0.46706
7039.92037,0.47100
7037.99163,0.47076
7036.06288,0.46826
7034.13414,0.46792
7032.20539,0.46876
7030.27664,0.46905
7028.34790,0.46985
7026.41915,0.47145
7024.49041,0.47229
7022.56166,0.47138
7020.63292,0.46925
7018.70417,0.46749
7016.77543,0.46727
7014.84668,0.46702
7012.91794,0.46508
7010.98919,0.46393
7009.06045,0.46558
7007.13170,0.46783
7005.20296,0.46926
7003.27421,0.46954
7001.34547,0.46800
6999.41672,0.46631
6997.48797,0.46623
6995.55923,0.46709
6993.63048,0.46708
6991.70174,0.46577
6989.77299,0.46555
6987.84425,0.46702
6985.91550,0.46886
6983.98676,0.47046
6982.05801,0.47156
6980.12927,0.47316
6978.20052,0.47447
6976.27178,0.47319
6974.34303,0.47078
6972.41429,0.46956
6970.48554,0.46931
6968.55680,0.46860
6966.62805,0.46737
6964.69930,0.46749
6962.77056,0.46841
6960.84181,0.46741
6958.91307,0.46619
6956.98432,0.46705
6955.05558,0.46774
6953.12683,0.46733
6951.19809,0.46702
6949.26934,0.46780
6947.34060,0.47002
6945.41185,0.47107
6943.48311,0.46938
6941.55436,0.46752
6939.62562,0.46696
6937.69687,0.46619
6935.76812,0.46377
6933.83938,0.46119
6931.91063,0.46176
6929.98189,0.46405
6928.05314,0.46397
6926.12440,0.46354
6924.19565,0.46504
6922.26691,0.46629
6920.33816,0.46760
6918.40942,0.47074
6916.48067,0.47370
6914.55193,0.47409
6912.62318,0.47373
6910.69444,0.47342
6908.76569,0.47031
6906.83695,0.46636
6904.90820,0.46730
6902.97945,0.47275
6901.05071,0.47619
6899.12196,0.47481
6897.19322,0.47377
6895.26447,0.47636
6893.33573,0.47809
6891.40698,0.47554
6889.47824,0.47224
6887.54949,0.47222
6885.62075,0.47421
6883.69200,0.47424
6881.76326,0.47197
6879.83451,0.47079
6877.90577,0.47221
6875.97702,0.47385
6874.04828,0.47356
6872.11953,0.47266
6870.19078,0.47328
6868.26204,0.47556
6866.33329,0.47696
6864.40455,0.47642
6862.47580,0.47744
6860.54706,0.48079
6858.61831,0.48224
6856.68957,0.47990
6854.76082,0.47630
6852.83208,0.47355
6850.90333,0.47150
6848.97459,0.47027
6847.04584,0.47052
6845.11710,0.47190
6843.18835,0.47277
6841.25960,0.47317
6839.33086,0.47438
6837.40211,0.47506
6835.47337,0.47457
6833.54462,0.47422
6831.61588,0.47517
6829.68713,0.47803
6827.75839,0.47991
6825.82964,0.47783
6823.90090,0.47492
6821.97215,0.47491
6820.04341,0.47587
6818.11466,0.47549
6816.18592,0.47486
6814.25717,0.47496
6812.32843,0.47599
6810.39968,0.47649
6808.47093,0.47455
6806.54219,0.47247
6804.61344,0.47382
6802.68470,0.47775
6800.75595,0.48114
6798.82721,0.48262
6796.89846,0.48169
6794.96972,0.47854
6793.04097,0.47546
6791.11223,0.47536
6789.18348,0.47836
6787.25474,0.48034
6785.32599,0.47865
6783.39725,0.47711
6781.46850,0.47885
6779.53975,0.48159
6777.61101,0.48303
6775.68226,0.48314
6773.75352,0.48246
6771.82477,0.48174
6769.89603,0.48083
6767.96728,0.47921
6766.03854,0.47800
6764.10979,0.47829
6762.18105,0.47860
6760.25230,0.47726
6758.32356,0.47658
6756.39481,0.47913
6754.46607,0.48196
6752.53732,0.48123
6750.60858,0.47849
6748.67983,0.47663
6746.75108,0.47695
6744.82234,0.47936
6742.89359,0.48045
6740.96485,0.47874
6739.03610,0.47808
6737.10736,0.48041
6735.17861,0.48352
6733.24987,0.48518
6731.32112,0.48504
6729.39238,0.48400
6727.46363,0.48300
6725.53489,0.48219
6723.60614,0.48091
6721.67740,0.47946
6719.74865,0.47915
6717.81991,0.47993
6715.89116,0.48086
6713.96241,0.48164
6712.03367,0.48156
6710.10492,0.48042
6708.17618,0.48022
6706.24743,0.48142
6704.31869,0.48202
6702.38994,0.48193
6700.46120,0.48260
6698.53245,0.48347
6696.60371,0.48313
6694.67496,0.48203
6692.74622,0.48111
6690.81747,0.48039
6688.88873,0.48040
6686.95998,0.48146
6685.03123,0.48269
6683.10249,0.48301
6681.17374,0.48222
6679.24500,0.48245
6677.31625,0.48512
6675.38751,0.48695
6673.45876,0.48606
6671.53002,0.48624
6669.60127,0.48899
6667.67253,0.49187
6665.74378,0.49333
6663.81504,0.49146
6661.88629,0.48719
6659.95755,0.48569
6658.02880,0.48698
6656.10006,0.48633
6654.17131,0.48357
6652.24256,0.48220
6650.31382,0.48391
6648.38507,0.48677
6646.45633,0.48786
6644.52758,0.48785
6642.59884,0.48876
6640.67009,0.48934
6638.74135,0.48806
6636.81260,0.48659
6634.88386,0.48681
6632.95511,0.48775
6631.02637,0.48798
6629.09762,0.48709
6627.16888,0.48515
6625.24013,0.48346
6623.31139,0.48360
6621.38264,0.48551
6619.45389,0.48758
6617.52515,0.48713
6615.59640,0.48431
6613.66766,0.48374
6611.73891,0.48682
6609.81017,0.48903
6607.88142,0.48838
6605.95268,0.48793
6604.02393,0.48906
6602.09519,0.48950
6600.16644,0.48836
6598.23770,0.48748
6596.30895,0.48831
6594.38021,0.49007
6592.45146,0.49064
6590.52271,0.49040
6588.59397,0.49167
6586.66522,0.49269
6584.73648,0.49089
6582.80773,0.48935
6580.87899,0.49085
6578.95024,0.49272
6577.02150,0.49263
6575.09275,0.49158
6573.16401,0.49041
6571.23526,0.48912
6569.30652,0.48878
6567.37777,0.49005
6565.44903,0.49182
6563.52028,0.49330
6561.59154,0.49403
6559.66279,0.49328
6557.73404,0.49107
6555.80530,0.48876
6553.87655,0.48802
6551.94781,0.48856
6550.01906,0.49044
6548.09032,0.49362
6546.16157,0.49451
6544.23283,0.49239
6542.30408,0.49088
6540.37534,0.49059
6538.44659,0.49109
6536.51785,0.49276
6534.58910,0.49362
6532.66036,0.49281
6530.73161,0.49191
6528.80287,0.49155
6526.87412,0.49189
6524.94537,0.49237
6523.01663,0.49259
6521.08788,0.49388
6519.15914,0.49528
6517.23039,0.49492
6515.30165,0.49410
6513.37290,0.49353
6511.44416,0.49316
6509.51541,0.49330
6507.58667,0.49275
6505.65792,0.49150
6503.72918,0.49057
6501.80043,0.49049
6499.87169,0.49297
6497.94294,0.49633
6496.01419,0.49622
6494.08545,0.49429
6492.15670,0.49396
6490.22796,0.49369
6488.29921,0.49291
6486.37047,0.49329
6484.44172,0.49350
6482.51298,0.49260
6480.58423,0.49245
6478.65549,0.49315
6476.72674,0.49356
6474.79800,0.49383
6472.86925,0.49369
6470.94051,0.49243
6469.01176,0.49146
6467.08302,0.49253
6465.15427,0.49503
6463.22552,0.49751
6461.29678,0.49848
6459.36803,0.49721
6457.43929,0.49499
6455.51054,0.49339
6453.58180,0.49288
6451.65305,0.49295
6449.72431,0.49423
6447.79556,0.49694
6445.86682,0.49835
6443.93807,0.49751
6442.00933,0.49651
6440.08058,0.49655
6438.15184,0.49672
6436.22309,0.49578
6434.29434,0.49492
6432.36560,0.49588
6430.43685,0.49723
6428.50811,0.49634
6426.57936,0.49439
6424.65062,0.49500
6422.72187,0.49763
6420.79313,0.49942
6418.86438,0.49960
6416.93564,0.49770
6415.00689,0.49518
6413.07815,0.49429
6411.14940,0.49365
6409.22066,0.49274
6407.29191,0.49323
6405.36317,0.49412
6403.43442,0.49411
6401.50567,0.49361
6399.57693,0.49352
6397.64818,0.49481
6395.71944,0.49545
6393.79069,0.49399
6391.86195,0.49374
6389.93320,0.49551
6388.00446,0.49651
6386.07571,0.49595
6384.14697,0.49466
6382.21822,0.49434
6380.28948,0.49520
6378.36073,0.49489
6376.43199,0.49396
6374.50324,0.49377
6372.57450,0.49273
6370.64575,0.49167
6368.71700,0.49200
6366.78826,0.49149
6364.85951,0.48970
6362.93077,0.48895
6361.00202,0.48979
6359.07328,0.49096
6357.14453,0.49074
6355.21579,0.48883
6353.28704,0.48752
6351.35830,0.48850
6349.42955,0.49065
6347.50081,0.49174
6345.57206,0.49127
6343.64332,0.49118
6341.71457,0.49225
6339.78582,0.49279
6337.85708,0.49197
6335.92833,0.49107
6333.99959,0.49144
6332.07084,0.49262
6330.14210,0.49359
6328.21335,0.49404
6326.28461,0.49337
6324.35586,0.49158
6322.42712,0.49106
6320.49837,0.49386
6318.56963,0.49789
6316.64088,0.49969
6314.71214,0.49851
6312.78339,0.49598
6310.85465,0.49437
6308.92590,0.49384
6306.99715,0.49313
6305.06841,0.49236
6303.13966,0.49234
6301.21092,0.49291
6299.28217,0.49376
6297.35343,0.49506
6295.42468,0.49620
6293.49594,0.49600
6291.56719,0.49474
6289.63845,0.49321
6287.70970,0.49229
6285.78096,0.49280
6283.85221,0.49405
6281.92347,0.49564
6279.99472,0.49737
6278.06598,0.49797
6276.13723,0.49710
6274.20848,0.49593
6272.27974,0.49565
6270.35099,0.49595
6268.42225,0.49592
6266.49350,0.49578
6264.56476,0.49563
6262.63601,0.49590
6260.70727,0.49659
6258.77852,0.49629
6256.84978,0.49558
6254.92103,0.49539
6252.99229,0.49476
6251.06354,0.49429
6249.13480,0.49507
6247.20605,0.49581
6245.27730,0.49557
6243.34856,0.49462
6241.41981,0.49299
6239.49107,0.49140
6237.56232,0.49106
6235.63358,0.49195
6233.70483,0.49288
6231.77609,0.49278
6229.84734,0.49255
6227.91860,0.49409
6225.98985,0.49632
6224.06111,0.49673
6222.13236,0.49612
6220.20362,0.49627
6218.27487,0.49647
6216.34613,0.49523
6214.41738,0.49255
6212.48863,0.49030
6210.55989,0.49064
6208.63114,0.49344
6206.70240,0.49580
6204.77365,0.49586
6202.84491,0.49529
6200.91616,0.49561
6198.98742,0.49564
6197.05867,0.49449
6195.12993,0.49388
6193.20118,0.49417
6191.27244,0.49367
6189.34369,0.49357
6187.41495,0.49502
6185.48620,0.49670
6183.55746,0.49818
6181.62871,0.49902
6179.69996,0.49925
6177.77122,0.50022
6175.84247,0.50113
6173.91373,0.50029
6171.98498,0.49858
6170.05624,0.49713
6168.12749,0.49588
6166.19875,0.49543
6164.27000,0.49560
6162.34126,0.49488
6160.41251,0.49370
6158.48377,0.49392
6156.55502,0.49514
6154.62628,0.49519
6152.69753,0.49429
6150.76878,0.49389
6148.84004,0.49280
6146.91129,0.49023
6144.98255,0.48903
6143.05380,0.49038
6141.12506,0.49144
6139.19631,0.49113
6137.26757,0.49113
6135.33882,0.49190
6133.41008,0.49309
6131.48133,0.49434
6129.55259,0.49402
6127.62384,0.49100
6125.69510,0.48752
6123.76635,0.48632
6121.83761,0.48686
6119.90886,0.48747
6117.98011,0.48737
6116.05137,0.48683
6114.12262,0.48651
6112.19388,0.48542
6110.26513,0.48360
6108.33639,0.48379
6106.40764,0.48675
6104.47890,0.48974
6102.55015,0.49016
6100.62141,0.48846
6098.69266,0.48677
6096.76392,0.48575
6094.83517,0.48561
6092.90643,0.48658
6090.97768,0.48691
6089.04893,0.48603
6087.12019,0.48597
6085.19144,0.48688
6083.26270,0.48699
6081.33395,0.48621
6079.40521,0.48559
6077.47646,0.48493
6075.54772,0.48355
6073.61897,0.48243
6071.69023,0.48257
6069.76148,0.48342
6067.83274,0.48390
6065.90399,0.48314
6063.97525,0.48213
6062.04650,0.48288
6060.11776,0.48428
6058.18901,0.48398
6056.26026,0.48278
6054.33152,0.48210
6052.40277,0.48140
6050.47403,0.48101
6048.54528,0.48177
6046.61654,0.48240
6044.68779,0.48122
6042.75905,0.47889
6040.83030,0.47730
6038.90156,0.47692
6036.97281,0.47651
6035.04407,0.47569
6033.11532,0.47553
6031.18658,0.47599
6029.25783,0.47621
6027.32909,0.47613
6025.40034,0.47589
6023.47159,0.47535
6021.54285,0.47437
6019.61410,0.47360
6017.68536,0.47367
6015.75661,0.47355
6013.82787,0.47237
6011.89912,0.47120
6009.97038,0.47123
6008.04163,0.47152
6006.11289,0.47028
6004.18414,0.46815
6002.25540,0.46741
6000.32665,0.46796
5998.39791,0.46773
5996.46916,0.46663
5994.54041,0.46614
5992.61167,0.46647
5990.68292,0.46656
5988.75418,0.46602
5986.82543,0.46518
5984.89669,0.46400
5982.96794,0.46261
5981.03920,0.46210
5979.11045,0.46310
5977.18171,0.46374
5975.25296,0.46221
5973.32422,0.46024
5971.39547,0.45959
5969.46673,0.45930
5967.53798,0.45884
5965.60924,0.45838
5963.68049,0.45751
5961.75174,0.45630
5959.82300,0.45450
5957.89425,0.45198
5955.96551,0.45000
5954.03676,0.44921
5952.10802,0.44917
5950.17927,0.44930
5948.25053,0.44895
5946.32178,0.44775
5944.39304,0.44603
5942.46429,0.44494
5940.53555,0.44530
5938.60680,0.44609
5936.67806,0.44534
5934.74931,0.44302
5932.82057,0.44037
5930.89182,0.43754
5928.96307,0.43543
5927.03433,0.43511
5925.10558,0.43526
5923.17684,0.43424
5921.24809,0.43220
5919.31935,0.42930
5917.39060,0.42527
5915.46186,0.42139
5913.53311,0.41899
5911.60437,0.41726
5909.67562,0.41511
5907.74688,0.41303
5905.81813,0.41186
5903.88939,0.41063
5901.96064,0.40778
5900.03189,0.40371
5898.10315,0.39979
5896.17440,0.39653
5894.24566,0.39399
5892.31691,0.39183
5890.38817,0.38905
5888.45942,0.38609
5886.53068,0.38481
5884.60193,0.38519
5882.67319,0.38555
5880.74444,0.38562
5878.81570,0.38612
5876.88695,0.38674
5874.95821,0.38698
5873.02946,0.38688
5871.10072,0.38645
5869.17197,0.38558
5867.24322,0.38428
5865.31448,0.38326
5863.38573,0.38276
5861.45699,0.38181
5859.52824,0.37998
5857.59950,0.37749
5855.67075,0.37466
5853.74201,0.37185
5851.81326,0.36932
5849.88452,0.36686
5847.95577,0.36429
5846.02703,0.36185
5844.09828,0.35949
5842.16954,0.35689
5840.24079,0.35402
5838.31205,0.35102
5836.38330,0.34873
5834.45455,0.34811
5832.52581,0.34865
5830.59706,0.34938
5828.66832,0.34971
5826.73957,0.34917
5824.81083,0.34830
5822.88208,0.34823
5820.95334,0.34894
5819.02459,0.34938
5817.09585,0.34944
5815.16710,0.35014
5813.23836,0.35146
5811.30961,0.35229
5809.38087,0.35250
5807.45212,0.35328
5805.52337,0.35463
5803.59463,0.35525
5801.66588,0.35546
5799.73714,0.35628
5797.80839,0.35738
5795.87965,0.35839
5793.95090,0.36020
5792.02216,0.36307
5790.09341,0.36534
5788.16467,0.36647
5786.23592,0.36774
5784.30718,0.36929
5782.37843,0.37031
5780.44969,0.37127
5778.52094,0.37269
5776.59220,0.37390
5774.66345,0.37480
5772.73470,0.37584
5770.80596,0.37683
5768.87721,0.37722
5766.94847,0.37728
5765.01972,0.37794
5763.09098,0.37935
5761.16223,0.38063
5759.23349,0.38136
5757.30474,0.38177
5755.37600,0.38166
5753.44725,0.38123
5751.51851,0.38102
5749.58976,0.38081
5747.66102,0.38055
5745.73227,0.38072
5743.80352,0.38160
5741.87478,0.38304
5739.94603,0.38390
5738.01729,0.38308
5736.08854,0.38186
5734.15980,0.38206
5732.23105,0.38257
5730.30231,0.38225
5728.37356,0.38200
5726.44482,0.38206
5724.51607,0.38165
5722.58733,0.38078
5720.65858,0.38041
5718.72984,0.38093
5716.80109,0.38127
5714.87235,0.38070
5712.94360,0.38036
5711.01485,0.38053
5709.08611,0.37985
5707.15736,0.37861
5705.22862,0.37872
5703.29987,0.38063
5701.37113,0.38213
5699.44238,0.38150
5697.51364,0.37988
5695.58489,0.37890
5693.65615,0.37906
5691.72740,0.37953
5689.79866,0.37953
5687.86991,0.37995
5685.94117,0.38101
5684.01242,0.38125
5682.08368,0.38043
5680.15493,0.38036
5678.22618,0.38182
5676.29744,0.38338
5674.36869,0.38392
5672.43995,0.38378
5670.51120,0.38334
5668.58246,0.38281
5666.65371,0.38342
5664.72497,0.38520
5662.79622,0.38630
5660.86748,0.38681
5658.93873,0.38779
5657.00999,0.38908
5655.08124,0.38994
5653.15250,0.39027
5651.22375,0.39073
5649.29500,0.39081
5647.36626,0.38986
5645.43751,0.38925
5643.50877,0.39005
5641.58002,0.39140
5639.65128,0.39216
5637.72253,0.39243
5635.79379,0.39256
5633.86504,0.39173
5631.93630,0.38977
5630.00755,0.38763
5628.07881,0.38594
5626.15006,0.38541
5624.22132,0.38606
5622.29257,0.38663
5620.36383,0.38648
5618.43508,0.38605
5616.50633,0.38631
5614.57759,0.38759
5612.64884,0.38925
5610.72010,0.39148
5608.79135,0.39390
5606.86261,0.39538
5604.93386,0.39681
5603.00512,0.39895
5601.07637,0.40098
5599.14763,0.40259
5597.21888,0.40408
5595.29014,0.40609
5593.36139,0.40872
5591.43265,0.41066
5589.50390,0.41136
5587.57516,0.41248
5585.64641,0.41497
5583.71766,0.41761
5581.78892,0.41960
5579.86017,0.42117
5577.93143,0.42273
5576.00268,0.42453
5574.07394,0.42610
5572.14519,0.42708
5570.21645,0.42777
5568.28770,0.42820
5566.35896,0.42893
5564.43021,0.43032
5562.50147,0.43133
5560.57272,0.43149
5558.64398,0.43148
5556.71523,0.43204
5554.78648,0.43340
5552.85774,0.43524
5550.92899,0.43718
5549.00025,0.43843
5547.07150,0.43852
5545.14276,0.43840
5543.21401,0.43883
5541.28527,0.43897
5539.35652,0.43859
5537.42778,0.43907
5535.49903,0.44048
5533.57029,0.44141
5531.64154,0.44128
5529.71280,0.44053
5527.78405,0.44021
5525.85531,0.44097
5523.92656,0.44239
5521.99781,0.44360
5520.06907,0.44388
5518.14032,0.44338
5516.21158,0.44299
5514.28283,0.44263
5512.35409,0.44202
5510.42534,0.44275
5508.49660,0.44507
5506.56785,0.44644
5504.63911,0.44617
5502.71036,0.44558
5500.78162,0.44477
5498.85287,0.44370
5496.92413,0.44384
5494.99538,0.44570
5493.06664,0.44728
5491.13789,0.44718
5489.20914,0.44621
5487.28040,0.44526
5485.35165,0.44473
5483.42291,0.44508
5481.49416,0.44597
5479.56542,0.44621
5477.63667,0.44563
5475.70793,0.44557
5473.77918,0.44633
5471.85044,0.44689
5469.92169,0.44709
5467.99295,0.44723
5466.06420,0.44739
5464.13546,0.44772
5462.20671,0.44784
5460.27796,0.44744
5458.34922,0.44728
5456.42047,0.44735
5454.49173,0.44702
5452.56298,0.44680
5450.63424,0.44708
5448.70549,0.44714
5446.77675,0.44670
5444.84800,0.44662
5442.91926,0.44732
5440.99051,0.44758
5439.06177,0.44711
5437.13302,0.44727
5435.20428,0.44796
5433.27553,0.44793
5431.34679,0.44717
5429.41804,0.44612
5427.48929,0.44488
5425.56055,0.44428
5423.63180,0.44476
5421.70306,0.44588
5419.77431,0.44701
5417.84557,0.44751
5415.91682,0.44773
5413.98808,0.44816
5412.05933,0.44833
5410.13059,0.44792
5408.20184,0.44686
5406.27310,0.44567
5404.34435,0.44532
5402.41561,0.44586
5400.48686,0.44677
5398.55811,0.44775
5396.62937,0.44819
5394.70062,0.44763
5392.77188,0.44704
5390.84313,0.44715
5388.91439,0.44715
5386.98564,0.44690
5385.05690,0.44714
5383.12815,0.44721
5381.19941,0.44641
5379.27066,0.44593
5377.34192,0.44683
5375.41317,0.44801
5373.48443,0.44812
5371.55568,0.44786
5369.62694,0.44839
5367.69819,0.44909
5365.76944,0.44889
5363.84070,0.44847
5361.91195,0.44887
5359.98321,0.44971
5358.05446,0.45014
5356.12572,0.44983
5354.19697,0.44896
5352.26823,0.44794
5350.33948,0.44725
5348.41074,0.44737
5346.48199,0.44805
5344.55325,0.44830
5342.62450,0.44798
5340.69576,0.44775
5338.76701,0.44768
5336.83827,0.44746
5334.90952,0.44721
5332.98077,0.44731
5331.05203,0.44787
5329.12328,0.44837
5327.19454,0.44821
5325.26579,0.44713
5323.33705,0.44556
5321.40830,0.44465
5319.47956,0.44496
5317.55081,0.44588
5315.62207,0.44679
5313.69332,0.44723
5311.76458,0.44693
5309.83583,0.44654
5307.90709,0.44690
5305.97834,0.44769
5304.04959,0.44823
5302.12085,0.44871
5300.19210,0.44936
5298.26336,0.44983
5296.33461,0.44961
5294.40587,0.44913
5292.47712,0.44930
5290.54838,0.44963
5288.61963,0.44921
5286.69089,0.44853
5284.76214,0.44863
5282.83340,0.44913
5280.90465,0.44890
5278.97591,0.44811
5277.04716,0.44741
5275.11842,0.44691
5273.18967,0.44660
5271.26092,0.44644
5269.33218,0.44648
5267.40343,0.44645
5265.47469,0.44598
5263.54594,0.44539
5261.61720,0.44511
5259.68845,0.44509
5257.75971,0.44495
5255.83096,0.44433
5253.90222,0.44358
5251.97347,0.44309
5250.04473,0.44253
5248.11598,0.44139
5246.18724,0.43995
5244.25849,0.43921
5242.32975,0.43887
5240.40100,0.43802
5238.47225,0.43774
5236.54351,0.43877
5234.61476,0.43949
5232.68602,0.43878
5230.75727,0.43768
5228.82853,0.43713
5226.89978,0.43655
5224.97104,0.43573
5223.04229,0.43549
5221.11355,0.43592
5219.18480,0.43597
5217.25606,0.43528
5215.32731,0.43511
5213.39857,0.43574
5211.46982,0.43558
5209.54107,0.43428
5207.61233,0.43304
5205.68358,0.43239
5203.75484,0.43208
5201.82609,0.43201
5199.89735,0.43236
5197.96860,0.43278
5196.03986,0.43231
5194.11111,0.43106
5192.18237,0.43038
5190.25362,0.43083
5188.32488,0.43163
5186.39613,0.43215
5184.46739,0.43203
5182.53864,0.43121
5180.60990,0.43028
5178.68115,0.42968
5176.75240,0.42980
5174.82366,0.43077
5172.89491,0.43153
5170.96617,0.43131
5169.03742,0.43096
5167.10868,0.43123
5165.17993,0.43177
5163.25119,0.43196
5161.32244,0.43170
5159.39370,0.43140
5157.46495,0.43137
5155.53621,0.43163
5153.60746,0.43223
5151.67872,0.43285
5149.74997,0.43272
5147.82123,0.43202
5145.89248,0.43176
5143.96373,0.43192
5142.03499,0.43184
5140.10624,0.43169
5138.17750,0.43186
5136.24875,0.43226
5134.32001,0.43252
5132.39126,0.43249
5130.46252,0.43261
5128.53377,0.43320
5126.60503,0.43386
5124.67628,0.43400
5122.74754,0.43375
5120.81879,0.43386
5118.89005,0.43432
5116.96130,0.43439
5115.03255,0.43418
5113.10381,0.43440
5111.17506,0.43482
5109.24632,0.43485
5107.31757,0.43464
5105.38883,0.43482
5103.46008,0.43527
5101.53134,0.43521
5099.60259,0.43493
5097.67385,0.43516
5095.74510,0.43582
5093.81636,0.43658
5091.88761,0.43700
5089.95887,0.43695
5088.03012,0.43698
5086.10138,0.43732
5084.17263,0.43787
5082.24388,0.43819
5080.31514,0.43785
5078.38639,0.43760
5076.45765,0.43800
5074.52890,0.43845
5072.60016,0.43854
5070.67141,0.43817
5068.74267,0.43748
5066.81392,0.43715
5064.88518,0.43722
5062.95643,0.43729
5061.02769,0.43743
5059.09894,0.43791
5057.17020,0.43865
5055.24145,0.43911
5053.31270,0.43875
5051.38396,0.43829
5049.45521,0.43863
5047.52647,0.43906
5045.59772,0.43890
5043.66898,0.43887
5041.74023,0.43922
5039.81149,0.43942
5037.88274,0.43944
5035.95400,0.43935
5034.02525,0.43889
5032.09651,0.43835
5030.16776,0.43845
5028.23902,0.43873
5026.31027,0.43830
5024.38153,0.43765
5022.45278,0.43770
5020.52403,0.43840
5018.59529,0.43897
5016.66654,0.43898
5014.73780,0.43851
5012.80905,0.43784
5010.88031,0.43756
5008.95156,0.43810
5007.02282,0.43904
5005.09407,0.43925
5003.16533,0.43851
5001.23658,0.43818
4999.30784,0.43877
4997.37909,0.43944
4995.45035,0.43964
4993.52160,0.43921
4991.59286,0.43873
4989.66411,0.43880
4987.73536,0.43886
4985.80662,0.43829
4983.87787,0.43739
4981.94913,0.43714
4980.02038,0.43763
4978.09164,0.43753
4976.16289,0.43686
4974.23415,0.43676
4972.30540,0.43715
4970.37666,0.43730
4968.44791,0.43687
4966.51917,0.43588
4964.59042,0.43508
4962.66168,0.43499
4960.73293,0.43495
4958.80418,0.43444
4956.87544,0.43369
4954.94669,0.43295
4953.01795,0.43259
4951.08920,0.43284
4949.16046,0.43334
4947.23171,0.43351
4945.30297,0.43313
4943.37422,0.43267
4941.44548,0.43263
4939.51673,0.43274
4937.58799,0.43254
4935.65924,0.43201
4933.73050,0.43127
4931.80175,0.43054
4929.87301,0.43005
4927.94426,0.42975
4926.01551,0.42943
4924.08677,0.42902
4922.15802,0.42866
4920.22928,0.42863
4918.30053,0.42895
4916.37179,0.42918
4914.44304,0.42888
4912.51430,0.42857
4910.58555,0.42886
4908.65681,0.42942
4906.72806,0.42980
4904.79932,0.43008
4902.87057,0.43010
4900.94183,0.42967
4899.01308,0.42893
4897.08434,0.42820
4895.15559,0.42778
4893.22684,0.42772
4891.29810,0.42784
4889.36935,0.42785
4887.44061,0.42755
4885.51186,0.42708
4883.58312,0.42679
4881.65437,0.42657
4879.72563,0.42632
4877.79688,0.42652
4875.86814,0.42695
4873.93939,0.42662
4872.01065,0.42573
4870.08190,0.42524
4868.15316,0.42521
4866.22441,0.42541
4864.29566,0.42563
4862.36692,0.42572
4860.43817,0.42555
4858.50943,0.42500
4856.58068,0.42439
4854.65194,0.42425
4852.72319,0.42443
4850.79445,0.42460
4848.86570,0.42461
4846.93696,0.42413
4845.00821,0.42332
4843.07947,0.42309
4841.15072,0.42351
4839.22198,0.42383
4837.29323,0.42380
4835.36449,0.42373
4833.43574,0.42390
4831.50699,0.42405
4829.57825,0.42366
4827.64950,0.42283
4825.72076,0.42226
4823.79201,0.42212
4821.86327,0.42184
4819.93452,0.42160
4818.00578,0.42172
4816.07703,0.42163
4814.14829,0.42117
4812.21954,0.42102
4810.29080,0.42106
4808.36205,0.42066
4806.43331,0.42007
4804.50456,0.41980
4802.57582,0.41979
4800.64707,0.41995
4798.71832,0.42009
4796.78958,0.42004
4794.86083,0.41976
4792.93209,0.41913
4791.00334,0.41832
4789.07460,0.41804
4787.14585,0.41848
4785.21711,0.41865
4783.28836,0.41796
4781.35962,0.41713
4779.43087,0.41676
4777.50213,0.41671
4775.57338,0.41666
4773.64464,0.41643
4771.71589,0.41611
4769.78714,0.41596
4767.85840,0.41604
4765.92965,0.41589
4764.00091,0.41570
4762.07216,0.41593
4760.14342,0.41606
4758.21467,0.41572
4756.28593,0.41537
4754.35718,0.41526
4752.42844,0.41508
4750.49969,0.41469
4748.57095,0.41433
4746.64220,0.41420
4744.71346,0.41410
4742.78471,0.41396
4740.85597,0.41375
4738.92722,0.41340
4736.99847,0.41315
4735.06973,0.41288
4733.14098,0.41244
4731.21224,0.41220
4729.28349,0.41172
4727.35475,0.41060
4725.42600,0.40954
4723.49726,0.40896
4721.56851,0.40840
4719.63977,0.40755
4717.71102,0.40661
4715.78228,0.40599
4713.85353,0.40545
4711.92479,0.40453
4709.99604,0.40351
4708.06729,0.40306
4706.13855,0.40324
4704.20980,0.40330
4702.28106,0.40275
4700.35231,0.40202
4698.42357,0.40164
4696.49482,0.40159
4694.56608,0.40167
4692.63733,0.40182
4690.70859,0.40203
4688.77984,0.40206
4686.85110,0.40183
4684.92235,0.40175
4682.99361,0.40186
4681.06486,0.40190
4679.13612,0.40178
4677.20737,0.40126
4675.27862,0.40033
4673.34988,0.39973
4671.42113,0.39961
4669.49239,0.39930
4667.56364,0.39884
4665.63490,0.39860
4663.70615,0.39839
4661.77741,0.39789
4659.84866,0.39693
4657.91992,0.39560
4655.99117,0.39433
4654.06243,0.39354
4652.13368,0.39325
4650.20494,0.39296
4648.27619,0.39205
4646.34745,0.39049
4644.41870,0.38883
4642.48995,0.38730
4640.56121,0.38596
4638.63246,0.38500
4636.70372,0.38426
4634.77497,0.38322
4632.84623,0.38191
4630.91748,0.38094
4628.98874,0.38062
4627.05999,0.38070
4625.13125,0.38081
4623.20250,0.38088
4621.27376,0.38118
4619.34501,0.38170
4617.41627,0.38191
4615.48752,0.38182
4613.55877,0.38181
4611.63003,0.38181
4609.70128,0.38166
4607.77254,0.38159
4605.84379,0.38168
4603.91505,0.38180
4601.98630,0.38220
4600.05756,0.38271
4598.12881,0.38292
4596.20007,0.38318
4594.27132,0.38390
4592.34258,0.38481
4590.41383,0.38556
4588.48509,0.38594
4586.55634,0.38616
4584.62760,0.38641
4582.69885,0.38665
4580.77010,0.38696
4578.84136,0.38732
4576.91261,0.38759
4574.98387,0.38792
4573.05512,0.38834
4571.12638,0.38873
4569.19763,0.38944
4567.26889,0.39043
4565.34014,0.39110
4563.41140,0.39141
4561.48265,0.39180
4559.55391,0.39206
4557.62516,0.39193
4555.69642,0.39187
4553.76767,0.39216
4551.83893,0.39251
4549.91018,0.39254
4547.98143,0.39223
4546.05269,0.39190
4544.12394,0.39171
4542.19520,0.39155
4540.26645,0.39127
4538.33771,0.39062
4536.40896,0.38945
4534.48022,0.38808
4532.55147,0.38720
4530.62273,0.38686
4528.69398,0.38636
4526.76524,0.38547
4524.83649,0.38472
4522.90775,0.38439
4520.97900,0.38427
4519.05025,0.38405
4517.12151,0.38342
4515.19276,0.38269
4513.26402,0.38261
4511.33527,0.38318
4509.40653,0.38392
4507.47778,0.38467
4505.54904,0.38517
4503.62029,0.38527
4501.69155,0.38501
4499.76280,0.38451
4497.83406,0.38410
4495.90531,0.38379
4493.97657,0.38326
4492.04782,0.38256
4490.11908,0.38191
4488.19033,0.38124
4486.26158,0.38046
4484.33284,0.37955
4482.40409,0.37837
4480.47535,0.37713
4478.54660,0.37629
4476.61786,0.37575
4474.68911,0.37526
4472.76037,0.37477
4470.83162,0.37413
4468.90288,0.37309
4466.97413,0.37163
4465.04539,0.36995
4463.11664,0.36841
4461.18790,0.36691
4459.25915,0.36490
4457.33041,0.36249
4455.40166,0.36033
4453.47291,0.35847
4451.54417,0.35662
4449.61542,0.35491
4447.68668,0.35351
4445.75793,0.35187
4443.82919,0.34946
4441.90044,0.34662
4439.97170,0.34391
4438.04295,0.34120
4436.11421,0.33834
4434.18546,0.33558
4432.25672,0.33302
4430.32797,0.33032
4428.39923,0.32726
4426.47048,0.32396
4424.54173,0.32051
4422.61299,0.31681
4420.68424,0.31291
4418.75550,0.30883
4416.82675,0.30478
4414.89801,0.30088
4412.96926,0.29690
4411.04052,0.29316
4409.11177,0.29022
4407.18303,0.28757
4405.25428,0.28450
4403.32554,0.28122
4401.39679,0.27848
4399.46805,0.27658
4397.53930,0.27517
4395.61056,0.27357
4393.68181,0.27155
4391.75306,0.26942
4389.82432,0.26735
4387.89557,0.26516
4385.96683,0.26317
4384.03808,0.26178
4382.10934,0.26045
4380.18059,0.25870
4378.25185,0.25687
4376.32310,0.25523
4374.39436,0.25376
4372.46561,0.25232
4370.53687,0.25040
4368.60812,0.24805
4366.67938,0.24602
4364.75063,0.24436
4362.82189,0.24256
4360.89314,0.24069
4358.96439,0.23902
4357.03565,0.23768
4355.10690,0.23675
4353.17816,0.23590
4351.24941,0.23477
4349.32067,0.23325
4347.39192,0.23135
4345.46318,0.22932
4343.53443,0.22759
4341.60569,0.22630
4339.67694,0.22529
4337.74820,0.22423
4335.81945,0.22289
4333.89071,0.22148
4331.96196,0.22071
4330.03321,0.22104
4328.10447,0.22234
4326.17572,0.22424
4324.24698,0.22639
4322.31823,0.22869
4320.38949,0.23107
4318.46074,0.23324
4316.53200,0.23497
4314.60325,0.23622
4312.67451,0.23699
4310.74576,0.23723
4308.81702,0.23683
4306.88827,0.23584
4304.95953,0.23464
4303.03078,0.23353
4301.10204,0.23260
4299.17329,0.23182
4297.24454,0.23101
4295.31580,0.23007
4293.38705,0.22929
4291.45831,0.22892
4289.52956,0.22903
4287.60082,0.22951
4285.67207,0.23007
4283.74333,0.23065
4281.81458,0.23152
4279.88584,0.23288
4277.95709,0.23445
4276.02835,0.23575
4274.09960,0.23644
4272.17086,0.23643
4270.24211,0.23614
4268.31336,0.23598
4266.38462,0.23589
4264.45587,0.23583
4262.52713,0.23572
4260.59838,0.23536
4258.66964,0.23503
4256.74089,0.23508
4254.81215,0.23543
4252.88340,0.23570
4250.95466,0.23567
4249.02591,0.23574
4247.09717,0.23631
4245.16842,0.23718
4243.23968,0.23807
4241.31093,0.23895
4239.38219,0.23978
4237.45344,0.24069
4235.52469,0.24178
4233.59595,0.24280
4231.66720,0.24362
4229.73846,0.24447
4227.80971,0.24546
4225.88097,0.24637
4223.95222,0.24716
4222.02348,0.24802
4220.09473,0.24918
4218.16599,0.25088
4216.23724,0.25281
4214.30850,0.25425
4212.37975,0.25526
4210.45101,0.25644
4208.52226,0.25777
4206.59352,0.25875
4204.66477,0.25938
4202.73602,0.25986
4200.80728,0.26043
4198.87853,0.26123
4196.94979,0.26225
4195.02104,0.26325
4193.09230,0.26370
4191.16355,0.26357
4189.23481,0.26358
4187.30606,0.26389
4185.37732,0.26422
4183.44857,0.26462
4181.51983,0.26514
4179.59108,0.26548
4177.66234,0.26551
4175.73359,0.26539
4173.80484,0.26528
4171.87610,0.26523
4169.94735,0.26512
4168.01861,0.26496
4166.08986,0.26489
4164.16112,0.26511
4162.23237,0.26584
4160.30363,0.26673
4158.37488,0.26711
4156.44614,0.26725
4154.51739,0.26799
4152.58865,0.26935
4150.65990,0.27058
4148.73116,0.27149
4146.80241,0.27248
4144.87367,0.27386
4142.94492,0.27536
4141.01617,0.27646
4139.08743,0.27720
4137.15868,0.27804
4135.22994,0.27912
4133.30119,0.28019
4131.37245,0.28093
4129.44370,0.28122
4127.51496,0.28116
4125.58621,0.28102
4123.65747,0.28113
4121.72872,0.28173
4119.79998,0.28266
4117.87123,0.28323
4115.94249,0.28315
4114.01374,0.28292
4112.08500,0.28275
4110.15625,0.28230
4108.22750,0.28162
4106.29876,0.28123
4104.37001,0.28113
4102.44127,0.28095
4100.51252,0.28055
4098.58378,0.28003
4096.65503,0.27957
4094.72629,0.27924
4092.79754,0.27896
4090.86880,0.27858
4088.94005,0.27813
4087.01131,0.27776
4085.08256,0.27727
4083.15382,0.27626
4081.22507,0.27486
4079.29632,0.27337
4077.36758,0.27168
4075.43883,0.26955
4073.51009,0.26695
4071.58134,0.26372
4069.65260,0.25980
4067.72385,0.25600
4065.79511,0.25316
4063.86636,0.25145
4061.93762,0.25114
4060.00887,0.25239
4058.08013,0.25452
4056.15138,0.25695
4054.22264,0.25969
4052.29389,0.26227
4050.36515,0.26408
4048.43640,0.26531
4046.50765,0.26631
4044.57891,0.26718
4042.65016,0.26801
4040.72142,0.26872
4038.79267,0.26914
4036.86393,0.26936
4034.93518,0.26962
4033.00644,0.27011
4031.07769,0.27089
4029.14895,0.27169
4027.22020,0.27211
4025.29146,0.27213
4023.36271,0.27225
4021.43397,0.27289
4019.50522,0.27372
4017.57648,0.27399
4015.64773,0.27369
4013.71898,0.27347
4011.79024,0.27347
4009.86149,0.27353
4007.93275,0.27361
4006.00400,0.27362
4004.07526,0.27332
4002.14651,0.27276
4000.21777,0.27230
3998.28902,0.27216
3996.36028,0.27227
3994.43153,0.27236
3992.50279,0.27229
3990.57404,0.27222
3988.64530,0.27215
3986.71655,0.27186
3984.78780,0.27145
3982.85906,0.27115
3980.93031,0.27080
3979.00157,0.27036
3977.07282,0.27016
3975.14408,0.27025
3973.21533,0.27030
3971.28659,0.27020
3969.35784,0.26994
3967.42910,0.26953
3965.50035,0.26916
3963.57161,0.26896
3961.64286,0.26883
3959.71412,0.26855
3957.78537,0.26801
3955.85663,0.26736
3953.92788,0.26695
3951.99913,0.26688
3950.07039,0.26694
3948.14164,0.26706
3946.21290,0.26728
3944.28415,0.26746
3942.35541,0.26773
3940.42666,0.26841
3938.49792,0.26939
3936.56917,0.27036
3934.64043,0.27108
3932.71168,0.27175
3930.78294,0.27280
3928.85419,0.27413
3926.92545,0.27545
3924.99670,0.27679
3923.06795,0.27829
3921.13921,0.27980
3919.21046,0.28112
3917.28172,0.28215
3915.35297,0.28290
3913.42423,0.28367
3911.49548,0.28463
3909.56674,0.28551
3907.63799,0.28618
3905.70925,0.28689
3903.78050,0.28764
3901.85176,0.28819
3899.92301,0.28844
3897.99427,0.28866
3896.06552,0.28907
3894.13678,0.28946
3892.20803,0.28999
3890.27928,0.29102
3888.35054,0.29199
3886.42179,0.29227
3884.49305,0.29238
3882.56430,0.29320
3880.63556,0.29456
3878.70681,0.29561
3876.77807,0.29624
3874.84932,0.29701
3872.92058,0.29801
3870.99183,0.29891
3869.06309,0.29959
3867.13434,0.30012
3865.20560,0.30048
3863.27685,0.30086
3861.34811,0.30155
3859.41936,0.30255
3857.49061,0.30369
3855.56187,0.30457
3853.63312,0.30473
3851.70438,0.30475
3849.77563,0.30531
3847.84689,0.30611
3845.91814,0.30706
3843.98940,0.30813
3842.06065,0.30907
3840.13191,0.30968
3838.20316,0.30995
3836.27442,0.31018
3834.34567,0.31065
3832.41693,0.31119
3830.48818,0.31168
3828.55943,0.31196
3826.63069,0.31184
3824.70194,0.31189
3822.77320,0.31241
3820.84445,0.31291
3818.91571,0.31345
3816.98696,0.31400
3815.05822,0.31438
3813.12947,0.31492
3811.20073,0.31574
3809.27198,0.31651
3807.34324,0.31697
3805.41449,0.31730
3803.48575,0.31775
3801.55700,0.31799
3799.62826,0.31810
3797.69951,0.31835
3795.77076,0.31857
3793.84202,0.31889
3791.91327,0.31922
3789.98453,0.31942
3788.05578,0.31963
3786.12704,0.31969
3784.19829,0.31941
3782.26955,0.31905
3780.34080,0.31870
3778.41206,0.31832
3776.48331,0.31803
3774.55457,0.31789
3772.62582,0.31787
3770.69708,0.31789
3768.76833,0.31770
3766.83959,0.31722
3764.91084,0.31672
3762.98209,0.31665
3761.05335,0.31688
3759.12460,0.31689
3757.19586,0.31676
3755.26711,0.31687
3753.33837,0.31694
3751.40962,0.31666
3749.48088,0.31646
3747.55213,0.31684
3745.62339,0.31719
3743.69464,0.31684
3741.76590,0.31645
3739.83715,0.31641
3737.90841,0.31620
3735.97966,0.31576
3734.05091,0.31557
3732.12217,0.31550
3730.19342,0.31513
3728.26468,0.31461
3726.33593,0.31423
3724.40719,0.31395
3722.47844,0.31339
3720.54970,0.31257
3718.62095,0.31186
3716.69221,0.31137
3714.76346,0.31083
3712.83472,0.30983
3710.90597,0.30839
3708.97723,0.30696
3707.04848,0.30563
3705.11974,0.30412
3703.19099,0.30201
3701.26224,0.29937
3699.33350,0.29695
3697.40475,0.29491
3695.47601,0.29304
3693.54726,0.29117
3691.61852,0.28876
3689.68977,0.28530
3687.76103,0.28106
3685.83228,0.27692
3683.90354,0.27291
3681.97479,0.26877
3680.04605,0.26471
3678.11730,0.26066
3676.18856,0.25642
3674.25981,0.25289
3672.33107,0.25050
3670.40232,0.24785
3668.47357,0.24467
3666.54483,0.24192
3664.61608,0.23944
3662.68734,0.23686
3660.75859,0.23434
3658.82985,0.23180
3656.90110,0.22861
3654.97236,0.22495
3653.04361,0.22175
3651.11487,0.21861
3649.18612,0.21470
3647.25738,0.21062
3645.32863,0.20714
3643.39989,0.20391
3641.47114,0.20052
3639.54239,0.19708
3637.61365,0.19384
3635.68490,0.19064
3633.75616,0.18741
3631.82741,0.18442
3629.89867,0.18116
3627.96992,0.17706
3626.04118,0.17308
3624.11243,0.16961
3622.18369,0.16629
3620.25494,0.16290
3618.32620,0.15962
3616.39745,0.15693
3614.46871,0.15438
3612.53996,0.15139
3610.61122,0.14830
3608.68247,0.14551
3606.75372,0.14312
3604.82498,0.14115
3602.89623,0.13949
3600.96749,0.13793
3599.03874,0.13615
3597.11000,0.13408
3595.18125,0.13208
3593.25251,0.13026
3591.32376,0.12856
3589.39502,0.12681
3587.46627,0.12462
3585.53753,0.12249
3583.60878,0.12102
3581.68004,0.11976
3579.75129,0.11822
3577.82254,0.11660
3575.89380,0.11515
3573.96505,0.11369
3572.03631,0.11203
3570.10756,0.11032
3568.17882,0.10863
3566.25007,0.10695
3564.32133,0.10555
3562.39258,0.10451
3560.46384,0.10349
3558.53509,0.10232
3556.60635,0.10123
3554.67760,0.10019
3552.74886,0.09901
3550.82011,0.09797
3548.89137,0.09733
3546.96262,0.09679
3545.03387,0.09586
3543.10513,0.09452
3541.17638,0.09334
3539.24764,0.09242
3537.31889,0.09126
3535.39015,0.08996
3533.46140,0.08909
3531.53266,0.08859
3529.60391,0.08801
3527.67517,0.08728
3525.74642,0.08677
3523.81768,0.08662
3521.88893,0.08616
3519.96019,0.08515
3518.03144,0.08412
3516.10270,0.08335
3514.17395,0.08285
3512.24520,0.08250
3510.31646,0.08207
3508.38771,0.08148
3506.45897,0.08089
3504.53022,0.08027
3502.60148,0.07948
3500.67273,0.07869
3498.74399,0.07816
3496.81524,0.07783
3494.88650,0.07736
3492.95775,0.07658
3491.02901,0.07577
3489.10026,0.07521
3487.17152,0.07493
3485.24277,0.07480
3483.31402,0.07457
3481.38528,0.07400
3479.45653,0.07304
3477.52779,0.07215
3475.59904,0.07167
3473.67030,0.07138
3471.74155,0.07110
3469.81281,0.07075
3467.88406,0.07029
3465.95532,0.06997
3464.02657,0.06988
3462.09783,0.06961
3460.16908,0.06914
3458.24034,0.06878
3456.31159,0.06844
3454.38285,0.06793
3452.45410,0.06733
3450.52535,0.06678
3448.59661,0.06628
3446.66786,0.06586
3444.73912,0.06564
3442.81037,0.06541
3440.88163,0.06508
3438.95288,0.06493
3437.02414,0.06486
3435.09539,0.06456
3433.16665,0.06414
3431.23790,0.06397
3429.30916,0.06402
3427.38041,0.06390
3425.45167,0.06350
3423.52292,0.06302
3421.59418,0.06265
3419.66543,0.06266
3417.73668,0.06300
3415.80794,0.06303
3413.87919,0.06240
3411.95045,0.06172
3410.02170,0.06153
3408.09296,0.06157
3406.16421,0.06156
3404.23547,0.06156
3402.30672,0.06154
3400.37798,0.06144
3398.44923,0.06128
3396.52049,0.06097
3394.59174,0.06053
3392.66300,0.06035
3390.73425,0.06045
3388.80550,0.06047
3386.87676,0.06035
3384.94801,0.06019
3383.01927,0.05986
3381.09052,0.05945
3379.16178,0.05936
3377.23303,0.05963
3375.30429,0.05976
3373.37554,0.05952
3371.44680,0.05920
3369.51805,0.05901
3367.58931,0.05879
3365.66056,0.05846
3363.73182,0.05818
3361.80307,0.05812
3359.87433,0.05829
3357.94558,0.05842
3356.01683,0.05827
3354.08809,0.05797
3352.15934,0.05771
3350.23060,0.05765
3348.30185,0.05775
3346.37311,0.05768
3344.44436,0.05737
3342.51562,0.05710
3340.58687,0.05706
3338.65813,0.05707
3336.72938,0.05692
3334.80064,0.05676
3332.87189,0.05684
3330.94315,0.05709
3329.01440,0.05740
3327.08566,0.05762
3325.15691,0.05752
3323.22816,0.05728
3321.29942,0.05725
3319.37067,0.05746
3317.44193,0.05760
3315.51318,0.05743
3313.58444,0.05723
3311.65569,0.05725
3309.72695,0.05728
3307.79820,0.05712
3305.86946,0.05688
3303.94071,0.05680
3302.01197,0.05692
3300.08322,0.05724
3298.15448,0.05770
3296.22573,0.05809
3294.29698,0.05820
3292.36824,0.05810
3290.43949,0.05803
3288.51075,0.05812
3286.58200,0.05835
3284.65326,0.05858
3282.72451,0.05867
3280.79577,0.05883
3278.86702,0.05932
3276.93828,0.05992
3275.00953,0.06029
3273.08079,0.06032
3271.15204,0.06015
3269.22330,0.05997
3267.29455,0.05991
3265.36581,0.06019
3263.43706,0.06083
3261.50831,0.06134
3259.57957,0.06172
3257.65082,0.06219
3255.72208,0.06254
3253.79333,0.06283
3251.86459,0.06339
3249.93584,0.06400
3248.00710,0.06434
3246.07835,0.06462
3244.14961,0.06509
3242.22086,0.06567
3240.29212,0.06626
3238.36337,0.06665
3236.43463,0.06675
3234.50588,0.06692
3232.57713,0.06726
3230.64839,0.06737
3228.71964,0.06733
3226.79090,0.06764
3224.86215,0.06814
3222.93341,0.06840
3221.00466,0.06847
3219.07592,0.06866
3217.14717,0.06909
3215.21843,0.06950
3213.28968,0.06974
3211.36094,0.07007
3209.43219,0.07046
3207.50345,0.07062
3205.57470,0.07071
3203.64596,0.07107
3201.71721,0.07154
3199.78846,0.07184
3197.85972,0.07208
3195.93097,0.07247
3194.00223,0.07298
3192.07348,0.07345
3190.14474,0.07364
3188.21599,0.07370
3186.28725,0.07385
3184.35850,0.07395
3182.42976,0.07418
3180.50101,0.07482
3178.57227,0.07552
3176.64352,0.07600
3174.71478,0.07646
3172.78603,0.07710
3170.85729,0.07762
3168.92854,0.07777
3166.99979,0.07788
3165.07105,0.07817
3163.14230,0.07865
3161.21356,0.07921
3159.28481,0.07939
3157.35607,0.07912
3155.42732,0.07910
3153.49858,0.07968
3151.56983,0.08031
3149.64109,0.08060
3147.71234,0.08075
3145.78360,0.08099
3143.85485,0.08140
3141.92611,0.08192
3139.99736,0.08242
3138.06861,0.08268
3136.13987,0.08276
3134.21112,0.08304
3132.28238,0.08343
3130.35363,0.08358
3128.42489,0.08355
3126.49614,0.08355
3124.56740,0.08360
3122.63865,0.08377
3120.70991,0.08401
3118.78116,0.08415
3116.85242,0.08402
3114.92367,0.08364
3112.99493,0.08340
3111.06618,0.08353
3109.13744,0.08363
3107.20869,0.08358
3105.27994,0.08366
3103.35120,0.08377
3101.42245,0.08370
3099.49371,0.08362
3097.56496,0.08363
3095.63622,0.08351
3093.70747,0.08301
3091.77873,0.08236
3089.84998,0.08197
3087.92124,0.08182
3085.99249,0.08173
3084.06375,0.08164
3082.13500,0.08144
3080.20626,0.08114
3078.27751,0.08078
3076.34877,0.08029
3074.42002,0.07980
3072.49127,0.07956
3070.56253,0.07942
3068.63378,0.07915
3066.70504,0.07885
3064.77629,0.07851
3062.84755,0.07804
3060.91880,0.07767
3058.99006,0.07746
3057.06131,0.07709
3055.13257,0.07664
3053.20382,0.07613
3051.27508,0.07511
3049.34633,0.07366
3047.41759,0.07226
3045.48884,0.07081
3043.56009,0.06923
3041.63135,0.06774
3039.70260,0.06648
3037.77386,0.06532
3035.84511,0.06419
3033.91637,0.06312
3031.98762,0.06215
3030.05888,0.06156
3028.13013,0.06146
3026.20139,0.06162
3024.27264,0.06204
3022.34390,0.06268
3020.41515,0.06313
3018.48641,0.06325
3016.55766,0.06322
3014.62892,0.06293
3012.70017,0.06225
3010.77142,0.06129
3008.84268,0.06006
3006.91393,0.05873
3004.98519,0.05756
3003.05644,0.05641
3001.12770,0.05494
2999.19895,0.05319
2997.27021,0.05138
2995.34146,0.04963
2993.41272,0.04801
2991.48397,0.04648
2989.55523,0.04493
2987.62648,0.04338
2985.69774,0.04207
2983.76899,0.04114
2981.84025,0.04031
2979.91150,0.03928
2977.98275,0.03797
2976.05401,0.03650
2974.12526,0.03518
2972.19652,0.03407
2970.26777,0.03296
2968.33903,0.03192
2966.41028,0.03117
2964.48154,0.03056
2962.55279,0.03003
2960.62405,0.02975
2958.69530,0.02969
2956.76656,0.02994
2954.83781,0.03047
2952.90907,0.03085
2950.98032,0.03085
2949.05157,0.03066
2947.12283,0.03046
2945.19408,0.03029
2943.26534,0.03011
2941.33659,0.02977
2939.40785,0.02928
2937.47910,0.02889
2935.55036,0.02866
2933.62161,0.02849
2931.69287,0.02830
2929.76412,0.02810
2927.83538,0.02803
2925.90663,0.02812
2923.97789,0.02820
2922.04914,0.02833
2920.12040,0.02888
2918.19165,0.02967
2916.26290,0.03029
2914.33416,0.03082
2912.40541,0.03136
2910.47667,0.03174
2908.54792,0.03210
2906.61918,0.03264
2904.69043,0.03328
2902.76169,0.03380
2900.83294,0.03430
2898.90420,0.03488
2896.97545,0.03543
2895.04671,0.03582
2893.11796,0.03601
2891.18922,0.03621
2889.26047,0.03666
2887.33172,0.03712
2885.40298,0.03744
2883.47423,0.03770
2881.54549,0.03781
2879.61674,0.03774
2877.68800,0.03768
2875.75925,0.03768
2873.83051,0.03764
2871.90176,0.03757
2869.97302,0.03750
2868.04427,0.03733
2866.11553,0.03687
2864.18678,0.03612
2862.25804,0.03533
2860.32929,0.03471
2858.40055,0.03420
2856.47180,0.03384
2854.54305,0.03381
2852.61431,0.03391
2850.68556,0.03410
2848.75682,0.03498
2846.82807,0.03688
2844.89933,0.03935
2842.97058,0.04198
2841.04184,0.04471
2839.11309,0.04753
2837.18435,0.05044
2835.25560,0.05349
2833.32686,0.05682
2831.39811,0.06031
2829.46937,0.06362
2827.54062,0.06676
2825.61188,0.06986
2823.68313,0.07276
2821.75438,0.07537
2819.82564,0.07769
2817.89689,0.07981
2815.96815,0.08188
2814.03940,0.08393
2812.11066,0.08584
2810.18191,0.08769
2808.25317,0.08960
2806.32442,0.09150
2804.39568,0.09327
2802.46693,0.09499
2800.53819,0.09694
2798.60944,0.09918
2796.68070,0.10150
2794.75195,0.10367
2792.82320,0.10559
2790.89446,0.10737
2788.96571,0.10916
2787.03697,0.11091
2785.10822,0.11247
2783.17948,0.11379
2781.25073,0.11507
2779.32199,0.11642
2777.39324,0.11777
2775.46450,0.11905
2773.53575,0.12002
2771.60701,0.12072
2769.67826,0.12141
2767.74952,0.12229
2765.82077,0.12323
2763.89203,0.12399
2761.96328,0.12465
2760.03453,0.12537
2758.10579,0.12609
2756.17704,0.12685
2754.24830,0.12759
2752.31955,0.12818
2750.39081,0.12864
2748.46206,0.12896
2746.53332,0.12905
2744.60457,0.12901
2742.67583,0.12886
2740.74708,0.12832
2738.81834,0.12723
2736.88959,0.12568
2734.96085,0.12356
2733.03210,0.12058
2731.10336,0.11690
2729.17461,0.11335
2727.24586,0.11121
2725.31712,0.11171
2723.38837,0.11503
2721.45963,0.12009
2719.53088,0.12537
2717.60214,0.12991
2715.67339,0.13339
2713.74465,0.13579
2711.81590,0.13739
2709.88716,0.13848
2707.95841,0.13929
2706.02967,0.14004
2704.10092,0.14072
2702.17218,0.14120
2700.24343,0.14144
2698.31468,0.14144
2696.38594,0.14131
2694.45719,0.14114
2692.52845,0.14100
2690.59970,0.14096
2688.67096,0.14101
2686.74221,0.14114
2684.81347,0.14138
2682.88472,0.14176
2680.95598,0.14219
2679.02723,0.14249
2677.09849,0.14272
2675.16974,0.14300
2673.24100,0.14323
2671.31225,0.14329
2669.38351,0.14314
2667.45476,0.14298
2665.52601,0.14304
2663.59727,0.14302
2661.66852,0.14264
2659.73978,0.14215
2657.81103,0.14187
2655.88229,0.14172
2653.95354,0.14127
2652.02480,0.14036
2650.09605,0.13934
2648.16731,0.13844
2646.23856,0.13752
2644.30982,0.13643
2642.38107,0.13518
2640.45233,0.13373
2638.52358,0.13210
2636.59484,0.13030
2634.66609,0.12833
2632.73734,0.12636
2630.80860,0.12455
2628.87985,0.12295
2626.95111,0.12162
2625.02236,0.12081
2623.09362,0.12072
2621.16487,0.12114
2619.23613,0.12146
2617.30738,0.12127
2615.37864,0.12079
2613.44989,0.12037
2611.52115,0.11995
2609.59240,0.11936
2607.66366,0.11866
2605.73491,0.11791
2603.80616,0.11724
2601.87742,0.11670
2599.94867,0.11608
2598.01993,0.11519
2596.09118,0.11396
2594.16244,0.11254
2592.23369,0.11131
2590.30495,0.11035
2588.37620,0.10946
2586.44746,0.10865
2584.51871,0.10811
2582.58997,0.10787
2580.66122,0.10773
2578.73248,0.10751
2576.80373,0.10719
2574.87499,0.10688
2572.94624,0.10678
2571.01749,0.10688
2569.08875,0.10687
2567.16000,0.10643
2565.23126,0.10551
2563.30251,0.10429
2561.37377,0.10302
2559.44502,0.10189
2557.51628,0.10095
2555.58753,0.09998
2553.65879,0.09888
2551.73004,0.09782
2549.80130,0.09693
2547.87255,0.09612
2545.94381,0.09528
2544.01506,0.09420
2542.08631,0.09273
2540.15757,0.09090
2538.22882,0.08883
2536.30008,0.08672
2534.37133,0.08465
2532.44259,0.08263
2530.51384,0.08074
2528.58510,0.07903
2526.65635,0.07744
2524.72761,0.07606
2522.79886,0.07509
2520.87012,0.07462
2518.94137,0.07448
2517.01263,0.07472
2515.08388,0.07560
2513.15514,0.07695
2511.22639,0.07852
2509.29764,0.08056
2507.36890,0.08325
2505.44015,0.08631
2503.51141,0.08945
2501.58266,0.09270
2499.65392,0.09612
2497.72517,0.09975
2495.79643,0.10354
2493.86768,0.10737
2491.93894,0.11127
2490.01019,0.11535
2488.08145,0.11970
2486.15270,0.12437
2484.22396,0.12929
2482.29521,0.13431
2480.36647,0.13929
2478.43772,0.14424
2476.50897,0.14913
2474.58023,0.15366
2472.65148,0.15769
2470.72274,0.16138
2468.79399,0.16476
2466.86525,0.16778
2464.93650,0.17057
2463.00776,0.17319
2461.07901,0.17546
2459.15027,0.17747
2457.22152,0.17953
2455.29278,0.18151
2453.36403,0.18329
2451.43529,0.18507
2449.50654,0.18694
2447.57779,0.18877
2445.64905,0.19042
2443.72030,0.19183
2441.79156,0.19315
2439.86281,0.19448
2437.93407,0.19584
2436.00532,0.19725
2434.07658,0.19855
2432.14783,0.19972
2430.21909,0.20090
2428.29034,0.20204
2426.36160,0.20307
2424.43285,0.20403
2422.50411,0.20492
2420.57536,0.20580
2418.64662,0.20659
2416.71787,0.20722
2414.78912,0.20787
2412.86038,0.20860
2410.93163,0.20932
2409.00289,0.21003
2407.07414,0.21078
2405.14540,0.21169
2403.21665,0.21278
2401.28791,0.21387
2399.35916,0.21498
2397.43042,0.21631
2395.50167,0.21775
2393.57293,0.21897
2391.64418,0.21990
2389.71544,0.22083
2387.78669,0.22187
2385.85795,0.22283
2383.92920,0.22359
2382.00045,0.22426
2380.07171,0.22504
2378.14296,0.22598
2376.21422,0.22690
2374.28547,0.22768
2372.35673,0.22833
2370.42798,0.22879
2368.49924,0.22918
2366.57049,0.22965
2364.64175,0.23012
2362.71300,0.23050
2360.78426,0.23085
2358.85551,0.23122
2356.92677,0.23159
2354.99802,0.23202
2353.06927,0.23258
2351.14053,0.23310
2349.21178,0.23349
2347.28304,0.23376
2345.35429,0.23370
2343.42555,0.23336
2341.49680,0.23321
2339.56806,0.23343
2337.63931,0.23377
2335.71057,0.23404
2333.78182,0.23429
2331.85308,0.23460
2329.92433,0.23499
2327.99559,0.23535
2326.06684,0.23551
2324.13810,0.23555
2322.20935,0.23562
2320.28060,0.23573
2318.35186,0.23588
2316.42311,0.23610
2314.49437,0.23643
2312.56562,0.23695
2310.63688,0.23763
2308.70813,0.23839
2306.77939,0.23915
2304.85064,0.23982
2302.92190,0.24047
2300.99315,0.24129
2299.06441,0.24208
2297.13566,0.24250
2295.20692,0.24259
2293.27817,0.24249
2291.34943,0.24224
2289.42068,0.24199
2287.49193,0.24178
2285.56319,0.24154
2283.63444,0.24121
2281.70570,0.24083
2279.77695,0.24051
2277.84821,0.24018
2275.91946,0.23973
2273.99072,0.23920
2272.06197,0.23853
2270.13323,0.23772
2268.20448,0.23699
2266.27574,0.23625
2264.34699,0.23519
2262.41825,0.23373
2260.48950,0.23201
2258.56075,0.23023
2256.63201,0.22816
2254.70326,0.22523
2252.77452,0.22132
2250.84577,0.21680
2248.91703,0.21184
2246.98828,0.20665
2245.05954,0.20210
2243.13079,0.19945
2241.20205,0.19953
2239.27330,0.20241
2237.34456,0.20763
2235.41581,0.21426
2233.48707,0.22087
2231.55832,0.22613
2229.62958,0.22951
2227.70083,0.23122
2225.77208,0.23189
2223.84334,0.23214
2221.91459,0.23220
2219.98585,0.23199
2218.05710,0.23154
2216.12836,0.23114
2214.19961,0.23097
2212.27087,0.23082
2210.34212,0.23050
2208.41338,0.23020
2206.48463,0.23005
2204.55589,0.22990
2202.62714,0.22950
2200.69840,0.22887
2198.76965,0.22827
2196.84090,0.22777
2194.91216,0.22722
2192.98341,0.22659
2191.05467,0.22595
2189.12592,0.22530
2187.19718,0.22451
2185.26843,0.22368
2183.33969,0.22293
2181.41094,0.22217
2179.48220,0.22130
2177.55345,0.22032
2175.62471,0.21924
2173.69596,0.21806
2171.76722,0.21688
2169.83847,0.21582
2167.90973,0.21486
2165.98098,0.21388
2164.05223,0.21293
2162.12349,0.21208
2160.19474,0.21110
2158.26600,0.20987
2156.33725,0.20858
2154.40851,0.20739
2152.47976,0.20633
2150.55102,0.20546
2148.62227,0.20483
2146.69353,0.20455
2144.76478,0.20461
2142.83604,0.20512
2140.90729,0.20614
2138.97855,0.20746
2137.04980,0.20882
2135.12106,0.21031
2133.19231,0.21201
2131.26356,0.21377
2129.33482,0.21560
2127.40607,0.21768
2125.47733,0.21986
2123.54858,0.22190
2121.61984,0.22384
2119.69109,0.22572
2117.76235,0.22742
2115.83360,0.22885
2113.90486,0.22991
2111.97611,0.23060
2110.04737,0.23114
2108.11862,0.23171
2106.18988,0.23217
2104.26113,0.23245
2102.33238,0.23275
2100.40364,0.23303
2098.47489,0.23307
2096.54615,0.23290
2094.61740,0.23270
2092.68866,0.23256
2090.75991,0.23249
2088.83117,0.23241
2086.90242,0.23215
2084.97368,0.23177
2083.04493,0.23140
2081.11619,0.23078
2079.18744,0.23000
2077.25870,0.22948
2075.32995,0.22912
2073.40121,0.22869
2071.47246,0.22820
2069.54371,0.22777
2067.61497,0.22753
2065.68622,0.22736
2063.75748,0.22708
2061.82873,0.22668
2059.89999,0.22624
2057.97124,0.22580
2056.04250,0.22535
2054.11375,0.22486
2052.18501,0.22440
2050.25626,0.22394
2048.32752,0.22338
2046.39877,0.22276
2044.47003,0.22219
2042.54128,0.22185
2040.61254,0.22172
2038.68379,0.22167
2036.75504,0.22177
2034.82630,0.22206
2032.89755,0.22240
2030.96881,0.22275
2029.04006,0.22325
2027.11132,0.22400
2025.18257,0.22483
2023.25383,0.22559
2021.32508,0.22631
2019.39634,0.22710
2017.46759,0.22798
2015.53885,0.22882
2013.61010,0.22951
2011.68136,0.23013
2009.75261,0.23080
2007.82386,0.23155
2005.89512,0.23232
2003.96637,0.23301
2002.03763,0.23357
2000.10888,0.23410
1998.18014,0.23463
1996.25139,0.23504
1994.32265,0.23508
1992.39390,0.23476
1990.46516,0.23439
1988.53641,0.23415
1986.60767,0.23390
1984.67892,0.23346
1982.75018,0.23266
1980.82143,0.23150
1978.89269,0.23032
1976.96394,0.22937
1975.03519,0.22860
1973.10645,0.22807
1971.17770,0.22788
1969.24896,0.22767
1967.32021,0.22665
1965.39147,0.22451
1963.46272,0.22205
1961.53398,0.22064
1959.60523,0.22082
1957.67649,0.22202
1955.74774,0.22332
1953.81900,0.22417
1951.89025,0.22451
1949.96151,0.22446
1948.03276,0.22411
1946.10402,0.22359
1944.17527,0.22302
1942.24652,0.22250
1940.31778,0.22238
1938.38903,0.22282
1936.46029,0.22356
1934.53154,0.22434
1932.60280,0.22509
1930.67405,0.22562
1928.74531,0.22577
1926.81656,0.22575
1924.88782,0.22570
1922.95907,0.22540
1921.03033,0.22480
1919.10158,0.22403
1917.17284,0.22320
1915.24409,0.22250
1913.31534,0.22188
1911.38660,0.22105
1909.45785,0.21984
1907.52911,0.21834
1905.60036,0.21678
1903.67162,0.21533
1901.74287,0.21392
1899.81413,0.21256
1897.88538,0.21125
1895.95664,0.20980
1894.02789,0.20824
1892.09915,0.20665
1890.17040,0.20505
1888.24166,0.20357
1886.31291,0.20211
1884.38417,0.20053
1882.45542,0.19903
1880.52667,0.19780
1878.59793,0.19672
1876.66918,0.19553
1874.74044,0.19423
1872.81169,0.19300
1870.88295,0.19170
1868.95420,0.19007
1867.02546,0.18846
1865.09671,0.18724
1863.16797,0.18634
1861.23922,0.18550
1859.31048,0.18437
1857.38173,0.18289
1855.45299,0.18124
1853.52424,0.17951
1851.59549,0.17760
1849.66675,0.17544
1847.73800,0.17298
1845.80926,0.17001
1843.88051,0.16630
1841.95177,0.16221
1840.02302,0.15794
1838.09428,0.15316
1836.16553,0.14782
1834.23679,0.14211
1832.30804,0.13588
1830.37930,0.12900
1828.45055,0.12235
1826.52181,0.11681
1824.59306,0.11214
1822.66432,0.10829
1820.73557,0.10539
1818.80682,0.10311
1816.87808,0.10104
1814.94933,0.09876
1813.02059,0.09599
1811.09184,0.09251
1809.16310,0.08805
1807.23435,0.08259
1805.30561,0.07655
1803.37686,0.07069
1801.44812,0.06577
1799.51937,0.06253
1797.59063,0.06109
1795.66188,0.06094
1793.73314,0.06210
1791.80439,0.06525
1789.87565,0.07021
1787.94690,0.07578
1786.01815,0.08118
1784.08941,0.08600
1782.16066,0.08990
1780.23192,0.09281
1778.30317,0.09474
1776.37443,0.09572
1774.44568,0.09580
1772.51694,0.09479
1770.58819,0.09289
1768.65945,0.09076
1766.73070,0.08849
1764.80196,0.08599
1762.87321,0.08298
1760.94447,0.07924
1759.01572,0.07515
1757.08697,0.07067
1755.15823,0.06604
1753.22948,0.06163
1751.30074,0.05711
1749.37199,0.05269
1747.44325,0.04906
1745.51450,0.04623
1743.58576,0.04405
1741.65701,0.04240
1739.72827,0.04118
1737.79952,0.04052
1735.87078,0.04027
1733.94203,0.04012
1732.01329,0.04010
1730.08454,0.04014
1728.15580,0.03999
1726.22705,0.03975
1724.29830,0.03967
1722.36956,0.03986
1720.44081,0.04031
1718.51207,0.04094
1716.58332,0.04175
1714.65458,0.04272
1712.72583,0.04371
1710.79709,0.04471
1708.86834,0.04577
1706.93960,0.04689
1705.01085,0.04790
1703.08211,0.04874
1701.15336,0.04939
1699.22462,0.04958
1697.29587,0.04946
1695.36713,0.04938
1693.43838,0.04920
1691.50963,0.04867
1689.58089,0.04784
1687.65214,0.04702
1685.72340,0.04619
1683.79465,0.04521
1681.86591,0.04446
1679.93716,0.04387
1678.00842,0.04313
1676.07967,0.04221
1674.15093,0.04118
1672.22218,0.04026
1670.29344,0.03937
1668.36469,0.03840
1666.43595,0.03762
1664.50720,0.03712
1662.57845,0.03676
1660.64971,0.03667
1658.72096,0.03698
1656.79222,0.03753
1654.86347,0.03801
1652.93473,0.03825
1651.00598,0.03842
1649.07724,0.03865
1647.14849,0.03880
1645.21975,0.03883
1643.29100,0.03891
1641.36226,0.03913
1639.43351,0.03955
1637.50477,0.04010
1635.57602,0.04051
1633.64728,0.04073
1631.71853,0.04097
1629.78978,0.04123
1627.86104,0.04143
1625.93229,0.04169
1624.00355,0.04212
1622.07480,0.04272
1620.14606,0.04325
1618.21731,0.04369
1616.28857,0.04421
1614.35982,0.04475
1612.43108,0.04513
1610.50233,0.04528
1608.57359,0.04532
1606.64484,0.04554
1604.71610,0.04594
1602.78735,0.04623
1600.85861,0.04640
1598.92986,0.04668
1597.00111,0.04709
1595.07237,0.04760
1593.14362,0.04831
1591.21488,0.04912
1589.28613,0.04980
1587.35739,0.05027
1585.42864,0.05072
1583.49990,0.05132
1581.57115,0.05204
1579.64241,0.05294
1577.71366,0.05414
1575.78492,0.05545
1573.85617,0.05651
1571.92743,0.05744
1569.99868,0.05833
1568.06993,0.05918
1566.14119,0.05986
1564.21244,0.06035
1562.28370,0.06072
1560.35495,0.06096
1558.42621,0.06083
1556.49746,0.06062
1554.56872,0.06057
1552.63997,0.06045
1550.71123,0.06012
1548.78248,0.05965
1546.85374,0.05924
1544.92499,0.05887
1542.99625,0.05847
1541.06750,0.05822
1539.13876,0.05830
1537.21001,0.05876
1535.28126,0.05952
1533.35252,0.06023
1531.42377,0.06057
1529.49503,0.06066
1527.56628,0.06058
1525.63754,0.06036
1523.70879,0.06011
1521.78005,0.05977
1519.85130,0.05919
1517.92256,0.05845
1515.99381,0.05770
1514.06507,0.05706
1512.13632,0.05650
1510.20758,0.05601
1508.27883,0.05548
1506.35008,0.05450
1504.42134,0.05327
1502.49259,0.05233
1500.56385,0.05146
1498.63510,0.05026
1496.70636,0.04889
1494.77761,0.04806
1492.84887,0.04771
1490.92012,0.04726
1488.99138,0.04657
1487.06263,0.04579
1485.13389,0.04486
1483.20514,0.04378
1481.27640,0.04277
1479.34765,0.04195
1477.41891,0.04121
1475.49016,0.04027
1473.56141,0.03896
1471.63267,0.03757
1469.70392,0.03670
1467.77518,0.03623
1465.84643,0.03566
1463.91769,0.03498
1461.98894,0.03465
1460.06020,0.03465
1458.13145,0.03451
1456.20271,0.03415
1454.27396,0.03395
1452.34522,0.03386
1450.41647,0.03372
1448.48773,0.03362
1446.55898,0.03366
1444.63024,0.03389
1442.70149,0.03422
1440.77274,0.03452
1438.84400,0.03475
1436.91525,0.03489
1434.98651,0.03506
1433.05776,0.03546
1431.12902,0.03595
1429.20027,0.03629
1427.27153,0.03661
1425.34278,0.03710
1423.41404,0.03757
1421.48529,0.03787
1419.55655,0.03804
1417.62780,0.03809
1415.69906,0.03810
1413.77031,0.03820
1411.84156,0.03847
1409.91282,0.03880
1407.98407,0.03898
1406.05533,0.03891
1404.12658,0.03864
1402.19784,0.03842
1400.26909,0.03846
1398.34035,0.03863
1396.41160,0.03875
1394.48286,0.03888
1392.55411,0.03906
1390.62537,0.03934
1388.69662,0.03962
1386.76788,0.03960
1384.83913,0.03928
1382.91039,0.03878
1380.98164,0.03816
1379.05289,0.03765
1377.12415,0.03753
1375.19540,0.03799
1373.26666,0.03905
1371.33791,0.04036
1369.40917,0.04152
1367.48042,0.04240
1365.55168,0.04297
1363.62293,0.04333
1361.69419,0.04375
1359.76544,0.04432
1357.83670,0.04495
1355.90795,0.04565
1353.97921,0.04659
1352.05046,0.04769
1350.12172,0.04858
1348.19297,0.04916
1346.26422,0.04964
1344.33548,0.05015
1342.40673,0.05063
1340.47799,0.05104
1338.54924,0.05132
1336.62050,0.05145
1334.69175,0.05150
1332.76301,0.05151
1330.83426,0.05150
1328.90552,0.05148
1326.97677,0.05136
1325.04803,0.05113
1323.11928,0.05093
1321.19054,0.05087
1319.26179,0.05085
1317.33304,0.05073
1315.40430,0.05060
1313.47555,0.05062
1311.54681,0.05075
1309.61806,0.05080
1307.68932,0.05079
1305.76057,0.05088
1303.83183,0.05113
1301.90308,0.05147
1299.97434,0.05194
1298.04559,0.05256
1296.11685,0.05307
1294.18810,0.05328
1292.25936,0.05320
1290.33061,0.05293
1288.40187,0.05264
1286.47312,0.05248
1284.54437,0.05244
1282.61563,0.05252
1280.68688,0.05264
1278.75814,0.05246
1276.82939,0.05188
1274.90065,0.05126
1272.97190,0.05084
1271.04316,0.05044
1269.11441,0.04983
1267.18567,0.04896
1265.25692,0.04798
1263.32818,0.04717
1261.39943,0.04673
1259.47069,0.04657
1257.54194,0.04659
1255.61320,0.04662
1253.68445,0.04653
1251.75570,0.04627
1249.82696,0.04577
1247.89821,0.04518
1245.96947,0.04471
1244.04072,0.04439
1242.11198,0.04425
1240.18323,0.04423
1238.25449,0.04405
1236.32574,0.04372
1234.39700,0.04351
1232.46825,0.04355
1230.53951,0.04363
1228.61076,0.04364
1226.68202,0.04358
1224.75327,0.04355
1222.82452,0.04363
1220.89578,0.04370
1218.96703,0.04368
1217.03829,0.04349
1215.10954,0.04311
1213.18080,0.04267
1211.25205,0.04222
1209.32331,0.04176
1207.39456,0.04136
1205.46582,0.04105
1203.53707,0.04079
1201.60833,0.04066
1199.67958,0.04080
1197.75084,0.04103
1195.82209,0.04115
1193.89335,0.04116
1191.96460,0.04111
1190.03585,0.04099
1188.10711,0.04082
1186.17836,0.04063
1184.24962,0.04042
1182.32087,0.04008
1180.39213,0.03954
1178.46338,0.03901
1176.53464,0.03856
1174.60589,0.03808
1172.67715,0.03762
1170.74840,0.03728
1168.81966,0.03699
1166.89091,0.03672
1164.96217,0.03657
1163.03342,0.03649
1161.10467,0.03637
1159.17593,0.03642
1157.24718,0.03671
1155.31844,0.03707
1153.38969,0.03757
1151.46095,0.03807
1149.53220,0.03817
1147.60346,0.03798
1145.67471,0.03786
1143.74597,0.03784
1141.81722,0.03774
1139.88848,0.03749
1137.95973,0.03730
1136.03099,0.03735
1134.10224,0.03748
1132.17350,0.03750
1130.24475,0.03744
1128.31600,0.03724
1126.38726,0.03696
1124.45851,0.03705
1122.52977,0.03774
1120.60102,0.03872
1118.67228,0.03940
1116.74353,0.03970
1114.81479,0.03999
1112.88604,0.04027
1110.95730,0.04032
1109.02855,0.04016
1107.09981,0.03989
1105.17106,0.03950
1103.24232,0.03900
1101.31357,0.03841
1099.38483,0.03759
1097.45608,0.03687
1095.52733,0.03667
1093.59859,0.03678
1091.66984,0.03694
1089.74110,0.03707
1087.81235,0.03719
1085.88361,0.03740
1083.95486,0.03778
1082.02612,0.03840
1080.09737,0.03907
1078.16863,0.03943
1076.23988,0.03967
1074.31114,0.04014
1072.38239,0.04075
1070.45365,0.04122
1068.52490,0.04157
1066.59615,0.04197
1064.66741,0.04231
1062.73866,0.04245
1060.80992,0.04255
1058.88117,0.04265
1056.95243,0.04244
1055.02368,0.04184
1053.09494,0.04125
1051.16619,0.04092
1049.23745,0.04068
1047.30870,0.04043
1045.37996,0.04026
1043.45121,0.04015
1041.52247,0.04012
1039.59372,0.04037
1037.66498,0.04082
1035.73623,0.04123
1033.80748,0.04147
1031.87874,0.04146
1029.94999,0.04136
1028.02125,0.04139
1026.09250,0.04153
1024.16376,0.04163
1022.23501,0.04179
1020.30627,0.04215
1018.37752,0.04253
1016.44878,0.04287
1014.52003,0.04331
1012.59129,0.04381
1010.66254,0.04424
1008.73380,0.04459
1006.80505,0.04503
1004.87631,0.04545
1002.94756,0.04552
1001.01881,0.04542
999.09007,0.04559
997.16132,0.04592
995.23258,0.04609
993.30383,0.04610
991.37509,0.04632
989.44634,0.04696
987.51760,0.04776
985.58885,0.04847
983.66011,0.04910
981.73136,0.04958
979.80262,0.04961
977.87387,0.04917
975.94513,0.04867
974.01638,0.04821
972.08763,0.04757
970.15889,0.04697
968.23014,0.04688
966.30140,0.04746
964.37265,0.04873
962.44391,0.05079
960.51516,0.05342
958.58642,0.05601
956.65767,0.05815
954.72893,0.05974
952.80018,0.06082
950.87144,0.06156
948.94269,0.06192
947.01395,0.06188
945.08520,0.06170
943.15646,0.06161
941.22771,0.06172
939.29896,0.06179
937.37022,0.06162
935.44147,0.06138
933.51273,0.06118
931.58398,0.06125
929.65524,0.06189
927.72649,0.06277
925.79775,0.06336
923.86900,0.06365
921.94026,0.06379
920.01151,0.06368
918.08277,0.06348
916.15402,0.06342
914.22528,0.06332
912.29653,0.06327
910.36779,0.06378
908.43904,0.06499
906.51029,0.06678
904.58155,0.06868
902.65280,0.07015
900.72406,0.07099
898.79531,0.07106
896.86657,0.07039
894.93782,0.06925
893.00908,0.06753
891.08033,0.06494
889.15159,0.06114
887.22284,0.05579
885.29410,0.04986
883.36535,0.04520
881.43661,0.04228
879.50786,0.04026
877.57911,0.03866
875.65037,0.03783
873.72162,0.03823
871.79288,0.04020
869.86413,0.04380
867.93539,0.04819
866.00664,0.05207
864.07790,0.05474
862.14915,0.05637
860.22041,0.05729
858.29166,0.05739
856.36292,0.05627
854.43417,0.05418
852.50543,0.05188
850.57668,0.04952
848.64794,0.04803
846.71919,0.04873
844.79044,0.05023
842.86170,0.05064
840.93295,0.05030
839.00421,0.04997
837.07546,0.04984
835.14672,0.04990
833.21797,0.04995
831.28923,0.05001
829.36048,0.05023
827.43174,0.05071
825.50299,0.05154
823.57425,0.05263
821.64550,0.05373
819.71676,0.05479
817.78801,0.05574
815.85926,0.05651
813.93052,0.05732
812.00177,0.05810
810.07303,0.05839
808.14428,0.05835
806.21554,0.05838
804.28679,0.05863
802.35805,0.05913
800.42930,0.05974
798.50056,0.06013
796.57181,0.06033
794.64307,0.06107
792.71432,0.06257
790.78558,0.06383
788.85683,0.06420
786.92809,0.06415
784.99934,0.06413
783.07059,0.06425
781.14185,0.06421
779.21310,0.06357
777.28436,0.06242
775.35561,0.06117
773.42687,0.05982
771.49812,0.05823
769.56938,0.05660
767.64063,0.05533
765.71189,0.05424
763.78314,0.05305
761.85440,0.05195
759.92565,0.05116
757.99691,0.05079
756.06816,0.05085
754.13942,0.05125
752.21067,0.05187
750.28192,0.05242
748.35318,0.05234
746.42443,0.05166
744.49569,0.05105
742.56694,0.05063
740.63820,0.04988
738.70945,0.04849
736.78071,0.04670
734.85196,0.04473
732.92322,0.04235
730.99447,0.04014
729.06573,0.03928
727.13698,0.03963
725.20824,0.04000
723.27949,0.03989
721.35074,0.03899
719.42200,0.03710
717.49325,0.03512
715.56451,0.03379
713.63576,0.03344
711.70702,0.03471
709.77827,0.03722
707.84953,0.03961
705.92078,0.04095
703.99204,0.04139
702.06329,0.04177
700.13455,0.04276
698.20580,0.04478
696.27706,0.04774
694.34831,0.05074
692.41957,0.05302
690.49082,0.05458
688.56207,0.05537
686.63333,0.05555
684.70458,0.05584
682.77584,0.05618
680.84709,0.05592
678.91835,0.05521
676.98960,0.05458
675.06086,0.05391
673.13211,0.05315
671.20337,0.05273
669.27462,0.05260
667.34588,0.05228
665.41713,0.05183
663.48839,0.05140
661.55964,0.05065
659.63090,0.04943
657.70215,0.04817
655.77340,0.04766
653.84466,0.04794
651.91591,0.04808
649.98717,0.04795
648.05842,0.04801
646.12968,0.04849
644.20093,0.04916
642.27219,0.04924
640.34344,0.04856
638.41470,0.04818
636.48595,0.04852
634.55721,0.04887
632.62846,0.04847
630.69972,0.04694
628.77097,0.04509
626.84222,0.04418
624.91348,0.04429
622.98473,0.04463
621.05599,0.04438
619.12724,0.04339
617.19850,0.04214
615.26975,0.04100
613.34101,0.04002
611.41226,0.03958
609.48352,0.03992
607.55477,0.04022
605.62603,0.04007
603.69728,0.03986
601.76854,0.03923
599.83979,0.03829
