7497.03301,0.51141
7495.10426,0.51307
7493.17552,0.50911
7491.24677,0.50706
7489.31803,0.50856
7487.38928,0.50830
7485.46054,0.50581
7483.53179,0.50422
7481.60305,0.50244
7479.67430,0.50017
7477.74556,0.50161
7475.81681,0.50605
7473.88807,0.50812
7471.95932,0.50683
7470.03057,0.50456
7468.10183,0.50479
7466.17308,0.50731
7464.24434,0.50688
7462.31559,0.50399
7460.38685,0.50307
7458.45810,0.50295
7456.52936,0.50283
7454.60061,0.50451
7452.67187,0.50648
7450.74312,0.50582
7448.81438,0.50222
7446.88563,0.49667
7444.95689,0.49151
7443.02814,0.48813
7441.09940,0.48637
7439.17065,0.49007
7437.24190,0.49784
7435.31316,0.49985
7433.38441,0.49508
7431.45567,0.49040
7429.52692,0.48951
7427.59818,0.49231
7425.66943,0.49557
7423.74069,0.49708
7421.81194,0.49767
7419.88320,0.49824
7417.95445,0.50031
7416.02571,0.50349
7414.09696,0.50319
7412.16822,0.49959
7410.23947,0.49801
7408.31073,0.49875
7406.38198,0.49979
7404.45323,0.49949
7402.52449,0.49818
7400.59574,0.49932
7398.66700,0.50024
7396.73825,0.49707
7394.80951,0.49513
7392.88076,0.49729
7390.95202,0.49747
7389.02327,0.49447
7387.09453,0.49416
7385.16578,0.49667
7383.23704,0.49803
7381.30829,0.49829
7379.37955,0.49851
7377.45080,0.49702
7375.52205,0.49393
7373.59331,0.49478
7371.66456,0.50055
7369.73582,0.50451
7367.80707,0.50458
7365.87833,0.50176
7363.94958,0.49529
7362.02084,0.48914
7360.09209,0.48748
7358.16335,0.48784
7356.23460,0.48752
7354.30586,0.48927
7352.37711,0.49463
7350.44837,0.49843
7348.51962,0.49879
7346.59088,0.49922
7344.66213,0.49928
7342.73338,0.49813
7340.80464,0.49732
7338.87589,0.49645
7336.94715,0.49421
7335.01840,0.49195
7333.08966,0.49350
7331.16091,0.49827
7329.23217,0.50045
7327.30342,0.49737
7325.37468,0.49164
7323.44593,0.48816
7321.51719,0.48994
7319.58844,0.49346
7317.65970,0.49393
7315.73095,0.49375
7313.80221,0.49438
7311.87346,0.49142
7309.94471,0.48762
7308.01597,0.48794
7306.08722,0.48885
7304.15848,0.48899
7302.22973,0.48960
7300.30099,0.48849
7298.37224,0.48601
7296.44350,0.48431
7294.51475,0.48223
7292.58601,0.47918
7290.65726,0.47672
7288.72852,0.47409
7286.79977,0.47128
7284.87103,0.47157
7282.94228,0.47676
7281.01353,0.48304
7279.08479,0.48477
7277.15604,0.48280
7275.22730,0.48176
7273.29855,0.48166
7271.36981,0.48184
7269.44106,0.48419
7267.51232,0.48681
7265.58357,0.48596
7263.65483,0.48315
7261.72608,0.48194
7259.79734,0.48273
7257.86859,0.48273
7255.93985,0.47973
7254.01110,0.47543
7252.08236,0.47278
7250.15361,0.47387
7248.22486,0.47775
7246.29612,0.48022
7244.36737,0.48035
7242.43863,0.48055
7240.50988,0.48125
7238.58114,0.48220
7236.65239,0.48326
7234.72365,0.48165
7232.79490,0.47596
7230.86616,0.47271
7228.93741,0.47703
7227.00867,0.48246
7225.07992,0.48236
7223.15118,0.47927
7221.22243,0.47703
7219.29369,0.47639
7217.36494,0.47698
7215.43619,0.47750
7213.50745,0.47643
7211.57870,0.47330
7209.64996,0.46986
7207.72121,0.46766
7205.79247,0.46736
7203.86372,0.47042
7201.93498,0.47436
7200.00623,0.47529
7198.07749,0.47473
7196.14874,0.47421
7194.22000,0.47389
7192.29125,0.47472
7190.36251,0.47498
7188.43376,0.47366
7186.50501,0.47271
7184.57627,0.47200
7182.64752,0.47020
7180.71878,0.46805
7178.79003,0.46640
7176.86129,0.46592
7174.93254,0.46809
7173.00380,0.47183
7171.07505,0.47376
7169.14631,0.47366
7167.21756,0.47352
7165.28882,0.47310
7163.36007,0.47142
7161.43133,0.46977
7159.50258,0.46974
7157.57384,0.47091
7155.64509,0.47137
7153.71634,0.46997
7151.78760,0.46896
7149.85885,0.47041
7147.93011,0.47221
7146.00136,0.47283
7144.07262,0.47371
7142.14387,0.47419
7140.21513,0.47269
7138.28638,0.47162
7136.35764,0.47214
7134.42889,0.47334
7132.50015,0.47633
7130.57140,0.47912
7128.64266,0.47830
7126.71391,0.47533
7124.78516,0.47389
7122.85642,0.47473
7120.92767,0.47454
7118.99893,0.47124
7117.07018,0.46691
7115.14144,0.46500
7113.21269,0.46717
7111.28395,0.47009
7109.35520,0.46948
7107.42646,0.46726
7105.49771,0.46733
7103.56897,0.46910
7101.64022,0.47039
7099.71148,0.47193
7097.78273,0.47456
7095.85399,0.47566
7093.92524,0.47391
7091.99649,0.47259
7090.06775,0.47260
7088.13900,0.47166
7086.21026,0.47111
7084.28151,0.47172
7082.35277,0.46969
7080.42402,0.46566
7078.49528,0.46488
7076.56653,0.46686
7074.63779,0.46764
7072.70904,0.46632
7070.78030,0.46364
7068.85155,0.46149
7066.92281,0.46290
7064.99406,0.46653
7063.06532,0.46667
7061.13657,0.46233
7059.20782,0.45909
7057.27908,0.46125
7055.35033,0.46640
7053.42159,0.46904
7051.49284,0.46741
7049.56410,0.46418
7047.63535,0.46297
7045.70661,0.46443
7043.77786,0.46684
7041.84912,0.46982
7039.92037,0.47173
7037.99163,0.47046
7036.06288,0.46783
7034.13414,0.46565
7032.20539,0.46491
7030.27664,0.46629
7028.34790,0.46661
7026.41915,0.46502
7024.49041,0.46429
7022.56166,0.46369
7020.63292,0.46358
7018.70417,0.46534
7016.77543,0.46673
7014.84668,0.46839
7012.91794,0.47212
7010.98919,0.47291
7009.06045,0.46793
7007.13170,0.46376
7005.20296,0.46479
7003.27421,0.46831
7001.34547,0.47110
6999.41672,0.47177
6997.48797,0.47102
6995.55923,0.47030
6993.63048,0.47068
6991.70174,0.47272
6989.77299,0.47494
6987.84425,0.47528
6985.91550,0.47366
6983.98676,0.47116
6982.05801,0.46929
6980.12927,0.46913
6978.20052,0.47007
6976.27178,0.47127
6974.34303,0.47178
6972.41429,0.47152
6970.48554,0.47201
6968.55680,0.47140
6966.62805,0.46894
6964.69930,0.46847
6962.77056,0.47039
6960.84181,0.47218
6958.91307,0.47272
6956.98432,0.47233
6955.05558,0.47127
6953.12683,0.46880
6951.19809,0.46666
6949.26934,0.46659
6947.34060,0.46730
6945.41185,0.46804
6943.48311,0.46793
6941.55436,0.46634
6939.62562,0.46547
6937.69687,0.46698
6935.76812,0.46984
6933.83938,0.47193
6931.91063,0.47158
6929.98189,0.46967
6928.05314,0.46848
6926.12440,0.46950
6924.19565,0.47375
6922.26691,0.47763
6920.33816,0.47616
6918.40942,0.47298
6916.48067,0.47316
6914.55193,0.47390
6912.62318,0.47129
6910.69444,0.46764
6908.76569,0.46816
6906.83695,0.47217
6904.90820,0.47331
6902.97945,0.47059
6901.05071,0.46893
6899.12196,0.47048
6897.19322,0.47371
6895.26447,0.47570
6893.33573,0.47475
6891.40698,0.47189
6889.47824,0.47060
6887.54949,0.47311
6885.62075,0.47520
6883.69200,0.47298
6881.76326,0.46942
6879.83451,0.46746
6877.90577,0.46665
6875.97702,0.46681
6874.04828,0.46810
6872.11953,0.46805
6870.19078,0.46634
6868.26204,0.46734
6866.33329,0.47138
6864.40455,0.47546
6862.47580,0.47850
6860.54706,0.47969
6858.61831,0.47885
6856.68957,0.47692
6854.76082,0.47535
6852.83208,0.47474
6850.90333,0.47443
6848.97459,0.47528
6847.04584,0.47796
6845.11710,0.47975
6843.18835,0.47911
6841.25960,0.47859
6839.33086,0.47954
6837.40211,0.48041
6835.47337,0.47990
6833.54462,0.47784
6831.61588,0.47579
6829.68713,0.47456
6827.75839,0.47315
6825.82964,0.47243
6823.90090,0.47391
6821.97215,0.47638
6820.04341,0.47815
6818.11466,0.47817
6816.18592,0.47712
6814.25717,0.47770
6812.32843,0.47998
6810.39968,0.48158
6808.47093,0.48177
6806.54219,0.48114
6804.61344,0.47986
6802.68470,0.47831
6800.75595,0.47868
6798.82721,0.48095
6796.89846,0.48092
6794.96972,0.47731
6793.04097,0.47366
6791.11223,0.47322
6789.18348,0.47545
6787.25474,0.47789
6785.32599,0.48023
6783.39725,0.48150
6781.46850,0.48066
6779.53975,0.47967
6777.61101,0.47882
6775.68226,0.47797
6773.75352,0.47979
6771.82477,0.48320
6769.89603,0.48346
6767.96728,0.48088
6766.03854,0.47948
6764.10979,0.47908
6762.18105,0.47745
6760.25230,0.47507
6758.32356,0.47374
6756.39481,0.47474
6754.46607,0.47762
6752.53732,0.47982
6750.60858,0.47956
6748.67983,0.47807
6746.75108,0.47749
6744.82234,0.47861
6742.89359,0.48052
6740.96485,0.48015
6739.03610,0.47813
6737.10736,0.47989
6735.17861,0.48502
6733.24987,0.48764
6731.32112,0.48549
6729.39238,0.48091
6727.46363,0.47836
6725.53489,0.47934
6723.60614,0.48163
6721.67740,0.48352
6719.74865,0.48341
6717.81991,0.48156
6715.89116,0.48047
6713.96241,0.48083
6712.03367,0.48158
6710.10492,0.48180
6708.17618,0.48248
6706.24743,0.48444
6704.31869,0.48560
6702.38994,0.48439
6700.46120,0.48296
6698.53245,0.48314
6696.60371,0.48290
6694.67496,0.48194
6692.74622,0.48217
6690.81747,0.48296
6688.88873,0.48399
6686.95998,0.48534
6685.03123,0.48606
6683.10249,0.48688
6681.17374,0.48829
6679.24500,0.48796
6677.31625,0.48561
6675.38751,0.48485
6673.45876,0.48573
6671.53002,0.48528
6669.60127,0.48351
6667.67253,0.48211
6665.74378,0.48201
6663.81504,0.48244
6661.88629,0.48245
6659.95755,0.48287
6658.02880,0.48403
6656.10006,0.48492
6654.17131,0.48528
6652.24256,0.48560
6650.31382,0.48607
6648.38507,0.48635
6646.45633,0.48623
6644.52758,0.48636
6642.59884,0.48716
6640.67009,0.48703
6638.74135,0.48550
6636.81260,0.48462
6634.88386,0.48443
6632.95511,0.48410
6631.02637,0.48560
6629.09762,0.48939
6627.16888,0.49223
6625.24013,0.49212
6623.31139,0.48983
6621.38264,0.48759
6619.45389,0.48813
6617.52515,0.49025
6615.59640,0.49021
6613.66766,0.48944
6611.73891,0.49153
6609.81017,0.49442
6607.88142,0.49440
6605.95268,0.49192
6604.02393,0.48901
6602.09519,0.48718
6600.16644,0.48758
6598.23770,0.48899
6596.30895,0.48965
6594.38021,0.48953
6592.45146,0.48973
6590.52271,0.49172
6588.59397,0.49373
6586.66522,0.49286
6584.73648,0.48971
6582.80773,0.48658
6580.87899,0.48616
6578.95024,0.48917
6577.02150,0.49217
6575.09275,0.49171
6573.16401,0.48955
6571.23526,0.48991
6569.30652,0.49326
6567.37777,0.49654
6565.44903,0.49720
6563.52028,0.49612
6561.59154,0.49587
6559.66279,0.49637
6557.73404,0.49576
6555.80530,0.49436
6553.87655,0.49425
6551.94781,0.49492
6550.01906,0.49459
6548.09032,0.49363
6546.16157,0.49257
6544.23283,0.49179
6542.30408,0.49204
6540.37534,0.49311
6538.44659,0.49355
6536.51785,0.49270
6534.58910,0.49172
6532.66036,0.49129
6530.73161,0.49150
6528.80287,0.49180
6526.87412,0.49104
6524.94537,0.49054
6523.01663,0.49165
6521.08788,0.49226
6519.15914,0.49101
6517.23039,0.48976
6515.30165,0.49077
6513.37290,0.49389
6511.44416,0.49553
6509.51541,0.49369
6507.58667,0.49157
6505.65792,0.49205
6503.72918,0.49417
6501.80043,0.49524
6499.87169,0.49433
6497.94294,0.49319
6496.01419,0.49239
6494.08545,0.49143
6492.15670,0.49075
6490.22796,0.49120
6488.29921,0.49320
6486.37047,0.49517
6484.44172,0.49542
6482.51298,0.49416
6480.58423,0.49207
6478.65549,0.49079
6476.72674,0.49154
6474.79800,0.49280
6472.86925,0.49332
6470.94051,0.49360
6469.01176,0.49351
6467.08302,0.49256
6465.15427,0.49142
6463.22552,0.49148
6461.29678,0.49279
6459.36803,0.49379
6457.43929,0.49383
6455.51054,0.49361
6453.58180,0.49362
6451.65305,0.49328
6449.72431,0.49256
6447.79556,0.49331
6445.86682,0.49469
6443.93807,0.49376
6442.00933,0.49258
6440.08058,0.49410
6438.15184,0.49631
6436.22309,0.49745
6434.29434,0.49823
6432.36560,0.49815
6430.43685,0.49720
6428.50811,0.49680
6426.57936,0.49666
6424.65062,0.49596
6422.72187,0.49489
6420.79313,0.49410
6418.86438,0.49491
6416.93564,0.49634
6415.00689,0.49613
6413.07815,0.49517
6411.14940,0.49412
6409.22066,0.49266
6407.29191,0.49188
6405.36317,0.49197
6403.43442,0.49238
6401.50567,0.49293
6399.57693,0.49311
6397.64818,0.49272
6395.71944,0.49177
6393.79069,0.49087
6391.86195,0.49141
6389.93320,0.49315
6388.00446,0.49408
6386.07571,0.49344
6384.14697,0.49185
6382.21822,0.49023
6380.28948,0.49025
6378.36073,0.49241
6376.43199,0.49446
6374.50324,0.49437
6372.57450,0.49332
6370.64575,0.49302
6368.71700,0.49278
6366.78826,0.49274
6364.85951,0.49367
6362.93077,0.49435
6361.00202,0.49392
6359.07328,0.49278
6357.14453,0.49142
6355.21579,0.49128
6353.28704,0.49287
6351.35830,0.49398
6349.42955,0.49295
6347.50081,0.49101
6345.57206,0.49111
6343.64332,0.49404
6341.71457,0.49613
6339.78582,0.49491
6337.85708,0.49289
6335.92833,0.49209
6333.99959,0.49170
6332.07084,0.49147
6330.14210,0.49191
6328.21335,0.49237
6326.28461,0.49299
6324.35586,0.49453
6322.42712,0.49467
6320.49837,0.49188
6318.56963,0.48992
6316.64088,0.49145
6314.71214,0.49399
6312.78339,0.49510
6310.85465,0.49488
6308.92590,0.49388
6306.99715,0.49273
6305.06841,0.49316
6303.13966,0.49571
6301.21092,0.49758
6299.28217,0.49711
6297.35343,0.49597
6295.42468,0.49497
6293.49594,0.49382
6291.56719,0.49307
6289.63845,0.49322
6287.70970,0.49460
6285.78096,0.49680
6283.85221,0.49811
6281.92347,0.49760
6279.99472,0.49593
6278.06598,0.49487
6276.13723,0.49549
6274.20848,0.49598
6272.27974,0.49508
6270.35099,0.49430
6268.42225,0.49436
6266.49350,0.49451
6264.56476,0.49398
6262.63601,0.49306
6260.70727,0.49336
6258.77852,0.49528
6256.84978,0.49747
6254.92103,0.49875
6252.99229,0.49854
6251.06354,0.49699
6249.13480,0.49521
6247.20605,0.49396
6245.27730,0.49288
6243.34856,0.49234
6241.41981,0.49274
6239.49107,0.49266
6237.56232,0.49180
6235.63358,0.49183
6233.70483,0.49288
6231.77609,0.49437
6229.84734,0.49647
6227.91860,0.49784
6225.98985,0.49704
6224.06111,0.49549
6222.13236,0.49483
6220.20362,0.49494
6218.27487,0.49544
6216.34613,0.49596
6214.41738,0.49590
6212.48863,0.49517
6210.55989,0.49429
6208.63114,0.49331
6206.70240,0.49232
6204.77365,0.49207
6202.84491,0.49292
6200.91616,0.49442
6198.98742,0.49572
6197.05867,0.49604
6195.12993,0.49520
6193.20118,0.49392
6191.27244,0.49262
6189.34369,0.49185
6187.41495,0.49319
6185.48620,0.49565
6183.55746,0.49633
6181.62871,0.49515
6179.69996,0.49381
6177.77122,0.49359
6175.84247,0.49481
6173.91373,0.49643
6171.98498,0.49726
6170.05624,0.49697
6168.12749,0.49604
6166.19875,0.49510
6164.27000,0.49455
6162.34126,0.49499
6160.41251,0.49644
6158.48377,0.49773
6156.55502,0.49766
6154.62628,0.49676
6152.69753,0.49631
6150.76878,0.49564
6148.84004,0.49393
6146.91129,0.49282
6144.98255,0.49292
6143.05380,0.49238
6141.12506,0.49125
6139.19631,0.49163
6137.26757,0.49324
6135.33882,0.49413
6133.41008,0.49376
6131.48133,0.49258
6129.55259,0.49108
6127.62384,0.48976
6125.69510,0.48943
6123.76635,0.48994
6121.83761,0.48976
6119.90886,0.48922
6117.98011,0.48931
6116.05137,0.48834
6114.12262,0.48592
6112.19388,0.48505
6110.26513,0.48665
6108.33639,0.48795
6106.40764,0.48729
6104.47890,0.48583
6102.55015,0.48501
6100.62141,0.48523
6098.69266,0.48579
6096.76392,0.48604
6094.83517,0.48668
6092.90643,0.48782
6090.97768,0.48833
6089.04893,0.48826
6087.12019,0.48800
6085.19144,0.48698
6083.26270,0.48520
6081.33395,0.48335
6079.40521,0.48217
6077.47646,0.48254
6075.54772,0.48412
6073.61897,0.48545
6071.69023,0.48534
6069.76148,0.48402
6067.83274,0.48329
6065.90399,0.48381
6063.97525,0.48381
6062.04650,0.48245
6060.11776,0.48123
6058.18901,0.48136
6056.26026,0.48221
6054.33152,0.48271
6052.40277,0.48262
6050.47403,0.48236
6048.54528,0.48199
6046.61654,0.48103
6044.68779,0.47980
6042.75905,0.47937
6040.83030,0.47953
6038.90156,0.47952
6036.97281,0.48005
6035.04407,0.48122
6033.11532,0.48148
6031.18658,0.48027
6029.25783,0.47848
6027.32909,0.47735
6025.40034,0.47694
6023.47159,0.47613
6021.54285,0.47523
6019.61410,0.47446
6017.68536,0.47311
6015.75661,0.47229
6013.82787,0.47282
6011.89912,0.47304
6009.97038,0.47225
6008.04163,0.47100
6006.11289,0.46899
6004.18414,0.46723
6002.25540,0.46758
6000.32665,0.46930
5998.39791,0.47053
5996.46916,0.47052
5994.54041,0.46947
5992.61167,0.46819
5990.68292,0.46667
5988.75418,0.46474
5986.82543,0.46356
5984.89669,0.46377
5982.96794,0.46377
5981.03920,0.46257
5979.11045,0.46172
5977.18171,0.46158
5975.25296,0.46067
5973.32422,0.45910
5971.39547,0.45781
5969.46673,0.45739
5967.53798,0.45752
5965.60924,0.45694
5963.68049,0.45546
5961.75174,0.45355
5959.82300,0.45199
5957.89425,0.45118
5955.96551,0.45084
5954.03676,0.45129
5952.10802,0.45211
5950.17927,0.45189
5948.25053,0.45018
5946.32178,0.44750
5944.39304,0.44491
5942.46429,0.44361
5940.53555,0.44370
5938.60680,0.44379
5936.67806,0.44294
5934.74931,0.44233
5932.82057,0.44256
5930.89182,0.44168
5928.96307,0.43895
5927.03433,0.43614
5925.10558,0.43442
5923.17684,0.43347
5921.24809,0.43235
5919.31935,0.43059
5917.39060,0.42846
5915.46186,0.42627
5913.53311,0.42382
5911.60437,0.42077
5909.67562,0.41797
5907.74688,0.41596
5905.81813,0.41324
5903.88939,0.40966
5901.96064,0.40718
5900.03189,0.40569
5898.10315,0.40321
5896.17440,0.39955
5894.24566,0.39597
5892.31691,0.39319
5890.38817,0.39073
5888.45942,0.38836
5886.53068,0.38676
5884.60193,0.38597
5882.67319,0.38605
5880.74444,0.38732
5878.81570,0.38858
5876.88695,0.38877
5874.95821,0.38861
5873.02946,0.38901
5871.10072,0.38917
5869.17197,0.38807
5867.24322,0.38659
5865.31448,0.38560
5863.38573,0.38498
5861.45699,0.38444
5859.52824,0.38293
5857.59950,0.37978
5855.67075,0.37566
5853.74201,0.37165
5851.81326,0.36828
5849.88452,0.36521
5847.95577,0.36241
5846.02703,0.35998
5844.09828,0.35752
5842.16954,0.35536
5840.24079,0.35384
5838.31205,0.35235
5836.38330,0.35096
5834.45455,0.35024
5832.52581,0.34981
5830.59706,0.34888
5828.66832,0.34751
5826.73957,0.34699
5824.81083,0.34808
5822.88208,0.34952
5820.95334,0.35029
5819.02459,0.35073
5817.09585,0.35092
5815.16710,0.35092
5813.23836,0.35101
5811.30961,0.35165
5809.38087,0.35295
5807.45212,0.35358
5805.52337,0.35301
5803.59463,0.35253
5801.66588,0.35315
5799.73714,0.35473
5797.80839,0.35658
5795.87965,0.35848
5793.95090,0.36042
5792.02216,0.36236
5790.09341,0.36419
5788.16467,0.36538
5786.23592,0.36632
5784.30718,0.36766
5782.37843,0.36916
5780.44969,0.37084
5778.52094,0.37265
5776.59220,0.37423
5774.66345,0.37563
5772.73470,0.37666
5770.80596,0.37737
5768.87721,0.37835
5766.94847,0.37951
5765.01972,0.38060
5763.09098,0.38156
5761.16223,0.38222
5759.23349,0.38267
5757.30474,0.38260
5755.37600,0.38161
5753.44725,0.38068
5751.51851,0.38103
5749.58976,0.38186
5747.66102,0.38199
5745.73227,0.38221
5743.80352,0.38310
5741.87478,0.38380
5739.94603,0.38348
5738.01729,0.38255
5736.08854,0.38257
5734.15980,0.38363
5732.23105,0.38387
5730.30231,0.38286
5728.37356,0.38193
5726.44482,0.38155
5724.51607,0.38148
5722.58733,0.38139
5720.65858,0.38102
5718.72984,0.38086
5716.80109,0.38094
5714.87235,0.38083
5712.94360,0.38059
5711.01485,0.38015
5709.08611,0.37976
5707.15736,0.37997
5705.22862,0.38018
5703.29987,0.37950
5701.37113,0.37855
5699.44238,0.37863
5697.51364,0.37987
5695.58489,0.38138
5693.65615,0.38212
5691.72740,0.38185
5689.79866,0.38144
5687.86991,0.38146
5685.94117,0.38170
5684.01242,0.38203
5682.08368,0.38231
5680.15493,0.38207
5678.22618,0.38173
5676.29744,0.38172
5674.36869,0.38132
5672.43995,0.38082
5670.51120,0.38169
5668.58246,0.38380
5666.65371,0.38527
5664.72497,0.38547
5662.79622,0.38548
5660.86748,0.38622
5658.93873,0.38783
5657.00999,0.38940
5655.08124,0.39011
5653.15250,0.39033
5651.22375,0.39068
5649.29500,0.39124
5647.36626,0.39189
5645.43751,0.39238
5643.50877,0.39219
5641.58002,0.39168
5639.65128,0.39114
5637.72253,0.39034
5635.79379,0.39010
5633.86504,0.39050
5631.93630,0.38994
5630.00755,0.38771
5628.07881,0.38530
5626.15006,0.38455
5624.22132,0.38502
5622.29257,0.38530
5620.36383,0.38563
5618.43508,0.38687
5616.50633,0.38848
5614.57759,0.38958
5612.64884,0.39080
5610.72010,0.39283
5608.79135,0.39484
5606.86261,0.39583
5604.93386,0.39609
5603.00512,0.39671
5601.07637,0.39855
5599.14763,0.40179
5597.21888,0.40566
5595.29014,0.40867
5593.36139,0.41034
5591.43265,0.41181
5589.50390,0.41352
5587.57516,0.41464
5585.64641,0.41526
5583.71766,0.41652
5581.78892,0.41881
5579.86017,0.42122
5577.93143,0.42306
5576.00268,0.42468
5574.07394,0.42638
5572.14519,0.42798
5570.21645,0.42957
5568.28770,0.43132
5566.35896,0.43241
5564.43021,0.43213
5562.50147,0.43175
5560.57272,0.43264
5558.64398,0.43411
5556.71523,0.43507
5554.78648,0.43560
5552.85774,0.43626
5550.92899,0.43726
5549.00025,0.43787
5547.07150,0.43705
5545.14276,0.43599
5543.21401,0.43671
5541.28527,0.43847
5539.35652,0.43930
5537.42778,0.43928
5535.49903,0.43976
5533.57029,0.44048
5531.64154,0.44051
5529.71280,0.44055
5527.78405,0.44140
5525.85531,0.44266
5523.92656,0.44311
5521.99781,0.44224
5520.06907,0.44171
5518.14032,0.44251
5516.21158,0.44351
5514.28283,0.44452
5512.35409,0.44560
5510.42534,0.44563
5508.49660,0.44488
5506.56785,0.44467
5504.63911,0.44523
5502.71036,0.44577
5500.78162,0.44522
5498.85287,0.44404
5496.92413,0.44374
5494.99538,0.44457
5493.06664,0.44593
5491.13789,0.44678
5489.20914,0.44652
5487.28040,0.44603
5485.35165,0.44610
5483.42291,0.44649
5481.49416,0.44694
5479.56542,0.44737
5477.63667,0.44789
5475.70793,0.44862
5473.77918,0.44891
5471.85044,0.44814
5469.92169,0.44739
5467.99295,0.44776
5466.06420,0.44800
5464.13546,0.44692
5462.20671,0.44567
5460.27796,0.44538
5458.34922,0.44573
5456.42047,0.44653
5454.49173,0.44747
5452.56298,0.44764
5450.63424,0.44732
5448.70549,0.44736
5446.77675,0.44736
5444.84800,0.44695
5442.91926,0.44661
5440.99051,0.44685
5439.06177,0.44767
5437.13302,0.44823
5435.20428,0.44822
5433.27553,0.44813
5431.34679,0.44798
5429.41804,0.44760
5427.48929,0.44775
5425.56055,0.44887
5423.63180,0.44958
5421.70306,0.44890
5419.77431,0.44774
5417.84557,0.44702
5415.91682,0.44661
5413.98808,0.44613
5412.05933,0.44593
5410.13059,0.44654
5408.20184,0.44761
5406.27310,0.44834
5404.34435,0.44843
5402.41561,0.44822
5400.48686,0.44799
5398.55811,0.44763
5396.62937,0.44753
5394.70062,0.44780
5392.77188,0.44739
5390.84313,0.44641
5388.91439,0.44633
5386.98564,0.44716
5385.05690,0.44778
5383.12815,0.44771
5381.19941,0.44780
5379.27066,0.44852
5377.34192,0.44902
5375.41317,0.44921
5373.48443,0.44956
5371.55568,0.44962
5369.62694,0.44916
5367.69819,0.44872
5365.76944,0.44875
5363.84070,0.44936
5361.91195,0.45029
5359.98321,0.45010
5358.05446,0.44859
5356.12572,0.44787
5354.19697,0.44833
5352.26823,0.44836
5350.33948,0.44794
5348.41074,0.44819
5346.48199,0.44908
5344.55325,0.44970
5342.62450,0.44958
5340.69576,0.44904
5338.76701,0.44835
5336.83827,0.44766
5334.90952,0.44717
5332.98077,0.44669
5331.05203,0.44630
5329.12328,0.44671
5327.19454,0.44745
5325.26579,0.44748
5323.33705,0.44728
5321.40830,0.44763
5319.47956,0.44827
5317.55081,0.44873
5315.62207,0.44865
5313.69332,0.44817
5311.76458,0.44826
5309.83583,0.44892
5307.90709,0.44916
5305.97834,0.44914
5304.04959,0.44959
5302.12085,0.44998
5300.19210,0.44969
5298.26336,0.44934
5296.33461,0.44950
5294.40587,0.44980
5292.47712,0.44977
5290.54838,0.44950
5288.61963,0.44949
5286.69089,0.44992
5284.76214,0.45035
5282.83340,0.45026
5280.90465,0.44938
5278.97591,0.44806
5277.04716,0.44730
5275.11842,0.44735
5273.18967,0.44731
5271.26092,0.44663
5269.33218,0.44568
5267.40343,0.44505
5265.47469,0.44481
5263.54594,0.44469
5261.61720,0.44448
5259.68845,0.44400
5257.75971,0.44332
5255.83096,0.44232
5253.90222,0.44104
5251.97347,0.44031
5250.04473,0.44037
5248.11598,0.44085
5246.18724,0.44119
5244.25849,0.44084
5242.32975,0.44000
5240.40100,0.43924
5238.47225,0.43879
5236.54351,0.43843
5234.61476,0.43787
5232.68602,0.43730
5230.75727,0.43698
5228.82853,0.43661
5226.89978,0.43563
5224.97104,0.43426
5223.04229,0.43331
5221.11355,0.43325
5219.18480,0.43375
5217.25606,0.43395
5215.32731,0.43359
5213.39857,0.43302
5211.46982,0.43272
5209.54107,0.43293
5207.61233,0.43298
5205.68358,0.43223
5203.75484,0.43125
5201.82609,0.43094
5199.89735,0.43168
5197.96860,0.43260
5196.03986,0.43221
5194.11111,0.43080
5192.18237,0.43003
5190.25362,0.43022
5188.32488,0.43050
5186.39613,0.43018
5184.46739,0.42943
5182.53864,0.42901
5180.60990,0.42949
5178.68115,0.43056
5176.75240,0.43096
5174.82366,0.43023
5172.89491,0.42969
5170.96617,0.43005
5169.03742,0.43014
5167.10868,0.42946
5165.17993,0.42913
5163.25119,0.42961
5161.32244,0.43036
5159.39370,0.43089
5157.46495,0.43058
5155.53621,0.42993
5153.60746,0.43006
5151.67872,0.43072
5149.74997,0.43123
5147.82123,0.43131
5145.89248,0.43125
5143.96373,0.43169
5142.03499,0.43221
5140.10624,0.43221
5138.17750,0.43212
5136.24875,0.43225
5134.32001,0.43264
5132.39126,0.43311
5130.46252,0.43330
5128.53377,0.43328
5126.60503,0.43308
5124.67628,0.43277
5122.74754,0.43272
5120.81879,0.43304
5118.89005,0.43355
5116.96130,0.43408
5115.03255,0.43450
5113.10381,0.43458
5111.17506,0.43444
5109.24632,0.43465
5107.31757,0.43526
5105.38883,0.43570
5103.46008,0.43573
5101.53134,0.43526
5099.60259,0.43457
5097.67385,0.43440
5095.74510,0.43486
5093.81636,0.43522
5091.88761,0.43508
5089.95887,0.43523
5088.03012,0.43628
5086.10138,0.43713
5084.17263,0.43688
5082.24388,0.43638
5080.31514,0.43655
5078.38639,0.43745
5076.45765,0.43830
5074.52890,0.43811
5072.60016,0.43722
5070.67141,0.43679
5068.74267,0.43702
5066.81392,0.43722
5064.88518,0.43713
5062.95643,0.43703
5061.02769,0.43714
5059.09894,0.43758
5057.17020,0.43814
5055.24145,0.43844
5053.31270,0.43846
5051.38396,0.43832
5049.45521,0.43772
5047.52647,0.43680
5045.59772,0.43651
5043.66898,0.43724
5041.74023,0.43851
5039.81149,0.43950
5037.88274,0.43939
5035.95400,0.43838
5034.02525,0.43769
5032.09651,0.43814
5030.16776,0.43898
5028.23902,0.43908
5026.31027,0.43848
5024.38153,0.43800
5022.45278,0.43806
5020.52403,0.43827
5018.59529,0.43812
5016.66654,0.43791
5014.73780,0.43808
5012.80905,0.43830
5010.88031,0.43812
5008.95156,0.43771
5007.02282,0.43769
5005.09407,0.43831
5003.16533,0.43878
5001.23658,0.43848
4999.30784,0.43815
4997.37909,0.43849
4995.45035,0.43904
4993.52160,0.43906
4991.59286,0.43853
4989.66411,0.43791
4987.73536,0.43773
4985.80662,0.43775
4983.87787,0.43739
4981.94913,0.43680
4980.02038,0.43626
4978.09164,0.43604
4976.16289,0.43638
4974.23415,0.43677
4972.30540,0.43660
4970.37666,0.43617
4968.44791,0.43568
4966.51917,0.43493
4964.59042,0.43462
4962.66168,0.43498
4960.73293,0.43491
4958.80418,0.43412
4956.87544,0.43352
4954.94669,0.43349
4953.01795,0.43364
4951.08920,0.43369
4949.16046,0.43362
4947.23171,0.43330
4945.30297,0.43255
4943.37422,0.43179
4941.44548,0.43170
4939.51673,0.43207
4937.58799,0.43200
4935.65924,0.43121
4933.73050,0.43041
4931.80175,0.43038
4929.87301,0.43094
4927.94426,0.43135
4926.01551,0.43104
4924.08677,0.43018
4922.15802,0.42955
4920.22928,0.42945
4918.30053,0.42955
4916.37179,0.42947
4914.44304,0.42907
4912.51430,0.42861
4910.58555,0.42857
4908.65681,0.42890
4906.72806,0.42882
4904.79932,0.42825
4902.87057,0.42815
4900.94183,0.42874
4899.01308,0.42929
4897.08434,0.42940
4895.15559,0.42899
4893.22684,0.42822
4891.29810,0.42744
4889.36935,0.42697
4887.44061,0.42704
4885.51186,0.42725
4883.58312,0.42694
4881.65437,0.42656
4879.72563,0.42658
4877.79688,0.42672
4875.86814,0.42682
4873.93939,0.42680
4872.01065,0.42642
4870.08190,0.42589
4868.15316,0.42551
4866.22441,0.42534
4864.29566,0.42546
4862.36692,0.42580
4860.43817,0.42593
4858.50943,0.42531
4856.58068,0.42416
4854.65194,0.42363
4852.72319,0.42410
4850.79445,0.42455
4848.86570,0.42451
4846.93696,0.42427
4845.00821,0.42407
4843.07947,0.42403
4841.15072,0.42392
4839.22198,0.42364
4837.29323,0.42329
4835.36449,0.42288
4833.43574,0.42267
4831.50699,0.42282
4829.57825,0.42316
4827.64950,0.42319
4825.72076,0.42280
4823.79201,0.42245
4821.86327,0.42209
4819.93452,0.42179
4818.00578,0.42194
4816.07703,0.42206
4814.14829,0.42170
4812.21954,0.42128
4810.29080,0.42120
4808.36205,0.42118
4806.43331,0.42075
4804.50456,0.42011
4802.57582,0.41960
4800.64707,0.41942
4798.71832,0.41971
4796.78958,0.42009
4794.86083,0.42003
4792.93209,0.41955
4791.00334,0.41906
4789.07460,0.41883
4787.14585,0.41860
4785.21711,0.41842
4783.28836,0.41849
4781.35962,0.41824
4779.43087,0.41755
4777.50213,0.41705
4775.57338,0.41697
4773.64464,0.41692
4771.71589,0.41657
4769.78714,0.41618
4767.85840,0.41649
4765.92965,0.41751
4764.00091,0.41815
4762.07216,0.41789
4760.14342,0.41721
4758.21467,0.41655
4756.28593,0.41632
4754.35718,0.41640
4752.42844,0.41607
4750.49969,0.41546
4748.57095,0.41506
4746.64220,0.41456
4744.71346,0.41413
4742.78471,0.41419
4740.85597,0.41425
4738.92722,0.41419
4736.99847,0.41438
4735.06973,0.41433
4733.14098,0.41348
4731.21224,0.41230
4729.28349,0.41133
4727.35475,0.41040
4725.42600,0.40954
4723.49726,0.40893
4721.56851,0.40819
4719.63977,0.40742
4717.71102,0.40706
4715.78228,0.40676
4713.85353,0.40588
4711.92479,0.40451
4709.99604,0.40345
4708.06729,0.40314
4706.13855,0.40310
4704.20980,0.40300
4702.28106,0.40318
4700.35231,0.40327
4698.42357,0.40253
4696.49482,0.40154
4694.56608,0.40128
4692.63733,0.40149
4690.70859,0.40141
4688.77984,0.40126
4686.85110,0.40161
4684.92235,0.40220
4682.99361,0.40247
4681.06486,0.40226
4679.13612,0.40159
4677.20737,0.40083
4675.27862,0.40025
4673.34988,0.39944
4671.42113,0.39844
4669.49239,0.39804
4667.56364,0.39831
4665.63490,0.39838
4663.70615,0.39793
4661.77741,0.39751
4659.84866,0.39737
4657.91992,0.39706
4655.99117,0.39634
4654.06243,0.39533
4652.13368,0.39428
4650.20494,0.39330
4648.27619,0.39220
4646.34745,0.39100
4644.41870,0.38988
4642.48995,0.38881
4640.56121,0.38776
4638.63246,0.38655
4636.70372,0.38511
4634.77497,0.38373
4632.84623,0.38222
4630.91748,0.38051
4628.98874,0.37952
4627.05999,0.37965
4625.13125,0.38035
4623.20250,0.38118
4621.27376,0.38178
4619.34501,0.38205
4617.41627,0.38223
4615.48752,0.38231
4613.55877,0.38232
4611.63003,0.38229
4609.70128,0.38211
4607.77254,0.38191
4605.84379,0.38189
4603.91505,0.38194
4601.98630,0.38209
4600.05756,0.38271
4598.12881,0.38387
4596.20007,0.38479
4594.27132,0.38508
4592.34258,0.38531
4590.41383,0.38579
4588.48509,0.38636
4586.55634,0.38682
4584.62760,0.38701
4582.69885,0.38684
4580.77010,0.38637
4578.84136,0.38607
4576.91261,0.38631
4574.98387,0.38699
4573.05512,0.38764
4571.12638,0.38820
4569.19763,0.38913
4567.26889,0.39023
4565.34014,0.39103
4563.41140,0.39188
4561.48265,0.39286
4559.55391,0.39358
4557.62516,0.39381
4555.69642,0.39372
4553.76767,0.39374
4551.83893,0.39380
4549.91018,0.39339
4547.98143,0.39251
4546.05269,0.39170
4544.12394,0.39142
4542.19520,0.39146
4540.26645,0.39129
4538.33771,0.39089
4536.40896,0.39049
4534.48022,0.38986
4532.55147,0.38885
4530.62273,0.38784
4528.69398,0.38693
4526.76524,0.38592
4524.83649,0.38480
4522.90775,0.38402
4520.97900,0.38386
4519.05025,0.38386
4517.12151,0.38385
4515.19276,0.38389
4513.26402,0.38363
4511.33527,0.38323
4509.40653,0.38333
4507.47778,0.38384
4505.54904,0.38423
4503.62029,0.38434
4501.69155,0.38436
4499.76280,0.38441
4497.83406,0.38442
4495.90531,0.38432
4493.97657,0.38388
4492.04782,0.38310
4490.11908,0.38214
4488.19033,0.38110
4486.26158,0.38020
4484.33284,0.37950
4482.40409,0.37868
4480.47535,0.37775
4478.54660,0.37698
4476.61786,0.37628
4474.68911,0.37539
4472.76037,0.37435
4470.83162,0.37347
4468.90288,0.37272
4466.97413,0.37177
4465.04539,0.37051
4463.11664,0.36892
4461.18790,0.36716
4459.25915,0.36544
4457.33041,0.36354
4455.40166,0.36144
4453.47291,0.35972
4451.54417,0.35812
4449.61542,0.35577
4447.68668,0.35310
4445.75793,0.35084
4443.82919,0.34876
4441.90044,0.34657
4439.97170,0.34430
4438.04295,0.34195
4436.11421,0.33934
4434.18546,0.33627
4432.25672,0.33287
4430.32797,0.32963
4428.39923,0.32664
4426.47048,0.32341
4424.54173,0.31966
4422.61299,0.31579
4420.68424,0.31226
4418.75550,0.30888
4416.82675,0.30532
4414.89801,0.30161
4412.96926,0.29792
4411.04052,0.29419
4409.11177,0.29049
4407.18303,0.28717
4405.25428,0.28432
4403.32554,0.28166
4401.39679,0.27912
4399.46805,0.27694
4397.53930,0.27514
4395.61056,0.27352
4393.68181,0.27194
4391.75306,0.27043
4389.82432,0.26895
4387.89557,0.26716
4385.96683,0.26490
4384.03808,0.26276
4382.10934,0.26103
4380.18059,0.25923
4378.25185,0.25722
4376.32310,0.25544
4374.39436,0.25378
4372.46561,0.25186
4370.53687,0.24973
4368.60812,0.24745
4366.67938,0.24535
4364.75063,0.24371
4362.82189,0.24230
4360.89314,0.24091
4358.96439,0.23954
4357.03565,0.23827
4355.10690,0.23702
4353.17816,0.23559
4351.24941,0.23391
4349.32067,0.23217
4347.39192,0.23077
4345.46318,0.22977
4343.53443,0.22872
4341.60569,0.22735
4339.67694,0.22577
4337.74820,0.22409
4335.81945,0.22259
4333.89071,0.22163
4331.96196,0.22132
4330.03321,0.22177
4328.10447,0.22284
4326.17572,0.22424
4324.24698,0.22605
4322.31823,0.22837
4320.38949,0.23082
4318.46074,0.23287
4316.53200,0.23447
4314.60325,0.23606
4312.67451,0.23729
4310.74576,0.23730
4308.81702,0.23645
4306.88827,0.23560
4304.95953,0.23484
4303.03078,0.23395
4301.10204,0.23290
4299.17329,0.23180
4297.24454,0.23070
4295.31580,0.22963
4293.38705,0.22900
4291.45831,0.22903
4289.52956,0.22941
4287.60082,0.22995
4285.67207,0.23058
4283.74333,0.23122
4281.81458,0.23208
4279.88584,0.23328
4277.95709,0.23442
4276.02835,0.23516
4274.09960,0.23581
4272.17086,0.23642
4270.24211,0.23662
4268.31336,0.23655
4266.38462,0.23651
4264.45587,0.23627
4262.52713,0.23586
4260.59838,0.23565
4258.66964,0.23543
4256.74089,0.23501
4254.81215,0.23480
4252.88340,0.23497
4250.95466,0.23544
4249.02591,0.23602
4247.09717,0.23676
4245.16842,0.23784
4243.23968,0.23880
4241.31093,0.23931
4239.38219,0.23985
4237.45344,0.24067
4235.52469,0.24170
4233.59595,0.24293
4231.66720,0.24420
4229.73846,0.24533
4227.80971,0.24634
4225.88097,0.24713
4223.95222,0.24777
4222.02348,0.24866
4220.09473,0.24989
4218.16599,0.25134
4216.23724,0.25291
4214.30850,0.25456
4212.37975,0.25606
4210.45101,0.25691
4208.52226,0.25735
4206.59352,0.25820
4204.66477,0.25972
4202.73602,0.26130
4200.80728,0.26231
4198.87853,0.26286
4196.94979,0.26308
4195.02104,0.26314
4193.09230,0.26348
4191.16355,0.26427
4189.23481,0.26496
4187.30606,0.26506
4185.37732,0.26477
4183.44857,0.26466
4181.51983,0.26497
4179.59108,0.26525
4177.66234,0.26500
4175.73359,0.26467
4173.80484,0.26457
4171.87610,0.26445
4169.94735,0.26431
4168.01861,0.26427
4166.08986,0.26431
4164.16112,0.26448
4162.23237,0.26491
4160.30363,0.26581
4158.37488,0.26699
4156.44614,0.26797
4154.51739,0.26873
4152.58865,0.26954
4150.65990,0.27053
4148.73116,0.27167
4146.80241,0.27276
4144.87367,0.27376
4142.94492,0.27490
4141.01617,0.27628
4139.08743,0.27769
4137.15868,0.27876
4135.22994,0.27942
4133.30119,0.28009
4131.37245,0.28089
4129.44370,0.28144
4127.51496,0.28153
4125.58621,0.28162
4123.65747,0.28214
4121.72872,0.28276
4119.79998,0.28295
4117.87123,0.28291
4115.94249,0.28291
4114.01374,0.28277
4112.08500,0.28239
4110.15625,0.28211
4108.22750,0.28208
4106.29876,0.28209
4104.37001,0.28183
4102.44127,0.28117
4100.51252,0.28043
4098.58378,0.27997
4096.65503,0.27963
4094.72629,0.27931
4092.79754,0.27913
4090.86880,0.27876
4088.94005,0.27805
4087.01131,0.27750
4085.08256,0.27717
4083.15382,0.27641
4081.22507,0.27510
4079.29632,0.27371
4077.36758,0.27220
4075.43883,0.27021
4073.51009,0.26759
4071.58134,0.26436
4069.65260,0.26062
4067.72385,0.25670
4065.79511,0.25341
4063.86636,0.25162
4061.93762,0.25157
4060.00887,0.25296
4058.08013,0.25531
4056.15138,0.25809
4054.22264,0.26070
4052.29389,0.26284
4050.36515,0.26462
4048.43640,0.26614
4046.50765,0.26725
4044.57891,0.26781
4042.65016,0.26812
4040.72142,0.26844
4038.79267,0.26881
4036.86393,0.26925
4034.93518,0.26983
4033.00644,0.27063
4031.07769,0.27121
4029.14895,0.27135
4027.22020,0.27162
4025.29146,0.27233
4023.36271,0.27299
4021.43397,0.27328
4019.50522,0.27346
4017.57648,0.27372
4015.64773,0.27373
4013.71898,0.27338
4011.79024,0.27319
4009.86149,0.27341
4007.93275,0.27354
4006.00400,0.27329
4004.07526,0.27307
4002.14651,0.27308
4000.21777,0.27318
3998.28902,0.27307
3996.36028,0.27276
3994.43153,0.27254
3992.50279,0.27250
3990.57404,0.27249
3988.64530,0.27227
3986.71655,0.27180
3984.78780,0.27142
3982.85906,0.27120
3980.93031,0.27100
3979.00157,0.27086
3977.07282,0.27068
3975.14408,0.27019
3973.21533,0.26956
3971.28659,0.26926
3969.35784,0.26927
3967.42910,0.26926
3965.50035,0.26909
3963.57161,0.26884
3961.64286,0.26870
3959.71412,0.26856
3957.78537,0.26824
3955.85663,0.26795
3953.92788,0.26791
3951.99913,0.26797
3950.07039,0.26803
3948.14164,0.26817
3946.21290,0.26832
3944.28415,0.26841
3942.35541,0.26854
3940.42666,0.26891
3938.49792,0.26945
3936.56917,0.27016
3934.64043,0.27129
3932.71168,0.27263
3930.78294,0.27384
3928.85419,0.27504
3926.92545,0.27618
3924.99670,0.27722
3923.06795,0.27838
3921.13921,0.27969
3919.21046,0.28090
3917.28172,0.28181
3915.35297,0.28262
3913.42423,0.28366
3911.49548,0.28479
3909.56674,0.28569
3907.63799,0.28636
3905.70925,0.28698
3903.78050,0.28757
3901.85176,0.28802
3899.92301,0.28816
3897.99427,0.28819
3896.06552,0.28846
3894.13678,0.28901
3892.20803,0.28971
3890.27928,0.29057
3888.35054,0.29148
3886.42179,0.29222
3884.49305,0.29288
3882.56430,0.29361
3880.63556,0.29431
3878.70681,0.29498
3876.77807,0.29575
3874.84932,0.29664
3872.92058,0.29769
3870.99183,0.29862
3869.06309,0.29937
3867.13434,0.30024
3865.20560,0.30091
3863.27685,0.30125
3861.34811,0.30173
3859.41936,0.30251
3857.49061,0.30354
3855.56187,0.30449
3853.63312,0.30465
3851.70438,0.30435
3849.77563,0.30458
3847.84689,0.30544
3845.91814,0.30677
3843.98940,0.30814
3842.06065,0.30918
3840.13191,0.30986
3838.20316,0.31021
3836.27442,0.31032
3834.34567,0.31050
3832.41693,0.31097
3830.48818,0.31157
3828.55943,0.31192
3826.63069,0.31202
3824.70194,0.31219
3822.77320,0.31252
3820.84445,0.31299
3818.91571,0.31368
3816.98696,0.31426
3815.05822,0.31450
3813.12947,0.31487
3811.20073,0.31562
3809.27198,0.31642
3807.34324,0.31683
3805.41449,0.31699
3803.48575,0.31718
3801.55700,0.31734
3799.62826,0.31772
3797.69951,0.31818
3795.77076,0.31829
3793.84202,0.31836
3791.91327,0.31867
3789.98453,0.31885
3788.05578,0.31867
3786.12704,0.31846
3784.19829,0.31850
3782.26955,0.31862
3780.34080,0.31853
3778.41206,0.31827
3776.48331,0.31794
3774.55457,0.31755
3772.62582,0.31718
3770.69708,0.31693
3768.76833,0.31683
3766.83959,0.31667
3764.91084,0.31637
3762.98209,0.31625
3761.05335,0.31634
3759.12460,0.31624
3757.19586,0.31599
3755.26711,0.31620
3753.33837,0.31690
3751.40962,0.31726
3749.48088,0.31701
3747.55213,0.31698
3745.62339,0.31695
3743.69464,0.31638
3741.76590,0.31603
3739.83715,0.31615
3737.90841,0.31606
3735.97966,0.31552
3734.05091,0.31507
3732.12217,0.31478
3730.19342,0.31453
3728.26468,0.31438
3726.33593,0.31402
3724.40719,0.31332
3722.47844,0.31260
3720.54970,0.31205
3718.62095,0.31155
3716.69221,0.31096
3714.76346,0.31033
3712.83472,0.30950
3710.90597,0.30807
3708.97723,0.30632
3707.04848,0.30463
3705.11974,0.30284
3703.19099,0.30089
3701.26224,0.29883
3699.33350,0.29666
3697.40475,0.29440
3695.47601,0.29212
3693.54726,0.28975
3691.61852,0.28698
3689.68977,0.28335
3687.76103,0.27891
3685.83228,0.27461
3683.90354,0.27094
3681.97479,0.26752
3680.04605,0.26362
3678.11730,0.25899
3676.18856,0.25422
3674.25981,0.25069
3672.33107,0.24844
3670.40232,0.24598
3668.47357,0.24314
3666.54483,0.24068
3664.61608,0.23824
3662.68734,0.23552
3660.75859,0.23272
3658.82985,0.22973
3656.90110,0.22630
3654.97236,0.22272
3653.04361,0.21972
3651.11487,0.21670
3649.18612,0.21259
3647.25738,0.20800
3645.32863,0.20404
3643.39989,0.20068
3641.47114,0.19767
3639.54239,0.19477
3637.61365,0.19180
3635.68490,0.18864
3633.75616,0.18543
3631.82741,0.18235
3629.89867,0.17879
3627.96992,0.17451
3626.04118,0.17077
3624.11243,0.16751
3622.18369,0.16405
3620.25494,0.16050
3618.32620,0.15715
3616.39745,0.15423
3614.46871,0.15176
3612.53996,0.14941
3610.61122,0.14696
3608.68247,0.14454
3606.75372,0.14245
3604.82498,0.14064
3602.89623,0.13873
3600.96749,0.13647
3599.03874,0.13419
3597.11000,0.13213
3595.18125,0.12999
3593.25251,0.12788
3591.32376,0.12614
3589.39502,0.12468
3587.46627,0.12324
3585.53753,0.12157
3583.60878,0.11965
3581.68004,0.11791
3579.75129,0.11645
3577.82254,0.11496
3575.89380,0.11360
3573.96505,0.11255
3572.03631,0.11136
3570.10756,0.10974
3568.17882,0.10803
3566.25007,0.10648
3564.32133,0.10496
3562.39258,0.10335
3560.46384,0.10204
3558.53509,0.10104
3556.60635,0.09986
3554.67760,0.09857
3552.74886,0.09754
3550.82011,0.09673
3548.89137,0.09595
3546.96262,0.09521
3545.03387,0.09439
3543.10513,0.09321
3541.17638,0.09194
3539.24764,0.09121
3537.31889,0.09106
3535.39015,0.09078
3533.46140,0.08987
3531.53266,0.08856
3529.60391,0.08732
3527.67517,0.08638
3525.74642,0.08572
3523.81768,0.08509
3521.88893,0.08441
3519.96019,0.08393
3518.03144,0.08348
3516.10270,0.08272
3514.17395,0.08195
3512.24520,0.08151
3510.31646,0.08113
3508.38771,0.08054
3506.45897,0.08003
3504.53022,0.07972
3502.60148,0.07924
3500.67273,0.07838
3498.74399,0.07758
3496.81524,0.07705
3494.88650,0.07646
3492.95775,0.07574
3491.02901,0.07508
3489.10026,0.07446
3487.17152,0.07380
3485.24277,0.07316
3483.31402,0.07271
3481.38528,0.07245
3479.45653,0.07229
3477.52779,0.07215
3475.59904,0.07186
3473.67030,0.07133
3471.74155,0.07086
3469.81281,0.07058
3467.88406,0.07035
3465.95532,0.07009
3464.02657,0.06967
3462.09783,0.06917
3460.16908,0.06886
3458.24034,0.06852
3456.31159,0.06794
3454.38285,0.06725
3452.45410,0.06667
3450.52535,0.06641
3448.59661,0.06640
3446.66786,0.06629
3444.73912,0.06603
3442.81037,0.06585
3440.88163,0.06554
3438.95288,0.06498
3437.02414,0.06446
3435.09539,0.06406
3433.16665,0.06373
3431.23790,0.06365
3429.30916,0.06368
3427.38041,0.06333
3425.45167,0.06276
3423.52292,0.06238
3421.59418,0.06220
3419.66543,0.06210
3417.73668,0.06202
3415.80794,0.06196
3413.87919,0.06183
3411.95045,0.06147
3410.02170,0.06106
3408.09296,0.06089
3406.16421,0.06097
3404.23547,0.06109
3402.30672,0.06097
3400.37798,0.06055
3398.44923,0.06014
3396.52049,0.06007
3394.59174,0.06009
3392.66300,0.05994
3390.73425,0.05980
3388.80550,0.05984
3386.87676,0.05982
3384.94801,0.05969
3383.01927,0.05971
3381.09052,0.05979
3379.16178,0.05960
3377.23303,0.05930
3375.30429,0.05908
3373.37554,0.05879
3371.44680,0.05838
3369.51805,0.05811
3367.58931,0.05803
3365.66056,0.05808
3363.73182,0.05830
3361.80307,0.05840
3359.87433,0.05822
3357.94558,0.05803
3356.01683,0.05770
3354.08809,0.05719
3352.15934,0.05707
3350.23060,0.05743
3348.30185,0.05783
3346.37311,0.05808
3344.44436,0.05806
3342.51562,0.05776
3340.58687,0.05749
3338.65813,0.05741
3336.72938,0.05733
3334.80064,0.05710
3332.87189,0.05695
3330.94315,0.05713
3329.01440,0.05729
3327.08566,0.05715
3325.15691,0.05713
3323.22816,0.05733
3321.29942,0.05718
3319.37067,0.05669
3317.44193,0.05640
3315.51318,0.05636
3313.58444,0.05639
3311.65569,0.05649
3309.72695,0.05661
3307.79820,0.05670
3305.86946,0.05685
3303.94071,0.05705
3302.01197,0.05714
3300.08322,0.05718
3298.15448,0.05727
3296.22573,0.05723
3294.29698,0.05729
3292.36824,0.05784
3290.43949,0.05837
3288.51075,0.05823
3286.58200,0.05764
3284.65326,0.05737
3282.72451,0.05761
3280.79577,0.05793
3278.86702,0.05839
3276.93828,0.05903
3275.00953,0.05947
3273.08079,0.05980
3271.15204,0.06017
3269.22330,0.06044
3267.29455,0.06080
3265.36581,0.06125
3263.43706,0.06153
3261.50831,0.06173
3259.57957,0.06209
3257.65082,0.06254
3255.72208,0.06279
3253.79333,0.06287
3251.86459,0.06308
3249.93584,0.06346
3248.00710,0.06399
3246.07835,0.06466
3244.14961,0.06525
3242.22086,0.06558
3240.29212,0.06576
3238.36337,0.06597
3236.43463,0.06629
3234.50588,0.06666
3232.57713,0.06682
3230.64839,0.06669
3228.71964,0.06660
3226.79090,0.06682
3224.86215,0.06724
3222.93341,0.06766
3221.00466,0.06809
3219.07592,0.06856
3217.14717,0.06886
3215.21843,0.06895
3213.28968,0.06926
3211.36094,0.06989
3209.43219,0.07029
3207.50345,0.07026
3205.57470,0.07025
3203.64596,0.07056
3201.71721,0.07108
3199.78846,0.07156
3197.85972,0.07174
3195.93097,0.07179
3194.00223,0.07200
3192.07348,0.07246
3190.14474,0.07318
3188.21599,0.07384
3186.28725,0.07405
3184.35850,0.07401
3182.42976,0.07417
3180.50101,0.07461
3178.57227,0.07519
3176.64352,0.07577
3174.71478,0.07632
3172.78603,0.07665
3170.85729,0.07664
3168.92854,0.07669
3166.99979,0.07711
3165.07105,0.07755
3163.14230,0.07776
3161.21356,0.07808
3159.28481,0.07852
3157.35607,0.07883
3155.42732,0.07918
3153.49858,0.07961
3151.56983,0.07999
3149.64109,0.08027
3147.71234,0.08032
3145.78360,0.08054
3143.85485,0.08130
3141.92611,0.08205
3139.99736,0.08219
3138.06861,0.08194
3136.13987,0.08189
3134.21112,0.08228
3132.28238,0.08276
3130.35363,0.08286
3128.42489,0.08277
3126.49614,0.08290
3124.56740,0.08319
3122.63865,0.08346
3120.70991,0.08376
3118.78116,0.08408
3116.85242,0.08421
3114.92367,0.08392
3112.99493,0.08342
3111.06618,0.08319
3109.13744,0.08321
3107.20869,0.08320
3105.27994,0.08315
3103.35120,0.08317
3101.42245,0.08320
3099.49371,0.08290
3097.56496,0.08227
3095.63622,0.08188
3093.70747,0.08194
3091.77873,0.08192
3089.84998,0.08153
3087.92124,0.08105
3085.99249,0.08063
3084.06375,0.08026
3082.13500,0.08002
3080.20626,0.08002
3078.27751,0.08012
3076.34877,0.08005
3074.42002,0.07981
3072.49127,0.07972
3070.56253,0.07966
3068.63378,0.07928
3066.70504,0.07866
3064.77629,0.07808
3062.84755,0.07764
3060.91880,0.07730
3058.99006,0.07702
3057.06131,0.07676
3055.13257,0.07640
3053.20382,0.07563
3051.27508,0.07451
3049.34633,0.07329
3047.41759,0.07195
3045.48884,0.07050
3043.56009,0.06903
3041.63135,0.06761
3039.70260,0.06630
3037.77386,0.06512
3035.84511,0.06401
3033.91637,0.06295
3031.98762,0.06209
3030.05888,0.06164
3028.13013,0.06151
3026.20139,0.06153
3024.27264,0.06181
3022.34390,0.06246
3020.41515,0.06298
3018.48641,0.06300
3016.55766,0.06279
3014.62892,0.06252
3012.70017,0.06210
3010.77142,0.06138
3008.84268,0.06029
3006.91393,0.05900
3004.98519,0.05768
3003.05644,0.05630
3001.12770,0.05479
2999.19895,0.05310
2997.27021,0.05139
2995.34146,0.04979
2993.41272,0.04827
2991.48397,0.04678
2989.55523,0.04530
2987.62648,0.04375
2985.69774,0.04232
2983.76899,0.04130
2981.84025,0.04033
2979.91150,0.03907
2977.98275,0.03791
2976.05401,0.03689
2974.12526,0.03565
2972.19652,0.03431
2970.26777,0.03303
2968.33903,0.03178
2966.41028,0.03078
2964.48154,0.03012
2962.55279,0.02970
2960.62405,0.02958
2958.69530,0.02972
2956.76656,0.02999
2954.83781,0.03028
2952.90907,0.03044
2950.98032,0.03058
2949.05157,0.03076
2947.12283,0.03067
2945.19408,0.03027
2943.26534,0.02990
2941.33659,0.02956
2939.40785,0.02920
2937.47910,0.02900
2935.55036,0.02888
2933.62161,0.02857
2931.69287,0.02811
2929.76412,0.02775
2927.83538,0.02768
2925.90663,0.02792
2923.97789,0.02823
2922.04914,0.02857
2920.12040,0.02906
2918.19165,0.02960
2916.26290,0.03015
2914.33416,0.03074
2912.40541,0.03120
2910.47667,0.03150
2908.54792,0.03191
2906.61918,0.03252
2904.69043,0.03320
2902.76169,0.03389
2900.83294,0.03454
2898.90420,0.03500
2896.97545,0.03539
2895.04671,0.03581
2893.11796,0.03605
2891.18922,0.03617
2889.26047,0.03655
2887.33172,0.03715
2885.40298,0.03758
2883.47423,0.03758
2881.54549,0.03745
2879.61674,0.03757
2877.68800,0.03793
2875.75925,0.03821
2873.83051,0.03808
2871.90176,0.03760
2869.97302,0.03720
2868.04427,0.03696
2866.11553,0.03670
2864.18678,0.03632
2862.25804,0.03572
2860.32929,0.03500
2858.40055,0.03435
2856.47180,0.03384
2854.54305,0.03354
2852.61431,0.03363
2850.68556,0.03430
2848.75682,0.03565
2846.82807,0.03753
2844.89933,0.03976
2842.97058,0.04226
2841.04184,0.04486
2839.11309,0.04755
2837.18435,0.05042
2835.25560,0.05348
2833.32686,0.05672
2831.39811,0.06005
2829.46937,0.06345
2827.54062,0.06680
2825.61188,0.06993
2823.68313,0.07276
2821.75438,0.07524
2819.82564,0.07742
2817.89689,0.07953
2815.96815,0.08176
2814.03940,0.08408
2812.11066,0.08622
2810.18191,0.08797
2808.25317,0.08964
2806.32442,0.09150
2804.39568,0.09331
2802.46693,0.09506
2800.53819,0.09713
2798.60944,0.09948
2796.68070,0.10178
2794.75195,0.10390
2792.82320,0.10576
2790.89446,0.10745
2788.96571,0.10920
2787.03697,0.11096
2785.10822,0.11256
2783.17948,0.11401
2781.25073,0.11541
2779.32199,0.11668
2777.39324,0.11781
2775.46450,0.11891
2773.53575,0.11993
2771.60701,0.12080
2769.67826,0.12160
2767.74952,0.12239
2765.82077,0.12311
2763.89203,0.12386
2761.96328,0.12474
2760.03453,0.12559
2758.10579,0.12625
2756.17704,0.12681
2754.24830,0.12733
2752.31955,0.12782
2750.39081,0.12838
2748.46206,0.12891
2746.53332,0.12914
2744.60457,0.12901
2742.67583,0.12873
2740.74708,0.12820
2738.81834,0.12719
2736.88959,0.12566
2734.96085,0.12357
2733.03210,0.12063
2731.10336,0.11694
2729.17461,0.11358
2727.24586,0.11198
2725.31712,0.11270
2723.38837,0.11558
2721.45963,0.12019
2719.53088,0.12538
2717.60214,0.12983
2715.67339,0.13317
2713.74465,0.13557
2711.81590,0.13708
2709.88716,0.13792
2707.95841,0.13862
2706.02967,0.13947
2704.10092,0.14027
2702.17218,0.14084
2700.24343,0.14120
2698.31468,0.14141
2696.38594,0.14152
2694.45719,0.14153
2692.52845,0.14152
2690.59970,0.14151
2688.67096,0.14139
2686.74221,0.14127
2684.81347,0.14148
2682.88472,0.14200
2680.95598,0.14245
2679.02723,0.14273
2677.09849,0.14300
2675.16974,0.14307
2673.24100,0.14283
2671.31225,0.14267
2669.38351,0.14270
2667.45476,0.14268
2665.52601,0.14261
2663.59727,0.14251
2661.66852,0.14233
2659.73978,0.14209
2657.81103,0.14179
2655.88229,0.14141
2653.95354,0.14108
2652.02480,0.14066
2650.09605,0.13991
2648.16731,0.13883
2646.23856,0.13757
2644.30982,0.13625
2642.38107,0.13497
2640.45233,0.13356
2638.52358,0.13183
2636.59484,0.12996
2634.66609,0.12817
2632.73734,0.12640
2630.80860,0.12451
2628.87985,0.12269
2626.95111,0.12147
2625.02236,0.12105
2623.09362,0.12118
2621.16487,0.12137
2619.23613,0.12130
2617.30738,0.12093
2615.37864,0.12050
2613.44989,0.12018
2611.52115,0.11991
2609.59240,0.11952
2607.66366,0.11898
2605.73491,0.11832
2603.80616,0.11762
2601.87742,0.11688
2599.94867,0.11603
2598.01993,0.11508
2596.09118,0.11400
2594.16244,0.11283
2592.23369,0.11172
2590.30495,0.11077
2588.37620,0.10994
2586.44746,0.10918
2584.51871,0.10861
2582.58997,0.10822
2580.66122,0.10786
2578.73248,0.10749
2576.80373,0.10720
2574.87499,0.10696
2572.94624,0.10680
2571.01749,0.10682
2569.08875,0.10680
2567.16000,0.10630
2565.23126,0.10531
2563.30251,0.10414
2561.37377,0.10300
2559.44502,0.10195
2557.51628,0.10089
2555.58753,0.09963
2553.65879,0.09850
2551.73004,0.09788
2549.80130,0.09729
2547.87255,0.09621
2545.94381,0.09498
2544.01506,0.09392
2542.08631,0.09290
2540.15757,0.09148
2538.22882,0.08937
2536.30008,0.08681
2534.37133,0.08441
2532.44259,0.08241
2530.51384,0.08050
2528.58510,0.07865
2526.65635,0.07708
2524.72761,0.07581
2522.79886,0.07486
2520.87012,0.07440
2518.94137,0.07445
2517.01263,0.07492
2515.08388,0.07574
2513.15514,0.07694
2511.22639,0.07868
2509.29764,0.08084
2507.36890,0.08332
2505.44015,0.08618
2503.51141,0.08940
2501.58266,0.09285
2499.65392,0.09646
2497.72517,0.10019
2495.79643,0.10396
2493.86768,0.10782
2491.93894,0.11178
2490.01019,0.11574
2488.08145,0.11965
2486.15270,0.12379
2484.22396,0.12843
2482.29521,0.13341
2480.36647,0.13855
2478.43772,0.14385
2476.50897,0.14902
2474.58023,0.15370
2472.65148,0.15797
2470.72274,0.16193
2468.79399,0.16543
2466.86525,0.16837
2464.93650,0.17096
2463.00776,0.17332
2461.07901,0.17543
2459.15027,0.17748
2457.22152,0.17956
2455.29278,0.18155
2453.36403,0.18333
2451.43529,0.18500
2449.50654,0.18676
2447.57779,0.18862
2445.64905,0.19036
2443.72030,0.19191
2441.79156,0.19333
2439.86281,0.19467
2437.93407,0.19603
2436.00532,0.19735
2434.07658,0.19857
2432.14783,0.19978
2430.21909,0.20101
2428.29034,0.20221
2426.36160,0.20326
2424.43285,0.20415
2422.50411,0.20493
2420.57536,0.20567
2418.64662,0.20642
2416.71787,0.20718
2414.78912,0.20784
2412.86038,0.20841
2410.93163,0.20905
2409.00289,0.20983
2407.07414,0.21082
2405.14540,0.21200
2403.21665,0.21314
2401.28791,0.21416
2399.35916,0.21526
2397.43042,0.21641
2395.50167,0.21748
2393.57293,0.21865
2391.64418,0.21993
2389.71544,0.22100
2387.78669,0.22187
2385.85795,0.22281
2383.92920,0.22381
2382.00045,0.22480
2380.07171,0.22566
2378.14296,0.22620
2376.21422,0.22664
2374.28547,0.22731
2372.35673,0.22805
2370.42798,0.22870
2368.49924,0.22941
2366.57049,0.23008
2364.64175,0.23055
2362.71300,0.23091
2360.78426,0.23131
2358.85551,0.23176
2356.92677,0.23215
2354.99802,0.23244
2353.06927,0.23271
2351.14053,0.23302
2349.21178,0.23339
2347.28304,0.23358
2345.35429,0.23351
2343.42555,0.23345
2341.49680,0.23344
2339.56806,0.23340
2337.63931,0.23335
2335.71057,0.23347
2333.78182,0.23386
2331.85308,0.23450
2329.92433,0.23509
2327.99559,0.23529
2326.06684,0.23524
2324.13810,0.23529
2322.20935,0.23554
2320.28060,0.23586
2318.35186,0.23614
2316.42311,0.23639
2314.49437,0.23677
2312.56562,0.23726
2310.63688,0.23770
2308.70813,0.23803
2306.77939,0.23856
2304.85064,0.23944
2302.92190,0.24023
2300.99315,0.24060
2299.06441,0.24090
2297.13566,0.24133
2295.20692,0.24162
2293.27817,0.24167
2291.34943,0.24168
2289.42068,0.24171
2287.49193,0.24160
2285.56319,0.24131
2283.63444,0.24096
2281.70570,0.24065
2279.77695,0.24034
2277.84821,0.23990
2275.91946,0.23928
2273.99072,0.23864
2272.06197,0.23801
2270.13323,0.23736
2268.20448,0.23665
2266.27574,0.23575
2264.34699,0.23468
2262.41825,0.23362
2260.48950,0.23243
2258.56075,0.23073
2256.63201,0.22833
2254.70326,0.22515
2252.77452,0.22125
2250.84577,0.21675
2248.91703,0.21172
2246.98828,0.20653
2245.05954,0.20205
2243.13079,0.19934
2241.20205,0.19924
2239.27330,0.20211
2237.34456,0.20758
2235.41581,0.21444
2233.48707,0.22106
2231.55832,0.22611
2229.62958,0.22914
2227.70083,0.23070
2225.77208,0.23141
2223.84334,0.23151
2221.91459,0.23136
2219.98585,0.23119
2218.05710,0.23093
2216.12836,0.23071
2214.19961,0.23068
2212.27087,0.23069
2210.34212,0.23056
2208.41338,0.23022
2206.48463,0.22979
2204.55589,0.22934
2202.62714,0.22883
2200.69840,0.22829
2198.76965,0.22772
2196.84090,0.22724
2194.91216,0.22681
2192.98341,0.22623
2191.05467,0.22549
2189.12592,0.22472
2187.19718,0.22395
2185.26843,0.22319
2183.33969,0.22252
2181.41094,0.22179
2179.48220,0.22084
2177.55345,0.21976
2175.62471,0.21859
2173.69596,0.21744
2171.76722,0.21648
2169.83847,0.21565
2167.90973,0.21476
2165.98098,0.21368
2164.05223,0.21245
2162.12349,0.21133
2160.19474,0.21050
2158.26600,0.20970
2156.33725,0.20857
2154.40851,0.20719
2152.47976,0.20595
2150.55102,0.20508
2148.62227,0.20452
2146.69353,0.20430
2144.76478,0.20452
2142.83604,0.20503
2140.90729,0.20583
2138.97855,0.20698
2137.04980,0.20836
2135.12106,0.20987
2133.19231,0.21147
2131.26356,0.21314
2129.33482,0.21501
2127.40607,0.21712
2125.47733,0.21930
2123.54858,0.22138
2121.61984,0.22333
2119.69109,0.22522
2117.76235,0.22699
2115.83360,0.22829
2113.90486,0.22916
2111.97611,0.23007
2110.04737,0.23097
2108.11862,0.23147
2106.18988,0.23168
2104.26113,0.23189
2102.33238,0.23208
2100.40364,0.23227
2098.47489,0.23252
2096.54615,0.23270
2094.61740,0.23270
2092.68866,0.23264
2090.75991,0.23254
2088.83117,0.23216
2086.90242,0.23152
2084.97368,0.23092
2083.04493,0.23049
2081.11619,0.23009
2079.18744,0.22959
2077.25870,0.22897
2075.32995,0.22852
2073.40121,0.22832
2071.47246,0.22800
2069.54371,0.22759
2067.61497,0.22738
2065.68622,0.22722
2063.75748,0.22686
2061.82873,0.22648
2059.89999,0.22618
2057.97124,0.22570
2056.04250,0.22503
2054.11375,0.22437
2052.18501,0.22377
2050.25626,0.22315
2048.32752,0.22256
2046.39877,0.22212
2044.47003,0.22190
2042.54128,0.22186
2040.61254,0.22172
2038.68379,0.22145
2036.75504,0.22127
2034.82630,0.22130
2032.89755,0.22159
2030.96881,0.22207
2029.04006,0.22269
2027.11132,0.22342
2025.18257,0.22414
2023.25383,0.22487
2021.32508,0.22573
2019.39634,0.22665
2017.46759,0.22751
2015.53885,0.22837
2013.61010,0.22923
2011.68136,0.22991
2009.75261,0.23046
2007.82386,0.23108
2005.89512,0.23186
2003.96637,0.23256
2002.03763,0.23302
2000.10888,0.23345
1998.18014,0.23389
1996.25139,0.23416
1994.32265,0.23428
1992.39390,0.23434
1990.46516,0.23428
1988.53641,0.23407
1986.60767,0.23371
1984.67892,0.23312
1982.75018,0.23227
1980.82143,0.23124
1978.89269,0.23011
1976.96394,0.22894
1975.03519,0.22802
1973.10645,0.22771
1971.17770,0.22779
1969.24896,0.22763
1967.32021,0.22659
1965.39147,0.22443
1963.46272,0.22192
1961.53398,0.22045
1959.60523,0.22062
1957.67649,0.22176
1955.74774,0.22305
1953.81900,0.22407
1951.89025,0.22450
1949.96151,0.22436
1948.03276,0.22397
1946.10402,0.22347
1944.17527,0.22288
1942.24652,0.22248
1940.31778,0.22250
1938.38903,0.22284
1936.46029,0.22341
1934.53154,0.22419
1932.60280,0.22497
1930.67405,0.22556
1928.74531,0.22590
1926.81656,0.22593
1924.88782,0.22567
1922.95907,0.22528
1921.03033,0.22493
1919.10158,0.22444
1917.17284,0.22363
1915.24409,0.22270
1913.31534,0.22185
1911.38660,0.22091
1909.45785,0.21971
1907.52911,0.21829
1905.60036,0.21681
1903.67162,0.21545
1901.74287,0.21414
1899.81413,0.21269
1897.88538,0.21111
1895.95664,0.20953
1894.02789,0.20801
1892.09915,0.20663
1890.17040,0.20528
1888.24166,0.20370
1886.31291,0.20199
1884.38417,0.20045
1882.45542,0.19912
1880.52667,0.19792
1878.59793,0.19678
1876.66918,0.19565
1874.74044,0.19442
1872.81169,0.19303
1870.88295,0.19160
1868.95420,0.19024
1867.02546,0.18896
1865.09671,0.18768
1863.16797,0.18641
1861.23922,0.18525
1859.31048,0.18410
1857.38173,0.18282
1855.45299,0.18136
1853.52424,0.17964
1851.59549,0.17771
1849.66675,0.17559
1847.73800,0.17312
1845.80926,0.17010
1843.88051,0.16643
1841.95177,0.16246
1840.02302,0.15825
1838.09428,0.15347
1836.16553,0.14810
1834.23679,0.14229
1832.30804,0.13593
1830.37930,0.12894
1828.45055,0.12216
1826.52181,0.11650
1824.59306,0.11188
1822.66432,0.10828
1820.73557,0.10548
1818.80682,0.10304
1816.87808,0.10079
1814.94933,0.09856
1813.02059,0.09600
1811.09184,0.09262
1809.16310,0.08810
1807.23435,0.08255
1805.30561,0.07641
1803.37686,0.07040
1801.44812,0.06542
1799.51937,0.06222
1797.59063,0.06078
1795.66188,0.06061
1793.73314,0.06187
1791.80439,0.06514
1789.87565,0.07005
1787.94690,0.07555
1786.01815,0.08102
1784.08941,0.08599
1782.16066,0.09004
1780.23192,0.09303
1778.30317,0.09490
1776.37443,0.09567
1774.44568,0.09537
1772.51694,0.09414
1770.58819,0.09253
1768.65945,0.09069
1766.73070,0.08845
1764.80196,0.08594
1762.87321,0.08289
1760.94447,0.07907
1759.01572,0.07496
1757.08697,0.07056
1755.15823,0.06601
1753.22948,0.06162
1751.30074,0.05703
1749.37199,0.05256
1747.44325,0.04897
1745.51450,0.04618
1743.58576,0.04395
1741.65701,0.04225
1739.72827,0.04103
1737.79952,0.04043
1735.87078,0.04029
1733.94203,0.04011
1732.01329,0.03972
1730.08454,0.03955
1728.15580,0.03968
1726.22705,0.03979
1724.29830,0.03984
1722.36956,0.04004
1720.44081,0.04047
1718.51207,0.04117
1716.58332,0.04195
1714.65458,0.04262
1712.72583,0.04342
1710.79709,0.04447
1708.86834,0.04567
1706.93960,0.04694
1705.01085,0.04809
1703.08211,0.04900
1701.15336,0.04976
1699.22462,0.05026
1697.29587,0.05018
1695.36713,0.04957
1693.43838,0.04900
1691.50963,0.04861
1689.58089,0.04809
1687.65214,0.04739
1685.72340,0.04649
1683.79465,0.04538
1681.86591,0.04448
1679.93716,0.04365
1678.00842,0.04267
1676.07967,0.04163
1674.15093,0.04061
1672.22218,0.03972
1670.29344,0.03903
1668.36469,0.03839
1666.43595,0.03771
1664.50720,0.03710
1662.57845,0.03669
1660.64971,0.03660
1658.72096,0.03687
1656.79222,0.03738
1654.86347,0.03783
1652.93473,0.03799
1651.00598,0.03815
1649.07724,0.03852
1647.14849,0.03890
1645.21975,0.03912
1643.29100,0.03926
1641.36226,0.03950
1639.43351,0.03980
1637.50477,0.04003
1635.57602,0.04026
1633.64728,0.04055
1631.71853,0.04080
1629.78978,0.04101
1627.86104,0.04132
1625.93229,0.04179
1624.00355,0.04221
1622.07480,0.04261
1620.14606,0.04313
1618.21731,0.04373
1616.28857,0.04433
1614.35982,0.04468
1612.43108,0.04488
1610.50233,0.04508
1608.57359,0.04524
1606.64484,0.04539
1604.71610,0.04559
1602.78735,0.04597
1600.85861,0.04649
1598.92986,0.04698
1597.00111,0.04736
1595.07237,0.04774
1593.14362,0.04823
1591.21488,0.04889
1589.28613,0.04966
1587.35739,0.05036
1585.42864,0.05093
1583.49990,0.05144
1581.57115,0.05211
1579.64241,0.05304
1577.71366,0.05420
1575.78492,0.05548
1573.85617,0.05656
1571.92743,0.05743
1569.99868,0.05830
1568.06993,0.05910
1566.14119,0.05968
1564.21244,0.06001
1562.28370,0.06023
1560.35495,0.06046
1558.42621,0.06057
1556.49746,0.06053
1554.56872,0.06042
1552.63997,0.06020
1550.71123,0.05988
1548.78248,0.05958
1546.85374,0.05927
1544.92499,0.05887
1542.99625,0.05853
1541.06750,0.05839
1539.13876,0.05840
1537.21001,0.05872
1535.28126,0.05933
1533.35252,0.05990
1531.42377,0.06035
1529.49503,0.06077
1527.56628,0.06094
1525.63754,0.06070
1523.70879,0.06016
1521.78005,0.05941
1519.85130,0.05864
1517.92256,0.05808
1515.99381,0.05759
1514.06507,0.05705
1512.13632,0.05652
1510.20758,0.05610
1508.27883,0.05562
1506.35008,0.05453
1504.42134,0.05318
1502.49259,0.05229
1500.56385,0.05162
1498.63510,0.05072
1496.70636,0.04957
1494.77761,0.04865
1492.84887,0.04804
1490.92012,0.04728
1488.99138,0.04629
1487.06263,0.04537
1485.13389,0.04451
1483.20514,0.04373
1481.27640,0.04298
1479.34765,0.04208
1477.41891,0.04108
1475.49016,0.04010
1473.56141,0.03903
1471.63267,0.03786
1469.70392,0.03689
1467.77518,0.03621
1465.84643,0.03563
1463.91769,0.03509
1461.98894,0.03469
1460.06020,0.03456
1458.13145,0.03454
1456.20271,0.03434
1454.27396,0.03398
1452.34522,0.03362
1450.41647,0.03345
1448.48773,0.03355
1446.55898,0.03370
1444.63024,0.03379
1442.70149,0.03391
1440.77274,0.03406
1438.84400,0.03435
1436.91525,0.03481
1434.98651,0.03525
1433.05776,0.03558
1431.12902,0.03589
1429.20027,0.03623
1427.27153,0.03670
1425.34278,0.03725
1423.41404,0.03765
1421.48529,0.03774
1419.55655,0.03764
1417.62780,0.03775
1415.69906,0.03803
1413.77031,0.03818
1411.84156,0.03829
1409.91282,0.03842
1407.98407,0.03847
1406.05533,0.03847
1404.12658,0.03847
1402.19784,0.03856
1400.26909,0.03885
1398.34035,0.03914
1396.41160,0.03917
1394.48286,0.03910
1392.55411,0.03913
1390.62537,0.03924
1388.69662,0.03938
1386.76788,0.03931
1384.83913,0.03899
1382.91039,0.03866
1380.98164,0.03830
1379.05289,0.03776
1377.12415,0.03750
1375.19540,0.03809
1373.26666,0.03934
1371.33791,0.04063
1369.40917,0.04174
1367.48042,0.04259
1365.55168,0.04317
1363.62293,0.04365
1361.69419,0.04422
1359.76544,0.04493
1357.83670,0.04567
1355.90795,0.04629
1353.97921,0.04682
1352.05046,0.04740
1350.12172,0.04806
1348.19297,0.04871
1346.26422,0.04934
1344.33548,0.04997
1342.40673,0.05054
1340.47799,0.05104
1338.54924,0.05145
1336.62050,0.05169
1334.69175,0.05181
1332.76301,0.05183
1330.83426,0.05173
1328.90552,0.05161
1326.97677,0.05147
1325.04803,0.05127
1323.11928,0.05104
1321.19054,0.05097
1319.26179,0.05098
1317.33304,0.05088
1315.40430,0.05066
1313.47555,0.05043
1311.54681,0.05031
1309.61806,0.05037
1307.68932,0.05052
1305.76057,0.05066
1303.83183,0.05081
1301.90308,0.05119
1299.97434,0.05184
1298.04559,0.05248
1296.11685,0.05291
1294.18810,0.05317
1292.25936,0.05320
1290.33061,0.05302
1288.40187,0.05279
1286.47312,0.05259
1284.54437,0.05238
1282.61563,0.05222
1280.68688,0.05216
1278.75814,0.05209
1276.82939,0.05192
1274.90065,0.05171
1272.97190,0.05138
1271.04316,0.05066
1269.11441,0.04966
1267.18567,0.04874
1265.25692,0.04806
1263.32818,0.04740
1261.39943,0.04673
1259.47069,0.04643
1257.54194,0.04649
1255.61320,0.04658
1253.68445,0.04657
1251.75570,0.04632
1249.82696,0.04574
1247.89821,0.04510
1245.96947,0.04467
1244.04072,0.04438
1242.11198,0.04413
1240.18323,0.04386
1238.25449,0.04363
1236.32574,0.04351
1234.39700,0.04346
1232.46825,0.04339
1230.53951,0.04331
1228.61076,0.04338
1226.68202,0.04352
1224.75327,0.04352
1222.82452,0.04339
1220.89578,0.04322
1218.96703,0.04299
1217.03829,0.04284
1215.10954,0.04274
1213.18080,0.04266
1211.25205,0.04259
1209.32331,0.04226
1207.39456,0.04148
1205.46582,0.04075
1203.53707,0.04052
1201.60833,0.04053
1199.67958,0.04060
1197.75084,0.04066
1195.82209,0.04070
1193.89335,0.04074
1191.96460,0.04054
1190.03585,0.04020
1188.10711,0.04014
1186.17836,0.04020
1184.24962,0.03999
1182.32087,0.03969
1180.39213,0.03947
1178.46338,0.03916
1176.53464,0.03873
1174.60589,0.03835
1172.67715,0.03805
1170.74840,0.03769
1168.81966,0.03716
1166.89091,0.03667
1164.96217,0.03649
1163.03342,0.03659
1161.10467,0.03678
1159.17593,0.03703
1157.24718,0.03737
1155.31844,0.03758
1153.38969,0.03765
1151.46095,0.03785
1149.53220,0.03812
1147.60346,0.03821
1145.67471,0.03810
1143.74597,0.03798
1141.81722,0.03787
1139.88848,0.03768
1137.95973,0.03758
1136.03099,0.03767
1134.10224,0.03779
1132.17350,0.03778
1130.24475,0.03758
1128.31600,0.03722
1126.38726,0.03699
1124.45851,0.03714
1122.52977,0.03774
1120.60102,0.03871
1118.67228,0.03967
1116.74353,0.04020
1114.81479,0.04033
1112.88604,0.04027
1110.95730,0.04003
1109.02855,0.03973
1107.09981,0.03964
1105.17106,0.03973
1103.24232,0.03955
1101.31357,0.03895
1099.38483,0.03828
1097.45608,0.03786
1095.52733,0.03760
1093.59859,0.03709
1091.66984,0.03633
1089.74110,0.03588
1087.81235,0.03610
1085.88361,0.03679
1083.95486,0.03750
1082.02612,0.03809
1080.09737,0.03869
1078.16863,0.03926
1076.23988,0.03977
1074.31114,0.04009
1072.38239,0.04025
1070.45365,0.04066
1068.52490,0.04148
1066.59615,0.04234
1064.66741,0.04266
1062.73866,0.04239
1060.80992,0.04197
1058.88117,0.04168
1056.95243,0.04142
1055.02368,0.04108
1053.09494,0.04078
1051.16619,0.04061
1049.23745,0.04054
1047.30870,0.04039
1045.37996,0.04010
1043.45121,0.04008
1041.52247,0.04041
1039.59372,0.04053
1037.66498,0.04047
1035.73623,0.04061
1033.80748,0.04076
1031.87874,0.04068
1029.94999,0.04058
1028.02125,0.04077
1026.09250,0.04133
1024.16376,0.04198
1022.23501,0.04240
1020.30627,0.04261
1018.37752,0.04278
1016.44878,0.04295
1014.52003,0.04321
1012.59129,0.04348
1010.66254,0.04364
1008.73380,0.04394
1006.80505,0.04451
1004.87631,0.04487
1002.94756,0.04487
1001.01881,0.04508
999.09007,0.04561
997.16132,0.04592
995.23258,0.04590
993.30383,0.04601
991.37509,0.04645
989.44634,0.04712
987.51760,0.04784
985.58885,0.04840
983.66011,0.04874
981.73136,0.04906
979.80262,0.04942
977.87387,0.04948
975.94513,0.04885
974.01638,0.04780
972.08763,0.04700
970.15889,0.04671
968.23014,0.04668
966.30140,0.04708
964.37265,0.04834
962.44391,0.05060
960.51516,0.05347
958.58642,0.05623
956.65767,0.05841
954.72893,0.05988
952.80018,0.06079
950.87144,0.06136
948.94269,0.06172
947.01395,0.06184
945.08520,0.06181
943.15646,0.06188
941.22771,0.06207
939.29896,0.06223
937.37022,0.06212
935.44147,0.06178
933.51273,0.06162
931.58398,0.06175
929.65524,0.06201
927.72649,0.06240
925.79775,0.06280
923.86900,0.06313
921.94026,0.06341
920.01151,0.06358
918.08277,0.06362
916.15402,0.06349
914.22528,0.06332
912.29653,0.06344
910.36779,0.06412
908.43904,0.06542
906.51029,0.06712
904.58155,0.06901
902.65280,0.07049
900.72406,0.07084
898.79531,0.07039
896.86657,0.06996
894.93782,0.06916
893.00908,0.06743
891.08033,0.06488
889.15159,0.06111
887.22284,0.05559
885.29410,0.04931
883.36535,0.04427
881.43661,0.04123
879.50786,0.03946
877.57911,0.03831
875.65037,0.03774
873.72162,0.03825
871.79288,0.04039
869.86413,0.04410
867.93539,0.04858
866.00664,0.05253
864.07790,0.05509
862.14915,0.05633
860.22041,0.05678
858.29166,0.05673
856.36292,0.05582
854.43417,0.05391
852.50543,0.05152
850.57668,0.04905
848.64794,0.04749
846.71919,0.04806
844.79044,0.04977
842.86170,0.05057
840.93295,0.05011
839.00421,0.04924
837.07546,0.04875
835.14672,0.04887
833.21797,0.04943
831.28923,0.05005
829.36048,0.05046
827.43174,0.05090
825.50299,0.05161
823.57425,0.05253
821.64550,0.05339
819.71676,0.05415
817.78801,0.05527
815.85926,0.05670
813.93052,0.05776
812.00177,0.05842
810.07303,0.05887
808.14428,0.05888
806.21554,0.05851
804.28679,0.05841
802.35805,0.05885
800.42930,0.05930
798.50056,0.05965
796.57181,0.06038
794.64307,0.06129
792.71432,0.06200
790.78558,0.06274
788.85683,0.06352
786.92809,0.06397
784.99934,0.06424
783.07059,0.06452
781.14185,0.06440
779.21310,0.06366
777.28436,0.06245
775.35561,0.06100
773.42687,0.05944
771.49812,0.05774
769.56938,0.05616
767.64063,0.05498
765.71189,0.05392
763.78314,0.05283
761.85440,0.05209
759.92565,0.05181
757.99691,0.05182
756.06816,0.05189
754.13942,0.05174
752.21067,0.05163
750.28192,0.05180
748.35318,0.05191
746.42443,0.05182
744.49569,0.05161
742.56694,0.05091
740.63820,0.04959
738.70945,0.04805
736.78071,0.04626
734.85196,0.04390
732.92322,0.04140
730.99447,0.03939
729.06573,0.03845
727.13698,0.03884
725.20824,0.03970
723.27949,0.03976
721.35074,0.03858
719.42200,0.03640
717.49325,0.03398
715.56451,0.03238
713.63576,0.03223
711.70702,0.03378
709.77827,0.03660
707.84953,0.03920
705.92078,0.04046
703.99204,0.04078
702.06329,0.04110
700.13455,0.04224
698.20580,0.04474
696.27706,0.04822
694.34831,0.05154
692.41957,0.05376
690.49082,0.05490
688.56207,0.05559
686.63333,0.05572
684.70458,0.05520
682.77584,0.05469
680.84709,0.05438
678.91835,0.05396
676.98960,0.05344
675.06086,0.05304
673.13211,0.05295
671.20337,0.05296
669.27462,0.05283
667.34588,0.05278
665.41713,0.05266
663.48839,0.05217
661.55964,0.05151
659.63090,0.05075
657.70215,0.04981
655.77340,0.04902
653.84466,0.04872
651.91591,0.04897
649.98717,0.04913
648.05842,0.04885
646.12968,0.04873
644.20093,0.04881
642.27219,0.04877
640.34344,0.04888
638.41470,0.04926
636.48595,0.04915
634.55721,0.04823
632.62846,0.04736
630.69972,0.04687
628.77097,0.04639
626.84222,0.04573
624.91348,0.04490
622.98473,0.04377
621.05599,0.04292
619.12724,0.04285
617.19850,0.04240
615.26975,0.04081
613.34101,0.03876
611.41226,0.03760
609.48352,0.03796
607.55477,0.03871
605.62603,0.03856
603.69728,0.03698
601.76854,0.03544
599.83979,0.03622
