7497.03301,0.49824
7495.10426,0.49695
7493.17552,0.50115
7491.24677,0.50727
7489.31803,0.50885
7487.38928,0.50884
7485.46054,0.51233
7483.53179,0.51427
7481.60305,0.51124
7479.67430,0.50821
7477.74556,0.50796
7475.81681,0.50770
7473.88807,0.50598
7471.95932,0.50544
7470.03057,0.50573
7468.10183,0.50513
7466.17308,0.50656
7464.24434,0.51019
7462.31559,0.51131
7460.38685,0.50953
7458.45810,0.50849
7456.52936,0.50707
7454.60061,0.50138
7452.67187,0.49623
7450.74312,0.49800
7448.81438,0.50223
7446.88563,0.50476
7444.95689,0.50686
7443.02814,0.50730
7441.09940,0.50435
7439.17065,0.49899
7437.24190,0.49457
7435.31316,0.49282
7433.38441,0.49349
7431.45567,0.49751
7429.52692,0.50329
7427.59818,0.50768
7425.66943,0.50808
7423.74069,0.50283
7421.81194,0.49612
7419.88320,0.49246
7417.95445,0.49271
7416.02571,0.49634
7414.09696,0.49848
7412.16822,0.49687
7410.23947,0.49629
7408.31073,0.49713
7406.38198,0.49567
7404.45323,0.49347
7402.52449,0.49455
7400.59574,0.49813
7398.66700,0.50102
7396.73825,0.50308
7394.80951,0.50327
7392.88076,0.50000
7390.95202,0.49755
7389.02327,0.50010
7387.09453,0.50499
7385.16578,0.50830
7383.23704,0.50935
7381.30829,0.50794
7379.37955,0.50446
7377.45080,0.49999
7375.52205,0.49587
7373.59331,0.49537
7371.66456,0.49850
7369.73582,0.50196
7367.80707,0.50523
7365.87833,0.50609
7363.94958,0.50163
7362.02084,0.49683
7360.09209,0.49599
7358.16335,0.49482
7356.23460,0.49345
7354.30586,0.49642
7352.37711,0.50098
7350.44837,0.50233
7348.51962,0.49850
7346.59088,0.49309
7344.66213,0.49336
7342.73338,0.49769
7340.80464,0.50012
7338.87589,0.49964
7336.94715,0.49680
7335.01840,0.49470
7333.08966,0.49569
7331.16091,0.49694
7329.23217,0.49725
7327.30342,0.49768
7325.37468,0.49651
7323.44593,0.49288
7321.51719,0.48926
7319.58844,0.48791
7317.65970,0.48838
7315.73095,0.48877
7313.80221,0.48995
7311.87346,0.49219
7309.94471,0.49155
7308.01597,0.48682
7306.08722,0.48355
7304.15848,0.48562
7302.22973,0.48785
7300.30099,0.48657
7298.37224,0.48766
7296.44350,0.49317
7294.51475,0.49585
7292.58601,0.49318
7290.65726,0.49159
7288.72852,0.49363
7286.79977,0.49355
7284.87103,0.48824
7282.94228,0.48258
7281.01353,0.47995
7279.08479,0.47972
7277.15604,0.48307
7275.22730,0.48790
7273.29855,0.48900
7271.36981,0.48624
7269.44106,0.48291
7267.51232,0.48168
7265.58357,0.48290
7263.65483,0.48596
7261.72608,0.48994
7259.79734,0.49207
7257.86859,0.49027
7255.93985,0.48626
7254.01110,0.48340
7252.08236,0.48194
7250.15361,0.48031
7248.22486,0.47897
7246.29612,0.47924
7244.36737,0.48182
7242.43863,0.48485
7240.50988,0.48486
7238.58114,0.48242
7236.65239,0.48246
7234.72365,0.48436
7232.79490,0.48235
7230.86616,0.47746
7228.93741,0.47382
7227.00867,0.47255
7225.07992,0.47303
7223.15118,0.47326
7221.22243,0.47435
7219.29369,0.47665
7217.36494,0.47631
7215.43619,0.47307
7213.50745,0.47122
7211.57870,0.47286
7209.64996,0.47454
7207.72121,0.47246
7205.79247,0.46854
7203.86372,0.46584
7201.93498,0.46483
7200.00623,0.46600
7198.07749,0.47001
7196.14874,0.47555
7194.22000,0.47946
7192.29125,0.48065
7190.36251,0.47989
7188.43376,0.47704
7186.50501,0.47330
7184.57627,0.47076
7182.64752,0.46973
7180.71878,0.46936
7178.79003,0.46922
7176.86129,0.47015
7174.93254,0.47263
7173.00380,0.47459
7171.07505,0.47272
7169.14631,0.46772
7167.21756,0.46523
7165.28882,0.46835
7163.36007,0.47356
7161.43133,0.47652
7159.50258,0.47560
7157.57384,0.47229
7155.64509,0.47122
7153.71634,0.47261
7151.78760,0.47404
7149.85885,0.47684
7147.93011,0.47794
7146.00136,0.47412
7144.07262,0.47055
7142.14387,0.46978
7140.21513,0.46830
7138.28638,0.46642
7136.35764,0.46779
7134.42889,0.47106
7132.50015,0.47221
7130.57140,0.47064
7128.64266,0.46786
7126.71391,0.46586
7124.78516,0.46652
7122.85642,0.46942
7120.92767,0.47205
7118.99893,0.47297
7117.07018,0.47132
7115.14144,0.46785
7113.21269,0.46566
7111.28395,0.46498
7109.35520,0.46582
7107.42646,0.46871
7105.49771,0.47087
7103.56897,0.47161
7101.64022,0.47286
7099.71148,0.47457
7097.78273,0.47488
7095.85399,0.47336
7093.92524,0.47248
7091.99649,0.47334
7090.06775,0.47351
7088.13900,0.47131
7086.21026,0.46844
7084.28151,0.46633
7082.35277,0.46438
7080.42402,0.46327
7078.49528,0.46373
7076.56653,0.46519
7074.63779,0.46809
7072.70904,0.47054
7070.78030,0.46900
7068.85155,0.46570
7066.92281,0.46510
7064.99406,0.46720
7063.06532,0.47023
7061.13657,0.47270
7059.20782,0.47250
7057.27908,0.46881
7055.35033,0.46477
7053.42159,0.46355
7051.49284,0.46433
7049.56410,0.46536
7047.63535,0.46581
7045.70661,0.46576
7043.77786,0.46634
7041.84912,0.46801
7039.92037,0.46943
7037.99163,0.46788
7036.06288,0.46411
7034.13414,0.46275
7032.20539,0.46422
7030.27664,0.46542
7028.34790,0.46699
7026.41915,0.46994
7024.49041,0.47153
7022.56166,0.47021
7020.63292,0.46862
7018.70417,0.46998
7016.77543,0.47272
7014.84668,0.47257
7012.91794,0.47020
7010.98919,0.46917
7009.06045,0.47043
7007.13170,0.47236
7005.20296,0.47303
7003.27421,0.47285
7001.34547,0.47172
6999.41672,0.46818
6997.48797,0.46515
6995.55923,0.46563
6993.63048,0.46685
6991.70174,0.46785
6989.77299,0.47099
6987.84425,0.47434
6985.91550,0.47472
6983.98676,0.47350
6982.05801,0.47221
6980.12927,0.46971
6978.20052,0.46789
6976.27178,0.46976
6974.34303,0.47194
6972.41429,0.47061
6970.48554,0.46804
6968.55680,0.46758
6966.62805,0.46970
6964.69930,0.47156
6962.77056,0.47149
6960.84181,0.47148
6958.91307,0.47199
6956.98432,0.47165
6955.05558,0.47089
6953.12683,0.47046
6951.19809,0.47044
6949.26934,0.46975
6947.34060,0.46774
6945.41185,0.46689
6943.48311,0.46784
6941.55436,0.46829
6939.62562,0.46738
6937.69687,0.46635
6935.76812,0.46875
6933.83938,0.47468
6931.91063,0.47805
6929.98189,0.47580
6928.05314,0.47138
6926.12440,0.46938
6924.19565,0.47106
6922.26691,0.47423
6920.33816,0.47559
6918.40942,0.47415
6916.48067,0.47368
6914.55193,0.47441
6912.62318,0.47143
6910.69444,0.46794
6908.76569,0.47059
6906.83695,0.47646
6904.90820,0.47925
6902.97945,0.47812
6901.05071,0.47605
6899.12196,0.47496
6897.19322,0.47509
6895.26447,0.47600
6893.33573,0.47584
6891.40698,0.47418
6889.47824,0.47324
6887.54949,0.47337
6885.62075,0.47342
6883.69200,0.47355
6881.76326,0.47363
6879.83451,0.47386
6877.90577,0.47575
6875.97702,0.47856
6874.04828,0.47882
6872.11953,0.47611
6870.19078,0.47451
6868.26204,0.47608
6866.33329,0.47778
6864.40455,0.47674
6862.47580,0.47447
6860.54706,0.47381
6858.61831,0.47414
6856.68957,0.47344
6854.76082,0.47273
6852.83208,0.47406
6850.90333,0.47698
6848.97459,0.47914
6847.04584,0.47820
6845.11710,0.47509
6843.18835,0.47401
6841.25960,0.47491
6839.33086,0.47418
6837.40211,0.47346
6835.47337,0.47529
6833.54462,0.47717
6831.61588,0.47759
6829.68713,0.47792
6827.75839,0.47863
6825.82964,0.47875
6823.90090,0.47744
6821.97215,0.47619
6820.04341,0.47723
6818.11466,0.47862
6816.18592,0.47780
6814.25717,0.47746
6812.32843,0.47964
6810.39968,0.48134
6808.47093,0.48060
6806.54219,0.47886
6804.61344,0.47753
6802.68470,0.47762
6800.75595,0.47910
6798.82721,0.47989
6796.89846,0.47954
6794.96972,0.48001
6793.04097,0.48180
6791.11223,0.48337
6789.18348,0.48347
6787.25474,0.48239
6785.32599,0.48116
6783.39725,0.48098
6781.46850,0.48233
6779.53975,0.48418
6777.61101,0.48475
6775.68226,0.48347
6773.75352,0.48241
6771.82477,0.48273
6769.89603,0.48229
6767.96728,0.48087
6766.03854,0.48037
6764.10979,0.48031
6762.18105,0.47943
6760.25230,0.47812
6758.32356,0.47790
6756.39481,0.48027
6754.46607,0.48357
6752.53732,0.48514
6750.60858,0.48598
6748.67983,0.48579
6746.75108,0.48393
6744.82234,0.48323
6742.89359,0.48371
6740.96485,0.48292
6739.03610,0.48103
6737.10736,0.47933
6735.17861,0.47910
6733.24987,0.48021
6731.32112,0.48053
6729.39238,0.48045
6727.46363,0.48244
6725.53489,0.48423
6723.60614,0.48342
6721.67740,0.48267
6719.74865,0.48258
6717.81991,0.48182
6715.89116,0.48147
6713.96241,0.48125
6712.03367,0.48009
6710.10492,0.47962
6708.17618,0.48076
6706.24743,0.48158
6704.31869,0.48169
6702.38994,0.48175
6700.46120,0.48063
6698.53245,0.47862
6696.60371,0.47739
6694.67496,0.47759
6692.74622,0.48000
6690.81747,0.48339
6688.88873,0.48561
6686.95998,0.48716
6685.03123,0.48845
6683.10249,0.48904
6681.17374,0.48832
6679.24500,0.48513
6677.31625,0.48151
6675.38751,0.48056
6673.45876,0.48148
6671.53002,0.48283
6669.60127,0.48409
6667.67253,0.48467
6665.74378,0.48616
6663.81504,0.48944
6661.88629,0.49112
6659.95755,0.48935
6658.02880,0.48771
6656.10006,0.48892
6654.17131,0.49039
6652.24256,0.48890
6650.31382,0.48659
6648.38507,0.48697
6646.45633,0.48907
6644.52758,0.49059
6642.59884,0.49115
6640.67009,0.49124
6638.74135,0.49088
6636.81260,0.49008
6634.88386,0.48924
6632.95511,0.48733
6631.02637,0.48425
6629.09762,0.48339
6627.16888,0.48564
6625.24013,0.48735
6623.31139,0.48786
6621.38264,0.48898
6619.45389,0.48986
6617.52515,0.48908
6615.59640,0.48690
6613.66766,0.48527
6611.73891,0.48563
6609.81017,0.48706
6607.88142,0.48904
6605.95268,0.49044
6604.02393,0.48998
6602.09519,0.48999
6600.16644,0.49187
6598.23770,0.49315
6596.30895,0.49244
6594.38021,0.49056
6592.45146,0.48877
6590.52271,0.48854
6588.59397,0.49087
6586.66522,0.49472
6584.73648,0.49694
6582.80773,0.49601
6580.87899,0.49339
6578.95024,0.49125
6577.02150,0.49093
6575.09275,0.49106
6573.16401,0.49015
6571.23526,0.48950
6569.30652,0.48955
6567.37777,0.49026
6565.44903,0.49175
6563.52028,0.49255
6561.59154,0.49253
6559.66279,0.49271
6557.73404,0.49322
6555.80530,0.49382
6553.87655,0.49350
6551.94781,0.49263
6550.01906,0.49282
6548.09032,0.49324
6546.16157,0.49303
6544.23283,0.49304
6542.30408,0.49305
6540.37534,0.49264
6538.44659,0.49254
6536.51785,0.49268
6534.58910,0.49312
6532.66036,0.49440
6530.73161,0.49499
6528.80287,0.49316
6526.87412,0.49022
6524.94537,0.48853
6523.01663,0.48938
6521.08788,0.49185
6519.15914,0.49317
6517.23039,0.49261
6515.30165,0.49133
6513.37290,0.49027
6511.44416,0.49137
6509.51541,0.49406
6507.58667,0.49463
6505.65792,0.49409
6503.72918,0.49485
6501.80043,0.49484
6499.87169,0.49360
6497.94294,0.49217
6496.01419,0.49061
6494.08545,0.49044
6492.15670,0.49165
6490.22796,0.49235
6488.29921,0.49276
6486.37047,0.49379
6484.44172,0.49553
6482.51298,0.49630
6480.58423,0.49367
6478.65549,0.48985
6476.72674,0.48922
6474.79800,0.49112
6472.86925,0.49226
6470.94051,0.49203
6469.01176,0.49178
6467.08302,0.49162
6465.15427,0.49126
6463.22552,0.49119
6461.29678,0.49141
6459.36803,0.49222
6457.43929,0.49323
6455.51054,0.49330
6453.58180,0.49353
6451.65305,0.49528
6449.72431,0.49667
6447.79556,0.49554
6445.86682,0.49377
6443.93807,0.49343
6442.00933,0.49345
6440.08058,0.49322
6438.15184,0.49336
6436.22309,0.49418
6434.29434,0.49526
6432.36560,0.49503
6430.43685,0.49326
6428.50811,0.49175
6426.57936,0.49105
6424.65062,0.49066
6422.72187,0.49097
6420.79313,0.49197
6418.86438,0.49318
6416.93564,0.49385
6415.00689,0.49340
6413.07815,0.49306
6411.14940,0.49292
6409.22066,0.49217
6407.29191,0.49227
6405.36317,0.49278
6403.43442,0.49169
6401.50567,0.49018
6399.57693,0.49017
6397.64818,0.49065
6395.71944,0.49050
6393.79069,0.49068
6391.86195,0.49155
6389.93320,0.49260
6388.00446,0.49348
6386.07571,0.49424
6384.14697,0.49503
6382.21822,0.49549
6380.28948,0.49569
6378.36073,0.49574
6376.43199,0.49554
6374.50324,0.49410
6372.57450,0.49068
6370.64575,0.48843
6368.71700,0.48952
6366.78826,0.49178
6364.85951,0.49316
6362.93077,0.49309
6361.00202,0.49232
6359.07328,0.49235
6357.14453,0.49313
6355.21579,0.49330
6353.28704,0.49282
6351.35830,0.49279
6349.42955,0.49300
6347.50081,0.49231
6345.57206,0.49090
6343.64332,0.48985
6341.71457,0.48931
6339.78582,0.48939
6337.85708,0.49035
6335.92833,0.49098
6333.99959,0.49087
6332.07084,0.49170
6330.14210,0.49345
6328.21335,0.49396
6326.28461,0.49306
6324.35586,0.49281
6322.42712,0.49329
6320.49837,0.49305
6318.56963,0.49308
6316.64088,0.49413
6314.71214,0.49470
6312.78339,0.49441
6310.85465,0.49390
6308.92590,0.49353
6306.99715,0.49366
6305.06841,0.49503
6303.13966,0.49741
6301.21092,0.49781
6299.28217,0.49524
6297.35343,0.49277
6295.42468,0.49183
6293.49594,0.49136
6291.56719,0.49129
6289.63845,0.49247
6287.70970,0.49506
6285.78096,0.49783
6283.85221,0.49910
6281.92347,0.49875
6279.99472,0.49774
6278.06598,0.49615
6276.13723,0.49487
6274.20848,0.49540
6272.27974,0.49661
6270.35099,0.49694
6268.42225,0.49662
6266.49350,0.49570
6264.56476,0.49502
6262.63601,0.49535
6260.70727,0.49548
6258.77852,0.49537
6256.84978,0.49557
6254.92103,0.49519
6252.99229,0.49479
6251.06354,0.49526
6249.13480,0.49546
6247.20605,0.49590
6245.27730,0.49797
6243.34856,0.49989
6241.41981,0.49975
6239.49107,0.49764
6237.56232,0.49505
6235.63358,0.49452
6233.70483,0.49621
6231.77609,0.49748
6229.84734,0.49753
6227.91860,0.49724
6225.98985,0.49616
6224.06111,0.49449
6222.13236,0.49404
6220.20362,0.49481
6218.27487,0.49473
6216.34613,0.49375
6214.41738,0.49414
6212.48863,0.49553
6210.55989,0.49570
6208.63114,0.49452
6206.70240,0.49276
6204.77365,0.49190
6202.84491,0.49308
6200.91616,0.49529
6198.98742,0.49743
6197.05867,0.49857
6195.12993,0.49772
6193.20118,0.49615
6191.27244,0.49638
6189.34369,0.49781
6187.41495,0.49810
6185.48620,0.49710
6183.55746,0.49555
6181.62871,0.49435
6179.69996,0.49425
6177.77122,0.49450
6175.84247,0.49518
6173.91373,0.49687
6171.98498,0.49764
6170.05624,0.49591
6168.12749,0.49335
6166.19875,0.49253
6164.27000,0.49370
6162.34126,0.49497
6160.41251,0.49565
6158.48377,0.49643
6156.55502,0.49697
6154.62628,0.49611
6152.69753,0.49366
6150.76878,0.49202
6148.84004,0.49294
6146.91129,0.49461
6144.98255,0.49556
6143.05380,0.49619
6141.12506,0.49653
6139.19631,0.49565
6137.26757,0.49371
6135.33882,0.49294
6133.41008,0.49353
6131.48133,0.49300
6129.55259,0.49097
6127.62384,0.48914
6125.69510,0.48803
6123.76635,0.48725
6121.83761,0.48732
6119.90886,0.48813
6117.98011,0.48830
6116.05137,0.48762
6114.12262,0.48726
6112.19388,0.48833
6110.26513,0.48953
6108.33639,0.48824
6106.40764,0.48547
6104.47890,0.48390
6102.55015,0.48355
6100.62141,0.48388
6098.69266,0.48518
6096.76392,0.48624
6094.83517,0.48573
6092.90643,0.48494
6090.97768,0.48528
6089.04893,0.48587
6087.12019,0.48556
6085.19144,0.48500
6083.26270,0.48561
6081.33395,0.48672
6079.40521,0.48675
6077.47646,0.48652
6075.54772,0.48724
6073.61897,0.48809
6071.69023,0.48795
6069.76148,0.48672
6067.83274,0.48512
6065.90399,0.48387
6063.97525,0.48273
6062.04650,0.48164
6060.11776,0.48155
6058.18901,0.48261
6056.26026,0.48302
6054.33152,0.48182
6052.40277,0.48056
6050.47403,0.48016
6048.54528,0.48005
6046.61654,0.47980
6044.68779,0.47892
6042.75905,0.47761
6040.83030,0.47750
6038.90156,0.47876
6036.97281,0.47925
6035.04407,0.47819
6033.11532,0.47662
6031.18658,0.47500
6029.25783,0.47414
6027.32909,0.47464
6025.40034,0.47501
6023.47159,0.47395
6021.54285,0.47268
6019.61410,0.47250
6017.68536,0.47248
6015.75661,0.47214
6013.82787,0.47235
6011.89912,0.47208
6009.97038,0.47063
6008.04163,0.46962
6006.11289,0.46903
6004.18414,0.46858
6002.25540,0.46930
6000.32665,0.46985
5998.39791,0.46869
5996.46916,0.46731
5994.54041,0.46699
5992.61167,0.46676
5990.68292,0.46602
5988.75418,0.46534
5986.82543,0.46458
5984.89669,0.46377
5982.96794,0.46371
5981.03920,0.46393
5979.11045,0.46294
5977.18171,0.46091
5975.25296,0.45962
5973.32422,0.45972
5971.39547,0.46030
5969.46673,0.46084
5967.53798,0.46102
5965.60924,0.45991
5963.68049,0.45789
5961.75174,0.45601
5959.82300,0.45396
5957.89425,0.45211
5955.96551,0.45123
5954.03676,0.45062
5952.10802,0.44967
5950.17927,0.44886
5948.25053,0.44861
5946.32178,0.44821
5944.39304,0.44697
5942.46429,0.44556
5940.53555,0.44453
5938.60680,0.44336
5936.67806,0.44216
5934.74931,0.44142
5932.82057,0.44061
5930.89182,0.43945
5928.96307,0.43803
5927.03433,0.43572
5925.10558,0.43318
5923.17684,0.43177
5921.24809,0.43057
5919.31935,0.42899
5917.39060,0.42832
5915.46186,0.42804
5913.53311,0.42673
5911.60437,0.42432
5909.67562,0.42078
5907.74688,0.41696
5905.81813,0.41402
5903.88939,0.41095
5901.96064,0.40706
5900.03189,0.40382
5898.10315,0.40177
5896.17440,0.39941
5894.24566,0.39587
5892.31691,0.39243
5890.38817,0.39018
5888.45942,0.38839
5886.53068,0.38669
5884.60193,0.38552
5882.67319,0.38489
5880.74444,0.38496
5878.81570,0.38571
5876.88695,0.38686
5874.95821,0.38870
5873.02946,0.39028
5871.10072,0.39001
5869.17197,0.38849
5867.24322,0.38675
5865.31448,0.38535
5863.38573,0.38478
5861.45699,0.38387
5859.52824,0.38143
5857.59950,0.37762
5855.67075,0.37353
5853.74201,0.37077
5851.81326,0.36858
5849.88452,0.36554
5847.95577,0.36269
5846.02703,0.36057
5844.09828,0.35850
5842.16954,0.35632
5840.24079,0.35383
5838.31205,0.35114
5836.38330,0.34894
5834.45455,0.34797
5832.52581,0.34823
5830.59706,0.34840
5828.66832,0.34809
5826.73957,0.34811
5824.81083,0.34830
5822.88208,0.34843
5820.95334,0.34915
5819.02459,0.35063
5817.09585,0.35186
5815.16710,0.35249
5813.23836,0.35316
5811.30961,0.35353
5809.38087,0.35310
5807.45212,0.35307
5805.52337,0.35498
5803.59463,0.35765
5801.66588,0.35843
5799.73714,0.35755
5797.80839,0.35740
5795.87965,0.35865
5793.95090,0.36071
5792.02216,0.36346
5790.09341,0.36597
5788.16467,0.36686
5786.23592,0.36679
5784.30718,0.36724
5782.37843,0.36878
5780.44969,0.37120
5778.52094,0.37291
5776.59220,0.37325
5774.66345,0.37379
5772.73470,0.37484
5770.80596,0.37552
5768.87721,0.37609
5766.94847,0.37685
5765.01972,0.37773
5763.09098,0.37900
5761.16223,0.38052
5759.23349,0.38180
5757.30474,0.38267
5755.37600,0.38327
5753.44725,0.38383
5751.51851,0.38418
5749.58976,0.38378
5747.66102,0.38286
5745.73227,0.38238
5743.80352,0.38208
5741.87478,0.38131
5739.94603,0.38087
5738.01729,0.38154
5736.08854,0.38302
5734.15980,0.38381
5732.23105,0.38268
5730.30231,0.38112
5728.37356,0.38129
5726.44482,0.38254
5724.51607,0.38280
5722.58733,0.38165
5720.65858,0.38038
5718.72984,0.38005
5716.80109,0.38031
5714.87235,0.38034
5712.94360,0.38005
5711.01485,0.37978
5709.08611,0.37964
5707.15736,0.37949
5705.22862,0.37933
5703.29987,0.37940
5701.37113,0.38000
5699.44238,0.38082
5697.51364,0.38050
5695.58489,0.37903
5693.65615,0.37829
5691.72740,0.37866
5689.79866,0.37935
5687.86991,0.38026
5685.94117,0.38082
5684.01242,0.38075
5682.08368,0.38029
5680.15493,0.37957
5678.22618,0.37962
5676.29744,0.38084
5674.36869,0.38222
5672.43995,0.38330
5670.51120,0.38396
5668.58246,0.38425
5666.65371,0.38506
5664.72497,0.38659
5662.79622,0.38785
5660.86748,0.38794
5658.93873,0.38711
5657.00999,0.38704
5655.08124,0.38878
5653.15250,0.39100
5651.22375,0.39182
5649.29500,0.39118
5647.36626,0.39040
5645.43751,0.39012
5643.50877,0.39004
5641.58002,0.39037
5639.65128,0.39115
5637.72253,0.39127
5635.79379,0.39052
5633.86504,0.39003
5631.93630,0.38996
5630.00755,0.38966
5628.07881,0.38880
5626.15006,0.38754
5624.22132,0.38618
5622.29257,0.38529
5620.36383,0.38542
5618.43508,0.38616
5616.50633,0.38659
5614.57759,0.38719
5612.64884,0.38912
5610.72010,0.39193
5608.79135,0.39408
5606.86261,0.39548
5604.93386,0.39706
5603.00512,0.39885
5601.07637,0.40085
5599.14763,0.40308
5597.21888,0.40465
5595.29014,0.40607
5593.36139,0.40865
5591.43265,0.41156
5589.50390,0.41378
5587.57516,0.41555
5585.64641,0.41743
5583.71766,0.41955
5581.78892,0.42141
5579.86017,0.42262
5577.93143,0.42370
5576.00268,0.42499
5574.07394,0.42611
5572.14519,0.42708
5570.21645,0.42841
5568.28770,0.42968
5566.35896,0.43033
5564.43021,0.43117
5562.50147,0.43277
5560.57272,0.43429
5558.64398,0.43548
5556.71523,0.43655
5554.78648,0.43662
5552.85774,0.43572
5550.92899,0.43589
5549.00025,0.43770
5547.07150,0.43905
5545.14276,0.43889
5543.21401,0.43842
5541.28527,0.43886
5539.35652,0.43972
5537.42778,0.44005
5535.49903,0.44044
5533.57029,0.44153
5531.64154,0.44264
5529.71280,0.44310
5527.78405,0.44281
5525.85531,0.44220
5523.92656,0.44195
5521.99781,0.44221
5520.06907,0.44303
5518.14032,0.44427
5516.21158,0.44497
5514.28283,0.44469
5512.35409,0.44416
5510.42534,0.44401
5508.49660,0.44436
5506.56785,0.44507
5504.63911,0.44560
5502.71036,0.44546
5500.78162,0.44477
5498.85287,0.44350
5496.92413,0.44236
5494.99538,0.44290
5493.06664,0.44449
5491.13789,0.44520
5489.20914,0.44512
5487.28040,0.44553
5485.35165,0.44666
5483.42291,0.44735
5481.49416,0.44693
5479.56542,0.44626
5477.63667,0.44596
5475.70793,0.44607
5473.77918,0.44656
5471.85044,0.44702
5469.92169,0.44721
5467.99295,0.44711
5466.06420,0.44686
5464.13546,0.44706
5462.20671,0.44738
5460.27796,0.44702
5458.34922,0.44691
5456.42047,0.44775
5454.49173,0.44851
5452.56298,0.44841
5450.63424,0.44804
5448.70549,0.44811
5446.77675,0.44849
5444.84800,0.44882
5442.91926,0.44876
5440.99051,0.44800
5439.06177,0.44731
5437.13302,0.44762
5435.20428,0.44810
5433.27553,0.44772
5431.34679,0.44727
5429.41804,0.44769
5427.48929,0.44856
5425.56055,0.44910
5423.63180,0.44923
5421.70306,0.44906
5419.77431,0.44836
5417.84557,0.44772
5415.91682,0.44793
5413.98808,0.44818
5412.05933,0.44769
5410.13059,0.44720
5408.20184,0.44737
5406.27310,0.44773
5404.34435,0.44766
5402.41561,0.44755
5400.48686,0.44783
5398.55811,0.44810
5396.62937,0.44831
5394.70062,0.44858
5392.77188,0.44845
5390.84313,0.44821
5388.91439,0.44869
5386.98564,0.44928
5385.05690,0.44915
5383.12815,0.44859
5381.19941,0.44826
5379.27066,0.44837
5377.34192,0.44873
5375.41317,0.44912
5373.48443,0.44916
5371.55568,0.44845
5369.62694,0.44762
5367.69819,0.44725
5365.76944,0.44692
5363.84070,0.44717
5361.91195,0.44866
5359.98321,0.44983
5358.05446,0.44968
5356.12572,0.44917
5354.19697,0.44935
5352.26823,0.45039
5350.33948,0.45112
5348.41074,0.45087
5346.48199,0.45032
5344.55325,0.45001
5342.62450,0.45008
5340.69576,0.45038
5338.76701,0.45042
5336.83827,0.44985
5334.90952,0.44870
5332.98077,0.44731
5331.05203,0.44621
5329.12328,0.44596
5327.19454,0.44669
5325.26579,0.44792
5323.33705,0.44902
5321.40830,0.44938
5319.47956,0.44888
5317.55081,0.44857
5315.62207,0.44896
5313.69332,0.44934
5311.76458,0.44945
5309.83583,0.44924
5307.90709,0.44900
5305.97834,0.44926
5304.04959,0.44963
5302.12085,0.44958
5300.19210,0.44918
5298.26336,0.44867
5296.33461,0.44839
5294.40587,0.44894
5292.47712,0.45020
5290.54838,0.45102
5288.61963,0.45096
5286.69089,0.45059
5284.76214,0.45010
5282.83340,0.44944
5280.90465,0.44884
5278.97591,0.44855
5277.04716,0.44857
5275.11842,0.44866
5273.18967,0.44837
5271.26092,0.44746
5269.33218,0.44638
5267.40343,0.44576
5265.47469,0.44545
5263.54594,0.44509
5261.61720,0.44499
5259.68845,0.44512
5257.75971,0.44478
5255.83096,0.44370
5253.90222,0.44262
5251.97347,0.44224
5250.04473,0.44207
5248.11598,0.44135
5246.18724,0.44028
5244.25849,0.43982
5242.32975,0.44033
5240.40100,0.44070
5238.47225,0.43998
5236.54351,0.43870
5234.61476,0.43823
5232.68602,0.43881
5230.75727,0.43918
5228.82853,0.43863
5226.89978,0.43776
5224.97104,0.43721
5223.04229,0.43685
5221.11355,0.43631
5219.18480,0.43539
5217.25606,0.43422
5215.32731,0.43371
5213.39857,0.43432
5211.46982,0.43528
5209.54107,0.43576
5207.61233,0.43561
5205.68358,0.43520
5203.75484,0.43515
5201.82609,0.43549
5199.89735,0.43530
5197.96860,0.43438
5196.03986,0.43365
5194.11111,0.43330
5192.18237,0.43307
5190.25362,0.43288
5188.32488,0.43264
5186.39613,0.43251
5184.46739,0.43278
5182.53864,0.43332
5180.60990,0.43379
5178.68115,0.43373
5176.75240,0.43301
5174.82366,0.43224
5172.89491,0.43198
5170.96617,0.43202
5169.03742,0.43214
5167.10868,0.43252
5165.17993,0.43292
5163.25119,0.43288
5161.32244,0.43260
5159.39370,0.43248
5157.46495,0.43241
5155.53621,0.43260
5153.60746,0.43325
5151.67872,0.43366
5149.74997,0.43383
5147.82123,0.43429
5145.89248,0.43433
5143.96373,0.43372
5142.03499,0.43355
5140.10624,0.43402
5138.17750,0.43443
5136.24875,0.43484
5134.32001,0.43550
5132.39126,0.43601
5130.46252,0.43608
5128.53377,0.43585
5126.60503,0.43545
5124.67628,0.43503
5122.74754,0.43473
5120.81879,0.43463
5118.89005,0.43486
5116.96130,0.43539
5115.03255,0.43581
5113.10381,0.43587
5111.17506,0.43560
5109.24632,0.43521
5107.31757,0.43523
5105.38883,0.43586
5103.46008,0.43629
5101.53134,0.43640
5099.60259,0.43666
5097.67385,0.43685
5095.74510,0.43697
5093.81636,0.43731
5091.88761,0.43742
5089.95887,0.43720
5088.03012,0.43710
5086.10138,0.43728
5084.17263,0.43751
5082.24388,0.43769
5080.31514,0.43786
5078.38639,0.43794
5076.45765,0.43802
5074.52890,0.43820
5072.60016,0.43832
5070.67141,0.43848
5068.74267,0.43889
5066.81392,0.43931
5064.88518,0.43942
5062.95643,0.43955
5061.02769,0.44000
5059.09894,0.44047
5057.17020,0.44046
5055.24145,0.44003
5053.31270,0.43982
5051.38396,0.44005
5049.45521,0.44033
5047.52647,0.44033
5045.59772,0.44009
5043.66898,0.43980
5041.74023,0.43939
5039.81149,0.43904
5037.88274,0.43923
5035.95400,0.43962
5034.02525,0.43966
5032.09651,0.43932
5030.16776,0.43889
5028.23902,0.43902
5026.31027,0.43976
5024.38153,0.44026
5022.45278,0.44028
5020.52403,0.44018
5018.59529,0.43999
5016.66654,0.43955
5014.73780,0.43919
5012.80905,0.43903
5010.88031,0.43906
5008.95156,0.43969
5007.02282,0.44039
5005.09407,0.44023
5003.16533,0.43983
5001.23658,0.43981
4999.30784,0.43969
4997.37909,0.43926
4995.45035,0.43869
4993.52160,0.43812
4991.59286,0.43806
4989.66411,0.43863
4987.73536,0.43901
4985.80662,0.43869
4983.87787,0.43798
4981.94913,0.43729
4980.02038,0.43701
4978.09164,0.43729
4976.16289,0.43756
4974.23415,0.43736
4972.30540,0.43688
4970.37666,0.43638
4968.44791,0.43601
4966.51917,0.43595
4964.59042,0.43629
4962.66168,0.43645
4960.73293,0.43587
4958.80418,0.43523
4956.87544,0.43524
4954.94669,0.43539
4953.01795,0.43500
4951.08920,0.43448
4949.16046,0.43427
4947.23171,0.43409
4945.30297,0.43395
4943.37422,0.43394
4941.44548,0.43344
4939.51673,0.43262
4937.58799,0.43249
4935.65924,0.43295
4933.73050,0.43301
4931.80175,0.43210
4929.87301,0.43073
4927.94426,0.42999
4926.01551,0.43013
4924.08677,0.43034
4922.15802,0.43018
4920.22928,0.42989
4918.30053,0.42973
4916.37179,0.42971
4914.44304,0.42975
4912.51430,0.42998
4910.58555,0.43040
4908.65681,0.43019
4906.72806,0.42932
4904.79932,0.42890
4902.87057,0.42911
4900.94183,0.42930
4899.01308,0.42912
4897.08434,0.42838
4895.15559,0.42771
4893.22684,0.42781
4891.29810,0.42793
4889.36935,0.42751
4887.44061,0.42704
4885.51186,0.42680
4883.58312,0.42672
4881.65437,0.42663
4879.72563,0.42633
4877.79688,0.42597
4875.86814,0.42581
4873.93939,0.42587
4872.01065,0.42596
4870.08190,0.42582
4868.15316,0.42550
4866.22441,0.42533
4864.29566,0.42531
4862.36692,0.42532
4860.43817,0.42521
4858.50943,0.42497
4856.58068,0.42496
4854.65194,0.42517
4852.72319,0.42523
4850.79445,0.42515
4848.86570,0.42503
4846.93696,0.42499
4845.00821,0.42517
4843.07947,0.42502
4841.15072,0.42423
4839.22198,0.42343
4837.29323,0.42302
4835.36449,0.42291
4833.43574,0.42307
4831.50699,0.42325
4829.57825,0.42309
4827.64950,0.42288
4825.72076,0.42304
4823.79201,0.42332
4821.86327,0.42334
4819.93452,0.42322
4818.00578,0.42304
4816.07703,0.42283
4814.14829,0.42279
4812.21954,0.42261
4810.29080,0.42193
4808.36205,0.42165
4806.43331,0.42200
4804.50456,0.42162
4802.57582,0.42050
4800.64707,0.42000
4798.71832,0.42039
4796.78958,0.42071
4794.86083,0.42030
4792.93209,0.41966
4791.00334,0.41936
4789.07460,0.41923
4787.14585,0.41899
4785.21711,0.41874
4783.28836,0.41856
4781.35962,0.41859
4779.43087,0.41871
4777.50213,0.41830
4775.57338,0.41754
4773.64464,0.41715
4771.71589,0.41697
4769.78714,0.41684
4767.85840,0.41689
4765.92965,0.41688
4764.00091,0.41675
4762.07216,0.41670
4760.14342,0.41653
4758.21467,0.41601
4756.28593,0.41553
4754.35718,0.41550
4752.42844,0.41543
4750.49969,0.41488
4748.57095,0.41423
4746.64220,0.41394
4744.71346,0.41403
4742.78471,0.41402
4740.85597,0.41368
4738.92722,0.41350
4736.99847,0.41353
4735.06973,0.41322
4733.14098,0.41249
4731.21224,0.41163
4729.28349,0.41087
4727.35475,0.41012
4725.42600,0.40942
4723.49726,0.40884
4721.56851,0.40819
4719.63977,0.40739
4717.71102,0.40664
4715.78228,0.40609
4713.85353,0.40565
4711.92479,0.40503
4709.99604,0.40425
4708.06729,0.40367
4706.13855,0.40330
4704.20980,0.40297
4702.28106,0.40277
4700.35231,0.40253
4698.42357,0.40205
4696.49482,0.40159
4694.56608,0.40137
4692.63733,0.40138
4690.70859,0.40161
4688.77984,0.40186
4686.85110,0.40202
4684.92235,0.40205
4682.99361,0.40209
4681.06486,0.40209
4679.13612,0.40175
4677.20737,0.40120
4675.27862,0.40079
4673.34988,0.40075
4671.42113,0.40084
4669.49239,0.40045
4667.56364,0.39942
4665.63490,0.39821
4663.70615,0.39750
4661.77741,0.39748
4659.84866,0.39752
4657.91992,0.39691
4655.99117,0.39578
4654.06243,0.39473
4652.13368,0.39406
4650.20494,0.39349
4648.27619,0.39269
4646.34745,0.39157
4644.41870,0.39012
4642.48995,0.38852
4640.56121,0.38689
4638.63246,0.38534
4636.70372,0.38417
4634.77497,0.38344
4632.84623,0.38289
4630.91748,0.38239
4628.98874,0.38188
4627.05999,0.38115
4625.13125,0.38041
4623.20250,0.38027
4621.27376,0.38074
4619.34501,0.38155
4617.41627,0.38248
4615.48752,0.38271
4613.55877,0.38214
4611.63003,0.38167
4609.70128,0.38152
4607.77254,0.38136
4605.84379,0.38140
4603.91505,0.38192
4601.98630,0.38273
4600.05756,0.38345
4598.12881,0.38394
4596.20007,0.38434
4594.27132,0.38494
4592.34258,0.38554
4590.41383,0.38576
4588.48509,0.38588
4586.55634,0.38604
4584.62760,0.38607
4582.69885,0.38645
4580.77010,0.38732
4578.84136,0.38797
4576.91261,0.38799
4574.98387,0.38769
4573.05512,0.38768
4571.12638,0.38818
4569.19763,0.38909
4567.26889,0.39031
4565.34014,0.39143
4563.41140,0.39211
4561.48265,0.39255
4559.55391,0.39283
4557.62516,0.39297
4555.69642,0.39326
4553.76767,0.39357
4551.83893,0.39361
4549.91018,0.39353
4547.98143,0.39343
4546.05269,0.39317
4544.12394,0.39256
4542.19520,0.39180
4540.26645,0.39135
4538.33771,0.39088
4536.40896,0.38989
4534.48022,0.38891
4532.55147,0.38827
4530.62273,0.38766
4528.69398,0.38709
4526.76524,0.38636
4524.83649,0.38508
4522.90775,0.38390
4520.97900,0.38336
4519.05025,0.38308
4517.12151,0.38292
4515.19276,0.38321
4513.26402,0.38374
4511.33527,0.38412
4509.40653,0.38451
4507.47778,0.38487
4505.54904,0.38501
4503.62029,0.38508
4501.69155,0.38518
4499.76280,0.38502
4497.83406,0.38441
4495.90531,0.38381
4493.97657,0.38351
4492.04782,0.38319
4490.11908,0.38261
4488.19033,0.38168
4486.26158,0.38064
4484.33284,0.37989
4482.40409,0.37901
4480.47535,0.37756
4478.54660,0.37607
4476.61786,0.37513
4474.68911,0.37446
4472.76037,0.37370
4470.83162,0.37291
4468.90288,0.37213
4466.97413,0.37131
4465.04539,0.37037
4463.11664,0.36900
4461.18790,0.36707
4459.25915,0.36498
4457.33041,0.36315
4455.40166,0.36145
4453.47291,0.35959
4451.54417,0.35758
4449.61542,0.35555
4447.68668,0.35351
4445.75793,0.35130
4443.82919,0.34892
4441.90044,0.34659
4439.97170,0.34432
4438.04295,0.34203
4436.11421,0.33955
4434.18546,0.33671
4432.25672,0.33367
4430.32797,0.33045
4428.39923,0.32678
4426.47048,0.32287
4424.54173,0.31930
4422.61299,0.31600
4420.68424,0.31256
4418.75550,0.30906
4416.82675,0.30551
4414.89801,0.30168
4412.96926,0.29773
4411.04052,0.29388
4409.11177,0.29006
4407.18303,0.28651
4405.25428,0.28380
4403.32554,0.28190
4401.39679,0.28012
4399.46805,0.27812
4397.53930,0.27596
4395.61056,0.27387
4393.68181,0.27199
4391.75306,0.27020
4389.82432,0.26820
4387.89557,0.26605
4385.96683,0.26406
4384.03808,0.26228
4382.10934,0.26058
4380.18059,0.25900
4378.25185,0.25747
4376.32310,0.25553
4374.39436,0.25322
4372.46561,0.25125
4370.53687,0.24987
4368.60812,0.24867
4366.67938,0.24728
4364.75063,0.24561
4362.82189,0.24363
4360.89314,0.24155
4358.96439,0.23972
4357.03565,0.23832
4355.10690,0.23729
4353.17816,0.23623
4351.24941,0.23468
4349.32067,0.23277
4347.39192,0.23107
4345.46318,0.22978
4343.53443,0.22867
4341.60569,0.22735
4339.67694,0.22554
4337.74820,0.22364
4335.81945,0.22227
4333.89071,0.22153
4331.96196,0.22130
4330.03321,0.22155
4328.10447,0.22244
4326.17572,0.22406
4324.24698,0.22592
4322.31823,0.22779
4320.38949,0.23006
4318.46074,0.23259
4316.53200,0.23471
4314.60325,0.23612
4312.67451,0.23681
4310.74576,0.23674
4308.81702,0.23616
4306.88827,0.23540
4304.95953,0.23477
4303.03078,0.23427
4301.10204,0.23333
4299.17329,0.23180
4297.24454,0.23047
4295.31580,0.22985
4293.38705,0.22956
4291.45831,0.22937
4289.52956,0.22943
4287.60082,0.22971
4285.67207,0.23023
4283.74333,0.23121
4281.81458,0.23240
4279.88584,0.23358
4277.95709,0.23490
4276.02835,0.23614
4274.09960,0.23695
4272.17086,0.23730
4270.24211,0.23727
4268.31336,0.23706
4266.38462,0.23680
4264.45587,0.23648
4262.52713,0.23618
4260.59838,0.23569
4258.66964,0.23492
4256.74089,0.23443
4254.81215,0.23455
4252.88340,0.23492
4250.95466,0.23529
4249.02591,0.23579
4247.09717,0.23671
4245.16842,0.23789
4243.23968,0.23877
4241.31093,0.23930
4239.38219,0.24013
4237.45344,0.24149
4235.52469,0.24258
4233.59595,0.24298
4231.66720,0.24349
4229.73846,0.24457
4227.80971,0.24577
4225.88097,0.24674
4223.95222,0.24766
4222.02348,0.24860
4220.09473,0.24964
4218.16599,0.25106
4216.23724,0.25275
4214.30850,0.25432
4212.37975,0.25563
4210.45101,0.25656
4208.52226,0.25740
4206.59352,0.25844
4204.66477,0.25955
4202.73602,0.26066
4200.80728,0.26164
4198.87853,0.26241
4196.94979,0.26305
4195.02104,0.26349
4193.09230,0.26371
4191.16355,0.26394
4189.23481,0.26428
4187.30606,0.26470
4185.37732,0.26521
4183.44857,0.26564
4181.51983,0.26583
4179.59108,0.26588
4177.66234,0.26566
4175.73359,0.26525
4173.80484,0.26511
4171.87610,0.26526
4169.94735,0.26532
4168.01861,0.26526
4166.08986,0.26537
4164.16112,0.26553
4162.23237,0.26560
4160.30363,0.26598
4158.37488,0.26673
4156.44614,0.26740
4154.51739,0.26793
4152.58865,0.26870
4150.65990,0.26978
4148.73116,0.27095
4146.80241,0.27192
4144.87367,0.27285
4142.94492,0.27425
4141.01617,0.27599
4139.08743,0.27750
4137.15868,0.27871
4135.22994,0.27980
4133.30119,0.28064
4131.37245,0.28093
4129.44370,0.28096
4127.51496,0.28125
4125.58621,0.28178
4123.65747,0.28216
4121.72872,0.28224
4119.79998,0.28226
4117.87123,0.28256
4115.94249,0.28302
4114.01374,0.28321
4112.08500,0.28322
4110.15625,0.28319
4108.22750,0.28289
4106.29876,0.28240
4104.37001,0.28200
4102.44127,0.28160
4100.51252,0.28106
4098.58378,0.28040
4096.65503,0.27979
4094.72629,0.27936
4092.79754,0.27902
4090.86880,0.27870
4088.94005,0.27829
4087.01131,0.27773
4085.08256,0.27709
4083.15382,0.27646
4081.22507,0.27567
4079.29632,0.27435
4077.36758,0.27240
4075.43883,0.27002
4073.51009,0.26711
4071.58134,0.26361
4069.65260,0.25973
4067.72385,0.25593
4065.79511,0.25281
4063.86636,0.25103
4061.93762,0.25110
4060.00887,0.25277
4058.08013,0.25515
4056.15138,0.25766
4054.22264,0.26024
4052.29389,0.26256
4050.36515,0.26438
4048.43640,0.26597
4046.50765,0.26731
4044.57891,0.26803
4042.65016,0.26822
4040.72142,0.26830
4038.79267,0.26851
4036.86393,0.26893
4034.93518,0.26936
4033.00644,0.26973
4031.07769,0.27039
4029.14895,0.27133
4027.22020,0.27215
4025.29146,0.27268
4023.36271,0.27304
4021.43397,0.27344
4019.50522,0.27397
4017.57648,0.27439
4015.64773,0.27434
4013.71898,0.27398
4011.79024,0.27367
4009.86149,0.27356
4007.93275,0.27354
4006.00400,0.27340
4004.07526,0.27313
4002.14651,0.27299
4000.21777,0.27306
3998.28902,0.27304
3996.36028,0.27276
3994.43153,0.27254
3992.50279,0.27261
3990.57404,0.27285
3988.64530,0.27281
3986.71655,0.27225
3984.78780,0.27157
3982.85906,0.27131
3980.93031,0.27131
3979.00157,0.27119
3977.07282,0.27106
3975.14408,0.27109
3973.21533,0.27102
3971.28659,0.27069
3969.35784,0.27019
3967.42910,0.26957
3965.50035,0.26908
3963.57161,0.26883
3961.64286,0.26861
3959.71412,0.26836
3957.78537,0.26814
3955.85663,0.26800
3953.92788,0.26800
3951.99913,0.26813
3950.07039,0.26825
3948.14164,0.26827
3946.21290,0.26834
3944.28415,0.26861
3942.35541,0.26888
3940.42666,0.26909
3938.49792,0.26954
3936.56917,0.27032
3934.64043,0.27138
3932.71168,0.27275
3930.78294,0.27432
3928.85419,0.27575
3926.92545,0.27694
3924.99670,0.27807
3923.06795,0.27923
3921.13921,0.28043
3919.21046,0.28158
3917.28172,0.28265
3915.35297,0.28367
3913.42423,0.28439
3911.49548,0.28481
3909.56674,0.28547
3907.63799,0.28645
3905.70925,0.28726
3903.78050,0.28764
3901.85176,0.28785
3899.92301,0.28814
3897.99427,0.28851
3896.06552,0.28893
3894.13678,0.28947
3892.20803,0.29012
3890.27928,0.29076
3888.35054,0.29140
3886.42179,0.29201
3884.49305,0.29261
3882.56430,0.29338
3880.63556,0.29426
3878.70681,0.29515
3876.77807,0.29611
3874.84932,0.29727
3872.92058,0.29854
3870.99183,0.29941
3869.06309,0.29985
3867.13434,0.30054
3865.20560,0.30129
3863.27685,0.30157
3861.34811,0.30186
3859.41936,0.30261
3857.49061,0.30362
3855.56187,0.30443
3853.63312,0.30469
3851.70438,0.30490
3849.77563,0.30560
3847.84689,0.30656
3845.91814,0.30764
3843.98940,0.30878
3842.06065,0.30966
3840.13191,0.31007
3838.20316,0.31034
3836.27442,0.31082
3834.34567,0.31139
3832.41693,0.31183
3830.48818,0.31211
3828.55943,0.31236
3826.63069,0.31270
3824.70194,0.31335
3822.77320,0.31402
3820.84445,0.31419
3818.91571,0.31432
3816.98696,0.31475
3815.05822,0.31508
3813.12947,0.31539
3811.20073,0.31594
3809.27198,0.31656
3807.34324,0.31691
3805.41449,0.31701
3803.48575,0.31715
3801.55700,0.31742
3799.62826,0.31793
3797.69951,0.31849
3795.77076,0.31883
3793.84202,0.31917
3791.91327,0.31956
3789.98453,0.31978
3788.05578,0.31984
3786.12704,0.31986
3784.19829,0.31982
3782.26955,0.31971
3780.34080,0.31933
3778.41206,0.31858
3776.48331,0.31794
3774.55457,0.31778
3772.62582,0.31790
3770.69708,0.31795
3768.76833,0.31781
3766.83959,0.31772
3764.91084,0.31764
3762.98209,0.31744
3761.05335,0.31733
3759.12460,0.31740
3757.19586,0.31755
3755.26711,0.31758
3753.33837,0.31728
3751.40962,0.31707
3749.48088,0.31763
3747.55213,0.31848
3745.62339,0.31856
3743.69464,0.31792
3741.76590,0.31748
3739.83715,0.31718
3737.90841,0.31682
3735.97966,0.31661
3734.05091,0.31640
3732.12217,0.31608
3730.19342,0.31587
3728.26468,0.31562
3726.33593,0.31516
3724.40719,0.31464
3722.47844,0.31407
3720.54970,0.31335
3718.62095,0.31280
3716.69221,0.31249
3714.76346,0.31182
3712.83472,0.31043
3710.90597,0.30871
3708.97723,0.30701
3707.04848,0.30547
3705.11974,0.30406
3703.19099,0.30230
3701.26224,0.30002
3699.33350,0.29780
3697.40475,0.29573
3695.47601,0.29381
3693.54726,0.29190
3691.61852,0.28929
3689.68977,0.28549
3687.76103,0.28109
3685.83228,0.27723
3683.90354,0.27378
3681.97479,0.26986
3680.04605,0.26530
3678.11730,0.26059
3676.18856,0.25630
3674.25981,0.25323
3672.33107,0.25110
3670.40232,0.24863
3668.47357,0.24574
3666.54483,0.24319
3664.61608,0.24092
3662.68734,0.23852
3660.75859,0.23579
3658.82985,0.23276
3656.90110,0.22927
3654.97236,0.22577
3653.04361,0.22292
3651.11487,0.21978
3649.18612,0.21561
3647.25738,0.21165
3645.32863,0.20852
3643.39989,0.20548
3641.47114,0.20226
3639.54239,0.19909
3637.61365,0.19592
3635.68490,0.19252
3633.75616,0.18910
3631.82741,0.18597
3629.89867,0.18230
3627.96992,0.17778
3626.04118,0.17392
3624.11243,0.17081
3622.18369,0.16763
3620.25494,0.16415
3618.32620,0.16072
3616.39745,0.15797
3614.46871,0.15551
3612.53996,0.15273
3610.61122,0.14992
3608.68247,0.14734
3606.75372,0.14507
3604.82498,0.14314
3602.89623,0.14126
3600.96749,0.13919
3599.03874,0.13710
3597.11000,0.13524
3595.18125,0.13342
3593.25251,0.13139
3591.32376,0.12955
3589.39502,0.12794
3587.46627,0.12601
3585.53753,0.12394
3583.60878,0.12218
3581.68004,0.12053
3579.75129,0.11882
3577.82254,0.11718
3575.89380,0.11568
3573.96505,0.11427
3572.03631,0.11299
3570.10756,0.11176
3568.17882,0.11024
3566.25007,0.10838
3564.32133,0.10659
3562.39258,0.10504
3560.46384,0.10375
3558.53509,0.10276
3556.60635,0.10193
3554.67760,0.10114
3552.74886,0.10021
3550.82011,0.09897
3548.89137,0.09766
3546.96262,0.09656
3545.03387,0.09550
3543.10513,0.09436
3541.17638,0.09356
3539.24764,0.09323
3537.31889,0.09276
3535.39015,0.09187
3533.46140,0.09088
3531.53266,0.08994
3529.60391,0.08909
3527.67517,0.08837
3525.74642,0.08768
3523.81768,0.08690
3521.88893,0.08613
3519.96019,0.08555
3518.03144,0.08502
3516.10270,0.08425
3514.17395,0.08333
3512.24520,0.08253
3510.31646,0.08199
3508.38771,0.08155
3506.45897,0.08112
3504.53022,0.08063
3502.60148,0.08011
3500.67273,0.07959
3498.74399,0.07900
3496.81524,0.07838
3494.88650,0.07787
3492.95775,0.07736
3491.02901,0.07668
3489.10026,0.07583
3487.17152,0.07502
3485.24277,0.07461
3483.31402,0.07454
3481.38528,0.07429
3479.45653,0.07376
3477.52779,0.07321
3475.59904,0.07271
3473.67030,0.07231
3471.74155,0.07189
3469.81281,0.07136
3467.88406,0.07088
3465.95532,0.07054
3464.02657,0.07020
3462.09783,0.06986
3460.16908,0.06947
3458.24034,0.06883
3456.31159,0.06828
3454.38285,0.06812
3452.45410,0.06807
3450.52535,0.06791
3448.59661,0.06768
3446.66786,0.06735
3444.73912,0.06687
3442.81037,0.06634
3440.88163,0.06584
3438.95288,0.06532
3437.02414,0.06479
3435.09539,0.06448
3433.16665,0.06452
3431.23790,0.06452
3429.30916,0.06432
3427.38041,0.06412
3425.45167,0.06389
3423.52292,0.06366
3421.59418,0.06356
3419.66543,0.06347
3417.73668,0.06329
3415.80794,0.06297
3413.87919,0.06267
3411.95045,0.06255
3410.02170,0.06239
3408.09296,0.06205
3406.16421,0.06165
3404.23547,0.06121
3402.30672,0.06090
3400.37798,0.06082
3398.44923,0.06087
3396.52049,0.06099
3394.59174,0.06119
3392.66300,0.06133
3390.73425,0.06110
3388.80550,0.06049
3386.87676,0.06002
3384.94801,0.05993
3383.01927,0.05999
3381.09052,0.06006
3379.16178,0.06019
3377.23303,0.06014
3375.30429,0.05977
3373.37554,0.05937
3371.44680,0.05909
3369.51805,0.05876
3367.58931,0.05837
3365.66056,0.05815
3363.73182,0.05814
3361.80307,0.05814
3359.87433,0.05809
3357.94558,0.05817
3356.01683,0.05822
3354.08809,0.05799
3352.15934,0.05782
3350.23060,0.05795
3348.30185,0.05807
3346.37311,0.05806
3344.44436,0.05814
3342.51562,0.05810
3340.58687,0.05788
3338.65813,0.05774
3336.72938,0.05766
3334.80064,0.05753
3332.87189,0.05746
3330.94315,0.05749
3329.01440,0.05736
3327.08566,0.05708
3325.15691,0.05703
3323.22816,0.05721
3321.29942,0.05738
3319.37067,0.05737
3317.44193,0.05705
3315.51318,0.05675
3313.58444,0.05673
3311.65569,0.05686
3309.72695,0.05708
3307.79820,0.05728
3305.86946,0.05734
3303.94071,0.05749
3302.01197,0.05778
3300.08322,0.05794
3298.15448,0.05798
3296.22573,0.05794
3294.29698,0.05786
3292.36824,0.05799
3290.43949,0.05826
3288.51075,0.05837
3286.58200,0.05837
3284.65326,0.05848
3282.72451,0.05884
3280.79577,0.05939
3278.86702,0.05979
3276.93828,0.05981
3275.00953,0.05965
3273.08079,0.05958
3271.15204,0.05985
3269.22330,0.06043
3267.29455,0.06094
3265.36581,0.06137
3263.43706,0.06200
3261.50831,0.06253
3259.57957,0.06256
3257.65082,0.06239
3255.72208,0.06246
3253.79333,0.06286
3251.86459,0.06342
3249.93584,0.06389
3248.00710,0.06431
3246.07835,0.06478
3244.14961,0.06510
3242.22086,0.06522
3240.29212,0.06549
3238.36337,0.06605
3236.43463,0.06670
3234.50588,0.06725
3232.57713,0.06759
3230.64839,0.06781
3228.71964,0.06798
3226.79090,0.06808
3224.86215,0.06819
3222.93341,0.06823
3221.00466,0.06841
3219.07592,0.06908
3217.14717,0.06988
3215.21843,0.07035
3213.28968,0.07060
3211.36094,0.07079
3209.43219,0.07104
3207.50345,0.07138
3205.57470,0.07163
3203.64596,0.07167
3201.71721,0.07180
3199.78846,0.07211
3197.85972,0.07232
3195.93097,0.07262
3194.00223,0.07319
3192.07348,0.07375
3190.14474,0.07424
3188.21599,0.07481
3186.28725,0.07525
3184.35850,0.07532
3182.42976,0.07530
3180.50101,0.07552
3178.57227,0.07599
3176.64352,0.07665
3174.71478,0.07720
3172.78603,0.07745
3170.85729,0.07775
3168.92854,0.07828
3166.99979,0.07883
3165.07105,0.07901
3163.14230,0.07891
3161.21356,0.07909
3159.28481,0.07959
3157.35607,0.08008
3155.42732,0.08056
3153.49858,0.08105
3151.56983,0.08141
3149.64109,0.08154
3147.71234,0.08166
3145.78360,0.08193
3143.85485,0.08209
3141.92611,0.08211
3139.99736,0.08229
3138.06861,0.08259
3136.13987,0.08290
3134.21112,0.08315
3132.28238,0.08323
3130.35363,0.08319
3128.42489,0.08311
3126.49614,0.08303
3124.56740,0.08309
3122.63865,0.08320
3120.70991,0.08320
3118.78116,0.08335
3116.85242,0.08387
3114.92367,0.08442
3112.99493,0.08461
3111.06618,0.08446
3109.13744,0.08428
3107.20869,0.08425
3105.27994,0.08424
3103.35120,0.08411
3101.42245,0.08412
3099.49371,0.08444
3097.56496,0.08476
3095.63622,0.08461
3093.70747,0.08398
3091.77873,0.08320
3089.84998,0.08252
3087.92124,0.08195
3085.99249,0.08142
3084.06375,0.08106
3082.13500,0.08087
3080.20626,0.08063
3078.27751,0.08023
3076.34877,0.07990
3074.42002,0.07987
3072.49127,0.07999
3070.56253,0.07989
3068.63378,0.07949
3066.70504,0.07899
3064.77629,0.07861
3062.84755,0.07839
3060.91880,0.07820
3058.99006,0.07787
3057.06131,0.07735
3055.13257,0.07672
3053.20382,0.07609
3051.27508,0.07531
3049.34633,0.07416
3047.41759,0.07256
3045.48884,0.07066
3043.56009,0.06892
3041.63135,0.06757
3039.70260,0.06638
3037.77386,0.06521
3035.84511,0.06422
3033.91637,0.06330
3031.98762,0.06231
3030.05888,0.06154
3028.13013,0.06140
3026.20139,0.06183
3024.27264,0.06239
3022.34390,0.06285
3020.41515,0.06334
3018.48641,0.06363
3016.55766,0.06343
3014.62892,0.06288
3012.70017,0.06213
3010.77142,0.06120
3008.84268,0.06012
3006.91393,0.05900
3004.98519,0.05791
3003.05644,0.05668
3001.12770,0.05524
2999.19895,0.05367
2997.27021,0.05192
2995.34146,0.04997
2993.41272,0.04797
2991.48397,0.04627
2989.55523,0.04493
2987.62648,0.04362
2985.69774,0.04232
2983.76899,0.04121
2981.84025,0.04033
2979.91150,0.03963
2977.98275,0.03880
2976.05401,0.03751
2974.12526,0.03591
2972.19652,0.03443
2970.26777,0.03314
2968.33903,0.03180
2966.41028,0.03064
2964.48154,0.02997
2962.55279,0.02976
2960.62405,0.02985
2958.69530,0.03000
2956.76656,0.03020
2954.83781,0.03056
2952.90907,0.03087
2950.98032,0.03093
2949.05157,0.03073
2947.12283,0.03041
2945.19408,0.03011
2943.26534,0.02986
2941.33659,0.02977
2939.40785,0.02966
2937.47910,0.02919
2935.55036,0.02864
2933.62161,0.02837
2931.69287,0.02808
2929.76412,0.02767
2927.83538,0.02749
2925.90663,0.02771
2923.97789,0.02825
2922.04914,0.02896
2920.12040,0.02947
2918.19165,0.02971
2916.26290,0.03015
2914.33416,0.03082
2912.40541,0.03134
2910.47667,0.03175
2908.54792,0.03234
2906.61918,0.03313
2904.69043,0.03389
2902.76169,0.03443
2900.83294,0.03485
2898.90420,0.03529
2896.97545,0.03567
2895.04671,0.03603
2893.11796,0.03649
2891.18922,0.03690
2889.26047,0.03707
2887.33172,0.03711
2885.40298,0.03718
2883.47423,0.03736
2881.54549,0.03760
2879.61674,0.03773
2877.68800,0.03778
2875.75925,0.03768
2873.83051,0.03733
2871.90176,0.03711
2869.97302,0.03722
2868.04427,0.03732
2866.11553,0.03710
2864.18678,0.03650
2862.25804,0.03555
2860.32929,0.03461
2858.40055,0.03407
2856.47180,0.03381
2854.54305,0.03358
2852.61431,0.03351
2850.68556,0.03402
2848.75682,0.03529
2846.82807,0.03724
2844.89933,0.03965
2842.97058,0.04220
2841.04184,0.04466
2839.11309,0.04724
2837.18435,0.05016
2835.25560,0.05338
2833.32686,0.05680
2831.39811,0.06031
2829.46937,0.06367
2827.54062,0.06691
2825.61188,0.07003
2823.68313,0.07292
2821.75438,0.07563
2819.82564,0.07814
2817.89689,0.08045
2815.96815,0.08267
2814.03940,0.08476
2812.11066,0.08662
2810.18191,0.08825
2808.25317,0.08982
2806.32442,0.09157
2804.39568,0.09354
2802.46693,0.09562
2800.53819,0.09777
2798.60944,0.09992
2796.68070,0.10198
2794.75195,0.10395
2792.82320,0.10585
2790.89446,0.10774
2788.96571,0.10960
2787.03697,0.11120
2785.10822,0.11245
2783.17948,0.11376
2781.25073,0.11536
2779.32199,0.11697
2777.39324,0.11835
2775.46450,0.11949
2773.53575,0.12043
2771.60701,0.12134
2769.67826,0.12231
2767.74952,0.12322
2765.82077,0.12406
2763.89203,0.12480
2761.96328,0.12536
2760.03453,0.12594
2758.10579,0.12664
2756.17704,0.12728
2754.24830,0.12780
2752.31955,0.12839
2750.39081,0.12905
2748.46206,0.12952
2746.53332,0.12969
2744.60457,0.12952
2742.67583,0.12900
2740.74708,0.12833
2738.81834,0.12744
2736.88959,0.12583
2734.96085,0.12336
2733.03210,0.12038
2731.10336,0.11704
2729.17461,0.11385
2727.24586,0.11200
2725.31712,0.11251
2723.38837,0.11562
2721.45963,0.12049
2719.53088,0.12564
2717.60214,0.13005
2715.67339,0.13345
2713.74465,0.13591
2711.81590,0.13756
2709.88716,0.13863
2707.95841,0.13943
2706.02967,0.14022
2704.10092,0.14087
2702.17218,0.14123
2700.24343,0.14150
2698.31468,0.14175
2696.38594,0.14190
2694.45719,0.14193
2692.52845,0.14182
2690.59970,0.14162
2688.67096,0.14137
2686.74221,0.14116
2684.81347,0.14112
2682.88472,0.14133
2680.95598,0.14177
2679.02723,0.14229
2677.09849,0.14273
2675.16974,0.14303
2673.24100,0.14322
2671.31225,0.14335
2669.38351,0.14334
2667.45476,0.14319
2665.52601,0.14305
2663.59727,0.14292
2661.66852,0.14268
2659.73978,0.14233
2657.81103,0.14197
2655.88229,0.14158
2653.95354,0.14104
2652.02480,0.14030
2650.09605,0.13953
2648.16731,0.13884
2646.23856,0.13805
2644.30982,0.13696
2642.38107,0.13557
2640.45233,0.13399
2638.52358,0.13223
2636.59484,0.13017
2634.66609,0.12793
2632.73734,0.12584
2630.80860,0.12403
2628.87985,0.12247
2626.95111,0.12140
2625.02236,0.12092
2623.09362,0.12077
2621.16487,0.12073
2619.23613,0.12073
2617.30738,0.12066
2615.37864,0.12045
2613.44989,0.12005
2611.52115,0.11964
2609.59240,0.11943
2607.66366,0.11915
2605.73491,0.11845
2603.80616,0.11758
2601.87742,0.11694
2599.94867,0.11642
2598.01993,0.11568
2596.09118,0.11455
2594.16244,0.11315
2592.23369,0.11181
2590.30495,0.11069
2588.37620,0.10970
2586.44746,0.10881
2584.51871,0.10829
2582.58997,0.10815
2580.66122,0.10797
2578.73248,0.10752
2576.80373,0.10709
2574.87499,0.10687
2572.94624,0.10673
2571.01749,0.10658
2569.08875,0.10643
2567.16000,0.10607
2565.23126,0.10534
2563.30251,0.10436
2561.37377,0.10328
2559.44502,0.10210
2557.51628,0.10089
2555.58753,0.09968
2553.65879,0.09853
2551.73004,0.09759
2549.80130,0.09682
2547.87255,0.09608
2545.94381,0.09534
2544.01506,0.09444
2542.08631,0.09313
2540.15757,0.09130
2538.22882,0.08906
2536.30008,0.08669
2534.37133,0.08440
2532.44259,0.08220
2530.51384,0.08015
2528.58510,0.07833
2526.65635,0.07685
2524.72761,0.07583
2522.79886,0.07524
2520.87012,0.07486
2518.94137,0.07479
2517.01263,0.07519
2515.08388,0.07596
2513.15514,0.07702
2511.22639,0.07842
2509.29764,0.08025
2507.36890,0.08280
2505.44015,0.08604
2503.51141,0.08951
2501.58266,0.09300
2499.65392,0.09666
2497.72517,0.10040
2495.79643,0.10402
2493.86768,0.10760
2491.93894,0.11138
2490.01019,0.11546
2488.08145,0.11979
2486.15270,0.12437
2484.22396,0.12923
2482.29521,0.13421
2480.36647,0.13923
2478.43772,0.14433
2476.50897,0.14938
2474.58023,0.15407
2472.65148,0.15818
2470.72274,0.16167
2468.79399,0.16482
2466.86525,0.16782
2464.93650,0.17058
2463.00776,0.17308
2461.07901,0.17540
2459.15027,0.17748
2457.22152,0.17938
2455.29278,0.18127
2453.36403,0.18319
2451.43529,0.18511
2449.50654,0.18705
2447.57779,0.18891
2445.64905,0.19061
2443.72030,0.19214
2441.79156,0.19350
2439.86281,0.19483
2437.93407,0.19628
2436.00532,0.19778
2434.07658,0.19911
2432.14783,0.20025
2430.21909,0.20139
2428.29034,0.20256
2426.36160,0.20367
2424.43285,0.20467
2422.50411,0.20537
2420.57536,0.20590
2418.64662,0.20662
2416.71787,0.20748
2414.78912,0.20818
2412.86038,0.20882
2410.93163,0.20956
2409.00289,0.21042
2407.07414,0.21128
2405.14540,0.21213
2403.21665,0.21315
2401.28791,0.21447
2399.35916,0.21586
2397.43042,0.21706
2395.50167,0.21816
2393.57293,0.21923
2391.64418,0.22017
2389.71544,0.22112
2387.78669,0.22224
2385.85795,0.22339
2383.92920,0.22438
2382.00045,0.22522
2380.07171,0.22588
2378.14296,0.22643
2376.21422,0.22711
2374.28547,0.22785
2372.35673,0.22850
2370.42798,0.22910
2368.49924,0.22974
2366.57049,0.23034
2364.64175,0.23081
2362.71300,0.23116
2360.78426,0.23157
2358.85551,0.23199
2356.92677,0.23234
2354.99802,0.23272
2353.06927,0.23301
2351.14053,0.23319
2349.21178,0.23348
2347.28304,0.23395
2345.35429,0.23434
2343.42555,0.23428
2341.49680,0.23394
2339.56806,0.23371
2337.63931,0.23363
2335.71057,0.23368
2333.78182,0.23411
2331.85308,0.23496
2329.92433,0.23562
2327.99559,0.23594
2326.06684,0.23631
2324.13810,0.23657
2322.20935,0.23654
2320.28060,0.23650
2318.35186,0.23672
2316.42311,0.23711
2314.49437,0.23740
2312.56562,0.23758
2310.63688,0.23787
2308.70813,0.23848
2306.77939,0.23931
2304.85064,0.24014
2302.92190,0.24086
2300.99315,0.24143
2299.06441,0.24189
2297.13566,0.24214
2295.20692,0.24221
2293.27817,0.24227
2291.34943,0.24241
2289.42068,0.24242
2287.49193,0.24232
2285.56319,0.24229
2283.63444,0.24209
2281.70570,0.24155
2279.77695,0.24103
2277.84821,0.24073
2275.91946,0.24038
2273.99072,0.23973
2272.06197,0.23893
2270.13323,0.23823
2268.20448,0.23757
2266.27574,0.23668
2264.34699,0.23545
2262.41825,0.23407
2260.48950,0.23261
2258.56075,0.23083
2256.63201,0.22859
2254.70326,0.22573
2252.77452,0.22202
2250.84577,0.21742
2248.91703,0.21211
2246.98828,0.20668
2245.05954,0.20214
2243.13079,0.19955
2241.20205,0.19971
2239.27330,0.20279
2237.34456,0.20830
2235.41581,0.21518
2233.48707,0.22187
2231.55832,0.22711
2229.62958,0.23046
2227.70083,0.23211
2225.77208,0.23258
2223.84334,0.23257
2221.91459,0.23259
2219.98585,0.23259
2218.05710,0.23230
2216.12836,0.23183
2214.19961,0.23153
2212.27087,0.23138
2210.34212,0.23117
2208.41338,0.23083
2206.48463,0.23051
2204.55589,0.23032
2202.62714,0.23016
2200.69840,0.22982
2198.76965,0.22925
2196.84090,0.22865
2194.91216,0.22814
2192.98341,0.22762
2191.05467,0.22695
2189.12592,0.22606
2187.19718,0.22516
2185.26843,0.22445
2183.33969,0.22376
2181.41094,0.22285
2179.48220,0.22181
2177.55345,0.22080
2175.62471,0.21980
2173.69596,0.21868
2171.76722,0.21746
2169.83847,0.21632
2167.90973,0.21531
2165.98098,0.21436
2164.05223,0.21340
2162.12349,0.21247
2160.19474,0.21148
2158.26600,0.21028
2156.33725,0.20887
2154.40851,0.20742
2152.47976,0.20621
2150.55102,0.20540
2148.62227,0.20495
2146.69353,0.20491
2144.76478,0.20529
2142.83604,0.20595
2140.90729,0.20684
2138.97855,0.20793
2137.04980,0.20914
2135.12106,0.21056
2133.19231,0.21225
2131.26356,0.21417
2129.33482,0.21625
2127.40607,0.21836
2125.47733,0.22036
2123.54858,0.22231
2121.61984,0.22420
2119.69109,0.22589
2117.76235,0.22744
2115.83360,0.22888
2113.90486,0.23018
2111.97611,0.23126
2110.04737,0.23199
2108.11862,0.23242
2106.18988,0.23281
2104.26113,0.23319
2102.33238,0.23346
2100.40364,0.23354
2098.47489,0.23352
2096.54615,0.23358
2094.61740,0.23365
2092.68866,0.23354
2090.75991,0.23321
2088.83117,0.23279
2086.90242,0.23238
2084.97368,0.23203
2083.04493,0.23176
2081.11619,0.23138
2079.18744,0.23085
2077.25870,0.23035
2075.32995,0.22998
2073.40121,0.22962
2071.47246,0.22908
2069.54371,0.22851
2067.61497,0.22805
2065.68622,0.22766
2063.75748,0.22743
2061.82873,0.22725
2059.89999,0.22680
2057.97124,0.22614
2056.04250,0.22559
2054.11375,0.22520
2052.18501,0.22475
2050.25626,0.22415
2048.32752,0.22357
2046.39877,0.22315
2044.47003,0.22282
2042.54128,0.22248
2040.61254,0.22222
2038.68379,0.22218
2036.75504,0.22231
2034.82630,0.22247
2032.89755,0.22267
2030.96881,0.22300
2029.04006,0.22344
2027.11132,0.22401
2025.18257,0.22479
2023.25383,0.22565
2021.32508,0.22645
2019.39634,0.22720
2017.46759,0.22798
2015.53885,0.22882
2013.61010,0.22968
2011.68136,0.23046
2009.75261,0.23121
2007.82386,0.23209
2005.89512,0.23285
2003.96637,0.23332
2002.03763,0.23386
2000.10888,0.23448
1998.18014,0.23489
1996.25139,0.23509
1994.32265,0.23515
1992.39390,0.23507
1990.46516,0.23491
1988.53641,0.23473
1986.60767,0.23441
1984.67892,0.23381
1982.75018,0.23289
1980.82143,0.23169
1978.89269,0.23040
1976.96394,0.22924
1975.03519,0.22846
1973.10645,0.22822
1971.17770,0.22833
1969.24896,0.22811
1967.32021,0.22695
1965.39147,0.22488
1963.46272,0.22263
1961.53398,0.22132
1959.60523,0.22151
1957.67649,0.22263
1955.74774,0.22380
1953.81900,0.22450
1951.89025,0.22463
1949.96151,0.22448
1948.03276,0.22434
1946.10402,0.22415
1944.17527,0.22381
1942.24652,0.22344
1940.31778,0.22325
1938.38903,0.22336
1936.46029,0.22381
1934.53154,0.22454
1932.60280,0.22532
1930.67405,0.22597
1928.74531,0.22641
1926.81656,0.22660
1924.88782,0.22648
1922.95907,0.22606
1921.03033,0.22545
1919.10158,0.22469
1917.17284,0.22387
1915.24409,0.22312
1913.31534,0.22234
1911.38660,0.22139
1909.45785,0.22024
1907.52911,0.21889
1905.60036,0.21740
1903.67162,0.21589
1901.74287,0.21446
1899.81413,0.21308
1897.88538,0.21167
1895.95664,0.21012
1894.02789,0.20848
1892.09915,0.20689
1890.17040,0.20534
1888.24166,0.20382
1886.31291,0.20244
1884.38417,0.20116
1882.45542,0.19977
1880.52667,0.19835
1878.59793,0.19700
1876.66918,0.19571
1874.74044,0.19446
1872.81169,0.19331
1870.88295,0.19208
1868.95420,0.19055
1867.02546,0.18898
1865.09671,0.18761
1863.16797,0.18638
1861.23922,0.18526
1859.31048,0.18423
1857.38173,0.18304
1855.45299,0.18158
1853.52424,0.17994
1851.59549,0.17804
1849.66675,0.17576
1847.73800,0.17306
1845.80926,0.16987
1843.88051,0.16610
1841.95177,0.16205
1840.02302,0.15785
1838.09428,0.15318
1836.16553,0.14801
1834.23679,0.14239
1832.30804,0.13624
1830.37930,0.12948
1828.45055,0.12280
1826.52181,0.11719
1824.59306,0.11251
1822.66432,0.10863
1820.73557,0.10563
1818.80682,0.10324
1816.87808,0.10106
1814.94933,0.09883
1813.02059,0.09623
1811.09184,0.09273
1809.16310,0.08805
1807.23435,0.08243
1805.30561,0.07636
1803.37686,0.07051
1801.44812,0.06568
1799.51937,0.06255
1797.59063,0.06107
1795.66188,0.06084
1793.73314,0.06201
1791.80439,0.06512
1789.87565,0.06995
1787.94690,0.07558
1786.01815,0.08126
1784.08941,0.08623
1782.16066,0.09016
1780.23192,0.09303
1778.30317,0.09476
1776.37443,0.09550
1774.44568,0.09544
1772.51694,0.09452
1770.58819,0.09300
1768.65945,0.09110
1766.73070,0.08871
1764.80196,0.08604
1762.87321,0.08299
1760.94447,0.07929
1759.01572,0.07525
1757.08697,0.07079
1755.15823,0.06598
1753.22948,0.06136
1751.30074,0.05690
1749.37199,0.05262
1747.44325,0.04884
1745.51450,0.04582
1743.58576,0.04368
1741.65701,0.04224
1739.72827,0.04112
1737.79952,0.04044
1735.87078,0.04030
1733.94203,0.04027
1732.01329,0.04005
1730.08454,0.03987
1728.15580,0.03989
1726.22705,0.04005
1724.29830,0.04003
1722.36956,0.03986
1720.44081,0.04009
1718.51207,0.04087
1716.58332,0.04184
1714.65458,0.04277
1712.72583,0.04362
1710.79709,0.04448
1708.86834,0.04552
1706.93960,0.04677
1705.01085,0.04806
1703.08211,0.04915
1701.15336,0.04987
1699.22462,0.05015
1697.29587,0.05007
1695.36713,0.04968
1693.43838,0.04907
1691.50963,0.04842
1689.58089,0.04771
1687.65214,0.04707
1685.72340,0.04643
1683.79465,0.04546
1681.86591,0.04440
1679.93716,0.04358
1678.00842,0.04284
1676.07967,0.04196
1674.15093,0.04102
1672.22218,0.04021
1670.29344,0.03928
1668.36469,0.03817
1666.43595,0.03741
1664.50720,0.03710
1662.57845,0.03696
1660.64971,0.03691
1658.72096,0.03705
1656.79222,0.03742
1654.86347,0.03790
1652.93473,0.03826
1651.00598,0.03862
1649.07724,0.03907
1647.14849,0.03928
1645.21975,0.03917
1643.29100,0.03919
1641.36226,0.03944
1639.43351,0.03971
1637.50477,0.03990
1635.57602,0.04010
1633.64728,0.04042
1631.71853,0.04079
1629.78978,0.04110
1627.86104,0.04133
1625.93229,0.04169
1624.00355,0.04228
1622.07480,0.04282
1620.14606,0.04318
1618.21731,0.04352
1616.28857,0.04406
1614.35982,0.04471
1612.43108,0.04529
1610.50233,0.04572
1608.57359,0.04603
1606.64484,0.04626
1604.71610,0.04635
1602.78735,0.04639
1600.85861,0.04657
1598.92986,0.04690
1597.00111,0.04733
1595.07237,0.04788
1593.14362,0.04849
1591.21488,0.04903
1589.28613,0.04957
1587.35739,0.05023
1585.42864,0.05094
1583.49990,0.05152
1581.57115,0.05210
1579.64241,0.05296
1577.71366,0.05411
1575.78492,0.05542
1573.85617,0.05676
1571.92743,0.05800
1569.99868,0.05902
1568.06993,0.05961
1566.14119,0.05990
1564.21244,0.06022
1562.28370,0.06057
1560.35495,0.06076
1558.42621,0.06075
1556.49746,0.06065
1554.56872,0.06039
1552.63997,0.06000
1550.71123,0.05972
1548.78248,0.05951
1546.85374,0.05922
1544.92499,0.05880
1542.99625,0.05849
1541.06750,0.05844
1539.13876,0.05854
1537.21001,0.05888
1535.28126,0.05946
1533.35252,0.06018
1531.42377,0.06079
1529.49503,0.06094
1527.56628,0.06077
1525.63754,0.06048
1523.70879,0.06003
1521.78005,0.05943
1519.85130,0.05894
1517.92256,0.05843
1515.99381,0.05762
1514.06507,0.05678
1512.13632,0.05626
1510.20758,0.05605
1508.27883,0.05568
1506.35008,0.05462
1504.42134,0.05348
1502.49259,0.05267
1500.56385,0.05183
1498.63510,0.05075
1496.70636,0.04954
1494.77761,0.04845
1492.84887,0.04775
1490.92012,0.04732
1488.99138,0.04676
1487.06263,0.04598
1485.13389,0.04512
1483.20514,0.04417
1481.27640,0.04304
1479.34765,0.04187
1477.41891,0.04078
1475.49016,0.03971
1473.56141,0.03868
1471.63267,0.03778
1469.70392,0.03693
1467.77518,0.03612
1465.84643,0.03547
1463.91769,0.03503
1461.98894,0.03468
1460.06020,0.03428
1458.13145,0.03385
1456.20271,0.03356
1454.27396,0.03356
1452.34522,0.03377
1450.41647,0.03387
1448.48773,0.03381
1446.55898,0.03379
1444.63024,0.03389
1442.70149,0.03406
1440.77274,0.03432
1438.84400,0.03471
1436.91525,0.03513
1434.98651,0.03539
1433.05776,0.03556
1431.12902,0.03588
1429.20027,0.03647
1427.27153,0.03708
1425.34278,0.03733
1423.41404,0.03732
1421.48529,0.03745
1419.55655,0.03768
1417.62780,0.03788
1415.69906,0.03809
1413.77031,0.03827
1411.84156,0.03832
1409.91282,0.03834
1407.98407,0.03854
1406.05533,0.03876
1404.12658,0.03867
1402.19784,0.03839
1400.26909,0.03819
1398.34035,0.03816
1396.41160,0.03831
1394.48286,0.03850
1392.55411,0.03866
1390.62537,0.03896
1388.69662,0.03931
1386.76788,0.03932
1384.83913,0.03917
1382.91039,0.03912
1380.98164,0.03871
1379.05289,0.03781
1377.12415,0.03724
1375.19540,0.03769
1373.26666,0.03904
1371.33791,0.04064
1369.40917,0.04185
1367.48042,0.04253
1365.55168,0.04311
1363.62293,0.04379
1361.69419,0.04428
1359.76544,0.04451
1357.83670,0.04487
1355.90795,0.04554
1353.97921,0.04638
1352.05046,0.04725
1350.12172,0.04813
1348.19297,0.04897
1346.26422,0.04972
1344.33548,0.05035
1342.40673,0.05075
1340.47799,0.05082
1338.54924,0.05075
1336.62050,0.05089
1334.69175,0.05120
1332.76301,0.05147
1330.83426,0.05159
1328.90552,0.05155
1326.97677,0.05144
1325.04803,0.05138
1323.11928,0.05119
1321.19054,0.05081
1319.26179,0.05045
1317.33304,0.05032
1315.40430,0.05030
1313.47555,0.05031
1311.54681,0.05036
1309.61806,0.05047
1307.68932,0.05066
1305.76057,0.05088
1303.83183,0.05115
1301.90308,0.05153
1299.97434,0.05193
1298.04559,0.05229
1296.11685,0.05265
1294.18810,0.05291
1292.25936,0.05295
1290.33061,0.05279
1288.40187,0.05257
1286.47312,0.05244
1284.54437,0.05241
1282.61563,0.05239
1280.68688,0.05235
1278.75814,0.05230
1276.82939,0.05218
1274.90065,0.05175
1272.97190,0.05103
1271.04316,0.05028
1269.11441,0.04955
1267.18567,0.04868
1265.25692,0.04782
1263.32818,0.04727
1261.39943,0.04700
1259.47069,0.04687
1257.54194,0.04678
1255.61320,0.04666
1253.68445,0.04653
1251.75570,0.04631
1249.82696,0.04588
1247.89821,0.04536
1245.96947,0.04497
1244.04072,0.04465
1242.11198,0.04429
1240.18323,0.04403
1238.25449,0.04389
1236.32574,0.04365
1234.39700,0.04338
1232.46825,0.04330
1230.53951,0.04329
1228.61076,0.04327
1226.68202,0.04328
1224.75327,0.04330
1222.82452,0.04332
1220.89578,0.04332
1218.96703,0.04332
1217.03829,0.04328
1215.10954,0.04299
1213.18080,0.04242
1211.25205,0.04190
1209.32331,0.04151
1207.39456,0.04102
1205.46582,0.04056
1203.53707,0.04049
1201.60833,0.04072
1199.67958,0.04087
1197.75084,0.04093
1195.82209,0.04102
1193.89335,0.04102
1191.96460,0.04090
1190.03585,0.04075
1188.10711,0.04066
1186.17836,0.04048
1184.24962,0.04005
1182.32087,0.03963
1180.39213,0.03937
1178.46338,0.03916
1176.53464,0.03886
1174.60589,0.03846
1172.67715,0.03797
1170.74840,0.03750
1168.81966,0.03718
1166.89091,0.03697
1164.96217,0.03684
1163.03342,0.03687
1161.10467,0.03711
1159.17593,0.03748
1157.24718,0.03769
1155.31844,0.03767
1153.38969,0.03774
1151.46095,0.03780
1149.53220,0.03767
1147.60346,0.03761
1145.67471,0.03783
1143.74597,0.03794
1141.81722,0.03774
1139.88848,0.03746
1137.95973,0.03721
1136.03099,0.03701
1134.10224,0.03703
1132.17350,0.03733
1130.24475,0.03768
1128.31600,0.03761
1126.38726,0.03716
1124.45851,0.03703
1122.52977,0.03756
1120.60102,0.03851
1118.67228,0.03950
1116.74353,0.04009
1114.81479,0.04017
1112.88604,0.04006
1110.95730,0.04005
1109.02855,0.04000
1107.09981,0.03966
1105.17106,0.03914
1103.24232,0.03885
1101.31357,0.03869
1099.38483,0.03815
1097.45608,0.03750
1095.52733,0.03713
1093.59859,0.03692
1091.66984,0.03676
1089.74110,0.03645
1087.81235,0.03604
1085.88361,0.03618
1083.95486,0.03700
1082.02612,0.03795
1080.09737,0.03870
1078.16863,0.03932
1076.23988,0.03986
1074.31114,0.04028
1072.38239,0.04070
1070.45365,0.04117
1068.52490,0.04155
1066.59615,0.04188
1064.66741,0.04225
1062.73866,0.04250
1060.80992,0.04239
1058.88117,0.04196
1056.95243,0.04164
1055.02368,0.04162
1053.09494,0.04145
1051.16619,0.04076
1049.23745,0.03996
1047.30870,0.03946
1045.37996,0.03953
1043.45121,0.04022
1041.52247,0.04093
1039.59372,0.04092
1037.66498,0.04048
1035.73623,0.04037
1033.80748,0.04060
1031.87874,0.04096
1029.94999,0.04144
1028.02125,0.04187
1026.09250,0.04212
1024.16376,0.04225
1022.23501,0.04243
1020.30627,0.04270
1018.37752,0.04301
1016.44878,0.04325
1014.52003,0.04341
1012.59129,0.04352
1010.66254,0.04360
1008.73380,0.04376
1006.80505,0.04408
1004.87631,0.04445
1002.94756,0.04472
1001.01881,0.04502
999.09007,0.04545
997.16132,0.04577
995.23258,0.04592
993.30383,0.04620
991.37509,0.04678
989.44634,0.04749
987.51760,0.04817
985.58885,0.04884
983.66011,0.04945
981.73136,0.04976
979.80262,0.04969
977.87387,0.04933
975.94513,0.04881
974.01638,0.04801
972.08763,0.04701
970.15889,0.04641
968.23014,0.04658
966.30140,0.04729
964.37265,0.04845
962.44391,0.05021
960.51516,0.05256
958.58642,0.05520
956.65767,0.05759
954.72893,0.05943
952.80018,0.06080
950.87144,0.06181
948.94269,0.06238
947.01395,0.06223
945.08520,0.06171
943.15646,0.06161
941.22771,0.06177
939.29896,0.06177
937.37022,0.06173
935.44147,0.06163
933.51273,0.06151
931.58398,0.06184
929.65524,0.06262
927.72649,0.06324
925.79775,0.06334
923.86900,0.06333
921.94026,0.06358
920.01151,0.06384
918.08277,0.06374
916.15402,0.06332
914.22528,0.06288
912.29653,0.06282
910.36779,0.06345
908.43904,0.06467
906.51029,0.06628
904.58155,0.06809
902.65280,0.06974
900.72406,0.07084
898.79531,0.07121
896.86657,0.07081
894.93782,0.06947
893.00908,0.06732
891.08033,0.06465
889.15159,0.06102
887.22284,0.05563
885.29410,0.04934
883.36535,0.04440
881.43661,0.04166
879.50786,0.03982
877.57911,0.03790
875.65037,0.03662
873.72162,0.03709
871.79288,0.03952
869.86413,0.04346
867.93539,0.04801
866.00664,0.05195
864.07790,0.05455
862.14915,0.05604
860.22041,0.05699
858.29166,0.05723
856.36292,0.05626
854.43417,0.05432
852.50543,0.05215
850.57668,0.04997
848.64794,0.04833
846.71919,0.04832
844.79044,0.04932
842.86170,0.04976
840.93295,0.04947
839.00421,0.04906
837.07546,0.04897
835.14672,0.04937
833.21797,0.04996
831.28923,0.05036
829.36048,0.05060
827.43174,0.05104
825.50299,0.05198
823.57425,0.05303
821.64550,0.05361
819.71676,0.05392
817.78801,0.05455
815.85926,0.05548
813.93052,0.05639
812.00177,0.05719
810.07303,0.05781
808.14428,0.05811
806.21554,0.05827
804.28679,0.05842
802.35805,0.05866
800.42930,0.05932
798.50056,0.06027
796.57181,0.06104
794.64307,0.06163
792.71432,0.06243
790.78558,0.06341
788.85683,0.06423
786.92809,0.06473
784.99934,0.06472
783.07059,0.06437
781.14185,0.06412
779.21310,0.06374
777.28436,0.06275
775.35561,0.06120
773.42687,0.05960
771.49812,0.05824
769.56938,0.05694
767.64063,0.05563
765.71189,0.05427
763.78314,0.05285
761.85440,0.05175
759.92565,0.05142
757.99691,0.05151
756.06816,0.05150
754.13942,0.05162
752.21067,0.05211
750.28192,0.05236
748.35318,0.05206
746.42443,0.05172
744.49569,0.05130
742.56694,0.05019
740.63820,0.04879
738.70945,0.04766
736.78071,0.04624
734.85196,0.04408
732.92322,0.04158
730.99447,0.03936
729.06573,0.03838
727.13698,0.03893
725.20824,0.03968
723.27949,0.03939
721.35074,0.03831
719.42200,0.03686
717.49325,0.03509
715.56451,0.03340
713.63576,0.03285
711.70702,0.03424
709.77827,0.03711
707.84953,0.03988
705.92078,0.04117
703.99204,0.04113
702.06329,0.04117
700.13455,0.04251
698.20580,0.04527
696.27706,0.04870
694.34831,0.05169
692.41957,0.05343
690.49082,0.05440
688.56207,0.05551
686.63333,0.05649
684.70458,0.05668
682.77584,0.05604
680.84709,0.05491
678.91835,0.05409
676.98960,0.05417
675.06086,0.05474
673.13211,0.05459
671.20337,0.05333
669.27462,0.05191
667.34588,0.05130
665.41713,0.05121
663.48839,0.05058
661.55964,0.04989
659.63090,0.05010
657.70215,0.05018
655.77340,0.04941
653.84466,0.04865
651.91591,0.04817
649.98717,0.04762
648.05842,0.04728
646.12968,0.04764
644.20093,0.04815
642.27219,0.04803
640.34344,0.04734
638.41470,0.04708
636.48595,0.04793
634.55721,0.04904
632.62846,0.04957
630.69972,0.04949
628.77097,0.04860
626.84222,0.04738
624.91348,0.04656
622.98473,0.04586
621.05599,0.04487
619.12724,0.04310
617.19850,0.04063
615.26975,0.03939
613.34101,0.04006
611.41226,0.04083
609.48352,0.04093
607.55477,0.04065
605.62603,0.04013
603.69728,0.03994
601.76854,0.04023
599.83979,0.04000
