7497.03301,0.49005
7495.10426,0.49126
7493.17552,0.49513
7491.24677,0.50045
7489.31803,0.50433
7487.38928,0.50335
7485.46054,0.49924
7483.53179,0.49812
7481.60305,0.50172
7479.67430,0.50605
7477.74556,0.50858
7475.81681,0.50944
7473.88807,0.50897
7471.95932,0.50757
7470.03057,0.50558
7468.10183,0.50293
7466.17308,0.50019
7464.24434,0.49804
7462.31559,0.49762
7460.38685,0.50041
7458.45810,0.50180
7456.52936,0.49838
7454.60061,0.49743
7452.67187,0.50204
7450.74312,0.50435
7448.81438,0.49988
7446.88563,0.49576
7444.95689,0.49748
7443.02814,0.49871
7441.09940,0.49690
7439.17065,0.49531
7437.24190,0.49245
7435.31316,0.49079
7433.38441,0.49495
7431.45567,0.49943
7429.52692,0.49844
7427.59818,0.49652
7425.66943,0.49891
7423.74069,0.50370
7421.81194,0.50495
7419.88320,0.50115
7417.95445,0.49706
7416.02571,0.49447
7414.09696,0.49440
7412.16822,0.49878
7410.23947,0.50119
7408.31073,0.49862
7406.38198,0.49909
7404.45323,0.50447
7402.52449,0.50809
7400.59574,0.50614
7398.66700,0.50122
7396.73825,0.49795
7394.80951,0.49697
7392.88076,0.49753
7390.95202,0.49848
7389.02327,0.49618
7387.09453,0.49235
7385.16578,0.49382
7383.23704,0.49925
7381.30829,0.50290
7379.37955,0.50600
7377.45080,0.50780
7375.52205,0.50383
7373.59331,0.49824
7371.66456,0.49557
7369.73582,0.49348
7367.80707,0.49373
7365.87833,0.49729
7363.94958,0.49809
7362.02084,0.49602
7360.09209,0.49521
7358.16335,0.49462
7356.23460,0.49345
7354.30586,0.49392
7352.37711,0.49510
7350.44837,0.49369
7348.51962,0.49274
7346.59088,0.49623
7344.66213,0.50065
7342.73338,0.50201
7340.80464,0.50057
7338.87589,0.49885
7336.94715,0.49690
7335.01840,0.49314
7333.08966,0.49084
7331.16091,0.49253
7329.23217,0.49420
7327.30342,0.49248
7325.37468,0.48948
7323.44593,0.48705
7321.51719,0.48596
7319.58844,0.48741
7317.65970,0.48940
7315.73095,0.49101
7313.80221,0.49349
7311.87346,0.49228
7309.94471,0.48533
7308.01597,0.48046
7306.08722,0.48138
7304.15848,0.48379
7302.22973,0.48742
7300.30099,0.49339
7298.37224,0.49638
7296.44350,0.49245
7294.51475,0.48587
7292.58601,0.48264
7290.65726,0.48406
7288.72852,0.48646
7286.79977,0.48675
7284.87103,0.48655
7282.94228,0.48713
7281.01353,0.48791
7279.08479,0.48963
7277.15604,0.49188
7275.22730,0.49267
7273.29855,0.49078
7271.36981,0.48745
7269.44106,0.48468
7267.51232,0.48119
7265.58357,0.47728
7263.65483,0.47715
7261.72608,0.48085
7259.79734,0.48393
7257.86859,0.48380
7255.93985,0.48283
7254.01110,0.48432
7252.08236,0.48575
7250.15361,0.48373
7248.22486,0.47863
7246.29612,0.47267
7244.36737,0.47072
7242.43863,0.47550
7240.50988,0.48237
7238.58114,0.48363
7236.65239,0.47816
7234.72365,0.47303
7232.79490,0.47333
7230.86616,0.47639
7228.93741,0.47760
7227.00867,0.47631
7225.07992,0.47451
7223.15118,0.47436
7221.22243,0.47604
7219.29369,0.47765
7217.36494,0.47891
7215.43619,0.47885
7213.50745,0.47610
7211.57870,0.47330
7209.64996,0.47174
7207.72121,0.47176
7205.79247,0.47472
7203.86372,0.47552
7201.93498,0.47189
7200.00623,0.47128
7198.07749,0.47463
7196.14874,0.47588
7194.22000,0.47399
7192.29125,0.47159
7190.36251,0.47026
7188.43376,0.46964
7186.50501,0.46919
7184.57627,0.46889
7182.64752,0.46905
7180.71878,0.47216
7178.79003,0.47726
7176.86129,0.47830
7174.93254,0.47531
7173.00380,0.47277
7171.07505,0.47142
7169.14631,0.47154
7167.21756,0.47378
7165.28882,0.47587
7163.36007,0.47537
7161.43133,0.47334
7159.50258,0.47297
7157.57384,0.47447
7155.64509,0.47358
7153.71634,0.46950
7151.78760,0.46758
7149.85885,0.46864
7147.93011,0.46849
7146.00136,0.46812
7144.07262,0.47018
7142.14387,0.47139
7140.21513,0.46784
7138.28638,0.46305
7136.35764,0.46401
7134.42889,0.47039
7132.50015,0.47599
7130.57140,0.47832
7128.64266,0.47810
7126.71391,0.47620
7124.78516,0.47552
7122.85642,0.47701
7120.92767,0.47723
7118.99893,0.47391
7117.07018,0.46988
7115.14144,0.46956
7113.21269,0.47195
7111.28395,0.47350
7109.35520,0.47403
7107.42646,0.47444
7105.49771,0.47416
7103.56897,0.47342
7101.64022,0.47340
7099.71148,0.47377
7097.78273,0.47379
7095.85399,0.47220
7093.92524,0.46809
7091.99649,0.46600
7090.06775,0.46932
7088.13900,0.47229
7086.21026,0.47071
7084.28151,0.46879
7082.35277,0.46944
7080.42402,0.47057
7078.49528,0.47072
7076.56653,0.47076
7074.63779,0.47168
7072.70904,0.47227
7070.78030,0.47081
7068.85155,0.46935
7066.92281,0.47026
7064.99406,0.47074
7063.06532,0.46839
7061.13657,0.46523
7059.20782,0.46228
7057.27908,0.46037
7055.35033,0.46155
7053.42159,0.46487
7051.49284,0.46805
7049.56410,0.47052
7047.63535,0.47140
7045.70661,0.47051
7043.77786,0.46958
7041.84912,0.46901
7039.92037,0.46753
7037.99163,0.46617
7036.06288,0.46723
7034.13414,0.46896
7032.20539,0.46925
7030.27664,0.46936
7028.34790,0.46933
7026.41915,0.46890
7024.49041,0.46887
7022.56166,0.46870
7020.63292,0.46770
7018.70417,0.46609
7016.77543,0.46545
7014.84668,0.46716
7012.91794,0.46889
7010.98919,0.46793
7009.06045,0.46671
7007.13170,0.46832
7005.20296,0.47096
7003.27421,0.47216
7001.34547,0.47244
6999.41672,0.47323
6997.48797,0.47353
6995.55923,0.47040
6993.63048,0.46475
6991.70174,0.46205
6989.77299,0.46460
6987.84425,0.46768
6985.91550,0.46847
6983.98676,0.46903
6982.05801,0.46903
6980.12927,0.46733
6978.20052,0.46562
6976.27178,0.46557
6974.34303,0.46759
6972.41429,0.47057
6970.48554,0.47189
6968.55680,0.46995
6966.62805,0.46680
6964.69930,0.46575
6962.77056,0.46578
6960.84181,0.46509
6958.91307,0.46578
6956.98432,0.46790
6955.05558,0.46857
6953.12683,0.46815
6951.19809,0.46790
6949.26934,0.46787
6947.34060,0.46834
6945.41185,0.46850
6943.48311,0.46862
6941.55436,0.47050
6939.62562,0.47286
6937.69687,0.47342
6935.76812,0.47251
6933.83938,0.47103
6931.91063,0.46959
6929.98189,0.46802
6928.05314,0.46630
6926.12440,0.46696
6924.19565,0.47021
6922.26691,0.47124
6920.33816,0.46864
6918.40942,0.46609
6916.48067,0.46475
6914.55193,0.46454
6912.62318,0.46628
6910.69444,0.46848
6908.76569,0.46945
6906.83695,0.46951
6904.90820,0.47044
6902.97945,0.47303
6901.05071,0.47517
6899.12196,0.47568
6897.19322,0.47459
6895.26447,0.47193
6893.33573,0.47031
6891.40698,0.47154
6889.47824,0.47347
6887.54949,0.47386
6885.62075,0.47372
6883.69200,0.47501
6881.76326,0.47650
6879.83451,0.47635
6877.90577,0.47527
6875.97702,0.47497
6874.04828,0.47664
6872.11953,0.47887
6870.19078,0.47937
6868.26204,0.47761
6866.33329,0.47449
6864.40455,0.47240
6862.47580,0.47252
6860.54706,0.47325
6858.61831,0.47331
6856.68957,0.47331
6854.76082,0.47500
6852.83208,0.47723
6850.90333,0.47672
6848.97459,0.47418
6847.04584,0.47276
6845.11710,0.47283
6843.18835,0.47254
6841.25960,0.47127
6839.33086,0.47086
6837.40211,0.47220
6835.47337,0.47411
6833.54462,0.47620
6831.61588,0.47849
6829.68713,0.47954
6827.75839,0.47897
6825.82964,0.47892
6823.90090,0.47958
6821.97215,0.47846
6820.04341,0.47658
6818.11466,0.47723
6816.18592,0.47927
6814.25717,0.47933
6812.32843,0.47820
6810.39968,0.47882
6808.47093,0.48089
6806.54219,0.48168
6804.61344,0.48068
6802.68470,0.48018
6800.75595,0.48027
6798.82721,0.47937
6796.89846,0.47871
6794.96972,0.47983
6793.04097,0.48165
6791.11223,0.48235
6789.18348,0.48062
6787.25474,0.47727
6785.32599,0.47523
6783.39725,0.47503
6781.46850,0.47536
6779.53975,0.47654
6777.61101,0.47815
6775.68226,0.47878
6773.75352,0.47938
6771.82477,0.48139
6769.89603,0.48341
6767.96728,0.48305
6766.03854,0.48097
6764.10979,0.47953
6762.18105,0.47867
6760.25230,0.47749
6758.32356,0.47698
6756.39481,0.47737
6754.46607,0.47769
6752.53732,0.47864
6750.60858,0.48009
6748.67983,0.47957
6746.75108,0.47801
6744.82234,0.47835
6742.89359,0.47944
6740.96485,0.47989
6739.03610,0.48049
6737.10736,0.48028
6735.17861,0.47833
6733.24987,0.47717
6731.32112,0.47860
6729.39238,0.48035
6727.46363,0.48131
6725.53489,0.48290
6723.60614,0.48448
6721.67740,0.48482
6719.74865,0.48396
6717.81991,0.48268
6715.89116,0.48341
6713.96241,0.48580
6712.03367,0.48529
6710.10492,0.48245
6708.17618,0.48209
6706.24743,0.48301
6704.31869,0.48178
6702.38994,0.47984
6700.46120,0.47970
6698.53245,0.48124
6696.60371,0.48298
6694.67496,0.48376
6692.74622,0.48358
6690.81747,0.48388
6688.88873,0.48464
6686.95998,0.48432
6685.03123,0.48449
6683.10249,0.48628
6681.17374,0.48726
6679.24500,0.48723
6677.31625,0.48757
6675.38751,0.48739
6673.45876,0.48606
6671.53002,0.48464
6669.60127,0.48417
6667.67253,0.48561
6665.74378,0.48870
6663.81504,0.49163
6661.88629,0.49325
6659.95755,0.49383
6658.02880,0.49334
6656.10006,0.49121
6654.17131,0.48858
6652.24256,0.48692
6650.31382,0.48547
6648.38507,0.48451
6646.45633,0.48509
6644.52758,0.48571
6642.59884,0.48597
6640.67009,0.48698
6638.74135,0.48807
6636.81260,0.48856
6634.88386,0.48848
6632.95511,0.48757
6631.02637,0.48632
6629.09762,0.48588
6627.16888,0.48604
6625.24013,0.48586
6623.31139,0.48601
6621.38264,0.48741
6619.45389,0.48952
6617.52515,0.49056
6615.59640,0.48914
6613.66766,0.48714
6611.73891,0.48748
6609.81017,0.48921
6607.88142,0.48924
6605.95268,0.48725
6604.02393,0.48596
6602.09519,0.48715
6600.16644,0.48858
6598.23770,0.48788
6596.30895,0.48721
6594.38021,0.48890
6592.45146,0.49094
6590.52271,0.49084
6588.59397,0.48983
6586.66522,0.48948
6584.73648,0.48863
6582.80773,0.48778
6580.87899,0.48837
6578.95024,0.48832
6577.02150,0.48708
6575.09275,0.48749
6573.16401,0.48962
6571.23526,0.49081
6569.30652,0.49022
6567.37777,0.48933
6565.44903,0.49028
6563.52028,0.49298
6561.59154,0.49439
6559.66279,0.49339
6557.73404,0.49166
6555.80530,0.49015
6553.87655,0.48951
6551.94781,0.49021
6550.01906,0.49126
6548.09032,0.49165
6546.16157,0.49158
6544.23283,0.49119
6542.30408,0.49049
6540.37534,0.49074
6538.44659,0.49251
6536.51785,0.49399
6534.58910,0.49354
6532.66036,0.49138
6530.73161,0.49027
6528.80287,0.49226
6526.87412,0.49444
6524.94537,0.49446
6523.01663,0.49466
6521.08788,0.49549
6519.15914,0.49501
6517.23039,0.49379
6515.30165,0.49346
6513.37290,0.49362
6511.44416,0.49242
6509.51541,0.49073
6507.58667,0.49114
6505.65792,0.49188
6503.72918,0.49093
6501.80043,0.49050
6499.87169,0.49177
6497.94294,0.49369
6496.01419,0.49517
6494.08545,0.49466
6492.15670,0.49292
6490.22796,0.49302
6488.29921,0.49484
6486.37047,0.49603
6484.44172,0.49637
6482.51298,0.49666
6480.58423,0.49685
6478.65549,0.49604
6476.72674,0.49426
6474.79800,0.49351
6472.86925,0.49586
6470.94051,0.49973
6469.01176,0.50089
6467.08302,0.49919
6465.15427,0.49749
6463.22552,0.49545
6461.29678,0.49270
6459.36803,0.49223
6457.43929,0.49506
6455.51054,0.49762
6453.58180,0.49654
6451.65305,0.49286
6449.72431,0.49086
6447.79556,0.49202
6445.86682,0.49433
6443.93807,0.49632
6442.00933,0.49666
6440.08058,0.49426
6438.15184,0.49139
6436.22309,0.49127
6434.29434,0.49334
6432.36560,0.49556
6430.43685,0.49708
6428.50811,0.49703
6426.57936,0.49606
6424.65062,0.49537
6422.72187,0.49554
6420.79313,0.49690
6418.86438,0.49762
6416.93564,0.49625
6415.00689,0.49444
6413.07815,0.49416
6411.14940,0.49518
6409.22066,0.49566
6407.29191,0.49443
6405.36317,0.49272
6403.43442,0.49258
6401.50567,0.49404
6399.57693,0.49491
6397.64818,0.49469
6395.71944,0.49576
6393.79069,0.49800
6391.86195,0.49845
6389.93320,0.49610
6388.00446,0.49290
6386.07571,0.49191
6384.14697,0.49333
6382.21822,0.49436
6380.28948,0.49406
6378.36073,0.49383
6376.43199,0.49404
6374.50324,0.49329
6372.57450,0.49155
6370.64575,0.49048
6368.71700,0.49118
6366.78826,0.49334
6364.85951,0.49533
6362.93077,0.49612
6361.00202,0.49610
6359.07328,0.49598
6357.14453,0.49622
6355.21579,0.49662
6353.28704,0.49671
6351.35830,0.49664
6349.42955,0.49665
6347.50081,0.49616
6345.57206,0.49543
6343.64332,0.49474
6341.71457,0.49340
6339.78582,0.49307
6337.85708,0.49436
6335.92833,0.49426
6333.99959,0.49296
6332.07084,0.49385
6330.14210,0.49651
6328.21335,0.49754
6326.28461,0.49650
6324.35586,0.49571
6322.42712,0.49580
6320.49837,0.49556
6318.56963,0.49478
6316.64088,0.49433
6314.71214,0.49464
6312.78339,0.49524
6310.85465,0.49519
6308.92590,0.49443
6306.99715,0.49420
6305.06841,0.49530
6303.13966,0.49672
6301.21092,0.49669
6299.28217,0.49520
6297.35343,0.49429
6295.42468,0.49461
6293.49594,0.49459
6291.56719,0.49398
6289.63845,0.49389
6287.70970,0.49451
6285.78096,0.49536
6283.85221,0.49622
6281.92347,0.49647
6279.99472,0.49561
6278.06598,0.49470
6276.13723,0.49501
6274.20848,0.49612
6272.27974,0.49667
6270.35099,0.49605
6268.42225,0.49497
6266.49350,0.49400
6264.56476,0.49382
6262.63601,0.49487
6260.70727,0.49542
6258.77852,0.49472
6256.84978,0.49491
6254.92103,0.49600
6252.99229,0.49587
6251.06354,0.49484
6249.13480,0.49428
6247.20605,0.49395
6245.27730,0.49359
6243.34856,0.49405
6241.41981,0.49542
6239.49107,0.49612
6237.56232,0.49561
6235.63358,0.49520
6233.70483,0.49472
6231.77609,0.49340
6229.84734,0.49243
6227.91860,0.49288
6225.98985,0.49429
6224.06111,0.49505
6222.13236,0.49395
6220.20362,0.49256
6218.27487,0.49269
6216.34613,0.49397
6214.41738,0.49537
6212.48863,0.49616
6210.55989,0.49675
6208.63114,0.49774
6206.70240,0.49845
6204.77365,0.49827
6202.84491,0.49732
6200.91616,0.49633
6198.98742,0.49605
6197.05867,0.49576
6195.12993,0.49530
6193.20118,0.49616
6191.27244,0.49730
6189.34369,0.49662
6187.41495,0.49491
6185.48620,0.49369
6183.55746,0.49363
6181.62871,0.49477
6179.69996,0.49631
6177.77122,0.49757
6175.84247,0.49827
6173.91373,0.49856
6171.98498,0.49891
6170.05624,0.49920
6168.12749,0.49899
6166.19875,0.49824
6164.27000,0.49729
6162.34126,0.49627
6160.41251,0.49488
6158.48377,0.49424
6156.55502,0.49528
6154.62628,0.49618
6152.69753,0.49583
6150.76878,0.49515
6148.84004,0.49474
6146.91129,0.49449
6144.98255,0.49396
6143.05380,0.49348
6141.12506,0.49369
6139.19631,0.49434
6137.26757,0.49479
6135.33882,0.49469
6133.41008,0.49382
6131.48133,0.49225
6129.55259,0.49089
6127.62384,0.49073
6125.69510,0.49110
6123.76635,0.49081
6121.83761,0.49044
6119.90886,0.48999
6117.98011,0.48847
6116.05137,0.48738
6114.12262,0.48782
6112.19388,0.48786
6110.26513,0.48667
6108.33639,0.48588
6106.40764,0.48577
6104.47890,0.48579
6102.55015,0.48655
6100.62141,0.48763
6098.69266,0.48774
6096.76392,0.48732
6094.83517,0.48749
6092.90643,0.48841
6090.97768,0.48972
6089.04893,0.49050
6087.12019,0.48961
6085.19144,0.48771
6083.26270,0.48666
6081.33395,0.48678
6079.40521,0.48752
6077.47646,0.48825
6075.54772,0.48775
6073.61897,0.48605
6071.69023,0.48467
6069.76148,0.48396
6067.83274,0.48334
6065.90399,0.48287
6063.97525,0.48282
6062.04650,0.48328
6060.11776,0.48347
6058.18901,0.48247
6056.26026,0.48118
6054.33152,0.48094
6052.40277,0.48144
6050.47403,0.48153
6048.54528,0.48133
6046.61654,0.48177
6044.68779,0.48240
6042.75905,0.48213
6040.83030,0.48088
6038.90156,0.47897
6036.97281,0.47716
6035.04407,0.47602
6033.11532,0.47607
6031.18658,0.47748
6029.25783,0.47793
6027.32909,0.47646
6025.40034,0.47602
6023.47159,0.47700
6021.54285,0.47639
6019.61410,0.47371
6017.68536,0.47181
6015.75661,0.47210
6013.82787,0.47271
6011.89912,0.47199
6009.97038,0.47068
6008.04163,0.46992
6006.11289,0.46943
6004.18414,0.46854
6002.25540,0.46772
6000.32665,0.46794
5998.39791,0.46911
5996.46916,0.46971
5994.54041,0.46819
5992.61167,0.46585
5990.68292,0.46500
5988.75418,0.46521
5986.82543,0.46548
5984.89669,0.46596
5982.96794,0.46596
5981.03920,0.46511
5979.11045,0.46411
5977.18171,0.46316
5975.25296,0.46235
5973.32422,0.46166
5971.39547,0.46038
5969.46673,0.45853
5967.53798,0.45702
5965.60924,0.45609
5963.68049,0.45510
5961.75174,0.45399
5959.82300,0.45379
5957.89425,0.45420
5955.96551,0.45390
5954.03676,0.45264
5952.10802,0.45054
5950.17927,0.44800
5948.25053,0.44634
5946.32178,0.44637
5944.39304,0.44728
5942.46429,0.44802
5940.53555,0.44771
5938.60680,0.44571
5936.67806,0.44351
5934.74931,0.44257
5932.82057,0.44138
5930.89182,0.43908
5928.96307,0.43702
5927.03433,0.43574
5925.10558,0.43506
5923.17684,0.43486
5921.24809,0.43365
5919.31935,0.43062
5917.39060,0.42789
5915.46186,0.42613
5913.53311,0.42342
5911.60437,0.42007
5909.67562,0.41730
5907.74688,0.41456
5905.81813,0.41160
5903.88939,0.40913
5901.96064,0.40690
5900.03189,0.40442
5898.10315,0.40212
5896.17440,0.39956
5894.24566,0.39608
5892.31691,0.39270
5890.38817,0.38992
5888.45942,0.38744
5886.53068,0.38548
5884.60193,0.38456
5882.67319,0.38477
5880.74444,0.38524
5878.81570,0.38618
5876.88695,0.38783
5874.95821,0.38843
5873.02946,0.38741
5871.10072,0.38639
5869.17197,0.38658
5867.24322,0.38754
5865.31448,0.38784
5863.38573,0.38658
5861.45699,0.38421
5859.52824,0.38153
5857.59950,0.37820
5855.67075,0.37379
5853.74201,0.36964
5851.81326,0.36730
5849.88452,0.36571
5847.95577,0.36302
5846.02703,0.35983
5844.09828,0.35747
5842.16954,0.35573
5840.24079,0.35407
5838.31205,0.35218
5836.38330,0.35019
5834.45455,0.34871
5832.52581,0.34759
5830.59706,0.34642
5828.66832,0.34572
5826.73957,0.34560
5824.81083,0.34574
5822.88208,0.34664
5820.95334,0.34801
5819.02459,0.34893
5817.09585,0.35030
5815.16710,0.35229
5813.23836,0.35322
5811.30961,0.35290
5809.38087,0.35236
5807.45212,0.35220
5805.52337,0.35308
5803.59463,0.35525
5801.66588,0.35761
5799.73714,0.35885
5797.80839,0.35939
5795.87965,0.35965
5793.95090,0.35990
5792.02216,0.36120
5790.09341,0.36328
5788.16467,0.36508
5786.23592,0.36685
5784.30718,0.36876
5782.37843,0.37019
5780.44969,0.37082
5778.52094,0.37162
5776.59220,0.37384
5774.66345,0.37635
5772.73470,0.37730
5770.80596,0.37760
5768.87721,0.37877
5766.94847,0.38012
5765.01972,0.38062
5763.09098,0.38078
5761.16223,0.38112
5759.23349,0.38134
5757.30474,0.38155
5755.37600,0.38196
5753.44725,0.38224
5751.51851,0.38221
5749.58976,0.38209
5747.66102,0.38210
5745.73227,0.38233
5743.80352,0.38293
5741.87478,0.38379
5739.94603,0.38422
5738.01729,0.38409
5736.08854,0.38407
5734.15980,0.38422
5732.23105,0.38368
5730.30231,0.38245
5728.37356,0.38151
5726.44482,0.38108
5724.51607,0.38039
5722.58733,0.37937
5720.65858,0.37897
5718.72984,0.37939
5716.80109,0.37988
5714.87235,0.37967
5712.94360,0.37879
5711.01485,0.37848
5709.08611,0.37908
5707.15736,0.37954
5705.22862,0.37927
5703.29987,0.37833
5701.37113,0.37750
5699.44238,0.37734
5697.51364,0.37729
5695.58489,0.37769
5693.65615,0.37887
5691.72740,0.37935
5689.79866,0.37884
5687.86991,0.37880
5685.94117,0.37942
5684.01242,0.38026
5682.08368,0.38131
5680.15493,0.38218
5678.22618,0.38223
5676.29744,0.38197
5674.36869,0.38267
5672.43995,0.38411
5670.51120,0.38510
5668.58246,0.38538
5666.65371,0.38582
5664.72497,0.38679
5662.79622,0.38746
5660.86748,0.38785
5658.93873,0.38853
5657.00999,0.38900
5655.08124,0.38933
5653.15250,0.39020
5651.22375,0.39126
5649.29500,0.39176
5647.36626,0.39189
5645.43751,0.39254
5643.50877,0.39371
5641.58002,0.39450
5639.65128,0.39415
5637.72253,0.39280
5635.79379,0.39158
5633.86504,0.39076
5631.93630,0.38931
5630.00755,0.38761
5628.07881,0.38732
5626.15006,0.38806
5624.22132,0.38785
5622.29257,0.38668
5620.36383,0.38597
5618.43508,0.38606
5616.50633,0.38685
5614.57759,0.38832
5612.64884,0.38981
5610.72010,0.39079
5608.79135,0.39194
5606.86261,0.39425
5604.93386,0.39710
5603.00512,0.39918
5601.07637,0.40056
5599.14763,0.40201
5597.21888,0.40371
5595.29014,0.40608
5593.36139,0.40925
5591.43265,0.41214
5589.50390,0.41405
5587.57516,0.41548
5585.64641,0.41665
5583.71766,0.41749
5581.78892,0.41885
5579.86017,0.42109
5577.93143,0.42313
5576.00268,0.42446
5574.07394,0.42563
5572.14519,0.42698
5570.21645,0.42828
5568.28770,0.42923
5566.35896,0.43007
5564.43021,0.43121
5562.50147,0.43257
5560.57272,0.43380
5558.64398,0.43462
5556.71523,0.43489
5554.78648,0.43514
5552.85774,0.43606
5550.92899,0.43735
5549.00025,0.43819
5547.07150,0.43830
5545.14276,0.43821
5543.21401,0.43853
5541.28527,0.43897
5539.35652,0.43922
5537.42778,0.43925
5535.49903,0.43932
5533.57029,0.43992
5531.64154,0.44085
5529.71280,0.44187
5527.78405,0.44284
5525.85531,0.44345
5523.92656,0.44361
5521.99781,0.44328
5520.06907,0.44273
5518.14032,0.44278
5516.21158,0.44347
5514.28283,0.44404
5512.35409,0.44431
5510.42534,0.44466
5508.49660,0.44537
5506.56785,0.44577
5504.63911,0.44499
5502.71036,0.44428
5500.78162,0.44482
5498.85287,0.44542
5496.92413,0.44546
5494.99538,0.44500
5493.06664,0.44428
5491.13789,0.44458
5489.20914,0.44576
5487.28040,0.44656
5485.35165,0.44706
5483.42291,0.44763
5481.49416,0.44771
5479.56542,0.44721
5477.63667,0.44717
5475.70793,0.44758
5473.77918,0.44744
5471.85044,0.44685
5469.92169,0.44611
5467.99295,0.44548
5466.06420,0.44581
5464.13546,0.44725
5462.20671,0.44884
5460.27796,0.44970
5458.34922,0.44942
5456.42047,0.44825
5454.49173,0.44748
5452.56298,0.44749
5450.63424,0.44754
5448.70549,0.44765
5446.77675,0.44792
5444.84800,0.44758
5442.91926,0.44643
5440.99051,0.44579
5439.06177,0.44645
5437.13302,0.44743
5435.20428,0.44751
5433.27553,0.44663
5431.34679,0.44594
5429.41804,0.44601
5427.48929,0.44655
5425.56055,0.44729
5423.63180,0.44748
5421.70306,0.44681
5419.77431,0.44637
5417.84557,0.44678
5415.91682,0.44733
5413.98808,0.44735
5412.05933,0.44685
5410.13059,0.44634
5408.20184,0.44659
5406.27310,0.44754
5404.34435,0.44808
5402.41561,0.44751
5400.48686,0.44654
5398.55811,0.44622
5396.62937,0.44643
5394.70062,0.44671
5392.77188,0.44714
5390.84313,0.44750
5388.91439,0.44749
5386.98564,0.44731
5385.05690,0.44744
5383.12815,0.44818
5381.19941,0.44894
5379.27066,0.44902
5377.34192,0.44870
5375.41317,0.44854
5373.48443,0.44866
5371.55568,0.44857
5369.62694,0.44771
5367.69819,0.44664
5365.76944,0.44670
5363.84070,0.44824
5361.91195,0.44961
5359.98321,0.44933
5358.05446,0.44849
5356.12572,0.44870
5354.19697,0.44951
5352.26823,0.45004
5350.33948,0.45027
5348.41074,0.45005
5346.48199,0.44942
5344.55325,0.44880
5342.62450,0.44879
5340.69576,0.44917
5338.76701,0.44884
5336.83827,0.44835
5334.90952,0.44862
5332.98077,0.44866
5331.05203,0.44799
5329.12328,0.44765
5327.19454,0.44792
5325.26579,0.44782
5323.33705,0.44702
5321.40830,0.44640
5319.47956,0.44640
5317.55081,0.44666
5315.62207,0.44699
5313.69332,0.44734
5311.76458,0.44752
5309.83583,0.44749
5307.90709,0.44743
5305.97834,0.44787
5304.04959,0.44854
5302.12085,0.44862
5300.19210,0.44839
5298.26336,0.44877
5296.33461,0.44992
5294.40587,0.45093
5292.47712,0.45054
5290.54838,0.44921
5288.61963,0.44862
5286.69089,0.44901
5284.76214,0.44954
5282.83340,0.44993
5280.90465,0.45013
5278.97591,0.44994
5277.04716,0.44917
5275.11842,0.44850
5273.18967,0.44861
5271.26092,0.44892
5269.33218,0.44908
5267.40343,0.44880
5265.47469,0.44744
5263.54594,0.44595
5261.61720,0.44527
5259.68845,0.44447
5257.75971,0.44338
5255.83096,0.44290
5253.90222,0.44288
5251.97347,0.44263
5250.04473,0.44226
5248.11598,0.44237
5246.18724,0.44260
5244.25849,0.44222
5242.32975,0.44160
5240.40100,0.44106
5238.47225,0.44041
5236.54351,0.43958
5234.61476,0.43886
5232.68602,0.43863
5230.75727,0.43853
5228.82853,0.43836
5226.89978,0.43868
5224.97104,0.43913
5223.04229,0.43878
5221.11355,0.43766
5219.18480,0.43650
5217.25606,0.43570
5215.32731,0.43527
5213.39857,0.43537
5211.46982,0.43578
5209.54107,0.43580
5207.61233,0.43553
5205.68358,0.43557
5203.75484,0.43569
5201.82609,0.43545
5199.89735,0.43510
5197.96860,0.43503
5196.03986,0.43515
5194.11111,0.43495
5192.18237,0.43419
5190.25362,0.43327
5188.32488,0.43276
5186.39613,0.43286
5184.46739,0.43327
5182.53864,0.43360
5180.60990,0.43382
5178.68115,0.43391
5176.75240,0.43368
5174.82366,0.43323
5172.89491,0.43319
5170.96617,0.43374
5169.03742,0.43426
5167.10868,0.43433
5165.17993,0.43380
5163.25119,0.43303
5161.32244,0.43295
5159.39370,0.43380
5157.46495,0.43451
5155.53621,0.43431
5153.60746,0.43393
5151.67872,0.43399
5149.74997,0.43411
5147.82123,0.43408
5145.89248,0.43425
5143.96373,0.43465
5142.03499,0.43494
5140.10624,0.43506
5138.17750,0.43517
5136.24875,0.43530
5134.32001,0.43526
5132.39126,0.43490
5130.46252,0.43457
5128.53377,0.43474
5126.60503,0.43512
5124.67628,0.43533
5122.74754,0.43582
5120.81879,0.43628
5118.89005,0.43605
5116.96130,0.43574
5115.03255,0.43609
5113.10381,0.43676
5111.17506,0.43711
5109.24632,0.43669
5107.31757,0.43580
5105.38883,0.43544
5103.46008,0.43593
5101.53134,0.43673
5099.60259,0.43766
5097.67385,0.43881
5095.74510,0.43944
5093.81636,0.43890
5091.88761,0.43822
5089.95887,0.43850
5088.03012,0.43877
5086.10138,0.43827
5084.17263,0.43787
5082.24388,0.43804
5080.31514,0.43853
5078.38639,0.43898
5076.45765,0.43888
5074.52890,0.43856
5072.60016,0.43864
5070.67141,0.43890
5068.74267,0.43913
5066.81392,0.43938
5064.88518,0.43970
5062.95643,0.44018
5061.02769,0.44054
5059.09894,0.44050
5057.17020,0.44018
5055.24145,0.43977
5053.31270,0.43943
5051.38396,0.43954
5049.45521,0.44001
5047.52647,0.44015
5045.59772,0.43965
5043.66898,0.43886
5041.74023,0.43857
5039.81149,0.43903
5037.88274,0.43946
5035.95400,0.43943
5034.02525,0.43921
5032.09651,0.43900
5030.16776,0.43906
5028.23902,0.43945
5026.31027,0.43968
5024.38153,0.43971
5022.45278,0.43977
5020.52403,0.43977
5018.59529,0.43960
5016.66654,0.43936
5014.73780,0.43931
5012.80905,0.43943
5010.88031,0.43963
5008.95156,0.43986
5007.02282,0.43989
5005.09407,0.43966
5003.16533,0.43932
5001.23658,0.43936
4999.30784,0.43974
4997.37909,0.43985
4995.45035,0.43983
4993.52160,0.43995
4991.59286,0.44016
4989.66411,0.44027
4987.73536,0.44019
4985.80662,0.44009
4983.87787,0.43990
4981.94913,0.43928
4980.02038,0.43833
4978.09164,0.43770
4976.16289,0.43748
4974.23415,0.43720
4972.30540,0.43676
4970.37666,0.43663
4968.44791,0.43699
4966.51917,0.43696
4964.59042,0.43627
4962.66168,0.43587
4960.73293,0.43598
4958.80418,0.43581
4956.87544,0.43517
4954.94669,0.43461
4953.01795,0.43454
4951.08920,0.43469
4949.16046,0.43443
4947.23171,0.43366
4945.30297,0.43283
4943.37422,0.43247
4941.44548,0.43258
4939.51673,0.43264
4937.58799,0.43263
4935.65924,0.43271
4933.73050,0.43238
4931.80175,0.43137
4929.87301,0.43037
4927.94426,0.43032
4926.01551,0.43095
4924.08677,0.43145
4922.15802,0.43165
4920.22928,0.43157
4918.30053,0.43116
4916.37179,0.43063
4914.44304,0.43035
4912.51430,0.43030
4910.58555,0.42997
4908.65681,0.42947
4906.72806,0.42925
4904.79932,0.42930
4902.87057,0.42955
4900.94183,0.42963
4899.01308,0.42895
4897.08434,0.42796
4895.15559,0.42773
4893.22684,0.42826
4891.29810,0.42849
4889.36935,0.42835
4887.44061,0.42846
4885.51186,0.42832
4883.58312,0.42756
4881.65437,0.42710
4879.72563,0.42730
4877.79688,0.42748
4875.86814,0.42744
4873.93939,0.42707
4872.01065,0.42624
4870.08190,0.42560
4868.15316,0.42539
4866.22441,0.42531
4864.29566,0.42543
4862.36692,0.42588
4860.43817,0.42632
4858.50943,0.42601
4856.58068,0.42523
4854.65194,0.42489
4852.72319,0.42468
4850.79445,0.42425
4848.86570,0.42412
4846.93696,0.42415
4845.00821,0.42400
4843.07947,0.42409
4841.15072,0.42443
4839.22198,0.42442
4837.29323,0.42382
4835.36449,0.42316
4833.43574,0.42303
4831.50699,0.42323
4829.57825,0.42352
4827.64950,0.42372
4825.72076,0.42345
4823.79201,0.42278
4821.86327,0.42215
4819.93452,0.42195
4818.00578,0.42218
4816.07703,0.42222
4814.14829,0.42170
4812.21954,0.42097
4810.29080,0.42063
4808.36205,0.42065
4806.43331,0.42056
4804.50456,0.42022
4802.57582,0.41990
4800.64707,0.41975
4798.71832,0.41955
4796.78958,0.41944
4794.86083,0.41987
4792.93209,0.42041
4791.00334,0.42038
4789.07460,0.41992
4787.14585,0.41933
4785.21711,0.41856
4783.28836,0.41793
4781.35962,0.41779
4779.43087,0.41770
4777.50213,0.41720
4775.57338,0.41660
4773.64464,0.41628
4771.71589,0.41620
4769.78714,0.41627
4767.85840,0.41640
4765.92965,0.41648
4764.00091,0.41646
4762.07216,0.41646
4760.14342,0.41670
4758.21467,0.41689
4756.28593,0.41652
4754.35718,0.41597
4752.42844,0.41585
4750.49969,0.41584
4748.57095,0.41563
4746.64220,0.41557
4744.71346,0.41540
4742.78471,0.41465
4740.85597,0.41382
4738.92722,0.41353
4736.99847,0.41357
4735.06973,0.41346
4733.14098,0.41291
4731.21224,0.41223
4729.28349,0.41161
4727.35475,0.41077
4725.42600,0.40992
4723.49726,0.40946
4721.56851,0.40911
4719.63977,0.40860
4717.71102,0.40785
4715.78228,0.40679
4713.85353,0.40582
4711.92479,0.40532
4709.99604,0.40513
4708.06729,0.40477
4706.13855,0.40390
4704.20980,0.40305
4702.28106,0.40298
4700.35231,0.40328
4698.42357,0.40315
4696.49482,0.40257
4694.56608,0.40182
4692.63733,0.40125
4690.70859,0.40136
4688.77984,0.40202
4686.85110,0.40244
4684.92235,0.40235
4682.99361,0.40214
4681.06486,0.40203
4679.13612,0.40191
4677.20737,0.40168
4675.27862,0.40106
4673.34988,0.40012
4671.42113,0.39965
4669.49239,0.39973
4667.56364,0.39939
4665.63490,0.39846
4663.70615,0.39753
4661.77741,0.39692
4659.84866,0.39673
4657.91992,0.39674
4655.99117,0.39638
4654.06243,0.39541
4652.13368,0.39420
4650.20494,0.39313
4648.27619,0.39214
4646.34745,0.39096
4644.41870,0.38950
4642.48995,0.38806
4640.56121,0.38669
4638.63246,0.38532
4636.70372,0.38403
4634.77497,0.38288
4632.84623,0.38186
4630.91748,0.38123
4628.98874,0.38103
4627.05999,0.38096
4625.13125,0.38097
4623.20250,0.38114
4621.27376,0.38142
4619.34501,0.38193
4617.41627,0.38237
4615.48752,0.38245
4613.55877,0.38239
4611.63003,0.38226
4609.70128,0.38195
4607.77254,0.38173
4605.84379,0.38174
4603.91505,0.38191
4601.98630,0.38244
4600.05756,0.38322
4598.12881,0.38358
4596.20007,0.38364
4594.27132,0.38416
4592.34258,0.38488
4590.41383,0.38518
4588.48509,0.38538
4586.55634,0.38577
4584.62760,0.38620
4582.69885,0.38675
4580.77010,0.38733
4578.84136,0.38768
4576.91261,0.38791
4574.98387,0.38833
4573.05512,0.38898
4571.12638,0.38947
4569.19763,0.38985
4567.26889,0.39054
4565.34014,0.39137
4563.41140,0.39206
4561.48265,0.39265
4559.55391,0.39302
4557.62516,0.39320
4555.69642,0.39326
4553.76767,0.39325
4551.83893,0.39332
4549.91018,0.39334
4547.98143,0.39306
4546.05269,0.39271
4544.12394,0.39261
4542.19520,0.39248
4540.26645,0.39211
4538.33771,0.39165
4536.40896,0.39079
4534.48022,0.38943
4532.55147,0.38821
4530.62273,0.38734
4528.69398,0.38666
4526.76524,0.38616
4524.83649,0.38553
4522.90775,0.38462
4520.97900,0.38377
4519.05025,0.38317
4517.12151,0.38292
4515.19276,0.38309
4513.26402,0.38348
4511.33527,0.38388
4509.40653,0.38429
4507.47778,0.38463
4505.54904,0.38473
4503.62029,0.38460
4501.69155,0.38445
4499.76280,0.38443
4497.83406,0.38435
4495.90531,0.38405
4493.97657,0.38376
4492.04782,0.38339
4490.11908,0.38248
4488.19033,0.38140
4486.26158,0.38066
4484.33284,0.37993
4482.40409,0.37888
4480.47535,0.37773
4478.54660,0.37693
4476.61786,0.37653
4474.68911,0.37591
4472.76037,0.37457
4470.83162,0.37302
4468.90288,0.37202
4466.97413,0.37142
4465.04539,0.37058
4463.11664,0.36923
4461.18790,0.36770
4459.25915,0.36622
4457.33041,0.36445
4455.40166,0.36230
4453.47291,0.36002
4451.54417,0.35771
4449.61542,0.35545
4447.68668,0.35330
4445.75793,0.35115
4443.82919,0.34888
4441.90044,0.34639
4439.97170,0.34375
4438.04295,0.34102
4436.11421,0.33818
4434.18546,0.33532
4432.25672,0.33250
4430.32797,0.32963
4428.39923,0.32674
4426.47048,0.32368
4424.54173,0.32003
4422.61299,0.31593
4420.68424,0.31209
4418.75550,0.30840
4416.82675,0.30443
4414.89801,0.30042
4412.96926,0.29673
4411.04052,0.29335
4409.11177,0.29011
4407.18303,0.28689
4405.25428,0.28383
4403.32554,0.28120
4401.39679,0.27900
4399.46805,0.27693
4397.53930,0.27489
4395.61056,0.27305
4393.68181,0.27139
4391.75306,0.26988
4389.82432,0.26828
4387.89557,0.26632
4385.96683,0.26419
4384.03808,0.26225
4382.10934,0.26056
4380.18059,0.25892
4378.25185,0.25717
4376.32310,0.25537
4374.39436,0.25348
4372.46561,0.25126
4370.53687,0.24896
4368.60812,0.24724
4366.67938,0.24600
4364.75063,0.24459
4362.82189,0.24280
4360.89314,0.24083
4358.96439,0.23897
4357.03565,0.23748
4355.10690,0.23630
4353.17816,0.23514
4351.24941,0.23401
4349.32067,0.23313
4347.39192,0.23238
4345.46318,0.23125
4343.53443,0.22932
4341.60569,0.22700
4339.67694,0.22511
4337.74820,0.22373
4335.81945,0.22261
4333.89071,0.22187
4331.96196,0.22155
4330.03321,0.22157
4328.10447,0.22229
4326.17572,0.22393
4324.24698,0.22597
4322.31823,0.22807
4320.38949,0.23045
4318.46074,0.23304
4316.53200,0.23508
4314.60325,0.23618
4312.67451,0.23681
4310.74576,0.23734
4308.81702,0.23742
4306.88827,0.23675
4304.95953,0.23560
4303.03078,0.23422
4301.10204,0.23276
4299.17329,0.23143
4297.24454,0.23028
4295.31580,0.22940
4293.38705,0.22901
4291.45831,0.22897
4289.52956,0.22911
4287.60082,0.22960
4285.67207,0.23041
4283.74333,0.23127
4281.81458,0.23207
4279.88584,0.23307
4277.95709,0.23430
4276.02835,0.23547
4274.09960,0.23655
4272.17086,0.23751
4270.24211,0.23800
4268.31336,0.23802
4266.38462,0.23774
4264.45587,0.23716
4262.52713,0.23643
4260.59838,0.23569
4258.66964,0.23493
4256.74089,0.23440
4254.81215,0.23427
4252.88340,0.23455
4250.95466,0.23510
4249.02591,0.23552
4247.09717,0.23587
4245.16842,0.23660
4243.23968,0.23772
4241.31093,0.23895
4239.38219,0.24004
4237.45344,0.24090
4235.52469,0.24181
4233.59595,0.24295
4231.66720,0.24402
4229.73846,0.24488
4227.80971,0.24574
4225.88097,0.24678
4223.95222,0.24779
4222.02348,0.24856
4220.09473,0.24941
4218.16599,0.25070
4216.23724,0.25231
4214.30850,0.25387
4212.37975,0.25526
4210.45101,0.25656
4208.52226,0.25784
4206.59352,0.25905
4204.66477,0.26002
4202.73602,0.26073
4200.80728,0.26128
4198.87853,0.26166
4196.94979,0.26209
4195.02104,0.26285
4193.09230,0.26374
4191.16355,0.26446
4189.23481,0.26485
4187.30606,0.26495
4185.37732,0.26515
4183.44857,0.26562
4181.51983,0.26598
4179.59108,0.26596
4177.66234,0.26573
4175.73359,0.26553
4173.80484,0.26539
4171.87610,0.26531
4169.94735,0.26525
4168.01861,0.26526
4166.08986,0.26540
4164.16112,0.26561
4162.23237,0.26580
4160.30363,0.26598
4158.37488,0.26635
4156.44614,0.26721
4154.51739,0.26831
4152.58865,0.26939
4150.65990,0.27049
4148.73116,0.27166
4146.80241,0.27289
4144.87367,0.27413
4142.94492,0.27531
4141.01617,0.27650
4139.08743,0.27776
4137.15868,0.27879
4135.22994,0.27954
4133.30119,0.28022
4131.37245,0.28111
4129.44370,0.28207
4127.51496,0.28265
4125.58621,0.28285
4123.65747,0.28292
4121.72872,0.28287
4119.79998,0.28271
4117.87123,0.28260
4115.94249,0.28256
4114.01374,0.28251
4112.08500,0.28246
4110.15625,0.28246
4108.22750,0.28246
4106.29876,0.28230
4104.37001,0.28194
4102.44127,0.28152
4100.51252,0.28121
4098.58378,0.28094
4096.65503,0.28045
4094.72629,0.27969
4092.79754,0.27905
4090.86880,0.27877
4088.94005,0.27844
4087.01131,0.27774
4085.08256,0.27686
4083.15382,0.27604
4081.22507,0.27522
4079.29632,0.27407
4077.36758,0.27239
4075.43883,0.27020
4073.51009,0.26744
4071.58134,0.26423
4069.65260,0.26072
4067.72385,0.25714
4065.79511,0.25409
4063.86636,0.25222
4061.93762,0.25180
4060.00887,0.25280
4058.08013,0.25492
4056.15138,0.25762
4054.22264,0.26037
4052.29389,0.26284
4050.36515,0.26475
4048.43640,0.26613
4046.50765,0.26717
4044.57891,0.26785
4042.65016,0.26821
4040.72142,0.26857
4038.79267,0.26914
4036.86393,0.26976
4034.93518,0.27031
4033.00644,0.27081
4031.07769,0.27118
4029.14895,0.27138
4027.22020,0.27172
4025.29146,0.27240
4023.36271,0.27314
4021.43397,0.27365
4019.50522,0.27391
4017.57648,0.27405
4015.64773,0.27408
4013.71898,0.27397
4011.79024,0.27385
4009.86149,0.27371
4007.93275,0.27351
4006.00400,0.27340
4004.07526,0.27337
4002.14651,0.27324
4000.21777,0.27307
3998.28902,0.27295
3996.36028,0.27296
3994.43153,0.27318
3992.50279,0.27323
3990.57404,0.27297
3988.64530,0.27272
3986.71655,0.27252
3984.78780,0.27226
3982.85906,0.27197
3980.93031,0.27160
3979.00157,0.27117
3977.07282,0.27083
3975.14408,0.27055
3973.21533,0.27034
3971.28659,0.27026
3969.35784,0.27015
3967.42910,0.26976
3965.50035,0.26916
3963.57161,0.26871
3961.64286,0.26855
3959.71412,0.26869
3957.78537,0.26894
3955.85663,0.26887
3953.92788,0.26842
3951.99913,0.26807
3950.07039,0.26797
3948.14164,0.26779
3946.21290,0.26759
3944.28415,0.26772
3942.35541,0.26821
3940.42666,0.26894
3938.49792,0.26986
3936.56917,0.27087
3934.64043,0.27181
3932.71168,0.27273
3930.78294,0.27387
3928.85419,0.27531
3926.92545,0.27683
3924.99670,0.27801
3923.06795,0.27888
3921.13921,0.28003
3919.21046,0.28160
3917.28172,0.28296
3915.35297,0.28376
3913.42423,0.28443
3911.49548,0.28529
3909.56674,0.28607
3907.63799,0.28654
3905.70925,0.28679
3903.78050,0.28707
3901.85176,0.28755
3899.92301,0.28826
3897.99427,0.28898
3896.06552,0.28956
3894.13678,0.28994
3892.20803,0.29015
3890.27928,0.29036
3888.35054,0.29094
3886.42179,0.29179
3884.49305,0.29265
3882.56430,0.29355
3880.63556,0.29433
3878.70681,0.29494
3876.77807,0.29583
3874.84932,0.29696
3872.92058,0.29801
3870.99183,0.29904
3869.06309,0.30021
3867.13434,0.30111
3865.20560,0.30144
3863.27685,0.30170
3861.34811,0.30240
3859.41936,0.30331
3857.49061,0.30417
3855.56187,0.30482
3853.63312,0.30500
3851.70438,0.30517
3849.77563,0.30566
3847.84689,0.30624
3845.91814,0.30701
3843.98940,0.30812
3842.06065,0.30932
3840.13191,0.31021
3838.20316,0.31057
3836.27442,0.31080
3834.34567,0.31150
3832.41693,0.31228
3830.48818,0.31250
3828.55943,0.31264
3826.63069,0.31316
3824.70194,0.31383
3822.77320,0.31422
3820.84445,0.31430
3818.91571,0.31468
3816.98696,0.31518
3815.05822,0.31533
3813.12947,0.31561
3811.20073,0.31630
3809.27198,0.31705
3807.34324,0.31746
3805.41449,0.31773
3803.48575,0.31806
3801.55700,0.31824
3799.62826,0.31855
3797.69951,0.31924
3795.77076,0.31971
3793.84202,0.31971
3791.91327,0.31964
3789.98453,0.31963
3788.05578,0.31953
3786.12704,0.31930
3784.19829,0.31915
3782.26955,0.31921
3780.34080,0.31925
3778.41206,0.31914
3776.48331,0.31913
3774.55457,0.31913
3772.62582,0.31890
3770.69708,0.31841
3768.76833,0.31788
3766.83959,0.31750
3764.91084,0.31722
3762.98209,0.31704
3761.05335,0.31683
3759.12460,0.31658
3757.19586,0.31676
3755.26711,0.31741
3753.33837,0.31788
3751.40962,0.31773
3749.48088,0.31744
3747.55213,0.31759
3745.62339,0.31770
3743.69464,0.31740
3741.76590,0.31749
3739.83715,0.31791
3737.90841,0.31784
3735.97966,0.31713
3734.05091,0.31644
3732.12217,0.31622
3730.19342,0.31635
3728.26468,0.31622
3726.33593,0.31555
3724.40719,0.31474
3722.47844,0.31414
3720.54970,0.31364
3718.62095,0.31306
3716.69221,0.31219
3714.76346,0.31124
3712.83472,0.31038
3710.90597,0.30937
3708.97723,0.30816
3707.04848,0.30672
3705.11974,0.30510
3703.19099,0.30342
3701.26224,0.30146
3699.33350,0.29929
3697.40475,0.29715
3695.47601,0.29495
3693.54726,0.29244
3691.61852,0.28950
3689.68977,0.28607
3687.76103,0.28221
3685.83228,0.27832
3683.90354,0.27454
3681.97479,0.27063
3680.04605,0.26640
3678.11730,0.26195
3676.18856,0.25765
3674.25981,0.25442
3672.33107,0.25224
3670.40232,0.24977
3668.47357,0.24680
3666.54483,0.24423
3664.61608,0.24196
3662.68734,0.23964
3660.75859,0.23714
3658.82985,0.23417
3656.90110,0.23047
3654.97236,0.22677
3653.04361,0.22394
3651.11487,0.22115
3649.18612,0.21734
3647.25738,0.21308
3645.32863,0.20951
3643.39989,0.20647
3641.47114,0.20337
3639.54239,0.20007
3637.61365,0.19669
3635.68490,0.19338
3633.75616,0.19036
3631.82741,0.18765
3629.89867,0.18426
3627.96992,0.17953
3626.04118,0.17517
3624.11243,0.17174
3622.18369,0.16835
3620.25494,0.16483
3618.32620,0.16170
3616.39745,0.15919
3614.46871,0.15664
3612.53996,0.15368
3610.61122,0.15079
3608.68247,0.14820
3606.75372,0.14578
3604.82498,0.14372
3602.89623,0.14187
3600.96749,0.13993
3599.03874,0.13804
3597.11000,0.13617
3595.18125,0.13417
3593.25251,0.13229
3591.32376,0.13049
3589.39502,0.12853
3587.46627,0.12650
3585.53753,0.12448
3583.60878,0.12256
3581.68004,0.12100
3579.75129,0.11979
3577.82254,0.11857
3575.89380,0.11710
3573.96505,0.11541
3572.03631,0.11373
3570.10756,0.11212
3568.17882,0.11043
3566.25007,0.10878
3564.32133,0.10756
3562.39258,0.10656
3560.46384,0.10543
3558.53509,0.10410
3556.60635,0.10263
3554.67760,0.10126
3552.74886,0.10005
3550.82011,0.09892
3548.89137,0.09790
3546.96262,0.09700
3545.03387,0.09607
3543.10513,0.09508
3541.17638,0.09418
3539.24764,0.09344
3537.31889,0.09269
3535.39015,0.09178
3533.46140,0.09086
3531.53266,0.09000
3529.60391,0.08910
3527.67517,0.08835
3525.74642,0.08799
3523.81768,0.08753
3521.88893,0.08652
3519.96019,0.08550
3518.03144,0.08495
3516.10270,0.08455
3514.17395,0.08393
3512.24520,0.08314
3510.31646,0.08232
3508.38771,0.08154
3506.45897,0.08096
3504.53022,0.08057
3502.60148,0.08015
3500.67273,0.07968
3498.74399,0.07918
3496.81524,0.07856
3494.88650,0.07794
3492.95775,0.07750
3491.02901,0.07718
3489.10026,0.07677
3487.17152,0.07606
3485.24277,0.07516
3483.31402,0.07457
3481.38528,0.07429
3479.45653,0.07398
3477.52779,0.07354
3475.59904,0.07298
3473.67030,0.07242
3471.74155,0.07197
3469.81281,0.07146
3467.88406,0.07075
3465.95532,0.07027
3464.02657,0.07028
3462.09783,0.07011
3460.16908,0.06940
3458.24034,0.06878
3456.31159,0.06849
3454.38285,0.06813
3452.45410,0.06769
3450.52535,0.06736
3448.59661,0.06704
3446.66786,0.06676
3444.73912,0.06670
3442.81037,0.06672
3440.88163,0.06652
3438.95288,0.06608
3437.02414,0.06555
3435.09539,0.06503
3433.16665,0.06459
3431.23790,0.06421
3429.30916,0.06387
3427.38041,0.06364
3425.45167,0.06357
3423.52292,0.06349
3421.59418,0.06331
3419.66543,0.06305
3417.73668,0.06283
3415.80794,0.06276
3413.87919,0.06271
3411.95045,0.06248
3410.02170,0.06212
3408.09296,0.06174
3406.16421,0.06147
3404.23547,0.06157
3402.30672,0.06181
3400.37798,0.06151
3398.44923,0.06081
3396.52049,0.06057
3394.59174,0.06082
3392.66300,0.06089
3390.73425,0.06064
3388.80550,0.06047
3386.87676,0.06041
3384.94801,0.06023
3383.01927,0.06005
3381.09052,0.05994
3379.16178,0.05964
3377.23303,0.05926
3375.30429,0.05916
3373.37554,0.05930
3371.44680,0.05937
3369.51805,0.05916
3367.58931,0.05908
3365.66056,0.05927
3363.73182,0.05921
3361.80307,0.05880
3359.87433,0.05846
3357.94558,0.05848
3356.01683,0.05871
3354.08809,0.05871
3352.15934,0.05839
3350.23060,0.05831
3348.30185,0.05880
3346.37311,0.05920
3344.44436,0.05895
3342.51562,0.05843
3340.58687,0.05817
3338.65813,0.05802
3336.72938,0.05765
3334.80064,0.05736
3332.87189,0.05753
3330.94315,0.05787
3329.01440,0.05790
3327.08566,0.05756
3325.15691,0.05726
3323.22816,0.05726
3321.29942,0.05729
3319.37067,0.05709
3317.44193,0.05693
3315.51318,0.05693
3313.58444,0.05698
3311.65569,0.05714
3309.72695,0.05742
3307.79820,0.05778
3305.86946,0.05805
3303.94071,0.05804
3302.01197,0.05781
3300.08322,0.05757
3298.15448,0.05747
3296.22573,0.05749
3294.29698,0.05770
3292.36824,0.05821
3290.43949,0.05878
3288.51075,0.05904
3286.58200,0.05906
3284.65326,0.05911
3282.72451,0.05919
3280.79577,0.05940
3278.86702,0.05983
3276.93828,0.05998
3275.00953,0.05974
3273.08079,0.05959
3271.15204,0.05992
3269.22330,0.06057
3267.29455,0.06101
3265.36581,0.06106
3263.43706,0.06121
3261.50831,0.06177
3259.57957,0.06252
3257.65082,0.06324
3255.72208,0.06369
3253.79333,0.06378
3251.86459,0.06378
3249.93584,0.06401
3248.00710,0.06444
3246.07835,0.06482
3244.14961,0.06518
3242.22086,0.06567
3240.29212,0.06614
3238.36337,0.06657
3236.43463,0.06704
3234.50588,0.06741
3232.57713,0.06765
3230.64839,0.06798
3228.71964,0.06838
3226.79090,0.06864
3224.86215,0.06866
3222.93341,0.06865
3221.00466,0.06886
3219.07592,0.06928
3217.14717,0.06969
3215.21843,0.06989
3213.28968,0.06994
3211.36094,0.06984
3209.43219,0.06990
3207.50345,0.07050
3205.57470,0.07130
3203.64596,0.07180
3201.71721,0.07209
3199.78846,0.07238
3197.85972,0.07257
3195.93097,0.07270
3194.00223,0.07305
3192.07348,0.07365
3190.14474,0.07421
3188.21599,0.07458
3186.28725,0.07498
3184.35850,0.07552
3182.42976,0.07599
3180.50101,0.07628
3178.57227,0.07655
3176.64352,0.07685
3174.71478,0.07713
3172.78603,0.07731
3170.85729,0.07740
3168.92854,0.07771
3166.99979,0.07846
3165.07105,0.07922
3163.14230,0.07959
3161.21356,0.07982
3159.28481,0.08014
3157.35607,0.08039
3155.42732,0.08060
3153.49858,0.08096
3151.56983,0.08144
3149.64109,0.08169
3147.71234,0.08155
3145.78360,0.08150
3143.85485,0.08178
3141.92611,0.08207
3139.99736,0.08243
3138.06861,0.08298
3136.13987,0.08331
3134.21112,0.08324
3132.28238,0.08308
3130.35363,0.08323
3128.42489,0.08376
3126.49614,0.08431
3124.56740,0.08453
3122.63865,0.08453
3120.70991,0.08457
3118.78116,0.08472
3116.85242,0.08475
3114.92367,0.08459
3112.99493,0.08448
3111.06618,0.08453
3109.13744,0.08449
3107.20869,0.08417
3105.27994,0.08396
3103.35120,0.08421
3101.42245,0.08454
3099.49371,0.08441
3097.56496,0.08399
3095.63622,0.08371
3093.70747,0.08353
3091.77873,0.08329
3089.84998,0.08278
3087.92124,0.08198
3085.99249,0.08128
3084.06375,0.08082
3082.13500,0.08052
3080.20626,0.08048
3078.27751,0.08053
3076.34877,0.08045
3074.42002,0.08031
3072.49127,0.08027
3070.56253,0.08025
3068.63378,0.07994
3066.70504,0.07922
3064.77629,0.07849
3062.84755,0.07810
3060.91880,0.07800
3058.99006,0.07793
3057.06131,0.07772
3055.13257,0.07741
3053.20382,0.07675
3051.27508,0.07557
3049.34633,0.07427
3047.41759,0.07293
3045.48884,0.07134
3043.56009,0.06968
3041.63135,0.06815
3039.70260,0.06669
3037.77386,0.06530
3035.84511,0.06410
3033.91637,0.06305
3031.98762,0.06218
3030.05888,0.06175
3028.13013,0.06181
3026.20139,0.06216
3024.27264,0.06245
3022.34390,0.06260
3020.41515,0.06288
3018.48641,0.06325
3016.55766,0.06332
3014.62892,0.06302
3012.70017,0.06250
3010.77142,0.06171
3008.84268,0.06063
3006.91393,0.05930
3004.98519,0.05790
3003.05644,0.05658
3001.12770,0.05521
2999.19895,0.05368
2997.27021,0.05196
2995.34146,0.05000
2993.41272,0.04800
2991.48397,0.04627
2989.55523,0.04482
2987.62648,0.04356
2985.69774,0.04248
2983.76899,0.04151
2981.84025,0.04055
2979.91150,0.03952
2977.98275,0.03827
2976.05401,0.03684
2974.12526,0.03549
2972.19652,0.03428
2970.26777,0.03312
2968.33903,0.03209
2966.41028,0.03117
2964.48154,0.03036
2962.55279,0.02989
2960.62405,0.02979
2958.69530,0.02977
2956.76656,0.02971
2954.83781,0.02979
2952.90907,0.03007
2950.98032,0.03037
2949.05157,0.03061
2947.12283,0.03076
2945.19408,0.03070
2943.26534,0.03040
2941.33659,0.02995
2939.40785,0.02951
2937.47910,0.02915
2935.55036,0.02881
2933.62161,0.02851
2931.69287,0.02838
2929.76412,0.02836
2927.83538,0.02833
2925.90663,0.02820
2923.97789,0.02811
2922.04914,0.02849
2920.12040,0.02929
2918.19165,0.03002
2916.26290,0.03058
2914.33416,0.03107
2912.40541,0.03149
2910.47667,0.03194
2908.54792,0.03242
2906.61918,0.03280
2904.69043,0.03327
2902.76169,0.03396
2900.83294,0.03457
2898.90420,0.03502
2896.97545,0.03548
2895.04671,0.03594
2893.11796,0.03643
2891.18922,0.03682
2889.26047,0.03693
2887.33172,0.03706
2885.40298,0.03744
2883.47423,0.03790
2881.54549,0.03810
2879.61674,0.03794
2877.68800,0.03773
2875.75925,0.03772
2873.83051,0.03768
2871.90176,0.03743
2869.97302,0.03722
2868.04427,0.03714
2866.11553,0.03690
2864.18678,0.03632
2862.25804,0.03561
2860.32929,0.03499
2858.40055,0.03436
2856.47180,0.03367
2854.54305,0.03326
2852.61431,0.03335
2850.68556,0.03390
2848.75682,0.03507
2846.82807,0.03693
2844.89933,0.03935
2842.97058,0.04212
2841.04184,0.04490
2839.11309,0.04757
2837.18435,0.05036
2835.25560,0.05347
2833.32686,0.05668
2831.39811,0.05974
2829.46937,0.06288
2827.54062,0.06635
2825.61188,0.06976
2823.68313,0.07265
2821.75438,0.07533
2819.82564,0.07803
2817.89689,0.08036
2815.96815,0.08221
2814.03940,0.08419
2812.11066,0.08662
2810.18191,0.08897
2808.25317,0.09072
2806.32442,0.09206
2804.39568,0.09361
2802.46693,0.09548
2800.53819,0.09750
2798.60944,0.09957
2796.68070,0.10161
2794.75195,0.10374
2792.82320,0.10591
2790.89446,0.10780
2788.96571,0.10947
2787.03697,0.11127
2785.10822,0.11327
2783.17948,0.11512
2781.25073,0.11646
2779.32199,0.11749
2777.39324,0.11858
2775.46450,0.11966
2773.53575,0.12058
2771.60701,0.12138
2769.67826,0.12221
2767.74952,0.12317
2765.82077,0.12415
2763.89203,0.12490
2761.96328,0.12544
2760.03453,0.12609
2758.10579,0.12675
2756.17704,0.12727
2754.24830,0.12778
2752.31955,0.12838
2750.39081,0.12899
2748.46206,0.12946
2746.53332,0.12950
2744.60457,0.12918
2742.67583,0.12884
2740.74708,0.12858
2738.81834,0.12802
2736.88959,0.12659
2734.96085,0.12417
2733.03210,0.12096
2731.10336,0.11713
2729.17461,0.11339
2727.24586,0.11130
2725.31712,0.11202
2723.38837,0.11533
2721.45963,0.12010
2719.53088,0.12524
2717.60214,0.12997
2715.67339,0.13382
2713.74465,0.13652
2711.81590,0.13826
2709.88716,0.13931
2707.95841,0.13991
2706.02967,0.14040
2704.10092,0.14096
2702.17218,0.14141
2700.24343,0.14163
2698.31468,0.14172
2696.38594,0.14177
2694.45719,0.14180
2692.52845,0.14171
2690.59970,0.14148
2688.67096,0.14132
2686.74221,0.14143
2684.81347,0.14183
2682.88472,0.14223
2680.95598,0.14237
2679.02723,0.14235
2677.09849,0.14252
2675.16974,0.14296
2673.24100,0.14331
2671.31225,0.14332
2669.38351,0.14318
2667.45476,0.14314
2665.52601,0.14310
2663.59727,0.14292
2661.66852,0.14273
2659.73978,0.14264
2657.81103,0.14255
2655.88229,0.14225
2653.95354,0.14164
2652.02480,0.14080
2650.09605,0.13984
2648.16731,0.13889
2646.23856,0.13800
2644.30982,0.13692
2642.38107,0.13557
2640.45233,0.13403
2638.52358,0.13224
2636.59484,0.13027
2634.66609,0.12824
2632.73734,0.12623
2630.80860,0.12445
2628.87985,0.12302
2626.95111,0.12195
2625.02236,0.12135
2623.09362,0.12122
2621.16487,0.12131
2619.23613,0.12137
2617.30738,0.12118
2615.37864,0.12079
2613.44989,0.12035
2611.52115,0.11993
2609.59240,0.11950
2607.66366,0.11898
2605.73491,0.11832
2603.80616,0.11761
2601.87742,0.11687
2599.94867,0.11608
2598.01993,0.11524
2596.09118,0.11415
2594.16244,0.11289
2592.23369,0.11185
2590.30495,0.11108
2588.37620,0.11035
2586.44746,0.10976
2584.51871,0.10929
2582.58997,0.10877
2580.66122,0.10820
2578.73248,0.10771
2576.80373,0.10736
2574.87499,0.10714
2572.94624,0.10702
2571.01749,0.10688
2569.08875,0.10662
2567.16000,0.10620
2565.23126,0.10551
2563.30251,0.10456
2561.37377,0.10344
2559.44502,0.10214
2557.51628,0.10072
2555.58753,0.09949
2553.65879,0.09861
2551.73004,0.09796
2549.80130,0.09729
2547.87255,0.09651
2545.94381,0.09560
2544.01506,0.09444
2542.08631,0.09298
2540.15757,0.09121
2538.22882,0.08913
2536.30008,0.08679
2534.37133,0.08437
2532.44259,0.08220
2530.51384,0.08034
2528.58510,0.07871
2526.65635,0.07734
2524.72761,0.07616
2522.79886,0.07521
2520.87012,0.07481
2518.94137,0.07501
2517.01263,0.07546
2515.08388,0.07614
2513.15514,0.07726
2511.22639,0.07876
2509.29764,0.08057
2507.36890,0.08300
2505.44015,0.08608
2503.51141,0.08945
2501.58266,0.09299
2499.65392,0.09668
2497.72517,0.10036
2495.79643,0.10394
2493.86768,0.10758
2491.93894,0.11139
2490.01019,0.11543
2488.08145,0.11982
2486.15270,0.12452
2484.22396,0.12937
2482.29521,0.13434
2480.36647,0.13942
2478.43772,0.14448
2476.50897,0.14931
2474.58023,0.15386
2472.65148,0.15810
2470.72274,0.16179
2468.79399,0.16496
2466.86525,0.16792
2464.93650,0.17074
2463.00776,0.17329
2461.07901,0.17572
2459.15027,0.17818
2457.22152,0.18045
2455.29278,0.18243
2453.36403,0.18419
2451.43529,0.18575
2449.50654,0.18734
2447.57779,0.18913
2445.64905,0.19088
2443.72030,0.19250
2441.79156,0.19402
2439.86281,0.19531
2437.93407,0.19638
2436.00532,0.19749
2434.07658,0.19875
2432.14783,0.19992
2430.21909,0.20097
2428.29034,0.20207
2426.36160,0.20318
2424.43285,0.20420
2422.50411,0.20512
2420.57536,0.20596
2418.64662,0.20683
2416.71787,0.20763
2414.78912,0.20833
2412.86038,0.20907
2410.93163,0.20978
2409.00289,0.21034
2407.07414,0.21091
2405.14540,0.21178
2403.21665,0.21307
2401.28791,0.21450
2399.35916,0.21576
2397.43042,0.21691
2395.50167,0.21810
2393.57293,0.21930
2391.64418,0.22049
2389.71544,0.22166
2387.78669,0.22272
2385.85795,0.22360
2383.92920,0.22429
2382.00045,0.22492
2380.07171,0.22552
2378.14296,0.22614
2376.21422,0.22690
2374.28547,0.22778
2372.35673,0.22853
2370.42798,0.22916
2368.49924,0.22974
2366.57049,0.23027
2364.64175,0.23091
2362.71300,0.23165
2360.78426,0.23211
2358.85551,0.23223
2356.92677,0.23243
2354.99802,0.23289
2353.06927,0.23327
2351.14053,0.23344
2349.21178,0.23361
2347.28304,0.23385
2345.35429,0.23400
2343.42555,0.23402
2341.49680,0.23399
2339.56806,0.23401
2337.63931,0.23412
2335.71057,0.23442
2333.78182,0.23487
2331.85308,0.23532
2329.92433,0.23577
2327.99559,0.23627
2326.06684,0.23657
2324.13810,0.23662
2322.20935,0.23675
2320.28060,0.23690
2318.35186,0.23692
2316.42311,0.23693
2314.49437,0.23710
2312.56562,0.23752
2310.63688,0.23810
2308.70813,0.23873
2306.77939,0.23946
2304.85064,0.24028
2302.92190,0.24103
2300.99315,0.24160
2299.06441,0.24204
2297.13566,0.24236
2295.20692,0.24258
2293.27817,0.24270
2291.34943,0.24276
2289.42068,0.24269
2287.49193,0.24238
2285.56319,0.24197
2283.63444,0.24175
2281.70570,0.24161
2279.77695,0.24133
2277.84821,0.24098
2275.91946,0.24063
2273.99072,0.24010
2272.06197,0.23940
2270.13323,0.23877
2268.20448,0.23819
2266.27574,0.23741
2264.34699,0.23626
2262.41825,0.23479
2260.48950,0.23318
2258.56075,0.23135
2256.63201,0.22894
2254.70326,0.22583
2252.77452,0.22210
2250.84577,0.21763
2248.91703,0.21248
2246.98828,0.20730
2245.05954,0.20292
2243.13079,0.20014
2241.20205,0.20001
2239.27330,0.20306
2237.34456,0.20870
2235.41581,0.21554
2233.48707,0.22199
2231.55832,0.22701
2229.62958,0.23030
2227.70083,0.23196
2225.77208,0.23248
2223.84334,0.23267
2221.91459,0.23285
2219.98585,0.23276
2218.05710,0.23237
2216.12836,0.23199
2214.19961,0.23175
2212.27087,0.23151
2210.34212,0.23123
2208.41338,0.23091
2206.48463,0.23059
2204.55589,0.23035
2202.62714,0.23015
2200.69840,0.22985
2198.76965,0.22936
2196.84090,0.22872
2194.91216,0.22806
2192.98341,0.22742
2191.05467,0.22675
2189.12592,0.22610
2187.19718,0.22546
2185.26843,0.22475
2183.33969,0.22402
2181.41094,0.22330
2179.48220,0.22240
2177.55345,0.22121
2175.62471,0.21993
2173.69596,0.21879
2171.76722,0.21774
2169.83847,0.21668
2167.90973,0.21567
2165.98098,0.21472
2164.05223,0.21377
2162.12349,0.21273
2160.19474,0.21164
2158.26600,0.21060
2156.33725,0.20949
2154.40851,0.20814
2152.47976,0.20680
2150.55102,0.20586
2148.62227,0.20534
2146.69353,0.20515
2144.76478,0.20546
2142.83604,0.20627
2140.90729,0.20733
2138.97855,0.20841
2137.04980,0.20956
2135.12106,0.21105
2133.19231,0.21279
2131.26356,0.21460
2129.33482,0.21651
2127.40607,0.21867
2125.47733,0.22095
2123.54858,0.22301
2121.61984,0.22483
2119.69109,0.22661
2117.76235,0.22831
2115.83360,0.22973
2113.90486,0.23076
2111.97611,0.23147
2110.04737,0.23206
2108.11862,0.23265
2106.18988,0.23321
2104.26113,0.23368
2102.33238,0.23391
2100.40364,0.23389
2098.47489,0.23379
2096.54615,0.23377
2094.61740,0.23384
2092.68866,0.23384
2090.75991,0.23362
2088.83117,0.23334
2086.90242,0.23311
2084.97368,0.23287
2083.04493,0.23255
2081.11619,0.23202
2079.18744,0.23128
2077.25870,0.23062
2075.32995,0.23014
2073.40121,0.22985
2071.47246,0.22953
2069.54371,0.22906
2067.61497,0.22856
2065.68622,0.22816
2063.75748,0.22788
2061.82873,0.22763
2059.89999,0.22732
2057.97124,0.22689
2056.04250,0.22625
2054.11375,0.22549
2052.18501,0.22481
2050.25626,0.22434
2048.32752,0.22393
2046.39877,0.22351
2044.47003,0.22320
2042.54128,0.22295
2040.61254,0.22262
2038.68379,0.22231
2036.75504,0.22217
2034.82630,0.22221
2032.89755,0.22246
2030.96881,0.22291
2029.04006,0.22357
2027.11132,0.22440
2025.18257,0.22533
2023.25383,0.22634
2021.32508,0.22734
2019.39634,0.22824
2017.46759,0.22903
2015.53885,0.22971
2013.61010,0.23033
2011.68136,0.23100
2009.75261,0.23170
2007.82386,0.23248
2005.89512,0.23338
2003.96637,0.23406
2002.03763,0.23440
2000.10888,0.23465
1998.18014,0.23491
1996.25139,0.23502
1994.32265,0.23500
1992.39390,0.23500
1990.46516,0.23504
1988.53641,0.23497
1986.60767,0.23466
1984.67892,0.23412
1982.75018,0.23337
1980.82143,0.23226
1978.89269,0.23086
1976.96394,0.22956
1975.03519,0.22870
1973.10645,0.22847
1971.17770,0.22867
1969.24896,0.22853
1967.32021,0.22740
1965.39147,0.22533
1963.46272,0.22310
1961.53398,0.22174
1959.60523,0.22186
1957.67649,0.22300
1955.74774,0.22418
1953.81900,0.22481
1951.89025,0.22496
1949.96151,0.22487
1948.03276,0.22462
1946.10402,0.22416
1944.17527,0.22358
1942.24652,0.22316
1940.31778,0.22311
1938.38903,0.22348
1936.46029,0.22424
1934.53154,0.22521
1932.60280,0.22602
1930.67405,0.22651
1928.74531,0.22667
1926.81656,0.22659
1924.88782,0.22641
1922.95907,0.22608
1921.03033,0.22560
1919.10158,0.22503
1917.17284,0.22432
1915.24409,0.22341
1913.31534,0.22237
1911.38660,0.22133
1909.45785,0.22016
1907.52911,0.21876
1905.60036,0.21740
1903.67162,0.21614
1901.74287,0.21472
1899.81413,0.21315
1897.88538,0.21166
1895.95664,0.21019
1894.02789,0.20865
1892.09915,0.20707
1890.17040,0.20544
1888.24166,0.20390
1886.31291,0.20253
1884.38417,0.20119
1882.45542,0.19981
1880.52667,0.19849
1878.59793,0.19722
1876.66918,0.19597
1874.74044,0.19473
1872.81169,0.19345
1870.88295,0.19207
1868.95420,0.19056
1867.02546,0.18905
1865.09671,0.18764
1863.16797,0.18639
1861.23922,0.18536
1859.31048,0.18438
1857.38173,0.18310
1855.45299,0.18146
1853.52424,0.17966
1851.59549,0.17776
1849.66675,0.17568
1847.73800,0.17331
1845.80926,0.17042
1843.88051,0.16667
1841.95177,0.16242
1840.02302,0.15816
1838.09428,0.15355
1836.16553,0.14827
1834.23679,0.14247
1832.30804,0.13622
1830.37930,0.12936
1828.45055,0.12252
1826.52181,0.11678
1824.59306,0.11221
1822.66432,0.10861
1820.73557,0.10581
1818.80682,0.10346
1816.87808,0.10121
1814.94933,0.09890
1813.02059,0.09633
1811.09184,0.09293
1809.16310,0.08829
1807.23435,0.08260
1805.30561,0.07643
1803.37686,0.07055
1801.44812,0.06570
1799.51937,0.06247
1797.59063,0.06105
1795.66188,0.06096
1793.73314,0.06211
1791.80439,0.06516
1789.87565,0.06994
1787.94690,0.07544
1786.01815,0.08106
1784.08941,0.08621
1782.16066,0.09024
1780.23192,0.09301
1778.30317,0.09472
1776.37443,0.09563
1774.44568,0.09573
1772.51694,0.09481
1770.58819,0.09312
1768.65945,0.09104
1766.73070,0.08866
1764.80196,0.08619
1762.87321,0.08326
1760.94447,0.07951
1759.01572,0.07533
1757.08697,0.07074
1755.15823,0.06599
1753.22948,0.06151
1751.30074,0.05698
1749.37199,0.05257
1747.44325,0.04889
1745.51450,0.04606
1743.58576,0.04398
1741.65701,0.04245
1739.72827,0.04126
1737.79952,0.04049
1735.87078,0.04011
1733.94203,0.03994
1732.01329,0.03983
1730.08454,0.03974
1728.15580,0.03970
1726.22705,0.03967
1724.29830,0.03976
1722.36956,0.04003
1720.44081,0.04039
1718.51207,0.04105
1716.58332,0.04216
1714.65458,0.04320
1712.72583,0.04396
1710.79709,0.04478
1708.86834,0.04572
1706.93960,0.04669
1705.01085,0.04768
1703.08211,0.04869
1701.15336,0.04957
1699.22462,0.05010
1697.29587,0.05012
1695.36713,0.04968
1693.43838,0.04910
1691.50963,0.04850
1689.58089,0.04782
1687.65214,0.04722
1685.72340,0.04657
1683.79465,0.04552
1681.86591,0.04453
1679.93716,0.04382
1678.00842,0.04311
1676.07967,0.04224
1674.15093,0.04117
1672.22218,0.04020
1670.29344,0.03936
1668.36469,0.03841
1666.43595,0.03759
1664.50720,0.03717
1662.57845,0.03694
1660.64971,0.03674
1658.72096,0.03690
1656.79222,0.03747
1654.86347,0.03806
1652.93473,0.03841
1651.00598,0.03855
1649.07724,0.03871
1647.14849,0.03886
1645.21975,0.03893
1643.29100,0.03915
1641.36226,0.03951
1639.43351,0.03987
1637.50477,0.04015
1635.57602,0.04037
1633.64728,0.04079
1631.71853,0.04135
1629.78978,0.04172
1627.86104,0.04183
1625.93229,0.04189
1624.00355,0.04205
1622.07480,0.04253
1620.14606,0.04329
1618.21731,0.04408
1616.28857,0.04469
1614.35982,0.04494
1612.43108,0.04506
1610.50233,0.04531
1608.57359,0.04568
1606.64484,0.04603
1604.71610,0.04631
1602.78735,0.04659
1600.85861,0.04684
1598.92986,0.04704
1597.00111,0.04721
1595.07237,0.04744
1593.14362,0.04788
1591.21488,0.04863
1589.28613,0.04945
1587.35739,0.05012
1585.42864,0.05080
1583.49990,0.05160
1581.57115,0.05242
1579.64241,0.05323
1577.71366,0.05412
1575.78492,0.05526
1573.85617,0.05647
1571.92743,0.05740
1569.99868,0.05810
1568.06993,0.05879
1566.14119,0.05955
1564.21244,0.06030
1562.28370,0.06091
1560.35495,0.06126
1558.42621,0.06112
1556.49746,0.06075
1554.56872,0.06058
1552.63997,0.06047
1550.71123,0.06022
1548.78248,0.05987
1546.85374,0.05950
1544.92499,0.05902
1542.99625,0.05847
1541.06750,0.05828
1539.13876,0.05854
1537.21001,0.05898
1535.28126,0.05960
1533.35252,0.06025
1531.42377,0.06065
1529.49503,0.06085
1527.56628,0.06096
1525.63754,0.06087
1523.70879,0.06050
1521.78005,0.05979
1519.85130,0.05895
1517.92256,0.05829
1515.99381,0.05781
1514.06507,0.05728
1512.13632,0.05656
1510.20758,0.05586
1508.27883,0.05527
1506.35008,0.05438
1504.42134,0.05335
1502.49259,0.05249
1500.56385,0.05161
1498.63510,0.05055
1496.70636,0.04928
1494.77761,0.04814
1492.84887,0.04755
1490.92012,0.04718
1488.99138,0.04650
1487.06263,0.04556
1485.13389,0.04469
1483.20514,0.04391
1481.27640,0.04308
1479.34765,0.04208
1477.41891,0.04103
1475.49016,0.04007
1473.56141,0.03911
1471.63267,0.03800
1469.70392,0.03710
1467.77518,0.03653
1465.84643,0.03594
1463.91769,0.03530
1461.98894,0.03483
1460.06020,0.03450
1458.13145,0.03421
1456.20271,0.03393
1454.27396,0.03365
1452.34522,0.03347
1450.41647,0.03345
1448.48773,0.03359
1446.55898,0.03380
1444.63024,0.03401
1442.70149,0.03427
1440.77274,0.03467
1438.84400,0.03503
1436.91525,0.03517
1434.98651,0.03531
1433.05776,0.03564
1431.12902,0.03595
1429.20027,0.03617
1427.27153,0.03644
1425.34278,0.03686
1423.41404,0.03737
1421.48529,0.03783
1419.55655,0.03809
1417.62780,0.03815
1415.69906,0.03819
1413.77031,0.03826
1411.84156,0.03834
1409.91282,0.03843
1407.98407,0.03851
1406.05533,0.03856
1404.12658,0.03854
1402.19784,0.03852
1400.26909,0.03862
1398.34035,0.03870
1396.41160,0.03862
1394.48286,0.03869
1392.55411,0.03905
1390.62537,0.03936
1388.69662,0.03939
1386.76788,0.03922
1384.83913,0.03898
1382.91039,0.03867
1380.98164,0.03830
1379.05289,0.03790
1377.12415,0.03764
1375.19540,0.03803
1373.26666,0.03925
1371.33791,0.04071
1369.40917,0.04181
1367.48042,0.04262
1365.55168,0.04331
1363.62293,0.04376
1361.69419,0.04400
1359.76544,0.04446
1357.83670,0.04523
1355.90795,0.04596
1353.97921,0.04658
1352.05046,0.04731
1350.12172,0.04816
1348.19297,0.04901
1346.26422,0.04967
1344.33548,0.05011
1342.40673,0.05057
1340.47799,0.05110
1338.54924,0.05142
1336.62050,0.05142
1334.69175,0.05133
1332.76301,0.05131
1330.83426,0.05138
1328.90552,0.05145
1326.97677,0.05141
1325.04803,0.05132
1323.11928,0.05119
1321.19054,0.05102
1319.26179,0.05083
1317.33304,0.05067
1315.40430,0.05065
1313.47555,0.05073
1311.54681,0.05078
1309.61806,0.05071
1307.68932,0.05060
1305.76057,0.05070
1303.83183,0.05109
1301.90308,0.05155
1299.97434,0.05202
1298.04559,0.05240
1296.11685,0.05257
1294.18810,0.05265
1292.25936,0.05278
1290.33061,0.05286
1288.40187,0.05287
1286.47312,0.05289
1284.54437,0.05283
1282.61563,0.05269
1280.68688,0.05257
1278.75814,0.05243
1276.82939,0.05217
1274.90065,0.05175
1272.97190,0.05109
1271.04316,0.05030
1269.11441,0.04959
1267.18567,0.04894
1265.25692,0.04819
1263.32818,0.04753
1261.39943,0.04709
1259.47069,0.04680
1257.54194,0.04667
1255.61320,0.04664
1253.68445,0.04642
1251.75570,0.04597
1249.82696,0.04563
1247.89821,0.04545
1245.96947,0.04511
1244.04072,0.04462
1242.11198,0.04420
1240.18323,0.04387
1238.25449,0.04357
1236.32574,0.04341
1234.39700,0.04336
1232.46825,0.04324
1230.53951,0.04322
1228.61076,0.04349
1226.68202,0.04377
1224.75327,0.04373
1222.82452,0.04349
1220.89578,0.04339
1218.96703,0.04344
1217.03829,0.04344
1215.10954,0.04325
1213.18080,0.04289
1211.25205,0.04245
1209.32331,0.04206
1207.39456,0.04174
1205.46582,0.04154
1203.53707,0.04143
1201.60833,0.04137
1199.67958,0.04126
1197.75084,0.04102
1195.82209,0.04079
1193.89335,0.04071
1191.96460,0.04069
1190.03585,0.04068
1188.10711,0.04057
1186.17836,0.04027
1184.24962,0.03990
1182.32087,0.03965
1180.39213,0.03954
1178.46338,0.03931
1176.53464,0.03881
1174.60589,0.03824
1172.67715,0.03775
1170.74840,0.03730
1168.81966,0.03691
1166.89091,0.03669
1164.96217,0.03682
1163.03342,0.03719
1161.10467,0.03736
1159.17593,0.03731
1157.24718,0.03744
1155.31844,0.03785
1153.38969,0.03833
1151.46095,0.03862
1149.53220,0.03866
1147.60346,0.03848
1145.67471,0.03820
1143.74597,0.03807
1141.81722,0.03800
1139.88848,0.03769
1137.95973,0.03743
1136.03099,0.03763
1134.10224,0.03785
1132.17350,0.03770
1130.24475,0.03745
1128.31600,0.03727
1126.38726,0.03723
1124.45851,0.03759
1122.52977,0.03832
1120.60102,0.03899
1118.67228,0.03936
1116.74353,0.03951
1114.81479,0.03951
1112.88604,0.03957
1110.95730,0.03993
1109.02855,0.04037
1107.09981,0.04050
1105.17106,0.04024
1103.24232,0.03960
1101.31357,0.03860
1099.38483,0.03771
1097.45608,0.03731
1095.52733,0.03704
1093.59859,0.03672
1091.66984,0.03673
1089.74110,0.03703
1087.81235,0.03719
1085.88361,0.03728
1083.95486,0.03767
1082.02612,0.03827
1080.09737,0.03881
1078.16863,0.03926
1076.23988,0.03975
1074.31114,0.04037
1072.38239,0.04104
1070.45365,0.04167
1068.52490,0.04223
1066.59615,0.04259
1064.66741,0.04256
1062.73866,0.04223
1060.80992,0.04201
1058.88117,0.04195
1056.95243,0.04179
1055.02368,0.04151
1053.09494,0.04121
1051.16619,0.04096
1049.23745,0.04083
1047.30870,0.04081
1045.37996,0.04065
1043.45121,0.04028
1041.52247,0.04001
1039.59372,0.04008
1037.66498,0.04039
1035.73623,0.04084
1033.80748,0.04129
1031.87874,0.04141
1029.94999,0.04137
1028.02125,0.04159
1026.09250,0.04186
1024.16376,0.04182
1022.23501,0.04163
1020.30627,0.04166
1018.37752,0.04196
1016.44878,0.04243
1014.52003,0.04299
1012.59129,0.04338
1010.66254,0.04357
1008.73380,0.04374
1006.80505,0.04400
1004.87631,0.04437
1002.94756,0.04470
1001.01881,0.04496
999.09007,0.04525
997.16132,0.04547
995.23258,0.04566
993.30383,0.04606
991.37509,0.04671
989.44634,0.04743
987.51760,0.04809
985.58885,0.04866
983.66011,0.04904
981.73136,0.04938
979.80262,0.04962
977.87387,0.04945
975.94513,0.04890
974.01638,0.04816
972.08763,0.04745
970.15889,0.04706
968.23014,0.04714
966.30140,0.04777
964.37265,0.04902
962.44391,0.05095
960.51516,0.05336
958.58642,0.05583
956.65767,0.05816
954.72893,0.06008
952.80018,0.06128
950.87144,0.06174
948.94269,0.06183
947.01395,0.06204
945.08520,0.06223
943.15646,0.06197
941.22771,0.06164
939.29896,0.06171
937.37022,0.06201
935.44147,0.06209
933.51273,0.06181
931.58398,0.06154
929.65524,0.06180
927.72649,0.06236
925.79775,0.06284
923.86900,0.06340
921.94026,0.06402
920.01151,0.06417
918.08277,0.06378
916.15402,0.06346
914.22528,0.06347
912.29653,0.06364
910.36779,0.06403
908.43904,0.06488
906.51029,0.06622
904.58155,0.06794
902.65280,0.06962
900.72406,0.07059
898.79531,0.07070
896.86657,0.07018
894.93782,0.06898
893.00908,0.06704
891.08033,0.06442
889.15159,0.06079
887.22284,0.05564
885.29410,0.04961
883.36535,0.04473
881.43661,0.04192
879.50786,0.03997
877.57911,0.03813
875.65037,0.03724
873.72162,0.03787
871.79288,0.04012
869.86413,0.04399
867.93539,0.04850
866.00664,0.05215
864.07790,0.05437
862.14915,0.05570
860.22041,0.05651
858.29166,0.05668
856.36292,0.05588
854.43417,0.05381
852.50543,0.05122
850.57668,0.04904
848.64794,0.04789
846.71919,0.04838
844.79044,0.04976
842.86170,0.05041
840.93295,0.05018
839.00421,0.04995
837.07546,0.04989
835.14672,0.04976
833.21797,0.04958
831.28923,0.04962
829.36048,0.05017
827.43174,0.05104
825.50299,0.05196
823.57425,0.05313
821.64550,0.05440
819.71676,0.05535
817.78801,0.05592
815.85926,0.05640
813.93052,0.05715
812.00177,0.05790
810.07303,0.05820
808.14428,0.05826
806.21554,0.05847
804.28679,0.05878
802.35805,0.05900
800.42930,0.05917
798.50056,0.05951
796.57181,0.06005
794.64307,0.06087
792.71432,0.06194
790.78558,0.06301
788.85683,0.06389
786.92809,0.06446
784.99934,0.06464
783.07059,0.06441
781.14185,0.06397
779.21310,0.06350
777.28436,0.06273
775.35561,0.06146
773.42687,0.05994
771.49812,0.05848
769.56938,0.05697
767.64063,0.05539
765.71189,0.05403
763.78314,0.05320
761.85440,0.05255
759.92565,0.05174
757.99691,0.05134
756.06816,0.05156
754.13942,0.05179
752.21067,0.05175
750.28192,0.05182
748.35318,0.05216
746.42443,0.05242
744.49569,0.05219
742.56694,0.05125
740.63820,0.04979
738.70945,0.04823
736.78071,0.04669
734.85196,0.04490
732.92322,0.04266
730.99447,0.04041
729.06573,0.03889
727.13698,0.03855
725.20824,0.03910
723.27949,0.03924
721.35074,0.03812
719.42200,0.03627
717.49325,0.03445
715.56451,0.03302
713.63576,0.03245
711.70702,0.03348
709.77827,0.03608
707.84953,0.03889
705.92078,0.04058
703.99204,0.04132
702.06329,0.04192
700.13455,0.04295
698.20580,0.04495
696.27706,0.04795
694.34831,0.05106
692.41957,0.05342
690.49082,0.05488
688.56207,0.05564
686.63333,0.05601
684.70458,0.05611
682.77584,0.05568
680.84709,0.05485
678.91835,0.05426
676.98960,0.05402
675.06086,0.05376
673.13211,0.05334
671.20337,0.05277
669.27462,0.05213
667.34588,0.05214
665.41713,0.05283
663.48839,0.05271
661.55964,0.05139
659.63090,0.05007
657.70215,0.04939
655.77340,0.04933
653.84466,0.04970
651.91591,0.05011
649.98717,0.05018
648.05842,0.04991
646.12968,0.04940
644.20093,0.04847
642.27219,0.04752
640.34344,0.04739
638.41470,0.04776
636.48595,0.04780
634.55721,0.04785
632.62846,0.04839
630.69972,0.04845
628.77097,0.04739
626.84222,0.04568
624.91348,0.04387
622.98473,0.04254
621.05599,0.04249
619.12724,0.04359
617.19850,0.04410
615.26975,0.04301
613.34101,0.04128
611.41226,0.04024
609.48352,0.04037
607.55477,0.04096
605.62603,0.04075
603.69728,0.03966
601.76854,0.03908
599.83979,0.03945
