7497.03301,0.70626
7495.10426,0.70351
7493.17552,0.70418
7491.24677,0.70999
7489.31803,0.71604
7487.38928,0.71569
7485.46054,0.71200
7483.53179,0.70910
7481.60305,0.70792
7479.67430,0.70924
7477.74556,0.71092
7475.81681,0.71323
7473.88807,0.71839
7471.95932,0.72240
7470.03057,0.71919
7468.10183,0.71051
7466.17308,0.70738
7464.24434,0.71201
7462.31559,0.71405
7460.38685,0.71201
7458.45810,0.71172
7456.52936,0.71281
7454.60061,0.71027
7452.67187,0.70228
7450.74312,0.69438
7448.81438,0.69386
7446.88563,0.70123
7444.95689,0.70781
7443.02814,0.70673
7441.09940,0.70206
7439.17065,0.69683
7437.24190,0.69003
7435.31316,0.68654
7433.38441,0.68953
7431.45567,0.69440
7429.52692,0.69869
7427.59818,0.70407
7425.66943,0.70819
7423.74069,0.70692
7421.81194,0.70183
7419.88320,0.69549
7417.95445,0.68913
7416.02571,0.68682
7414.09696,0.68951
7412.16822,0.69311
7410.23947,0.69489
7408.31073,0.69566
7406.38198,0.69793
7404.45323,0.69957
7402.52449,0.69574
7400.59574,0.68924
7398.66700,0.68835
7396.73825,0.69429
7394.80951,0.69916
7392.88076,0.69805
7390.95202,0.69336
7389.02327,0.68861
7387.09453,0.68739
7385.16578,0.69090
7383.23704,0.69554
7381.30829,0.69984
7379.37955,0.70523
7377.45080,0.70918
7375.52205,0.70955
7373.59331,0.70675
7371.66456,0.70082
7369.73582,0.69524
7367.80707,0.69342
7365.87833,0.69354
7363.94958,0.69265
7362.02084,0.68937
7360.09209,0.68699
7358.16335,0.69029
7356.23460,0.69665
7354.30586,0.70050
7352.37711,0.70042
7350.44837,0.69622
7348.51962,0.69008
7346.59088,0.68685
7344.66213,0.68564
7342.73338,0.68245
7340.80464,0.67933
7338.87589,0.67889
7336.94715,0.67894
7335.01840,0.67852
7333.08966,0.67863
7331.16091,0.68013
7329.23217,0.68295
7327.30342,0.68458
7325.37468,0.68273
7323.44593,0.67859
7321.51719,0.67417
7319.58844,0.67155
7317.65970,0.67426
7315.73095,0.68020
7313.80221,0.68221
7311.87346,0.68160
7309.94471,0.68361
7308.01597,0.68649
7306.08722,0.68686
7304.15848,0.68513
7302.22973,0.68324
7300.30099,0.68011
7298.37224,0.67312
7296.44350,0.66534
7294.51475,0.66196
7292.58601,0.66105
7290.65726,0.65905
7288.72852,0.65872
7286.79977,0.66118
7284.87103,0.66322
7282.94228,0.66315
7281.01353,0.65980
7279.08479,0.65639
7277.15604,0.65810
7275.22730,0.65926
7273.29855,0.65440
7271.36981,0.65126
7269.44106,0.65433
7267.51232,0.65716
7265.58357,0.65652
7263.65483,0.65474
7261.72608,0.65197
7259.79734,0.64843
7257.86859,0.64691
7255.93985,0.64806
7254.01110,0.64998
7252.08236,0.65050
7250.15361,0.64906
7248.22486,0.64960
7246.29612,0.65447
7244.36737,0.65729
7242.43863,0.65232
7240.50988,0.64421
7238.58114,0.63965
7236.65239,0.63896
7234.72365,0.63941
7232.79490,0.64041
7230.86616,0.64253
7228.93741,0.64406
7227.00867,0.64370
7225.07992,0.64224
7223.15118,0.64052
7221.22243,0.64064
7219.29369,0.64428
7217.36494,0.64615
7215.43619,0.64005
7213.50745,0.63202
7211.57870,0.63122
7209.64996,0.63405
7207.72121,0.63412
7205.79247,0.63319
7203.86372,0.63249
7201.93498,0.63185
7200.00623,0.63271
7198.07749,0.63329
7196.14874,0.63183
7194.22000,0.63114
7192.29125,0.63328
7190.36251,0.63454
7188.43376,0.63103
7186.50501,0.62577
7184.57627,0.62443
7182.64752,0.62693
7180.71878,0.62807
7178.79003,0.62603
7176.86129,0.62427
7174.93254,0.62496
7173.00380,0.62587
7171.07505,0.62400
7169.14631,0.62072
7167.21756,0.62002
7165.28882,0.62280
7163.36007,0.62421
7161.43133,0.62147
7159.50258,0.62014
7157.57384,0.62216
7155.64509,0.62392
7153.71634,0.62622
7151.78760,0.62841
7149.85885,0.62421
7147.93011,0.61405
7146.00136,0.60763
7144.07262,0.60979
7142.14387,0.61503
7140.21513,0.61731
7138.28638,0.61754
7136.35764,0.61844
7134.42889,0.61795
7132.50015,0.61328
7130.57140,0.60701
7128.64266,0.60383
7126.71391,0.60414
7124.78516,0.60657
7122.85642,0.60992
7120.92767,0.61166
7118.99893,0.61188
7117.07018,0.61130
7115.14144,0.61043
7113.21269,0.61174
7111.28395,0.61380
7109.35520,0.61480
7107.42646,0.61601
7105.49771,0.61608
7103.56897,0.61353
7101.64022,0.60929
7099.71148,0.60509
7097.78273,0.60383
7095.85399,0.60562
7093.92524,0.60669
7091.99649,0.60493
7090.06775,0.60097
7088.13900,0.59689
7086.21026,0.59424
7084.28151,0.59341
7082.35277,0.59676
7080.42402,0.60300
7078.49528,0.60404
7076.56653,0.59888
7074.63779,0.59582
7072.70904,0.59696
7070.78030,0.59797
7068.85155,0.59709
7066.92281,0.59455
7064.99406,0.59305
7063.06532,0.59626
7061.13657,0.60203
7059.20782,0.60466
7057.27908,0.60399
7055.35033,0.60437
7053.42159,0.60454
7051.49284,0.60142
7049.56410,0.59969
7047.63535,0.60223
7045.70661,0.60441
7043.77786,0.60492
7041.84912,0.60495
7039.92037,0.60346
7037.99163,0.60309
7036.06288,0.60604
7034.13414,0.60880
7032.20539,0.60891
7030.27664,0.60664
7028.34790,0.60316
7026.41915,0.60171
7024.49041,0.60436
7022.56166,0.60822
7020.63292,0.60987
7018.70417,0.60955
7016.77543,0.60847
7014.84668,0.60771
7012.91794,0.60824
7010.98919,0.60988
7009.06045,0.61156
7007.13170,0.61190
7005.20296,0.61095
7003.27421,0.61076
7001.34547,0.61276
6999.41672,0.61488
6997.48797,0.61452
6995.55923,0.61302
6993.63048,0.61208
6991.70174,0.61192
6989.77299,0.61359
6987.84425,0.61595
6985.91550,0.61624
6983.98676,0.61532
6982.05801,0.61542
6980.12927,0.61628
6978.20052,0.61588
6976.27178,0.61340
6974.34303,0.61064
6972.41429,0.60979
6970.48554,0.61224
6968.55680,0.61633
6966.62805,0.61841
6964.69930,0.61851
6962.77056,0.61722
6960.84181,0.61389
6958.91307,0.61181
6956.98432,0.61390
6955.05558,0.61623
6953.12683,0.61498
6951.19809,0.61268
6949.26934,0.61258
6947.34060,0.61508
6945.41185,0.61871
6943.48311,0.62117
6941.55436,0.62215
6939.62562,0.62332
6937.69687,0.62476
6935.76812,0.62513
6933.83938,0.62459
6931.91063,0.62462
6929.98189,0.62599
6928.05314,0.62723
6926.12440,0.62655
6924.19565,0.62566
6922.26691,0.62630
6920.33816,0.62785
6918.40942,0.63064
6916.48067,0.63342
6914.55193,0.63233
6912.62318,0.62827
6910.69444,0.62645
6908.76569,0.62791
6906.83695,0.63037
6904.90820,0.63267
6902.97945,0.63437
6901.05071,0.63479
6899.12196,0.63234
6897.19322,0.62828
6895.26447,0.62671
6893.33573,0.62721
6891.40698,0.62647
6889.47824,0.62537
6887.54949,0.62698
6885.62075,0.63071
6883.69200,0.63350
6881.76326,0.63441
6879.83451,0.63453
6877.90577,0.63543
6875.97702,0.63688
6874.04828,0.63662
6872.11953,0.63429
6870.19078,0.63259
6868.26204,0.63337
6866.33329,0.63489
6864.40455,0.63460
6862.47580,0.63340
6860.54706,0.63438
6858.61831,0.63797
6856.68957,0.64083
6854.76082,0.64037
6852.83208,0.63809
6850.90333,0.63723
6848.97459,0.63812
6847.04584,0.63890
6845.11710,0.63931
6843.18835,0.63891
6841.25960,0.63667
6839.33086,0.63405
6837.40211,0.63371
6835.47337,0.63666
6833.54462,0.63921
6831.61588,0.63752
6829.68713,0.63527
6827.75839,0.63573
6825.82964,0.63676
6823.90090,0.63799
6821.97215,0.63951
6820.04341,0.63932
6818.11466,0.63880
6816.18592,0.63948
6814.25717,0.63853
6812.32843,0.63527
6810.39968,0.63289
6808.47093,0.63266
6806.54219,0.63309
6804.61344,0.63325
6802.68470,0.63356
6800.75595,0.63513
6798.82721,0.63818
6796.89846,0.64052
6794.96972,0.64131
6793.04097,0.64250
6791.11223,0.64406
6789.18348,0.64394
6787.25474,0.64158
6785.32599,0.63944
6783.39725,0.64010
6781.46850,0.64227
6779.53975,0.64305
6777.61101,0.64283
6775.68226,0.64315
6773.75352,0.64361
6771.82477,0.64500
6769.89603,0.64843
6767.96728,0.65147
6766.03854,0.65110
6764.10979,0.64832
6762.18105,0.64563
6760.25230,0.64354
6758.32356,0.64270
6756.39481,0.64242
6754.46607,0.64135
6752.53732,0.64149
6750.60858,0.64387
6748.67983,0.64511
6746.75108,0.64287
6744.82234,0.64095
6742.89359,0.64246
6740.96485,0.64443
6739.03610,0.64548
6737.10736,0.64649
6735.17861,0.64702
6733.24987,0.64837
6731.32112,0.65063
6729.39238,0.65089
6727.46363,0.64881
6725.53489,0.64637
6723.60614,0.64474
6721.67740,0.64357
6719.74865,0.64257
6717.81991,0.64371
6715.89116,0.64605
6713.96241,0.64616
6712.03367,0.64567
6710.10492,0.64715
6708.17618,0.65023
6706.24743,0.65376
6704.31869,0.65538
6702.38994,0.65463
6700.46120,0.65397
6698.53245,0.65370
6696.60371,0.65227
6694.67496,0.65123
6692.74622,0.65318
6690.81747,0.65580
6688.88873,0.65466
6686.95998,0.65042
6685.03123,0.64803
6683.10249,0.64950
6681.17374,0.65179
6679.24500,0.65266
6677.31625,0.65345
6675.38751,0.65380
6673.45876,0.65239
6671.53002,0.65128
6669.60127,0.65283
6667.67253,0.65631
6665.74378,0.65782
6663.81504,0.65614
6661.88629,0.65597
6659.95755,0.65803
6658.02880,0.65860
6656.10006,0.65870
6654.17131,0.66030
6652.24256,0.66113
6650.31382,0.65986
6648.38507,0.65808
6646.45633,0.65628
6644.52758,0.65436
6642.59884,0.65381
6640.67009,0.65530
6638.74135,0.65764
6636.81260,0.65941
6634.88386,0.65981
6632.95511,0.65905
6631.02637,0.65772
6629.09762,0.65673
6627.16888,0.65664
6625.24013,0.65675
6623.31139,0.65632
6621.38264,0.65519
6619.45389,0.65319
6617.52515,0.65200
6615.59640,0.65366
6613.66766,0.65712
6611.73891,0.66032
6609.81017,0.66095
6607.88142,0.65773
6605.95268,0.65459
6604.02393,0.65437
6602.09519,0.65428
6600.16644,0.65340
6598.23770,0.65418
6596.30895,0.65726
6594.38021,0.65940
6592.45146,0.65864
6590.52271,0.65814
6588.59397,0.65961
6586.66522,0.66048
6584.73648,0.65977
6582.80773,0.65837
6580.87899,0.65621
6578.95024,0.65420
6577.02150,0.65386
6575.09275,0.65530
6573.16401,0.65792
6571.23526,0.66030
6569.30652,0.66099
6567.37777,0.65994
6565.44903,0.65853
6563.52028,0.65852
6561.59154,0.65985
6559.66279,0.66060
6557.73404,0.65958
6555.80530,0.65797
6553.87655,0.65731
6551.94781,0.65791
6550.01906,0.65929
6548.09032,0.65938
6546.16157,0.65767
6544.23283,0.65773
6542.30408,0.65987
6540.37534,0.66022
6538.44659,0.65953
6536.51785,0.66002
6534.58910,0.65916
6532.66036,0.65613
6530.73161,0.65416
6528.80287,0.65460
6526.87412,0.65635
6524.94537,0.65791
6523.01663,0.65835
6521.08788,0.65830
6519.15914,0.65853
6517.23039,0.65858
6515.30165,0.65825
6513.37290,0.65853
6511.44416,0.65951
6509.51541,0.65970
6507.58667,0.65894
6505.65792,0.65847
6503.72918,0.65763
6501.80043,0.65592
6499.87169,0.65581
6497.94294,0.65807
6496.01419,0.66045
6494.08545,0.66206
6492.15670,0.66282
6490.22796,0.66214
6488.29921,0.66052
6486.37047,0.65894
6484.44172,0.65809
6482.51298,0.65777
6480.58423,0.65669
6478.65549,0.65507
6476.72674,0.65468
6474.79800,0.65579
6472.86925,0.65746
6470.94051,0.65875
6469.01176,0.65939
6467.08302,0.66047
6465.15427,0.66130
6463.22552,0.65994
6461.29678,0.65843
6459.36803,0.65978
6457.43929,0.66155
6455.51054,0.66080
6453.58180,0.65947
6451.65305,0.65846
6449.72431,0.65724
6447.79556,0.65775
6445.86682,0.65986
6443.93807,0.66124
6442.00933,0.66210
6440.08058,0.66267
6438.15184,0.66103
6436.22309,0.65795
6434.29434,0.65704
6432.36560,0.65818
6430.43685,0.65946
6428.50811,0.66129
6426.57936,0.66327
6424.65062,0.66402
6422.72187,0.66303
6420.79313,0.66067
6418.86438,0.65876
6416.93564,0.65840
6415.00689,0.65895
6413.07815,0.66002
6411.14940,0.66099
6409.22066,0.66095
6407.29191,0.66004
6405.36317,0.65896
6403.43442,0.65807
6401.50567,0.65796
6399.57693,0.65834
6397.64818,0.65738
6395.71944,0.65535
6393.79069,0.65489
6391.86195,0.65598
6389.93320,0.65621
6388.00446,0.65537
6386.07571,0.65414
6384.14697,0.65251
6382.21822,0.65142
6380.28948,0.65067
6378.36073,0.64945
6376.43199,0.64864
6374.50324,0.64851
6372.57450,0.64845
6370.64575,0.64878
6368.71700,0.64932
6366.78826,0.64834
6364.85951,0.64568
6362.93077,0.64410
6361.00202,0.64469
6359.07328,0.64443
6357.14453,0.64250
6355.21579,0.64155
6353.28704,0.64132
6351.35830,0.64118
6349.42955,0.64221
6347.50081,0.64373
6345.57206,0.64543
6343.64332,0.64721
6341.71457,0.64800
6339.78582,0.64794
6337.85708,0.64794
6335.92833,0.64744
6333.99959,0.64631
6332.07084,0.64652
6330.14210,0.64753
6328.21335,0.64718
6326.28461,0.64614
6324.35586,0.64545
6322.42712,0.64592
6320.49837,0.64738
6318.56963,0.64683
6316.64088,0.64366
6314.71214,0.64156
6312.78339,0.64231
6310.85465,0.64358
6308.92590,0.64372
6306.99715,0.64367
6305.06841,0.64358
6303.13966,0.64190
6301.21092,0.63928
6299.28217,0.63787
6297.35343,0.63750
6295.42468,0.63802
6293.49594,0.64027
6291.56719,0.64269
6289.63845,0.64261
6287.70970,0.64022
6285.78096,0.63855
6283.85221,0.63876
6281.92347,0.63829
6279.99472,0.63684
6278.06598,0.63727
6276.13723,0.64017
6274.20848,0.64331
6272.27974,0.64387
6270.35099,0.64038
6268.42225,0.63545
6266.49350,0.63354
6264.56476,0.63456
6262.63601,0.63536
6260.70727,0.63496
6258.77852,0.63310
6256.84978,0.63031
6254.92103,0.62913
6252.99229,0.63017
6251.06354,0.63101
6249.13480,0.63073
6247.20605,0.63074
6245.27730,0.63052
6243.34856,0.62914
6241.41981,0.62849
6239.49107,0.62862
6237.56232,0.62718
6235.63358,0.62420
6233.70483,0.62125
6231.77609,0.61956
6229.84734,0.61947
6227.91860,0.61999
6225.98985,0.62004
6224.06111,0.61923
6222.13236,0.61819
6220.20362,0.61733
6218.27487,0.61628
6216.34613,0.61617
6214.41738,0.61737
6212.48863,0.61755
6210.55989,0.61516
6208.63114,0.61137
6206.70240,0.60884
6204.77365,0.60868
6202.84491,0.60874
6200.91616,0.60715
6198.98742,0.60466
6197.05867,0.60255
6195.12993,0.60121
6193.20118,0.60008
6191.27244,0.59785
6189.34369,0.59502
6187.41495,0.59412
6185.48620,0.59456
6183.55746,0.59281
6181.62871,0.58896
6179.69996,0.58599
6177.77122,0.58380
6175.84247,0.58077
6173.91373,0.57769
6171.98498,0.57524
6170.05624,0.57259
6168.12749,0.56928
6166.19875,0.56522
6164.27000,0.56115
6162.34126,0.55777
6160.41251,0.55390
6158.48377,0.54850
6156.55502,0.54284
6154.62628,0.53884
6152.69753,0.53599
6150.76878,0.53206
6148.84004,0.52651
6146.91129,0.52094
6144.98255,0.51655
6143.05380,0.51222
6141.12506,0.50739
6139.19631,0.50327
6137.26757,0.49935
6135.33882,0.49428
6133.41008,0.48827
6131.48133,0.48270
6129.55259,0.47809
6127.62384,0.47331
6125.69510,0.46734
6123.76635,0.46160
6121.83761,0.45846
6119.90886,0.45698
6117.98011,0.45390
6116.05137,0.44848
6114.12262,0.44350
6112.19388,0.44195
6110.26513,0.44337
6108.33639,0.44493
6106.40764,0.44550
6104.47890,0.44617
6102.55015,0.44758
6100.62141,0.44898
6098.69266,0.45044
6096.76392,0.45342
6094.83517,0.45829
6092.90643,0.46308
6090.97768,0.46529
6089.04893,0.46469
6087.12019,0.46336
6085.19144,0.46319
6083.26270,0.46391
6081.33395,0.46390
6079.40521,0.46362
6077.47646,0.46441
6075.54772,0.46504
6073.61897,0.46561
6071.69023,0.46804
6069.76148,0.47149
6067.83274,0.47425
6065.90399,0.47575
6063.97525,0.47643
6062.04650,0.47746
6060.11776,0.47878
6058.18901,0.47921
6056.26026,0.47814
6054.33152,0.47609
6052.40277,0.47384
6050.47403,0.47201
6048.54528,0.47018
6046.61654,0.46659
6044.68779,0.46057
6042.75905,0.45299
6040.83030,0.44587
6038.90156,0.44045
6036.97281,0.43491
6035.04407,0.42815
6033.11532,0.42131
6031.18658,0.41489
6029.25783,0.40823
6027.32909,0.40063
6025.40034,0.39278
6023.47159,0.38556
6021.54285,0.37917
6019.61410,0.37291
6017.68536,0.36543
6015.75661,0.35781
6013.82787,0.35203
6011.89912,0.34709
6009.97038,0.34166
6008.04163,0.33625
6006.11289,0.33143
6004.18414,0.32722
6002.25540,0.32405
6000.32665,0.32098
5998.39791,0.31613
5996.46916,0.31002
5994.54041,0.30423
5992.61167,0.29999
5990.68292,0.29790
5988.75418,0.29607
5986.82543,0.29234
5984.89669,0.28738
5982.96794,0.28334
5981.03920,0.28055
5979.11045,0.27713
5977.18171,0.27285
5975.25296,0.26973
5973.32422,0.26845
5971.39547,0.26810
5969.46673,0.26834
5967.53798,0.26887
5965.60924,0.26886
5963.68049,0.26835
5961.75174,0.26775
5959.82300,0.26750
5957.89425,0.26784
5955.96551,0.26792
5954.03676,0.26791
5952.10802,0.26884
5950.17927,0.26995
5948.25053,0.27018
5946.32178,0.26990
5944.39304,0.26992
5942.46429,0.27081
5940.53555,0.27275
5938.60680,0.27516
5936.67806,0.27750
5934.74931,0.27997
5932.82057,0.28197
5930.89182,0.28225
5928.96307,0.28122
5927.03433,0.28086
5925.10558,0.28202
5923.17684,0.28330
5921.24809,0.28329
5919.31935,0.28244
5917.39060,0.28259
5915.46186,0.28404
5913.53311,0.28443
5911.60437,0.28338
5909.67562,0.28333
5907.74688,0.28465
5905.81813,0.28563
5903.88939,0.28542
5901.96064,0.28472
5900.03189,0.28515
5898.10315,0.28666
5896.17440,0.28753
5894.24566,0.28754
5892.31691,0.28772
5890.38817,0.28874
5888.45942,0.29046
5886.53068,0.29168
5884.60193,0.29194
5882.67319,0.29252
5880.74444,0.29444
5878.81570,0.29689
5876.88695,0.29870
5874.95821,0.29940
5873.02946,0.29866
5871.10072,0.29720
5869.17197,0.29691
5867.24322,0.29802
5865.31448,0.29906
5863.38573,0.29955
5861.45699,0.29964
5859.52824,0.29937
5857.59950,0.29908
5855.67075,0.29879
5853.74201,0.29850
5851.81326,0.29833
5849.88452,0.29785
5847.95577,0.29669
5846.02703,0.29569
5844.09828,0.29597
5842.16954,0.29713
5840.24079,0.29822
5838.31205,0.29850
5836.38330,0.29761
5834.45455,0.29659
5832.52581,0.29636
5830.59706,0.29692
5828.66832,0.29754
5826.73957,0.29731
5824.81083,0.29657
5822.88208,0.29603
5820.95334,0.29550
5819.02459,0.29422
5817.09585,0.29233
5815.16710,0.29200
5813.23836,0.29391
5811.30961,0.29556
5809.38087,0.29550
5807.45212,0.29444
5805.52337,0.29335
5803.59463,0.29296
5801.66588,0.29372
5799.73714,0.29511
5797.80839,0.29567
5795.87965,0.29631
5793.95090,0.29903
5792.02216,0.30199
5790.09341,0.30337
5788.16467,0.30457
5786.23592,0.30583
5784.30718,0.30609
5782.37843,0.30650
5780.44969,0.30814
5778.52094,0.31016
5776.59220,0.31215
5774.66345,0.31438
5772.73470,0.31685
5770.80596,0.31956
5768.87721,0.32294
5766.94847,0.32738
5765.01972,0.33175
5763.09098,0.33453
5761.16223,0.33642
5759.23349,0.33821
5757.30474,0.33910
5755.37600,0.33931
5753.44725,0.34033
5751.51851,0.34207
5749.58976,0.34326
5747.66102,0.34369
5745.73227,0.34363
5743.80352,0.34320
5741.87478,0.34252
5739.94603,0.34119
5738.01729,0.33913
5736.08854,0.33709
5734.15980,0.33518
5732.23105,0.33319
5730.30231,0.33127
5728.37356,0.32915
5726.44482,0.32669
5724.51607,0.32450
5722.58733,0.32263
5720.65858,0.32012
5718.72984,0.31685
5716.80109,0.31428
5714.87235,0.31291
5712.94360,0.31101
5711.01485,0.30789
5709.08611,0.30503
5707.15736,0.30306
5705.22862,0.30190
5703.29987,0.30193
5701.37113,0.30248
5699.44238,0.30276
5697.51364,0.30352
5695.58489,0.30483
5693.65615,0.30541
5691.72740,0.30475
5689.79866,0.30380
5687.86991,0.30359
5685.94117,0.30395
5684.01242,0.30417
5682.08368,0.30426
5680.15493,0.30476
5678.22618,0.30560
5676.29744,0.30620
5674.36869,0.30673
5672.43995,0.30782
5670.51120,0.30918
5668.58246,0.31026
5666.65371,0.31131
5664.72497,0.31226
5662.79622,0.31263
5660.86748,0.31279
5658.93873,0.31368
5657.00999,0.31554
5655.08124,0.31763
5653.15250,0.31963
5651.22375,0.32185
5649.29500,0.32379
5647.36626,0.32466
5645.43751,0.32483
5643.50877,0.32570
5641.58002,0.32757
5639.65128,0.32917
5637.72253,0.33021
5635.79379,0.33143
5633.86504,0.33336
5631.93630,0.33613
5630.00755,0.33910
5628.07881,0.34169
5626.15006,0.34333
5624.22132,0.34361
5622.29257,0.34345
5620.36383,0.34394
5618.43508,0.34497
5616.50633,0.34586
5614.57759,0.34605
5612.64884,0.34533
5610.72010,0.34446
5608.79135,0.34485
5606.86261,0.34590
5604.93386,0.34609
5603.00512,0.34602
5601.07637,0.34604
5599.14763,0.34581
5597.21888,0.34616
5595.29014,0.34685
5593.36139,0.34742
5591.43265,0.34831
5589.50390,0.34936
5587.57516,0.35089
5585.64641,0.35319
5583.71766,0.35519
5581.78892,0.35658
5579.86017,0.35818
5577.93143,0.35972
5576.00268,0.36007
5574.07394,0.35946
5572.14519,0.35954
5570.21645,0.36094
5568.28770,0.36240
5566.35896,0.36304
5564.43021,0.36316
5562.50147,0.36332
5560.57272,0.36420
5558.64398,0.36587
5556.71523,0.36754
5554.78648,0.36822
5552.85774,0.36726
5550.92899,0.36565
5549.00025,0.36520
5547.07150,0.36611
5545.14276,0.36702
5543.21401,0.36699
5541.28527,0.36664
5539.35652,0.36692
5537.42778,0.36770
5535.49903,0.36843
5533.57029,0.36888
5531.64154,0.36911
5529.71280,0.36940
5527.78405,0.36954
5525.85531,0.36927
5523.92656,0.36902
5521.99781,0.36927
5520.06907,0.37000
5518.14032,0.37028
5516.21158,0.36978
5514.28283,0.36979
5512.35409,0.37075
5510.42534,0.37145
5508.49660,0.37149
5506.56785,0.37166
5504.63911,0.37231
5502.71036,0.37303
5500.78162,0.37337
5498.85287,0.37344
5496.92413,0.37364
5494.99538,0.37402
5493.06664,0.37455
5491.13789,0.37536
5489.20914,0.37662
5487.28040,0.37781
5485.35165,0.37795
5483.42291,0.37774
5481.49416,0.37820
5479.56542,0.37858
5477.63667,0.37840
5475.70793,0.37820
5473.77918,0.37795
5471.85044,0.37745
5469.92169,0.37733
5467.99295,0.37797
5466.06420,0.37889
5464.13546,0.37951
5462.20671,0.37937
5460.27796,0.37885
5458.34922,0.37901
5456.42047,0.37946
5454.49173,0.37888
5452.56298,0.37749
5450.63424,0.37667
5448.70549,0.37665
5446.77675,0.37662
5444.84800,0.37653
5442.91926,0.37709
5440.99051,0.37785
5439.06177,0.37772
5437.13302,0.37690
5435.20428,0.37647
5433.27553,0.37684
5431.34679,0.37692
5429.41804,0.37619
5427.48929,0.37581
5425.56055,0.37606
5423.63180,0.37607
5421.70306,0.37587
5419.77431,0.37588
5417.84557,0.37582
5415.91682,0.37566
5413.98808,0.37620
5412.05933,0.37685
5410.13059,0.37597
5408.20184,0.37411
5406.27310,0.37344
5404.34435,0.37427
5402.41561,0.37503
5400.48686,0.37496
5398.55811,0.37463
5396.62937,0.37466
5394.70062,0.37481
5392.77188,0.37462
5390.84313,0.37440
5388.91439,0.37431
5386.98564,0.37450
5385.05690,0.37489
5383.12815,0.37468
5381.19941,0.37431
5379.27066,0.37469
5377.34192,0.37522
5375.41317,0.37519
5373.48443,0.37519
5371.55568,0.37580
5369.62694,0.37684
5367.69819,0.37775
5365.76944,0.37754
5363.84070,0.37616
5361.91195,0.37547
5359.98321,0.37630
5358.05446,0.37762
5356.12572,0.37907
5354.19697,0.38078
5352.26823,0.38189
5350.33948,0.38204
5348.41074,0.38217
5346.48199,0.38288
5344.55325,0.38337
5342.62450,0.38313
5340.69576,0.38339
5338.76701,0.38438
5336.83827,0.38453
5334.90952,0.38409
5332.98077,0.38445
5331.05203,0.38498
5329.12328,0.38509
5327.19454,0.38548
5325.26579,0.38627
5323.33705,0.38705
5321.40830,0.38802
5319.47956,0.38910
5317.55081,0.38902
5315.62207,0.38750
5313.69332,0.38620
5311.76458,0.38574
5309.83583,0.38541
5307.90709,0.38524
5305.97834,0.38513
5304.04959,0.38461
5302.12085,0.38410
5300.19210,0.38371
5298.26336,0.38279
5296.33461,0.38146
5294.40587,0.38029
5292.47712,0.37959
5290.54838,0.37907
5288.61963,0.37805
5286.69089,0.37658
5284.76214,0.37480
5282.83340,0.37260
5280.90465,0.37020
5278.97591,0.36784
5277.04716,0.36586
5275.11842,0.36426
5273.18967,0.36226
5271.26092,0.35952
5269.33218,0.35643
5267.40343,0.35381
5265.47469,0.35187
5263.54594,0.35021
5261.61720,0.34876
5259.68845,0.34695
5257.75971,0.34462
5255.83096,0.34313
5253.90222,0.34273
5251.97347,0.34229
5250.04473,0.34198
5248.11598,0.34231
5246.18724,0.34277
5244.25849,0.34315
5242.32975,0.34374
5240.40100,0.34458
5238.47225,0.34574
5236.54351,0.34724
5234.61476,0.34884
5232.68602,0.35007
5230.75727,0.35059
5228.82853,0.35105
5226.89978,0.35274
5224.97104,0.35541
5223.04229,0.35757
5221.11355,0.35908
5219.18480,0.36091
5217.25606,0.36329
5215.32731,0.36539
5213.39857,0.36693
5211.46982,0.36835
5209.54107,0.36956
5207.61233,0.37042
5205.68358,0.37110
5203.75484,0.37175
5201.82609,0.37259
5199.89735,0.37347
5197.96860,0.37406
5196.03986,0.37431
5194.11111,0.37423
5192.18237,0.37413
5190.25362,0.37435
5188.32488,0.37460
5186.39613,0.37461
5184.46739,0.37417
5182.53864,0.37290
5180.60990,0.37116
5178.68115,0.36959
5176.75240,0.36863
5174.82366,0.36898
5172.89491,0.36972
5170.96617,0.36865
5169.03742,0.36652
5167.10868,0.36570
5165.17993,0.36568
5163.25119,0.36485
5161.32244,0.36351
5159.39370,0.36246
5157.46495,0.36149
5155.53621,0.36017
5153.60746,0.35875
5151.67872,0.35732
5149.74997,0.35580
5147.82123,0.35446
5145.89248,0.35342
5143.96373,0.35268
5142.03499,0.35262
5140.10624,0.35315
5138.17750,0.35368
5136.24875,0.35467
5134.32001,0.35690
5132.39126,0.35962
5130.46252,0.36214
5128.53377,0.36457
5126.60503,0.36648
5124.67628,0.36776
5122.74754,0.36940
5120.81879,0.37188
5118.89005,0.37445
5116.96130,0.37622
5115.03255,0.37729
5113.10381,0.37819
5111.17506,0.37905
5109.24632,0.38022
5107.31757,0.38173
5105.38883,0.38291
5103.46008,0.38368
5101.53134,0.38413
5099.60259,0.38405
5097.67385,0.38390
5095.74510,0.38427
5093.81636,0.38501
5091.88761,0.38547
5089.95887,0.38543
5088.03012,0.38570
5086.10138,0.38653
5084.17263,0.38711
5082.24388,0.38726
5080.31514,0.38711
5078.38639,0.38662
5076.45765,0.38607
5074.52890,0.38617
5072.60016,0.38722
5070.67141,0.38835
5068.74267,0.38873
5066.81392,0.38864
5064.88518,0.38854
5062.95643,0.38860
5061.02769,0.38872
5059.09894,0.38870
5057.17020,0.38843
5055.24145,0.38797
5053.31270,0.38768
5051.38396,0.38772
5049.45521,0.38779
5047.52647,0.38776
5045.59772,0.38769
5043.66898,0.38749
5041.74023,0.38741
5039.81149,0.38768
5037.88274,0.38811
5035.95400,0.38833
5034.02525,0.38800
5032.09651,0.38749
5030.16776,0.38778
5028.23902,0.38876
5026.31027,0.38918
5024.38153,0.38880
5022.45278,0.38860
5020.52403,0.38870
5018.59529,0.38884
5016.66654,0.38915
5014.73780,0.38931
5012.80905,0.38917
5010.88031,0.38913
5008.95156,0.38908
5007.02282,0.38853
5005.09407,0.38766
5003.16533,0.38693
5001.23658,0.38657
4999.30784,0.38658
4997.37909,0.38647
4995.45035,0.38586
4993.52160,0.38498
4991.59286,0.38428
4989.66411,0.38377
4987.73536,0.38295
4985.80662,0.38181
4983.87787,0.38101
4981.94913,0.38086
4980.02038,0.38103
4978.09164,0.38127
4976.16289,0.38123
4974.23415,0.38052
4972.30540,0.37961
4970.37666,0.37888
4968.44791,0.37816
4966.51917,0.37758
4964.59042,0.37726
4962.66168,0.37702
4960.73293,0.37693
4958.80418,0.37679
4956.87544,0.37636
4954.94669,0.37627
4953.01795,0.37672
4951.08920,0.37687
4949.16046,0.37636
4947.23171,0.37564
4945.30297,0.37535
4943.37422,0.37578
4941.44548,0.37630
4939.51673,0.37653
4937.58799,0.37677
4935.65924,0.37689
4933.73050,0.37674
4931.80175,0.37671
4929.87301,0.37708
4927.94426,0.37761
4926.01551,0.37768
4924.08677,0.37693
4922.15802,0.37611
4920.22928,0.37600
4918.30053,0.37612
4916.37179,0.37606
4914.44304,0.37612
4912.51430,0.37625
4910.58555,0.37583
4908.65681,0.37507
4906.72806,0.37468
4904.79932,0.37470
4902.87057,0.37473
4900.94183,0.37430
4899.01308,0.37342
4897.08434,0.37258
4895.15559,0.37178
4893.22684,0.37069
4891.29810,0.36977
4889.36935,0.36924
4887.44061,0.36827
4885.51186,0.36650
4883.58312,0.36490
4881.65437,0.36419
4879.72563,0.36387
4877.79688,0.36352
4875.86814,0.36353
4873.93939,0.36386
4872.01065,0.36399
4870.08190,0.36381
4868.15316,0.36355
4866.22441,0.36350
4864.29566,0.36391
4862.36692,0.36465
4860.43817,0.36549
4858.50943,0.36610
4856.58068,0.36616
4854.65194,0.36589
4852.72319,0.36574
4850.79445,0.36573
4848.86570,0.36583
4846.93696,0.36622
4845.00821,0.36680
4843.07947,0.36693
4841.15072,0.36649
4839.22198,0.36602
4837.29323,0.36558
4835.36449,0.36526
4833.43574,0.36556
4831.50699,0.36622
4829.57825,0.36660
4827.64950,0.36677
4825.72076,0.36698
4823.79201,0.36718
4821.86327,0.36723
4819.93452,0.36716
4818.00578,0.36706
4816.07703,0.36687
4814.14829,0.36672
4812.21954,0.36661
4810.29080,0.36626
4808.36205,0.36575
4806.43331,0.36536
4804.50456,0.36499
4802.57582,0.36450
4800.64707,0.36391
4798.71832,0.36353
4796.78958,0.36365
4794.86083,0.36329
4792.93209,0.36156
4791.00334,0.35939
4789.07460,0.35765
4787.14585,0.35642
4785.21711,0.35574
4783.28836,0.35507
4781.35962,0.35404
4779.43087,0.35287
4777.50213,0.35158
4775.57338,0.34996
4773.64464,0.34801
4771.71589,0.34608
4769.78714,0.34441
4767.85840,0.34297
4765.92965,0.34156
4764.00091,0.33978
4762.07216,0.33814
4760.14342,0.33764
4758.21467,0.33751
4756.28593,0.33667
4754.35718,0.33566
4752.42844,0.33464
4750.49969,0.33303
4748.57095,0.33144
4746.64220,0.33047
4744.71346,0.32949
4742.78471,0.32778
4740.85597,0.32494
4738.92722,0.32109
4736.99847,0.31731
4735.06973,0.31408
4733.14098,0.31033
4731.21224,0.30536
4729.28349,0.29980
4727.35475,0.29426
4725.42600,0.28875
4723.49726,0.28340
4721.56851,0.27842
4719.63977,0.27386
4717.71102,0.27019
4715.78228,0.26774
4713.85353,0.26602
4711.92479,0.26467
4709.99604,0.26395
4708.06729,0.26362
4706.13855,0.26300
4704.20980,0.26230
4702.28106,0.26199
4700.35231,0.26150
4698.42357,0.26009
4696.49482,0.25772
4694.56608,0.25441
4692.63733,0.25024
4690.70859,0.24529
4688.77984,0.23924
4686.85110,0.23203
4684.92235,0.22418
4682.99361,0.21574
4681.06486,0.20658
4679.13612,0.19731
4677.20737,0.18871
4675.27862,0.18143
4673.34988,0.17566
4671.42113,0.17115
4669.49239,0.16826
4667.56364,0.16702
4665.63490,0.16664
4663.70615,0.16710
4661.77741,0.16891
4659.84866,0.17201
4657.91992,0.17613
4655.99117,0.18080
4654.06243,0.18521
4652.13368,0.18864
4650.20494,0.19086
4648.27619,0.19208
4646.34745,0.19239
4644.41870,0.19182
4642.48995,0.19053
4640.56121,0.18826
4638.63246,0.18474
4636.70372,0.18077
4634.77497,0.17728
4632.84623,0.17433
4630.91748,0.17204
4628.98874,0.17065
4627.05999,0.17007
4625.13125,0.17011
4623.20250,0.17056
4621.27376,0.17081
4619.34501,0.17043
4617.41627,0.16968
4615.48752,0.16867
4613.55877,0.16728
4611.63003,0.16594
4609.70128,0.16536
4607.77254,0.16576
4605.84379,0.16708
4603.91505,0.16930
4601.98630,0.17247
4600.05756,0.17660
4598.12881,0.18173
4596.20007,0.18727
4594.27132,0.19214
4592.34258,0.19568
4590.41383,0.19789
4588.48509,0.19879
4586.55634,0.19804
4584.62760,0.19569
4582.69885,0.19238
4580.77010,0.18856
4578.84136,0.18474
4576.91261,0.18174
4574.98387,0.18023
4573.05512,0.18070
4571.12638,0.18337
4569.19763,0.18790
4567.26889,0.19355
4565.34014,0.19947
4563.41140,0.20472
4561.48265,0.20923
4559.55391,0.21358
4557.62516,0.21786
4555.69642,0.22169
4553.76767,0.22508
4551.83893,0.22845
4549.91018,0.23180
4547.98143,0.23426
4546.05269,0.23546
4544.12394,0.23588
4542.19520,0.23576
4540.26645,0.23539
4538.33771,0.23501
4536.40896,0.23457
4534.48022,0.23448
4532.55147,0.23490
4530.62273,0.23520
4528.69398,0.23507
4526.76524,0.23495
4524.83649,0.23502
4522.90775,0.23478
4520.97900,0.23378
4519.05025,0.23239
4517.12151,0.23136
4515.19276,0.23076
4513.26402,0.23012
4511.33527,0.22931
4509.40653,0.22842
4507.47778,0.22750
4505.54904,0.22677
4503.62029,0.22646
4501.69155,0.22669
4499.76280,0.22726
4497.83406,0.22737
4495.90531,0.22618
4493.97657,0.22364
4492.04782,0.22036
4490.11908,0.21689
4488.19033,0.21331
4486.26158,0.20970
4484.33284,0.20645
4482.40409,0.20383
4480.47535,0.20194
4478.54660,0.20109
4476.61786,0.20169
4474.68911,0.20377
4472.76037,0.20656
4470.83162,0.20923
4468.90288,0.21160
4466.97413,0.21339
4465.04539,0.21444
4463.11664,0.21510
4461.18790,0.21522
4459.25915,0.21419
4457.33041,0.21227
4455.40166,0.21025
4453.47291,0.20826
4451.54417,0.20594
4449.61542,0.20358
4447.68668,0.20180
4445.75793,0.20043
4443.82919,0.19907
4441.90044,0.19817
4439.97170,0.19805
4438.04295,0.19823
4436.11421,0.19808
4434.18546,0.19742
4432.25672,0.19629
4430.32797,0.19471
4428.39923,0.19295
4426.47048,0.19103
4424.54173,0.18873
4422.61299,0.18623
4420.68424,0.18387
4418.75550,0.18169
4416.82675,0.17942
4414.89801,0.17709
4412.96926,0.17499
4411.04052,0.17272
4409.11177,0.17000
4407.18303,0.16715
4405.25428,0.16433
4403.32554,0.16156
4401.39679,0.15899
4399.46805,0.15656
4397.53930,0.15407
4395.61056,0.15165
4393.68181,0.14959
4391.75306,0.14761
4389.82432,0.14535
4387.89557,0.14327
4385.96683,0.14130
4384.03808,0.13892
4382.10934,0.13668
4380.18059,0.13491
4378.25185,0.13318
4376.32310,0.13139
4374.39436,0.12971
4372.46561,0.12810
4370.53687,0.12638
4368.60812,0.12450
4366.67938,0.12273
4364.75063,0.12139
4362.82189,0.12041
4360.89314,0.11940
4358.96439,0.11843
4357.03565,0.11788
4355.10690,0.11769
4353.17816,0.11737
4351.24941,0.11666
4349.32067,0.11609
4347.39192,0.11586
4345.46318,0.11525
4343.53443,0.11419
4341.60569,0.11362
4339.67694,0.11356
4337.74820,0.11348
4335.81945,0.11351
4333.89071,0.11373
4331.96196,0.11382
4330.03321,0.11386
4328.10447,0.11394
4326.17572,0.11391
4324.24698,0.11419
4322.31823,0.11501
4320.38949,0.11602
4318.46074,0.11713
4316.53200,0.11800
4314.60325,0.11811
4312.67451,0.11792
4310.74576,0.11818
4308.81702,0.11862
4306.88827,0.11870
4304.95953,0.11846
4303.03078,0.11809
4301.10204,0.11771
4299.17329,0.11735
4297.24454,0.11684
4295.31580,0.11618
4293.38705,0.11560
4291.45831,0.11512
4289.52956,0.11459
4287.60082,0.11398
4285.67207,0.11335
4283.74333,0.11269
4281.81458,0.11204
4279.88584,0.11152
4277.95709,0.11112
4276.02835,0.11057
4274.09960,0.10960
4272.17086,0.10845
4270.24211,0.10754
4268.31336,0.10683
4266.38462,0.10608
4264.45587,0.10541
4262.52713,0.10486
4260.59838,0.10426
4258.66964,0.10386
4256.74089,0.10392
4254.81215,0.10392
4252.88340,0.10334
4250.95466,0.10274
4249.02591,0.10271
4247.09717,0.10275
4245.16842,0.10260
4243.23968,0.10274
4241.31093,0.10314
4239.38219,0.10331
4237.45344,0.10329
4235.52469,0.10321
4233.59595,0.10317
4231.66720,0.10340
4229.73846,0.10396
4227.80971,0.10463
4225.88097,0.10498
4223.95222,0.10483
4222.02348,0.10483
4220.09473,0.10537
4218.16599,0.10595
4216.23724,0.10631
4214.30850,0.10658
4212.37975,0.10682
4210.45101,0.10692
4208.52226,0.10685
4206.59352,0.10683
4204.66477,0.10702
4202.73602,0.10736
4200.80728,0.10805
4198.87853,0.10884
4196.94979,0.10921
4195.02104,0.10942
4193.09230,0.10991
4191.16355,0.11049
4189.23481,0.11088
4187.30606,0.11117
4185.37732,0.11149
4183.44857,0.11175
4181.51983,0.11190
4179.59108,0.11223
4177.66234,0.11286
4175.73359,0.11350
4173.80484,0.11412
4171.87610,0.11470
4169.94735,0.11503
4168.01861,0.11527
4166.08986,0.11554
4164.16112,0.11560
4162.23237,0.11546
4160.30363,0.11552
4158.37488,0.11584
4156.44614,0.11620
4154.51739,0.11654
4152.58865,0.11681
4150.65990,0.11706
4148.73116,0.11715
4146.80241,0.11681
4144.87367,0.11628
4142.94492,0.11604
4141.01617,0.11596
4139.08743,0.11565
4137.15868,0.11535
4135.22994,0.11522
4133.30119,0.11501
4131.37245,0.11447
4129.44370,0.11377
4127.51496,0.11348
4125.58621,0.11361
4123.65747,0.11365
4121.72872,0.11341
4119.79998,0.11307
4117.87123,0.11268
4115.94249,0.11212
4114.01374,0.11158
4112.08500,0.11138
4110.15625,0.11139
4108.22750,0.11128
4106.29876,0.11112
4104.37001,0.11107
4102.44127,0.11092
4100.51252,0.11046
4098.58378,0.10981
4096.65503,0.10914
4094.72629,0.10845
4092.79754,0.10772
4090.86880,0.10693
4088.94005,0.10612
4087.01131,0.10545
4085.08256,0.10465
4083.15382,0.10338
4081.22507,0.10180
4079.29632,0.10020
4077.36758,0.09875
4075.43883,0.09740
4073.51009,0.09607
4071.58134,0.09482
4069.65260,0.09364
4067.72385,0.09247
4065.79511,0.09146
4063.86636,0.09069
4061.93762,0.09014
4060.00887,0.08971
4058.08013,0.08911
4056.15138,0.08841
4054.22264,0.08828
4052.29389,0.08879
4050.36515,0.08923
4048.43640,0.08909
4046.50765,0.08861
4044.57891,0.08828
4042.65016,0.08830
4040.72142,0.08845
4038.79267,0.08851
4036.86393,0.08871
4034.93518,0.08954
4033.00644,0.09094
4031.07769,0.09239
4029.14895,0.09366
4027.22020,0.09487
4025.29146,0.09616
4023.36271,0.09772
4021.43397,0.09961
4019.50522,0.10173
4017.57648,0.10386
4015.64773,0.10584
4013.71898,0.10777
4011.79024,0.10937
4009.86149,0.11022
4007.93275,0.11048
4006.00400,0.11046
4004.07526,0.11043
4002.14651,0.11061
4000.21777,0.11112
3998.28902,0.11214
3996.36028,0.11337
3994.43153,0.11432
3992.50279,0.11495
3990.57404,0.11531
3988.64530,0.11566
3986.71655,0.11622
3984.78780,0.11649
3982.85906,0.11626
3980.93031,0.11610
3979.00157,0.11625
3977.07282,0.11642
3975.14408,0.11650
3973.21533,0.11651
3971.28659,0.11650
3969.35784,0.11648
3967.42910,0.11659
3965.50035,0.11707
3963.57161,0.11776
3961.64286,0.11812
3959.71412,0.11800
3957.78537,0.11780
3955.85663,0.11787
3953.92788,0.11808
3951.99913,0.11831
3950.07039,0.11852
3948.14164,0.11846
3946.21290,0.11812
3944.28415,0.11785
3942.35541,0.11785
3940.42666,0.11791
3938.49792,0.11777
3936.56917,0.11765
3934.64043,0.11776
3932.71168,0.11790
3930.78294,0.11788
3928.85419,0.11787
3926.92545,0.11799
3924.99670,0.11801
3923.06795,0.11781
3921.13921,0.11782
3919.21046,0.11823
3917.28172,0.11844
3915.35297,0.11811
3913.42423,0.11792
3911.49548,0.11813
3909.56674,0.11844
3907.63799,0.11878
3905.70925,0.11915
3903.78050,0.11939
3901.85176,0.11962
3899.92301,0.11973
3897.99427,0.11960
3896.06552,0.11972
3894.13678,0.12039
3892.20803,0.12099
3890.27928,0.12115
3888.35054,0.12142
3886.42179,0.12189
3884.49305,0.12220
3882.56430,0.12222
3880.63556,0.12197
3878.70681,0.12172
3876.77807,0.12180
3874.84932,0.12222
3872.92058,0.12281
3870.99183,0.12328
3869.06309,0.12338
3867.13434,0.12326
3865.20560,0.12323
3863.27685,0.12327
3861.34811,0.12324
3859.41936,0.12312
3857.49061,0.12313
3855.56187,0.12325
3853.63312,0.12288
3851.70438,0.12200
3849.77563,0.12152
3847.84689,0.12133
3845.91814,0.12117
3843.98940,0.12111
3842.06065,0.12118
3840.13191,0.12123
3838.20316,0.12115
3836.27442,0.12101
3834.34567,0.12083
3832.41693,0.12032
3830.48818,0.11937
3828.55943,0.11846
3826.63069,0.11804
3824.70194,0.11823
3822.77320,0.11879
3820.84445,0.11910
3818.91571,0.11890
3816.98696,0.11862
3815.05822,0.11855
3813.12947,0.11872
3811.20073,0.11905
3809.27198,0.11934
3807.34324,0.11932
3805.41449,0.11925
3803.48575,0.11951
3801.55700,0.11961
3799.62826,0.11932
3797.69951,0.11926
3795.77076,0.11950
3793.84202,0.11988
3791.91327,0.12041
3789.98453,0.12101
3788.05578,0.12158
3786.12704,0.12187
3784.19829,0.12169
3782.26955,0.12162
3780.34080,0.12186
3778.41206,0.12167
3776.48331,0.12106
3774.55457,0.12088
3772.62582,0.12124
3770.69708,0.12158
3768.76833,0.12140
3766.83959,0.12116
3764.91084,0.12143
3762.98209,0.12189
3761.05335,0.12222
3759.12460,0.12255
3757.19586,0.12291
3755.26711,0.12326
3753.33837,0.12384
3751.40962,0.12461
3749.48088,0.12463
3747.55213,0.12399
3745.62339,0.12344
3743.69464,0.12301
3741.76590,0.12285
3739.83715,0.12290
3737.90841,0.12283
3735.97966,0.12227
3734.05091,0.12117
3732.12217,0.11972
3730.19342,0.11821
3728.26468,0.11702
3726.33593,0.11634
3724.40719,0.11598
3722.47844,0.11557
3720.54970,0.11530
3718.62095,0.11558
3716.69221,0.11622
3714.76346,0.11657
3712.83472,0.11620
3710.90597,0.11503
3708.97723,0.11341
3707.04848,0.11189
3705.11974,0.11086
3703.19099,0.11015
3701.26224,0.10931
3699.33350,0.10843
3697.40475,0.10778
3695.47601,0.10721
3693.54726,0.10656
3691.61852,0.10565
3689.68977,0.10403
3687.76103,0.10167
3685.83228,0.09936
3683.90354,0.09734
3681.97479,0.09548
3680.04605,0.09405
3678.11730,0.09302
3676.18856,0.09180
3674.25981,0.09022
3672.33107,0.08873
3670.40232,0.08732
3668.47357,0.08596
3666.54483,0.08498
3664.61608,0.08431
3662.68734,0.08359
3660.75859,0.08293
3658.82985,0.08269
3656.90110,0.08257
3654.97236,0.08215
3653.04361,0.08171
3651.11487,0.08131
3649.18612,0.08099
3647.25738,0.08101
3645.32863,0.08127
3643.39989,0.08147
3641.47114,0.08139
3639.54239,0.08123
3637.61365,0.08147
3635.68490,0.08195
3633.75616,0.08230
3631.82741,0.08254
3629.89867,0.08282
3627.96992,0.08296
3626.04118,0.08281
3624.11243,0.08270
3622.18369,0.08296
3620.25494,0.08351
3618.32620,0.08387
3616.39745,0.08401
3614.46871,0.08442
3612.53996,0.08500
3610.61122,0.08532
3608.68247,0.08526
3606.75372,0.08505
3604.82498,0.08529
3602.89623,0.08605
3600.96749,0.08654
3599.03874,0.08647
3597.11000,0.08648
3595.18125,0.08663
3593.25251,0.08646
3591.32376,0.08628
3589.39502,0.08641
3587.46627,0.08646
3585.53753,0.08626
3583.60878,0.08581
3581.68004,0.08490
3579.75129,0.08391
3577.82254,0.08352
3575.89380,0.08371
3573.96505,0.08394
3572.03631,0.08397
3570.10756,0.08356
3568.17882,0.08270
3566.25007,0.08201
3564.32133,0.08172
3562.39258,0.08135
3560.46384,0.08063
3558.53509,0.07995
3556.60635,0.07993
3554.67760,0.08016
3552.74886,0.07980
3550.82011,0.07914
3548.89137,0.07880
3546.96262,0.07862
3545.03387,0.07846
3543.10513,0.07826
3541.17638,0.07784
3539.24764,0.07756
3537.31889,0.07776
3535.39015,0.07813
3533.46140,0.07818
3531.53266,0.07799
3529.60391,0.07803
3527.67517,0.07830
3525.74642,0.07849
3523.81768,0.07845
3521.88893,0.07823
3519.96019,0.07813
3518.03144,0.07840
3516.10270,0.07884
3514.17395,0.07941
3512.24520,0.08013
3510.31646,0.08065
3508.38771,0.08085
3506.45897,0.08094
3504.53022,0.08075
3502.60148,0.08029
3500.67273,0.08003
3498.74399,0.08024
3496.81524,0.08087
3494.88650,0.08143
3492.95775,0.08140
3491.02901,0.08105
3489.10026,0.08087
3487.17152,0.08087
3485.24277,0.08095
3483.31402,0.08111
3481.38528,0.08120
3479.45653,0.08131
3477.52779,0.08166
3475.59904,0.08213
3473.67030,0.08234
3471.74155,0.08231
3469.81281,0.08229
3467.88406,0.08238
3465.95532,0.08244
3464.02657,0.08238
3462.09783,0.08230
3460.16908,0.08234
3458.24034,0.08228
3456.31159,0.08190
3454.38285,0.08140
3452.45410,0.08121
3450.52535,0.08140
3448.59661,0.08155
3446.66786,0.08150
3444.73912,0.08142
3442.81037,0.08133
3440.88163,0.08141
3438.95288,0.08169
3437.02414,0.08179
3435.09539,0.08168
3433.16665,0.08175
3431.23790,0.08203
3429.30916,0.08219
3427.38041,0.08220
3425.45167,0.08227
3423.52292,0.08243
3421.59418,0.08246
3419.66543,0.08221
3417.73668,0.08189
3415.80794,0.08171
3413.87919,0.08166
3411.95045,0.08160
3410.02170,0.08153
3408.09296,0.08153
3406.16421,0.08148
3404.23547,0.08129
3402.30672,0.08135
3400.37798,0.08192
3398.44923,0.08226
3396.52049,0.08183
3394.59174,0.08129
3392.66300,0.08103
3390.73425,0.08081
3388.80550,0.08078
3386.87676,0.08117
3384.94801,0.08166
3383.01927,0.08186
3381.09052,0.08169
3379.16178,0.08132
3377.23303,0.08109
3375.30429,0.08133
3373.37554,0.08189
3371.44680,0.08220
3369.51805,0.08221
3367.58931,0.08230
3365.66056,0.08234
3363.73182,0.08221
3361.80307,0.08198
3359.87433,0.08172
3357.94558,0.08160
3356.01683,0.08165
3354.08809,0.08170
3352.15934,0.08155
3350.23060,0.08119
3348.30185,0.08083
3346.37311,0.08061
3344.44436,0.08058
3342.51562,0.08071
3340.58687,0.08080
3338.65813,0.08075
3336.72938,0.08074
3334.80064,0.08063
3332.87189,0.08023
3330.94315,0.07980
3329.01440,0.07950
3327.08566,0.07919
3325.15691,0.07884
3323.22816,0.07840
3321.29942,0.07774
3319.37067,0.07692
3317.44193,0.07593
3315.51318,0.07489
3313.58444,0.07381
3311.65569,0.07233
3309.72695,0.07048
3307.79820,0.06866
3305.86946,0.06701
3303.94071,0.06552
3302.01197,0.06423
3300.08322,0.06370
3298.15448,0.06439
3296.22573,0.06565
3294.29698,0.06652
3292.36824,0.06712
3290.43949,0.06809
3288.51075,0.06942
3286.58200,0.07064
3284.65326,0.07163
3282.72451,0.07260
3280.79577,0.07356
3278.86702,0.07434
3276.93828,0.07495
3275.00953,0.07546
3273.08079,0.07591
3271.15204,0.07622
3269.22330,0.07636
3267.29455,0.07669
3265.36581,0.07723
3263.43706,0.07769
3261.50831,0.07801
3259.57957,0.07816
3257.65082,0.07816
3255.72208,0.07812
3253.79333,0.07812
3251.86459,0.07812
3249.93584,0.07813
3248.00710,0.07828
3246.07835,0.07854
3244.14961,0.07878
3242.22086,0.07888
3240.29212,0.07872
3238.36337,0.07854
3236.43463,0.07864
3234.50588,0.07883
3232.57713,0.07857
3230.64839,0.07789
3228.71964,0.07728
3226.79090,0.07707
3224.86215,0.07705
3222.93341,0.07684
3221.00466,0.07660
3219.07592,0.07668
3217.14717,0.07682
3215.21843,0.07672
3213.28968,0.07652
3211.36094,0.07638
3209.43219,0.07621
3207.50345,0.07598
3205.57470,0.07580
3203.64596,0.07573
3201.71721,0.07585
3199.78846,0.07603
3197.85972,0.07609
3195.93097,0.07627
3194.00223,0.07656
3192.07348,0.07652
3190.14474,0.07629
3188.21599,0.07613
3186.28725,0.07591
3184.35850,0.07566
3182.42976,0.07563
3180.50101,0.07580
3178.57227,0.07602
3176.64352,0.07615
3174.71478,0.07604
3172.78603,0.07545
3170.85729,0.07467
3168.92854,0.07425
3166.99979,0.07411
3165.07105,0.07394
3163.14230,0.07383
3161.21356,0.07393
3159.28481,0.07422
3157.35607,0.07447
3155.42732,0.07451
3153.49858,0.07437
3151.56983,0.07416
3149.64109,0.07406
3147.71234,0.07407
3145.78360,0.07404
3143.85485,0.07391
3141.92611,0.07366
3139.99736,0.07346
3138.06861,0.07361
3136.13987,0.07369
3134.21112,0.07319
3132.28238,0.07244
3130.35363,0.07198
3128.42489,0.07184
3126.49614,0.07157
3124.56740,0.07093
3122.63865,0.07025
3120.70991,0.06969
3118.78116,0.06905
3116.85242,0.06820
3114.92367,0.06724
3112.99493,0.06633
3111.06618,0.06542
3109.13744,0.06453
3107.20869,0.06389
3105.27994,0.06361
3103.35120,0.06357
3101.42245,0.06372
3099.49371,0.06401
3097.56496,0.06398
3095.63622,0.06342
3093.70747,0.06275
3091.77873,0.06218
3089.84998,0.06160
3087.92124,0.06111
3085.99249,0.06092
3084.06375,0.06093
3082.13500,0.06102
3080.20626,0.06103
3078.27751,0.06095
3076.34877,0.06091
3074.42002,0.06074
3072.49127,0.06050
3070.56253,0.06038
3068.63378,0.06022
3066.70504,0.05990
3064.77629,0.05966
3062.84755,0.05975
3060.91880,0.05990
3058.99006,0.05981
3057.06131,0.05985
3055.13257,0.06032
3053.20382,0.06085
3051.27508,0.06113
3049.34633,0.06123
3047.41759,0.06114
3045.48884,0.06085
3043.56009,0.06049
3041.63135,0.06021
3039.70260,0.06015
3037.77386,0.06017
3035.84511,0.06000
3033.91637,0.05960
3031.98762,0.05933
3030.05888,0.05933
3028.13013,0.05942
3026.20139,0.05951
3024.27264,0.05975
3022.34390,0.06022
3020.41515,0.06066
3018.48641,0.06079
3016.55766,0.06072
3014.62892,0.06061
3012.70017,0.06046
3010.77142,0.06024
3008.84268,0.05992
3006.91393,0.05966
3004.98519,0.05957
3003.05644,0.05948
3001.12770,0.05944
2999.19895,0.05954
2997.27021,0.05969
2995.34146,0.05979
2993.41272,0.05975
2991.48397,0.05953
2989.55523,0.05931
2987.62648,0.05918
2985.69774,0.05909
2983.76899,0.05892
2981.84025,0.05876
2979.91150,0.05879
2977.98275,0.05895
2976.05401,0.05905
2974.12526,0.05912
2972.19652,0.05920
2970.26777,0.05930
2968.33903,0.05940
2966.41028,0.05934
2964.48154,0.05896
2962.55279,0.05846
2960.62405,0.05822
2958.69530,0.05837
2956.76656,0.05872
2954.83781,0.05899
2952.90907,0.05901
2950.98032,0.05897
2949.05157,0.05907
2947.12283,0.05916
2945.19408,0.05916
2943.26534,0.05910
2941.33659,0.05900
2939.40785,0.05898
2937.47910,0.05914
2935.55036,0.05946
2933.62161,0.05991
2931.69287,0.06052
2929.76412,0.06111
2927.83538,0.06152
2925.90663,0.06174
2923.97789,0.06202
2922.04914,0.06242
2920.12040,0.06263
2918.19165,0.06252
2916.26290,0.06240
2914.33416,0.06235
2912.40541,0.06224
2910.47667,0.06226
2908.54792,0.06242
2906.61918,0.06235
2904.69043,0.06213
2902.76169,0.06206
2900.83294,0.06213
2898.90420,0.06214
2896.97545,0.06206
2895.04671,0.06198
2893.11796,0.06195
2891.18922,0.06196
2889.26047,0.06195
2887.33172,0.06190
2885.40298,0.06177
2883.47423,0.06167
2881.54549,0.06175
2879.61674,0.06194
2877.68800,0.06211
2875.75925,0.06216
2873.83051,0.06208
2871.90176,0.06202
2869.97302,0.06206
2868.04427,0.06211
2866.11553,0.06212
2864.18678,0.06214
2862.25804,0.06225
2860.32929,0.06252
2858.40055,0.06277
2856.47180,0.06282
2854.54305,0.06289
2852.61431,0.06316
2850.68556,0.06336
2848.75682,0.06331
2846.82807,0.06318
2844.89933,0.06299
2842.97058,0.06267
2841.04184,0.06237
2839.11309,0.06216
2837.18435,0.06199
2835.25560,0.06197
2833.32686,0.06212
2831.39811,0.06228
2829.46937,0.06248
2827.54062,0.06284
2825.61188,0.06319
2823.68313,0.06342
2821.75438,0.06369
2819.82564,0.06400
2817.89689,0.06427
2815.96815,0.06450
2814.03940,0.06467
2812.11066,0.06481
2810.18191,0.06505
2808.25317,0.06544
2806.32442,0.06579
2804.39568,0.06594
2802.46693,0.06603
2800.53819,0.06616
2798.60944,0.06619
2796.68070,0.06611
2794.75195,0.06615
2792.82320,0.06631
2790.89446,0.06647
2788.96571,0.06658
2787.03697,0.06676
2785.10822,0.06721
2783.17948,0.06768
2781.25073,0.06794
2779.32199,0.06819
2777.39324,0.06836
2775.46450,0.06822
2773.53575,0.06801
2771.60701,0.06809
2769.67826,0.06830
2767.74952,0.06836
2765.82077,0.06840
2763.89203,0.06865
2761.96328,0.06881
2760.03453,0.06879
2758.10579,0.06899
2756.17704,0.06940
2754.24830,0.06958
2752.31955,0.06947
2750.39081,0.06934
2748.46206,0.06933
2746.53332,0.06936
2744.60457,0.06938
2742.67583,0.06963
2740.74708,0.07000
2738.81834,0.07006
2736.88959,0.06979
2734.96085,0.06955
2733.03210,0.06937
2731.10336,0.06922
2729.17461,0.06914
2727.24586,0.06918
2725.31712,0.06929
2723.38837,0.06928
2721.45963,0.06904
2719.53088,0.06883
2717.60214,0.06880
2715.67339,0.06884
2713.74465,0.06893
2711.81590,0.06905
2709.88716,0.06917
2707.95841,0.06929
2706.02967,0.06933
2704.10092,0.06924
2702.17218,0.06912
2700.24343,0.06910
2698.31468,0.06914
2696.38594,0.06912
2694.45719,0.06900
2692.52845,0.06885
2690.59970,0.06879
2688.67096,0.06881
2686.74221,0.06878
2684.81347,0.06860
2682.88472,0.06831
2680.95598,0.06817
2679.02723,0.06832
2677.09849,0.06850
2675.16974,0.06850
2673.24100,0.06833
2671.31225,0.06813
2669.38351,0.06808
2667.45476,0.06816
2665.52601,0.06830
2663.59727,0.06844
2661.66852,0.06837
2659.73978,0.06818
2657.81103,0.06827
2655.88229,0.06856
2653.95354,0.06861
2652.02480,0.06852
2650.09605,0.06857
2648.16731,0.06872
2646.23856,0.06875
2644.30982,0.06864
2642.38107,0.06853
2640.45233,0.06842
2638.52358,0.06820
2636.59484,0.06795
2634.66609,0.06782
2632.73734,0.06799
2630.80860,0.06836
2628.87985,0.06867
2626.95111,0.06899
2625.02236,0.06944
2623.09362,0.06977
2621.16487,0.06971
2619.23613,0.06943
2617.30738,0.06928
2615.37864,0.06939
2613.44989,0.06949
2611.52115,0.06935
2609.59240,0.06916
2607.66366,0.06911
2605.73491,0.06910
2603.80616,0.06901
2601.87742,0.06906
2599.94867,0.06940
2598.01993,0.06971
2596.09118,0.06978
2594.16244,0.06984
2592.23369,0.06999
2590.30495,0.07010
2588.37620,0.07004
2586.44746,0.06985
2584.51871,0.06963
2582.58997,0.06959
2580.66122,0.06981
2578.73248,0.07004
2576.80373,0.06994
2574.87499,0.06971
2572.94624,0.06975
2571.01749,0.06990
2569.08875,0.06998
2567.16000,0.07007
2565.23126,0.07015
2563.30251,0.07012
2561.37377,0.06990
2559.44502,0.06963
2557.51628,0.06952
2555.58753,0.06952
2553.65879,0.06952
2551.73004,0.06953
2549.80130,0.06967
2547.87255,0.06984
2545.94381,0.06990
2544.01506,0.06983
2542.08631,0.06964
2540.15757,0.06950
2538.22882,0.06947
2536.30008,0.06956
2534.37133,0.06973
2532.44259,0.06963
2530.51384,0.06927
2528.58510,0.06912
2526.65635,0.06925
2524.72761,0.06921
2522.79886,0.06902
2520.87012,0.06892
2518.94137,0.06886
2517.01263,0.06878
2515.08388,0.06885
2513.15514,0.06911
2511.22639,0.06930
2509.29764,0.06939
2507.36890,0.06948
2505.44015,0.06951
2503.51141,0.06957
2501.58266,0.06973
2499.65392,0.06980
2497.72517,0.06977
2495.79643,0.06983
2493.86768,0.06991
2491.93894,0.06986
2490.01019,0.06978
2488.08145,0.06987
2486.15270,0.07011
2484.22396,0.07041
2482.29521,0.07064
2480.36647,0.07077
2478.43772,0.07086
2476.50897,0.07091
2474.58023,0.07092
2472.65148,0.07096
2470.72274,0.07100
2468.79399,0.07101
2466.86525,0.07103
2464.93650,0.07106
2463.00776,0.07105
2461.07901,0.07097
2459.15027,0.07083
2457.22152,0.07081
2455.29278,0.07088
2453.36403,0.07086
2451.43529,0.07074
2449.50654,0.07065
2447.57779,0.07056
2445.64905,0.07054
2443.72030,0.07069
2441.79156,0.07084
2439.86281,0.07081
2437.93407,0.07065
2436.00532,0.07050
2434.07658,0.07045
2432.14783,0.07056
2430.21909,0.07076
2428.29034,0.07072
2426.36160,0.07048
2424.43285,0.07037
2422.50411,0.07041
2420.57536,0.07046
2418.64662,0.07042
2416.71787,0.07024
2414.78912,0.07001
2412.86038,0.06981
2410.93163,0.06971
2409.00289,0.06968
2407.07414,0.06959
2405.14540,0.06947
2403.21665,0.06950
2401.28791,0.06951
2399.35916,0.06931
2397.43042,0.06915
2395.50167,0.06931
2393.57293,0.06951
2391.64418,0.06942
2389.71544,0.06917
2387.78669,0.06903
2385.85795,0.06901
2383.92920,0.06900
2382.00045,0.06894
2380.07171,0.06887
2378.14296,0.06891
2376.21422,0.06907
2374.28547,0.06925
2372.35673,0.06951
2370.42798,0.06991
2368.49924,0.07011
2366.57049,0.06985
2364.64175,0.06943
2362.71300,0.06922
2360.78426,0.06929
2358.85551,0.06945
2356.92677,0.06942
2354.99802,0.06902
2353.06927,0.06841
2351.14053,0.06787
2349.21178,0.06749
2347.28304,0.06724
2345.35429,0.06710
2343.42555,0.06693
2341.49680,0.06673
2339.56806,0.06667
2337.63931,0.06691
2335.71057,0.06741
2333.78182,0.06792
2331.85308,0.06831
2329.92433,0.06854
2327.99559,0.06855
2326.06684,0.06830
2324.13810,0.06794
2322.20935,0.06763
2320.28060,0.06739
2318.35186,0.06716
2316.42311,0.06697
2314.49437,0.06688
2312.56562,0.06695
2310.63688,0.06715
2308.70813,0.06737
2306.77939,0.06747
2304.85064,0.06743
2302.92190,0.06746
2300.99315,0.06764
2299.06441,0.06771
2297.13566,0.06753
2295.20692,0.06724
2293.27817,0.06709
2291.34943,0.06718
2289.42068,0.06740
2287.49193,0.06753
2285.56319,0.06754
2283.63444,0.06751
2281.70570,0.06743
2279.77695,0.06732
2277.84821,0.06724
2275.91946,0.06714
2273.99072,0.06687
2272.06197,0.06645
2270.13323,0.06607
2268.20448,0.06580
2266.27574,0.06552
2264.34699,0.06518
2262.41825,0.06492
2260.48950,0.06468
2258.56075,0.06414
2256.63201,0.06339
2254.70326,0.06288
2252.77452,0.06256
2250.84577,0.06212
2248.91703,0.06159
2246.98828,0.06106
2245.05954,0.06053
2243.13079,0.06014
2241.20205,0.06007
2239.27330,0.06024
2237.34456,0.06054
2235.41581,0.06088
2233.48707,0.06119
2231.55832,0.06152
2229.62958,0.06197
2227.70083,0.06265
2225.77208,0.06359
2223.84334,0.06453
2221.91459,0.06523
2219.98585,0.06584
2218.05710,0.06647
2216.12836,0.06695
2214.19961,0.06716
2212.27087,0.06716
2210.34212,0.06716
2208.41338,0.06727
2206.48463,0.06753
2204.55589,0.06791
2202.62714,0.06826
2200.69840,0.06848
2198.76965,0.06852
2196.84090,0.06830
2194.91216,0.06793
2192.98341,0.06765
2191.05467,0.06741
2189.12592,0.06705
2187.19718,0.06684
2185.26843,0.06708
2183.33969,0.06761
2181.41094,0.06810
2179.48220,0.06836
2177.55345,0.06852
2175.62471,0.06876
2173.69596,0.06918
2171.76722,0.06964
2169.83847,0.06987
2167.90973,0.06996
2165.98098,0.07011
2164.05223,0.07016
2162.12349,0.06993
2160.19474,0.06964
2158.26600,0.06952
2156.33725,0.06959
2154.40851,0.06978
2152.47976,0.06996
2150.55102,0.07007
2148.62227,0.07014
2146.69353,0.07018
2144.76478,0.07020
2142.83604,0.07022
2140.90729,0.07023
2138.97855,0.07020
2137.04980,0.07009
2135.12106,0.06986
2133.19231,0.06975
2131.26356,0.06981
2129.33482,0.06980
2127.40607,0.06977
2125.47733,0.06973
2123.54858,0.06963
2121.61984,0.06956
2119.69109,0.06960
2117.76235,0.06973
2115.83360,0.06979
2113.90486,0.06959
2111.97611,0.06929
2110.04737,0.06908
2108.11862,0.06898
2106.18988,0.06901
2104.26113,0.06916
2102.33238,0.06930
2100.40364,0.06929
2098.47489,0.06916
2096.54615,0.06904
2094.61740,0.06905
2092.68866,0.06910
2090.75991,0.06910
2088.83117,0.06905
2086.90242,0.06894
2084.97368,0.06890
2083.04493,0.06894
2081.11619,0.06886
2079.18744,0.06875
2077.25870,0.06880
2075.32995,0.06886
2073.40121,0.06879
2071.47246,0.06862
2069.54371,0.06837
2067.61497,0.06817
2065.68622,0.06811
2063.75748,0.06815
2061.82873,0.06826
2059.89999,0.06837
2057.97124,0.06824
2056.04250,0.06795
2054.11375,0.06777
2052.18501,0.06770
2050.25626,0.06762
2048.32752,0.06753
2046.39877,0.06749
2044.47003,0.06751
2042.54128,0.06745
2040.61254,0.06725
2038.68379,0.06707
2036.75504,0.06691
2034.82630,0.06673
2032.89755,0.06662
2030.96881,0.06664
2029.04006,0.06666
2027.11132,0.06662
2025.18257,0.06651
2023.25383,0.06641
2021.32508,0.06648
2019.39634,0.06659
2017.46759,0.06654
2015.53885,0.06632
2013.61010,0.06606
2011.68136,0.06580
2009.75261,0.06548
2007.82386,0.06507
2005.89512,0.06475
2003.96637,0.06466
2002.03763,0.06470
2000.10888,0.06462
1998.18014,0.06429
1996.25139,0.06381
1994.32265,0.06342
1992.39390,0.06319
1990.46516,0.06297
1988.53641,0.06274
1986.60767,0.06259
1984.67892,0.06250
1982.75018,0.06237
1980.82143,0.06221
1978.89269,0.06209
1976.96394,0.06193
1975.03519,0.06169
1973.10645,0.06149
1971.17770,0.06143
1969.24896,0.06148
1967.32021,0.06147
1965.39147,0.06129
1963.46272,0.06113
1961.53398,0.06115
1959.60523,0.06114
1957.67649,0.06109
1955.74774,0.06112
1953.81900,0.06118
1951.89025,0.06112
1949.96151,0.06095
1948.03276,0.06083
1946.10402,0.06094
1944.17527,0.06118
1942.24652,0.06132
1940.31778,0.06138
1938.38903,0.06146
1936.46029,0.06165
1934.53154,0.06193
1932.60280,0.06207
1930.67405,0.06219
1928.74531,0.06246
1926.81656,0.06270
1924.88782,0.06282
1922.95907,0.06288
1921.03033,0.06292
1919.10158,0.06300
1917.17284,0.06294
1915.24409,0.06259
1913.31534,0.06222
1911.38660,0.06210
1909.45785,0.06209
1907.52911,0.06203
1905.60036,0.06188
1903.67162,0.06162
1901.74287,0.06130
1899.81413,0.06106
1897.88538,0.06092
1895.95664,0.06081
1894.02789,0.06071
1892.09915,0.06070
1890.17040,0.06070
1888.24166,0.06062
1886.31291,0.06057
1884.38417,0.06054
1882.45542,0.06043
1880.52667,0.06043
1878.59793,0.06067
1876.66918,0.06094
1874.74044,0.06104
1872.81169,0.06096
1870.88295,0.06085
1868.95420,0.06080
1867.02546,0.06086
1865.09671,0.06104
1863.16797,0.06123
1861.23922,0.06134
1859.31048,0.06150
1857.38173,0.06174
1855.45299,0.06194
1853.52424,0.06202
1851.59549,0.06202
1849.66675,0.06196
1847.73800,0.06181
1845.80926,0.06167
1843.88051,0.06158
1841.95177,0.06139
1840.02302,0.06113
1838.09428,0.06092
1836.16553,0.06071
1834.23679,0.06048
1832.30804,0.06030
1830.37930,0.06028
1828.45055,0.06038
1826.52181,0.06035
1824.59306,0.06018
1822.66432,0.06003
1820.73557,0.05988
1818.80682,0.05977
1816.87808,0.05985
1814.94933,0.05994
1813.02059,0.05986
1811.09184,0.05976
1809.16310,0.05979
1807.23435,0.05987
1805.30561,0.05996
1803.37686,0.06004
1801.44812,0.05999
1799.51937,0.05985
1797.59063,0.05986
1795.66188,0.06013
1793.73314,0.06050
1791.80439,0.06071
1789.87565,0.06071
1787.94690,0.06064
1786.01815,0.06052
1784.08941,0.06037
1782.16066,0.06031
1780.23192,0.06026
1778.30317,0.06022
1776.37443,0.06028
1774.44568,0.06041
1772.51694,0.06039
1770.58819,0.06009
1768.65945,0.05973
1766.73070,0.05957
1764.80196,0.05960
1762.87321,0.05963
1760.94447,0.05957
1759.01572,0.05958
1757.08697,0.05962
1755.15823,0.05963
1753.22948,0.05980
1751.30074,0.06006
1749.37199,0.06008
1747.44325,0.05995
1745.51450,0.05999
1743.58576,0.06009
1741.65701,0.06001
1739.72827,0.05981
1737.79952,0.05974
1735.87078,0.05996
1733.94203,0.06019
1732.01329,0.06018
1730.08454,0.06020
1728.15580,0.06037
1726.22705,0.06065
1724.29830,0.06090
1722.36956,0.06097
1720.44081,0.06108
1718.51207,0.06143
1716.58332,0.06164
1714.65458,0.06147
1712.72583,0.06131
1710.79709,0.06128
1708.86834,0.06133
1706.93960,0.06147
1705.01085,0.06160
1703.08211,0.06165
1701.15336,0.06164
1699.22462,0.06154
1697.29587,0.06154
1695.36713,0.06137
1693.43838,0.06084
1691.50963,0.06054
1689.58089,0.06056
1687.65214,0.06061
1685.72340,0.06062
1683.79465,0.06047
1681.86591,0.06024
1679.93716,0.06019
1678.00842,0.06024
1676.07967,0.06019
1674.15093,0.06007
1672.22218,0.06026
1670.29344,0.06062
1668.36469,0.06069
1666.43595,0.06063
1664.50720,0.06073
1662.57845,0.06082
1660.64971,0.06070
1658.72096,0.06059
1656.79222,0.06078
1654.86347,0.06131
1652.93473,0.06159
1651.00598,0.06126
1649.07724,0.06095
1647.14849,0.06065
1645.21975,0.06020
1643.29100,0.05986
1641.36226,0.05983
1639.43351,0.06017
1637.50477,0.06077
1635.57602,0.06117
1633.64728,0.06103
1631.71853,0.06077
1629.78978,0.06061
1627.86104,0.06047
1625.93229,0.06038
1624.00355,0.06040
1622.07480,0.06038
1620.14606,0.06042
1618.21731,0.06057
1616.28857,0.06043
1614.35982,0.05992
1612.43108,0.05955
1610.50233,0.05943
1608.57359,0.05941
1606.64484,0.05939
1604.71610,0.05952
1602.78735,0.05982
1600.85861,0.06017
1598.92986,0.06041
1597.00111,0.06042
1595.07237,0.06023
1593.14362,0.06007
1591.21488,0.06014
1589.28613,0.06020
1587.35739,0.06000
1585.42864,0.05971
1583.49990,0.05962
1581.57115,0.05978
1579.64241,0.06006
1577.71366,0.06032
1575.78492,0.06041
1573.85617,0.06030
1571.92743,0.06017
1569.99868,0.05996
1568.06993,0.05974
1566.14119,0.05965
1564.21244,0.05953
1562.28370,0.05953
1560.35495,0.05984
1558.42621,0.05987
1556.49746,0.05955
1554.56872,0.05944
1552.63997,0.05936
1550.71123,0.05924
1548.78248,0.05918
1546.85374,0.05924
1544.92499,0.05942
1542.99625,0.05975
1541.06750,0.06012
1539.13876,0.05992
1537.21001,0.05933
1535.28126,0.05914
1533.35252,0.05918
1531.42377,0.05901
1529.49503,0.05886
1527.56628,0.05897
1525.63754,0.05915
1523.70879,0.05927
1521.78005,0.05915
1519.85130,0.05875
1517.92256,0.05846
1515.99381,0.05832
1514.06507,0.05828
1512.13632,0.05837
1510.20758,0.05851
1508.27883,0.05859
1506.35008,0.05813
1504.42134,0.05727
1502.49259,0.05674
1500.56385,0.05645
1498.63510,0.05617
1496.70636,0.05636
1494.77761,0.05754
1492.84887,0.05915
1490.92012,0.06031
1488.99138,0.06049
1487.06263,0.05993
1485.13389,0.05939
1483.20514,0.05910
1481.27640,0.05883
1479.34765,0.05862
1477.41891,0.05859
1475.49016,0.05853
1473.56141,0.05824
1471.63267,0.05783
1469.70392,0.05770
1467.77518,0.05778
1465.84643,0.05761
1463.91769,0.05697
1461.98894,0.05627
1460.06020,0.05587
1458.13145,0.05575
1456.20271,0.05616
1454.27396,0.05746
1452.34522,0.05920
1450.41647,0.06068
1448.48773,0.06156
1446.55898,0.06187
1444.63024,0.06176
1442.70149,0.06148
1440.77274,0.06140
1438.84400,0.06161
1436.91525,0.06178
1434.98651,0.06167
1433.05776,0.06162
1431.12902,0.06168
1429.20027,0.06154
1427.27153,0.06122
1425.34278,0.06097
1423.41404,0.06095
1421.48529,0.06112
1419.55655,0.06131
1417.62780,0.06132
1415.69906,0.06108
1413.77031,0.06081
1411.84156,0.06068
1409.91282,0.06061
1407.98407,0.06054
1406.05533,0.06045
1404.12658,0.06032
1402.19784,0.06036
1400.26909,0.06065
1398.34035,0.06083
1396.41160,0.06068
1394.48286,0.06038
1392.55411,0.06018
1390.62537,0.06019
1388.69662,0.06017
1386.76788,0.05992
1384.83913,0.05965
1382.91039,0.05959
1380.98164,0.05967
1379.05289,0.05981
1377.12415,0.05999
1375.19540,0.06016
1373.26666,0.06011
1371.33791,0.06001
1369.40917,0.06003
1367.48042,0.06007
1365.55168,0.06016
1363.62293,0.06031
1361.69419,0.06037
1359.76544,0.06028
1357.83670,0.06019
1355.90795,0.06016
1353.97921,0.06009
1352.05046,0.05997
1350.12172,0.05991
1348.19297,0.05994
1346.26422,0.06006
1344.33548,0.06023
1342.40673,0.06038
1340.47799,0.06046
1338.54924,0.06040
1336.62050,0.06017
1334.69175,0.05998
1332.76301,0.06000
1330.83426,0.06005
1328.90552,0.05990
1326.97677,0.05972
1325.04803,0.05975
1323.11928,0.05996
1321.19054,0.06012
1319.26179,0.06014
1317.33304,0.06016
1315.40430,0.06019
1313.47555,0.06016
1311.54681,0.06018
1309.61806,0.06025
1307.68932,0.06016
1305.76057,0.06007
1303.83183,0.06021
1301.90308,0.06040
1299.97434,0.06050
1298.04559,0.06049
1296.11685,0.06034
1294.18810,0.06020
1292.25936,0.06023
1290.33061,0.06041
1288.40187,0.06049
1286.47312,0.06034
1284.54437,0.06020
1282.61563,0.06027
1280.68688,0.06041
1278.75814,0.06048
1276.82939,0.06051
1274.90065,0.06053
1272.97190,0.06052
1271.04316,0.06056
1269.11441,0.06072
1267.18567,0.06083
1265.25692,0.06075
1263.32818,0.06064
1261.39943,0.06068
1259.47069,0.06062
1257.54194,0.06034
1255.61320,0.06021
1253.68445,0.06030
1251.75570,0.06027
1249.82696,0.06015
1247.89821,0.06014
1245.96947,0.06025
1244.04072,0.06045
1242.11198,0.06056
1240.18323,0.06029
1238.25449,0.05987
1236.32574,0.05978
1234.39700,0.05994
1232.46825,0.05997
1230.53951,0.06004
1228.61076,0.06026
1226.68202,0.06033
1224.75327,0.06023
1222.82452,0.06015
1220.89578,0.06009
1218.96703,0.06006
1217.03829,0.06005
1215.10954,0.06017
1213.18080,0.06029
1211.25205,0.06005
1209.32331,0.05965
1207.39456,0.05957
1205.46582,0.05969
1203.53707,0.05986
1201.60833,0.06012
1199.67958,0.06027
1197.75084,0.06014
1195.82209,0.05984
1193.89335,0.05962
1191.96460,0.05967
1190.03585,0.05984
1188.10711,0.05996
1186.17836,0.06006
1184.24962,0.06015
1182.32087,0.06016
1180.39213,0.06013
1178.46338,0.06020
1176.53464,0.06040
1174.60589,0.06074
1172.67715,0.06108
1170.74840,0.06112
1168.81966,0.06084
1166.89091,0.06054
1164.96217,0.06043
1163.03342,0.06036
1161.10467,0.06017
1159.17593,0.06006
1157.24718,0.06023
1155.31844,0.06057
1153.38969,0.06073
1151.46095,0.06070
1149.53220,0.06074
1147.60346,0.06080
1145.67471,0.06069
1143.74597,0.06045
1141.81722,0.06026
1139.88848,0.06021
1137.95973,0.06011
1136.03099,0.05990
1134.10224,0.05992
1132.17350,0.06021
1130.24475,0.06030
1128.31600,0.06006
1126.38726,0.05990
1124.45851,0.05983
1122.52977,0.05971
1120.60102,0.05965
1118.67228,0.05963
1116.74353,0.05956
1114.81479,0.05950
1112.88604,0.05964
1110.95730,0.05999
1109.02855,0.06018
1107.09981,0.06006
1105.17106,0.05990
1103.24232,0.05973
1101.31357,0.05949
1099.38483,0.05950
1097.45608,0.05972
1095.52733,0.05979
1093.59859,0.05978
1091.66984,0.05986
1089.74110,0.05985
1087.81235,0.05958
1085.88361,0.05921
1083.95486,0.05907
1082.02612,0.05920
1080.09737,0.05941
1078.16863,0.05941
1076.23988,0.05930
1074.31114,0.05929
1072.38239,0.05926
1070.45365,0.05916
1068.52490,0.05930
1066.59615,0.05966
1064.66741,0.05991
1062.73866,0.06007
1060.80992,0.06018
1058.88117,0.06009
1056.95243,0.05984
1055.02368,0.05972
1053.09494,0.05992
1051.16619,0.06013
1049.23745,0.06008
1047.30870,0.05997
1045.37996,0.05988
1043.45121,0.05980
1041.52247,0.05984
1039.59372,0.05985
1037.66498,0.05965
1035.73623,0.05939
1033.80748,0.05917
1031.87874,0.05909
1029.94999,0.05930
1028.02125,0.05993
1026.09250,0.06062
1024.16376,0.06089
1022.23501,0.06094
1020.30627,0.06104
1018.37752,0.06115
1016.44878,0.06114
1014.52003,0.06091
1012.59129,0.06043
1010.66254,0.05981
1008.73380,0.05941
1006.80505,0.05936
1004.87631,0.05936
1002.94756,0.05929
1001.01881,0.05926
999.09007,0.05927
997.16132,0.05927
995.23258,0.05912
993.30383,0.05891
991.37509,0.05897
989.44634,0.05907
987.51760,0.05894
985.58885,0.05888
983.66011,0.05891
981.73136,0.05884
979.80262,0.05861
977.87387,0.05805
975.94513,0.05735
974.01638,0.05687
972.08763,0.05666
970.15889,0.05664
968.23014,0.05686
966.30140,0.05761
964.37265,0.05891
962.44391,0.06031
960.51516,0.06134
958.58642,0.06175
956.65767,0.06164
954.72893,0.06153
952.80018,0.06165
950.87144,0.06171
948.94269,0.06149
947.01395,0.06109
945.08520,0.06080
943.15646,0.06077
941.22771,0.06075
939.29896,0.06051
937.37022,0.06018
935.44147,0.06014
933.51273,0.06040
931.58398,0.06045
929.65524,0.06010
927.72649,0.05977
925.79775,0.05954
923.86900,0.05918
921.94026,0.05851
920.01151,0.05780
918.08277,0.05761
916.15402,0.05785
914.22528,0.05819
912.29653,0.05875
910.36779,0.05938
908.43904,0.05985
906.51029,0.06022
904.58155,0.06040
902.65280,0.06030
900.72406,0.06015
898.79531,0.06018
896.86657,0.06028
894.93782,0.06014
893.00908,0.05971
891.08033,0.05938
889.15159,0.05925
887.22284,0.05914
885.29410,0.05911
883.36535,0.05922
881.43661,0.05924
879.50786,0.05921
877.57911,0.05921
875.65037,0.05914
873.72162,0.05915
871.79288,0.05916
869.86413,0.05900
867.93539,0.05892
866.00664,0.05896
864.07790,0.05885
862.14915,0.05866
860.22041,0.05843
858.29166,0.05800
856.36292,0.05763
854.43417,0.05757
852.50543,0.05762
850.57668,0.05772
848.64794,0.05794
846.71919,0.05803
844.79044,0.05793
842.86170,0.05790
840.93295,0.05804
839.00421,0.05814
837.07546,0.05806
835.14672,0.05786
833.21797,0.05766
831.28923,0.05745
829.36048,0.05730
827.43174,0.05729
825.50299,0.05727
823.57425,0.05734
821.64550,0.05750
819.71676,0.05717
817.78801,0.05640
815.85926,0.05588
813.93052,0.05573
812.00177,0.05582
810.07303,0.05599
808.14428,0.05601
806.21554,0.05587
804.28679,0.05565
802.35805,0.05529
800.42930,0.05494
798.50056,0.05492
796.57181,0.05493
794.64307,0.05455
792.71432,0.05401
790.78558,0.05370
788.85683,0.05348
786.92809,0.05322
784.99934,0.05298
783.07059,0.05263
781.14185,0.05208
779.21310,0.05157
777.28436,0.05118
775.35561,0.05072
773.42687,0.05029
771.49812,0.05019
769.56938,0.05057
767.64063,0.05143
765.71189,0.05258
763.78314,0.05393
761.85440,0.05558
759.92565,0.05726
757.99691,0.05868
756.06816,0.05971
754.13942,0.06025
752.21067,0.06022
750.28192,0.05945
748.35318,0.05852
746.42443,0.05839
744.49569,0.05889
742.56694,0.05904
740.63820,0.05853
738.70945,0.05779
736.78071,0.05714
734.85196,0.05622
732.92322,0.05502
730.99447,0.05436
729.06573,0.05465
727.13698,0.05522
725.20824,0.05486
723.27949,0.05349
721.35074,0.05221
719.42200,0.05119
717.49325,0.05000
715.56451,0.04851
713.63576,0.04656
711.70702,0.04470
709.77827,0.04411
707.84953,0.04575
705.92078,0.05027
703.99204,0.05777
702.06329,0.06711
700.13455,0.07590
698.20580,0.08144
696.27706,0.08208
694.34831,0.07888
692.41957,0.07484
690.49082,0.07200
688.56207,0.07040
686.63333,0.06926
684.70458,0.06798
682.77584,0.06682
680.84709,0.06607
678.91835,0.06533
676.98960,0.06444
675.06086,0.06368
673.13211,0.06293
671.20337,0.06219
669.27462,0.06183
667.34588,0.06178
665.41713,0.06163
663.48839,0.06142
661.55964,0.06155
659.63090,0.06185
657.70215,0.06160
655.77340,0.06097
653.84466,0.06086
651.91591,0.06155
649.98717,0.06232
648.05842,0.06247
646.12968,0.06216
644.20093,0.06161
642.27219,0.06087
640.34344,0.06048
638.41470,0.06082
636.48595,0.06160
634.55721,0.06190
632.62846,0.06141
630.69972,0.06051
628.77097,0.05956
626.84222,0.05927
624.91348,0.05995
622.98473,0.06078
621.05599,0.06098
619.12724,0.06046
617.19850,0.05986
615.26975,0.05986
613.34101,0.06015
611.41226,0.05984
609.48352,0.05933
607.55477,0.05942
605.62603,0.05970
603.69728,0.05971
601.76854,0.05966
599.83979,0.05984
