7497.03301,0.70567
7495.10426,0.71032
7493.17552,0.71576
7491.24677,0.71885
7489.31803,0.71630
7487.38928,0.71014
7485.46054,0.70673
7483.53179,0.70529
7481.60305,0.70185
7479.67430,0.70072
7477.74556,0.70694
7475.81681,0.71329
7473.88807,0.71323
7471.95932,0.71363
7470.03057,0.71747
7468.10183,0.71772
7466.17308,0.71235
7464.24434,0.70765
7462.31559,0.70709
7460.38685,0.70642
7458.45810,0.70396
7456.52936,0.70417
7454.60061,0.70749
7452.67187,0.71091
7450.74312,0.71289
7448.81438,0.71068
7446.88563,0.70612
7444.95689,0.70499
7443.02814,0.70779
7441.09940,0.71197
7439.17065,0.71229
7437.24190,0.70557
7435.31316,0.69864
7433.38441,0.69885
7431.45567,0.70425
7429.52692,0.70758
7427.59818,0.70615
7425.66943,0.70208
7423.74069,0.69700
7421.81194,0.69545
7419.88320,0.69993
7417.95445,0.70384
7416.02571,0.70181
7414.09696,0.69670
7412.16822,0.69472
7410.23947,0.69761
7408.31073,0.69973
7406.38198,0.69864
7404.45323,0.69675
7402.52449,0.69366
7400.59574,0.69136
7398.66700,0.69371
7396.73825,0.69820
7394.80951,0.69930
7392.88076,0.69708
7390.95202,0.69568
7389.02327,0.69564
7387.09453,0.69505
7385.16578,0.69515
7383.23704,0.69670
7381.30829,0.69726
7379.37955,0.69865
7377.45080,0.70181
7375.52205,0.69924
7373.59331,0.69124
7371.66456,0.68705
7369.73582,0.68801
7367.80707,0.69069
7365.87833,0.69303
7363.94958,0.69417
7362.02084,0.69530
7360.09209,0.69693
7358.16335,0.69828
7356.23460,0.70013
7354.30586,0.70069
7352.37711,0.69713
7350.44837,0.69357
7348.51962,0.69455
7346.59088,0.69634
7344.66213,0.69336
7342.73338,0.68866
7340.80464,0.68859
7338.87589,0.68976
7336.94715,0.68600
7335.01840,0.68281
7333.08966,0.68549
7331.16091,0.68650
7329.23217,0.68055
7327.30342,0.67284
7325.37468,0.66962
7323.44593,0.67331
7321.51719,0.67954
7319.58844,0.68168
7317.65970,0.67945
7315.73095,0.67571
7313.80221,0.67196
7311.87346,0.66985
7309.94471,0.67104
7308.01597,0.67314
7306.08722,0.67454
7304.15848,0.67648
7302.22973,0.67625
7300.30099,0.67193
7298.37224,0.66798
7296.44350,0.66762
7294.51475,0.66756
7292.58601,0.66563
7290.65726,0.66413
7288.72852,0.66424
7286.79977,0.66568
7284.87103,0.66768
7282.94228,0.66998
7281.01353,0.67231
7279.08479,0.67041
7277.15604,0.66133
7275.22730,0.65161
7273.29855,0.64921
7271.36981,0.65219
7269.44106,0.65406
7267.51232,0.65279
7265.58357,0.65061
7263.65483,0.65024
7261.72608,0.65199
7259.79734,0.65382
7257.86859,0.65397
7255.93985,0.65454
7254.01110,0.65757
7252.08236,0.65821
7250.15361,0.65281
7248.22486,0.64791
7246.29612,0.64978
7244.36737,0.65380
7242.43863,0.65224
7240.50988,0.64584
7238.58114,0.64093
7236.65239,0.64091
7234.72365,0.64179
7232.79490,0.63956
7230.86616,0.63916
7228.93741,0.64111
7227.00867,0.63737
7225.07992,0.63030
7223.15118,0.62968
7221.22243,0.63565
7219.29369,0.64105
7217.36494,0.64201
7215.43619,0.64091
7213.50745,0.64104
7211.57870,0.64151
7209.64996,0.63994
7207.72121,0.63781
7205.79247,0.63740
7203.86372,0.63533
7201.93498,0.62999
7200.00623,0.62835
7198.07749,0.63191
7196.14874,0.63273
7194.22000,0.62956
7192.29125,0.62684
7190.36251,0.62491
7188.43376,0.62432
7186.50501,0.62523
7184.57627,0.62623
7182.64752,0.62674
7180.71878,0.62558
7178.79003,0.62341
7176.86129,0.62234
7174.93254,0.62249
7173.00380,0.62320
7171.07505,0.62442
7169.14631,0.62532
7167.21756,0.62431
7165.28882,0.62221
7163.36007,0.62166
7161.43133,0.62302
7159.50258,0.62314
7157.57384,0.62106
7155.64509,0.62101
7153.71634,0.62386
7151.78760,0.62555
7149.85885,0.62515
7147.93011,0.62342
7146.00136,0.61918
7144.07262,0.61537
7142.14387,0.61613
7140.21513,0.61926
7138.28638,0.62189
7136.35764,0.62198
7134.42889,0.61882
7132.50015,0.61581
7130.57140,0.61342
7128.64266,0.60970
7126.71391,0.60597
7124.78516,0.60452
7122.85642,0.60534
7120.92767,0.60586
7118.99893,0.60550
7117.07018,0.60688
7115.14144,0.60975
7113.21269,0.60938
7111.28395,0.60324
7109.35520,0.59754
7107.42646,0.59875
7105.49771,0.60327
7103.56897,0.60567
7101.64022,0.60557
7099.71148,0.60340
7097.78273,0.60179
7095.85399,0.60241
7093.92524,0.60130
7091.99649,0.59854
7090.06775,0.59848
7088.13900,0.59992
7086.21026,0.60077
7084.28151,0.60242
7082.35277,0.60363
7080.42402,0.60092
7078.49528,0.59583
7076.56653,0.59368
7074.63779,0.59469
7072.70904,0.59432
7070.78030,0.59198
7068.85155,0.59163
7066.92281,0.59403
7064.99406,0.59549
7063.06532,0.59486
7061.13657,0.59604
7059.20782,0.60049
7057.27908,0.60299
7055.35033,0.60201
7053.42159,0.60206
7051.49284,0.60250
7049.56410,0.60023
7047.63535,0.59807
7045.70661,0.59868
7043.77786,0.59974
7041.84912,0.60010
7039.92037,0.60020
7037.99163,0.59952
7036.06288,0.59897
7034.13414,0.59888
7032.20539,0.59884
7030.27664,0.60050
7028.34790,0.60426
7026.41915,0.60607
7024.49041,0.60302
7022.56166,0.59911
7020.63292,0.59878
7018.70417,0.60179
7016.77543,0.60653
7014.84668,0.61098
7012.91794,0.61278
7010.98919,0.61182
7009.06045,0.60957
7007.13170,0.60762
7005.20296,0.60852
7003.27421,0.61116
7001.34547,0.61061
6999.41672,0.60776
6997.48797,0.60784
6995.55923,0.61164
6993.63048,0.61563
6991.70174,0.61744
6989.77299,0.61717
6987.84425,0.61537
6985.91550,0.61356
6983.98676,0.61255
6982.05801,0.61064
6980.12927,0.60858
6978.20052,0.60974
6976.27178,0.61351
6974.34303,0.61647
6972.41429,0.61778
6970.48554,0.61828
6968.55680,0.61704
6966.62805,0.61300
6964.69930,0.61017
6962.77056,0.61299
6960.84181,0.61715
6958.91307,0.61648
6956.98432,0.61392
6955.05558,0.61366
6953.12683,0.61428
6951.19809,0.61548
6949.26934,0.61778
6947.34060,0.61908
6945.41185,0.61759
6943.48311,0.61509
6941.55436,0.61491
6939.62562,0.61667
6937.69687,0.61883
6935.76812,0.62125
6933.83938,0.62193
6931.91063,0.62122
6929.98189,0.62214
6928.05314,0.62356
6926.12440,0.62381
6924.19565,0.62394
6922.26691,0.62340
6920.33816,0.62248
6918.40942,0.62317
6916.48067,0.62525
6914.55193,0.62751
6912.62318,0.62813
6910.69444,0.62627
6908.76569,0.62470
6906.83695,0.62573
6904.90820,0.62857
6902.97945,0.63226
6901.05071,0.63484
6899.12196,0.63328
6897.19322,0.62991
6895.26447,0.62922
6893.33573,0.63084
6891.40698,0.63150
6889.47824,0.62984
6887.54949,0.62916
6885.62075,0.63070
6883.69200,0.63135
6881.76326,0.63215
6879.83451,0.63564
6877.90577,0.63917
6875.97702,0.63991
6874.04828,0.63903
6872.11953,0.63757
6870.19078,0.63492
6868.26204,0.63205
6866.33329,0.63131
6864.40455,0.63188
6862.47580,0.63138
6860.54706,0.63083
6858.61831,0.63108
6856.68957,0.63179
6854.76082,0.63295
6852.83208,0.63400
6850.90333,0.63690
6848.97459,0.64271
6847.04584,0.64656
6845.11710,0.64455
6843.18835,0.64066
6841.25960,0.63998
6839.33086,0.64081
6837.40211,0.64040
6835.47337,0.63885
6833.54462,0.63537
6831.61588,0.63163
6829.68713,0.63163
6827.75839,0.63482
6825.82964,0.63851
6823.90090,0.64165
6821.97215,0.64323
6820.04341,0.64276
6818.11466,0.64048
6816.18592,0.63804
6814.25717,0.63733
6812.32843,0.63837
6810.39968,0.64032
6808.47093,0.64115
6806.54219,0.64057
6804.61344,0.64044
6802.68470,0.64026
6800.75595,0.63973
6798.82721,0.63963
6796.89846,0.64096
6794.96972,0.64480
6793.04097,0.64832
6791.11223,0.64883
6789.18348,0.64779
6787.25474,0.64587
6785.32599,0.64435
6783.39725,0.64447
6781.46850,0.64397
6779.53975,0.64348
6777.61101,0.64519
6775.68226,0.64718
6773.75352,0.64825
6771.82477,0.64731
6769.89603,0.64380
6767.96728,0.64203
6766.03854,0.64362
6764.10979,0.64408
6762.18105,0.64236
6760.25230,0.64194
6758.32356,0.64338
6756.39481,0.64484
6754.46607,0.64594
6752.53732,0.64743
6750.60858,0.64907
6748.67983,0.64934
6746.75108,0.64779
6744.82234,0.64595
6742.89359,0.64564
6740.96485,0.64631
6739.03610,0.64527
6737.10736,0.64323
6735.17861,0.64390
6733.24987,0.64686
6731.32112,0.64910
6729.39238,0.64989
6727.46363,0.64965
6725.53489,0.64912
6723.60614,0.64851
6721.67740,0.64757
6719.74865,0.64731
6717.81991,0.64791
6715.89116,0.64826
6713.96241,0.64886
6712.03367,0.65019
6710.10492,0.65072
6708.17618,0.64972
6706.24743,0.64873
6704.31869,0.64892
6702.38994,0.64877
6700.46120,0.64769
6698.53245,0.64930
6696.60371,0.65389
6694.67496,0.65592
6692.74622,0.65431
6690.81747,0.65339
6688.88873,0.65276
6686.95998,0.64997
6685.03123,0.64899
6683.10249,0.65171
6681.17374,0.65363
6679.24500,0.65284
6677.31625,0.65035
6675.38751,0.64875
6673.45876,0.65060
6671.53002,0.65433
6669.60127,0.65724
6667.67253,0.65884
6665.74378,0.65851
6663.81504,0.65554
6661.88629,0.65206
6659.95755,0.65093
6658.02880,0.65254
6656.10006,0.65523
6654.17131,0.65739
6652.24256,0.65948
6650.31382,0.66059
6648.38507,0.65870
6646.45633,0.65529
6644.52758,0.65351
6642.59884,0.65377
6640.67009,0.65323
6638.74135,0.65139
6636.81260,0.65228
6634.88386,0.65658
6632.95511,0.65996
6631.02637,0.66089
6629.09762,0.66045
6627.16888,0.65831
6625.24013,0.65619
6623.31139,0.65670
6621.38264,0.65796
6619.45389,0.65724
6617.52515,0.65463
6615.59640,0.65159
6613.66766,0.65065
6611.73891,0.65337
6609.81017,0.65701
6607.88142,0.65842
6605.95268,0.65841
6604.02393,0.65903
6602.09519,0.65920
6600.16644,0.65720
6598.23770,0.65608
6596.30895,0.65823
6594.38021,0.66083
6592.45146,0.66174
6590.52271,0.66124
6588.59397,0.66012
6586.66522,0.65933
6584.73648,0.65834
6582.80773,0.65651
6580.87899,0.65621
6578.95024,0.65819
6577.02150,0.65919
6575.09275,0.65868
6573.16401,0.65868
6571.23526,0.65881
6569.30652,0.65838
6567.37777,0.65805
6565.44903,0.65815
6563.52028,0.65860
6561.59154,0.65870
6559.66279,0.65724
6557.73404,0.65505
6555.80530,0.65408
6553.87655,0.65554
6551.94781,0.66001
6550.01906,0.66447
6548.09032,0.66559
6546.16157,0.66449
6544.23283,0.66219
6542.30408,0.65942
6540.37534,0.65842
6538.44659,0.65946
6536.51785,0.66028
6534.58910,0.65899
6532.66036,0.65715
6530.73161,0.65638
6528.80287,0.65609
6526.87412,0.65695
6524.94537,0.65783
6523.01663,0.65535
6521.08788,0.65248
6519.15914,0.65451
6517.23039,0.65771
6515.30165,0.65834
6513.37290,0.65983
6511.44416,0.66045
6509.51541,0.65754
6507.58667,0.65643
6505.65792,0.65871
6503.72918,0.65991
6501.80043,0.66031
6499.87169,0.66211
6497.94294,0.66343
6496.01419,0.66323
6494.08545,0.66192
6492.15670,0.65986
6490.22796,0.65973
6488.29921,0.66099
6486.37047,0.65961
6484.44172,0.65638
6482.51298,0.65581
6480.58423,0.65834
6478.65549,0.65996
6476.72674,0.65985
6474.79800,0.66060
6472.86925,0.66197
6470.94051,0.66184
6469.01176,0.66055
6467.08302,0.65959
6465.15427,0.65768
6463.22552,0.65367
6461.29678,0.65098
6459.36803,0.65285
6457.43929,0.65696
6455.51054,0.65896
6453.58180,0.65875
6451.65305,0.65878
6449.72431,0.65916
6447.79556,0.65918
6445.86682,0.65908
6443.93807,0.65875
6442.00933,0.65850
6440.08058,0.65898
6438.15184,0.65937
6436.22309,0.65827
6434.29434,0.65621
6432.36560,0.65537
6430.43685,0.65676
6428.50811,0.65907
6426.57936,0.66000
6424.65062,0.65977
6422.72187,0.65979
6420.79313,0.65869
6418.86438,0.65698
6416.93564,0.65758
6415.00689,0.65959
6413.07815,0.65990
6411.14940,0.65857
6409.22066,0.65810
6407.29191,0.65841
6405.36317,0.65722
6403.43442,0.65540
6401.50567,0.65537
6399.57693,0.65617
6397.64818,0.65597
6395.71944,0.65517
6393.79069,0.65409
6391.86195,0.65335
6389.93320,0.65416
6388.00446,0.65552
6386.07571,0.65601
6384.14697,0.65556
6382.21822,0.65472
6380.28948,0.65446
6378.36073,0.65453
6376.43199,0.65352
6374.50324,0.65057
6372.57450,0.64689
6370.64575,0.64635
6368.71700,0.64979
6366.78826,0.65202
6364.85951,0.65107
6362.93077,0.65022
6361.00202,0.64986
6359.07328,0.64902
6357.14453,0.64951
6355.21579,0.65112
6353.28704,0.65035
6351.35830,0.64685
6349.42955,0.64496
6347.50081,0.64731
6345.57206,0.65037
6343.64332,0.64990
6341.71457,0.64697
6339.78582,0.64431
6337.85708,0.64328
6335.92833,0.64440
6333.99959,0.64676
6332.07084,0.64847
6330.14210,0.64821
6328.21335,0.64688
6326.28461,0.64629
6324.35586,0.64597
6322.42712,0.64523
6320.49837,0.64497
6318.56963,0.64555
6316.64088,0.64687
6314.71214,0.64866
6312.78339,0.64988
6310.85465,0.64979
6308.92590,0.64871
6306.99715,0.64705
6305.06841,0.64460
6303.13966,0.64239
6301.21092,0.64214
6299.28217,0.64262
6297.35343,0.64188
6295.42468,0.64043
6293.49594,0.64003
6291.56719,0.64087
6289.63845,0.64077
6287.70970,0.63981
6285.78096,0.64056
6283.85221,0.64222
6281.92347,0.64193
6279.99472,0.64137
6278.06598,0.64363
6276.13723,0.64625
6274.20848,0.64563
6272.27974,0.64260
6270.35099,0.63943
6268.42225,0.63732
6266.49350,0.63640
6264.56476,0.63516
6262.63601,0.63344
6260.70727,0.63314
6258.77852,0.63372
6256.84978,0.63283
6254.92103,0.63071
6252.99229,0.62922
6251.06354,0.62866
6249.13480,0.62797
6247.20605,0.62763
6245.27730,0.62873
6243.34856,0.62982
6241.41981,0.62876
6239.49107,0.62603
6237.56232,0.62397
6235.63358,0.62385
6233.70483,0.62489
6231.77609,0.62604
6229.84734,0.62651
6227.91860,0.62534
6225.98985,0.62291
6224.06111,0.62095
6222.13236,0.62019
6220.20362,0.61978
6218.27487,0.61792
6216.34613,0.61460
6214.41738,0.61315
6212.48863,0.61455
6210.55989,0.61575
6208.63114,0.61494
6206.70240,0.61270
6204.77365,0.61056
6202.84491,0.60996
6200.91616,0.61053
6198.98742,0.60989
6197.05867,0.60648
6195.12993,0.60215
6193.20118,0.59937
6191.27244,0.59851
6189.34369,0.59881
6187.41495,0.59835
6185.48620,0.59615
6183.55746,0.59353
6181.62871,0.59182
6179.69996,0.59045
6177.77122,0.58776
6175.84247,0.58333
6173.91373,0.57838
6171.98498,0.57408
6170.05624,0.57037
6168.12749,0.56699
6166.19875,0.56398
6164.27000,0.56137
6162.34126,0.55891
6160.41251,0.55491
6158.48377,0.54905
6156.55502,0.54360
6154.62628,0.53917
6152.69753,0.53385
6150.76878,0.52747
6148.84004,0.52302
6146.91129,0.52067
6144.98255,0.51699
6143.05380,0.51174
6141.12506,0.50724
6139.19631,0.50374
6137.26757,0.50007
6135.33882,0.49547
6133.41008,0.48976
6131.48133,0.48493
6129.55259,0.48233
6127.62384,0.47909
6125.69510,0.47383
6123.76635,0.46819
6121.83761,0.46286
6119.90886,0.45808
6117.98011,0.45386
6116.05137,0.45074
6114.12262,0.44936
6112.19388,0.44799
6110.26513,0.44546
6108.33639,0.44381
6106.40764,0.44403
6104.47890,0.44454
6102.55015,0.44588
6100.62141,0.44951
6098.69266,0.45379
6096.76392,0.45652
6094.83517,0.45843
6092.90643,0.46119
6090.97768,0.46458
6089.04893,0.46739
6087.12019,0.46876
6085.19144,0.46846
6083.26270,0.46823
6081.33395,0.46911
6079.40521,0.46906
6077.47646,0.46780
6075.54772,0.46762
6073.61897,0.46845
6071.69023,0.46908
6069.76148,0.47029
6067.83274,0.47306
6065.90399,0.47651
6063.97525,0.47873
6062.04650,0.47899
6060.11776,0.47821
6058.18901,0.47745
6056.26026,0.47648
6054.33152,0.47449
6052.40277,0.47159
6050.47403,0.46832
6048.54528,0.46484
6046.61654,0.46126
6044.68779,0.45726
6042.75905,0.45187
6040.83030,0.44553
6038.90156,0.43976
6036.97281,0.43444
6035.04407,0.42880
6033.11532,0.42310
6031.18658,0.41675
6029.25783,0.40868
6027.32909,0.39966
6025.40034,0.39174
6023.47159,0.38532
6021.54285,0.37920
6019.61410,0.37339
6017.68536,0.36841
6015.75661,0.36358
6013.82787,0.35751
6011.89912,0.34986
6009.97038,0.34231
6008.04163,0.33645
6006.11289,0.33232
6004.18414,0.32923
6002.25540,0.32582
6000.32665,0.32111
5998.39791,0.31639
5996.46916,0.31280
5994.54041,0.30921
5992.61167,0.30531
5990.68292,0.30182
5988.75418,0.29817
5986.82543,0.29414
5984.89669,0.28997
5982.96794,0.28555
5981.03920,0.28067
5979.11045,0.27566
5977.18171,0.27226
5975.25296,0.27105
5973.32422,0.27014
5971.39547,0.26804
5969.46673,0.26624
5967.53798,0.26636
5965.60924,0.26661
5963.68049,0.26616
5961.75174,0.26622
5959.82300,0.26559
5957.89425,0.26351
5955.96551,0.26317
5954.03676,0.26608
5952.10802,0.26889
5950.17927,0.26935
5948.25053,0.26884
5946.32178,0.26869
5944.39304,0.26956
5942.46429,0.27220
5940.53555,0.27566
5938.60680,0.27776
5936.67806,0.27906
5934.74931,0.28174
5932.82057,0.28412
5930.89182,0.28327
5928.96307,0.28105
5927.03433,0.28087
5925.10558,0.28235
5923.17684,0.28333
5921.24809,0.28322
5919.31935,0.28277
5917.39060,0.28276
5915.46186,0.28336
5913.53311,0.28389
5911.60437,0.28393
5909.67562,0.28462
5907.74688,0.28587
5905.81813,0.28589
5903.88939,0.28510
5901.96064,0.28526
5900.03189,0.28621
5898.10315,0.28673
5896.17440,0.28711
5894.24566,0.28764
5892.31691,0.28766
5890.38817,0.28824
5888.45942,0.29013
5886.53068,0.29226
5884.60193,0.29387
5882.67319,0.29511
5880.74444,0.29676
5878.81570,0.29843
5876.88695,0.29855
5874.95821,0.29741
5873.02946,0.29661
5871.10072,0.29689
5869.17197,0.29774
5867.24322,0.29828
5865.31448,0.29793
5863.38573,0.29657
5861.45699,0.29528
5859.52824,0.29529
5857.59950,0.29570
5855.67075,0.29557
5853.74201,0.29603
5851.81326,0.29775
5849.88452,0.29979
5847.95577,0.30091
5846.02703,0.30056
5844.09828,0.29923
5842.16954,0.29803
5840.24079,0.29794
5838.31205,0.29832
5836.38330,0.29811
5834.45455,0.29779
5832.52581,0.29756
5830.59706,0.29644
5828.66832,0.29487
5826.73957,0.29446
5824.81083,0.29525
5822.88208,0.29626
5820.95334,0.29678
5819.02459,0.29644
5817.09585,0.29558
5815.16710,0.29508
5813.23836,0.29571
5811.30961,0.29703
5809.38087,0.29758
5807.45212,0.29672
5805.52337,0.29516
5803.59463,0.29439
5801.66588,0.29507
5799.73714,0.29647
5797.80839,0.29769
5795.87965,0.29827
5793.95090,0.29824
5792.02216,0.29853
5790.09341,0.29981
5788.16467,0.30124
5786.23592,0.30278
5784.30718,0.30514
5782.37843,0.30738
5780.44969,0.30923
5778.52094,0.31148
5776.59220,0.31379
5774.66345,0.31547
5772.73470,0.31692
5770.80596,0.31917
5768.87721,0.32260
5766.94847,0.32653
5765.01972,0.32999
5763.09098,0.33301
5761.16223,0.33578
5759.23349,0.33752
5757.30474,0.33829
5755.37600,0.33922
5753.44725,0.34119
5751.51851,0.34373
5749.58976,0.34489
5747.66102,0.34430
5745.73227,0.34332
5743.80352,0.34243
5741.87478,0.34167
5739.94603,0.34108
5738.01729,0.34045
5736.08854,0.33932
5734.15980,0.33727
5732.23105,0.33497
5730.30231,0.33290
5728.37356,0.32990
5726.44482,0.32584
5724.51607,0.32290
5722.58733,0.32165
5720.65858,0.32017
5718.72984,0.31793
5716.80109,0.31555
5714.87235,0.31270
5712.94360,0.31005
5711.01485,0.30848
5709.08611,0.30697
5707.15736,0.30552
5705.22862,0.30505
5703.29987,0.30514
5701.37113,0.30515
5699.44238,0.30461
5697.51364,0.30363
5695.58489,0.30361
5693.65615,0.30477
5691.72740,0.30576
5689.79866,0.30562
5687.86991,0.30472
5685.94117,0.30420
5684.01242,0.30459
5682.08368,0.30550
5680.15493,0.30603
5678.22618,0.30521
5676.29744,0.30386
5674.36869,0.30432
5672.43995,0.30623
5670.51120,0.30754
5668.58246,0.30893
5666.65371,0.31099
5664.72497,0.31247
5662.79622,0.31314
5660.86748,0.31332
5658.93873,0.31349
5657.00999,0.31457
5655.08124,0.31659
5653.15250,0.31868
5651.22375,0.32020
5649.29500,0.32102
5647.36626,0.32145
5645.43751,0.32230
5643.50877,0.32399
5641.58002,0.32626
5639.65128,0.32862
5637.72253,0.33036
5635.79379,0.33217
5633.86504,0.33500
5631.93630,0.33766
5630.00755,0.33930
5628.07881,0.34041
5626.15006,0.34146
5624.22132,0.34290
5622.29257,0.34408
5620.36383,0.34415
5618.43508,0.34407
5616.50633,0.34444
5614.57759,0.34473
5612.64884,0.34504
5610.72010,0.34557
5608.79135,0.34596
5606.86261,0.34607
5604.93386,0.34634
5603.00512,0.34679
5601.07637,0.34672
5599.14763,0.34620
5597.21888,0.34638
5595.29014,0.34767
5593.36139,0.34909
5591.43265,0.34979
5589.50390,0.35012
5587.57516,0.35100
5585.64641,0.35282
5583.71766,0.35451
5581.78892,0.35523
5579.86017,0.35610
5577.93143,0.35772
5576.00268,0.35931
5574.07394,0.36048
5572.14519,0.36136
5570.21645,0.36234
5568.28770,0.36316
5566.35896,0.36325
5564.43021,0.36332
5562.50147,0.36403
5560.57272,0.36487
5558.64398,0.36527
5556.71523,0.36522
5554.78648,0.36528
5552.85774,0.36565
5550.92899,0.36585
5549.00025,0.36572
5547.07150,0.36565
5545.14276,0.36608
5543.21401,0.36692
5541.28527,0.36750
5539.35652,0.36771
5537.42778,0.36792
5535.49903,0.36808
5533.57029,0.36856
5531.64154,0.36918
5529.71280,0.36941
5527.78405,0.36957
5525.85531,0.36946
5523.92656,0.36917
5521.99781,0.36966
5520.06907,0.37081
5518.14032,0.37158
5516.21158,0.37157
5514.28283,0.37142
5512.35409,0.37182
5510.42534,0.37188
5508.49660,0.37073
5506.56785,0.36972
5504.63911,0.37024
5502.71036,0.37148
5500.78162,0.37234
5498.85287,0.37261
5496.92413,0.37268
5494.99538,0.37318
5493.06664,0.37398
5491.13789,0.37455
5489.20914,0.37507
5487.28040,0.37601
5485.35165,0.37691
5483.42291,0.37699
5481.49416,0.37665
5479.56542,0.37617
5477.63667,0.37565
5475.70793,0.37609
5473.77918,0.37726
5471.85044,0.37818
5469.92169,0.37869
5467.99295,0.37852
5466.06420,0.37809
5464.13546,0.37829
5462.20671,0.37900
5460.27796,0.37932
5458.34922,0.37881
5456.42047,0.37815
5454.49173,0.37787
5452.56298,0.37765
5450.63424,0.37765
5448.70549,0.37807
5446.77675,0.37825
5444.84800,0.37818
5442.91926,0.37833
5440.99051,0.37801
5439.06177,0.37703
5437.13302,0.37602
5435.20428,0.37500
5433.27553,0.37448
5431.34679,0.37520
5429.41804,0.37647
5427.48929,0.37716
5425.56055,0.37695
5423.63180,0.37628
5421.70306,0.37594
5419.77431,0.37638
5417.84557,0.37717
5415.91682,0.37761
5413.98808,0.37761
5412.05933,0.37744
5410.13059,0.37689
5408.20184,0.37598
5406.27310,0.37547
5404.34435,0.37553
5402.41561,0.37585
5400.48686,0.37594
5398.55811,0.37554
5396.62937,0.37532
5394.70062,0.37537
5392.77188,0.37487
5390.84313,0.37408
5388.91439,0.37354
5386.98564,0.37328
5385.05690,0.37356
5383.12815,0.37431
5381.19941,0.37478
5379.27066,0.37469
5377.34192,0.37471
5375.41317,0.37508
5373.48443,0.37513
5371.55568,0.37484
5369.62694,0.37493
5367.69819,0.37577
5365.76944,0.37710
5363.84070,0.37795
5361.91195,0.37770
5359.98321,0.37730
5358.05446,0.37790
5356.12572,0.37929
5354.19697,0.38088
5352.26823,0.38235
5350.33948,0.38300
5348.41074,0.38284
5346.48199,0.38318
5344.55325,0.38451
5342.62450,0.38564
5340.69576,0.38608
5338.76701,0.38650
5336.83827,0.38677
5334.90952,0.38640
5332.98077,0.38571
5331.05203,0.38531
5329.12328,0.38593
5327.19454,0.38761
5325.26579,0.38853
5323.33705,0.38786
5321.40830,0.38723
5319.47956,0.38737
5317.55081,0.38727
5315.62207,0.38695
5313.69332,0.38684
5311.76458,0.38666
5309.83583,0.38644
5307.90709,0.38622
5305.97834,0.38563
5304.04959,0.38486
5302.12085,0.38413
5300.19210,0.38344
5298.26336,0.38323
5296.33461,0.38319
5294.40587,0.38255
5292.47712,0.38140
5290.54838,0.37984
5288.61963,0.37802
5286.69089,0.37625
5284.76214,0.37439
5282.83340,0.37252
5280.90465,0.37076
5278.97591,0.36892
5277.04716,0.36683
5275.11842,0.36368
5273.18967,0.35958
5271.26092,0.35656
5269.33218,0.35518
5267.40343,0.35352
5265.47469,0.35076
5263.54594,0.34816
5261.61720,0.34640
5259.68845,0.34492
5257.75971,0.34367
5255.83096,0.34262
5253.90222,0.34161
5251.97347,0.34099
5250.04473,0.34094
5248.11598,0.34117
5246.18724,0.34131
5244.25849,0.34142
5242.32975,0.34154
5240.40100,0.34154
5238.47225,0.34218
5236.54351,0.34385
5234.61476,0.34578
5232.68602,0.34748
5230.75727,0.34929
5228.82853,0.35157
5226.89978,0.35388
5224.97104,0.35567
5223.04229,0.35762
5221.11355,0.36029
5219.18480,0.36262
5217.25606,0.36410
5215.32731,0.36559
5213.39857,0.36704
5211.46982,0.36796
5209.54107,0.36902
5207.61233,0.37064
5205.68358,0.37217
5203.75484,0.37313
5201.82609,0.37363
5199.89735,0.37392
5197.96860,0.37406
5196.03986,0.37372
5194.11111,0.37296
5192.18237,0.37258
5190.25362,0.37289
5188.32488,0.37345
5186.39613,0.37342
5184.46739,0.37238
5182.53864,0.37134
5180.60990,0.37092
5178.68115,0.37044
5176.75240,0.36972
5174.82366,0.36908
5172.89491,0.36833
5170.96617,0.36730
5169.03742,0.36619
5167.10868,0.36536
5165.17993,0.36515
5163.25119,0.36526
5161.32244,0.36468
5159.39370,0.36328
5157.46495,0.36194
5155.53621,0.36072
5153.60746,0.35937
5151.67872,0.35782
5149.74997,0.35611
5147.82123,0.35482
5145.89248,0.35422
5143.96373,0.35390
5142.03499,0.35388
5140.10624,0.35413
5138.17750,0.35461
5136.24875,0.35587
5134.32001,0.35803
5132.39126,0.36043
5130.46252,0.36254
5128.53377,0.36449
5126.60503,0.36637
5124.67628,0.36818
5122.74754,0.37006
5120.81879,0.37188
5118.89005,0.37376
5116.96130,0.37601
5115.03255,0.37784
5113.10381,0.37883
5111.17506,0.38000
5109.24632,0.38132
5107.31757,0.38192
5105.38883,0.38228
5103.46008,0.38283
5101.53134,0.38297
5099.60259,0.38296
5097.67385,0.38362
5095.74510,0.38455
5093.81636,0.38485
5091.88761,0.38489
5089.95887,0.38540
5088.03012,0.38598
5086.10138,0.38629
5084.17263,0.38659
5082.24388,0.38668
5080.31514,0.38633
5078.38639,0.38618
5076.45765,0.38650
5074.52890,0.38679
5072.60016,0.38694
5070.67141,0.38724
5068.74267,0.38788
5066.81392,0.38847
5064.88518,0.38847
5062.95643,0.38821
5061.02769,0.38826
5059.09894,0.38852
5057.17020,0.38833
5055.24145,0.38773
5053.31270,0.38764
5051.38396,0.38807
5049.45521,0.38860
5047.52647,0.38888
5045.59772,0.38838
5043.66898,0.38775
5041.74023,0.38805
5039.81149,0.38894
5037.88274,0.38913
5035.95400,0.38825
5034.02525,0.38757
5032.09651,0.38785
5030.16776,0.38827
5028.23902,0.38831
5026.31027,0.38853
5024.38153,0.38909
5022.45278,0.38932
5020.52403,0.38899
5018.59529,0.38859
5016.66654,0.38851
5014.73780,0.38878
5012.80905,0.38916
5010.88031,0.38910
5008.95156,0.38852
5007.02282,0.38815
5005.09407,0.38823
5003.16533,0.38812
5001.23658,0.38753
4999.30784,0.38688
4997.37909,0.38632
4995.45035,0.38586
4993.52160,0.38579
4991.59286,0.38578
4989.66411,0.38501
4987.73536,0.38367
4985.80662,0.38292
4983.87787,0.38308
4981.94913,0.38345
4980.02038,0.38358
4978.09164,0.38326
4976.16289,0.38251
4974.23415,0.38157
4972.30540,0.38052
4970.37666,0.37930
4968.44791,0.37854
4966.51917,0.37852
4964.59042,0.37829
4962.66168,0.37759
4960.73293,0.37723
4958.80418,0.37731
4956.87544,0.37718
4954.94669,0.37671
4953.01795,0.37639
4951.08920,0.37639
4949.16046,0.37629
4947.23171,0.37602
4945.30297,0.37614
4943.37422,0.37657
4941.44548,0.37671
4939.51673,0.37677
4937.58799,0.37686
4935.65924,0.37658
4933.73050,0.37616
4931.80175,0.37600
4929.87301,0.37601
4927.94426,0.37631
4926.01551,0.37709
4924.08677,0.37779
4922.15802,0.37749
4920.22928,0.37647
4918.30053,0.37621
4916.37179,0.37682
4914.44304,0.37687
4912.51430,0.37635
4910.58555,0.37622
4908.65681,0.37635
4906.72806,0.37602
4904.79932,0.37527
4902.87057,0.37470
4900.94183,0.37439
4899.01308,0.37383
4897.08434,0.37288
4895.15559,0.37190
4893.22684,0.37091
4891.29810,0.36976
4889.36935,0.36858
4887.44061,0.36722
4885.51186,0.36557
4883.58312,0.36420
4881.65437,0.36367
4879.72563,0.36371
4877.79688,0.36341
4875.86814,0.36259
4873.93939,0.36215
4872.01065,0.36262
4870.08190,0.36368
4868.15316,0.36473
4866.22441,0.36534
4864.29566,0.36551
4862.36692,0.36559
4860.43817,0.36591
4858.50943,0.36647
4856.58068,0.36693
4854.65194,0.36692
4852.72319,0.36669
4850.79445,0.36672
4848.86570,0.36696
4846.93696,0.36736
4845.00821,0.36792
4843.07947,0.36795
4841.15072,0.36726
4839.22198,0.36660
4837.29323,0.36639
4835.36449,0.36669
4833.43574,0.36729
4831.50699,0.36756
4829.57825,0.36719
4827.64950,0.36672
4825.72076,0.36680
4823.79201,0.36715
4821.86327,0.36703
4819.93452,0.36672
4818.00578,0.36685
4816.07703,0.36708
4814.14829,0.36696
4812.21954,0.36674
4810.29080,0.36674
4808.36205,0.36693
4806.43331,0.36704
4804.50456,0.36673
4802.57582,0.36594
4800.64707,0.36494
4798.71832,0.36402
4796.78958,0.36303
4794.86083,0.36201
4792.93209,0.36138
4791.00334,0.36090
4789.07460,0.36000
4787.14585,0.35871
4785.21711,0.35720
4783.28836,0.35569
4781.35962,0.35440
4779.43087,0.35305
4777.50213,0.35132
4775.57338,0.34953
4773.64464,0.34806
4771.71589,0.34663
4769.78714,0.34469
4767.85840,0.34253
4765.92965,0.34096
4764.00091,0.34001
4762.07216,0.33910
4760.14342,0.33802
4758.21467,0.33729
4756.28593,0.33704
4754.35718,0.33662
4752.42844,0.33579
4750.49969,0.33457
4748.57095,0.33278
4746.64220,0.33067
4744.71346,0.32862
4742.78471,0.32655
4740.85597,0.32417
4738.92722,0.32141
4736.99847,0.31822
4735.06973,0.31452
4733.14098,0.31045
4731.21224,0.30591
4729.28349,0.30081
4727.35475,0.29551
4725.42600,0.28997
4723.49726,0.28398
4721.56851,0.27821
4719.63977,0.27346
4717.71102,0.26967
4715.78228,0.26661
4713.85353,0.26468
4711.92479,0.26413
4709.99604,0.26425
4708.06729,0.26432
4706.13855,0.26435
4704.20980,0.26447
4702.28106,0.26429
4700.35231,0.26306
4698.42357,0.26056
4696.49482,0.25755
4694.56608,0.25440
4692.63733,0.25051
4690.70859,0.24572
4688.77984,0.24016
4686.85110,0.23348
4684.92235,0.22550
4682.99361,0.21633
4681.06486,0.20660
4679.13612,0.19744
4677.20737,0.18929
4675.27862,0.18200
4673.34988,0.17606
4671.42113,0.17170
4669.49239,0.16850
4667.56364,0.16652
4665.63490,0.16608
4663.70615,0.16706
4661.77741,0.16934
4659.84866,0.17273
4657.91992,0.17694
4655.99117,0.18147
4654.06243,0.18551
4652.13368,0.18879
4650.20494,0.19141
4648.27619,0.19298
4646.34745,0.19316
4644.41870,0.19228
4642.48995,0.19058
4640.56121,0.18808
4638.63246,0.18540
4636.70372,0.18272
4634.77497,0.17932
4632.84623,0.17564
4630.91748,0.17290
4628.98874,0.17108
4627.05999,0.16975
4625.13125,0.16931
4623.20250,0.16985
4621.27376,0.17057
4619.34501,0.17085
4617.41627,0.17060
4615.48752,0.16960
4613.55877,0.16786
4611.63003,0.16648
4609.70128,0.16614
4607.77254,0.16638
4605.84379,0.16708
4603.91505,0.16894
4601.98630,0.17248
4600.05756,0.17725
4598.12881,0.18238
4596.20007,0.18731
4594.27132,0.19141
4592.34258,0.19448
4590.41383,0.19709
4588.48509,0.19905
4586.55634,0.19926
4584.62760,0.19718
4582.69885,0.19336
4580.77010,0.18899
4578.84136,0.18503
4576.91261,0.18211
4574.98387,0.18070
4573.05512,0.18140
4571.12638,0.18449
4569.19763,0.18921
4567.26889,0.19452
4565.34014,0.20003
4563.41140,0.20535
4561.48265,0.20997
4559.55391,0.21373
4557.62516,0.21708
4555.69642,0.22072
4553.76767,0.22468
4551.83893,0.22834
4549.91018,0.23116
4547.98143,0.23308
4546.05269,0.23452
4544.12394,0.23574
4542.19520,0.23626
4540.26645,0.23585
4538.33771,0.23517
4536.40896,0.23478
4534.48022,0.23469
4532.55147,0.23481
4530.62273,0.23492
4528.69398,0.23484
4526.76524,0.23474
4524.83649,0.23463
4522.90775,0.23421
4520.97900,0.23338
4519.05025,0.23246
4517.12151,0.23186
4515.19276,0.23140
4513.26402,0.23069
4511.33527,0.22969
4509.40653,0.22862
4507.47778,0.22779
4505.54904,0.22725
4503.62029,0.22690
4501.69155,0.22700
4499.76280,0.22734
4497.83406,0.22707
4495.90531,0.22573
4493.97657,0.22328
4492.04782,0.21991
4490.11908,0.21645
4488.19033,0.21327
4486.26158,0.20997
4484.33284,0.20654
4482.40409,0.20370
4480.47535,0.20192
4478.54660,0.20107
4476.61786,0.20115
4474.68911,0.20253
4472.76037,0.20540
4470.83162,0.20893
4468.90288,0.21193
4466.97413,0.21422
4465.04539,0.21567
4463.11664,0.21582
4461.18790,0.21497
4459.25915,0.21356
4457.33041,0.21179
4455.40166,0.20990
4453.47291,0.20803
4451.54417,0.20610
4449.61542,0.20424
4447.68668,0.20262
4445.75793,0.20106
4443.82919,0.19975
4441.90044,0.19914
4439.97170,0.19878
4438.04295,0.19795
4436.11421,0.19704
4434.18546,0.19663
4432.25672,0.19605
4430.32797,0.19442
4428.39923,0.19221
4426.47048,0.19022
4424.54173,0.18833
4422.61299,0.18624
4420.68424,0.18415
4418.75550,0.18222
4416.82675,0.18007
4414.89801,0.17736
4412.96926,0.17432
4411.04052,0.17137
4409.11177,0.16859
4407.18303,0.16590
4405.25428,0.16328
4403.32554,0.16067
4401.39679,0.15816
4399.46805,0.15594
4397.53930,0.15396
4395.61056,0.15200
4393.68181,0.14989
4391.75306,0.14770
4389.82432,0.14556
4387.89557,0.14341
4385.96683,0.14121
4384.03808,0.13922
4382.10934,0.13745
4380.18059,0.13535
4378.25185,0.13284
4376.32310,0.13052
4374.39436,0.12885
4372.46561,0.12779
4370.53687,0.12682
4368.60812,0.12542
4366.67938,0.12352
4364.75063,0.12176
4362.82189,0.12065
4360.89314,0.11989
4358.96439,0.11930
4357.03565,0.11884
4355.10690,0.11802
4353.17816,0.11676
4351.24941,0.11569
4349.32067,0.11532
4347.39192,0.11530
4345.46318,0.11503
4343.53443,0.11455
4341.60569,0.11416
4339.67694,0.11389
4337.74820,0.11372
4335.81945,0.11369
4333.89071,0.11374
4331.96196,0.11355
4330.03321,0.11337
4328.10447,0.11383
4326.17572,0.11462
4324.24698,0.11520
4322.31823,0.11601
4320.38949,0.11708
4318.46074,0.11778
4316.53200,0.11785
4314.60325,0.11760
4312.67451,0.11762
4310.74576,0.11807
4308.81702,0.11852
4306.88827,0.11873
4304.95953,0.11862
4303.03078,0.11819
4301.10204,0.11769
4299.17329,0.11717
4297.24454,0.11639
4295.31580,0.11557
4293.38705,0.11513
4291.45831,0.11496
4289.52956,0.11469
4287.60082,0.11408
4285.67207,0.11306
4283.74333,0.11179
4281.81458,0.11068
4279.88584,0.11004
4277.95709,0.10974
4276.02835,0.10969
4274.09960,0.10972
4272.17086,0.10935
4270.24211,0.10860
4268.31336,0.10784
4266.38462,0.10703
4264.45587,0.10621
4262.52713,0.10532
4260.59838,0.10436
4258.66964,0.10366
4256.74089,0.10333
4254.81215,0.10310
4252.88340,0.10275
4250.95466,0.10238
4249.02591,0.10227
4247.09717,0.10249
4245.16842,0.10280
4243.23968,0.10314
4241.31093,0.10353
4239.38219,0.10382
4237.45344,0.10394
4235.52469,0.10397
4233.59595,0.10421
4231.66720,0.10484
4229.73846,0.10530
4227.80971,0.10534
4225.88097,0.10530
4223.95222,0.10530
4222.02348,0.10530
4220.09473,0.10534
4218.16599,0.10536
4216.23724,0.10541
4214.30850,0.10565
4212.37975,0.10604
4210.45101,0.10626
4208.52226,0.10622
4206.59352,0.10632
4204.66477,0.10670
4202.73602,0.10696
4200.80728,0.10729
4198.87853,0.10796
4196.94979,0.10864
4195.02104,0.10925
4193.09230,0.10990
4191.16355,0.11034
4189.23481,0.11045
4187.30606,0.11042
4185.37732,0.11078
4183.44857,0.11177
4181.51983,0.11262
4179.59108,0.11287
4177.66234,0.11304
4175.73359,0.11344
4173.80484,0.11418
4171.87610,0.11514
4169.94735,0.11567
4168.01861,0.11574
4166.08986,0.11616
4164.16112,0.11684
4162.23237,0.11702
4160.30363,0.11680
4158.37488,0.11661
4156.44614,0.11639
4154.51739,0.11626
4152.58865,0.11643
4150.65990,0.11666
4148.73116,0.11677
4146.80241,0.11680
4144.87367,0.11667
4142.94492,0.11637
4141.01617,0.11609
4139.08743,0.11607
4137.15868,0.11620
4135.22994,0.11620
4133.30119,0.11602
4131.37245,0.11567
4129.44370,0.11515
4127.51496,0.11448
4125.58621,0.11383
4123.65747,0.11347
4121.72872,0.11334
4119.79998,0.11322
4117.87123,0.11313
4115.94249,0.11289
4114.01374,0.11232
4112.08500,0.11181
4110.15625,0.11150
4108.22750,0.11119
4106.29876,0.11094
4104.37001,0.11082
4102.44127,0.11072
4100.51252,0.11052
4098.58378,0.11011
4096.65503,0.10950
4094.72629,0.10868
4092.79754,0.10774
4090.86880,0.10703
4088.94005,0.10646
4087.01131,0.10558
4085.08256,0.10430
4083.15382,0.10297
4081.22507,0.10186
4079.29632,0.10073
4077.36758,0.09936
4075.43883,0.09776
4073.51009,0.09601
4071.58134,0.09443
4069.65260,0.09330
4067.72385,0.09255
4065.79511,0.09198
4063.86636,0.09126
4061.93762,0.09040
4060.00887,0.08991
4058.08013,0.08972
4056.15138,0.08930
4054.22264,0.08886
4052.29389,0.08880
4050.36515,0.08882
4048.43640,0.08854
4046.50765,0.08836
4044.57891,0.08864
4042.65016,0.08896
4040.72142,0.08891
4038.79267,0.08889
4036.86393,0.08949
4034.93518,0.09056
4033.00644,0.09157
4031.07769,0.09255
4029.14895,0.09363
4027.22020,0.09467
4025.29146,0.09583
4023.36271,0.09747
4021.43397,0.09966
4019.50522,0.10201
4017.57648,0.10426
4015.64773,0.10617
4013.71898,0.10758
4011.79024,0.10884
4009.86149,0.11014
4007.93275,0.11078
4006.00400,0.11052
4004.07526,0.11026
4002.14651,0.11065
4000.21777,0.11152
3998.28902,0.11253
3996.36028,0.11339
3994.43153,0.11407
3992.50279,0.11476
3990.57404,0.11520
3988.64530,0.11516
3986.71655,0.11506
3984.78780,0.11537
3982.85906,0.11588
3980.93031,0.11617
3979.00157,0.11615
3977.07282,0.11613
3975.14408,0.11621
3973.21533,0.11630
3971.28659,0.11664
3969.35784,0.11737
3967.42910,0.11782
3965.50035,0.11768
3963.57161,0.11747
3961.64286,0.11752
3959.71412,0.11772
3957.78537,0.11785
3955.85663,0.11780
3953.92788,0.11771
3951.99913,0.11781
3950.07039,0.11796
3948.14164,0.11793
3946.21290,0.11786
3944.28415,0.11798
3942.35541,0.11805
3940.42666,0.11769
3938.49792,0.11725
3936.56917,0.11718
3934.64043,0.11730
3932.71168,0.11742
3930.78294,0.11756
3928.85419,0.11764
3926.92545,0.11757
3924.99670,0.11747
3923.06795,0.11754
3921.13921,0.11792
3919.21046,0.11848
3917.28172,0.11881
3915.35297,0.11857
3913.42423,0.11809
3911.49548,0.11794
3909.56674,0.11828
3907.63799,0.11909
3905.70925,0.12007
3903.78050,0.12052
3901.85176,0.12027
3899.92301,0.11985
3897.99427,0.11957
3896.06552,0.11960
3894.13678,0.12009
3892.20803,0.12070
3890.27928,0.12101
3888.35054,0.12124
3886.42179,0.12153
3884.49305,0.12156
3882.56430,0.12155
3880.63556,0.12175
3878.70681,0.12199
3876.77807,0.12228
3874.84932,0.12271
3872.92058,0.12311
3870.99183,0.12348
3869.06309,0.12377
3867.13434,0.12401
3865.20560,0.12438
3863.27685,0.12440
3861.34811,0.12377
3859.41936,0.12329
3857.49061,0.12354
3855.56187,0.12402
3853.63312,0.12371
3851.70438,0.12269
3849.77563,0.12192
3847.84689,0.12144
3845.91814,0.12137
3843.98940,0.12156
3842.06065,0.12142
3840.13191,0.12112
3838.20316,0.12096
3836.27442,0.12059
3834.34567,0.12002
3832.41693,0.11961
3830.48818,0.11935
3828.55943,0.11903
3826.63069,0.11863
3824.70194,0.11853
3822.77320,0.11886
3820.84445,0.11900
3818.91571,0.11880
3816.98696,0.11875
3815.05822,0.11866
3813.12947,0.11843
3811.20073,0.11849
3809.27198,0.11875
3807.34324,0.11877
3805.41449,0.11859
3803.48575,0.11866
3801.55700,0.11882
3799.62826,0.11903
3797.69951,0.11954
3795.77076,0.12002
3793.84202,0.12025
3791.91327,0.12050
3789.98453,0.12079
3788.05578,0.12102
3786.12704,0.12123
3784.19829,0.12141
3782.26955,0.12179
3780.34080,0.12235
3778.41206,0.12255
3776.48331,0.12222
3774.55457,0.12172
3772.62582,0.12137
3770.69708,0.12137
3768.76833,0.12154
3766.83959,0.12155
3764.91084,0.12145
3762.98209,0.12158
3761.05335,0.12215
3759.12460,0.12279
3757.19586,0.12322
3755.26711,0.12363
3753.33837,0.12405
3751.40962,0.12420
3749.48088,0.12406
3747.55213,0.12380
3745.62339,0.12338
3743.69464,0.12286
3741.76590,0.12258
3739.83715,0.12258
3737.90841,0.12267
3735.97966,0.12236
3734.05091,0.12138
3732.12217,0.12007
3730.19342,0.11864
3728.26468,0.11720
3726.33593,0.11597
3724.40719,0.11532
3722.47844,0.11529
3720.54970,0.11557
3718.62095,0.11580
3716.69221,0.11600
3714.76346,0.11631
3712.83472,0.11634
3710.90597,0.11554
3708.97723,0.11406
3707.04848,0.11233
3705.11974,0.11085
3703.19099,0.10994
3701.26224,0.10926
3699.33350,0.10846
3697.40475,0.10754
3695.47601,0.10656
3693.54726,0.10564
3691.61852,0.10472
3689.68977,0.10313
3687.76103,0.10060
3685.83228,0.09816
3683.90354,0.09620
3681.97479,0.09440
3680.04605,0.09284
3678.11730,0.09172
3676.18856,0.09065
3674.25981,0.08920
3672.33107,0.08776
3670.40232,0.08636
3668.47357,0.08496
3666.54483,0.08393
3664.61608,0.08318
3662.68734,0.08259
3660.75859,0.08213
3658.82985,0.08172
3656.90110,0.08124
3654.97236,0.08060
3653.04361,0.08005
3651.11487,0.07980
3649.18612,0.07995
3647.25738,0.08012
3645.32863,0.07990
3643.39989,0.07979
3641.47114,0.08014
3639.54239,0.08060
3637.61365,0.08096
3635.68490,0.08129
3633.75616,0.08149
3631.82741,0.08157
3629.89867,0.08163
3627.96992,0.08152
3626.04118,0.08142
3624.11243,0.08161
3622.18369,0.08195
3620.25494,0.08216
3618.32620,0.08249
3616.39745,0.08313
3614.46871,0.08376
3612.53996,0.08434
3610.61122,0.08477
3608.68247,0.08485
3606.75372,0.08486
3604.82498,0.08513
3602.89623,0.08547
3600.96749,0.08558
3599.03874,0.08556
3597.11000,0.08567
3595.18125,0.08581
3593.25251,0.08569
3591.32376,0.08536
3589.39502,0.08499
3587.46627,0.08450
3585.53753,0.08405
3583.60878,0.08401
3581.68004,0.08421
3579.75129,0.08407
3577.82254,0.08347
3575.89380,0.08288
3573.96505,0.08253
3572.03631,0.08228
3570.10756,0.08213
3568.17882,0.08187
3566.25007,0.08114
3564.32133,0.08010
3562.39258,0.07933
3560.46384,0.07910
3558.53509,0.07913
3556.60635,0.07891
3554.67760,0.07845
3552.74886,0.07808
3550.82011,0.07812
3548.89137,0.07844
3546.96262,0.07847
3545.03387,0.07794
3543.10513,0.07738
3541.17638,0.07723
3539.24764,0.07735
3537.31889,0.07733
3535.39015,0.07724
3533.46140,0.07751
3531.53266,0.07793
3529.60391,0.07787
3527.67517,0.07751
3525.74642,0.07762
3523.81768,0.07813
3521.88893,0.07846
3519.96019,0.07851
3518.03144,0.07850
3516.10270,0.07844
3514.17395,0.07838
3512.24520,0.07848
3510.31646,0.07868
3508.38771,0.07896
3506.45897,0.07939
3504.53022,0.08002
3502.60148,0.08061
3500.67273,0.08086
3498.74399,0.08080
3496.81524,0.08076
3494.88650,0.08087
3492.95775,0.08101
3491.02901,0.08095
3489.10026,0.08089
3487.17152,0.08106
3485.24277,0.08125
3483.31402,0.08136
3481.38528,0.08149
3479.45653,0.08160
3477.52779,0.08144
3475.59904,0.08114
3473.67030,0.08106
3471.74155,0.08094
3469.81281,0.08074
3467.88406,0.08107
3465.95532,0.08172
3464.02657,0.08205
3462.09783,0.08199
3460.16908,0.08171
3458.24034,0.08134
3456.31159,0.08114
3454.38285,0.08114
3452.45410,0.08118
3450.52535,0.08134
3448.59661,0.08163
3446.66786,0.08185
3444.73912,0.08174
3442.81037,0.08132
3440.88163,0.08099
3438.95288,0.08110
3437.02414,0.08149
3435.09539,0.08171
3433.16665,0.08163
3431.23790,0.08146
3429.30916,0.08146
3427.38041,0.08153
3425.45167,0.08157
3423.52292,0.08174
3421.59418,0.08200
3419.66543,0.08204
3417.73668,0.08191
3415.80794,0.08189
3413.87919,0.08205
3411.95045,0.08199
3410.02170,0.08178
3408.09296,0.08181
3406.16421,0.08185
3404.23547,0.08152
3402.30672,0.08099
3400.37798,0.08082
3398.44923,0.08107
3396.52049,0.08123
3394.59174,0.08130
3392.66300,0.08164
3390.73425,0.08194
3388.80550,0.08192
3386.87676,0.08178
3384.94801,0.08156
3383.01927,0.08128
3381.09052,0.08123
3379.16178,0.08139
3377.23303,0.08155
3375.30429,0.08170
3373.37554,0.08187
3371.44680,0.08206
3369.51805,0.08205
3367.58931,0.08188
3365.66056,0.08200
3363.73182,0.08223
3361.80307,0.08209
3359.87433,0.08180
3357.94558,0.08184
3356.01683,0.08193
3354.08809,0.08170
3352.15934,0.08146
3350.23060,0.08142
3348.30185,0.08140
3346.37311,0.08132
3344.44436,0.08121
3342.51562,0.08095
3340.58687,0.08062
3338.65813,0.08042
3336.72938,0.08034
3334.80064,0.08017
3332.87189,0.07995
3330.94315,0.07984
3329.01440,0.07980
3327.08566,0.07969
3325.15691,0.07931
3323.22816,0.07852
3321.29942,0.07760
3319.37067,0.07673
3317.44193,0.07562
3315.51318,0.07427
3313.58444,0.07305
3311.65569,0.07196
3309.72695,0.07070
3307.79820,0.06914
3305.86946,0.06741
3303.94071,0.06589
3302.01197,0.06494
3300.08322,0.06452
3298.15448,0.06458
3296.22573,0.06507
3294.29698,0.06597
3292.36824,0.06734
3290.43949,0.06873
3288.51075,0.06973
3286.58200,0.07058
3284.65326,0.07154
3282.72451,0.07254
3280.79577,0.07353
3278.86702,0.07430
3276.93828,0.07478
3275.00953,0.07518
3273.08079,0.07554
3271.15204,0.07588
3269.22330,0.07631
3267.29455,0.07665
3265.36581,0.07682
3263.43706,0.07703
3261.50831,0.07732
3259.57957,0.07763
3257.65082,0.07792
3255.72208,0.07819
3253.79333,0.07836
3251.86459,0.07832
3249.93584,0.07828
3248.00710,0.07830
3246.07835,0.07812
3244.14961,0.07786
3242.22086,0.07785
3240.29212,0.07789
3238.36337,0.07785
3236.43463,0.07784
3234.50588,0.07772
3232.57713,0.07741
3230.64839,0.07716
3228.71964,0.07702
3226.79090,0.07686
3224.86215,0.07687
3222.93341,0.07712
3221.00466,0.07719
3219.07592,0.07689
3217.14717,0.07666
3215.21843,0.07662
3213.28968,0.07647
3211.36094,0.07637
3209.43219,0.07657
3207.50345,0.07673
3205.57470,0.07643
3203.64596,0.07583
3201.71721,0.07547
3199.78846,0.07554
3197.85972,0.07585
3195.93097,0.07607
3194.00223,0.07599
3192.07348,0.07579
3190.14474,0.07573
3188.21599,0.07581
3186.28725,0.07593
3184.35850,0.07590
3182.42976,0.07565
3180.50101,0.07541
3178.57227,0.07534
3176.64352,0.07547
3174.71478,0.07558
3172.78603,0.07538
3170.85729,0.07490
3168.92854,0.07441
3166.99979,0.07411
3165.07105,0.07386
3163.14230,0.07352
3161.21356,0.07337
3159.28481,0.07363
3157.35607,0.07396
3155.42732,0.07410
3153.49858,0.07433
3151.56983,0.07465
3149.64109,0.07460
3147.71234,0.07429
3145.78360,0.07417
3143.85485,0.07425
3141.92611,0.07429
3139.99736,0.07427
3138.06861,0.07407
3136.13987,0.07362
3134.21112,0.07312
3132.28238,0.07259
3130.35363,0.07204
3128.42489,0.07173
3126.49614,0.07146
3124.56740,0.07089
3122.63865,0.07031
3120.70991,0.06984
3118.78116,0.06912
3116.85242,0.06829
3114.92367,0.06750
3112.99493,0.06643
3111.06618,0.06517
3109.13744,0.06420
3107.20869,0.06367
3105.27994,0.06355
3103.35120,0.06363
3101.42245,0.06366
3099.49371,0.06362
3097.56496,0.06354
3095.63622,0.06323
3093.70747,0.06279
3091.77873,0.06231
3089.84998,0.06169
3087.92124,0.06103
3085.99249,0.06068
3084.06375,0.06063
3082.13500,0.06065
3080.20626,0.06052
3078.27751,0.06030
3076.34877,0.06022
3074.42002,0.06041
3072.49127,0.06050
3070.56253,0.06026
3068.63378,0.06002
3066.70504,0.05993
3064.77629,0.05985
3062.84755,0.05980
3060.91880,0.05982
3058.99006,0.05996
3057.06131,0.06020
3055.13257,0.06053
3053.20382,0.06099
3051.27508,0.06145
3049.34633,0.06166
3047.41759,0.06158
3045.48884,0.06129
3043.56009,0.06089
3041.63135,0.06046
3039.70260,0.05993
3037.77386,0.05931
3035.84511,0.05893
3033.91637,0.05902
3031.98762,0.05943
3030.05888,0.05985
3028.13013,0.06007
3026.20139,0.06011
3024.27264,0.06011
3022.34390,0.06011
3020.41515,0.06009
3018.48641,0.06019
3016.55766,0.06049
3014.62892,0.06065
3012.70017,0.06042
3010.77142,0.06007
3008.84268,0.05985
3006.91393,0.05975
3004.98519,0.05979
3003.05644,0.05985
3001.12770,0.05989
2999.19895,0.05999
2997.27021,0.06005
2995.34146,0.05996
2993.41272,0.05988
2991.48397,0.05992
2989.55523,0.06003
2987.62648,0.06001
2985.69774,0.05980
2983.76899,0.05968
2981.84025,0.05972
2979.91150,0.05969
2977.98275,0.05944
2976.05401,0.05905
2974.12526,0.05872
2972.19652,0.05869
2970.26777,0.05906
2968.33903,0.05945
2966.41028,0.05937
2964.48154,0.05907
2962.55279,0.05885
2960.62405,0.05854
2958.69530,0.05824
2956.76656,0.05816
2954.83781,0.05820
2952.90907,0.05826
2950.98032,0.05844
2949.05157,0.05874
2947.12283,0.05897
2945.19408,0.05896
2943.26534,0.05891
2941.33659,0.05890
2939.40785,0.05893
2937.47910,0.05912
2935.55036,0.05952
2933.62161,0.05993
2931.69287,0.06038
2929.76412,0.06091
2927.83538,0.06148
2925.90663,0.06196
2923.97789,0.06223
2922.04914,0.06231
2920.12040,0.06243
2918.19165,0.06268
2916.26290,0.06284
2914.33416,0.06283
2912.40541,0.06272
2910.47667,0.06255
2908.54792,0.06237
2906.61918,0.06218
2904.69043,0.06202
2902.76169,0.06195
2900.83294,0.06189
2898.90420,0.06179
2896.97545,0.06173
2895.04671,0.06167
2893.11796,0.06158
2891.18922,0.06163
2889.26047,0.06179
2887.33172,0.06179
2885.40298,0.06169
2883.47423,0.06174
2881.54549,0.06195
2879.61674,0.06217
2877.68800,0.06217
2875.75925,0.06192
2873.83051,0.06159
2871.90176,0.06148
2869.97302,0.06175
2868.04427,0.06198
2866.11553,0.06183
2864.18678,0.06163
2862.25804,0.06159
2860.32929,0.06158
2858.40055,0.06172
2856.47180,0.06219
2854.54305,0.06275
2852.61431,0.06313
2850.68556,0.06341
2848.75682,0.06356
2846.82807,0.06326
2844.89933,0.06269
2842.97058,0.06235
2841.04184,0.06217
2839.11309,0.06200
2837.18435,0.06205
2835.25560,0.06236
2833.32686,0.06268
2831.39811,0.06281
2829.46937,0.06280
2827.54062,0.06281
2825.61188,0.06294
2823.68313,0.06325
2821.75438,0.06362
2819.82564,0.06386
2817.89689,0.06402
2815.96815,0.06425
2814.03940,0.06461
2812.11066,0.06499
2810.18191,0.06525
2808.25317,0.06553
2806.32442,0.06593
2804.39568,0.06619
2802.46693,0.06620
2800.53819,0.06622
2798.60944,0.06624
2796.68070,0.06613
2794.75195,0.06610
2792.82320,0.06628
2790.89446,0.06660
2788.96571,0.06686
2787.03697,0.06691
2785.10822,0.06689
2783.17948,0.06689
2781.25073,0.06688
2779.32199,0.06700
2777.39324,0.06735
2775.46450,0.06777
2773.53575,0.06806
2771.60701,0.06823
2769.67826,0.06840
2767.74952,0.06863
2765.82077,0.06883
2763.89203,0.06899
2761.96328,0.06926
2760.03453,0.06956
2758.10579,0.06958
2756.17704,0.06948
2754.24830,0.06959
2752.31955,0.06980
2750.39081,0.06994
2748.46206,0.06999
2746.53332,0.06994
2744.60457,0.06983
2742.67583,0.06968
2740.74708,0.06946
2738.81834,0.06931
2736.88959,0.06931
2734.96085,0.06937
2733.03210,0.06944
2731.10336,0.06951
2729.17461,0.06947
2727.24586,0.06936
2725.31712,0.06952
2723.38837,0.06994
2721.45963,0.07000
2719.53088,0.06963
2717.60214,0.06948
2715.67339,0.06959
2713.74465,0.06953
2711.81590,0.06937
2709.88716,0.06943
2707.95841,0.06956
2706.02967,0.06951
2704.10092,0.06938
2702.17218,0.06937
2700.24343,0.06936
2698.31468,0.06923
2696.38594,0.06907
2694.45719,0.06901
2692.52845,0.06908
2690.59970,0.06925
2688.67096,0.06929
2686.74221,0.06924
2684.81347,0.06936
2682.88472,0.06946
2680.95598,0.06911
2679.02723,0.06861
2677.09849,0.06836
2675.16974,0.06831
2673.24100,0.06830
2671.31225,0.06830
2669.38351,0.06834
2667.45476,0.06842
2665.52601,0.06846
2663.59727,0.06859
2661.66852,0.06891
2659.73978,0.06914
2657.81103,0.06911
2655.88229,0.06897
2653.95354,0.06890
2652.02480,0.06890
2650.09605,0.06883
2648.16731,0.06877
2646.23856,0.06884
2644.30982,0.06891
2642.38107,0.06882
2640.45233,0.06862
2638.52358,0.06841
2636.59484,0.06827
2634.66609,0.06818
2632.73734,0.06817
2630.80860,0.06836
2628.87985,0.06872
2626.95111,0.06907
2625.02236,0.06927
2623.09362,0.06938
2621.16487,0.06955
2619.23613,0.06968
2617.30738,0.06958
2615.37864,0.06933
2613.44989,0.06918
2611.52115,0.06912
2609.59240,0.06907
2607.66366,0.06906
2605.73491,0.06899
2603.80616,0.06890
2601.87742,0.06908
2599.94867,0.06945
2598.01993,0.06966
2596.09118,0.06970
2594.16244,0.06969
2592.23369,0.06972
2590.30495,0.06983
2588.37620,0.06986
2586.44746,0.06976
2584.51871,0.06965
2582.58997,0.06963
2580.66122,0.06982
2578.73248,0.07021
2576.80373,0.07050
2574.87499,0.07045
2572.94624,0.07026
2571.01749,0.07015
2569.08875,0.07004
2567.16000,0.07004
2565.23126,0.07014
2563.30251,0.07005
2561.37377,0.06979
2559.44502,0.06967
2557.51628,0.06973
2555.58753,0.06975
2553.65879,0.06963
2551.73004,0.06954
2549.80130,0.06961
2547.87255,0.06972
2545.94381,0.06973
2544.01506,0.06963
2542.08631,0.06958
2540.15757,0.06966
2538.22882,0.06977
2536.30008,0.06996
2534.37133,0.07014
2532.44259,0.06996
2530.51384,0.06948
2528.58510,0.06908
2526.65635,0.06893
2524.72761,0.06894
2522.79886,0.06894
2520.87012,0.06882
2518.94137,0.06881
2517.01263,0.06900
2515.08388,0.06904
2513.15514,0.06884
2511.22639,0.06879
2509.29764,0.06906
2507.36890,0.06939
2505.44015,0.06957
2503.51141,0.06967
2501.58266,0.06971
2499.65392,0.06973
2497.72517,0.06981
2495.79643,0.06992
2493.86768,0.07003
2491.93894,0.07027
2490.01019,0.07057
2488.08145,0.07066
2486.15270,0.07055
2484.22396,0.07045
2482.29521,0.07048
2480.36647,0.07069
2478.43772,0.07096
2476.50897,0.07106
2474.58023,0.07099
2472.65148,0.07090
2470.72274,0.07092
2468.79399,0.07100
2466.86525,0.07102
2464.93650,0.07108
2463.00776,0.07120
2461.07901,0.07106
2459.15027,0.07073
2457.22152,0.07062
2455.29278,0.07078
2453.36403,0.07091
2451.43529,0.07094
2449.50654,0.07090
2447.57779,0.07091
2445.64905,0.07106
2443.72030,0.07113
2441.79156,0.07097
2439.86281,0.07083
2437.93407,0.07081
2436.00532,0.07070
2434.07658,0.07061
2432.14783,0.07059
2430.21909,0.07053
2428.29034,0.07052
2426.36160,0.07047
2424.43285,0.07029
2422.50411,0.07020
2420.57536,0.07027
2418.64662,0.07023
2416.71787,0.07003
2414.78912,0.06992
2412.86038,0.06994
2410.93163,0.06992
2409.00289,0.06990
2407.07414,0.06983
2405.14540,0.06970
2403.21665,0.06956
2401.28791,0.06944
2399.35916,0.06939
2397.43042,0.06936
2395.50167,0.06910
2393.57293,0.06875
2391.64418,0.06870
2389.71544,0.06888
2387.78669,0.06897
2385.85795,0.06905
2383.92920,0.06909
2382.00045,0.06903
2380.07171,0.06903
2378.14296,0.06917
2376.21422,0.06927
2374.28547,0.06923
2372.35673,0.06915
2370.42798,0.06926
2368.49924,0.06963
2366.57049,0.07001
2364.64175,0.07013
2362.71300,0.07011
2360.78426,0.07011
2358.85551,0.06996
2356.92677,0.06964
2354.99802,0.06921
2353.06927,0.06864
2351.14053,0.06808
2349.21178,0.06771
2347.28304,0.06753
2345.35429,0.06745
2343.42555,0.06748
2341.49680,0.06755
2339.56806,0.06746
2337.63931,0.06736
2335.71057,0.06750
2333.78182,0.06789
2331.85308,0.06837
2329.92433,0.06866
2327.99559,0.06864
2326.06684,0.06848
2324.13810,0.06831
2322.20935,0.06803
2320.28060,0.06767
2318.35186,0.06742
2316.42311,0.06718
2314.49437,0.06693
2312.56562,0.06686
2310.63688,0.06706
2308.70813,0.06730
2306.77939,0.06751
2304.85064,0.06779
2302.92190,0.06793
2300.99315,0.06777
2299.06441,0.06751
2297.13566,0.06739
2295.20692,0.06745
2293.27817,0.06762
2291.34943,0.06773
2289.42068,0.06764
2287.49193,0.06742
2285.56319,0.06729
2283.63444,0.06724
2281.70570,0.06723
2279.77695,0.06726
2277.84821,0.06718
2275.91946,0.06692
2273.99072,0.06666
2272.06197,0.06650
2270.13323,0.06630
2268.20448,0.06601
2266.27574,0.06568
2264.34699,0.06535
2262.41825,0.06510
2260.48950,0.06490
2258.56075,0.06447
2256.63201,0.06387
2254.70326,0.06331
2252.77452,0.06275
2250.84577,0.06218
2248.91703,0.06170
2246.98828,0.06123
2245.05954,0.06074
2243.13079,0.06037
2241.20205,0.06022
2239.27330,0.06026
2237.34456,0.06041
2235.41581,0.06071
2233.48707,0.06118
2231.55832,0.06172
2229.62958,0.06227
2227.70083,0.06289
2225.77208,0.06365
2223.84334,0.06450
2221.91459,0.06527
2219.98585,0.06595
2218.05710,0.06645
2216.12836,0.06673
2214.19961,0.06692
2212.27087,0.06717
2210.34212,0.06751
2208.41338,0.06792
2206.48463,0.06820
2204.55589,0.06828
2202.62714,0.06833
2200.69840,0.06838
2198.76965,0.06829
2196.84090,0.06812
2194.91216,0.06797
2192.98341,0.06776
2191.05467,0.06744
2189.12592,0.06722
2187.19718,0.06716
2185.26843,0.06722
2183.33969,0.06740
2181.41094,0.06770
2179.48220,0.06810
2177.55345,0.06859
2175.62471,0.06914
2173.69596,0.06956
2171.76722,0.06976
2169.83847,0.06990
2167.90973,0.07003
2165.98098,0.06999
2164.05223,0.06985
2162.12349,0.06985
2160.19474,0.06993
2158.26600,0.06990
2156.33725,0.06976
2154.40851,0.06970
2152.47976,0.06989
2150.55102,0.07021
2148.62227,0.07030
2146.69353,0.07009
2144.76478,0.06985
2142.83604,0.06983
2140.90729,0.07002
2138.97855,0.07022
2137.04980,0.07034
2135.12106,0.07047
2133.19231,0.07045
2131.26356,0.07012
2129.33482,0.06978
2127.40607,0.06959
2125.47733,0.06943
2123.54858,0.06936
2121.61984,0.06962
2119.69109,0.07002
2117.76235,0.07013
2115.83360,0.06996
2113.90486,0.06979
2111.97611,0.06974
2110.04737,0.06980
2108.11862,0.06985
2106.18988,0.06980
2104.26113,0.06972
2102.33238,0.06975
2100.40364,0.06979
2098.47489,0.06964
2096.54615,0.06935
2094.61740,0.06908
2092.68866,0.06894
2090.75991,0.06901
2088.83117,0.06925
2086.90242,0.06945
2084.97368,0.06949
2083.04493,0.06931
2081.11619,0.06897
2079.18744,0.06875
2077.25870,0.06875
2075.32995,0.06875
2073.40121,0.06870
2071.47246,0.06864
2069.54371,0.06850
2067.61497,0.06835
2065.68622,0.06821
2063.75748,0.06812
2061.82873,0.06820
2059.89999,0.06831
2057.97124,0.06824
2056.04250,0.06808
2054.11375,0.06804
2052.18501,0.06812
2050.25626,0.06814
2048.32752,0.06804
2046.39877,0.06788
2044.47003,0.06771
2042.54128,0.06762
2040.61254,0.06758
2038.68379,0.06747
2036.75504,0.06723
2034.82630,0.06701
2032.89755,0.06690
2030.96881,0.06677
2029.04006,0.06660
2027.11132,0.06654
2025.18257,0.06659
2023.25383,0.06652
2021.32508,0.06624
2019.39634,0.06598
2017.46759,0.06593
2015.53885,0.06590
2013.61010,0.06579
2011.68136,0.06574
2009.75261,0.06570
2007.82386,0.06558
2005.89512,0.06536
2003.96637,0.06506
2002.03763,0.06470
2000.10888,0.06432
1998.18014,0.06395
1996.25139,0.06367
1994.32265,0.06347
1992.39390,0.06322
1990.46516,0.06291
1988.53641,0.06263
1986.60767,0.06241
1984.67892,0.06223
1982.75018,0.06206
1980.82143,0.06199
1978.89269,0.06208
1976.96394,0.06211
1975.03519,0.06186
1973.10645,0.06150
1971.17770,0.06131
1969.24896,0.06125
1967.32021,0.06118
1965.39147,0.06110
1963.46272,0.06106
1961.53398,0.06105
1959.60523,0.06108
1957.67649,0.06112
1955.74774,0.06107
1953.81900,0.06096
1951.89025,0.06088
1949.96151,0.06093
1948.03276,0.06110
1946.10402,0.06122
1944.17527,0.06128
1942.24652,0.06143
1940.31778,0.06166
1938.38903,0.06179
1936.46029,0.06185
1934.53154,0.06195
1932.60280,0.06212
1930.67405,0.06228
1928.74531,0.06241
1926.81656,0.06263
1924.88782,0.06294
1922.95907,0.06316
1921.03033,0.06308
1919.10158,0.06272
1917.17284,0.06242
1915.24409,0.06245
1913.31534,0.06263
1911.38660,0.06258
1909.45785,0.06221
1907.52911,0.06179
1905.60036,0.06153
1903.67162,0.06137
1901.74287,0.06115
1899.81413,0.06098
1897.88538,0.06099
1895.95664,0.06107
1894.02789,0.06109
1892.09915,0.06099
1890.17040,0.06089
1888.24166,0.06086
1886.31291,0.06081
1884.38417,0.06076
1882.45542,0.06075
1880.52667,0.06072
1878.59793,0.06060
1876.66918,0.06056
1874.74044,0.06070
1872.81169,0.06091
1870.88295,0.06114
1868.95420,0.06140
1867.02546,0.06156
1865.09671,0.06159
1863.16797,0.06160
1861.23922,0.06154
1859.31048,0.06145
1857.38173,0.06151
1855.45299,0.06168
1853.52424,0.06182
1851.59549,0.06194
1849.66675,0.06201
1847.73800,0.06194
1845.80926,0.06182
1843.88051,0.06158
1841.95177,0.06131
1840.02302,0.06110
1838.09428,0.06085
1836.16553,0.06067
1834.23679,0.06072
1832.30804,0.06084
1830.37930,0.06079
1828.45055,0.06052
1826.52181,0.06025
1824.59306,0.06004
1822.66432,0.05988
1820.73557,0.05990
1818.80682,0.06002
1816.87808,0.05995
1814.94933,0.05984
1813.02059,0.06000
1811.09184,0.06013
1809.16310,0.05996
1807.23435,0.05983
1805.30561,0.05999
1803.37686,0.06030
1801.44812,0.06048
1799.51937,0.06041
1797.59063,0.06023
1795.66188,0.06023
1793.73314,0.06045
1791.80439,0.06069
1789.87565,0.06068
1787.94690,0.06050
1786.01815,0.06037
1784.08941,0.06037
1782.16066,0.06049
1780.23192,0.06053
1778.30317,0.06038
1776.37443,0.06036
1774.44568,0.06063
1772.51694,0.06075
1770.58819,0.06039
1768.65945,0.05994
1766.73070,0.05976
1764.80196,0.05981
1762.87321,0.05988
1760.94447,0.05984
1759.01572,0.05981
1757.08697,0.05977
1755.15823,0.05966
1753.22948,0.05969
1751.30074,0.05989
1749.37199,0.05998
1747.44325,0.05985
1745.51450,0.05972
1743.58576,0.05967
1741.65701,0.05972
1739.72827,0.05979
1737.79952,0.05994
1735.87078,0.06027
1733.94203,0.06053
1732.01329,0.06055
1730.08454,0.06060
1728.15580,0.06059
1726.22705,0.06053
1724.29830,0.06063
1722.36956,0.06092
1720.44081,0.06134
1718.51207,0.06182
1716.58332,0.06199
1714.65458,0.06159
1712.72583,0.06115
1710.79709,0.06117
1708.86834,0.06148
1706.93960,0.06164
1705.01085,0.06162
1703.08211,0.06172
1701.15336,0.06187
1699.22462,0.06168
1697.29587,0.06132
1695.36713,0.06086
1693.43838,0.06043
1691.50963,0.06034
1689.58089,0.06043
1687.65214,0.06068
1685.72340,0.06115
1683.79465,0.06123
1681.86591,0.06072
1679.93716,0.06034
1678.00842,0.06025
1676.07967,0.06040
1674.15093,0.06060
1672.22218,0.06078
1670.29344,0.06098
1668.36469,0.06094
1666.43595,0.06073
1664.50720,0.06066
1662.57845,0.06068
1660.64971,0.06055
1658.72096,0.06035
1656.79222,0.06052
1654.86347,0.06124
1652.93473,0.06166
1651.00598,0.06126
1649.07724,0.06099
1647.14849,0.06074
1645.21975,0.06016
1643.29100,0.05976
1641.36226,0.05978
1639.43351,0.06021
1637.50477,0.06085
1635.57602,0.06112
1633.64728,0.06075
1631.71853,0.06044
1629.78978,0.06054
1627.86104,0.06082
1625.93229,0.06095
1624.00355,0.06092
1622.07480,0.06081
1620.14606,0.06071
1618.21731,0.06062
1616.28857,0.06020
1614.35982,0.05961
1612.43108,0.05940
1610.50233,0.05940
1608.57359,0.05929
1606.64484,0.05910
1604.71610,0.05913
1602.78735,0.05949
1600.85861,0.05999
1598.92986,0.06044
1597.00111,0.06065
1595.07237,0.06059
1593.14362,0.06042
1591.21488,0.06029
1589.28613,0.06012
1587.35739,0.05995
1585.42864,0.05993
1583.49990,0.06014
1581.57115,0.06040
1579.64241,0.06053
1577.71366,0.06061
1575.78492,0.06047
1573.85617,0.06012
1571.92743,0.05997
1569.99868,0.05993
1568.06993,0.05966
1566.14119,0.05953
1564.21244,0.05971
1562.28370,0.06003
1560.35495,0.06035
1558.42621,0.06028
1556.49746,0.05986
1554.56872,0.05967
1552.63997,0.05960
1550.71123,0.05945
1548.78248,0.05937
1546.85374,0.05958
1544.92499,0.06004
1542.99625,0.06046
1541.06750,0.06050
1539.13876,0.06004
1537.21001,0.05969
1535.28126,0.05973
1533.35252,0.05968
1531.42377,0.05940
1529.49503,0.05941
1527.56628,0.05966
1525.63754,0.05972
1523.70879,0.05961
1521.78005,0.05949
1519.85130,0.05935
1517.92256,0.05923
1515.99381,0.05904
1514.06507,0.05878
1512.13632,0.05861
1510.20758,0.05859
1508.27883,0.05870
1506.35008,0.05844
1504.42134,0.05758
1502.49259,0.05675
1500.56385,0.05618
1498.63510,0.05599
1496.70636,0.05651
1494.77761,0.05786
1492.84887,0.05956
1490.92012,0.06087
1488.99138,0.06105
1487.06263,0.06034
1485.13389,0.05961
1483.20514,0.05913
1481.27640,0.05889
1479.34765,0.05879
1477.41891,0.05869
1475.49016,0.05855
1473.56141,0.05839
1471.63267,0.05800
1469.70392,0.05757
1467.77518,0.05742
1465.84643,0.05728
1463.91769,0.05680
1461.98894,0.05625
1460.06020,0.05590
1458.13145,0.05580
1456.20271,0.05622
1454.27396,0.05751
1452.34522,0.05929
1450.41647,0.06092
1448.48773,0.06191
1446.55898,0.06213
1444.63024,0.06201
1442.70149,0.06191
1440.77274,0.06184
1438.84400,0.06183
1436.91525,0.06189
1434.98651,0.06194
1433.05776,0.06197
1431.12902,0.06191
1429.20027,0.06158
1427.27153,0.06122
1425.34278,0.06105
1423.41404,0.06099
1421.48529,0.06106
1419.55655,0.06129
1417.62780,0.06141
1415.69906,0.06127
1413.77031,0.06103
1411.84156,0.06084
1409.91282,0.06068
1407.98407,0.06052
1406.05533,0.06045
1404.12658,0.06048
1402.19784,0.06052
1400.26909,0.06053
1398.34035,0.06053
1396.41160,0.06056
1394.48286,0.06051
1392.55411,0.06034
1390.62537,0.06026
1388.69662,0.06034
1386.76788,0.06037
1384.83913,0.06016
1382.91039,0.05966
1380.98164,0.05928
1379.05289,0.05940
1377.12415,0.05975
1375.19540,0.05998
1373.26666,0.06008
1371.33791,0.06011
1369.40917,0.06012
1367.48042,0.06015
1365.55168,0.06012
1363.62293,0.06007
1361.69419,0.06008
1359.76544,0.06012
1357.83670,0.06013
1355.90795,0.06014
1353.97921,0.06024
1352.05046,0.06031
1350.12172,0.06025
1348.19297,0.06020
1346.26422,0.06025
1344.33548,0.06020
1342.40673,0.06007
1340.47799,0.06008
1338.54924,0.06011
1336.62050,0.06001
1334.69175,0.05993
1332.76301,0.05995
1330.83426,0.06000
1328.90552,0.05994
1326.97677,0.05978
1325.04803,0.05965
1323.11928,0.05973
1321.19054,0.05995
1319.26179,0.06015
1317.33304,0.06027
1315.40430,0.06033
1313.47555,0.06028
1311.54681,0.06022
1309.61806,0.06016
1307.68932,0.06009
1305.76057,0.06017
1303.83183,0.06038
1301.90308,0.06034
1299.97434,0.06014
1298.04559,0.06012
1296.11685,0.06024
1294.18810,0.06023
1292.25936,0.06003
1290.33061,0.05989
1288.40187,0.06007
1286.47312,0.06049
1284.54437,0.06075
1282.61563,0.06072
1280.68688,0.06066
1278.75814,0.06064
1276.82939,0.06058
1274.90065,0.06054
1272.97190,0.06051
1271.04316,0.06039
1269.11441,0.06023
1267.18567,0.06017
1265.25692,0.06024
1263.32818,0.06033
1261.39943,0.06032
1259.47069,0.06022
1257.54194,0.06018
1255.61320,0.06030
1253.68445,0.06039
1251.75570,0.06043
1249.82696,0.06056
1247.89821,0.06063
1245.96947,0.06056
1244.04072,0.06059
1242.11198,0.06073
1240.18323,0.06072
1238.25449,0.06051
1236.32574,0.06028
1234.39700,0.06022
1232.46825,0.06017
1230.53951,0.05999
1228.61076,0.05989
1226.68202,0.05990
1224.75327,0.05991
1222.82452,0.06009
1220.89578,0.06040
1218.96703,0.06051
1217.03829,0.06037
1215.10954,0.06016
1213.18080,0.06000
1211.25205,0.05993
1209.32331,0.05994
1207.39456,0.06008
1205.46582,0.06023
1203.53707,0.06024
1201.60833,0.06020
1199.67958,0.06018
1197.75084,0.06012
1195.82209,0.06001
1193.89335,0.06002
1191.96460,0.06029
1190.03585,0.06062
1188.10711,0.06076
1186.17836,0.06076
1184.24962,0.06078
1182.32087,0.06086
1180.39213,0.06078
1178.46338,0.06057
1176.53464,0.06044
1174.60589,0.06039
1172.67715,0.06048
1170.74840,0.06073
1168.81966,0.06077
1166.89091,0.06053
1164.96217,0.06035
1163.03342,0.06031
1161.10467,0.06036
1159.17593,0.06035
1157.24718,0.06017
1155.31844,0.05998
1153.38969,0.06005
1151.46095,0.06040
1149.53220,0.06072
1147.60346,0.06080
1145.67471,0.06079
1143.74597,0.06073
1141.81722,0.06052
1139.88848,0.06019
1137.95973,0.05993
1136.03099,0.05998
1134.10224,0.06024
1132.17350,0.06037
1130.24475,0.06034
1128.31600,0.06018
1126.38726,0.05983
1124.45851,0.05964
1122.52977,0.05984
1120.60102,0.06013
1118.67228,0.06041
1116.74353,0.06059
1114.81479,0.06042
1112.88604,0.06008
1110.95730,0.05979
1109.02855,0.05954
1107.09981,0.05942
1105.17106,0.05947
1103.24232,0.05944
1101.31357,0.05947
1099.38483,0.05962
1097.45608,0.05954
1095.52733,0.05932
1093.59859,0.05926
1091.66984,0.05924
1089.74110,0.05943
1087.81235,0.05989
1085.88361,0.06001
1083.95486,0.05952
1082.02612,0.05903
1080.09737,0.05916
1078.16863,0.05968
1076.23988,0.05990
1074.31114,0.05969
1072.38239,0.05940
1070.45365,0.05938
1068.52490,0.05956
1066.59615,0.05976
1064.66741,0.05997
1062.73866,0.06007
1060.80992,0.06006
1058.88117,0.06013
1056.95243,0.06028
1055.02368,0.06033
1053.09494,0.06010
1051.16619,0.05990
1049.23745,0.06008
1047.30870,0.06029
1045.37996,0.06023
1043.45121,0.06017
1041.52247,0.06028
1039.59372,0.06039
1037.66498,0.06040
1035.73623,0.06033
1033.80748,0.06012
1031.87874,0.05985
1029.94999,0.05984
1028.02125,0.06021
1026.09250,0.06068
1024.16376,0.06094
1022.23501,0.06096
1020.30627,0.06092
1018.37752,0.06088
1016.44878,0.06087
1014.52003,0.06111
1012.59129,0.06124
1010.66254,0.06067
1008.73380,0.05989
1006.80505,0.05965
1004.87631,0.05986
1002.94756,0.06016
1001.01881,0.06017
999.09007,0.05974
997.16132,0.05939
995.23258,0.05945
993.30383,0.05955
991.37509,0.05943
989.44634,0.05913
987.51760,0.05883
985.58885,0.05875
983.66011,0.05874
981.73136,0.05843
979.80262,0.05786
977.87387,0.05733
975.94513,0.05697
974.01638,0.05681
972.08763,0.05684
970.15889,0.05693
968.23014,0.05725
966.30140,0.05808
964.37265,0.05916
962.44391,0.06008
960.51516,0.06087
958.58642,0.06154
956.65767,0.06194
954.72893,0.06203
952.80018,0.06187
950.87144,0.06163
948.94269,0.06152
947.01395,0.06152
945.08520,0.06148
943.15646,0.06134
941.22771,0.06113
939.29896,0.06087
937.37022,0.06050
935.44147,0.06009
933.51273,0.05993
931.58398,0.06008
929.65524,0.06025
927.72649,0.06007
925.79775,0.05948
923.86900,0.05889
921.94026,0.05859
920.01151,0.05848
918.08277,0.05840
916.15402,0.05835
914.22528,0.05841
912.29653,0.05874
910.36779,0.05938
908.43904,0.06012
906.51029,0.06058
904.58155,0.06051
902.65280,0.06015
900.72406,0.06014
898.79531,0.06047
896.86657,0.06055
894.93782,0.06026
893.00908,0.05976
891.08033,0.05935
889.15159,0.05942
887.22284,0.05961
885.29410,0.05949
883.36535,0.05954
881.43661,0.06012
879.50786,0.06048
877.57911,0.06000
875.65037,0.05910
873.72162,0.05849
871.79288,0.05835
869.86413,0.05838
867.93539,0.05835
866.00664,0.05839
864.07790,0.05844
862.14915,0.05827
860.22041,0.05820
858.29166,0.05848
856.36292,0.05874
854.43417,0.05868
852.50543,0.05835
850.57668,0.05786
848.64794,0.05738
846.71919,0.05725
844.79044,0.05743
842.86170,0.05761
840.93295,0.05791
839.00421,0.05833
837.07546,0.05833
835.14672,0.05794
833.21797,0.05769
831.28923,0.05744
829.36048,0.05699
827.43174,0.05677
825.50299,0.05694
823.57425,0.05698
821.64550,0.05672
819.71676,0.05644
817.78801,0.05633
815.85926,0.05645
813.93052,0.05658
812.00177,0.05642
810.07303,0.05616
808.14428,0.05604
806.21554,0.05586
804.28679,0.05545
802.35805,0.05491
800.42930,0.05446
798.50056,0.05427
796.57181,0.05433
794.64307,0.05449
792.71432,0.05448
790.78558,0.05415
788.85683,0.05366
786.92809,0.05320
784.99934,0.05281
783.07059,0.05238
781.14185,0.05179
779.21310,0.05130
777.28436,0.05120
775.35561,0.05110
773.42687,0.05078
771.49812,0.05065
769.56938,0.05094
767.64063,0.05154
765.71189,0.05254
763.78314,0.05415
761.85440,0.05609
759.92565,0.05767
757.99691,0.05870
756.06816,0.05947
754.13942,0.05997
752.21067,0.05991
750.28192,0.05950
748.35318,0.05897
746.42443,0.05850
744.49569,0.05832
742.56694,0.05823
740.63820,0.05787
738.70945,0.05729
736.78071,0.05674
734.85196,0.05635
732.92322,0.05605
730.99447,0.05567
729.06573,0.05528
727.13698,0.05496
725.20824,0.05425
723.27949,0.05290
721.35074,0.05166
719.42200,0.05090
717.49325,0.05003
715.56451,0.04862
713.63576,0.04686
711.70702,0.04508
709.77827,0.04426
707.84953,0.04576
705.92078,0.05021
703.99204,0.05759
702.06329,0.06715
700.13455,0.07651
698.20580,0.08232
696.27706,0.08290
694.34831,0.07951
692.41957,0.07484
690.49082,0.07123
688.56207,0.06926
686.63333,0.06817
684.70458,0.06737
682.77584,0.06678
680.84709,0.06622
678.91835,0.06517
676.98960,0.06377
675.06086,0.06318
673.13211,0.06339
671.20337,0.06345
669.27462,0.06309
667.34588,0.06207
665.41713,0.06082
663.48839,0.06048
661.55964,0.06121
659.63090,0.06234
657.70215,0.06284
655.77340,0.06226
653.84466,0.06133
651.91591,0.06118
649.98717,0.06215
648.05842,0.06309
646.12968,0.06285
644.20093,0.06203
642.27219,0.06144
640.34344,0.06098
638.41470,0.06070
636.48595,0.06077
634.55721,0.06089
632.62846,0.06084
630.69972,0.06088
628.77097,0.06116
626.84222,0.06126
624.91348,0.06081
622.98473,0.05961
621.05599,0.05813
619.12724,0.05773
617.19850,0.05830
615.26975,0.05856
613.34101,0.05797
611.41226,0.05696
609.48352,0.05710
607.55477,0.05876
605.62603,0.06027
603.69728,0.06082
601.76854,0.06083
599.83979,0.06050
