7497.03301,0.71052
7495.10426,0.70514
7493.17552,0.70622
7491.24677,0.71189
7489.31803,0.71528
7487.38928,0.71547
7485.46054,0.71601
7483.53179,0.71478
7481.60305,0.71131
7479.67430,0.71222
7477.74556,0.71711
7475.81681,0.71820
7473.88807,0.71589
7471.95932,0.71571
7470.03057,0.71387
7468.10183,0.70663
7466.17308,0.70122
7464.24434,0.70161
7462.31559,0.70320
7460.38685,0.70268
7458.45810,0.70164
7456.52936,0.70383
7454.60061,0.70865
7452.67187,0.71039
7450.74312,0.70711
7448.81438,0.70186
7446.88563,0.69733
7444.95689,0.69546
7443.02814,0.69517
7441.09940,0.69488
7439.17065,0.69535
7437.24190,0.69508
7435.31316,0.69243
7433.38441,0.68959
7431.45567,0.68871
7429.52692,0.68947
7427.59818,0.69255
7425.66943,0.69862
7423.74069,0.70387
7421.81194,0.70678
7419.88320,0.70911
7417.95445,0.70878
7416.02571,0.70528
7414.09696,0.70201
7412.16822,0.70017
7410.23947,0.69800
7408.31073,0.69549
7406.38198,0.69703
7404.45323,0.70160
7402.52449,0.70045
7400.59574,0.69173
7398.66700,0.68253
7396.73825,0.68041
7394.80951,0.68509
7392.88076,0.68765
7390.95202,0.68666
7389.02327,0.68927
7387.09453,0.69498
7385.16578,0.69820
7383.23704,0.69852
7381.30829,0.70002
7379.37955,0.70399
7377.45080,0.70479
7375.52205,0.69777
7373.59331,0.68801
7371.66456,0.68609
7369.73582,0.69392
7367.80707,0.70078
7365.87833,0.69925
7363.94958,0.69415
7362.02084,0.69115
7360.09209,0.69079
7358.16335,0.69023
7356.23460,0.68696
7354.30586,0.68447
7352.37711,0.68827
7350.44837,0.69389
7348.51962,0.69237
7346.59088,0.68665
7344.66213,0.68446
7342.73338,0.68551
7340.80464,0.68733
7338.87589,0.68818
7336.94715,0.68520
7335.01840,0.68065
7333.08966,0.68030
7331.16091,0.68190
7329.23217,0.67902
7327.30342,0.67396
7325.37468,0.67391
7323.44593,0.67754
7321.51719,0.67954
7319.58844,0.68005
7317.65970,0.67930
7315.73095,0.67911
7313.80221,0.68253
7311.87346,0.68428
7309.94471,0.67974
7308.01597,0.67393
7306.08722,0.67127
7304.15848,0.67064
7302.22973,0.67101
7300.30099,0.67116
7298.37224,0.66994
7296.44350,0.66843
7294.51475,0.66441
7292.58601,0.65764
7290.65726,0.65309
7288.72852,0.65219
7286.79977,0.65435
7284.87103,0.65842
7282.94228,0.65985
7281.01353,0.65607
7279.08479,0.65101
7277.15604,0.64867
7275.22730,0.64762
7273.29855,0.64540
7271.36981,0.64297
7269.44106,0.64241
7267.51232,0.64284
7265.58357,0.64348
7263.65483,0.64608
7261.72608,0.65001
7259.79734,0.65161
7257.86859,0.64863
7255.93985,0.64299
7254.01110,0.63796
7252.08236,0.63600
7250.15361,0.63877
7248.22486,0.64337
7246.29612,0.64518
7244.36737,0.64570
7242.43863,0.64850
7240.50988,0.65025
7238.58114,0.64663
7236.65239,0.64061
7234.72365,0.63656
7232.79490,0.63455
7230.86616,0.63342
7228.93741,0.63290
7227.00867,0.63274
7225.07992,0.63309
7223.15118,0.63308
7221.22243,0.63173
7219.29369,0.62977
7217.36494,0.62864
7215.43619,0.62970
7213.50745,0.63011
7211.57870,0.62627
7209.64996,0.62331
7207.72121,0.62639
7205.79247,0.63190
7203.86372,0.63425
7201.93498,0.63062
7200.00623,0.62360
7198.07749,0.61978
7196.14874,0.62063
7194.22000,0.62401
7192.29125,0.62783
7190.36251,0.62774
7188.43376,0.62527
7186.50501,0.62635
7184.57627,0.62893
7182.64752,0.62823
7180.71878,0.62380
7178.79003,0.61767
7176.86129,0.61391
7174.93254,0.61452
7173.00380,0.61805
7171.07505,0.62307
7169.14631,0.62480
7167.21756,0.61978
7165.28882,0.61504
7163.36007,0.61698
7161.43133,0.62187
7159.50258,0.62171
7157.57384,0.61555
7155.64509,0.61151
7153.71634,0.61257
7151.78760,0.61357
7149.85885,0.61262
7147.93011,0.61309
7146.00136,0.61604
7144.07262,0.61694
7142.14387,0.61409
7140.21513,0.61169
7138.28638,0.61070
7136.35764,0.60964
7134.42889,0.61070
7132.50015,0.61396
7130.57140,0.61357
7128.64266,0.60862
7126.71391,0.60820
7124.78516,0.61515
7122.85642,0.61817
7120.92767,0.61228
7118.99893,0.60549
7117.07018,0.60122
7115.14144,0.59797
7113.21269,0.59752
7111.28395,0.60007
7109.35520,0.60228
7107.42646,0.60403
7105.49771,0.60699
7103.56897,0.60722
7101.64022,0.60279
7099.71148,0.59901
7097.78273,0.59764
7095.85399,0.59571
7093.92524,0.59295
7091.99649,0.59167
7090.06775,0.59271
7088.13900,0.59525
7086.21026,0.59829
7084.28151,0.60074
7082.35277,0.60207
7080.42402,0.60246
7078.49528,0.60250
7076.56653,0.60224
7074.63779,0.60105
7072.70904,0.59954
7070.78030,0.59857
7068.85155,0.59852
7066.92281,0.59901
7064.99406,0.59840
7063.06532,0.59740
7061.13657,0.59794
7059.20782,0.59850
7057.27908,0.59641
7055.35033,0.59258
7053.42159,0.59038
7051.49284,0.59094
7049.56410,0.59267
7047.63535,0.59378
7045.70661,0.59438
7043.77786,0.59586
7041.84912,0.59963
7039.92037,0.60446
7037.99163,0.60440
7036.06288,0.59949
7034.13414,0.59732
7032.20539,0.59868
7030.27664,0.60035
7028.34790,0.60220
7026.41915,0.60297
7024.49041,0.60295
7022.56166,0.60511
7020.63292,0.60792
7018.70417,0.60766
7016.77543,0.60595
7014.84668,0.60461
7012.91794,0.60121
7010.98919,0.59706
7009.06045,0.59767
7007.13170,0.60144
7005.20296,0.60193
7003.27421,0.60122
7001.34547,0.60359
6999.41672,0.60594
6997.48797,0.60652
6995.55923,0.60786
6993.63048,0.60933
6991.70174,0.60816
6989.77299,0.60536
6987.84425,0.60477
6985.91550,0.60659
6983.98676,0.60819
6982.05801,0.60969
6980.12927,0.61118
6978.20052,0.61125
6976.27178,0.61141
6974.34303,0.61355
6972.41429,0.61643
6970.48554,0.61759
6968.55680,0.61622
6966.62805,0.61486
6964.69930,0.61519
6962.77056,0.61522
6960.84181,0.61406
6958.91307,0.61342
6956.98432,0.61384
6955.05558,0.61486
6953.12683,0.61657
6951.19809,0.61735
6949.26934,0.61594
6947.34060,0.61499
6945.41185,0.61631
6943.48311,0.61773
6941.55436,0.61824
6939.62562,0.61947
6937.69687,0.62141
6935.76812,0.62242
6933.83938,0.62189
6931.91063,0.62029
6929.98189,0.61953
6928.05314,0.62073
6926.12440,0.62070
6924.19565,0.61776
6922.26691,0.61715
6920.33816,0.62147
6918.40942,0.62580
6916.48067,0.62688
6914.55193,0.62444
6912.62318,0.62032
6910.69444,0.61909
6908.76569,0.62179
6906.83695,0.62485
6904.90820,0.62499
6902.97945,0.62445
6901.05071,0.62683
6899.12196,0.62787
6897.19322,0.62515
6895.26447,0.62401
6893.33573,0.62616
6891.40698,0.62930
6889.47824,0.63100
6887.54949,0.62966
6885.62075,0.62793
6883.69200,0.62906
6881.76326,0.63183
6879.83451,0.63314
6877.90577,0.63242
6875.97702,0.63198
6874.04828,0.63268
6872.11953,0.63231
6870.19078,0.63075
6868.26204,0.63004
6866.33329,0.62920
6864.40455,0.62720
6862.47580,0.62677
6860.54706,0.62934
6858.61831,0.63286
6856.68957,0.63566
6854.76082,0.63742
6852.83208,0.63790
6850.90333,0.63666
6848.97459,0.63481
6847.04584,0.63557
6845.11710,0.63916
6843.18835,0.64107
6841.25960,0.63993
6839.33086,0.63867
6837.40211,0.63719
6835.47337,0.63472
6833.54462,0.63486
6831.61588,0.63874
6829.68713,0.64092
6827.75839,0.63872
6825.82964,0.63667
6823.90090,0.63739
6821.97215,0.63804
6820.04341,0.63653
6818.11466,0.63465
6816.18592,0.63529
6814.25717,0.63773
6812.32843,0.63969
6810.39968,0.64147
6808.47093,0.64244
6806.54219,0.64123
6804.61344,0.63842
6802.68470,0.63517
6800.75595,0.63373
6798.82721,0.63465
6796.89846,0.63548
6794.96972,0.63534
6793.04097,0.63521
6791.11223,0.63631
6789.18348,0.63855
6787.25474,0.63952
6785.32599,0.63981
6783.39725,0.64206
6781.46850,0.64468
6779.53975,0.64559
6777.61101,0.64625
6775.68226,0.64806
6773.75352,0.64991
6771.82477,0.64902
6769.89603,0.64440
6767.96728,0.63885
6766.03854,0.63681
6764.10979,0.63929
6762.18105,0.64187
6760.25230,0.64154
6758.32356,0.64067
6756.39481,0.64082
6754.46607,0.64100
6752.53732,0.64054
6750.60858,0.63973
6748.67983,0.64005
6746.75108,0.64198
6744.82234,0.64373
6742.89359,0.64414
6740.96485,0.64354
6739.03610,0.64261
6737.10736,0.64215
6735.17861,0.64227
6733.24987,0.64227
6731.32112,0.64288
6729.39238,0.64530
6727.46363,0.64775
6725.53489,0.64781
6723.60614,0.64679
6721.67740,0.64692
6719.74865,0.64740
6717.81991,0.64727
6715.89116,0.64807
6713.96241,0.64989
6712.03367,0.64981
6710.10492,0.64725
6708.17618,0.64478
6706.24743,0.64403
6704.31869,0.64598
6702.38994,0.64917
6700.46120,0.64997
6698.53245,0.64885
6696.60371,0.64834
6694.67496,0.64982
6692.74622,0.65242
6690.81747,0.65233
6688.88873,0.64903
6686.95998,0.64674
6685.03123,0.64773
6683.10249,0.64978
6681.17374,0.65082
6679.24500,0.65171
6677.31625,0.65242
6675.38751,0.65212
6673.45876,0.65198
6671.53002,0.65266
6669.60127,0.65185
6667.67253,0.64814
6665.74378,0.64569
6663.81504,0.64879
6661.88629,0.65393
6659.95755,0.65462
6658.02880,0.65227
6656.10006,0.65285
6654.17131,0.65654
6652.24256,0.65917
6650.31382,0.65958
6648.38507,0.65903
6646.45633,0.65743
6644.52758,0.65559
6642.59884,0.65474
6640.67009,0.65350
6638.74135,0.65139
6636.81260,0.64977
6634.88386,0.65029
6632.95511,0.65332
6631.02637,0.65640
6629.09762,0.65837
6627.16888,0.65950
6625.24013,0.65827
6623.31139,0.65411
6621.38264,0.64979
6619.45389,0.64894
6617.52515,0.65142
6615.59640,0.65412
6613.66766,0.65515
6611.73891,0.65478
6609.81017,0.65500
6607.88142,0.65650
6605.95268,0.65725
6604.02393,0.65606
6602.09519,0.65355
6600.16644,0.65164
6598.23770,0.65165
6596.30895,0.65207
6594.38021,0.65212
6592.45146,0.65311
6590.52271,0.65507
6588.59397,0.65675
6586.66522,0.65739
6584.73648,0.65731
6582.80773,0.65709
6580.87899,0.65697
6578.95024,0.65647
6577.02150,0.65462
6575.09275,0.65277
6573.16401,0.65316
6571.23526,0.65518
6569.30652,0.65773
6567.37777,0.66018
6565.44903,0.66041
6563.52028,0.65794
6561.59154,0.65548
6559.66279,0.65471
6557.73404,0.65550
6555.80530,0.65715
6553.87655,0.65818
6551.94781,0.65785
6550.01906,0.65698
6548.09032,0.65596
6546.16157,0.65452
6544.23283,0.65409
6542.30408,0.65605
6540.37534,0.65787
6538.44659,0.65729
6536.51785,0.65574
6534.58910,0.65423
6532.66036,0.65405
6530.73161,0.65601
6528.80287,0.65705
6526.87412,0.65635
6524.94537,0.65545
6523.01663,0.65369
6521.08788,0.65183
6519.15914,0.65209
6517.23039,0.65387
6515.30165,0.65514
6513.37290,0.65595
6511.44416,0.65734
6509.51541,0.65825
6507.58667,0.65736
6505.65792,0.65594
6503.72918,0.65560
6501.80043,0.65612
6499.87169,0.65639
6497.94294,0.65556
6496.01419,0.65486
6494.08545,0.65577
6492.15670,0.65698
6490.22796,0.65670
6488.29921,0.65518
6486.37047,0.65460
6484.44172,0.65525
6482.51298,0.65550
6480.58423,0.65643
6478.65549,0.65842
6476.72674,0.65869
6474.79800,0.65708
6472.86925,0.65583
6470.94051,0.65552
6469.01176,0.65640
6467.08302,0.65790
6465.15427,0.65836
6463.22552,0.65840
6461.29678,0.65946
6459.36803,0.66129
6457.43929,0.66202
6455.51054,0.66082
6453.58180,0.65989
6451.65305,0.66011
6449.72431,0.66025
6447.79556,0.66017
6445.86682,0.65965
6443.93807,0.65806
6442.00933,0.65618
6440.08058,0.65568
6438.15184,0.65704
6436.22309,0.65855
6434.29434,0.65884
6432.36560,0.65931
6430.43685,0.66002
6428.50811,0.65947
6426.57936,0.65867
6424.65062,0.65817
6422.72187,0.65757
6420.79313,0.65717
6418.86438,0.65633
6416.93564,0.65572
6415.00689,0.65705
6413.07815,0.65855
6411.14940,0.65783
6409.22066,0.65607
6407.29191,0.65405
6405.36317,0.65194
6403.43442,0.65239
6401.50567,0.65549
6399.57693,0.65716
6397.64818,0.65575
6395.71944,0.65400
6393.79069,0.65368
6391.86195,0.65416
6389.93320,0.65529
6388.00446,0.65541
6386.07571,0.65288
6384.14697,0.65014
6382.21822,0.64895
6380.28948,0.64832
6378.36073,0.64771
6376.43199,0.64724
6374.50324,0.64722
6372.57450,0.64727
6370.64575,0.64678
6368.71700,0.64626
6366.78826,0.64604
6364.85951,0.64599
6362.93077,0.64541
6361.00202,0.64405
6359.07328,0.64237
6357.14453,0.64038
6355.21579,0.63896
6353.28704,0.63866
6351.35830,0.63885
6349.42955,0.64080
6347.50081,0.64489
6345.57206,0.64744
6343.64332,0.64685
6341.71457,0.64506
6339.78582,0.64217
6337.85708,0.63980
6335.92833,0.64052
6333.99959,0.64230
6332.07084,0.64346
6330.14210,0.64469
6328.21335,0.64538
6326.28461,0.64475
6324.35586,0.64325
6322.42712,0.64235
6320.49837,0.64285
6318.56963,0.64327
6316.64088,0.64249
6314.71214,0.64229
6312.78339,0.64417
6310.85465,0.64572
6308.92590,0.64387
6306.99715,0.63934
6305.06841,0.63576
6303.13966,0.63606
6301.21092,0.63978
6299.28217,0.64248
6297.35343,0.64111
6295.42468,0.63851
6293.49594,0.63794
6291.56719,0.63815
6289.63845,0.63762
6287.70970,0.63723
6285.78096,0.63692
6283.85221,0.63629
6281.92347,0.63635
6279.99472,0.63724
6278.06598,0.63842
6276.13723,0.63968
6274.20848,0.64020
6272.27974,0.63884
6270.35099,0.63532
6268.42225,0.63166
6266.49350,0.62964
6264.56476,0.62847
6262.63601,0.62731
6260.70727,0.62702
6258.77852,0.62805
6256.84978,0.62848
6254.92103,0.62724
6252.99229,0.62623
6251.06354,0.62678
6249.13480,0.62866
6247.20605,0.62991
6245.27730,0.62852
6243.34856,0.62617
6241.41981,0.62512
6239.49107,0.62436
6237.56232,0.62291
6235.63358,0.62248
6233.70483,0.62357
6231.77609,0.62338
6229.84734,0.62056
6227.91860,0.61737
6225.98985,0.61597
6224.06111,0.61551
6222.13236,0.61425
6220.20362,0.61260
6218.27487,0.61183
6216.34613,0.61185
6214.41738,0.61103
6212.48863,0.60922
6210.55989,0.60817
6208.63114,0.60770
6206.70240,0.60698
6204.77365,0.60601
6202.84491,0.60496
6200.91616,0.60490
6198.98742,0.60534
6197.05867,0.60392
6195.12993,0.60105
6193.20118,0.59884
6191.27244,0.59674
6189.34369,0.59346
6187.41495,0.58967
6185.48620,0.58696
6183.55746,0.58607
6181.62871,0.58527
6179.69996,0.58269
6177.77122,0.57983
6175.84247,0.57787
6173.91373,0.57535
6171.98498,0.57212
6170.05624,0.56848
6168.12749,0.56387
6166.19875,0.55968
6164.27000,0.55704
6162.34126,0.55408
6160.41251,0.54938
6158.48377,0.54439
6156.55502,0.54066
6154.62628,0.53731
6152.69753,0.53289
6150.76878,0.52723
6148.84004,0.52194
6146.91129,0.51829
6144.98255,0.51466
6143.05380,0.51046
6141.12506,0.50703
6139.19631,0.50343
6137.26757,0.49869
6135.33882,0.49420
6133.41008,0.49068
6131.48133,0.48672
6129.55259,0.48080
6127.62384,0.47345
6125.69510,0.46663
6123.76635,0.46109
6121.83761,0.45635
6119.90886,0.45187
6117.98011,0.44803
6116.05137,0.44620
6114.12262,0.44552
6112.19388,0.44361
6110.26513,0.44076
6108.33639,0.43887
6106.40764,0.43917
6104.47890,0.44152
6102.55015,0.44400
6100.62141,0.44609
6098.69266,0.44954
6096.76392,0.45419
6094.83517,0.45843
6092.90643,0.46144
6090.97768,0.46286
6089.04893,0.46357
6087.12019,0.46393
6085.19144,0.46299
6083.26270,0.46149
6081.33395,0.46072
6079.40521,0.46021
6077.47646,0.45963
6075.54772,0.45984
6073.61897,0.46187
6071.69023,0.46581
6069.76148,0.47001
6067.83274,0.47304
6065.90399,0.47523
6063.97525,0.47646
6062.04650,0.47623
6060.11776,0.47518
6058.18901,0.47438
6056.26026,0.47424
6054.33152,0.47362
6052.40277,0.47168
6050.47403,0.46940
6048.54528,0.46685
6046.61654,0.46244
6044.68779,0.45664
6042.75905,0.45098
6040.83030,0.44433
6038.90156,0.43676
6036.97281,0.43088
6035.04407,0.42606
6033.11532,0.41947
6031.18658,0.41160
6029.25783,0.40463
6027.32909,0.39855
6025.40034,0.39230
6023.47159,0.38566
6021.54285,0.37902
6019.61410,0.37217
6017.68536,0.36503
6015.75661,0.35855
6013.82787,0.35320
6011.89912,0.34826
6009.97038,0.34283
6008.04163,0.33729
6006.11289,0.33225
6004.18414,0.32700
6002.25540,0.32174
6000.32665,0.31733
5998.39791,0.31359
5996.46916,0.30943
5994.54041,0.30404
5992.61167,0.29963
5990.68292,0.29808
5988.75418,0.29655
5986.82543,0.29237
5984.89669,0.28636
5982.96794,0.28090
5981.03920,0.27781
5979.11045,0.27597
5977.18171,0.27365
5975.25296,0.27153
5973.32422,0.27015
5971.39547,0.26918
5969.46673,0.26825
5967.53798,0.26704
5965.60924,0.26647
5963.68049,0.26684
5961.75174,0.26684
5959.82300,0.26629
5957.89425,0.26593
5955.96551,0.26516
5954.03676,0.26426
5952.10802,0.26490
5950.17927,0.26637
5948.25053,0.26738
5946.32178,0.26867
5944.39304,0.27033
5942.46429,0.27165
5940.53555,0.27291
5938.60680,0.27447
5936.67806,0.27626
5934.74931,0.27784
5932.82057,0.27867
5930.89182,0.27931
5928.96307,0.27989
5927.03433,0.27979
5925.10558,0.28013
5923.17684,0.28183
5921.24809,0.28356
5919.31935,0.28427
5917.39060,0.28454
5915.46186,0.28498
5913.53311,0.28492
5911.60437,0.28397
5909.67562,0.28337
5907.74688,0.28330
5905.81813,0.28295
5903.88939,0.28359
5901.96064,0.28516
5900.03189,0.28536
5898.10315,0.28454
5896.17440,0.28407
5894.24566,0.28438
5892.31691,0.28578
5890.38817,0.28774
5888.45942,0.28975
5886.53068,0.29132
5884.60193,0.29205
5882.67319,0.29198
5880.74444,0.29200
5878.81570,0.29366
5876.88695,0.29591
5874.95821,0.29653
5873.02946,0.29617
5871.10072,0.29623
5869.17197,0.29671
5867.24322,0.29719
5865.31448,0.29740
5863.38573,0.29714
5861.45699,0.29617
5859.52824,0.29525
5857.59950,0.29570
5855.67075,0.29667
5853.74201,0.29657
5851.81326,0.29604
5849.88452,0.29585
5847.95577,0.29574
5846.02703,0.29585
5844.09828,0.29626
5842.16954,0.29628
5840.24079,0.29546
5838.31205,0.29427
5836.38330,0.29379
5834.45455,0.29432
5832.52581,0.29480
5830.59706,0.29452
5828.66832,0.29387
5826.73957,0.29336
5824.81083,0.29377
5822.88208,0.29502
5820.95334,0.29527
5819.02459,0.29393
5817.09585,0.29292
5815.16710,0.29314
5813.23836,0.29351
5811.30961,0.29385
5809.38087,0.29421
5807.45212,0.29377
5805.52337,0.29305
5803.59463,0.29335
5801.66588,0.29443
5799.73714,0.29543
5797.80839,0.29614
5795.87965,0.29650
5793.95090,0.29658
5792.02216,0.29727
5790.09341,0.29939
5788.16467,0.30137
5786.23592,0.30155
5784.30718,0.30209
5782.37843,0.30475
5780.44969,0.30755
5778.52094,0.30925
5776.59220,0.31106
5774.66345,0.31376
5772.73470,0.31692
5770.80596,0.31978
5768.87721,0.32241
5766.94847,0.32555
5765.01972,0.32876
5763.09098,0.33166
5761.16223,0.33538
5759.23349,0.33956
5757.30474,0.34206
5755.37600,0.34233
5753.44725,0.34158
5751.51851,0.34071
5749.58976,0.34038
5747.66102,0.34089
5745.73227,0.34167
5743.80352,0.34229
5741.87478,0.34200
5739.94603,0.34030
5738.01729,0.33844
5736.08854,0.33708
5734.15980,0.33551
5732.23105,0.33323
5730.30231,0.33015
5728.37356,0.32679
5726.44482,0.32390
5724.51607,0.32123
5722.58733,0.31852
5720.65858,0.31606
5718.72984,0.31365
5716.80109,0.31120
5714.87235,0.30915
5712.94360,0.30776
5711.01485,0.30692
5709.08611,0.30608
5707.15736,0.30478
5705.22862,0.30335
5703.29987,0.30277
5701.37113,0.30282
5699.44238,0.30247
5697.51364,0.30166
5695.58489,0.30106
5693.65615,0.30147
5691.72740,0.30241
5689.79866,0.30258
5687.86991,0.30243
5685.94117,0.30262
5684.01242,0.30265
5682.08368,0.30273
5680.15493,0.30347
5678.22618,0.30445
5676.29744,0.30484
5674.36869,0.30506
5672.43995,0.30646
5670.51120,0.30854
5668.58246,0.30972
5666.65371,0.31011
5664.72497,0.31053
5662.79622,0.31109
5660.86748,0.31159
5658.93873,0.31208
5657.00999,0.31344
5655.08124,0.31607
5653.15250,0.31849
5651.22375,0.31926
5649.29500,0.31929
5647.36626,0.32030
5645.43751,0.32282
5643.50877,0.32564
5641.58002,0.32723
5639.65128,0.32867
5637.72253,0.33128
5635.79379,0.33368
5633.86504,0.33475
5631.93630,0.33509
5630.00755,0.33609
5628.07881,0.33836
5626.15006,0.34006
5624.22132,0.34014
5622.29257,0.34030
5620.36383,0.34138
5618.43508,0.34261
5616.50633,0.34357
5614.57759,0.34419
5612.64884,0.34436
5610.72010,0.34385
5608.79135,0.34321
5606.86261,0.34384
5604.93386,0.34560
5603.00512,0.34665
5601.07637,0.34645
5599.14763,0.34590
5597.21888,0.34562
5595.29014,0.34576
5593.36139,0.34598
5591.43265,0.34607
5589.50390,0.34697
5587.57516,0.34932
5585.64641,0.35193
5583.71766,0.35370
5581.78892,0.35487
5579.86017,0.35581
5577.93143,0.35683
5576.00268,0.35826
5574.07394,0.35997
5572.14519,0.36147
5570.21645,0.36181
5568.28770,0.36072
5566.35896,0.36005
5564.43021,0.36091
5562.50147,0.36185
5560.57272,0.36256
5558.64398,0.36373
5556.71523,0.36450
5554.78648,0.36442
5552.85774,0.36442
5550.92899,0.36516
5549.00025,0.36620
5547.07150,0.36662
5545.14276,0.36616
5543.21401,0.36565
5541.28527,0.36597
5539.35652,0.36674
5537.42778,0.36696
5535.49903,0.36639
5533.57029,0.36592
5531.64154,0.36622
5529.71280,0.36676
5527.78405,0.36702
5525.85531,0.36723
5523.92656,0.36760
5521.99781,0.36796
5520.06907,0.36818
5518.14032,0.36834
5516.21158,0.36827
5514.28283,0.36813
5512.35409,0.36821
5510.42534,0.36812
5508.49660,0.36819
5506.56785,0.36879
5504.63911,0.36957
5502.71036,0.37053
5500.78162,0.37146
5498.85287,0.37162
5496.92413,0.37149
5494.99538,0.37226
5493.06664,0.37325
5491.13789,0.37340
5489.20914,0.37346
5487.28040,0.37400
5485.35165,0.37433
5483.42291,0.37436
5481.49416,0.37478
5479.56542,0.37565
5477.63667,0.37651
5475.70793,0.37688
5473.77918,0.37651
5471.85044,0.37605
5469.92169,0.37583
5467.99295,0.37527
5466.06420,0.37462
5464.13546,0.37470
5462.20671,0.37549
5460.27796,0.37663
5458.34922,0.37745
5456.42047,0.37736
5454.49173,0.37696
5452.56298,0.37701
5450.63424,0.37747
5448.70549,0.37790
5446.77675,0.37789
5444.84800,0.37732
5442.91926,0.37641
5440.99051,0.37567
5439.06177,0.37563
5437.13302,0.37575
5435.20428,0.37513
5433.27553,0.37459
5431.34679,0.37511
5429.41804,0.37569
5427.48929,0.37564
5425.56055,0.37570
5423.63180,0.37604
5421.70306,0.37599
5419.77431,0.37539
5417.84557,0.37489
5415.91682,0.37456
5413.98808,0.37409
5412.05933,0.37377
5410.13059,0.37378
5408.20184,0.37393
5406.27310,0.37405
5404.34435,0.37381
5402.41561,0.37348
5400.48686,0.37357
5398.55811,0.37363
5396.62937,0.37364
5394.70062,0.37422
5392.77188,0.37460
5390.84313,0.37374
5388.91439,0.37238
5386.98564,0.37191
5385.05690,0.37220
5383.12815,0.37186
5381.19941,0.37103
5379.27066,0.37090
5377.34192,0.37181
5375.41317,0.37273
5373.48443,0.37256
5371.55568,0.37219
5369.62694,0.37255
5367.69819,0.37295
5365.76944,0.37332
5363.84070,0.37461
5361.91195,0.37657
5359.98321,0.37800
5358.05446,0.37857
5356.12572,0.37866
5354.19697,0.37877
5352.26823,0.37922
5350.33948,0.37984
5348.41074,0.38059
5346.48199,0.38149
5344.55325,0.38236
5342.62450,0.38319
5340.69576,0.38362
5338.76701,0.38318
5336.83827,0.38252
5334.90952,0.38258
5332.98077,0.38301
5331.05203,0.38322
5329.12328,0.38351
5327.19454,0.38423
5325.26579,0.38504
5323.33705,0.38540
5321.40830,0.38532
5319.47956,0.38521
5317.55081,0.38507
5315.62207,0.38476
5313.69332,0.38486
5311.76458,0.38559
5309.83583,0.38597
5307.90709,0.38524
5305.97834,0.38389
5304.04959,0.38303
5302.12085,0.38283
5300.19210,0.38246
5298.26336,0.38194
5296.33461,0.38173
5294.40587,0.38103
5292.47712,0.37955
5290.54838,0.37815
5288.61963,0.37700
5286.69089,0.37595
5284.76214,0.37518
5282.83340,0.37411
5280.90465,0.37175
5278.97591,0.36881
5277.04716,0.36636
5275.11842,0.36398
5273.18967,0.36150
5271.26092,0.35952
5269.33218,0.35787
5267.40343,0.35584
5265.47469,0.35338
5263.54594,0.35125
5261.61720,0.34973
5259.68845,0.34792
5257.75971,0.34551
5255.83096,0.34362
5253.90222,0.34294
5251.97347,0.34269
5250.04473,0.34230
5248.11598,0.34222
5246.18724,0.34296
5244.25849,0.34444
5242.32975,0.34580
5240.40100,0.34619
5238.47225,0.34625
5236.54351,0.34722
5234.61476,0.34878
5232.68602,0.35003
5230.75727,0.35118
5228.82853,0.35287
5226.89978,0.35497
5224.97104,0.35696
5223.04229,0.35875
5221.11355,0.36060
5219.18480,0.36231
5217.25606,0.36365
5215.32731,0.36515
5213.39857,0.36701
5211.46982,0.36847
5209.54107,0.36966
5207.61233,0.37131
5205.68358,0.37271
5203.75484,0.37315
5201.82609,0.37300
5199.89735,0.37263
5197.96860,0.37247
5196.03986,0.37266
5194.11111,0.37271
5192.18237,0.37246
5190.25362,0.37230
5188.32488,0.37231
5186.39613,0.37207
5184.46739,0.37161
5182.53864,0.37138
5180.60990,0.37130
5178.68115,0.37076
5176.75240,0.36955
5174.82366,0.36833
5172.89491,0.36745
5170.96617,0.36683
5169.03742,0.36638
5167.10868,0.36557
5165.17993,0.36418
5163.25119,0.36262
5161.32244,0.36163
5159.39370,0.36133
5157.46495,0.36078
5155.53621,0.35924
5153.60746,0.35729
5151.67872,0.35606
5149.74997,0.35545
5147.82123,0.35438
5145.89248,0.35287
5143.96373,0.35161
5142.03499,0.35106
5140.10624,0.35148
5138.17750,0.35246
5136.24875,0.35371
5134.32001,0.35565
5132.39126,0.35833
5130.46252,0.36121
5128.53377,0.36380
5126.60503,0.36615
5124.67628,0.36824
5122.74754,0.36984
5120.81879,0.37106
5118.89005,0.37214
5116.96130,0.37367
5115.03255,0.37592
5113.10381,0.37782
5111.17506,0.37854
5109.24632,0.37876
5107.31757,0.37937
5105.38883,0.38034
5103.46008,0.38141
5101.53134,0.38217
5099.60259,0.38234
5097.67385,0.38268
5095.74510,0.38364
5093.81636,0.38441
5091.88761,0.38417
5089.95887,0.38328
5088.03012,0.38306
5086.10138,0.38368
5084.17263,0.38425
5082.24388,0.38478
5080.31514,0.38570
5078.38639,0.38665
5076.45765,0.38692
5074.52890,0.38650
5072.60016,0.38582
5070.67141,0.38523
5068.74267,0.38530
5066.81392,0.38602
5064.88518,0.38665
5062.95643,0.38702
5061.02769,0.38729
5059.09894,0.38708
5057.17020,0.38639
5055.24145,0.38598
5053.31270,0.38603
5051.38396,0.38629
5049.45521,0.38688
5047.52647,0.38751
5045.59772,0.38781
5043.66898,0.38800
5041.74023,0.38793
5039.81149,0.38742
5037.88274,0.38684
5035.95400,0.38639
5034.02525,0.38628
5032.09651,0.38657
5030.16776,0.38681
5028.23902,0.38687
5026.31027,0.38689
5024.38153,0.38700
5022.45278,0.38728
5020.52403,0.38737
5018.59529,0.38712
5016.66654,0.38703
5014.73780,0.38732
5012.80905,0.38779
5010.88031,0.38794
5008.95156,0.38757
5007.02282,0.38707
5005.09407,0.38676
5003.16533,0.38649
5001.23658,0.38594
4999.30784,0.38535
4997.37909,0.38527
4995.45035,0.38531
4993.52160,0.38460
4991.59286,0.38336
4989.66411,0.38226
4987.73536,0.38149
4985.80662,0.38110
4983.87787,0.38095
4981.94913,0.38042
4980.02038,0.37965
4978.09164,0.37954
4976.16289,0.37982
4974.23415,0.37939
4972.30540,0.37808
4970.37666,0.37668
4968.44791,0.37577
4966.51917,0.37513
4964.59042,0.37460
4962.66168,0.37458
4960.73293,0.37507
4958.80418,0.37528
4956.87544,0.37477
4954.94669,0.37406
4953.01795,0.37415
4951.08920,0.37528
4949.16046,0.37620
4947.23171,0.37631
4945.30297,0.37631
4943.37422,0.37619
4941.44548,0.37580
4939.51673,0.37569
4937.58799,0.37590
4935.65924,0.37601
4933.73050,0.37581
4931.80175,0.37536
4929.87301,0.37476
4927.94426,0.37409
4926.01551,0.37367
4924.08677,0.37361
4922.15802,0.37368
4920.22928,0.37407
4918.30053,0.37484
4916.37179,0.37532
4914.44304,0.37499
4912.51430,0.37426
4910.58555,0.37358
4908.65681,0.37301
4906.72806,0.37303
4904.79932,0.37378
4902.87057,0.37424
4900.94183,0.37370
4899.01308,0.37247
4897.08434,0.37109
4895.15559,0.37000
4893.22684,0.36909
4891.29810,0.36814
4889.36935,0.36747
4887.44061,0.36666
4885.51186,0.36519
4883.58312,0.36376
4881.65437,0.36284
4879.72563,0.36206
4877.79688,0.36144
4875.86814,0.36137
4873.93939,0.36159
4872.01065,0.36165
4870.08190,0.36176
4868.15316,0.36205
4866.22441,0.36243
4864.29566,0.36300
4862.36692,0.36368
4860.43817,0.36415
4858.50943,0.36429
4856.58068,0.36445
4854.65194,0.36481
4852.72319,0.36488
4850.79445,0.36461
4848.86570,0.36435
4846.93696,0.36402
4845.00821,0.36370
4843.07947,0.36393
4841.15072,0.36456
4839.22198,0.36484
4837.29323,0.36470
4835.36449,0.36475
4833.43574,0.36521
4831.50699,0.36550
4829.57825,0.36526
4827.64950,0.36520
4825.72076,0.36569
4823.79201,0.36587
4821.86327,0.36557
4819.93452,0.36542
4818.00578,0.36545
4816.07703,0.36580
4814.14829,0.36649
4812.21954,0.36674
4810.29080,0.36636
4808.36205,0.36599
4806.43331,0.36574
4804.50456,0.36495
4802.57582,0.36377
4800.64707,0.36294
4798.71832,0.36221
4796.78958,0.36118
4794.86083,0.36025
4792.93209,0.35953
4791.00334,0.35866
4789.07460,0.35751
4787.14585,0.35630
4785.21711,0.35529
4783.28836,0.35425
4781.35962,0.35287
4779.43087,0.35125
4777.50213,0.34962
4775.57338,0.34794
4773.64464,0.34571
4771.71589,0.34328
4769.78714,0.34175
4767.85840,0.34094
4765.92965,0.33994
4764.00091,0.33858
4762.07216,0.33711
4760.14342,0.33577
4758.21467,0.33479
4756.28593,0.33442
4754.35718,0.33459
4752.42844,0.33434
4750.49969,0.33308
4748.57095,0.33142
4746.64220,0.32985
4744.71346,0.32805
4742.78471,0.32581
4740.85597,0.32342
4738.92722,0.32074
4736.99847,0.31721
4735.06973,0.31274
4733.14098,0.30801
4731.21224,0.30344
4729.28349,0.29885
4727.35475,0.29395
4725.42600,0.28828
4723.49726,0.28210
4721.56851,0.27648
4719.63977,0.27168
4717.71102,0.26768
4715.78228,0.26498
4713.85353,0.26358
4711.92479,0.26301
4709.99604,0.26297
4708.06729,0.26310
4706.13855,0.26324
4704.20980,0.26342
4702.28106,0.26308
4700.35231,0.26160
4698.42357,0.25914
4696.49482,0.25617
4694.56608,0.25294
4692.63733,0.24925
4690.70859,0.24453
4688.77984,0.23844
4686.85110,0.23134
4684.92235,0.22362
4682.99361,0.21504
4681.06486,0.20575
4679.13612,0.19676
4677.20737,0.18868
4675.27862,0.18138
4673.34988,0.17511
4671.42113,0.17042
4669.49239,0.16733
4667.56364,0.16562
4665.63490,0.16533
4663.70615,0.16638
4661.77741,0.16847
4659.84866,0.17164
4657.91992,0.17581
4655.99117,0.18021
4654.06243,0.18414
4652.13368,0.18771
4650.20494,0.19082
4648.27619,0.19230
4646.34745,0.19207
4644.41870,0.19114
4642.48995,0.18936
4640.56121,0.18651
4638.63246,0.18333
4636.70372,0.18033
4634.77497,0.17728
4632.84623,0.17411
4630.91748,0.17141
4628.98874,0.16954
4627.05999,0.16859
4625.13125,0.16860
4623.20250,0.16918
4621.27376,0.16955
4619.34501,0.16908
4617.41627,0.16804
4615.48752,0.16704
4613.55877,0.16598
4611.63003,0.16475
4609.70128,0.16392
4607.77254,0.16399
4605.84379,0.16517
4603.91505,0.16762
4601.98630,0.17150
4600.05756,0.17651
4598.12881,0.18179
4596.20007,0.18683
4594.27132,0.19132
4592.34258,0.19461
4590.41383,0.19649
4588.48509,0.19741
4586.55634,0.19729
4584.62760,0.19560
4582.69885,0.19236
4580.77010,0.18829
4578.84136,0.18453
4576.91261,0.18182
4574.98387,0.18026
4573.05512,0.18053
4571.12638,0.18309
4569.19763,0.18737
4567.26889,0.19289
4565.34014,0.19925
4563.41140,0.20545
4561.48265,0.21042
4559.55391,0.21425
4557.62516,0.21775
4555.69642,0.22112
4553.76767,0.22424
4551.83893,0.22735
4549.91018,0.23037
4547.98143,0.23283
4546.05269,0.23434
4544.12394,0.23458
4542.19520,0.23396
4540.26645,0.23337
4538.33771,0.23306
4536.40896,0.23309
4534.48022,0.23363
4532.55147,0.23446
4530.62273,0.23523
4528.69398,0.23539
4526.76524,0.23476
4524.83649,0.23392
4522.90775,0.23317
4520.97900,0.23244
4519.05025,0.23171
4517.12151,0.23100
4515.19276,0.23028
4513.26402,0.22939
4511.33527,0.22827
4509.40653,0.22729
4507.47778,0.22691
4505.54904,0.22696
4503.62029,0.22697
4501.69155,0.22690
4499.76280,0.22670
4497.83406,0.22617
4495.90531,0.22494
4493.97657,0.22259
4492.04782,0.21931
4490.11908,0.21571
4488.19033,0.21238
4486.26158,0.20937
4484.33284,0.20623
4482.40409,0.20308
4480.47535,0.20065
4478.54660,0.19958
4476.61786,0.20022
4474.68911,0.20229
4472.76037,0.20502
4470.83162,0.20790
4468.90288,0.21066
4466.97413,0.21301
4465.04539,0.21451
4463.11664,0.21491
4461.18790,0.21430
4459.25915,0.21273
4457.33041,0.21042
4455.40166,0.20817
4453.47291,0.20629
4451.54417,0.20447
4449.61542,0.20277
4447.68668,0.20143
4445.75793,0.20026
4443.82919,0.19939
4441.90044,0.19932
4439.97170,0.19945
4438.04295,0.19875
4436.11421,0.19744
4434.18546,0.19622
4432.25672,0.19519
4430.32797,0.19396
4428.39923,0.19207
4426.47048,0.18971
4424.54173,0.18744
4422.61299,0.18536
4420.68424,0.18327
4418.75550,0.18100
4416.82675,0.17848
4414.89801,0.17600
4412.96926,0.17368
4411.04052,0.17130
4409.11177,0.16893
4407.18303,0.16651
4405.25428,0.16396
4403.32554,0.16141
4401.39679,0.15870
4399.46805,0.15577
4397.53930,0.15311
4395.61056,0.15083
4393.68181,0.14852
4391.75306,0.14625
4389.82432,0.14429
4387.89557,0.14242
4385.96683,0.14035
4384.03808,0.13814
4382.10934,0.13603
4380.18059,0.13404
4378.25185,0.13208
4376.32310,0.13020
4374.39436,0.12860
4372.46561,0.12729
4370.53687,0.12590
4368.60812,0.12429
4366.67938,0.12275
4364.75063,0.12140
4362.82189,0.12019
4360.89314,0.11902
4358.96439,0.11789
4357.03565,0.11708
4355.10690,0.11663
4353.17816,0.11632
4351.24941,0.11590
4349.32067,0.11528
4347.39192,0.11470
4345.46318,0.11427
4343.53443,0.11382
4341.60569,0.11333
4339.67694,0.11304
4337.74820,0.11306
4335.81945,0.11313
4333.89071,0.11318
4331.96196,0.11342
4330.03321,0.11366
4328.10447,0.11371
4326.17572,0.11358
4324.24698,0.11356
4322.31823,0.11415
4320.38949,0.11533
4318.46074,0.11651
4316.53200,0.11736
4314.60325,0.11794
4312.67451,0.11825
4310.74576,0.11838
4308.81702,0.11840
4306.88827,0.11824
4304.95953,0.11801
4303.03078,0.11785
4301.10204,0.11758
4299.17329,0.11704
4297.24454,0.11652
4295.31580,0.11612
4293.38705,0.11549
4291.45831,0.11472
4289.52956,0.11418
4287.60082,0.11363
4285.67207,0.11281
4283.74333,0.11208
4281.81458,0.11156
4279.88584,0.11100
4277.95709,0.11046
4276.02835,0.10987
4274.09960,0.10910
4272.17086,0.10844
4270.24211,0.10802
4268.31336,0.10762
4266.38462,0.10701
4264.45587,0.10614
4262.52713,0.10516
4260.59838,0.10407
4258.66964,0.10311
4256.74089,0.10255
4254.81215,0.10209
4252.88340,0.10155
4250.95466,0.10136
4249.02591,0.10169
4247.09717,0.10207
4245.16842,0.10222
4243.23968,0.10226
4241.31093,0.10227
4239.38219,0.10249
4237.45344,0.10299
4235.52469,0.10353
4233.59595,0.10405
4231.66720,0.10439
4229.73846,0.10433
4227.80971,0.10413
4225.88097,0.10415
4223.95222,0.10444
4222.02348,0.10480
4220.09473,0.10506
4218.16599,0.10527
4216.23724,0.10547
4214.30850,0.10556
4212.37975,0.10549
4210.45101,0.10548
4208.52226,0.10572
4206.59352,0.10617
4204.66477,0.10674
4202.73602,0.10728
4200.80728,0.10752
4198.87853,0.10763
4196.94979,0.10809
4195.02104,0.10871
4193.09230,0.10911
4191.16355,0.10950
4189.23481,0.11013
4187.30606,0.11075
4185.37732,0.11102
4183.44857,0.11115
4181.51983,0.11160
4179.59108,0.11235
4177.66234,0.11292
4175.73359,0.11312
4173.80484,0.11351
4171.87610,0.11424
4169.94735,0.11482
4168.01861,0.11529
4166.08986,0.11570
4164.16112,0.11587
4162.23237,0.11600
4160.30363,0.11623
4158.37488,0.11633
4156.44614,0.11622
4154.51739,0.11617
4152.58865,0.11633
4150.65990,0.11646
4148.73116,0.11652
4146.80241,0.11674
4144.87367,0.11687
4142.94492,0.11657
4141.01617,0.11608
4139.08743,0.11566
4137.15868,0.11537
4135.22994,0.11520
4133.30119,0.11487
4131.37245,0.11434
4129.44370,0.11388
4127.51496,0.11360
4125.58621,0.11342
4123.65747,0.11325
4121.72872,0.11306
4119.79998,0.11278
4117.87123,0.11240
4115.94249,0.11204
4114.01374,0.11160
4112.08500,0.11098
4110.15625,0.11060
4108.22750,0.11081
4106.29876,0.11111
4104.37001,0.11064
4102.44127,0.10964
4100.51252,0.10911
4098.58378,0.10905
4096.65503,0.10878
4094.72629,0.10826
4092.79754,0.10762
4090.86880,0.10670
4088.94005,0.10558
4087.01131,0.10452
4085.08256,0.10372
4083.15382,0.10290
4081.22507,0.10160
4079.29632,0.10013
4077.36758,0.09883
4075.43883,0.09746
4073.51009,0.09588
4071.58134,0.09434
4069.65260,0.09307
4067.72385,0.09202
4065.79511,0.09123
4063.86636,0.09073
4061.93762,0.09024
4060.00887,0.08958
4058.08013,0.08901
4056.15138,0.08885
4054.22264,0.08906
4052.29389,0.08920
4050.36515,0.08905
4048.43640,0.08891
4046.50765,0.08887
4044.57891,0.08860
4042.65016,0.08803
4040.72142,0.08767
4038.79267,0.08790
4036.86393,0.08866
4034.93518,0.08986
4033.00644,0.09132
4031.07769,0.09267
4029.14895,0.09379
4027.22020,0.09482
4025.29146,0.09593
4023.36271,0.09739
4021.43397,0.09940
4019.50522,0.10167
4017.57648,0.10382
4015.64773,0.10573
4013.71898,0.10726
4011.79024,0.10843
4009.86149,0.10924
4007.93275,0.10951
4006.00400,0.10944
4004.07526,0.10965
4002.14651,0.11025
4000.21777,0.11101
3998.28902,0.11193
3996.36028,0.11299
3994.43153,0.11383
3992.50279,0.11448
3990.57404,0.11515
3988.64530,0.11546
3986.71655,0.11521
3984.78780,0.11492
3982.85906,0.11511
3980.93031,0.11556
3979.00157,0.11568
3977.07282,0.11548
3975.14408,0.11546
3973.21533,0.11560
3971.28659,0.11572
3969.35784,0.11622
3967.42910,0.11719
3965.50035,0.11793
3963.57161,0.11810
3961.64286,0.11808
3959.71412,0.11806
3957.78537,0.11791
3955.85663,0.11793
3953.92788,0.11814
3951.99913,0.11817
3950.07039,0.11802
3948.14164,0.11768
3946.21290,0.11723
3944.28415,0.11690
3942.35541,0.11677
3940.42666,0.11673
3938.49792,0.11648
3936.56917,0.11607
3934.64043,0.11602
3932.71168,0.11635
3930.78294,0.11655
3928.85419,0.11659
3926.92545,0.11675
3924.99670,0.11701
3923.06795,0.11726
3921.13921,0.11746
3919.21046,0.11739
3917.28172,0.11704
3915.35297,0.11679
3913.42423,0.11702
3911.49548,0.11754
3909.56674,0.11791
3907.63799,0.11798
3905.70925,0.11792
3903.78050,0.11816
3901.85176,0.11876
3899.92301,0.11900
3897.99427,0.11883
3896.06552,0.11903
3894.13678,0.11985
3892.20803,0.12070
3890.27928,0.12090
3888.35054,0.12080
3886.42179,0.12107
3884.49305,0.12150
3882.56430,0.12161
3880.63556,0.12151
3878.70681,0.12157
3876.77807,0.12191
3874.84932,0.12226
3872.92058,0.12251
3870.99183,0.12283
3869.06309,0.12288
3867.13434,0.12265
3865.20560,0.12276
3863.27685,0.12303
3861.34811,0.12296
3859.41936,0.12275
3857.49061,0.12267
3855.56187,0.12267
3853.63312,0.12238
3851.70438,0.12179
3849.77563,0.12142
3847.84689,0.12126
3845.91814,0.12110
3843.98940,0.12082
3842.06065,0.12039
3840.13191,0.12000
3838.20316,0.11976
3836.27442,0.11948
3834.34567,0.11903
3832.41693,0.11856
3830.48818,0.11828
3828.55943,0.11822
3826.63069,0.11815
3824.70194,0.11810
3822.77320,0.11817
3820.84445,0.11807
3818.91571,0.11778
3816.98696,0.11769
3815.05822,0.11783
3813.12947,0.11799
3811.20073,0.11803
3809.27198,0.11793
3807.34324,0.11789
3805.41449,0.11793
3803.48575,0.11806
3801.55700,0.11842
3799.62826,0.11889
3797.69951,0.11936
3795.77076,0.12003
3793.84202,0.12090
3791.91327,0.12154
3789.98453,0.12163
3788.05578,0.12142
3786.12704,0.12150
3784.19829,0.12200
3782.26955,0.12233
3780.34080,0.12221
3778.41206,0.12204
3776.48331,0.12198
3774.55457,0.12171
3772.62582,0.12126
3770.69708,0.12110
3768.76833,0.12126
3766.83959,0.12135
3764.91084,0.12132
3762.98209,0.12141
3761.05335,0.12171
3759.12460,0.12215
3757.19586,0.12276
3755.26711,0.12328
3753.33837,0.12328
3751.40962,0.12283
3749.48088,0.12257
3747.55213,0.12274
3745.62339,0.12288
3743.69464,0.12268
3741.76590,0.12235
3739.83715,0.12201
3737.90841,0.12158
3735.97966,0.12125
3734.05091,0.12089
3732.12217,0.11997
3730.19342,0.11878
3728.26468,0.11778
3726.33593,0.11686
3724.40719,0.11601
3722.47844,0.11549
3720.54970,0.11530
3718.62095,0.11532
3716.69221,0.11552
3714.76346,0.11573
3712.83472,0.11556
3710.90597,0.11492
3708.97723,0.11390
3707.04848,0.11260
3705.11974,0.11136
3703.19099,0.11036
3701.26224,0.10943
3699.33350,0.10851
3697.40475,0.10781
3695.47601,0.10741
3693.54726,0.10688
3691.61852,0.10587
3689.68977,0.10432
3687.76103,0.10223
3685.83228,0.09992
3683.90354,0.09785
3681.97479,0.09623
3680.04605,0.09495
3678.11730,0.09379
3676.18856,0.09253
3674.25981,0.09117
3672.33107,0.09013
3670.40232,0.08921
3668.47357,0.08812
3666.54483,0.08696
3664.61608,0.08582
3662.68734,0.08478
3660.75859,0.08398
3658.82985,0.08350
3656.90110,0.08309
3654.97236,0.08251
3653.04361,0.08213
3651.11487,0.08201
3649.18612,0.08162
3647.25738,0.08114
3645.32863,0.08123
3643.39989,0.08172
3641.47114,0.08221
3639.54239,0.08264
3637.61365,0.08301
3635.68490,0.08327
3633.75616,0.08360
3631.82741,0.08403
3629.89867,0.08437
3627.96992,0.08440
3626.04118,0.08405
3624.11243,0.08370
3622.18369,0.08382
3620.25494,0.08427
3618.32620,0.08437
3616.39745,0.08432
3614.46871,0.08484
3612.53996,0.08570
3610.61122,0.08619
3608.68247,0.08624
3606.75372,0.08618
3604.82498,0.08636
3602.89623,0.08689
3600.96749,0.08739
3599.03874,0.08750
3597.11000,0.08743
3595.18125,0.08746
3593.25251,0.08744
3591.32376,0.08717
3589.39502,0.08694
3587.46627,0.08684
3585.53753,0.08656
3583.60878,0.08590
3581.68004,0.08509
3579.75129,0.08439
3577.82254,0.08397
3575.89380,0.08380
3573.96505,0.08356
3572.03631,0.08328
3570.10756,0.08325
3568.17882,0.08338
3566.25007,0.08320
3564.32133,0.08257
3562.39258,0.08191
3560.46384,0.08152
3558.53509,0.08126
3556.60635,0.08089
3554.67760,0.08054
3552.74886,0.08040
3550.82011,0.08022
3548.89137,0.07974
3546.96262,0.07909
3545.03387,0.07861
3543.10513,0.07864
3541.17638,0.07909
3539.24764,0.07952
3537.31889,0.07960
3535.39015,0.07940
3533.46140,0.07921
3531.53266,0.07910
3529.60391,0.07913
3527.67517,0.07938
3525.74642,0.07968
3523.81768,0.07985
3521.88893,0.08002
3519.96019,0.08032
3518.03144,0.08057
3516.10270,0.08052
3514.17395,0.08027
3512.24520,0.08018
3510.31646,0.08046
3508.38771,0.08099
3506.45897,0.08151
3504.53022,0.08171
3502.60148,0.08165
3500.67273,0.08159
3498.74399,0.08153
3496.81524,0.08146
3494.88650,0.08149
3492.95775,0.08158
3491.02901,0.08159
3489.10026,0.08142
3487.17152,0.08121
3485.24277,0.08123
3483.31402,0.08159
3481.38528,0.08236
3479.45653,0.08323
3477.52779,0.08350
3475.59904,0.08285
3473.67030,0.08210
3471.74155,0.08218
3469.81281,0.08274
3467.88406,0.08280
3465.95532,0.08228
3464.02657,0.08207
3462.09783,0.08248
3460.16908,0.08293
3458.24034,0.08292
3456.31159,0.08274
3454.38285,0.08265
3452.45410,0.08244
3450.52535,0.08210
3448.59661,0.08190
3446.66786,0.08183
3444.73912,0.08186
3442.81037,0.08208
3440.88163,0.08235
3438.95288,0.08239
3437.02414,0.08218
3435.09539,0.08189
3433.16665,0.08167
3431.23790,0.08159
3429.30916,0.08170
3427.38041,0.08205
3425.45167,0.08240
3423.52292,0.08239
3421.59418,0.08212
3419.66543,0.08185
3417.73668,0.08178
3415.80794,0.08187
3413.87919,0.08185
3411.95045,0.08181
3410.02170,0.08196
3408.09296,0.08211
3406.16421,0.08195
3404.23547,0.08169
3402.30672,0.08176
3400.37798,0.08197
3398.44923,0.08195
3396.52049,0.08166
3394.59174,0.08137
3392.66300,0.08136
3390.73425,0.08146
3388.80550,0.08137
3386.87676,0.08122
3384.94801,0.08132
3383.01927,0.08154
3381.09052,0.08163
3379.16178,0.08169
3377.23303,0.08178
3375.30429,0.08163
3373.37554,0.08129
3371.44680,0.08112
3369.51805,0.08123
3367.58931,0.08137
3365.66056,0.08138
3363.73182,0.08136
3361.80307,0.08145
3359.87433,0.08164
3357.94558,0.08189
3356.01683,0.08199
3354.08809,0.08179
3352.15934,0.08152
3350.23060,0.08142
3348.30185,0.08142
3346.37311,0.08130
3344.44436,0.08101
3342.51562,0.08082
3340.58687,0.08090
3338.65813,0.08092
3336.72938,0.08066
3334.80064,0.08038
3332.87189,0.08033
3330.94315,0.08026
3329.01440,0.07980
3327.08566,0.07901
3325.15691,0.07831
3323.22816,0.07786
3321.29942,0.07748
3319.37067,0.07698
3317.44193,0.07627
3315.51318,0.07511
3313.58444,0.07352
3311.65569,0.07183
3309.72695,0.07010
3307.79820,0.06826
3305.86946,0.06647
3303.94071,0.06493
3302.01197,0.06406
3300.08322,0.06405
3298.15448,0.06461
3296.22573,0.06535
3294.29698,0.06616
3292.36824,0.06711
3290.43949,0.06821
3288.51075,0.06938
3286.58200,0.07060
3284.65326,0.07164
3282.72451,0.07244
3280.79577,0.07329
3278.86702,0.07419
3276.93828,0.07479
3275.00953,0.07507
3273.08079,0.07542
3271.15204,0.07609
3269.22330,0.07673
3267.29455,0.07695
3265.36581,0.07697
3263.43706,0.07721
3261.50831,0.07774
3259.57957,0.07832
3257.65082,0.07864
3255.72208,0.07862
3253.79333,0.07847
3251.86459,0.07838
3249.93584,0.07825
3248.00710,0.07819
3246.07835,0.07818
3244.14961,0.07807
3242.22086,0.07796
3240.29212,0.07793
3238.36337,0.07797
3236.43463,0.07808
3234.50588,0.07806
3232.57713,0.07766
3230.64839,0.07706
3228.71964,0.07678
3226.79090,0.07679
3224.86215,0.07688
3222.93341,0.07692
3221.00466,0.07688
3219.07592,0.07690
3217.14717,0.07688
3215.21843,0.07662
3213.28968,0.07644
3211.36094,0.07654
3209.43219,0.07656
3207.50345,0.07635
3205.57470,0.07612
3203.64596,0.07590
3201.71721,0.07562
3199.78846,0.07548
3197.85972,0.07563
3195.93097,0.07574
3194.00223,0.07554
3192.07348,0.07537
3190.14474,0.07547
3188.21599,0.07575
3186.28725,0.07601
3184.35850,0.07610
3182.42976,0.07582
3180.50101,0.07551
3178.57227,0.07565
3176.64352,0.07590
3174.71478,0.07585
3172.78603,0.07558
3170.85729,0.07511
3168.92854,0.07444
3166.99979,0.07389
3165.07105,0.07364
3163.14230,0.07360
3161.21356,0.07380
3159.28481,0.07427
3157.35607,0.07458
3155.42732,0.07445
3153.49858,0.07434
3151.56983,0.07443
3149.64109,0.07421
3147.71234,0.07377
3145.78360,0.07358
3143.85485,0.07344
3141.92611,0.07324
3139.99736,0.07309
3138.06861,0.07299
3136.13987,0.07296
3134.21112,0.07285
3132.28238,0.07257
3130.35363,0.07231
3128.42489,0.07198
3126.49614,0.07135
3124.56740,0.07069
3122.63865,0.07033
3120.70991,0.07013
3118.78116,0.06958
3116.85242,0.06846
3114.92367,0.06720
3112.99493,0.06619
3111.06618,0.06526
3109.13744,0.06434
3107.20869,0.06375
3105.27994,0.06357
3103.35120,0.06345
3101.42245,0.06344
3099.49371,0.06372
3097.56496,0.06392
3095.63622,0.06353
3093.70747,0.06266
3091.77873,0.06176
3089.84998,0.06112
3087.92124,0.06073
3085.99249,0.06043
3084.06375,0.06024
3082.13500,0.06024
3080.20626,0.06039
3078.27751,0.06055
3076.34877,0.06060
3074.42002,0.06050
3072.49127,0.06028
3070.56253,0.06014
3068.63378,0.06013
3066.70504,0.06013
3064.77629,0.06004
3062.84755,0.05990
3060.91880,0.05990
3058.99006,0.06004
3057.06131,0.06028
3055.13257,0.06063
3053.20382,0.06091
3051.27508,0.06102
3049.34633,0.06099
3047.41759,0.06083
3045.48884,0.06053
3043.56009,0.06014
3041.63135,0.05978
3039.70260,0.05956
3037.77386,0.05944
3035.84511,0.05932
3033.91637,0.05916
3031.98762,0.05901
3030.05888,0.05892
3028.13013,0.05905
3026.20139,0.05943
3024.27264,0.05985
3022.34390,0.06015
3020.41515,0.06017
3018.48641,0.06000
3016.55766,0.05998
3014.62892,0.06010
3012.70017,0.06002
3010.77142,0.05974
3008.84268,0.05945
3006.91393,0.05922
3004.98519,0.05905
3003.05644,0.05913
3001.12770,0.05957
2999.19895,0.06011
2997.27021,0.06028
2995.34146,0.06006
2993.41272,0.05980
2991.48397,0.05952
2989.55523,0.05915
2987.62648,0.05895
2985.69774,0.05909
2983.76899,0.05927
2981.84025,0.05922
2979.91150,0.05901
2977.98275,0.05889
2976.05401,0.05910
2974.12526,0.05937
2972.19652,0.05924
2970.26777,0.05882
2968.33903,0.05848
2966.41028,0.05853
2964.48154,0.05877
2962.55279,0.05876
2960.62405,0.05858
2958.69530,0.05855
2956.76656,0.05862
2954.83781,0.05857
2952.90907,0.05850
2950.98032,0.05837
2949.05157,0.05813
2947.12283,0.05815
2945.19408,0.05854
2943.26534,0.05883
2941.33659,0.05876
2939.40785,0.05874
2937.47910,0.05910
2935.55036,0.05964
2933.62161,0.06009
2931.69287,0.06047
2929.76412,0.06092
2927.83538,0.06133
2925.90663,0.06167
2923.97789,0.06189
2922.04914,0.06199
2920.12040,0.06217
2918.19165,0.06235
2916.26290,0.06238
2914.33416,0.06235
2912.40541,0.06217
2910.47667,0.06184
2908.54792,0.06161
2906.61918,0.06148
2904.69043,0.06137
2902.76169,0.06137
2900.83294,0.06138
2898.90420,0.06130
2896.97545,0.06123
2895.04671,0.06125
2893.11796,0.06134
2891.18922,0.06147
2889.26047,0.06156
2887.33172,0.06151
2885.40298,0.06141
2883.47423,0.06147
2881.54549,0.06162
2879.61674,0.06174
2877.68800,0.06178
2875.75925,0.06177
2873.83051,0.06176
2871.90176,0.06173
2869.97302,0.06169
2868.04427,0.06183
2866.11553,0.06209
2864.18678,0.06203
2862.25804,0.06166
2860.32929,0.06149
2858.40055,0.06158
2856.47180,0.06173
2854.54305,0.06207
2852.61431,0.06257
2850.68556,0.06289
2848.75682,0.06286
2846.82807,0.06267
2844.89933,0.06243
2842.97058,0.06232
2841.04184,0.06240
2839.11309,0.06235
2837.18435,0.06214
2835.25560,0.06200
2833.32686,0.06211
2831.39811,0.06238
2829.46937,0.06249
2827.54062,0.06250
2825.61188,0.06287
2823.68313,0.06353
2821.75438,0.06392
2819.82564,0.06393
2817.89689,0.06393
2815.96815,0.06416
2814.03940,0.06451
2812.11066,0.06471
2810.18191,0.06483
2808.25317,0.06500
2806.32442,0.06515
2804.39568,0.06539
2802.46693,0.06574
2800.53819,0.06599
2798.60944,0.06611
2796.68070,0.06615
2794.75195,0.06615
2792.82320,0.06623
2790.89446,0.06633
2788.96571,0.06642
2787.03697,0.06657
2785.10822,0.06663
2783.17948,0.06671
2781.25073,0.06704
2779.32199,0.06749
2777.39324,0.06787
2775.46450,0.06815
2773.53575,0.06830
2771.60701,0.06832
2769.67826,0.06828
2767.74952,0.06836
2765.82077,0.06863
2763.89203,0.06894
2761.96328,0.06907
2760.03453,0.06917
2758.10579,0.06939
2756.17704,0.06957
2754.24830,0.06956
2752.31955,0.06943
2750.39081,0.06939
2748.46206,0.06950
2746.53332,0.06953
2744.60457,0.06941
2742.67583,0.06933
2740.74708,0.06931
2738.81834,0.06935
2736.88959,0.06941
2734.96085,0.06933
2733.03210,0.06915
2731.10336,0.06909
2729.17461,0.06918
2727.24586,0.06929
2725.31712,0.06932
2723.38837,0.06924
2721.45963,0.06918
2719.53088,0.06912
2717.60214,0.06899
2715.67339,0.06890
2713.74465,0.06894
2711.81590,0.06905
2709.88716,0.06912
2707.95841,0.06908
2706.02967,0.06900
2704.10092,0.06899
2702.17218,0.06896
2700.24343,0.06891
2698.31468,0.06897
2696.38594,0.06908
2694.45719,0.06904
2692.52845,0.06898
2690.59970,0.06901
2688.67096,0.06901
2686.74221,0.06887
2684.81347,0.06859
2682.88472,0.06829
2680.95598,0.06819
2679.02723,0.06829
2677.09849,0.06835
2675.16974,0.06826
2673.24100,0.06818
2671.31225,0.06824
2669.38351,0.06828
2667.45476,0.06811
2665.52601,0.06802
2663.59727,0.06822
2661.66852,0.06832
2659.73978,0.06822
2657.81103,0.06827
2655.88229,0.06845
2653.95354,0.06855
2652.02480,0.06853
2650.09605,0.06842
2648.16731,0.06833
2646.23856,0.06835
2644.30982,0.06847
2642.38107,0.06847
2640.45233,0.06828
2638.52358,0.06806
2636.59484,0.06790
2634.66609,0.06774
2632.73734,0.06760
2630.80860,0.06768
2628.87985,0.06816
2626.95111,0.06873
2625.02236,0.06904
2623.09362,0.06905
2621.16487,0.06884
2619.23613,0.06863
2617.30738,0.06857
2615.37864,0.06865
2613.44989,0.06877
2611.52115,0.06878
2609.59240,0.06861
2607.66366,0.06851
2605.73491,0.06856
2603.80616,0.06862
2601.87742,0.06872
2599.94867,0.06893
2598.01993,0.06915
2596.09118,0.06929
2594.16244,0.06940
2592.23369,0.06954
2590.30495,0.06959
2588.37620,0.06947
2586.44746,0.06936
2584.51871,0.06932
2582.58997,0.06940
2580.66122,0.06958
2578.73248,0.06967
2576.80373,0.06958
2574.87499,0.06949
2572.94624,0.06956
2571.01749,0.06967
2569.08875,0.06970
2567.16000,0.06972
2565.23126,0.06974
2563.30251,0.06971
2561.37377,0.06973
2559.44502,0.06978
2557.51628,0.06969
2555.58753,0.06946
2553.65879,0.06927
2551.73004,0.06922
2549.80130,0.06927
2547.87255,0.06924
2545.94381,0.06912
2544.01506,0.06900
2542.08631,0.06909
2540.15757,0.06948
2538.22882,0.06987
2536.30008,0.06992
2534.37133,0.06971
2532.44259,0.06943
2530.51384,0.06913
2528.58510,0.06892
2526.65635,0.06885
2524.72761,0.06886
2522.79886,0.06882
2520.87012,0.06874
2518.94137,0.06877
2517.01263,0.06888
2515.08388,0.06898
2513.15514,0.06905
2511.22639,0.06903
2509.29764,0.06897
2507.36890,0.06906
2505.44015,0.06925
2503.51141,0.06922
2501.58266,0.06903
2499.65392,0.06898
2497.72517,0.06911
2495.79643,0.06924
2493.86768,0.06939
2491.93894,0.06963
2490.01019,0.06980
2488.08145,0.06986
2486.15270,0.06987
2484.22396,0.06993
2482.29521,0.07017
2480.36647,0.07056
2478.43772,0.07083
2476.50897,0.07084
2474.58023,0.07076
2472.65148,0.07070
2470.72274,0.07063
2468.79399,0.07066
2466.86525,0.07079
2464.93650,0.07088
2463.00776,0.07085
2461.07901,0.07074
2459.15027,0.07069
2457.22152,0.07074
2455.29278,0.07073
2453.36403,0.07056
2451.43529,0.07040
2449.50654,0.07040
2447.57779,0.07044
2445.64905,0.07034
2443.72030,0.07013
2441.79156,0.07003
2439.86281,0.07010
2437.93407,0.07026
2436.00532,0.07038
2434.07658,0.07046
2432.14783,0.07051
2430.21909,0.07045
2428.29034,0.07031
2426.36160,0.07021
2424.43285,0.07004
2422.50411,0.06982
2420.57536,0.06974
2418.64662,0.06981
2416.71787,0.06987
2414.78912,0.06985
2412.86038,0.06968
2410.93163,0.06943
2409.00289,0.06928
2407.07414,0.06926
2405.14540,0.06925
2403.21665,0.06913
2401.28791,0.06891
2399.35916,0.06889
2397.43042,0.06919
2395.50167,0.06955
2393.57293,0.06965
2391.64418,0.06947
2389.71544,0.06922
2387.78669,0.06898
2385.85795,0.06874
2383.92920,0.06860
2382.00045,0.06860
2380.07171,0.06856
2378.14296,0.06862
2376.21422,0.06889
2374.28547,0.06903
2372.35673,0.06895
2370.42798,0.06881
2368.49924,0.06872
2366.57049,0.06869
2364.64175,0.06861
2362.71300,0.06846
2360.78426,0.06846
2358.85551,0.06852
2356.92677,0.06842
2354.99802,0.06823
2353.06927,0.06806
2351.14053,0.06768
2349.21178,0.06708
2347.28304,0.06659
2345.35429,0.06639
2343.42555,0.06636
2341.49680,0.06640
2339.56806,0.06650
2337.63931,0.06657
2335.71057,0.06664
2333.78182,0.06697
2331.85308,0.06746
2329.92433,0.06774
2327.99559,0.06773
2326.06684,0.06755
2324.13810,0.06734
2322.20935,0.06718
2320.28060,0.06706
2318.35186,0.06693
2316.42311,0.06682
2314.49437,0.06682
2312.56562,0.06688
2310.63688,0.06687
2308.70813,0.06681
2306.77939,0.06675
2304.85064,0.06667
2302.92190,0.06665
2300.99315,0.06681
2299.06441,0.06707
2297.13566,0.06719
2295.20692,0.06716
2293.27817,0.06719
2291.34943,0.06730
2289.42068,0.06732
2287.49193,0.06731
2285.56319,0.06738
2283.63444,0.06731
2281.70570,0.06704
2279.77695,0.06683
2277.84821,0.06684
2275.91946,0.06686
2273.99072,0.06671
2272.06197,0.06637
2270.13323,0.06593
2268.20448,0.06566
2266.27574,0.06566
2264.34699,0.06562
2262.41825,0.06536
2260.48950,0.06487
2258.56075,0.06417
2256.63201,0.06335
2254.70326,0.06256
2252.77452,0.06188
2250.84577,0.06138
2248.91703,0.06102
2246.98828,0.06065
2245.05954,0.06024
2243.13079,0.06000
2241.20205,0.06003
2239.27330,0.06017
2237.34456,0.06032
2235.41581,0.06056
2233.48707,0.06095
2231.55832,0.06136
2229.62958,0.06186
2227.70083,0.06256
2225.77208,0.06336
2223.84334,0.06416
2221.91459,0.06495
2219.98585,0.06562
2218.05710,0.06624
2216.12836,0.06681
2214.19961,0.06706
2212.27087,0.06703
2210.34212,0.06703
2208.41338,0.06714
2206.48463,0.06743
2204.55589,0.06788
2202.62714,0.06819
2200.69840,0.06825
2198.76965,0.06820
2196.84090,0.06805
2194.91216,0.06782
2192.98341,0.06755
2191.05467,0.06726
2189.12592,0.06715
2187.19718,0.06721
2185.26843,0.06727
2183.33969,0.06746
2181.41094,0.06781
2179.48220,0.06820
2177.55345,0.06863
2175.62471,0.06904
2173.69596,0.06923
2171.76722,0.06936
2169.83847,0.06953
2167.90973,0.06959
2165.98098,0.06952
2164.05223,0.06948
2162.12349,0.06955
2160.19474,0.06966
2158.26600,0.06976
2156.33725,0.06980
2154.40851,0.06968
2152.47976,0.06955
2150.55102,0.06965
2148.62227,0.06984
2146.69353,0.06991
2144.76478,0.06995
2142.83604,0.06994
2140.90729,0.06992
2138.97855,0.07001
2137.04980,0.07002
2135.12106,0.06981
2133.19231,0.06959
2131.26356,0.06958
2129.33482,0.06973
2127.40607,0.06977
2125.47733,0.06961
2123.54858,0.06941
2121.61984,0.06925
2119.69109,0.06910
2117.76235,0.06898
2115.83360,0.06896
2113.90486,0.06906
2111.97611,0.06920
2110.04737,0.06925
2108.11862,0.06925
2106.18988,0.06932
2104.26113,0.06938
2102.33238,0.06927
2100.40364,0.06907
2098.47489,0.06899
2096.54615,0.06903
2094.61740,0.06912
2092.68866,0.06924
2090.75991,0.06923
2088.83117,0.06905
2086.90242,0.06893
2084.97368,0.06892
2083.04493,0.06892
2081.11619,0.06885
2079.18744,0.06872
2077.25870,0.06858
2075.32995,0.06841
2073.40121,0.06822
2071.47246,0.06820
2069.54371,0.06841
2067.61497,0.06853
2065.68622,0.06827
2063.75748,0.06787
2061.82873,0.06768
2059.89999,0.06775
2057.97124,0.06792
2056.04250,0.06803
2054.11375,0.06800
2052.18501,0.06783
2050.25626,0.06766
2048.32752,0.06758
2046.39877,0.06747
2044.47003,0.06732
2042.54128,0.06718
2040.61254,0.06703
2038.68379,0.06685
2036.75504,0.06673
2034.82630,0.06669
2032.89755,0.06672
2030.96881,0.06676
2029.04006,0.06665
2027.11132,0.06644
2025.18257,0.06626
2023.25383,0.06619
2021.32508,0.06617
2019.39634,0.06604
2017.46759,0.06579
2015.53885,0.06550
2013.61010,0.06523
2011.68136,0.06523
2009.75261,0.06540
2007.82386,0.06530
2005.89512,0.06497
2003.96637,0.06457
2002.03763,0.06417
2000.10888,0.06389
1998.18014,0.06373
1996.25139,0.06360
1994.32265,0.06340
1992.39390,0.06309
1990.46516,0.06272
1988.53641,0.06249
1986.60767,0.06233
1984.67892,0.06215
1982.75018,0.06203
1980.82143,0.06198
1978.89269,0.06183
1976.96394,0.06157
1975.03519,0.06134
1973.10645,0.06116
1971.17770,0.06095
1969.24896,0.06082
1967.32021,0.06080
1965.39147,0.06082
1963.46272,0.06090
1961.53398,0.06094
1959.60523,0.06077
1957.67649,0.06055
1955.74774,0.06055
1953.81900,0.06072
1951.89025,0.06090
1949.96151,0.06102
1948.03276,0.06106
1946.10402,0.06113
1944.17527,0.06137
1942.24652,0.06155
1940.31778,0.06143
1938.38903,0.06132
1936.46029,0.06151
1934.53154,0.06183
1932.60280,0.06207
1930.67405,0.06224
1928.74531,0.06240
1926.81656,0.06253
1924.88782,0.06259
1922.95907,0.06258
1921.03033,0.06252
1919.10158,0.06249
1917.17284,0.06239
1915.24409,0.06214
1913.31534,0.06193
1911.38660,0.06183
1909.45785,0.06167
1907.52911,0.06134
1905.60036,0.06096
1903.67162,0.06076
1901.74287,0.06076
1899.81413,0.06082
1897.88538,0.06089
1895.95664,0.06087
1894.02789,0.06072
1892.09915,0.06055
1890.17040,0.06044
1888.24166,0.06037
1886.31291,0.06020
1884.38417,0.06004
1882.45542,0.06004
1880.52667,0.06006
1878.59793,0.06000
1876.66918,0.05996
1874.74044,0.06003
1872.81169,0.06028
1870.88295,0.06059
1868.95420,0.06077
1867.02546,0.06081
1865.09671,0.06085
1863.16797,0.06100
1861.23922,0.06126
1859.31048,0.06151
1857.38173,0.06161
1855.45299,0.06164
1853.52424,0.06174
1851.59549,0.06184
1849.66675,0.06181
1847.73800,0.06174
1845.80926,0.06162
1843.88051,0.06131
1841.95177,0.06091
1840.02302,0.06066
1838.09428,0.06055
1836.16553,0.06046
1834.23679,0.06032
1832.30804,0.06020
1830.37930,0.06014
1828.45055,0.06007
1826.52181,0.05997
1824.59306,0.05984
1822.66432,0.05973
1820.73557,0.05961
1818.80682,0.05948
1816.87808,0.05944
1814.94933,0.05961
1813.02059,0.05988
1811.09184,0.05990
1809.16310,0.05962
1807.23435,0.05944
1805.30561,0.05949
1803.37686,0.05957
1801.44812,0.05964
1799.51937,0.05984
1797.59063,0.06009
1795.66188,0.06025
1793.73314,0.06036
1791.80439,0.06034
1789.87565,0.06011
1787.94690,0.05993
1786.01815,0.05998
1784.08941,0.06013
1782.16066,0.06020
1780.23192,0.06022
1778.30317,0.06021
1776.37443,0.06015
1774.44568,0.06023
1772.51694,0.06033
1770.58819,0.06011
1768.65945,0.05976
1766.73070,0.05953
1764.80196,0.05937
1762.87321,0.05916
1760.94447,0.05899
1759.01572,0.05897
1757.08697,0.05904
1755.15823,0.05915
1753.22948,0.05936
1751.30074,0.05963
1749.37199,0.05971
1747.44325,0.05945
1745.51450,0.05907
1743.58576,0.05895
1741.65701,0.05913
1739.72827,0.05945
1737.79952,0.05982
1735.87078,0.06015
1733.94203,0.06024
1732.01329,0.06011
1730.08454,0.06005
1728.15580,0.06008
1726.22705,0.06012
1724.29830,0.06017
1722.36956,0.06030
1720.44081,0.06053
1718.51207,0.06077
1716.58332,0.06091
1714.65458,0.06088
1712.72583,0.06075
1710.79709,0.06070
1708.86834,0.06077
1706.93960,0.06096
1705.01085,0.06121
1703.08211,0.06134
1701.15336,0.06120
1699.22462,0.06106
1697.29587,0.06106
1695.36713,0.06076
1693.43838,0.06030
1691.50963,0.06017
1689.58089,0.06021
1687.65214,0.06014
1685.72340,0.06000
1683.79465,0.05992
1681.86591,0.05986
1679.93716,0.05979
1678.00842,0.05973
1676.07967,0.05969
1674.15093,0.05973
1672.22218,0.05983
1670.29344,0.05993
1668.36469,0.06001
1666.43595,0.06013
1664.50720,0.06019
1662.57845,0.06019
1660.64971,0.06024
1658.72096,0.06037
1656.79222,0.06058
1654.86347,0.06084
1652.93473,0.06083
1651.00598,0.06057
1649.07724,0.06044
1647.14849,0.06023
1645.21975,0.05976
1643.29100,0.05939
1641.36226,0.05933
1639.43351,0.05950
1637.50477,0.05984
1635.57602,0.06031
1633.64728,0.06053
1631.71853,0.06051
1629.78978,0.06056
1627.86104,0.06064
1625.93229,0.06057
1624.00355,0.06029
1622.07480,0.06002
1620.14606,0.06001
1618.21731,0.06011
1616.28857,0.05997
1614.35982,0.05965
1612.43108,0.05939
1610.50233,0.05923
1608.57359,0.05917
1606.64484,0.05926
1604.71610,0.05949
1602.78735,0.05983
1600.85861,0.06021
1598.92986,0.06053
1597.00111,0.06063
1595.07237,0.06045
1593.14362,0.06018
1591.21488,0.06007
1589.28613,0.06006
1587.35739,0.05990
1585.42864,0.05962
1583.49990,0.05943
1581.57115,0.05949
1579.64241,0.05972
1577.71366,0.05984
1575.78492,0.05972
1573.85617,0.05966
1571.92743,0.05975
1569.99868,0.05979
1568.06993,0.05959
1566.14119,0.05934
1564.21244,0.05920
1562.28370,0.05915
1560.35495,0.05911
1558.42621,0.05892
1556.49746,0.05873
1554.56872,0.05874
1552.63997,0.05880
1550.71123,0.05880
1548.78248,0.05873
1546.85374,0.05874
1544.92499,0.05891
1542.99625,0.05919
1541.06750,0.05937
1539.13876,0.05908
1537.21001,0.05873
1535.28126,0.05878
1533.35252,0.05895
1531.42377,0.05904
1529.49503,0.05912
1527.56628,0.05910
1525.63754,0.05895
1523.70879,0.05867
1521.78005,0.05818
1519.85130,0.05779
1517.92256,0.05781
1515.99381,0.05785
1514.06507,0.05763
1512.13632,0.05746
1510.20758,0.05760
1508.27883,0.05789
1506.35008,0.05769
1504.42134,0.05701
1502.49259,0.05645
1500.56385,0.05606
1498.63510,0.05578
1496.70636,0.05590
1494.77761,0.05701
1492.84887,0.05869
1490.92012,0.05985
1488.99138,0.06005
1487.06263,0.05973
1485.13389,0.05929
1483.20514,0.05884
1481.27640,0.05856
1479.34765,0.05847
1477.41891,0.05846
1475.49016,0.05846
1473.56141,0.05843
1471.63267,0.05827
1469.70392,0.05809
1467.77518,0.05787
1465.84643,0.05739
1463.91769,0.05672
1461.98894,0.05605
1460.06020,0.05544
1458.13145,0.05507
1456.20271,0.05553
1454.27396,0.05697
1452.34522,0.05879
1450.41647,0.06027
1448.48773,0.06109
1446.55898,0.06157
1444.63024,0.06188
1442.70149,0.06184
1440.77274,0.06163
1438.84400,0.06160
1436.91525,0.06164
1434.98651,0.06149
1433.05776,0.06132
1431.12902,0.06120
1429.20027,0.06111
1427.27153,0.06115
1425.34278,0.06118
1423.41404,0.06111
1421.48529,0.06106
1419.55655,0.06093
1417.62780,0.06068
1415.69906,0.06052
1413.77031,0.06049
1411.84156,0.06046
1409.91282,0.06037
1407.98407,0.06028
1406.05533,0.06022
1404.12658,0.06016
1402.19784,0.06011
1400.26909,0.06012
1398.34035,0.06020
1396.41160,0.06023
1394.48286,0.06007
1392.55411,0.05988
1390.62537,0.05987
1388.69662,0.05986
1386.76788,0.05971
1384.83913,0.05955
1382.91039,0.05950
1380.98164,0.05953
1379.05289,0.05961
1377.12415,0.05961
1375.19540,0.05960
1373.26666,0.05968
1371.33791,0.05975
1369.40917,0.05967
1367.48042,0.05958
1365.55168,0.05978
1363.62293,0.06015
1361.69419,0.06028
1359.76544,0.06018
1357.83670,0.06010
1355.90795,0.06003
1353.97921,0.05985
1352.05046,0.05963
1350.12172,0.05960
1348.19297,0.05977
1346.26422,0.05990
1344.33548,0.05984
1342.40673,0.05971
1340.47799,0.05960
1338.54924,0.05954
1336.62050,0.05951
1334.69175,0.05944
1332.76301,0.05937
1330.83426,0.05942
1328.90552,0.05953
1326.97677,0.05958
1325.04803,0.05968
1323.11928,0.05990
1321.19054,0.05997
1319.26179,0.05986
1317.33304,0.05982
1315.40430,0.05990
1313.47555,0.05991
1311.54681,0.05990
1309.61806,0.05997
1307.68932,0.06002
1305.76057,0.05989
1303.83183,0.05973
1301.90308,0.05978
1299.97434,0.05988
1298.04559,0.05987
1296.11685,0.05988
1294.18810,0.05995
1292.25936,0.06001
1290.33061,0.06007
1288.40187,0.06023
1286.47312,0.06037
1284.54437,0.06021
1282.61563,0.05986
1280.68688,0.05978
1278.75814,0.06012
1276.82939,0.06052
1274.90065,0.06072
1272.97190,0.06074
1271.04316,0.06063
1269.11441,0.06052
1267.18567,0.06056
1265.25692,0.06073
1263.32818,0.06081
1261.39943,0.06071
1259.47069,0.06052
1257.54194,0.06028
1255.61320,0.06009
1253.68445,0.06005
1251.75570,0.06017
1249.82696,0.06033
1247.89821,0.06037
1245.96947,0.06034
1244.04072,0.06031
1242.11198,0.06020
1240.18323,0.05996
1238.25449,0.05968
1236.32574,0.05955
1234.39700,0.05962
1232.46825,0.05973
1230.53951,0.05979
1228.61076,0.05987
1226.68202,0.06001
1224.75327,0.06007
1222.82452,0.06004
1220.89578,0.05997
1218.96703,0.05985
1217.03829,0.05978
1215.10954,0.05980
1213.18080,0.05988
1211.25205,0.05991
1209.32331,0.05992
1207.39456,0.06001
1205.46582,0.06006
1203.53707,0.05997
1201.60833,0.05985
1199.67958,0.05984
1197.75084,0.06002
1195.82209,0.06024
1193.89335,0.06027
1191.96460,0.06013
1190.03585,0.05993
1188.10711,0.05968
1186.17836,0.05960
1184.24962,0.05984
1182.32087,0.06011
1180.39213,0.06023
1178.46338,0.06035
1176.53464,0.06043
1174.60589,0.06022
1172.67715,0.05990
1170.74840,0.05980
1168.81966,0.05994
1166.89091,0.06013
1164.96217,0.06011
1163.03342,0.06001
1161.10467,0.06010
1159.17593,0.06028
1157.24718,0.06035
1155.31844,0.06040
1153.38969,0.06042
1151.46095,0.06030
1149.53220,0.06009
1147.60346,0.05997
1145.67471,0.05996
1143.74597,0.06000
1141.81722,0.06013
1139.88848,0.06033
1137.95973,0.06038
1136.03099,0.06021
1134.10224,0.06007
1132.17350,0.06006
1130.24475,0.06007
1128.31600,0.05994
1126.38726,0.05974
1124.45851,0.05965
1122.52977,0.05959
1120.60102,0.05958
1118.67228,0.05971
1116.74353,0.05965
1114.81479,0.05928
1112.88604,0.05892
1110.95730,0.05885
1109.02855,0.05914
1107.09981,0.05962
1105.17106,0.05999
1103.24232,0.06003
1101.31357,0.05984
1099.38483,0.05975
1097.45608,0.05975
1095.52733,0.05962
1093.59859,0.05951
1091.66984,0.05956
1089.74110,0.05958
1087.81235,0.05937
1085.88361,0.05913
1083.95486,0.05909
1082.02612,0.05911
1080.09737,0.05918
1078.16863,0.05938
1076.23988,0.05959
1074.31114,0.05970
1072.38239,0.05985
1070.45365,0.06007
1068.52490,0.06021
1066.59615,0.06013
1064.66741,0.05990
1062.73866,0.05975
1060.80992,0.05980
1058.88117,0.05992
1056.95243,0.06005
1055.02368,0.06024
1053.09494,0.06045
1051.16619,0.06043
1049.23745,0.06008
1047.30870,0.05969
1045.37996,0.05971
1043.45121,0.06016
1041.52247,0.06050
1039.59372,0.06033
1037.66498,0.05994
1035.73623,0.05966
1033.80748,0.05960
1031.87874,0.05982
1029.94999,0.06013
1028.02125,0.06017
1026.09250,0.06014
1024.16376,0.06037
1022.23501,0.06081
1020.30627,0.06100
1018.37752,0.06081
1016.44878,0.06060
1014.52003,0.06046
1012.59129,0.06026
1010.66254,0.06005
1008.73380,0.05981
1006.80505,0.05957
1004.87631,0.05938
1002.94756,0.05928
1001.01881,0.05922
999.09007,0.05909
997.16132,0.05905
995.23258,0.05922
993.30383,0.05932
991.37509,0.05908
989.44634,0.05862
987.51760,0.05833
985.58885,0.05842
983.66011,0.05854
981.73136,0.05826
979.80262,0.05796
977.87387,0.05800
975.94513,0.05797
974.01638,0.05755
972.08763,0.05703
970.15889,0.05681
968.23014,0.05703
966.30140,0.05776
964.37265,0.05893
962.44391,0.06018
960.51516,0.06116
958.58642,0.06175
956.65767,0.06193
954.72893,0.06176
952.80018,0.06149
950.87144,0.06136
948.94269,0.06140
947.01395,0.06145
945.08520,0.06137
943.15646,0.06123
941.22771,0.06099
939.29896,0.06062
937.37022,0.06035
935.44147,0.06019
933.51273,0.05995
931.58398,0.05985
929.65524,0.05995
927.72649,0.05979
925.79775,0.05941
923.86900,0.05925
921.94026,0.05921
920.01151,0.05886
918.08277,0.05814
916.15402,0.05760
914.22528,0.05761
912.29653,0.05814
910.36779,0.05899
908.43904,0.05983
906.51029,0.06029
904.58155,0.06034
902.65280,0.06023
900.72406,0.06014
898.79531,0.06012
896.86657,0.06008
894.93782,0.05986
893.00908,0.05950
891.08033,0.05918
889.15159,0.05892
887.22284,0.05882
885.29410,0.05911
883.36535,0.05963
881.43661,0.05980
879.50786,0.05955
877.57911,0.05944
875.65037,0.05961
873.72162,0.05949
871.79288,0.05903
869.86413,0.05883
867.93539,0.05888
866.00664,0.05874
864.07790,0.05853
862.14915,0.05844
860.22041,0.05827
858.29166,0.05806
856.36292,0.05792
854.43417,0.05780
852.50543,0.05778
850.57668,0.05776
848.64794,0.05762
846.71919,0.05762
844.79044,0.05782
842.86170,0.05800
840.93295,0.05814
839.00421,0.05824
837.07546,0.05811
835.14672,0.05772
833.21797,0.05743
831.28923,0.05732
829.36048,0.05717
827.43174,0.05699
825.50299,0.05688
823.57425,0.05694
821.64550,0.05697
819.71676,0.05687
817.78801,0.05679
815.85926,0.05666
813.93052,0.05649
812.00177,0.05635
810.07303,0.05598
808.14428,0.05569
806.21554,0.05597
804.28679,0.05637
802.35805,0.05622
800.42930,0.05558
798.50056,0.05499
796.57181,0.05466
794.64307,0.05453
792.71432,0.05442
790.78558,0.05419
788.85683,0.05389
786.92809,0.05352
784.99934,0.05300
783.07059,0.05229
781.14185,0.05158
779.21310,0.05107
777.28436,0.05069
775.35561,0.05047
773.42687,0.05043
771.49812,0.05042
769.56938,0.05059
767.64063,0.05131
765.71189,0.05258
763.78314,0.05405
761.85440,0.05554
759.92565,0.05705
757.99691,0.05845
756.06816,0.05942
754.13942,0.05970
752.21067,0.05947
750.28192,0.05917
748.35318,0.05905
746.42443,0.05871
744.49569,0.05795
742.56694,0.05733
740.63820,0.05700
738.70945,0.05678
736.78071,0.05658
734.85196,0.05629
732.92322,0.05596
730.99447,0.05541
729.06573,0.05443
727.13698,0.05353
725.20824,0.05314
723.27949,0.05272
721.35074,0.05169
719.42200,0.05028
717.49325,0.04913
715.56451,0.04812
713.63576,0.04659
711.70702,0.04480
709.77827,0.04410
707.84953,0.04585
705.92078,0.05068
703.99204,0.05802
702.06329,0.06694
700.13455,0.07580
698.20580,0.08147
696.27706,0.08192
694.34831,0.07853
692.41957,0.07436
690.49082,0.07131
688.56207,0.06946
686.63333,0.06810
684.70458,0.06688
682.77584,0.06578
680.84709,0.06489
678.91835,0.06458
676.98960,0.06477
675.06086,0.06451
673.13211,0.06363
671.20337,0.06331
669.27462,0.06393
667.34588,0.06412
665.41713,0.06326
663.48839,0.06241
661.55964,0.06212
659.63090,0.06185
657.70215,0.06128
655.77340,0.06095
653.84466,0.06119
651.91591,0.06179
649.98717,0.06245
648.05842,0.06245
646.12968,0.06163
644.20093,0.06071
642.27219,0.06015
640.34344,0.06037
638.41470,0.06150
636.48595,0.06243
634.55721,0.06208
632.62846,0.06086
630.69972,0.06013
628.77097,0.06059
626.84222,0.06143
624.91348,0.06141
622.98473,0.06075
621.05599,0.06095
619.12724,0.06193
617.19850,0.06203
615.26975,0.06095
613.34101,0.06005
611.41226,0.06042
609.48352,0.06123
607.55477,0.06132
605.62603,0.06123
603.69728,0.06139
601.76854,0.06139
599.83979,0.06074
