7497.03301,0.71001
7495.10426,0.70674
7493.17552,0.70636
7491.24677,0.71111
7489.31803,0.71314
7487.38928,0.70934
7485.46054,0.70758
7483.53179,0.71011
7481.60305,0.71125
7479.67430,0.70827
7477.74556,0.70381
7475.81681,0.70472
7473.88807,0.71028
7471.95932,0.71023
7470.03057,0.70314
7468.10183,0.69748
7466.17308,0.69761
7464.24434,0.70147
7462.31559,0.70384
7460.38685,0.70177
7458.45810,0.70025
7456.52936,0.70287
7454.60061,0.70569
7452.67187,0.70579
7450.74312,0.70282
7448.81438,0.70018
7446.88563,0.69975
7444.95689,0.69701
7443.02814,0.69481
7441.09940,0.69681
7439.17065,0.69669
7437.24190,0.69373
7435.31316,0.69458
7433.38441,0.69935
7431.45567,0.70249
7429.52692,0.70135
7427.59818,0.69780
7425.66943,0.69735
7423.74069,0.70089
7421.81194,0.70079
7419.88320,0.69719
7417.95445,0.69753
7416.02571,0.70179
7414.09696,0.70417
7412.16822,0.70130
7410.23947,0.69584
7408.31073,0.69086
7406.38198,0.68992
7404.45323,0.69542
7402.52449,0.69894
7400.59574,0.69450
7398.66700,0.68943
7396.73825,0.68991
7394.80951,0.69186
7392.88076,0.68992
7390.95202,0.68744
7389.02327,0.68915
7387.09453,0.69313
7385.16578,0.69538
7383.23704,0.69481
7381.30829,0.69468
7379.37955,0.69679
7377.45080,0.69603
7375.52205,0.69105
7373.59331,0.69049
7371.66456,0.69557
7369.73582,0.69514
7367.80707,0.68695
7365.87833,0.68132
7363.94958,0.68268
7362.02084,0.68842
7360.09209,0.69441
7358.16335,0.69603
7356.23460,0.69706
7354.30586,0.70270
7352.37711,0.70833
7350.44837,0.70629
7348.51962,0.69465
7346.59088,0.68390
7344.66213,0.68347
7342.73338,0.68679
7340.80464,0.68702
7338.87589,0.68627
7336.94715,0.68567
7335.01840,0.68473
7333.08966,0.68360
7331.16091,0.68164
7329.23217,0.67997
7327.30342,0.67999
7325.37468,0.67950
7323.44593,0.67550
7321.51719,0.67036
7319.58844,0.67065
7317.65970,0.67527
7315.73095,0.67676
7313.80221,0.67436
7311.87346,0.67214
7309.94471,0.67134
7308.01597,0.67060
7306.08722,0.67090
7304.15848,0.67257
7302.22973,0.67228
7300.30099,0.67114
7298.37224,0.67255
7296.44350,0.67518
7294.51475,0.67511
7292.58601,0.66876
7290.65726,0.65975
7288.72852,0.65676
7286.79977,0.65988
7284.87103,0.66156
7282.94228,0.65897
7281.01353,0.65547
7279.08479,0.65347
7277.15604,0.65331
7275.22730,0.65649
7273.29855,0.66259
7271.36981,0.66667
7269.44106,0.66419
7267.51232,0.65615
7265.58357,0.64808
7263.65483,0.64504
7261.72608,0.64831
7259.79734,0.65242
7257.86859,0.65129
7255.93985,0.64760
7254.01110,0.64600
7252.08236,0.64769
7250.15361,0.65128
7248.22486,0.65153
7246.29612,0.64499
7244.36737,0.63527
7242.43863,0.62957
7240.50988,0.63068
7238.58114,0.63376
7236.65239,0.63585
7234.72365,0.63904
7232.79490,0.64079
7230.86616,0.63695
7228.93741,0.63291
7227.00867,0.63430
7225.07992,0.63672
7223.15118,0.63463
7221.22243,0.63150
7219.29369,0.63168
7217.36494,0.63240
7215.43619,0.63160
7213.50745,0.63035
7211.57870,0.62710
7209.64996,0.62225
7207.72121,0.62057
7205.79247,0.62288
7203.86372,0.62602
7201.93498,0.62850
7200.00623,0.62889
7198.07749,0.62714
7196.14874,0.62587
7194.22000,0.62578
7192.29125,0.62572
7190.36251,0.62656
7188.43376,0.62740
7186.50501,0.62414
7184.57627,0.61824
7182.64752,0.61561
7180.71878,0.61781
7178.79003,0.62179
7176.86129,0.62369
7174.93254,0.62177
7173.00380,0.61638
7171.07505,0.61133
7169.14631,0.61123
7167.21756,0.61465
7165.28882,0.61827
7163.36007,0.62248
7161.43133,0.62561
7159.50258,0.62326
7157.57384,0.61832
7155.64509,0.61746
7153.71634,0.61902
7151.78760,0.61867
7149.85885,0.61779
7147.93011,0.61686
7146.00136,0.61475
7144.07262,0.61417
7142.14387,0.61462
7140.21513,0.61342
7138.28638,0.61355
7136.35764,0.61518
7134.42889,0.61489
7132.50015,0.61256
7130.57140,0.60966
7128.64266,0.60815
7126.71391,0.60682
7124.78516,0.60407
7122.85642,0.60327
7120.92767,0.60454
7118.99893,0.60432
7117.07018,0.60321
7115.14144,0.60237
7113.21269,0.60038
7111.28395,0.59769
7109.35520,0.59746
7107.42646,0.59988
7105.49771,0.60092
7103.56897,0.59983
7101.64022,0.60013
7099.71148,0.60219
7097.78273,0.60230
7095.85399,0.59963
7093.92524,0.59821
7091.99649,0.60018
7090.06775,0.60132
7088.13900,0.59773
7086.21026,0.59382
7084.28151,0.59374
7082.35277,0.59425
7080.42402,0.59382
7078.49528,0.59457
7076.56653,0.59658
7074.63779,0.59793
7072.70904,0.59823
7070.78030,0.59860
7068.85155,0.59833
7066.92281,0.59663
7064.99406,0.59423
7063.06532,0.59243
7061.13657,0.59262
7059.20782,0.59555
7057.27908,0.60013
7055.35033,0.60266
7053.42159,0.60215
7051.49284,0.60183
7049.56410,0.60323
7047.63535,0.60415
7045.70661,0.60145
7043.77786,0.59693
7041.84912,0.59518
7039.92037,0.59709
7037.99163,0.60074
7036.06288,0.60403
7034.13414,0.60590
7032.20539,0.60559
7030.27664,0.60357
7028.34790,0.60391
7026.41915,0.60705
7024.49041,0.60704
7022.56166,0.60443
7020.63292,0.60502
7018.70417,0.60657
7016.77543,0.60516
7014.84668,0.60294
7012.91794,0.60259
7010.98919,0.60466
7009.06045,0.60666
7007.13170,0.60489
7005.20296,0.60216
7003.27421,0.60322
7001.34547,0.60608
6999.41672,0.60860
6997.48797,0.61106
6995.55923,0.61129
6993.63048,0.60883
6991.70174,0.60646
6989.77299,0.60429
6987.84425,0.60269
6985.91550,0.60517
6983.98676,0.61043
6982.05801,0.61406
6980.12927,0.61563
6978.20052,0.61645
6976.27178,0.61729
6974.34303,0.61675
6972.41429,0.61512
6970.48554,0.61563
6968.55680,0.61716
6966.62805,0.61705
6964.69930,0.61559
6962.77056,0.61465
6960.84181,0.61484
6958.91307,0.61412
6956.98432,0.61282
6955.05558,0.61377
6953.12683,0.61658
6951.19809,0.61832
6949.26934,0.61782
6947.34060,0.61617
6945.41185,0.61476
6943.48311,0.61467
6941.55436,0.61570
6939.62562,0.61736
6937.69687,0.62044
6935.76812,0.62330
6933.83938,0.62269
6931.91063,0.62047
6929.98189,0.62072
6928.05314,0.62252
6926.12440,0.62244
6924.19565,0.62097
6922.26691,0.62125
6920.33816,0.62317
6918.40942,0.62355
6916.48067,0.62259
6914.55193,0.62308
6912.62318,0.62410
6910.69444,0.62424
6908.76569,0.62412
6906.83695,0.62338
6904.90820,0.62260
6902.97945,0.62393
6901.05071,0.62767
6899.12196,0.63177
6897.19322,0.63408
6895.26447,0.63467
6893.33573,0.63329
6891.40698,0.63012
6889.47824,0.62954
6887.54949,0.63200
6885.62075,0.63220
6883.69200,0.63081
6881.76326,0.63191
6879.83451,0.63474
6877.90577,0.63682
6875.97702,0.63739
6874.04828,0.63592
6872.11953,0.63202
6870.19078,0.62850
6868.26204,0.62856
6866.33329,0.63138
6864.40455,0.63416
6862.47580,0.63632
6860.54706,0.63989
6858.61831,0.64306
6856.68957,0.64139
6854.76082,0.63716
6852.83208,0.63525
6850.90333,0.63494
6848.97459,0.63428
6847.04584,0.63536
6845.11710,0.63911
6843.18835,0.64210
6841.25960,0.64192
6839.33086,0.64032
6837.40211,0.64015
6835.47337,0.64090
6833.54462,0.63969
6831.61588,0.63631
6829.68713,0.63358
6827.75839,0.63414
6825.82964,0.63744
6823.90090,0.64034
6821.97215,0.64102
6820.04341,0.63992
6818.11466,0.63875
6816.18592,0.63949
6814.25717,0.64132
6812.32843,0.64273
6810.39968,0.64420
6808.47093,0.64487
6806.54219,0.64422
6804.61344,0.64391
6802.68470,0.64390
6800.75595,0.64343
6798.82721,0.64269
6796.89846,0.64138
6794.96972,0.64055
6793.04097,0.64128
6791.11223,0.64192
6789.18348,0.64233
6787.25474,0.64317
6785.32599,0.64326
6783.39725,0.64327
6781.46850,0.64329
6779.53975,0.64216
6777.61101,0.64118
6775.68226,0.64097
6773.75352,0.64175
6771.82477,0.64442
6769.89603,0.64734
6767.96728,0.64878
6766.03854,0.64933
6764.10979,0.64892
6762.18105,0.64767
6760.25230,0.64811
6758.32356,0.64932
6756.39481,0.64752
6754.46607,0.64461
6752.53732,0.64374
6750.60858,0.64386
6748.67983,0.64423
6746.75108,0.64493
6744.82234,0.64527
6742.89359,0.64561
6740.96485,0.64650
6739.03610,0.64629
6737.10736,0.64368
6735.17861,0.64225
6733.24987,0.64538
6731.32112,0.65019
6729.39238,0.65224
6727.46363,0.65102
6725.53489,0.64869
6723.60614,0.64744
6721.67740,0.64804
6719.74865,0.64856
6717.81991,0.64704
6715.89116,0.64542
6713.96241,0.64566
6712.03367,0.64711
6710.10492,0.64983
6708.17618,0.65211
6706.24743,0.65105
6704.31869,0.64928
6702.38994,0.65048
6700.46120,0.65308
6698.53245,0.65388
6696.60371,0.65231
6694.67496,0.65069
6692.74622,0.65032
6690.81747,0.64997
6688.88873,0.64946
6686.95998,0.65003
6685.03123,0.65214
6683.10249,0.65442
6681.17374,0.65493
6679.24500,0.65432
6677.31625,0.65460
6675.38751,0.65526
6673.45876,0.65566
6671.53002,0.65679
6669.60127,0.65846
6667.67253,0.65858
6665.74378,0.65619
6663.81504,0.65409
6661.88629,0.65364
6659.95755,0.65272
6658.02880,0.65248
6656.10006,0.65396
6654.17131,0.65411
6652.24256,0.65239
6650.31382,0.65179
6648.38507,0.65332
6646.45633,0.65446
6644.52758,0.65347
6642.59884,0.65319
6640.67009,0.65555
6638.74135,0.65718
6636.81260,0.65684
6634.88386,0.65669
6632.95511,0.65685
6631.02637,0.65802
6629.09762,0.65977
6627.16888,0.65824
6625.24013,0.65409
6623.31139,0.65287
6621.38264,0.65475
6619.45389,0.65516
6617.52515,0.65358
6615.59640,0.65148
6613.66766,0.64845
6611.73891,0.64560
6609.81017,0.64525
6607.88142,0.64805
6605.95268,0.65261
6604.02393,0.65608
6602.09519,0.65612
6600.16644,0.65339
6598.23770,0.65170
6596.30895,0.65299
6594.38021,0.65456
6592.45146,0.65469
6590.52271,0.65489
6588.59397,0.65598
6586.66522,0.65689
6584.73648,0.65741
6582.80773,0.65832
6580.87899,0.65889
6578.95024,0.65875
6577.02150,0.65828
6575.09275,0.65683
6573.16401,0.65540
6571.23526,0.65491
6569.30652,0.65394
6567.37777,0.65335
6565.44903,0.65520
6563.52028,0.65755
6561.59154,0.65790
6559.66279,0.65758
6557.73404,0.65795
6555.80530,0.65794
6553.87655,0.65783
6551.94781,0.65903
6550.01906,0.65945
6548.09032,0.65697
6546.16157,0.65480
6544.23283,0.65552
6542.30408,0.65696
6540.37534,0.65720
6538.44659,0.65709
6536.51785,0.65650
6534.58910,0.65564
6532.66036,0.65709
6530.73161,0.65914
6528.80287,0.65824
6526.87412,0.65618
6524.94537,0.65539
6523.01663,0.65602
6521.08788,0.65816
6519.15914,0.66054
6517.23039,0.66084
6515.30165,0.65994
6513.37290,0.65959
6511.44416,0.65771
6509.51541,0.65460
6507.58667,0.65461
6505.65792,0.65683
6503.72918,0.65690
6501.80043,0.65531
6499.87169,0.65481
6497.94294,0.65571
6496.01419,0.65663
6494.08545,0.65709
6492.15670,0.65711
6490.22796,0.65512
6488.29921,0.65219
6486.37047,0.65214
6484.44172,0.65465
6482.51298,0.65726
6480.58423,0.65916
6478.65549,0.65938
6476.72674,0.65748
6474.79800,0.65577
6472.86925,0.65682
6470.94051,0.65897
6469.01176,0.65906
6467.08302,0.65698
6465.15427,0.65450
6463.22552,0.65347
6461.29678,0.65493
6459.36803,0.65831
6457.43929,0.66204
6455.51054,0.66414
6453.58180,0.66395
6451.65305,0.66262
6449.72431,0.66028
6447.79556,0.65730
6445.86682,0.65659
6443.93807,0.65874
6442.00933,0.65988
6440.08058,0.65873
6438.15184,0.65805
6436.22309,0.65830
6434.29434,0.65775
6432.36560,0.65562
6430.43685,0.65247
6428.50811,0.65160
6426.57936,0.65485
6424.65062,0.65867
6422.72187,0.66025
6420.79313,0.66101
6418.86438,0.66247
6416.93564,0.66304
6415.00689,0.66023
6413.07815,0.65557
6411.14940,0.65308
6409.22066,0.65337
6407.29191,0.65473
6405.36317,0.65658
6403.43442,0.65859
6401.50567,0.65995
6399.57693,0.65980
6397.64818,0.65785
6395.71944,0.65597
6393.79069,0.65571
6391.86195,0.65599
6389.93320,0.65559
6388.00446,0.65474
6386.07571,0.65429
6384.14697,0.65454
6382.21822,0.65466
6380.28948,0.65363
6378.36073,0.65151
6376.43199,0.64904
6374.50324,0.64718
6372.57450,0.64729
6370.64575,0.64839
6368.71700,0.64816
6366.78826,0.64738
6364.85951,0.64739
6362.93077,0.64745
6361.00202,0.64638
6359.07328,0.64357
6357.14453,0.63990
6355.21579,0.63852
6353.28704,0.64163
6351.35830,0.64591
6349.42955,0.64639
6347.50081,0.64359
6345.57206,0.64232
6343.64332,0.64406
6341.71457,0.64465
6339.78582,0.64259
6337.85708,0.64127
6335.92833,0.64190
6333.99959,0.64287
6332.07084,0.64372
6330.14210,0.64515
6328.21335,0.64675
6326.28461,0.64734
6324.35586,0.64658
6322.42712,0.64465
6320.49837,0.64266
6318.56963,0.64204
6316.64088,0.64175
6314.71214,0.64084
6312.78339,0.64123
6310.85465,0.64215
6308.92590,0.64122
6306.99715,0.63985
6305.06841,0.63969
6303.13966,0.64010
6301.21092,0.64076
6299.28217,0.64223
6297.35343,0.64335
6295.42468,0.64240
6293.49594,0.64074
6291.56719,0.63969
6289.63845,0.63924
6287.70970,0.63967
6285.78096,0.63999
6283.85221,0.63937
6281.92347,0.63875
6279.99472,0.63876
6278.06598,0.63946
6276.13723,0.63976
6274.20848,0.63846
6272.27974,0.63750
6270.35099,0.63788
6268.42225,0.63754
6266.49350,0.63649
6264.56476,0.63601
6262.63601,0.63599
6260.70727,0.63566
6258.77852,0.63403
6256.84978,0.63197
6254.92103,0.63102
6252.99229,0.63044
6251.06354,0.62997
6249.13480,0.63021
6247.20605,0.62996
6245.27730,0.62893
6243.34856,0.62869
6241.41981,0.62836
6239.49107,0.62617
6237.56232,0.62428
6235.63358,0.62464
6233.70483,0.62406
6231.77609,0.62121
6229.84734,0.61983
6227.91860,0.62004
6225.98985,0.61910
6224.06111,0.61768
6222.13236,0.61720
6220.20362,0.61773
6218.27487,0.61897
6216.34613,0.61915
6214.41738,0.61722
6212.48863,0.61496
6210.55989,0.61347
6208.63114,0.61188
6206.70240,0.60956
6204.77365,0.60762
6202.84491,0.60793
6200.91616,0.60936
6198.98742,0.60837
6197.05867,0.60432
6195.12993,0.59975
6193.20118,0.59714
6191.27244,0.59617
6189.34369,0.59454
6187.41495,0.59227
6185.48620,0.59129
6183.55746,0.59121
6181.62871,0.59019
6179.69996,0.58854
6177.77122,0.58667
6175.84247,0.58312
6173.91373,0.57841
6171.98498,0.57418
6170.05624,0.56957
6168.12749,0.56433
6166.19875,0.55993
6164.27000,0.55638
6162.34126,0.55293
6160.41251,0.54934
6158.48377,0.54599
6156.55502,0.54343
6154.62628,0.54077
6152.69753,0.53648
6150.76878,0.53044
6148.84004,0.52461
6146.91129,0.52065
6144.98255,0.51720
6143.05380,0.51260
6141.12506,0.50745
6139.19631,0.50255
6137.26757,0.49718
6135.33882,0.49078
6133.41008,0.48446
6131.48133,0.47991
6129.55259,0.47694
6127.62384,0.47313
6125.69510,0.46739
6123.76635,0.46157
6121.83761,0.45751
6119.90886,0.45470
6117.98011,0.45209
6116.05137,0.45016
6114.12262,0.44848
6112.19388,0.44582
6110.26513,0.44391
6108.33639,0.44387
6106.40764,0.44344
6104.47890,0.44250
6102.55015,0.44360
6100.62141,0.44717
6098.69266,0.45202
6096.76392,0.45683
6094.83517,0.46028
6092.90643,0.46246
6090.97768,0.46413
6089.04893,0.46552
6087.12019,0.46643
6085.19144,0.46646
6083.26270,0.46550
6081.33395,0.46464
6079.40521,0.46435
6077.47646,0.46366
6075.54772,0.46353
6073.61897,0.46540
6071.69023,0.46832
6069.76148,0.47104
6067.83274,0.47287
6065.90399,0.47399
6063.97525,0.47534
6062.04650,0.47674
6060.11776,0.47750
6058.18901,0.47808
6056.26026,0.47878
6054.33152,0.47804
6052.40277,0.47494
6050.47403,0.47084
6048.54528,0.46656
6046.61654,0.46144
6044.68779,0.45544
6042.75905,0.44956
6040.83030,0.44457
6038.90156,0.43994
6036.97281,0.43353
6035.04407,0.42493
6033.11532,0.41744
6031.18658,0.41217
6029.25783,0.40633
6027.32909,0.39935
6025.40034,0.39291
6023.47159,0.38670
6021.54285,0.37989
6019.61410,0.37248
6017.68536,0.36445
6015.75661,0.35682
6013.82787,0.35093
6011.89912,0.34646
6009.97038,0.34219
6008.04163,0.33760
6006.11289,0.33365
6004.18414,0.33015
6002.25540,0.32470
6000.32665,0.31756
5998.39791,0.31238
5996.46916,0.30941
5994.54041,0.30530
5992.61167,0.30041
5990.68292,0.29749
5988.75418,0.29491
5986.82543,0.29020
5984.89669,0.28511
5982.96794,0.28131
5981.03920,0.27728
5979.11045,0.27269
5977.18171,0.26993
5975.25296,0.26983
5973.32422,0.27077
5971.39547,0.27105
5969.46673,0.27044
5967.53798,0.26949
5965.60924,0.26802
5963.68049,0.26703
5961.75174,0.26730
5959.82300,0.26698
5957.89425,0.26570
5955.96551,0.26499
5954.03676,0.26500
5952.10802,0.26533
5950.17927,0.26593
5948.25053,0.26658
5946.32178,0.26723
5944.39304,0.26843
5942.46429,0.27035
5940.53555,0.27222
5938.60680,0.27371
5936.67806,0.27523
5934.74931,0.27686
5932.82057,0.27882
5930.89182,0.28109
5928.96307,0.28259
5927.03433,0.28331
5925.10558,0.28364
5923.17684,0.28278
5921.24809,0.28153
5919.31935,0.28181
5917.39060,0.28314
5915.46186,0.28410
5913.53311,0.28438
5911.60437,0.28424
5909.67562,0.28381
5907.74688,0.28331
5905.81813,0.28355
5903.88939,0.28430
5901.96064,0.28413
5900.03189,0.28344
5898.10315,0.28407
5896.17440,0.28595
5894.24566,0.28674
5892.31691,0.28571
5890.38817,0.28512
5888.45942,0.28632
5886.53068,0.28901
5884.60193,0.29241
5882.67319,0.29496
5880.74444,0.29621
5878.81570,0.29675
5876.88695,0.29704
5874.95821,0.29818
5873.02946,0.29982
5871.10072,0.29963
5869.17197,0.29754
5867.24322,0.29619
5865.31448,0.29681
5863.38573,0.29774
5861.45699,0.29774
5859.52824,0.29786
5857.59950,0.29803
5855.67075,0.29702
5853.74201,0.29567
5851.81326,0.29555
5849.88452,0.29647
5847.95577,0.29734
5846.02703,0.29723
5844.09828,0.29619
5842.16954,0.29569
5840.24079,0.29634
5838.31205,0.29736
5836.38330,0.29796
5834.45455,0.29771
5832.52581,0.29740
5830.59706,0.29789
5828.66832,0.29795
5826.73957,0.29714
5824.81083,0.29660
5822.88208,0.29596
5820.95334,0.29490
5819.02459,0.29482
5817.09585,0.29542
5815.16710,0.29533
5813.23836,0.29481
5811.30961,0.29452
5809.38087,0.29459
5807.45212,0.29422
5805.52337,0.29328
5803.59463,0.29362
5801.66588,0.29529
5799.73714,0.29626
5797.80839,0.29651
5795.87965,0.29703
5793.95090,0.29759
5792.02216,0.29813
5790.09341,0.29917
5788.16467,0.30052
5786.23592,0.30181
5784.30718,0.30318
5782.37843,0.30502
5780.44969,0.30742
5778.52094,0.31000
5776.59220,0.31222
5774.66345,0.31442
5772.73470,0.31780
5770.80596,0.32168
5768.87721,0.32442
5766.94847,0.32660
5765.01972,0.32904
5763.09098,0.33143
5761.16223,0.33374
5759.23349,0.33629
5757.30474,0.33899
5755.37600,0.34112
5753.44725,0.34202
5751.51851,0.34204
5749.58976,0.34227
5747.66102,0.34298
5745.73227,0.34350
5743.80352,0.34311
5741.87478,0.34111
5739.94603,0.33844
5738.01729,0.33671
5736.08854,0.33537
5734.15980,0.33365
5732.23105,0.33202
5730.30231,0.33022
5728.37356,0.32787
5726.44482,0.32573
5724.51607,0.32389
5722.58733,0.32127
5720.65858,0.31807
5718.72984,0.31557
5716.80109,0.31391
5714.87235,0.31240
5712.94360,0.31073
5711.01485,0.30896
5709.08611,0.30739
5707.15736,0.30621
5705.22862,0.30476
5703.29987,0.30265
5701.37113,0.30098
5699.44238,0.30068
5697.51364,0.30097
5695.58489,0.30077
5693.65615,0.30074
5691.72740,0.30164
5689.79866,0.30238
5687.86991,0.30252
5685.94117,0.30303
5684.01242,0.30369
5682.08368,0.30372
5680.15493,0.30348
5678.22618,0.30374
5676.29744,0.30467
5674.36869,0.30618
5672.43995,0.30787
5670.51120,0.30907
5668.58246,0.30965
5666.65371,0.30987
5664.72497,0.31001
5662.79622,0.31075
5660.86748,0.31266
5658.93873,0.31489
5657.00999,0.31646
5655.08124,0.31798
5653.15250,0.31975
5651.22375,0.32117
5649.29500,0.32234
5647.36626,0.32372
5645.43751,0.32549
5643.50877,0.32738
5641.58002,0.32856
5639.65128,0.32892
5637.72253,0.32951
5635.79379,0.33136
5633.86504,0.33453
5631.93630,0.33772
5630.00755,0.33963
5628.07881,0.34021
5626.15006,0.34007
5624.22132,0.34016
5622.29257,0.34085
5620.36383,0.34161
5618.43508,0.34272
5616.50633,0.34445
5614.57759,0.34569
5612.64884,0.34578
5610.72010,0.34565
5608.79135,0.34607
5606.86261,0.34652
5604.93386,0.34677
5603.00512,0.34742
5601.07637,0.34816
5599.14763,0.34843
5597.21888,0.34888
5595.29014,0.34958
5593.36139,0.34953
5591.43265,0.34927
5589.50390,0.35019
5587.57516,0.35173
5585.64641,0.35304
5583.71766,0.35438
5581.78892,0.35508
5579.86017,0.35490
5577.93143,0.35576
5576.00268,0.35808
5574.07394,0.36010
5572.14519,0.36122
5570.21645,0.36188
5568.28770,0.36209
5566.35896,0.36254
5564.43021,0.36374
5562.50147,0.36434
5560.57272,0.36361
5558.64398,0.36325
5556.71523,0.36387
5554.78648,0.36420
5552.85774,0.36426
5550.92899,0.36452
5549.00025,0.36459
5547.07150,0.36481
5545.14276,0.36584
5543.21401,0.36714
5541.28527,0.36773
5539.35652,0.36783
5537.42778,0.36823
5535.49903,0.36834
5533.57029,0.36748
5531.64154,0.36681
5529.71280,0.36750
5527.78405,0.36853
5525.85531,0.36866
5523.92656,0.36818
5521.99781,0.36793
5520.06907,0.36827
5518.14032,0.36867
5516.21158,0.36858
5514.28283,0.36847
5512.35409,0.36899
5510.42534,0.36977
5508.49660,0.37007
5506.56785,0.37029
5504.63911,0.37080
5502.71036,0.37104
5500.78162,0.37113
5498.85287,0.37159
5496.92413,0.37207
5494.99538,0.37233
5493.06664,0.37273
5491.13789,0.37327
5489.20914,0.37418
5487.28040,0.37523
5485.35165,0.37555
5483.42291,0.37580
5481.49416,0.37686
5479.56542,0.37764
5477.63667,0.37745
5475.70793,0.37765
5473.77918,0.37826
5471.85044,0.37781
5469.92169,0.37696
5467.99295,0.37673
5466.06420,0.37672
5464.13546,0.37669
5462.20671,0.37685
5460.27796,0.37710
5458.34922,0.37685
5456.42047,0.37645
5454.49173,0.37687
5452.56298,0.37778
5450.63424,0.37817
5448.70549,0.37790
5446.77675,0.37779
5444.84800,0.37798
5442.91926,0.37779
5440.99051,0.37730
5439.06177,0.37685
5437.13302,0.37681
5435.20428,0.37700
5433.27553,0.37663
5431.34679,0.37583
5429.41804,0.37514
5427.48929,0.37463
5425.56055,0.37486
5423.63180,0.37578
5421.70306,0.37615
5419.77431,0.37580
5417.84557,0.37564
5415.91682,0.37572
5413.98808,0.37568
5412.05933,0.37573
5410.13059,0.37572
5408.20184,0.37515
5406.27310,0.37454
5404.34435,0.37420
5402.41561,0.37377
5400.48686,0.37372
5398.55811,0.37414
5396.62937,0.37409
5394.70062,0.37365
5392.77188,0.37337
5390.84313,0.37307
5388.91439,0.37273
5386.98564,0.37277
5385.05690,0.37325
5383.12815,0.37357
5381.19941,0.37360
5379.27066,0.37390
5377.34192,0.37444
5375.41317,0.37449
5373.48443,0.37393
5371.55568,0.37360
5369.62694,0.37405
5367.69819,0.37466
5365.76944,0.37494
5363.84070,0.37552
5361.91195,0.37681
5359.98321,0.37825
5358.05446,0.37938
5356.12572,0.38015
5354.19697,0.38024
5352.26823,0.37979
5350.33948,0.37981
5348.41074,0.38078
5346.48199,0.38166
5344.55325,0.38171
5342.62450,0.38212
5340.69576,0.38359
5338.76701,0.38471
5336.83827,0.38449
5334.90952,0.38412
5332.98077,0.38425
5331.05203,0.38466
5329.12328,0.38569
5327.19454,0.38678
5325.26579,0.38703
5323.33705,0.38669
5321.40830,0.38604
5319.47956,0.38560
5317.55081,0.38591
5315.62207,0.38640
5313.69332,0.38594
5311.76458,0.38468
5309.83583,0.38397
5307.90709,0.38402
5305.97834,0.38391
5304.04959,0.38362
5302.12085,0.38364
5300.19210,0.38357
5298.26336,0.38270
5296.33461,0.38150
5294.40587,0.38084
5292.47712,0.38050
5290.54838,0.37983
5288.61963,0.37900
5286.69089,0.37806
5284.76214,0.37606
5282.83340,0.37311
5280.90465,0.37080
5278.97591,0.36925
5277.04716,0.36725
5275.11842,0.36462
5273.18967,0.36218
5271.26092,0.36005
5269.33218,0.35782
5267.40343,0.35573
5265.47469,0.35394
5263.54594,0.35189
5261.61720,0.34943
5259.68845,0.34688
5257.75971,0.34466
5255.83096,0.34341
5253.90222,0.34279
5251.97347,0.34195
5250.04473,0.34168
5248.11598,0.34253
5246.18724,0.34326
5244.25849,0.34343
5242.32975,0.34391
5240.40100,0.34491
5238.47225,0.34579
5236.54351,0.34649
5234.61476,0.34806
5232.68602,0.35067
5230.75727,0.35301
5228.82853,0.35467
5226.89978,0.35620
5224.97104,0.35767
5223.04229,0.35891
5221.11355,0.36013
5219.18480,0.36199
5217.25606,0.36435
5215.32731,0.36626
5213.39857,0.36747
5211.46982,0.36828
5209.54107,0.36931
5207.61233,0.37117
5205.68358,0.37292
5203.75484,0.37336
5201.82609,0.37311
5199.89735,0.37320
5197.96860,0.37382
5196.03986,0.37453
5194.11111,0.37490
5192.18237,0.37488
5190.25362,0.37475
5188.32488,0.37461
5186.39613,0.37403
5184.46739,0.37292
5182.53864,0.37218
5180.60990,0.37221
5178.68115,0.37258
5176.75240,0.37262
5174.82366,0.37175
5172.89491,0.37024
5170.96617,0.36852
5169.03742,0.36664
5167.10868,0.36512
5165.17993,0.36426
5163.25119,0.36326
5161.32244,0.36209
5159.39370,0.36162
5157.46495,0.36134
5155.53621,0.36024
5153.60746,0.35871
5151.67872,0.35720
5149.74997,0.35558
5147.82123,0.35408
5145.89248,0.35321
5143.96373,0.35308
5142.03499,0.35298
5140.10624,0.35269
5138.17750,0.35327
5136.24875,0.35470
5134.32001,0.35591
5132.39126,0.35734
5130.46252,0.35973
5128.53377,0.36246
5126.60503,0.36485
5124.67628,0.36717
5122.74754,0.36983
5120.81879,0.37270
5118.89005,0.37501
5116.96130,0.37618
5115.03255,0.37711
5113.10381,0.37842
5111.17506,0.37917
5109.24632,0.37908
5107.31757,0.37926
5105.38883,0.38049
5103.46008,0.38227
5101.53134,0.38324
5099.60259,0.38302
5097.67385,0.38282
5095.74510,0.38339
5093.81636,0.38412
5091.88761,0.38409
5089.95887,0.38368
5088.03012,0.38406
5086.10138,0.38500
5084.17263,0.38576
5082.24388,0.38627
5080.31514,0.38672
5078.38639,0.38714
5076.45765,0.38733
5074.52890,0.38726
5072.60016,0.38693
5070.67141,0.38635
5068.74267,0.38622
5066.81392,0.38674
5064.88518,0.38716
5062.95643,0.38739
5061.02769,0.38768
5059.09894,0.38792
5057.17020,0.38821
5055.24145,0.38844
5053.31270,0.38806
5051.38396,0.38720
5049.45521,0.38662
5047.52647,0.38653
5045.59772,0.38664
5043.66898,0.38691
5041.74023,0.38747
5039.81149,0.38825
5037.88274,0.38859
5035.95400,0.38822
5034.02525,0.38783
5032.09651,0.38795
5030.16776,0.38838
5028.23902,0.38866
5026.31027,0.38856
5024.38153,0.38833
5022.45278,0.38819
5020.52403,0.38812
5018.59529,0.38822
5016.66654,0.38862
5014.73780,0.38903
5012.80905,0.38919
5010.88031,0.38873
5008.95156,0.38776
5007.02282,0.38717
5005.09407,0.38705
5003.16533,0.38675
5001.23658,0.38629
4999.30784,0.38569
4997.37909,0.38493
4995.45035,0.38458
4993.52160,0.38469
4991.59286,0.38449
4989.66411,0.38380
4987.73536,0.38320
4985.80662,0.38287
4983.87787,0.38263
4981.94913,0.38238
4980.02038,0.38190
4978.09164,0.38110
4976.16289,0.38047
4974.23415,0.37982
4972.30540,0.37880
4970.37666,0.37831
4968.44791,0.37871
4966.51917,0.37841
4964.59042,0.37691
4962.66168,0.37578
4960.73293,0.37590
4958.80418,0.37637
4956.87544,0.37623
4954.94669,0.37570
4953.01795,0.37538
4951.08920,0.37536
4949.16046,0.37564
4947.23171,0.37623
4945.30297,0.37673
4943.37422,0.37654
4941.44548,0.37610
4939.51673,0.37634
4937.58799,0.37670
4935.65924,0.37653
4933.73050,0.37628
4931.80175,0.37593
4929.87301,0.37528
4927.94426,0.37497
4926.01551,0.37529
4924.08677,0.37574
4922.15802,0.37585
4920.22928,0.37539
4918.30053,0.37496
4916.37179,0.37511
4914.44304,0.37540
4912.51430,0.37553
4910.58555,0.37549
4908.65681,0.37509
4906.72806,0.37416
4904.79932,0.37319
4902.87057,0.37293
4900.94183,0.37310
4899.01308,0.37303
4897.08434,0.37257
4895.15559,0.37171
4893.22684,0.37046
4891.29810,0.36902
4889.36935,0.36789
4887.44061,0.36695
4885.51186,0.36594
4883.58312,0.36539
4881.65437,0.36514
4879.72563,0.36431
4877.79688,0.36330
4875.86814,0.36270
4873.93939,0.36235
4872.01065,0.36236
4870.08190,0.36283
4868.15316,0.36315
4866.22441,0.36325
4864.29566,0.36385
4862.36692,0.36463
4860.43817,0.36489
4858.50943,0.36487
4856.58068,0.36475
4854.65194,0.36460
4852.72319,0.36484
4850.79445,0.36533
4848.86570,0.36543
4846.93696,0.36527
4845.00821,0.36516
4843.07947,0.36488
4841.15072,0.36448
4839.22198,0.36448
4837.29323,0.36489
4835.36449,0.36523
4833.43574,0.36532
4831.50699,0.36521
4829.57825,0.36488
4827.64950,0.36471
4825.72076,0.36520
4823.79201,0.36618
4821.86327,0.36673
4819.93452,0.36634
4818.00578,0.36596
4816.07703,0.36644
4814.14829,0.36694
4812.21954,0.36676
4810.29080,0.36642
4808.36205,0.36586
4806.43331,0.36479
4804.50456,0.36383
4802.57582,0.36334
4800.64707,0.36305
4798.71832,0.36278
4796.78958,0.36221
4794.86083,0.36129
4792.93209,0.36042
4791.00334,0.35981
4789.07460,0.35920
4787.14585,0.35813
4785.21711,0.35671
4783.28836,0.35522
4781.35962,0.35371
4779.43087,0.35213
4777.50213,0.35037
4775.57338,0.34867
4773.64464,0.34711
4771.71589,0.34535
4769.78714,0.34349
4767.85840,0.34172
4765.92965,0.33996
4764.00091,0.33844
4762.07216,0.33740
4760.14342,0.33660
4758.21467,0.33601
4756.28593,0.33565
4754.35718,0.33521
4752.42844,0.33467
4750.49969,0.33405
4748.57095,0.33292
4746.64220,0.33098
4744.71346,0.32858
4742.78471,0.32627
4740.85597,0.32391
4738.92722,0.32097
4736.99847,0.31742
4735.06973,0.31350
4733.14098,0.30909
4731.21224,0.30418
4729.28349,0.29900
4727.35475,0.29337
4725.42600,0.28742
4723.49726,0.28172
4721.56851,0.27660
4719.63977,0.27226
4717.71102,0.26872
4715.78228,0.26605
4713.85353,0.26436
4711.92479,0.26363
4709.99604,0.26350
4708.06729,0.26336
4706.13855,0.26305
4704.20980,0.26252
4702.28106,0.26128
4700.35231,0.25960
4698.42357,0.25834
4696.49482,0.25708
4694.56608,0.25460
4692.63733,0.25050
4690.70859,0.24519
4688.77984,0.23910
4686.85110,0.23216
4684.92235,0.22444
4682.99361,0.21593
4681.06486,0.20633
4679.13612,0.19640
4677.20737,0.18753
4675.27862,0.18043
4673.34988,0.17515
4671.42113,0.17107
4669.49239,0.16813
4667.56364,0.16688
4665.63490,0.16705
4663.70615,0.16823
4661.77741,0.17047
4659.84866,0.17357
4657.91992,0.17708
4655.99117,0.18072
4654.06243,0.18434
4652.13368,0.18782
4650.20494,0.19071
4648.27619,0.19246
4646.34745,0.19299
4644.41870,0.19235
4642.48995,0.19055
4640.56121,0.18786
4638.63246,0.18468
4636.70372,0.18132
4634.77497,0.17802
4632.84623,0.17502
4630.91748,0.17251
4628.98874,0.17055
4627.05999,0.16924
4625.13125,0.16872
4623.20250,0.16905
4621.27376,0.16991
4619.34501,0.17025
4617.41627,0.16922
4615.48752,0.16758
4613.55877,0.16650
4611.63003,0.16571
4609.70128,0.16482
4607.77254,0.16475
4605.84379,0.16635
4603.91505,0.16919
4601.98630,0.17262
4600.05756,0.17661
4598.12881,0.18135
4596.20007,0.18651
4594.27132,0.19112
4592.34258,0.19444
4590.41383,0.19647
4588.48509,0.19753
4586.55634,0.19774
4584.62760,0.19670
4582.69885,0.19394
4580.77010,0.18980
4578.84136,0.18557
4576.91261,0.18253
4574.98387,0.18105
4573.05512,0.18112
4571.12638,0.18328
4569.19763,0.18784
4567.26889,0.19404
4565.34014,0.20025
4563.41140,0.20535
4561.48265,0.20960
4559.55391,0.21342
4557.62516,0.21699
4555.69642,0.22055
4553.76767,0.22421
4551.83893,0.22797
4549.91018,0.23131
4547.98143,0.23376
4546.05269,0.23548
4544.12394,0.23633
4542.19520,0.23618
4540.26645,0.23545
4538.33771,0.23449
4536.40896,0.23383
4534.48022,0.23373
4532.55147,0.23386
4530.62273,0.23410
4528.69398,0.23449
4526.76524,0.23479
4524.83649,0.23474
4522.90775,0.23420
4520.97900,0.23330
4519.05025,0.23238
4517.12151,0.23148
4515.19276,0.23059
4513.26402,0.22985
4511.33527,0.22900
4509.40653,0.22782
4507.47778,0.22678
4505.54904,0.22654
4503.62029,0.22700
4501.69155,0.22769
4499.76280,0.22793
4497.83406,0.22705
4495.90531,0.22540
4493.97657,0.22350
4492.04782,0.22077
4490.11908,0.21693
4488.19033,0.21281
4486.26158,0.20928
4484.33284,0.20642
4482.40409,0.20409
4480.47535,0.20238
4478.54660,0.20156
4476.61786,0.20188
4474.68911,0.20323
4472.76037,0.20546
4470.83162,0.20817
4468.90288,0.21063
4466.97413,0.21269
4465.04539,0.21425
4463.11664,0.21481
4461.18790,0.21446
4459.25915,0.21361
4457.33041,0.21209
4455.40166,0.20976
4453.47291,0.20722
4451.54417,0.20515
4449.61542,0.20361
4447.68668,0.20223
4445.75793,0.20060
4443.82919,0.19908
4441.90044,0.19839
4439.97170,0.19843
4438.04295,0.19830
4436.11421,0.19746
4434.18546,0.19626
4432.25672,0.19507
4430.32797,0.19360
4428.39923,0.19194
4426.47048,0.19049
4424.54173,0.18877
4422.61299,0.18619
4420.68424,0.18337
4418.75550,0.18111
4416.82675,0.17903
4414.89801,0.17651
4412.96926,0.17385
4411.04052,0.17132
4409.11177,0.16885
4407.18303,0.16666
4405.25428,0.16459
4403.32554,0.16202
4401.39679,0.15914
4399.46805,0.15651
4397.53930,0.15410
4395.61056,0.15192
4393.68181,0.14977
4391.75306,0.14713
4389.82432,0.14441
4387.89557,0.14248
4385.96683,0.14098
4384.03808,0.13913
4382.10934,0.13706
4380.18059,0.13505
4378.25185,0.13297
4376.32310,0.13091
4374.39436,0.12903
4372.46561,0.12714
4370.53687,0.12529
4368.60812,0.12380
4366.67938,0.12279
4364.75063,0.12207
4362.82189,0.12134
4360.89314,0.12031
4358.96439,0.11916
4357.03565,0.11813
4355.10690,0.11727
4353.17816,0.11682
4351.24941,0.11661
4349.32067,0.11608
4347.39192,0.11518
4345.46318,0.11423
4343.53443,0.11358
4341.60569,0.11338
4339.67694,0.11326
4337.74820,0.11291
4335.81945,0.11266
4333.89071,0.11280
4331.96196,0.11326
4330.03321,0.11383
4328.10447,0.11418
4326.17572,0.11437
4324.24698,0.11483
4322.31823,0.11554
4320.38949,0.11626
4318.46074,0.11713
4316.53200,0.11806
4314.60325,0.11863
4312.67451,0.11895
4310.74576,0.11919
4308.81702,0.11918
4306.88827,0.11895
4304.95953,0.11867
4303.03078,0.11845
4301.10204,0.11828
4299.17329,0.11775
4297.24454,0.11674
4295.31580,0.11581
4293.38705,0.11514
4291.45831,0.11445
4289.52956,0.11388
4287.60082,0.11355
4285.67207,0.11321
4283.74333,0.11270
4281.81458,0.11194
4279.88584,0.11105
4277.95709,0.11026
4276.02835,0.10969
4274.09960,0.10924
4272.17086,0.10853
4270.24211,0.10736
4268.31336,0.10633
4266.38462,0.10582
4264.45587,0.10519
4262.52713,0.10425
4260.59838,0.10363
4258.66964,0.10319
4256.74089,0.10259
4254.81215,0.10227
4252.88340,0.10234
4250.95466,0.10235
4249.02591,0.10237
4247.09717,0.10247
4245.16842,0.10272
4243.23968,0.10326
4241.31093,0.10372
4239.38219,0.10396
4237.45344,0.10417
4235.52469,0.10428
4233.59595,0.10423
4231.66720,0.10413
4229.73846,0.10421
4227.80971,0.10457
4225.88097,0.10488
4223.95222,0.10492
4222.02348,0.10498
4220.09473,0.10534
4218.16599,0.10595
4216.23724,0.10641
4214.30850,0.10642
4212.37975,0.10632
4210.45101,0.10645
4208.52226,0.10633
4206.59352,0.10593
4204.66477,0.10605
4202.73602,0.10678
4200.80728,0.10762
4198.87853,0.10822
4196.94979,0.10844
4195.02104,0.10874
4193.09230,0.10957
4191.16355,0.11049
4189.23481,0.11089
4187.30606,0.11100
4185.37732,0.11128
4183.44857,0.11175
4181.51983,0.11215
4179.59108,0.11236
4177.66234,0.11283
4175.73359,0.11386
4173.80484,0.11477
4171.87610,0.11508
4169.94735,0.11524
4168.01861,0.11556
4166.08986,0.11583
4164.16112,0.11592
4162.23237,0.11605
4160.30363,0.11628
4158.37488,0.11646
4156.44614,0.11650
4154.51739,0.11650
4152.58865,0.11650
4150.65990,0.11654
4148.73116,0.11661
4146.80241,0.11657
4144.87367,0.11634
4142.94492,0.11603
4141.01617,0.11575
4139.08743,0.11554
4137.15868,0.11538
4135.22994,0.11535
4133.30119,0.11542
4131.37245,0.11529
4129.44370,0.11473
4127.51496,0.11416
4125.58621,0.11401
4123.65747,0.11380
4121.72872,0.11317
4119.79998,0.11258
4117.87123,0.11223
4115.94249,0.11171
4114.01374,0.11110
4112.08500,0.11089
4110.15625,0.11109
4108.22750,0.11120
4106.29876,0.11086
4104.37001,0.11038
4102.44127,0.11020
4100.51252,0.11024
4098.58378,0.11015
4096.65503,0.10968
4094.72629,0.10888
4092.79754,0.10794
4090.86880,0.10700
4088.94005,0.10635
4087.01131,0.10587
4085.08256,0.10502
4083.15382,0.10373
4081.22507,0.10221
4079.29632,0.10070
4077.36758,0.09941
4075.43883,0.09828
4073.51009,0.09699
4071.58134,0.09548
4069.65260,0.09408
4067.72385,0.09284
4065.79511,0.09164
4063.86636,0.09066
4061.93762,0.09005
4060.00887,0.08962
4058.08013,0.08920
4056.15138,0.08878
4054.22264,0.08856
4052.29389,0.08868
4050.36515,0.08886
4048.43640,0.08885
4046.50765,0.08865
4044.57891,0.08823
4042.65016,0.08778
4040.72142,0.08764
4038.79267,0.08797
4036.86393,0.08859
4034.93518,0.08940
4033.00644,0.09064
4031.07769,0.09226
4029.14895,0.09383
4027.22020,0.09521
4025.29146,0.09647
4023.36271,0.09785
4021.43397,0.09955
4019.50522,0.10158
4017.57648,0.10387
4015.64773,0.10618
4013.71898,0.10810
4011.79024,0.10923
4009.86149,0.10966
4007.93275,0.10986
4006.00400,0.11005
4004.07526,0.11030
4002.14651,0.11080
4000.21777,0.11166
3998.28902,0.11265
3996.36028,0.11353
3994.43153,0.11432
3992.50279,0.11498
3990.57404,0.11537
3988.64530,0.11562
3986.71655,0.11588
3984.78780,0.11601
3982.85906,0.11597
3980.93031,0.11593
3979.00157,0.11595
3977.07282,0.11597
3975.14408,0.11585
3973.21533,0.11588
3971.28659,0.11643
3969.35784,0.11709
3967.42910,0.11738
3965.50035,0.11744
3963.57161,0.11756
3961.64286,0.11782
3959.71412,0.11810
3957.78537,0.11815
3955.85663,0.11791
3953.92788,0.11771
3951.99913,0.11779
3950.07039,0.11805
3948.14164,0.11820
3946.21290,0.11815
3944.28415,0.11802
3942.35541,0.11778
3940.42666,0.11747
3938.49792,0.11711
3936.56917,0.11680
3934.64043,0.11693
3932.71168,0.11738
3930.78294,0.11746
3928.85419,0.11716
3926.92545,0.11693
3924.99670,0.11682
3923.06795,0.11684
3921.13921,0.11725
3919.21046,0.11798
3917.28172,0.11842
3915.35297,0.11851
3913.42423,0.11864
3911.49548,0.11872
3909.56674,0.11860
3907.63799,0.11841
3905.70925,0.11838
3903.78050,0.11854
3901.85176,0.11891
3899.92301,0.11942
3897.99427,0.11969
3896.06552,0.11968
3894.13678,0.11992
3892.20803,0.12045
3890.27928,0.12082
3888.35054,0.12107
3886.42179,0.12132
3884.49305,0.12155
3882.56430,0.12205
3880.63556,0.12256
3878.70681,0.12256
3876.77807,0.12243
3874.84932,0.12243
3872.92058,0.12236
3870.99183,0.12234
3869.06309,0.12248
3867.13434,0.12255
3865.20560,0.12245
3863.27685,0.12226
3861.34811,0.12228
3859.41936,0.12260
3857.49061,0.12293
3855.56187,0.12305
3853.63312,0.12282
3851.70438,0.12231
3849.77563,0.12193
3847.84689,0.12173
3845.91814,0.12151
3843.98940,0.12121
3842.06065,0.12100
3840.13191,0.12097
3838.20316,0.12082
3836.27442,0.12055
3834.34567,0.12032
3832.41693,0.11984
3830.48818,0.11910
3828.55943,0.11864
3826.63069,0.11840
3824.70194,0.11800
3822.77320,0.11771
3820.84445,0.11791
3818.91571,0.11839
3816.98696,0.11880
3815.05822,0.11896
3813.12947,0.11893
3811.20073,0.11888
3809.27198,0.11873
3807.34324,0.11839
3805.41449,0.11835
3803.48575,0.11905
3801.55700,0.11993
3799.62826,0.12018
3797.69951,0.12003
3795.77076,0.12005
3793.84202,0.12041
3791.91327,0.12074
3789.98453,0.12088
3788.05578,0.12118
3786.12704,0.12168
3784.19829,0.12205
3782.26955,0.12214
3780.34080,0.12203
3778.41206,0.12202
3776.48331,0.12201
3774.55457,0.12171
3772.62582,0.12131
3770.69708,0.12097
3768.76833,0.12066
3766.83959,0.12063
3764.91084,0.12101
3762.98209,0.12163
3761.05335,0.12226
3759.12460,0.12271
3757.19586,0.12302
3755.26711,0.12333
3753.33837,0.12375
3751.40962,0.12422
3749.48088,0.12435
3747.55213,0.12408
3745.62339,0.12357
3743.69464,0.12296
3741.76590,0.12262
3739.83715,0.12252
3737.90841,0.12245
3735.97966,0.12218
3734.05091,0.12145
3732.12217,0.12023
3730.19342,0.11886
3728.26468,0.11781
3726.33593,0.11708
3724.40719,0.11626
3722.47844,0.11532
3720.54970,0.11468
3718.62095,0.11462
3716.69221,0.11508
3714.76346,0.11562
3712.83472,0.11572
3710.90597,0.11510
3708.97723,0.11388
3707.04848,0.11254
3705.11974,0.11139
3703.19099,0.11041
3701.26224,0.10942
3699.33350,0.10852
3697.40475,0.10770
3695.47601,0.10676
3693.54726,0.10587
3691.61852,0.10510
3689.68977,0.10365
3687.76103,0.10131
3685.83228,0.09929
3683.90354,0.09764
3681.97479,0.09593
3680.04605,0.09430
3678.11730,0.09298
3676.18856,0.09192
3674.25981,0.09087
3672.33107,0.08971
3670.40232,0.08838
3668.47357,0.08699
3666.54483,0.08578
3664.61608,0.08472
3662.68734,0.08387
3660.75859,0.08327
3658.82985,0.08272
3656.90110,0.08212
3654.97236,0.08155
3653.04361,0.08121
3651.11487,0.08111
3649.18612,0.08089
3647.25738,0.08053
3645.32863,0.08053
3643.39989,0.08101
3641.47114,0.08155
3639.54239,0.08193
3637.61365,0.08240
3635.68490,0.08290
3633.75616,0.08329
3631.82741,0.08376
3629.89867,0.08392
3627.96992,0.08330
3626.04118,0.08264
3624.11243,0.08248
3622.18369,0.08265
3620.25494,0.08299
3618.32620,0.08345
3616.39745,0.08407
3614.46871,0.08477
3612.53996,0.08535
3610.61122,0.08560
3608.68247,0.08561
3606.75372,0.08576
3604.82498,0.08614
3602.89623,0.08654
3600.96749,0.08694
3599.03874,0.08718
3597.11000,0.08693
3595.18125,0.08638
3593.25251,0.08594
3591.32376,0.08569
3589.39502,0.08551
3587.46627,0.08534
3585.53753,0.08520
3583.60878,0.08501
3581.68004,0.08488
3579.75129,0.08484
3577.82254,0.08461
3575.89380,0.08412
3573.96505,0.08356
3572.03631,0.08321
3570.10756,0.08331
3568.17882,0.08341
3566.25007,0.08288
3564.32133,0.08210
3562.39258,0.08159
3560.46384,0.08136
3558.53509,0.08129
3556.60635,0.08099
3554.67760,0.08037
3552.74886,0.07986
3550.82011,0.07966
3548.89137,0.07971
3546.96262,0.07977
3545.03387,0.07954
3543.10513,0.07901
3541.17638,0.07852
3539.24764,0.07838
3537.31889,0.07845
3535.39015,0.07839
3533.46140,0.07849
3531.53266,0.07893
3529.60391,0.07918
3527.67517,0.07888
3525.74642,0.07844
3523.81768,0.07842
3521.88893,0.07887
3519.96019,0.07944
3518.03144,0.07991
3516.10270,0.08024
3514.17395,0.08039
3512.24520,0.08029
3510.31646,0.08002
3508.38771,0.07985
3506.45897,0.08010
3504.53022,0.08061
3502.60148,0.08090
3500.67273,0.08092
3498.74399,0.08097
3496.81524,0.08123
3494.88650,0.08148
3492.95775,0.08153
3491.02901,0.08149
3489.10026,0.08145
3487.17152,0.08142
3485.24277,0.08134
3483.31402,0.08127
3481.38528,0.08132
3479.45653,0.08151
3477.52779,0.08185
3475.59904,0.08225
3473.67030,0.08253
3471.74155,0.08256
3469.81281,0.08237
3467.88406,0.08221
3465.95532,0.08228
3464.02657,0.08233
3462.09783,0.08212
3460.16908,0.08176
3458.24034,0.08159
3456.31159,0.08182
3454.38285,0.08226
3452.45410,0.08243
3450.52535,0.08223
3448.59661,0.08196
3446.66786,0.08190
3444.73912,0.08190
3442.81037,0.08179
3440.88163,0.08174
3438.95288,0.08193
3437.02414,0.08237
3435.09539,0.08277
3433.16665,0.08270
3431.23790,0.08237
3429.30916,0.08236
3427.38041,0.08250
3425.45167,0.08248
3423.52292,0.08249
3421.59418,0.08251
3419.66543,0.08235
3417.73668,0.08220
3415.80794,0.08224
3413.87919,0.08222
3411.95045,0.08198
3410.02170,0.08174
3408.09296,0.08157
3406.16421,0.08146
3404.23547,0.08148
3402.30672,0.08155
3400.37798,0.08150
3398.44923,0.08133
3396.52049,0.08107
3394.59174,0.08095
3392.66300,0.08120
3390.73425,0.08154
3388.80550,0.08160
3386.87676,0.08156
3384.94801,0.08170
3383.01927,0.08195
3381.09052,0.08205
3379.16178,0.08193
3377.23303,0.08178
3375.30429,0.08169
3373.37554,0.08174
3371.44680,0.08197
3369.51805,0.08220
3367.58931,0.08225
3365.66056,0.08214
3363.73182,0.08196
3361.80307,0.08191
3359.87433,0.08202
3357.94558,0.08202
3356.01683,0.08191
3354.08809,0.08195
3352.15934,0.08210
3350.23060,0.08202
3348.30185,0.08170
3346.37311,0.08156
3344.44436,0.08172
3342.51562,0.08180
3340.58687,0.08133
3338.65813,0.08058
3336.72938,0.08032
3334.80064,0.08051
3332.87189,0.08036
3330.94315,0.07986
3329.01440,0.07962
3327.08566,0.07964
3325.15691,0.07940
3323.22816,0.07864
3321.29942,0.07751
3319.37067,0.07638
3317.44193,0.07551
3315.51318,0.07475
3313.58444,0.07365
3311.65569,0.07210
3309.72695,0.07033
3307.79820,0.06856
3305.86946,0.06685
3303.94071,0.06528
3302.01197,0.06420
3300.08322,0.06377
3298.15448,0.06394
3296.22573,0.06469
3294.29698,0.06566
3292.36824,0.06665
3290.43949,0.06795
3288.51075,0.06952
3286.58200,0.07088
3284.65326,0.07169
3282.72451,0.07225
3280.79577,0.07301
3278.86702,0.07376
3276.93828,0.07426
3275.00953,0.07468
3273.08079,0.07525
3271.15204,0.07599
3269.22330,0.07654
3267.29455,0.07679
3265.36581,0.07701
3263.43706,0.07740
3261.50831,0.07797
3259.57957,0.07838
3257.65082,0.07842
3255.72208,0.07836
3253.79333,0.07833
3251.86459,0.07822
3249.93584,0.07808
3248.00710,0.07808
3246.07835,0.07829
3244.14961,0.07859
3242.22086,0.07862
3240.29212,0.07838
3238.36337,0.07823
3236.43463,0.07817
3234.50588,0.07789
3232.57713,0.07759
3230.64839,0.07759
3228.71964,0.07778
3226.79090,0.07787
3224.86215,0.07773
3222.93341,0.07751
3221.00466,0.07729
3219.07592,0.07694
3217.14717,0.07657
3215.21843,0.07642
3213.28968,0.07633
3211.36094,0.07604
3209.43219,0.07550
3207.50345,0.07506
3205.57470,0.07496
3203.64596,0.07504
3201.71721,0.07526
3199.78846,0.07557
3197.85972,0.07575
3195.93097,0.07583
3194.00223,0.07594
3192.07348,0.07592
3190.14474,0.07574
3188.21599,0.07567
3186.28725,0.07593
3184.35850,0.07625
3182.42976,0.07619
3180.50101,0.07587
3178.57227,0.07572
3176.64352,0.07575
3174.71478,0.07571
3172.78603,0.07537
3170.85729,0.07471
3168.92854,0.07416
3166.99979,0.07399
3165.07105,0.07407
3163.14230,0.07411
3161.21356,0.07388
3159.28481,0.07356
3157.35607,0.07353
3155.42732,0.07375
3153.49858,0.07404
3151.56983,0.07425
3149.64109,0.07424
3147.71234,0.07413
3145.78360,0.07404
3143.85485,0.07380
3141.92611,0.07355
3139.99736,0.07345
3138.06861,0.07332
3136.13987,0.07311
3134.21112,0.07301
3132.28238,0.07292
3130.35363,0.07255
3128.42489,0.07203
3126.49614,0.07161
3124.56740,0.07123
3122.63865,0.07080
3120.70991,0.07021
3118.78116,0.06953
3116.85242,0.06885
3114.92367,0.06795
3112.99493,0.06667
3111.06618,0.06529
3109.13744,0.06428
3107.20869,0.06373
3105.27994,0.06324
3103.35120,0.06278
3101.42245,0.06274
3099.49371,0.06293
3097.56496,0.06296
3095.63622,0.06284
3093.70747,0.06249
3091.77873,0.06192
3089.84998,0.06126
3087.92124,0.06049
3085.99249,0.05992
3084.06375,0.05987
3082.13500,0.06013
3080.20626,0.06028
3078.27751,0.06030
3076.34877,0.06053
3074.42002,0.06072
3072.49127,0.06048
3070.56253,0.06017
3068.63378,0.06015
3066.70504,0.06032
3064.77629,0.06049
3062.84755,0.06039
3060.91880,0.05992
3058.99006,0.05956
3057.06131,0.05981
3055.13257,0.06045
3053.20382,0.06084
3051.27508,0.06079
3049.34633,0.06066
3047.41759,0.06067
3045.48884,0.06072
3043.56009,0.06069
3041.63135,0.06059
3039.70260,0.06040
3037.77386,0.06005
3035.84511,0.05953
3033.91637,0.05912
3031.98762,0.05910
3030.05888,0.05928
3028.13013,0.05941
3026.20139,0.05966
3024.27264,0.06008
3022.34390,0.06054
3020.41515,0.06087
3018.48641,0.06099
3016.55766,0.06090
3014.62892,0.06070
3012.70017,0.06041
3010.77142,0.06008
3008.84268,0.05978
3006.91393,0.05956
3004.98519,0.05955
3003.05644,0.05966
3001.12770,0.05967
2999.19895,0.05970
2997.27021,0.05984
2995.34146,0.05992
2993.41272,0.05990
2991.48397,0.05985
2989.55523,0.05978
2987.62648,0.05969
2985.69774,0.05962
2983.76899,0.05946
2981.84025,0.05911
2979.91150,0.05869
2977.98275,0.05855
2976.05401,0.05864
2974.12526,0.05867
2972.19652,0.05876
2970.26777,0.05905
2968.33903,0.05926
2966.41028,0.05913
2964.48154,0.05870
2962.55279,0.05828
2960.62405,0.05822
2958.69530,0.05841
2956.76656,0.05857
2954.83781,0.05870
2952.90907,0.05887
2950.98032,0.05886
2949.05157,0.05874
2947.12283,0.05878
2945.19408,0.05896
2943.26534,0.05903
2941.33659,0.05899
2939.40785,0.05907
2937.47910,0.05922
2935.55036,0.05920
2933.62161,0.05917
2931.69287,0.05933
2929.76412,0.05982
2927.83538,0.06066
2925.90663,0.06146
2923.97789,0.06200
2922.04914,0.06228
2920.12040,0.06238
2918.19165,0.06240
2916.26290,0.06231
2914.33416,0.06200
2912.40541,0.06170
2910.47667,0.06164
2908.54792,0.06173
2906.61918,0.06183
2904.69043,0.06195
2902.76169,0.06195
2900.83294,0.06168
2898.90420,0.06139
2896.97545,0.06142
2895.04671,0.06146
2893.11796,0.06139
2891.18922,0.06155
2889.26047,0.06186
2887.33172,0.06203
2885.40298,0.06207
2883.47423,0.06201
2881.54549,0.06189
2879.61674,0.06175
2877.68800,0.06155
2875.75925,0.06133
2873.83051,0.06132
2871.90176,0.06155
2869.97302,0.06176
2868.04427,0.06170
2866.11553,0.06142
2864.18678,0.06121
2862.25804,0.06134
2860.32929,0.06177
2858.40055,0.06211
2856.47180,0.06235
2854.54305,0.06274
2852.61431,0.06305
2850.68556,0.06304
2848.75682,0.06286
2846.82807,0.06257
2844.89933,0.06226
2842.97058,0.06220
2841.04184,0.06239
2839.11309,0.06249
2837.18435,0.06234
2835.25560,0.06207
2833.32686,0.06188
2831.39811,0.06193
2829.46937,0.06228
2827.54062,0.06279
2825.61188,0.06317
2823.68313,0.06328
2821.75438,0.06326
2819.82564,0.06336
2817.89689,0.06380
2815.96815,0.06437
2814.03940,0.06461
2812.11066,0.06461
2810.18191,0.06474
2808.25317,0.06504
2806.32442,0.06534
2804.39568,0.06552
2802.46693,0.06564
2800.53819,0.06572
2798.60944,0.06579
2796.68070,0.06590
2794.75195,0.06597
2792.82320,0.06594
2790.89446,0.06599
2788.96571,0.06625
2787.03697,0.06663
2785.10822,0.06691
2783.17948,0.06709
2781.25073,0.06721
2779.32199,0.06733
2777.39324,0.06767
2775.46450,0.06815
2773.53575,0.06845
2771.60701,0.06849
2769.67826,0.06846
2767.74952,0.06852
2765.82077,0.06863
2763.89203,0.06874
2761.96328,0.06900
2760.03453,0.06940
2758.10579,0.06967
2756.17704,0.06961
2754.24830,0.06946
2752.31955,0.06946
2750.39081,0.06959
2748.46206,0.06970
2746.53332,0.06964
2744.60457,0.06947
2742.67583,0.06933
2740.74708,0.06922
2738.81834,0.06908
2736.88959,0.06904
2734.96085,0.06924
2733.03210,0.06960
2731.10336,0.06987
2729.17461,0.06990
2727.24586,0.06979
2725.31712,0.06970
2723.38837,0.06967
2721.45963,0.06957
2719.53088,0.06935
2717.60214,0.06919
2715.67339,0.06911
2713.74465,0.06906
2711.81590,0.06903
2709.88716,0.06905
2707.95841,0.06907
2706.02967,0.06913
2704.10092,0.06921
2702.17218,0.06926
2700.24343,0.06939
2698.31468,0.06953
2696.38594,0.06930
2694.45719,0.06879
2692.52845,0.06850
2690.59970,0.06845
2688.67096,0.06843
2686.74221,0.06844
2684.81347,0.06851
2682.88472,0.06857
2680.95598,0.06858
2679.02723,0.06858
2677.09849,0.06857
2675.16974,0.06847
2673.24100,0.06840
2671.31225,0.06842
2669.38351,0.06838
2667.45476,0.06833
2665.52601,0.06832
2663.59727,0.06836
2661.66852,0.06841
2659.73978,0.06848
2657.81103,0.06852
2655.88229,0.06838
2653.95354,0.06815
2652.02480,0.06810
2650.09605,0.06819
2648.16731,0.06822
2646.23856,0.06821
2644.30982,0.06822
2642.38107,0.06818
2640.45233,0.06800
2638.52358,0.06781
2636.59484,0.06787
2634.66609,0.06808
2632.73734,0.06811
2630.80860,0.06813
2628.87985,0.06844
2626.95111,0.06884
2625.02236,0.06906
2623.09362,0.06923
2621.16487,0.06951
2619.23613,0.06965
2617.30738,0.06944
2615.37864,0.06917
2613.44989,0.06902
2611.52115,0.06889
2609.59240,0.06884
2607.66366,0.06888
2605.73491,0.06886
2603.80616,0.06887
2601.87742,0.06892
2599.94867,0.06900
2598.01993,0.06928
2596.09118,0.06963
2594.16244,0.06980
2592.23369,0.06988
2590.30495,0.06991
2588.37620,0.06987
2586.44746,0.06976
2584.51871,0.06957
2582.58997,0.06936
2580.66122,0.06933
2578.73248,0.06943
2576.80373,0.06951
2574.87499,0.06964
2572.94624,0.06974
2571.01749,0.06967
2569.08875,0.06962
2567.16000,0.06971
2565.23126,0.06981
2563.30251,0.06983
2561.37377,0.06974
2559.44502,0.06955
2557.51628,0.06943
2555.58753,0.06956
2553.65879,0.06980
2551.73004,0.06991
2549.80130,0.06978
2547.87255,0.06958
2545.94381,0.06956
2544.01506,0.06973
2542.08631,0.06986
2540.15757,0.06980
2538.22882,0.06965
2536.30008,0.06961
2534.37133,0.06962
2532.44259,0.06954
2530.51384,0.06949
2528.58510,0.06952
2526.65635,0.06948
2524.72761,0.06933
2522.79886,0.06918
2520.87012,0.06914
2518.94137,0.06906
2517.01263,0.06887
2515.08388,0.06882
2513.15514,0.06889
2511.22639,0.06885
2509.29764,0.06884
2507.36890,0.06901
2505.44015,0.06923
2503.51141,0.06939
2501.58266,0.06954
2499.65392,0.06964
2497.72517,0.06970
2495.79643,0.06981
2493.86768,0.06991
2491.93894,0.06989
2490.01019,0.06981
2488.08145,0.06975
2486.15270,0.06971
2484.22396,0.06972
2482.29521,0.06989
2480.36647,0.07019
2478.43772,0.07045
2476.50897,0.07067
2474.58023,0.07087
2472.65148,0.07093
2470.72274,0.07083
2468.79399,0.07075
2466.86525,0.07078
2464.93650,0.07099
2463.00776,0.07122
2461.07901,0.07121
2459.15027,0.07103
2457.22152,0.07080
2455.29278,0.07056
2453.36403,0.07044
2451.43529,0.07056
2449.50654,0.07069
2447.57779,0.07067
2445.64905,0.07064
2443.72030,0.07060
2441.79156,0.07052
2439.86281,0.07047
2437.93407,0.07048
2436.00532,0.07051
2434.07658,0.07052
2432.14783,0.07043
2430.21909,0.07021
2428.29034,0.07001
2426.36160,0.07004
2424.43285,0.07030
2422.50411,0.07048
2420.57536,0.07037
2418.64662,0.07020
2416.71787,0.07014
2414.78912,0.07002
2412.86038,0.06983
2410.93163,0.06981
2409.00289,0.06990
2407.07414,0.06980
2405.14540,0.06952
2403.21665,0.06930
2401.28791,0.06924
2399.35916,0.06928
2397.43042,0.06932
2395.50167,0.06928
2393.57293,0.06918
2391.64418,0.06913
2389.71544,0.06917
2387.78669,0.06917
2385.85795,0.06906
2383.92920,0.06885
2382.00045,0.06865
2380.07171,0.06857
2378.14296,0.06867
2376.21422,0.06899
2374.28547,0.06924
2372.35673,0.06918
2370.42798,0.06906
2368.49924,0.06905
2366.57049,0.06901
2364.64175,0.06891
2362.71300,0.06881
2360.78426,0.06876
2358.85551,0.06877
2356.92677,0.06886
2354.99802,0.06883
2353.06927,0.06840
2351.14053,0.06771
2349.21178,0.06718
2347.28304,0.06691
2345.35429,0.06669
2343.42555,0.06649
2341.49680,0.06640
2339.56806,0.06653
2337.63931,0.06691
2335.71057,0.06729
2333.78182,0.06750
2331.85308,0.06769
2329.92433,0.06789
2327.99559,0.06804
2326.06684,0.06813
2324.13810,0.06806
2322.20935,0.06780
2320.28060,0.06750
2318.35186,0.06733
2316.42311,0.06723
2314.49437,0.06710
2312.56562,0.06699
2310.63688,0.06701
2308.70813,0.06710
2306.77939,0.06723
2304.85064,0.06734
2302.92190,0.06738
2300.99315,0.06737
2299.06441,0.06725
2297.13566,0.06707
2295.20692,0.06712
2293.27817,0.06735
2291.34943,0.06750
2289.42068,0.06759
2287.49193,0.06771
2285.56319,0.06779
2283.63444,0.06783
2281.70570,0.06778
2279.77695,0.06755
2277.84821,0.06722
2275.91946,0.06699
2273.99072,0.06680
2272.06197,0.06648
2270.13323,0.06608
2268.20448,0.06582
2266.27574,0.06571
2264.34699,0.06543
2262.41825,0.06491
2260.48950,0.06449
2258.56075,0.06424
2256.63201,0.06380
2254.70326,0.06306
2252.77452,0.06230
2250.84577,0.06174
2248.91703,0.06125
2246.98828,0.06067
2245.05954,0.06008
2243.13079,0.05979
2241.20205,0.05987
2239.27330,0.06009
2237.34456,0.06044
2235.41581,0.06100
2233.48707,0.06144
2231.55832,0.06160
2229.62958,0.06192
2227.70083,0.06266
2225.77208,0.06359
2223.84334,0.06444
2221.91459,0.06512
2219.98585,0.06568
2218.05710,0.06626
2216.12836,0.06674
2214.19961,0.06689
2212.27087,0.06690
2210.34212,0.06710
2208.41338,0.06735
2206.48463,0.06740
2204.55589,0.06748
2202.62714,0.06783
2200.69840,0.06825
2198.76965,0.06844
2196.84090,0.06833
2194.91216,0.06804
2192.98341,0.06771
2191.05467,0.06739
2189.12592,0.06708
2187.19718,0.06692
2185.26843,0.06698
2183.33969,0.06720
2181.41094,0.06747
2179.48220,0.06777
2177.55345,0.06820
2175.62471,0.06874
2173.69596,0.06919
2171.76722,0.06939
2169.83847,0.06942
2167.90973,0.06945
2165.98098,0.06962
2164.05223,0.06980
2162.12349,0.06982
2160.19474,0.06967
2158.26600,0.06953
2156.33725,0.06964
2154.40851,0.06987
2152.47976,0.06995
2150.55102,0.06987
2148.62227,0.06975
2146.69353,0.06963
2144.76478,0.06967
2142.83604,0.06982
2140.90729,0.06983
2138.97855,0.06976
2137.04980,0.06980
2135.12106,0.06977
2133.19231,0.06965
2131.26356,0.06969
2129.33482,0.06987
2127.40607,0.06990
2125.47733,0.06969
2123.54858,0.06948
2121.61984,0.06941
2119.69109,0.06946
2117.76235,0.06950
2115.83360,0.06948
2113.90486,0.06949
2111.97611,0.06957
2110.04737,0.06959
2108.11862,0.06951
2106.18988,0.06947
2104.26113,0.06944
2102.33238,0.06929
2100.40364,0.06911
2098.47489,0.06905
2096.54615,0.06904
2094.61740,0.06894
2092.68866,0.06892
2090.75991,0.06900
2088.83117,0.06900
2086.90242,0.06895
2084.97368,0.06888
2083.04493,0.06873
2081.11619,0.06862
2079.18744,0.06853
2077.25870,0.06834
2075.32995,0.06817
2073.40121,0.06814
2071.47246,0.06826
2069.54371,0.06836
2067.61497,0.06837
2065.68622,0.06841
2063.75748,0.06842
2061.82873,0.06829
2059.89999,0.06814
2057.97124,0.06806
2056.04250,0.06798
2054.11375,0.06797
2052.18501,0.06807
2050.25626,0.06805
2048.32752,0.06784
2046.39877,0.06766
2044.47003,0.06755
2042.54128,0.06733
2040.61254,0.06695
2038.68379,0.06670
2036.75504,0.06672
2034.82630,0.06676
2032.89755,0.06665
2030.96881,0.06657
2029.04006,0.06662
2027.11132,0.06664
2025.18257,0.06653
2023.25383,0.06645
2021.32508,0.06641
2019.39634,0.06629
2017.46759,0.06614
2015.53885,0.06591
2013.61010,0.06556
2011.68136,0.06522
2009.75261,0.06487
2007.82386,0.06454
2005.89512,0.06448
2003.96637,0.06461
2002.03763,0.06454
2000.10888,0.06418
1998.18014,0.06380
1996.25139,0.06356
1994.32265,0.06335
1992.39390,0.06301
1990.46516,0.06257
1988.53641,0.06229
1986.60767,0.06222
1984.67892,0.06214
1982.75018,0.06208
1980.82143,0.06202
1978.89269,0.06185
1976.96394,0.06165
1975.03519,0.06151
1973.10645,0.06140
1971.17770,0.06129
1969.24896,0.06122
1967.32021,0.06113
1965.39147,0.06099
1963.46272,0.06085
1961.53398,0.06086
1959.60523,0.06101
1957.67649,0.06113
1955.74774,0.06106
1953.81900,0.06086
1951.89025,0.06080
1949.96151,0.06093
1948.03276,0.06113
1946.10402,0.06129
1944.17527,0.06131
1942.24652,0.06125
1940.31778,0.06128
1938.38903,0.06139
1936.46029,0.06163
1934.53154,0.06200
1932.60280,0.06222
1930.67405,0.06223
1928.74531,0.06230
1926.81656,0.06247
1924.88782,0.06260
1922.95907,0.06275
1921.03033,0.06291
1919.10158,0.06289
1917.17284,0.06266
1915.24409,0.06250
1913.31534,0.06249
1911.38660,0.06237
1909.45785,0.06210
1907.52911,0.06181
1905.60036,0.06164
1903.67162,0.06159
1901.74287,0.06153
1899.81413,0.06143
1897.88538,0.06136
1895.95664,0.06122
1894.02789,0.06101
1892.09915,0.06090
1890.17040,0.06086
1888.24166,0.06070
1886.31291,0.06050
1884.38417,0.06047
1882.45542,0.06055
1880.52667,0.06054
1878.59793,0.06059
1876.66918,0.06073
1874.74044,0.06071
1872.81169,0.06064
1870.88295,0.06078
1868.95420,0.06098
1867.02546,0.06105
1865.09671,0.06116
1863.16797,0.06142
1861.23922,0.06165
1859.31048,0.06171
1857.38173,0.06170
1855.45299,0.06179
1853.52424,0.06195
1851.59549,0.06205
1849.66675,0.06206
1847.73800,0.06193
1845.80926,0.06173
1843.88051,0.06152
1841.95177,0.06120
1840.02302,0.06080
1838.09428,0.06052
1836.16553,0.06037
1834.23679,0.06034
1832.30804,0.06043
1830.37930,0.06044
1828.45055,0.06026
1826.52181,0.06022
1824.59306,0.06027
1822.66432,0.06009
1820.73557,0.05988
1818.80682,0.05978
1816.87808,0.05964
1814.94933,0.05957
1813.02059,0.05968
1811.09184,0.05983
1809.16310,0.05985
1807.23435,0.05974
1805.30561,0.05967
1803.37686,0.05988
1801.44812,0.06018
1799.51937,0.06032
1797.59063,0.06042
1795.66188,0.06052
1793.73314,0.06048
1791.80439,0.06026
1789.87565,0.06013
1787.94690,0.06029
1786.01815,0.06053
1784.08941,0.06058
1782.16066,0.06040
1780.23192,0.06016
1778.30317,0.06005
1776.37443,0.06015
1774.44568,0.06038
1772.51694,0.06049
1770.58819,0.06030
1768.65945,0.05996
1766.73070,0.05972
1764.80196,0.05969
1762.87321,0.05978
1760.94447,0.05975
1759.01572,0.05961
1757.08697,0.05950
1755.15823,0.05952
1753.22948,0.05963
1751.30074,0.05972
1749.37199,0.05975
1747.44325,0.05979
1745.51450,0.05990
1743.58576,0.05998
1741.65701,0.05991
1739.72827,0.05975
1737.79952,0.05970
1735.87078,0.05989
1733.94203,0.06018
1732.01329,0.06032
1730.08454,0.06042
1728.15580,0.06055
1726.22705,0.06064
1724.29830,0.06072
1722.36956,0.06079
1720.44081,0.06089
1718.51207,0.06101
1716.58332,0.06100
1714.65458,0.06092
1712.72583,0.06096
1710.79709,0.06112
1708.86834,0.06131
1706.93960,0.06139
1705.01085,0.06135
1703.08211,0.06145
1701.15336,0.06162
1699.22462,0.06152
1697.29587,0.06116
1695.36713,0.06068
1693.43838,0.06028
1691.50963,0.06016
1689.58089,0.06020
1687.65214,0.06034
1685.72340,0.06041
1683.79465,0.06016
1681.86591,0.05992
1679.93716,0.05996
1678.00842,0.06010
1676.07967,0.06018
1674.15093,0.06008
1672.22218,0.05996
1670.29344,0.06002
1668.36469,0.06016
1666.43595,0.06026
1664.50720,0.06033
1662.57845,0.06030
1660.64971,0.06014
1658.72096,0.06005
1656.79222,0.06021
1654.86347,0.06062
1652.93473,0.06078
1651.00598,0.06051
1649.07724,0.06036
1647.14849,0.06019
1645.21975,0.05978
1643.29100,0.05947
1641.36226,0.05945
1639.43351,0.05973
1637.50477,0.06019
1635.57602,0.06049
1633.64728,0.06048
1631.71853,0.06048
1629.78978,0.06066
1627.86104,0.06091
1625.93229,0.06099
1624.00355,0.06083
1622.07480,0.06054
1620.14606,0.06030
1618.21731,0.06018
1616.28857,0.06004
1614.35982,0.05983
1612.43108,0.05959
1610.50233,0.05937
1608.57359,0.05920
1606.64484,0.05906
1604.71610,0.05900
1602.78735,0.05919
1600.85861,0.05961
1598.92986,0.05994
1597.00111,0.05999
1595.07237,0.05998
1593.14362,0.06015
1591.21488,0.06043
1589.28613,0.06056
1587.35739,0.06034
1585.42864,0.05991
1583.49990,0.05963
1581.57115,0.05964
1579.64241,0.05989
1577.71366,0.06035
1575.78492,0.06058
1573.85617,0.06033
1571.92743,0.06010
1569.99868,0.05997
1568.06993,0.05973
1566.14119,0.05948
1564.21244,0.05934
1562.28370,0.05932
1560.35495,0.05939
1558.42621,0.05935
1556.49746,0.05914
1554.56872,0.05906
1552.63997,0.05920
1550.71123,0.05941
1548.78248,0.05948
1546.85374,0.05940
1544.92499,0.05940
1542.99625,0.05961
1541.06750,0.05993
1539.13876,0.05987
1537.21001,0.05962
1535.28126,0.05952
1533.35252,0.05929
1531.42377,0.05892
1529.49503,0.05881
1527.56628,0.05895
1525.63754,0.05903
1523.70879,0.05899
1521.78005,0.05880
1519.85130,0.05854
1517.92256,0.05841
1515.99381,0.05832
1514.06507,0.05815
1512.13632,0.05800
1510.20758,0.05808
1508.27883,0.05834
1506.35008,0.05806
1504.42134,0.05714
1502.49259,0.05645
1500.56385,0.05599
1498.63510,0.05570
1496.70636,0.05608
1494.77761,0.05756
1492.84887,0.05943
1490.92012,0.06063
1488.99138,0.06059
1487.06263,0.05989
1485.13389,0.05935
1483.20514,0.05904
1481.27640,0.05877
1479.34765,0.05848
1477.41891,0.05829
1475.49016,0.05830
1473.56141,0.05827
1471.63267,0.05787
1469.70392,0.05743
1467.77518,0.05731
1465.84643,0.05722
1463.91769,0.05674
1461.98894,0.05611
1460.06020,0.05577
1458.13145,0.05584
1456.20271,0.05639
1454.27396,0.05758
1452.34522,0.05916
1450.41647,0.06050
1448.48773,0.06108
1446.55898,0.06118
1444.63024,0.06132
1442.70149,0.06150
1440.77274,0.06153
1438.84400,0.06154
1436.91525,0.06154
1434.98651,0.06147
1433.05776,0.06149
1431.12902,0.06155
1429.20027,0.06133
1427.27153,0.06095
1425.34278,0.06083
1423.41404,0.06094
1421.48529,0.06102
1419.55655,0.06103
1417.62780,0.06097
1415.69906,0.06083
1413.77031,0.06070
1411.84156,0.06062
1409.91282,0.06065
1407.98407,0.06083
1406.05533,0.06082
1404.12658,0.06044
1402.19784,0.06011
1400.26909,0.06011
1398.34035,0.06026
1396.41160,0.06024
1394.48286,0.06002
1392.55411,0.05984
1390.62537,0.05976
1388.69662,0.05971
1386.76788,0.05976
1384.83913,0.05983
1382.91039,0.05973
1380.98164,0.05954
1379.05289,0.05955
1377.12415,0.05974
1375.19540,0.05995
1373.26666,0.06006
1371.33791,0.06005
1369.40917,0.06001
1367.48042,0.05995
1365.55168,0.05990
1363.62293,0.05980
1361.69419,0.05960
1359.76544,0.05947
1357.83670,0.05961
1355.90795,0.05990
1353.97921,0.06009
1352.05046,0.06005
1350.12172,0.05988
1348.19297,0.05985
1346.26422,0.05996
1344.33548,0.06001
1342.40673,0.05997
1340.47799,0.05990
1338.54924,0.05991
1336.62050,0.06003
1334.69175,0.06010
1332.76301,0.06014
1330.83426,0.06019
1328.90552,0.06007
1326.97677,0.05981
1325.04803,0.05967
1323.11928,0.05975
1321.19054,0.05991
1319.26179,0.06000
1317.33304,0.05990
1315.40430,0.05976
1313.47555,0.05977
1311.54681,0.05990
1309.61806,0.06002
1307.68932,0.06015
1305.76057,0.06022
1303.83183,0.06021
1301.90308,0.06026
1299.97434,0.06035
1298.04559,0.06019
1296.11685,0.05981
1294.18810,0.05955
1292.25936,0.05958
1290.33061,0.05982
1288.40187,0.06012
1286.47312,0.06031
1284.54437,0.06030
1282.61563,0.06015
1280.68688,0.06003
1278.75814,0.06008
1276.82939,0.06024
1274.90065,0.06042
1272.97190,0.06053
1271.04316,0.06046
1269.11441,0.06029
1267.18567,0.06031
1265.25692,0.06058
1263.32818,0.06070
1261.39943,0.06050
1259.47069,0.06036
1257.54194,0.06047
1255.61320,0.06054
1253.68445,0.06048
1251.75570,0.06054
1249.82696,0.06074
1247.89821,0.06077
1245.96947,0.06057
1244.04072,0.06039
1242.11198,0.06038
1240.18323,0.06044
1238.25449,0.06045
1236.32574,0.06037
1234.39700,0.06026
1232.46825,0.06023
1230.53951,0.06021
1228.61076,0.06013
1226.68202,0.06003
1224.75327,0.05993
1222.82452,0.05984
1220.89578,0.05976
1218.96703,0.05981
1217.03829,0.05988
1215.10954,0.05980
1213.18080,0.05969
1211.25205,0.05963
1209.32331,0.05968
1207.39456,0.05994
1205.46582,0.06032
1203.53707,0.06052
1201.60833,0.06046
1199.67958,0.06038
1197.75084,0.06054
1195.82209,0.06071
1193.89335,0.06057
1191.96460,0.06022
1190.03585,0.05986
1188.10711,0.05970
1186.17836,0.05981
1184.24962,0.06000
1182.32087,0.06009
1180.39213,0.06009
1178.46338,0.06008
1176.53464,0.06000
1174.60589,0.05993
1172.67715,0.06001
1170.74840,0.06005
1168.81966,0.05998
1166.89091,0.06000
1164.96217,0.06016
1163.03342,0.06027
1161.10467,0.06025
1159.17593,0.06005
1157.24718,0.05985
1155.31844,0.05983
1153.38969,0.05997
1151.46095,0.06014
1149.53220,0.06039
1147.60346,0.06073
1145.67471,0.06086
1143.74597,0.06078
1141.81722,0.06074
1139.88848,0.06067
1137.95973,0.06041
1136.03099,0.06009
1134.10224,0.05989
1132.17350,0.05974
1130.24475,0.05960
1128.31600,0.05960
1126.38726,0.05960
1124.45851,0.05956
1122.52977,0.05970
1120.60102,0.05987
1118.67228,0.05986
1116.74353,0.05981
1114.81479,0.05986
1112.88604,0.05995
1110.95730,0.05993
1109.02855,0.05978
1107.09981,0.05970
1105.17106,0.05957
1103.24232,0.05930
1101.31357,0.05913
1099.38483,0.05913
1097.45608,0.05935
1095.52733,0.05980
1093.59859,0.05999
1091.66984,0.05974
1089.74110,0.05956
1087.81235,0.05968
1085.88361,0.05960
1083.95486,0.05926
1082.02612,0.05929
1080.09737,0.05966
1078.16863,0.05985
1076.23988,0.05984
1074.31114,0.05957
1072.38239,0.05909
1070.45365,0.05901
1068.52490,0.05954
1066.59615,0.06018
1064.66741,0.06048
1062.73866,0.06058
1060.80992,0.06067
1058.88117,0.06060
1056.95243,0.06027
1055.02368,0.05993
1053.09494,0.05990
1051.16619,0.06022
1049.23745,0.06058
1047.30870,0.06073
1045.37996,0.06061
1043.45121,0.06035
1041.52247,0.06004
1039.59372,0.05959
1037.66498,0.05907
1035.73623,0.05871
1033.80748,0.05880
1031.87874,0.05920
1029.94999,0.05959
1028.02125,0.05986
1026.09250,0.06006
1024.16376,0.06029
1022.23501,0.06051
1020.30627,0.06061
1018.37752,0.06067
1016.44878,0.06063
1014.52003,0.06048
1012.59129,0.06041
1010.66254,0.06031
1008.73380,0.06005
1006.80505,0.05980
1004.87631,0.05980
1002.94756,0.05981
1001.01881,0.05944
999.09007,0.05882
997.16132,0.05853
995.23258,0.05872
993.30383,0.05893
991.37509,0.05885
989.44634,0.05874
987.51760,0.05879
985.58885,0.05879
983.66011,0.05859
981.73136,0.05834
979.80262,0.05802
977.87387,0.05759
975.94513,0.05706
974.01638,0.05657
972.08763,0.05631
970.15889,0.05643
968.23014,0.05705
966.30140,0.05816
964.37265,0.05955
962.44391,0.06082
960.51516,0.06168
958.58642,0.06212
956.65767,0.06222
954.72893,0.06208
952.80018,0.06191
950.87144,0.06178
948.94269,0.06152
947.01395,0.06128
945.08520,0.06112
943.15646,0.06080
941.22771,0.06040
939.29896,0.06036
937.37022,0.06052
935.44147,0.06041
933.51273,0.06000
931.58398,0.05967
929.65524,0.05945
927.72649,0.05911
925.79775,0.05875
923.86900,0.05851
921.94026,0.05825
920.01151,0.05790
918.08277,0.05769
916.15402,0.05789
914.22528,0.05826
912.29653,0.05848
910.36779,0.05883
908.43904,0.05957
906.51029,0.06032
904.58155,0.06071
902.65280,0.06088
900.72406,0.06095
898.79531,0.06063
896.86657,0.06013
894.93782,0.05997
893.00908,0.05996
891.08033,0.05986
889.15159,0.05990
887.22284,0.06001
885.29410,0.05997
883.36535,0.05981
881.43661,0.05956
879.50786,0.05925
877.57911,0.05904
875.65037,0.05900
873.72162,0.05910
871.79288,0.05903
869.86413,0.05859
867.93539,0.05822
866.00664,0.05840
864.07790,0.05888
862.14915,0.05903
860.22041,0.05870
858.29166,0.05816
856.36292,0.05784
854.43417,0.05787
852.50543,0.05800
850.57668,0.05813
848.64794,0.05830
846.71919,0.05826
844.79044,0.05799
842.86170,0.05790
840.93295,0.05815
839.00421,0.05838
837.07546,0.05844
835.14672,0.05847
833.21797,0.05855
831.28923,0.05837
829.36048,0.05769
827.43174,0.05704
825.50299,0.05692
823.57425,0.05689
821.64550,0.05662
819.71676,0.05651
817.78801,0.05664
815.85926,0.05676
813.93052,0.05671
812.00177,0.05635
810.07303,0.05579
808.14428,0.05558
806.21554,0.05582
804.28679,0.05598
802.35805,0.05578
800.42930,0.05541
798.50056,0.05517
796.57181,0.05501
794.64307,0.05455
792.71432,0.05391
790.78558,0.05338
788.85683,0.05287
786.92809,0.05243
784.99934,0.05202
783.07059,0.05157
781.14185,0.05122
779.21310,0.05091
777.28436,0.05057
775.35561,0.05039
773.42687,0.05041
771.49812,0.05035
769.56938,0.05028
767.64063,0.05086
765.71189,0.05222
763.78314,0.05379
761.85440,0.05533
759.92565,0.05707
757.99691,0.05884
756.06816,0.06004
754.13942,0.06020
752.21067,0.05973
750.28192,0.05939
748.35318,0.05921
746.42443,0.05886
744.49569,0.05850
742.56694,0.05806
740.63820,0.05739
738.70945,0.05698
736.78071,0.05697
734.85196,0.05682
732.92322,0.05615
730.99447,0.05529
729.06573,0.05469
727.13698,0.05414
725.20824,0.05335
723.27949,0.05255
721.35074,0.05188
719.42200,0.05107
717.49325,0.04975
715.56451,0.04779
713.63576,0.04576
711.70702,0.04459
709.77827,0.04485
707.84953,0.04679
705.92078,0.05090
703.99204,0.05778
702.06329,0.06696
700.13455,0.07607
698.20580,0.08185
696.27706,0.08241
694.34831,0.07901
692.41957,0.07469
690.49082,0.07125
688.56207,0.06888
686.63333,0.06753
684.70458,0.06671
682.77584,0.06579
680.84709,0.06486
678.91835,0.06418
676.98960,0.06362
675.06086,0.06308
673.13211,0.06301
671.20337,0.06373
669.27462,0.06443
667.34588,0.06438
665.41713,0.06422
663.48839,0.06420
661.55964,0.06382
659.63090,0.06336
657.70215,0.06305
655.77340,0.06255
653.84466,0.06198
651.91591,0.06174
649.98717,0.06164
648.05842,0.06145
646.12968,0.06144
644.20093,0.06147
642.27219,0.06105
640.34344,0.06039
638.41470,0.06003
636.48595,0.05967
634.55721,0.05916
632.62846,0.05936
630.69972,0.06041
628.77097,0.06135
626.84222,0.06149
624.91348,0.06100
622.98473,0.06057
621.05599,0.06090
619.12724,0.06146
617.19850,0.06071
615.26975,0.05837
613.34101,0.05678
611.41226,0.05792
609.48352,0.05969
607.55477,0.05925
605.62603,0.05786
603.69728,0.05790
601.76854,0.05909
599.83979,0.05963
