7497.03301,0.72094
7495.10426,0.71393
7493.17552,0.71423
7491.24677,0.71951
7489.31803,0.72041
7487.38928,0.71452
7485.46054,0.70678
7483.53179,0.70041
7481.60305,0.69858
7479.67430,0.70247
7477.74556,0.70627
7475.81681,0.70766
7473.88807,0.70832
7471.95932,0.70632
7470.03057,0.70518
7468.10183,0.70943
7466.17308,0.71201
7464.24434,0.70700
7462.31559,0.70134
7460.38685,0.70298
7458.45810,0.70887
7456.52936,0.70991
7454.60061,0.70466
7452.67187,0.70101
7450.74312,0.70120
7448.81438,0.70110
7446.88563,0.70146
7444.95689,0.70319
7443.02814,0.70360
7441.09940,0.70229
7439.17065,0.70100
7437.24190,0.70127
7435.31316,0.70264
7433.38441,0.70183
7431.45567,0.69743
7429.52692,0.69300
7427.59818,0.69359
7425.66943,0.69844
7423.74069,0.69927
7421.81194,0.69444
7419.88320,0.69376
7417.95445,0.69975
7416.02571,0.70206
7414.09696,0.69621
7412.16822,0.69008
7410.23947,0.68748
7408.31073,0.68711
7406.38198,0.68967
7404.45323,0.69131
7402.52449,0.69087
7400.59574,0.69462
7398.66700,0.69999
7396.73825,0.70022
7394.80951,0.69756
7392.88076,0.69589
7390.95202,0.69621
7389.02327,0.69887
7387.09453,0.70176
7385.16578,0.70114
7383.23704,0.69547
7381.30829,0.69087
7379.37955,0.69395
7377.45080,0.69953
7375.52205,0.69991
7373.59331,0.69556
7371.66456,0.69159
7369.73582,0.69023
7367.80707,0.68956
7365.87833,0.69034
7363.94958,0.69355
7362.02084,0.69544
7360.09209,0.69298
7358.16335,0.68899
7356.23460,0.68856
7354.30586,0.69166
7352.37711,0.69380
7350.44837,0.69220
7348.51962,0.69050
7346.59088,0.69205
7344.66213,0.69299
7342.73338,0.69124
7340.80464,0.68878
7338.87589,0.68726
7336.94715,0.68502
7335.01840,0.67948
7333.08966,0.67542
7331.16091,0.67614
7329.23217,0.67707
7327.30342,0.67728
7325.37468,0.67925
7323.44593,0.68241
7321.51719,0.68621
7319.58844,0.68848
7317.65970,0.68572
7315.73095,0.68027
7313.80221,0.67556
7311.87346,0.67115
7309.94471,0.66775
7308.01597,0.66762
7306.08722,0.67093
7304.15848,0.67385
7302.22973,0.67311
7300.30099,0.67102
7298.37224,0.67058
7296.44350,0.67014
7294.51475,0.66747
7292.58601,0.66421
7290.65726,0.66269
7288.72852,0.66229
7286.79977,0.66173
7284.87103,0.66200
7282.94228,0.66174
7281.01353,0.65768
7279.08479,0.65322
7277.15604,0.65197
7275.22730,0.65162
7273.29855,0.65067
7271.36981,0.65030
7269.44106,0.65060
7267.51232,0.64848
7265.58357,0.64382
7263.65483,0.64246
7261.72608,0.64648
7259.79734,0.65185
7257.86859,0.65474
7255.93985,0.65387
7254.01110,0.64998
7252.08236,0.64584
7250.15361,0.64356
7248.22486,0.64160
7246.29612,0.63902
7244.36737,0.63992
7242.43863,0.64584
7240.50988,0.65022
7238.58114,0.64885
7236.65239,0.64527
7234.72365,0.64260
7232.79490,0.64029
7230.86616,0.63660
7228.93741,0.63260
7227.00867,0.63277
7225.07992,0.63570
7223.15118,0.63510
7221.22243,0.63261
7219.29369,0.63172
7217.36494,0.63142
7215.43619,0.63151
7213.50745,0.63150
7211.57870,0.63100
7209.64996,0.63117
7207.72121,0.63200
7205.79247,0.63215
7203.86372,0.63089
7201.93498,0.62944
7200.00623,0.62892
7198.07749,0.62823
7196.14874,0.62654
7194.22000,0.62575
7192.29125,0.62685
7190.36251,0.62704
7188.43376,0.62373
7186.50501,0.61897
7184.57627,0.61596
7182.64752,0.61465
7180.71878,0.61723
7178.79003,0.62411
7176.86129,0.62705
7174.93254,0.62371
7173.00380,0.62157
7171.07505,0.62445
7169.14631,0.63005
7167.21756,0.63432
7165.28882,0.63331
7163.36007,0.62797
7161.43133,0.62352
7159.50258,0.61996
7157.57384,0.61596
7155.64509,0.61553
7153.71634,0.61918
7151.78760,0.62123
7149.85885,0.61821
7147.93011,0.61475
7146.00136,0.61521
7144.07262,0.61605
7142.14387,0.61549
7140.21513,0.61571
7138.28638,0.61512
7136.35764,0.61383
7134.42889,0.61550
7132.50015,0.61647
7130.57140,0.61097
7128.64266,0.60374
7126.71391,0.60181
7124.78516,0.60443
7122.85642,0.60715
7120.92767,0.60844
7118.99893,0.60976
7117.07018,0.61100
7115.14144,0.60998
7113.21269,0.60630
7111.28395,0.60284
7109.35520,0.60259
7107.42646,0.60470
7105.49771,0.60594
7103.56897,0.60419
7101.64022,0.60093
7099.71148,0.60000
7097.78273,0.60208
7095.85399,0.60468
7093.92524,0.60651
7091.99649,0.60775
7090.06775,0.60827
7088.13900,0.60602
7086.21026,0.60097
7084.28151,0.59675
7082.35277,0.59465
7080.42402,0.59510
7078.49528,0.59839
7076.56653,0.60091
7074.63779,0.60057
7072.70904,0.59879
7070.78030,0.59636
7068.85155,0.59465
7066.92281,0.59503
7064.99406,0.59613
7063.06532,0.59628
7061.13657,0.59580
7059.20782,0.59586
7057.27908,0.59677
7055.35033,0.59713
7053.42159,0.59617
7051.49284,0.59666
7049.56410,0.60060
7047.63535,0.60460
7045.70661,0.60470
7043.77786,0.60080
7041.84912,0.59606
7039.92037,0.59403
7037.99163,0.59429
7036.06288,0.59517
7034.13414,0.59719
7032.20539,0.60043
7030.27664,0.60275
7028.34790,0.60280
7026.41915,0.60334
7024.49041,0.60421
7022.56166,0.60189
7020.63292,0.60119
7018.70417,0.60608
7016.77543,0.60952
7014.84668,0.60853
7012.91794,0.60842
7010.98919,0.61015
7009.06045,0.61090
7007.13170,0.61025
7005.20296,0.60883
7003.27421,0.60838
7001.34547,0.60994
6999.41672,0.60992
6997.48797,0.60742
6995.55923,0.60768
6993.63048,0.61108
6991.70174,0.61238
6989.77299,0.61131
6987.84425,0.61159
6985.91550,0.61194
6983.98676,0.60987
6982.05801,0.60832
6980.12927,0.60875
6978.20052,0.60989
6976.27178,0.61250
6974.34303,0.61640
6972.41429,0.62001
6970.48554,0.62135
6968.55680,0.61990
6966.62805,0.61853
6964.69930,0.61875
6962.77056,0.62022
6960.84181,0.62300
6958.91307,0.62397
6956.98432,0.62027
6955.05558,0.61568
6953.12683,0.61485
6951.19809,0.61806
6949.26934,0.62200
6947.34060,0.62292
6945.41185,0.62225
6943.48311,0.62329
6941.55436,0.62387
6939.62562,0.62095
6937.69687,0.61750
6935.76812,0.61773
6933.83938,0.61992
6931.91063,0.62166
6929.98189,0.62405
6928.05314,0.62658
6926.12440,0.62687
6924.19565,0.62547
6922.26691,0.62536
6920.33816,0.62739
6918.40942,0.62846
6916.48067,0.62684
6914.55193,0.62568
6912.62318,0.62745
6910.69444,0.62986
6908.76569,0.63004
6906.83695,0.62873
6904.90820,0.62763
6902.97945,0.62716
6901.05071,0.62808
6899.12196,0.63070
6897.19322,0.63244
6895.26447,0.63056
6893.33573,0.62665
6891.40698,0.62611
6889.47824,0.63106
6887.54949,0.63568
6885.62075,0.63500
6883.69200,0.63243
6881.76326,0.63173
6879.83451,0.63232
6877.90577,0.63261
6875.97702,0.63296
6874.04828,0.63568
6872.11953,0.63858
6870.19078,0.63724
6868.26204,0.63397
6866.33329,0.63322
6864.40455,0.63430
6862.47580,0.63402
6860.54706,0.63301
6858.61831,0.63421
6856.68957,0.63602
6854.76082,0.63646
6852.83208,0.63821
6850.90333,0.64040
6848.97459,0.63891
6847.04584,0.63560
6845.11710,0.63402
6843.18835,0.63354
6841.25960,0.63365
6839.33086,0.63462
6837.40211,0.63457
6835.47337,0.63394
6833.54462,0.63576
6831.61588,0.63903
6829.68713,0.64135
6827.75839,0.64191
6825.82964,0.64096
6823.90090,0.64080
6821.97215,0.64148
6820.04341,0.64075
6818.11466,0.63900
6816.18592,0.63897
6814.25717,0.64161
6812.32843,0.64317
6810.39968,0.64079
6808.47093,0.63749
6806.54219,0.63649
6804.61344,0.63752
6802.68470,0.63962
6800.75595,0.64107
6798.82721,0.64079
6796.89846,0.64190
6794.96972,0.64533
6793.04097,0.64642
6791.11223,0.64385
6789.18348,0.64117
6787.25474,0.64205
6785.32599,0.64682
6783.39725,0.65058
6781.46850,0.65027
6779.53975,0.64798
6777.61101,0.64564
6775.68226,0.64462
6773.75352,0.64505
6771.82477,0.64543
6769.89603,0.64522
6767.96728,0.64457
6766.03854,0.64407
6764.10979,0.64415
6762.18105,0.64363
6760.25230,0.64234
6758.32356,0.64182
6756.39481,0.64218
6754.46607,0.64368
6752.53732,0.64707
6750.60858,0.65011
6748.67983,0.64972
6746.75108,0.64562
6744.82234,0.64208
6742.89359,0.64297
6740.96485,0.64499
6739.03610,0.64470
6737.10736,0.64355
6735.17861,0.64238
6733.24987,0.64135
6731.32112,0.64164
6729.39238,0.64394
6727.46363,0.64586
6725.53489,0.64481
6723.60614,0.64291
6721.67740,0.64303
6719.74865,0.64568
6717.81991,0.65002
6715.89116,0.65356
6713.96241,0.65375
6712.03367,0.65080
6710.10492,0.64876
6708.17618,0.64945
6706.24743,0.64970
6704.31869,0.64901
6702.38994,0.64922
6700.46120,0.65029
6698.53245,0.65238
6696.60371,0.65453
6694.67496,0.65476
6692.74622,0.65348
6690.81747,0.65194
6688.88873,0.64994
6686.95998,0.64823
6685.03123,0.64973
6683.10249,0.65330
6681.17374,0.65447
6679.24500,0.65358
6677.31625,0.65273
6675.38751,0.65233
6673.45876,0.65357
6671.53002,0.65579
6669.60127,0.65726
6667.67253,0.65819
6665.74378,0.65876
6663.81504,0.65812
6661.88629,0.65558
6659.95755,0.65228
6658.02880,0.65032
6656.10006,0.65141
6654.17131,0.65521
6652.24256,0.65739
6650.31382,0.65605
6648.38507,0.65511
6646.45633,0.65622
6644.52758,0.65677
6642.59884,0.65611
6640.67009,0.65653
6638.74135,0.65779
6636.81260,0.65731
6634.88386,0.65623
6632.95511,0.65630
6631.02637,0.65569
6629.09762,0.65480
6627.16888,0.65629
6625.24013,0.65834
6623.31139,0.65750
6621.38264,0.65465
6619.45389,0.65211
6617.52515,0.65051
6615.59640,0.65064
6613.66766,0.65360
6611.73891,0.65726
6609.81017,0.65753
6607.88142,0.65495
6605.95268,0.65325
6604.02393,0.65335
6602.09519,0.65463
6600.16644,0.65651
6598.23770,0.65790
6596.30895,0.65812
6594.38021,0.65715
6592.45146,0.65585
6590.52271,0.65505
6588.59397,0.65522
6586.66522,0.65682
6584.73648,0.65814
6582.80773,0.65738
6580.87899,0.65602
6578.95024,0.65647
6577.02150,0.65860
6575.09275,0.65998
6573.16401,0.66066
6571.23526,0.66176
6569.30652,0.66127
6567.37777,0.65867
6565.44903,0.65670
6563.52028,0.65693
6561.59154,0.65750
6559.66279,0.65690
6557.73404,0.65753
6555.80530,0.66001
6553.87655,0.66084
6551.94781,0.65948
6550.01906,0.65897
6548.09032,0.66047
6546.16157,0.66239
6544.23283,0.66267
6542.30408,0.66113
6540.37534,0.65955
6538.44659,0.65842
6536.51785,0.65742
6534.58910,0.65703
6532.66036,0.65663
6530.73161,0.65568
6528.80287,0.65476
6526.87412,0.65460
6524.94537,0.65567
6523.01663,0.65706
6521.08788,0.65804
6519.15914,0.65937
6517.23039,0.65990
6515.30165,0.65784
6513.37290,0.65538
6511.44416,0.65494
6509.51541,0.65539
6507.58667,0.65552
6505.65792,0.65608
6503.72918,0.65768
6501.80043,0.65931
6499.87169,0.65991
6497.94294,0.65945
6496.01419,0.65868
6494.08545,0.65853
6492.15670,0.65908
6490.22796,0.65943
6488.29921,0.65910
6486.37047,0.65964
6484.44172,0.66162
6482.51298,0.66217
6480.58423,0.65984
6478.65549,0.65744
6476.72674,0.65764
6474.79800,0.65910
6472.86925,0.65919
6470.94051,0.65784
6469.01176,0.65651
6467.08302,0.65622
6465.15427,0.65726
6463.22552,0.65897
6461.29678,0.66009
6459.36803,0.66014
6457.43929,0.65964
6455.51054,0.65943
6453.58180,0.66026
6451.65305,0.66183
6449.72431,0.66271
6447.79556,0.66155
6445.86682,0.65874
6443.93807,0.65677
6442.00933,0.65716
6440.08058,0.65854
6438.15184,0.65915
6436.22309,0.65868
6434.29434,0.65825
6432.36560,0.65902
6430.43685,0.65977
6428.50811,0.65934
6426.57936,0.65879
6424.65062,0.65895
6422.72187,0.65933
6420.79313,0.65858
6418.86438,0.65676
6416.93564,0.65591
6415.00689,0.65655
6413.07815,0.65752
6411.14940,0.65810
6409.22066,0.65811
6407.29191,0.65735
6405.36317,0.65603
6403.43442,0.65501
6401.50567,0.65503
6399.57693,0.65611
6397.64818,0.65718
6395.71944,0.65737
6393.79069,0.65707
6391.86195,0.65618
6389.93320,0.65431
6388.00446,0.65341
6386.07571,0.65477
6384.14697,0.65608
6382.21822,0.65508
6380.28948,0.65259
6378.36073,0.65104
6376.43199,0.65098
6374.50324,0.65073
6372.57450,0.64957
6370.64575,0.64798
6368.71700,0.64634
6366.78826,0.64562
6364.85951,0.64696
6362.93077,0.64894
6361.00202,0.64936
6359.07328,0.64876
6357.14453,0.64796
6355.21579,0.64695
6353.28704,0.64603
6351.35830,0.64551
6349.42955,0.64561
6347.50081,0.64527
6345.57206,0.64379
6343.64332,0.64292
6341.71457,0.64355
6339.78582,0.64440
6337.85708,0.64508
6335.92833,0.64612
6333.99959,0.64627
6332.07084,0.64449
6330.14210,0.64327
6328.21335,0.64403
6326.28461,0.64500
6324.35586,0.64561
6322.42712,0.64566
6320.49837,0.64450
6318.56963,0.64347
6316.64088,0.64381
6314.71214,0.64422
6312.78339,0.64362
6310.85465,0.64360
6308.92590,0.64425
6306.99715,0.64463
6305.06841,0.64573
6303.13966,0.64668
6301.21092,0.64549
6299.28217,0.64296
6297.35343,0.64162
6295.42468,0.64234
6293.49594,0.64314
6291.56719,0.64213
6289.63845,0.64007
6287.70970,0.63884
6285.78096,0.63883
6283.85221,0.63888
6281.92347,0.63834
6279.99472,0.63769
6278.06598,0.63705
6276.13723,0.63598
6274.20848,0.63491
6272.27974,0.63444
6270.35099,0.63456
6268.42225,0.63492
6266.49350,0.63504
6264.56476,0.63487
6262.63601,0.63407
6260.70727,0.63227
6258.77852,0.63083
6256.84978,0.63193
6254.92103,0.63385
6252.99229,0.63281
6251.06354,0.63007
6249.13480,0.62915
6247.20605,0.63032
6245.27730,0.63171
6243.34856,0.63149
6241.41981,0.62873
6239.49107,0.62487
6237.56232,0.62275
6235.63358,0.62221
6233.70483,0.62144
6231.77609,0.62007
6229.84734,0.61880
6227.91860,0.61857
6225.98985,0.61850
6224.06111,0.61790
6222.13236,0.61737
6220.20362,0.61604
6218.27487,0.61393
6216.34613,0.61290
6214.41738,0.61341
6212.48863,0.61368
6210.55989,0.61191
6208.63114,0.61006
6206.70240,0.61067
6204.77365,0.61214
6202.84491,0.61233
6200.91616,0.61022
6198.98742,0.60604
6197.05867,0.60279
6195.12993,0.60164
6193.20118,0.60087
6191.27244,0.59985
6189.34369,0.59814
6187.41495,0.59494
6185.48620,0.59098
6183.55746,0.58881
6181.62871,0.58895
6179.69996,0.58849
6177.77122,0.58580
6175.84247,0.58185
6173.91373,0.57743
6171.98498,0.57285
6170.05624,0.56942
6168.12749,0.56792
6166.19875,0.56627
6164.27000,0.56236
6162.34126,0.55669
6160.41251,0.55090
6158.48377,0.54630
6156.55502,0.54228
6154.62628,0.53713
6152.69753,0.53121
6150.76878,0.52624
6148.84004,0.52202
6146.91129,0.51759
6144.98255,0.51388
6143.05380,0.51096
6141.12506,0.50724
6139.19631,0.50334
6137.26757,0.50006
6135.33882,0.49530
6133.41008,0.48865
6131.48133,0.48226
6129.55259,0.47679
6127.62384,0.47196
6125.69510,0.46776
6123.76635,0.46384
6121.83761,0.46058
6119.90886,0.45803
6117.98011,0.45469
6116.05137,0.45014
6114.12262,0.44608
6112.19388,0.44385
6110.26513,0.44285
6108.33639,0.44194
6106.40764,0.44180
6104.47890,0.44288
6102.55015,0.44394
6100.62141,0.44542
6098.69266,0.44840
6096.76392,0.45228
6094.83517,0.45697
6092.90643,0.46140
6090.97768,0.46346
6089.04893,0.46398
6087.12019,0.46447
6085.19144,0.46456
6083.26270,0.46452
6081.33395,0.46459
6079.40521,0.46410
6077.47646,0.46351
6075.54772,0.46404
6073.61897,0.46632
6071.69023,0.46978
6069.76148,0.47289
6067.83274,0.47433
6065.90399,0.47434
6063.97525,0.47503
6062.04650,0.47694
6060.11776,0.47798
6058.18901,0.47750
6056.26026,0.47703
6054.33152,0.47702
6052.40277,0.47600
6050.47403,0.47313
6048.54528,0.46865
6046.61654,0.46262
6044.68779,0.45602
6042.75905,0.45000
6040.83030,0.44460
6038.90156,0.43948
6036.97281,0.43371
6035.04407,0.42737
6033.11532,0.42162
6031.18658,0.41570
6029.25783,0.40832
6027.32909,0.40036
6025.40034,0.39326
6023.47159,0.38652
6021.54285,0.37899
6019.61410,0.37093
6017.68536,0.36334
6015.75661,0.35709
6013.82787,0.35210
6011.89912,0.34747
6009.97038,0.34284
6008.04163,0.33754
6006.11289,0.33115
6004.18414,0.32516
6002.25540,0.32123
6000.32665,0.31897
5998.39791,0.31673
5996.46916,0.31350
5994.54041,0.30921
5992.61167,0.30430
5990.68292,0.29988
5988.75418,0.29589
5986.82543,0.29145
5984.89669,0.28685
5982.96794,0.28246
5981.03920,0.27857
5979.11045,0.27635
5977.18171,0.27583
5975.25296,0.27494
5973.32422,0.27289
5971.39547,0.27040
5969.46673,0.26783
5967.53798,0.26638
5965.60924,0.26648
5963.68049,0.26703
5961.75174,0.26747
5959.82300,0.26734
5957.89425,0.26746
5955.96551,0.26832
5954.03676,0.26778
5952.10802,0.26601
5950.17927,0.26520
5948.25053,0.26517
5946.32178,0.26548
5944.39304,0.26710
5942.46429,0.26985
5940.53555,0.27267
5938.60680,0.27562
5936.67806,0.27855
5934.74931,0.28012
5932.82057,0.27993
5930.89182,0.27981
5928.96307,0.28117
5927.03433,0.28270
5925.10558,0.28334
5923.17684,0.28327
5921.24809,0.28207
5919.31935,0.28012
5917.39060,0.27940
5915.46186,0.28020
5913.53311,0.28087
5911.60437,0.28123
5909.67562,0.28187
5907.74688,0.28235
5905.81813,0.28265
5903.88939,0.28316
5901.96064,0.28378
5900.03189,0.28447
5898.10315,0.28550
5896.17440,0.28634
5894.24566,0.28645
5892.31691,0.28623
5890.38817,0.28631
5888.45942,0.28744
5886.53068,0.28920
5884.60193,0.29081
5882.67319,0.29280
5880.74444,0.29496
5878.81570,0.29604
5876.88695,0.29609
5874.95821,0.29658
5873.02946,0.29777
5871.10072,0.29828
5869.17197,0.29788
5867.24322,0.29777
5865.31448,0.29793
5863.38573,0.29760
5861.45699,0.29722
5859.52824,0.29702
5857.59950,0.29651
5855.67075,0.29624
5853.74201,0.29672
5851.81326,0.29731
5849.88452,0.29744
5847.95577,0.29729
5846.02703,0.29695
5844.09828,0.29624
5842.16954,0.29530
5840.24079,0.29458
5838.31205,0.29477
5836.38330,0.29532
5834.45455,0.29522
5832.52581,0.29566
5830.59706,0.29705
5828.66832,0.29740
5826.73957,0.29661
5824.81083,0.29599
5822.88208,0.29563
5820.95334,0.29575
5819.02459,0.29588
5817.09585,0.29481
5815.16710,0.29325
5813.23836,0.29248
5811.30961,0.29245
5809.38087,0.29304
5807.45212,0.29413
5805.52337,0.29502
5803.59463,0.29510
5801.66588,0.29470
5799.73714,0.29475
5797.80839,0.29540
5795.87965,0.29582
5793.95090,0.29594
5792.02216,0.29673
5790.09341,0.29827
5788.16467,0.30018
5786.23592,0.30283
5784.30718,0.30508
5782.37843,0.30550
5780.44969,0.30607
5778.52094,0.30876
5776.59220,0.31260
5774.66345,0.31652
5772.73470,0.31939
5770.80596,0.32106
5768.87721,0.32381
5766.94847,0.32797
5765.01972,0.33120
5763.09098,0.33275
5761.16223,0.33404
5759.23349,0.33604
5757.30474,0.33829
5755.37600,0.34044
5753.44725,0.34182
5751.51851,0.34188
5749.58976,0.34173
5747.66102,0.34206
5745.73227,0.34250
5743.80352,0.34215
5741.87478,0.34062
5739.94603,0.33928
5738.01729,0.33864
5736.08854,0.33771
5734.15980,0.33581
5732.23105,0.33328
5730.30231,0.33134
5728.37356,0.32936
5726.44482,0.32596
5724.51607,0.32274
5722.58733,0.32073
5720.65858,0.31806
5718.72984,0.31434
5716.80109,0.31114
5714.87235,0.30905
5712.94360,0.30737
5711.01485,0.30546
5709.08611,0.30367
5707.15736,0.30222
5705.22862,0.30128
5703.29987,0.30138
5701.37113,0.30169
5699.44238,0.30168
5697.51364,0.30206
5695.58489,0.30228
5693.65615,0.30194
5691.72740,0.30200
5689.79866,0.30262
5687.86991,0.30352
5685.94117,0.30460
5684.01242,0.30543
5682.08368,0.30584
5680.15493,0.30566
5678.22618,0.30515
5676.29744,0.30564
5674.36869,0.30675
5672.43995,0.30712
5670.51120,0.30755
5668.58246,0.30883
5666.65371,0.31043
5664.72497,0.31181
5662.79622,0.31258
5660.86748,0.31301
5658.93873,0.31384
5657.00999,0.31521
5655.08124,0.31683
5653.15250,0.31850
5651.22375,0.32038
5649.29500,0.32203
5647.36626,0.32316
5645.43751,0.32461
5643.50877,0.32652
5641.58002,0.32847
5639.65128,0.33039
5637.72253,0.33213
5635.79379,0.33423
5633.86504,0.33696
5631.93630,0.33889
5630.00755,0.33905
5628.07881,0.33869
5626.15006,0.33897
5624.22132,0.33978
5622.29257,0.34116
5620.36383,0.34293
5618.43508,0.34420
5616.50633,0.34422
5614.57759,0.34309
5612.64884,0.34232
5610.72010,0.34327
5608.79135,0.34517
5606.86261,0.34618
5604.93386,0.34633
5603.00512,0.34743
5601.07637,0.34895
5599.14763,0.34874
5597.21888,0.34738
5595.29014,0.34646
5593.36139,0.34663
5591.43265,0.34816
5589.50390,0.35020
5587.57516,0.35193
5585.64641,0.35384
5583.71766,0.35596
5581.78892,0.35733
5579.86017,0.35801
5577.93143,0.35869
5576.00268,0.35936
5574.07394,0.36035
5572.14519,0.36165
5570.21645,0.36243
5568.28770,0.36226
5566.35896,0.36175
5564.43021,0.36212
5562.50147,0.36351
5560.57272,0.36472
5558.64398,0.36505
5556.71523,0.36501
5554.78648,0.36525
5552.85774,0.36561
5550.92899,0.36594
5549.00025,0.36637
5547.07150,0.36708
5545.14276,0.36773
5543.21401,0.36757
5541.28527,0.36674
5539.35652,0.36625
5537.42778,0.36629
5535.49903,0.36643
5533.57029,0.36708
5531.64154,0.36812
5529.71280,0.36849
5527.78405,0.36868
5525.85531,0.36912
5523.92656,0.36874
5521.99781,0.36797
5520.06907,0.36812
5518.14032,0.36876
5516.21158,0.36927
5514.28283,0.36994
5512.35409,0.37029
5510.42534,0.36965
5508.49660,0.36860
5506.56785,0.36839
5504.63911,0.36941
5502.71036,0.37093
5500.78162,0.37245
5498.85287,0.37399
5496.92413,0.37492
5494.99538,0.37460
5493.06664,0.37395
5491.13789,0.37437
5489.20914,0.37550
5487.28040,0.37636
5485.35165,0.37701
5483.42291,0.37759
5481.49416,0.37747
5479.56542,0.37643
5477.63667,0.37593
5475.70793,0.37711
5473.77918,0.37835
5471.85044,0.37828
5469.92169,0.37800
5467.99295,0.37806
5466.06420,0.37769
5464.13546,0.37687
5462.20671,0.37639
5460.27796,0.37631
5458.34922,0.37640
5456.42047,0.37677
5454.49173,0.37728
5452.56298,0.37742
5450.63424,0.37707
5448.70549,0.37706
5446.77675,0.37787
5444.84800,0.37874
5442.91926,0.37886
5440.99051,0.37820
5439.06177,0.37740
5437.13302,0.37655
5435.20428,0.37540
5433.27553,0.37491
5431.34679,0.37545
5429.41804,0.37589
5427.48929,0.37591
5425.56055,0.37558
5423.63180,0.37442
5421.70306,0.37316
5419.77431,0.37314
5417.84557,0.37464
5415.91682,0.37684
5413.98808,0.37801
5412.05933,0.37750
5410.13059,0.37641
5408.20184,0.37564
5406.27310,0.37560
5404.34435,0.37574
5402.41561,0.37567
5400.48686,0.37573
5398.55811,0.37564
5396.62937,0.37494
5394.70062,0.37380
5392.77188,0.37290
5390.84313,0.37306
5388.91439,0.37403
5386.98564,0.37488
5385.05690,0.37529
5383.12815,0.37548
5381.19941,0.37515
5379.27066,0.37409
5377.34192,0.37337
5375.41317,0.37393
5373.48443,0.37515
5371.55568,0.37575
5369.62694,0.37552
5367.69819,0.37554
5365.76944,0.37575
5363.84070,0.37547
5361.91195,0.37604
5359.98321,0.37805
5358.05446,0.37949
5356.12572,0.37969
5354.19697,0.38014
5352.26823,0.38121
5350.33948,0.38204
5348.41074,0.38271
5346.48199,0.38373
5344.55325,0.38468
5342.62450,0.38492
5340.69576,0.38462
5338.76701,0.38397
5336.83827,0.38334
5334.90952,0.38330
5332.98077,0.38390
5331.05203,0.38491
5329.12328,0.38584
5327.19454,0.38618
5325.26579,0.38634
5323.33705,0.38707
5321.40830,0.38787
5319.47956,0.38788
5317.55081,0.38738
5315.62207,0.38719
5313.69332,0.38739
5311.76458,0.38744
5309.83583,0.38710
5307.90709,0.38681
5305.97834,0.38700
5304.04959,0.38725
5302.12085,0.38673
5300.19210,0.38565
5298.26336,0.38471
5296.33461,0.38353
5294.40587,0.38227
5292.47712,0.38171
5290.54838,0.38123
5288.61963,0.38008
5286.69089,0.37861
5284.76214,0.37722
5282.83340,0.37604
5280.90465,0.37471
5278.97591,0.37261
5277.04716,0.36962
5275.11842,0.36630
5273.18967,0.36350
5271.26092,0.36132
5269.33218,0.35947
5267.40343,0.35802
5265.47469,0.35646
5263.54594,0.35431
5261.61720,0.35216
5259.68845,0.35012
5257.75971,0.34801
5255.83096,0.34662
5253.90222,0.34628
5251.97347,0.34622
5250.04473,0.34626
5248.11598,0.34642
5246.18724,0.34650
5244.25849,0.34661
5242.32975,0.34669
5240.40100,0.34704
5238.47225,0.34812
5236.54351,0.34923
5234.61476,0.35035
5232.68602,0.35237
5230.75727,0.35502
5228.82853,0.35742
5226.89978,0.35921
5224.97104,0.36052
5223.04229,0.36188
5221.11355,0.36297
5219.18480,0.36337
5217.25606,0.36428
5215.32731,0.36656
5213.39857,0.36919
5211.46982,0.37119
5209.54107,0.37232
5207.61233,0.37256
5205.68358,0.37233
5203.75484,0.37248
5201.82609,0.37333
5199.89735,0.37428
5197.96860,0.37480
5196.03986,0.37530
5194.11111,0.37572
5192.18237,0.37530
5190.25362,0.37462
5188.32488,0.37449
5186.39613,0.37419
5184.46739,0.37345
5182.53864,0.37304
5180.60990,0.37301
5178.68115,0.37288
5176.75240,0.37255
5174.82366,0.37199
5172.89491,0.37129
5170.96617,0.37029
5169.03742,0.36855
5167.10868,0.36653
5165.17993,0.36530
5163.25119,0.36465
5161.32244,0.36354
5159.39370,0.36218
5157.46495,0.36113
5155.53621,0.36022
5153.60746,0.35946
5151.67872,0.35859
5149.74997,0.35751
5147.82123,0.35642
5145.89248,0.35486
5143.96373,0.35337
5142.03499,0.35309
5140.10624,0.35372
5138.17750,0.35450
5136.24875,0.35575
5134.32001,0.35805
5132.39126,0.36080
5130.46252,0.36308
5128.53377,0.36511
5126.60503,0.36713
5124.67628,0.36904
5122.74754,0.37098
5120.81879,0.37278
5118.89005,0.37436
5116.96130,0.37603
5115.03255,0.37772
5113.10381,0.37902
5111.17506,0.37985
5109.24632,0.38082
5107.31757,0.38218
5105.38883,0.38327
5103.46008,0.38398
5101.53134,0.38448
5099.60259,0.38444
5097.67385,0.38394
5095.74510,0.38374
5093.81636,0.38430
5091.88761,0.38561
5089.95887,0.38697
5088.03012,0.38732
5086.10138,0.38679
5084.17263,0.38638
5082.24388,0.38636
5080.31514,0.38682
5078.38639,0.38774
5076.45765,0.38824
5074.52890,0.38801
5072.60016,0.38781
5070.67141,0.38798
5068.74267,0.38818
5066.81392,0.38803
5064.88518,0.38755
5062.95643,0.38751
5061.02769,0.38799
5059.09894,0.38822
5057.17020,0.38823
5055.24145,0.38836
5053.31270,0.38837
5051.38396,0.38803
5049.45521,0.38751
5047.52647,0.38728
5045.59772,0.38750
5043.66898,0.38806
5041.74023,0.38862
5039.81149,0.38856
5037.88274,0.38797
5035.95400,0.38762
5034.02525,0.38792
5032.09651,0.38859
5030.16776,0.38923
5028.23902,0.38981
5026.31027,0.39025
5024.38153,0.39042
5022.45278,0.39042
5020.52403,0.39033
5018.59529,0.39003
5016.66654,0.38947
5014.73780,0.38894
5012.80905,0.38877
5010.88031,0.38869
5008.95156,0.38848
5007.02282,0.38845
5005.09407,0.38819
5003.16533,0.38734
5001.23658,0.38647
4999.30784,0.38565
4997.37909,0.38473
4995.45035,0.38446
4993.52160,0.38514
4991.59286,0.38566
4989.66411,0.38514
4987.73536,0.38400
4985.80662,0.38309
4983.87787,0.38293
4981.94913,0.38287
4980.02038,0.38207
4978.09164,0.38120
4976.16289,0.38087
4974.23415,0.38059
4972.30540,0.37991
4970.37666,0.37909
4968.44791,0.37830
4966.51917,0.37735
4964.59042,0.37650
4962.66168,0.37631
4960.73293,0.37661
4958.80418,0.37681
4956.87544,0.37660
4954.94669,0.37619
4953.01795,0.37610
4951.08920,0.37628
4949.16046,0.37613
4947.23171,0.37593
4945.30297,0.37590
4943.37422,0.37554
4941.44548,0.37514
4939.51673,0.37521
4937.58799,0.37546
4935.65924,0.37572
4933.73050,0.37612
4931.80175,0.37649
4929.87301,0.37646
4927.94426,0.37627
4926.01551,0.37664
4924.08677,0.37746
4922.15802,0.37749
4920.22928,0.37640
4918.30053,0.37554
4916.37179,0.37570
4914.44304,0.37622
4912.51430,0.37627
4910.58555,0.37580
4908.65681,0.37546
4906.72806,0.37551
4904.79932,0.37536
4902.87057,0.37471
4900.94183,0.37411
4899.01308,0.37397
4897.08434,0.37373
4895.15559,0.37258
4893.22684,0.37109
4891.29810,0.37015
4889.36935,0.36945
4887.44061,0.36864
4885.51186,0.36762
4883.58312,0.36615
4881.65437,0.36478
4879.72563,0.36394
4877.79688,0.36318
4875.86814,0.36245
4873.93939,0.36211
4872.01065,0.36223
4870.08190,0.36280
4868.15316,0.36362
4866.22441,0.36410
4864.29566,0.36409
4862.36692,0.36411
4860.43817,0.36469
4858.50943,0.36561
4856.58068,0.36619
4854.65194,0.36626
4852.72319,0.36622
4850.79445,0.36643
4848.86570,0.36681
4846.93696,0.36702
4845.00821,0.36681
4843.07947,0.36647
4841.15072,0.36638
4839.22198,0.36614
4837.29323,0.36561
4835.36449,0.36560
4833.43574,0.36655
4831.50699,0.36754
4829.57825,0.36762
4827.64950,0.36731
4825.72076,0.36737
4823.79201,0.36747
4821.86327,0.36718
4819.93452,0.36682
4818.00578,0.36683
4816.07703,0.36720
4814.14829,0.36745
4812.21954,0.36715
4810.29080,0.36639
4808.36205,0.36558
4806.43331,0.36503
4804.50456,0.36475
4802.57582,0.36448
4800.64707,0.36403
4798.71832,0.36336
4796.78958,0.36247
4794.86083,0.36145
4792.93209,0.36040
4791.00334,0.35939
4789.07460,0.35850
4787.14585,0.35760
4785.21711,0.35652
4783.28836,0.35522
4781.35962,0.35392
4779.43087,0.35268
4777.50213,0.35131
4775.57338,0.34982
4773.64464,0.34831
4771.71589,0.34636
4769.78714,0.34415
4767.85840,0.34245
4765.92965,0.34130
4764.00091,0.34033
4762.07216,0.33938
4760.14342,0.33848
4758.21467,0.33777
4756.28593,0.33729
4754.35718,0.33669
4752.42844,0.33556
4750.49969,0.33409
4748.57095,0.33268
4746.64220,0.33099
4744.71346,0.32875
4742.78471,0.32652
4740.85597,0.32434
4738.92722,0.32137
4736.99847,0.31768
4735.06973,0.31416
4733.14098,0.31058
4731.21224,0.30583
4729.28349,0.30018
4727.35475,0.29464
4725.42600,0.28899
4723.49726,0.28298
4721.56851,0.27759
4719.63977,0.27314
4717.71102,0.26917
4715.78228,0.26606
4713.85353,0.26441
4711.92479,0.26403
4709.99604,0.26403
4708.06729,0.26387
4706.13855,0.26376
4704.20980,0.26344
4702.28106,0.26246
4700.35231,0.26074
4698.42357,0.25855
4696.49482,0.25646
4694.56608,0.25409
4692.63733,0.25044
4690.70859,0.24548
4688.77984,0.23941
4686.85110,0.23204
4684.92235,0.22358
4682.99361,0.21481
4681.06486,0.20614
4679.13612,0.19749
4677.20737,0.18902
4675.27862,0.18131
4673.34988,0.17533
4671.42113,0.17140
4669.49239,0.16877
4667.56364,0.16733
4665.63490,0.16739
4663.70615,0.16846
4661.77741,0.17015
4659.84866,0.17259
4657.91992,0.17606
4655.99117,0.18039
4654.06243,0.18448
4652.13368,0.18772
4650.20494,0.19047
4648.27619,0.19251
4646.34745,0.19304
4644.41870,0.19179
4642.48995,0.18951
4640.56121,0.18696
4638.63246,0.18409
4636.70372,0.18086
4634.77497,0.17771
4632.84623,0.17498
4630.91748,0.17256
4628.98874,0.17046
4627.05999,0.16927
4625.13125,0.16922
4623.20250,0.16963
4621.27376,0.16984
4619.34501,0.16985
4617.41627,0.16979
4615.48752,0.16933
4613.55877,0.16806
4611.63003,0.16652
4609.70128,0.16561
4607.77254,0.16562
4605.84379,0.16683
4603.91505,0.16945
4601.98630,0.17302
4600.05756,0.17711
4598.12881,0.18181
4596.20007,0.18670
4594.27132,0.19100
4592.34258,0.19456
4590.41383,0.19737
4588.48509,0.19895
4586.55634,0.19867
4584.62760,0.19648
4582.69885,0.19301
4580.77010,0.18902
4578.84136,0.18511
4576.91261,0.18184
4574.98387,0.18005
4573.05512,0.18055
4571.12638,0.18333
4569.19763,0.18787
4567.26889,0.19371
4565.34014,0.20001
4563.41140,0.20563
4561.48265,0.21009
4559.55391,0.21386
4557.62516,0.21767
4555.69642,0.22162
4553.76767,0.22523
4551.83893,0.22830
4549.91018,0.23083
4547.98143,0.23280
4546.05269,0.23438
4544.12394,0.23546
4542.19520,0.23583
4540.26645,0.23572
4538.33771,0.23554
4536.40896,0.23542
4534.48022,0.23526
4532.55147,0.23515
4530.62273,0.23536
4528.69398,0.23579
4526.76524,0.23603
4524.83649,0.23566
4522.90775,0.23470
4520.97900,0.23358
4519.05025,0.23260
4517.12151,0.23178
4515.19276,0.23105
4513.26402,0.23032
4511.33527,0.22950
4509.40653,0.22873
4507.47778,0.22838
4505.54904,0.22839
4503.62029,0.22823
4501.69155,0.22772
4499.76280,0.22727
4497.83406,0.22675
4495.90531,0.22535
4493.97657,0.22281
4492.04782,0.21986
4490.11908,0.21693
4488.19033,0.21370
4486.26158,0.21020
4484.33284,0.20686
4482.40409,0.20385
4480.47535,0.20156
4478.54660,0.20057
4476.61786,0.20119
4474.68911,0.20311
4472.76037,0.20567
4470.83162,0.20859
4468.90288,0.21165
4466.97413,0.21395
4465.04539,0.21502
4463.11664,0.21531
4461.18790,0.21502
4459.25915,0.21381
4457.33041,0.21177
4455.40166,0.20953
4453.47291,0.20751
4451.54417,0.20549
4449.61542,0.20338
4447.68668,0.20170
4445.75793,0.20083
4443.82919,0.20025
4441.90044,0.19943
4439.97170,0.19855
4438.04295,0.19793
4436.11421,0.19751
4434.18546,0.19702
4432.25672,0.19612
4430.32797,0.19469
4428.39923,0.19287
4426.47048,0.19090
4424.54173,0.18889
4422.61299,0.18673
4420.68424,0.18411
4418.75550,0.18113
4416.82675,0.17852
4414.89801,0.17642
4412.96926,0.17426
4411.04052,0.17169
4409.11177,0.16875
4407.18303,0.16581
4405.25428,0.16332
4403.32554,0.16115
4401.39679,0.15893
4399.46805,0.15645
4397.53930,0.15393
4395.61056,0.15181
4393.68181,0.15001
4391.75306,0.14792
4389.82432,0.14525
4387.89557,0.14242
4385.96683,0.13997
4384.03808,0.13803
4382.10934,0.13634
4380.18059,0.13451
4378.25185,0.13248
4376.32310,0.13072
4374.39436,0.12933
4372.46561,0.12787
4370.53687,0.12630
4368.60812,0.12485
4366.67938,0.12350
4364.75063,0.12211
4362.82189,0.12071
4360.89314,0.11940
4358.96439,0.11843
4357.03565,0.11789
4355.10690,0.11751
4353.17816,0.11680
4351.24941,0.11580
4349.32067,0.11493
4347.39192,0.11436
4345.46318,0.11403
4343.53443,0.11370
4341.60569,0.11339
4339.67694,0.11347
4337.74820,0.11379
4335.81945,0.11374
4333.89071,0.11352
4331.96196,0.11369
4330.03321,0.11410
4328.10447,0.11434
4326.17572,0.11441
4324.24698,0.11462
4322.31823,0.11512
4320.38949,0.11591
4318.46074,0.11699
4316.53200,0.11796
4314.60325,0.11836
4312.67451,0.11857
4310.74576,0.11899
4308.81702,0.11925
4306.88827,0.11898
4304.95953,0.11834
4303.03078,0.11768
4301.10204,0.11729
4299.17329,0.11704
4297.24454,0.11644
4295.31580,0.11556
4293.38705,0.11489
4291.45831,0.11442
4289.52956,0.11415
4287.60082,0.11431
4285.67207,0.11432
4283.74333,0.11359
4281.81458,0.11258
4279.88584,0.11166
4277.95709,0.11074
4276.02835,0.10982
4274.09960,0.10896
4272.17086,0.10815
4270.24211,0.10745
4268.31336,0.10682
4266.38462,0.10636
4264.45587,0.10587
4262.52713,0.10488
4260.59838,0.10368
4258.66964,0.10288
4256.74089,0.10247
4254.81215,0.10245
4252.88340,0.10276
4250.95466,0.10287
4249.02591,0.10261
4247.09717,0.10247
4245.16842,0.10265
4243.23968,0.10293
4241.31093,0.10323
4239.38219,0.10360
4237.45344,0.10388
4235.52469,0.10389
4233.59595,0.10387
4231.66720,0.10400
4229.73846,0.10415
4227.80971,0.10446
4225.88097,0.10507
4223.95222,0.10556
4222.02348,0.10563
4220.09473,0.10568
4218.16599,0.10602
4216.23724,0.10623
4214.30850,0.10603
4212.37975,0.10583
4210.45101,0.10596
4208.52226,0.10633
4206.59352,0.10669
4204.66477,0.10705
4202.73602,0.10744
4200.80728,0.10775
4198.87853,0.10819
4196.94979,0.10895
4195.02104,0.10972
4193.09230,0.11028
4191.16355,0.11079
4189.23481,0.11128
4187.30606,0.11167
4185.37732,0.11193
4183.44857,0.11223
4181.51983,0.11273
4179.59108,0.11312
4177.66234,0.11335
4175.73359,0.11393
4173.80484,0.11490
4171.87610,0.11556
4169.94735,0.11559
4168.01861,0.11548
4166.08986,0.11557
4164.16112,0.11568
4162.23237,0.11578
4160.30363,0.11602
4158.37488,0.11632
4156.44614,0.11642
4154.51739,0.11637
4152.58865,0.11649
4150.65990,0.11674
4148.73116,0.11675
4146.80241,0.11636
4144.87367,0.11598
4142.94492,0.11598
4141.01617,0.11611
4139.08743,0.11603
4137.15868,0.11590
4135.22994,0.11579
4133.30119,0.11552
4131.37245,0.11504
4129.44370,0.11461
4127.51496,0.11439
4125.58621,0.11411
4123.65747,0.11364
4121.72872,0.11334
4119.79998,0.11325
4117.87123,0.11306
4115.94249,0.11282
4114.01374,0.11260
4112.08500,0.11219
4110.15625,0.11146
4108.22750,0.11065
4106.29876,0.11028
4104.37001,0.11039
4102.44127,0.11020
4100.51252,0.10960
4098.58378,0.10925
4096.65503,0.10912
4094.72629,0.10880
4092.79754,0.10814
4090.86880,0.10726
4088.94005,0.10644
4087.01131,0.10582
4085.08256,0.10505
4083.15382,0.10383
4081.22507,0.10240
4079.29632,0.10090
4077.36758,0.09927
4075.43883,0.09772
4073.51009,0.09637
4071.58134,0.09513
4069.65260,0.09406
4067.72385,0.09314
4065.79511,0.09216
4063.86636,0.09108
4061.93762,0.09030
4060.00887,0.09002
4058.08013,0.08983
4056.15138,0.08949
4054.22264,0.08921
4052.29389,0.08920
4050.36515,0.08930
4048.43640,0.08922
4046.50765,0.08897
4044.57891,0.08861
4042.65016,0.08828
4040.72142,0.08814
4038.79267,0.08841
4036.86393,0.08929
4034.93518,0.09032
4033.00644,0.09112
4031.07769,0.09198
4029.14895,0.09305
4027.22020,0.09432
4025.29146,0.09577
4023.36271,0.09735
4021.43397,0.09910
4019.50522,0.10111
4017.57648,0.10339
4015.64773,0.10567
4013.71898,0.10754
4011.79024,0.10877
4009.86149,0.10933
4007.93275,0.10937
4006.00400,0.10941
4004.07526,0.10986
4002.14651,0.11054
4000.21777,0.11125
3998.28902,0.11201
3996.36028,0.11277
3994.43153,0.11343
3992.50279,0.11403
3990.57404,0.11471
3988.64530,0.11522
3986.71655,0.11541
3984.78780,0.11549
3982.85906,0.11564
3980.93031,0.11571
3979.00157,0.11555
3977.07282,0.11535
3975.14408,0.11537
3973.21533,0.11582
3971.28659,0.11679
3969.35784,0.11780
3967.42910,0.11819
3965.50035,0.11789
3963.57161,0.11761
3961.64286,0.11784
3959.71412,0.11813
3957.78537,0.11822
3955.85663,0.11833
3953.92788,0.11833
3951.99913,0.11816
3950.07039,0.11799
3948.14164,0.11775
3946.21290,0.11740
3944.28415,0.11710
3942.35541,0.11693
3940.42666,0.11682
3938.49792,0.11689
3936.56917,0.11714
3934.64043,0.11730
3932.71168,0.11731
3930.78294,0.11732
3928.85419,0.11749
3926.92545,0.11770
3924.99670,0.11774
3923.06795,0.11765
3921.13921,0.11756
3919.21046,0.11755
3917.28172,0.11756
3915.35297,0.11760
3913.42423,0.11798
3911.49548,0.11838
3909.56674,0.11836
3907.63799,0.11845
3905.70925,0.11897
3903.78050,0.11933
3901.85176,0.11936
3899.92301,0.11937
3897.99427,0.11943
3896.06552,0.11967
3894.13678,0.12025
3892.20803,0.12094
3890.27928,0.12132
3888.35054,0.12160
3886.42179,0.12205
3884.49305,0.12237
3882.56430,0.12249
3880.63556,0.12249
3878.70681,0.12231
3876.77807,0.12226
3874.84932,0.12245
3872.92058,0.12255
3870.99183,0.12239
3869.06309,0.12212
3867.13434,0.12197
3865.20560,0.12213
3863.27685,0.12254
3861.34811,0.12264
3859.41936,0.12230
3857.49061,0.12233
3855.56187,0.12292
3853.63312,0.12295
3851.70438,0.12200
3849.77563,0.12136
3847.84689,0.12136
3845.91814,0.12150
3843.98940,0.12141
3842.06065,0.12116
3840.13191,0.12094
3838.20316,0.12071
3836.27442,0.12028
3834.34567,0.11954
3832.41693,0.11897
3830.48818,0.11902
3828.55943,0.11910
3826.63069,0.11882
3824.70194,0.11870
3822.77320,0.11870
3820.84445,0.11844
3818.91571,0.11825
3816.98696,0.11838
3815.05822,0.11856
3813.12947,0.11845
3811.20073,0.11822
3809.27198,0.11830
3807.34324,0.11861
3805.41449,0.11879
3803.48575,0.11906
3801.55700,0.11948
3799.62826,0.11963
3797.69951,0.11953
3795.77076,0.11964
3793.84202,0.12017
3791.91327,0.12081
3789.98453,0.12126
3788.05578,0.12161
3786.12704,0.12185
3784.19829,0.12180
3782.26955,0.12183
3780.34080,0.12216
3778.41206,0.12225
3776.48331,0.12187
3774.55457,0.12168
3772.62582,0.12204
3770.69708,0.12248
3768.76833,0.12241
3766.83959,0.12201
3764.91084,0.12173
3762.98209,0.12179
3761.05335,0.12214
3759.12460,0.12260
3757.19586,0.12307
3755.26711,0.12358
3753.33837,0.12398
3751.40962,0.12395
3749.48088,0.12340
3747.55213,0.12297
3745.62339,0.12273
3743.69464,0.12238
3741.76590,0.12225
3739.83715,0.12235
3737.90841,0.12222
3735.97966,0.12187
3734.05091,0.12162
3732.12217,0.12096
3730.19342,0.11970
3728.26468,0.11869
3726.33593,0.11800
3724.40719,0.11695
3722.47844,0.11592
3720.54970,0.11562
3718.62095,0.11599
3716.69221,0.11645
3714.76346,0.11655
3712.83472,0.11621
3710.90597,0.11550
3708.97723,0.11438
3707.04848,0.11300
3705.11974,0.11176
3703.19099,0.11076
3701.26224,0.10990
3699.33350,0.10937
3697.40475,0.10920
3695.47601,0.10891
3693.54726,0.10813
3691.61852,0.10708
3689.68977,0.10557
3687.76103,0.10340
3685.83228,0.10133
3683.90354,0.09952
3681.97479,0.09780
3680.04605,0.09644
3678.11730,0.09524
3676.18856,0.09352
3674.25981,0.09170
3672.33107,0.09044
3670.40232,0.08915
3668.47357,0.08781
3666.54483,0.08698
3664.61608,0.08644
3662.68734,0.08588
3660.75859,0.08532
3658.82985,0.08488
3656.90110,0.08424
3654.97236,0.08326
3653.04361,0.08263
3651.11487,0.08246
3649.18612,0.08212
3647.25738,0.08170
3645.32863,0.08194
3643.39989,0.08271
3641.47114,0.08350
3639.54239,0.08404
3637.61365,0.08425
3635.68490,0.08417
3633.75616,0.08418
3631.82741,0.08458
3629.89867,0.08507
3627.96992,0.08519
3626.04118,0.08498
3624.11243,0.08469
3622.18369,0.08454
3620.25494,0.08479
3618.32620,0.08525
3616.39745,0.08551
3614.46871,0.08579
3612.53996,0.08645
3610.61122,0.08703
3608.68247,0.08703
3606.75372,0.08702
3604.82498,0.08741
3602.89623,0.08792
3600.96749,0.08832
3599.03874,0.08848
3597.11000,0.08838
3595.18125,0.08823
3593.25251,0.08808
3591.32376,0.08784
3589.39502,0.08747
3587.46627,0.08700
3585.53753,0.08657
3583.60878,0.08640
3581.68004,0.08630
3579.75129,0.08599
3577.82254,0.08564
3575.89380,0.08537
3573.96505,0.08497
3572.03631,0.08453
3570.10756,0.08430
3568.17882,0.08397
3566.25007,0.08312
3564.32133,0.08222
3562.39258,0.08179
3560.46384,0.08170
3558.53509,0.08155
3556.60635,0.08117
3554.67760,0.08078
3552.74886,0.08061
3550.82011,0.08055
3548.89137,0.08051
3546.96262,0.08056
3545.03387,0.08047
3543.10513,0.07998
3541.17638,0.07957
3539.24764,0.07964
3537.31889,0.07977
3535.39015,0.07944
3533.46140,0.07897
3531.53266,0.07905
3529.60391,0.07968
3527.67517,0.08011
3525.74642,0.08003
3523.81768,0.07994
3521.88893,0.08012
3519.96019,0.08035
3518.03144,0.08052
3516.10270,0.08073
3514.17395,0.08116
3512.24520,0.08168
3510.31646,0.08184
3508.38771,0.08159
3506.45897,0.08132
3504.53022,0.08127
3502.60148,0.08142
3500.67273,0.08169
3498.74399,0.08194
3496.81524,0.08211
3494.88650,0.08214
3492.95775,0.08206
3491.02901,0.08216
3489.10026,0.08238
3487.17152,0.08252
3485.24277,0.08275
3483.31402,0.08299
3481.38528,0.08295
3479.45653,0.08282
3477.52779,0.08282
3475.59904,0.08276
3473.67030,0.08262
3471.74155,0.08265
3469.81281,0.08303
3467.88406,0.08350
3465.95532,0.08341
3464.02657,0.08303
3462.09783,0.08300
3460.16908,0.08308
3458.24034,0.08292
3456.31159,0.08279
3454.38285,0.08288
3452.45410,0.08300
3450.52535,0.08305
3448.59661,0.08314
3446.66786,0.08305
3444.73912,0.08261
3442.81037,0.08221
3440.88163,0.08213
3438.95288,0.08219
3437.02414,0.08220
3435.09539,0.08233
3433.16665,0.08271
3431.23790,0.08306
3429.30916,0.08306
3427.38041,0.08287
3425.45167,0.08260
3423.52292,0.08212
3421.59418,0.08159
3419.66543,0.08147
3417.73668,0.08195
3415.80794,0.08258
3413.87919,0.08283
3411.95045,0.08279
3410.02170,0.08260
3408.09296,0.08217
3406.16421,0.08166
3404.23547,0.08131
3402.30672,0.08134
3400.37798,0.08164
3398.44923,0.08171
3396.52049,0.08160
3394.59174,0.08149
3392.66300,0.08140
3390.73425,0.08148
3388.80550,0.08171
3386.87676,0.08194
3384.94801,0.08210
3383.01927,0.08202
3381.09052,0.08180
3379.16178,0.08177
3377.23303,0.08202
3375.30429,0.08242
3373.37554,0.08262
3371.44680,0.08251
3369.51805,0.08240
3367.58931,0.08236
3365.66056,0.08230
3363.73182,0.08224
3361.80307,0.08220
3359.87433,0.08205
3357.94558,0.08166
3356.01683,0.08138
3354.08809,0.08138
3352.15934,0.08151
3350.23060,0.08168
3348.30185,0.08178
3346.37311,0.08171
3344.44436,0.08158
3342.51562,0.08138
3340.58687,0.08093
3338.65813,0.08059
3336.72938,0.08085
3334.80064,0.08132
3332.87189,0.08134
3330.94315,0.08087
3329.01440,0.08015
3327.08566,0.07942
3325.15691,0.07879
3323.22816,0.07822
3321.29942,0.07772
3319.37067,0.07712
3317.44193,0.07615
3315.51318,0.07486
3313.58444,0.07345
3311.65569,0.07193
3309.72695,0.07034
3307.79820,0.06875
3305.86946,0.06716
3303.94071,0.06573
3302.01197,0.06489
3300.08322,0.06471
3298.15448,0.06488
3296.22573,0.06527
3294.29698,0.06605
3292.36824,0.06716
3290.43949,0.06843
3288.51075,0.06965
3286.58200,0.07069
3284.65326,0.07165
3282.72451,0.07254
3280.79577,0.07331
3278.86702,0.07403
3276.93828,0.07467
3275.00953,0.07512
3273.08079,0.07549
3271.15204,0.07607
3269.22330,0.07681
3267.29455,0.07735
3265.36581,0.07758
3263.43706,0.07761
3261.50831,0.07758
3259.57957,0.07773
3257.65082,0.07805
3255.72208,0.07827
3253.79333,0.07844
3251.86459,0.07864
3249.93584,0.07861
3248.00710,0.07831
3246.07835,0.07804
3244.14961,0.07795
3242.22086,0.07804
3240.29212,0.07818
3238.36337,0.07811
3236.43463,0.07789
3234.50588,0.07786
3232.57713,0.07797
3230.64839,0.07785
3228.71964,0.07764
3226.79090,0.07766
3224.86215,0.07769
3222.93341,0.07751
3221.00466,0.07735
3219.07592,0.07721
3217.14717,0.07691
3215.21843,0.07666
3213.28968,0.07652
3211.36094,0.07633
3209.43219,0.07597
3207.50345,0.07565
3205.57470,0.07580
3203.64596,0.07624
3201.71721,0.07628
3199.78846,0.07595
3197.85972,0.07558
3195.93097,0.07519
3194.00223,0.07489
3192.07348,0.07490
3190.14474,0.07520
3188.21599,0.07547
3186.28725,0.07549
3184.35850,0.07544
3182.42976,0.07546
3180.50101,0.07553
3178.57227,0.07566
3176.64352,0.07576
3174.71478,0.07572
3172.78603,0.07552
3170.85729,0.07514
3168.92854,0.07476
3166.99979,0.07450
3165.07105,0.07435
3163.14230,0.07429
3161.21356,0.07441
3159.28481,0.07468
3157.35607,0.07477
3155.42732,0.07463
3153.49858,0.07458
3151.56983,0.07453
3149.64109,0.07435
3147.71234,0.07413
3145.78360,0.07394
3143.85485,0.07395
3141.92611,0.07420
3139.99736,0.07416
3138.06861,0.07355
3136.13987,0.07286
3134.21112,0.07261
3132.28238,0.07267
3130.35363,0.07250
3128.42489,0.07198
3126.49614,0.07142
3124.56740,0.07094
3122.63865,0.07032
3120.70991,0.06954
3118.78116,0.06879
3116.85242,0.06807
3114.92367,0.06727
3112.99493,0.06628
3111.06618,0.06523
3109.13744,0.06439
3107.20869,0.06384
3105.27994,0.06350
3103.35120,0.06337
3101.42245,0.06344
3099.49371,0.06357
3097.56496,0.06358
3095.63622,0.06337
3093.70747,0.06287
3091.77873,0.06222
3089.84998,0.06159
3087.92124,0.06095
3085.99249,0.06045
3084.06375,0.06033
3082.13500,0.06043
3080.20626,0.06058
3078.27751,0.06077
3076.34877,0.06074
3074.42002,0.06040
3072.49127,0.06014
3070.56253,0.06002
3068.63378,0.05982
3066.70504,0.05953
3064.77629,0.05937
3062.84755,0.05950
3060.91880,0.05968
3058.99006,0.05983
3057.06131,0.06013
3055.13257,0.06046
3053.20382,0.06073
3051.27508,0.06109
3049.34633,0.06139
3047.41759,0.06132
3045.48884,0.06099
3043.56009,0.06061
3041.63135,0.06017
3039.70260,0.05973
3037.77386,0.05931
3035.84511,0.05893
3033.91637,0.05880
3031.98762,0.05893
3030.05888,0.05910
3028.13013,0.05931
3026.20139,0.05960
3024.27264,0.05982
3022.34390,0.05999
3020.41515,0.06015
3018.48641,0.06017
3016.55766,0.06006
3014.62892,0.05995
3012.70017,0.05998
3010.77142,0.06005
3008.84268,0.05974
3006.91393,0.05911
3004.98519,0.05877
3003.05644,0.05889
3001.12770,0.05936
2999.19895,0.05992
2997.27021,0.06019
2995.34146,0.06016
2993.41272,0.06006
2991.48397,0.05986
2989.55523,0.05956
2987.62648,0.05932
2985.69774,0.05928
2983.76899,0.05945
2981.84025,0.05959
2979.91150,0.05942
2977.98275,0.05910
2976.05401,0.05902
2974.12526,0.05924
2972.19652,0.05945
2970.26777,0.05937
2968.33903,0.05906
2966.41028,0.05878
2964.48154,0.05874
2962.55279,0.05886
2960.62405,0.05877
2958.69530,0.05845
2956.76656,0.05826
2954.83781,0.05834
2952.90907,0.05848
2950.98032,0.05851
2949.05157,0.05846
2947.12283,0.05857
2945.19408,0.05874
2943.26534,0.05874
2941.33659,0.05867
2939.40785,0.05877
2937.47910,0.05910
2935.55036,0.05946
2933.62161,0.05966
2931.69287,0.05981
2929.76412,0.06020
2927.83538,0.06083
2925.90663,0.06134
2923.97789,0.06170
2922.04914,0.06211
2920.12040,0.06242
2918.19165,0.06250
2916.26290,0.06239
2914.33416,0.06225
2912.40541,0.06221
2910.47667,0.06224
2908.54792,0.06223
2906.61918,0.06215
2904.69043,0.06192
2902.76169,0.06161
2900.83294,0.06154
2898.90420,0.06178
2896.97545,0.06211
2895.04671,0.06234
2893.11796,0.06238
2891.18922,0.06221
2889.26047,0.06193
2887.33172,0.06174
2885.40298,0.06173
2883.47423,0.06182
2881.54549,0.06181
2879.61674,0.06162
2877.68800,0.06144
2875.75925,0.06141
2873.83051,0.06159
2871.90176,0.06191
2869.97302,0.06208
2868.04427,0.06196
2866.11553,0.06168
2864.18678,0.06148
2862.25804,0.06165
2860.32929,0.06211
2858.40055,0.06240
2856.47180,0.06237
2854.54305,0.06232
2852.61431,0.06253
2850.68556,0.06285
2848.75682,0.06288
2846.82807,0.06266
2844.89933,0.06255
2842.97058,0.06250
2841.04184,0.06229
2839.11309,0.06197
2837.18435,0.06172
2835.25560,0.06164
2833.32686,0.06172
2831.39811,0.06192
2829.46937,0.06216
2827.54062,0.06243
2825.61188,0.06282
2823.68313,0.06333
2821.75438,0.06370
2819.82564,0.06395
2817.89689,0.06418
2815.96815,0.06436
2814.03940,0.06452
2812.11066,0.06475
2810.18191,0.06501
2808.25317,0.06532
2806.32442,0.06565
2804.39568,0.06587
2802.46693,0.06585
2800.53819,0.06575
2798.60944,0.06583
2796.68070,0.06611
2794.75195,0.06626
2792.82320,0.06628
2790.89446,0.06653
2788.96571,0.06694
2787.03697,0.06717
2785.10822,0.06725
2783.17948,0.06731
2781.25073,0.06744
2779.32199,0.06761
2777.39324,0.06766
2775.46450,0.06769
2773.53575,0.06797
2771.60701,0.06833
2769.67826,0.06846
2767.74952,0.06843
2765.82077,0.06855
2763.89203,0.06882
2761.96328,0.06899
2760.03453,0.06902
2758.10579,0.06904
2756.17704,0.06914
2754.24830,0.06934
2752.31955,0.06954
2750.39081,0.06958
2748.46206,0.06950
2746.53332,0.06953
2744.60457,0.06968
2742.67583,0.06975
2740.74708,0.06966
2738.81834,0.06942
2736.88959,0.06918
2734.96085,0.06913
2733.03210,0.06932
2731.10336,0.06952
2729.17461,0.06957
2727.24586,0.06944
2725.31712,0.06916
2723.38837,0.06893
2721.45963,0.06905
2719.53088,0.06940
2717.60214,0.06956
2715.67339,0.06940
2713.74465,0.06918
2711.81590,0.06921
2709.88716,0.06941
2707.95841,0.06939
2706.02967,0.06913
2704.10092,0.06892
2702.17218,0.06887
2700.24343,0.06891
2698.31468,0.06892
2696.38594,0.06886
2694.45719,0.06878
2692.52845,0.06884
2690.59970,0.06902
2688.67096,0.06906
2686.74221,0.06876
2684.81347,0.06847
2682.88472,0.06850
2680.95598,0.06871
2679.02723,0.06881
2677.09849,0.06866
2675.16974,0.06837
2673.24100,0.06823
2671.31225,0.06824
2669.38351,0.06821
2667.45476,0.06821
2665.52601,0.06835
2663.59727,0.06844
2661.66852,0.06842
2659.73978,0.06847
2657.81103,0.06867
2655.88229,0.06880
2653.95354,0.06880
2652.02480,0.06878
2650.09605,0.06871
2648.16731,0.06855
2646.23856,0.06831
2644.30982,0.06812
2642.38107,0.06816
2640.45233,0.06835
2638.52358,0.06840
2636.59484,0.06836
2634.66609,0.06844
2632.73734,0.06855
2630.80860,0.06860
2628.87985,0.06877
2626.95111,0.06908
2625.02236,0.06932
2623.09362,0.06941
2621.16487,0.06948
2619.23613,0.06948
2617.30738,0.06945
2615.37864,0.06949
2613.44989,0.06947
2611.52115,0.06924
2609.59240,0.06890
2607.66366,0.06872
2605.73491,0.06882
2603.80616,0.06900
2601.87742,0.06905
2599.94867,0.06908
2598.01993,0.06919
2596.09118,0.06937
2594.16244,0.06964
2592.23369,0.06996
2590.30495,0.07007
2588.37620,0.06980
2586.44746,0.06938
2584.51871,0.06919
2582.58997,0.06936
2580.66122,0.06965
2578.73248,0.06972
2576.80373,0.06967
2574.87499,0.06978
2572.94624,0.06982
2571.01749,0.06961
2569.08875,0.06945
2567.16000,0.06962
2565.23126,0.06991
2563.30251,0.06996
2561.37377,0.06978
2559.44502,0.06966
2557.51628,0.06971
2555.58753,0.06980
2553.65879,0.06980
2551.73004,0.06966
2549.80130,0.06941
2547.87255,0.06928
2545.94381,0.06943
2544.01506,0.06965
2542.08631,0.06971
2540.15757,0.06967
2538.22882,0.06963
2536.30008,0.06957
2534.37133,0.06944
2532.44259,0.06931
2530.51384,0.06925
2528.58510,0.06924
2526.65635,0.06917
2524.72761,0.06897
2522.79886,0.06881
2520.87012,0.06883
2518.94137,0.06892
2517.01263,0.06895
2515.08388,0.06894
2513.15514,0.06901
2511.22639,0.06911
2509.29764,0.06915
2507.36890,0.06922
2505.44015,0.06935
2503.51141,0.06934
2501.58266,0.06930
2499.65392,0.06946
2497.72517,0.06962
2495.79643,0.06959
2493.86768,0.06955
2491.93894,0.06966
2490.01019,0.06983
2488.08145,0.06988
2486.15270,0.06981
2484.22396,0.06984
2482.29521,0.07010
2480.36647,0.07044
2478.43772,0.07060
2476.50897,0.07074
2474.58023,0.07099
2472.65148,0.07115
2470.72274,0.07113
2468.79399,0.07109
2466.86525,0.07113
2464.93650,0.07121
2463.00776,0.07124
2461.07901,0.07118
2459.15027,0.07101
2457.22152,0.07081
2455.29278,0.07071
2453.36403,0.07070
2451.43529,0.07062
2449.50654,0.07048
2447.57779,0.07050
2445.64905,0.07060
2443.72030,0.07063
2441.79156,0.07068
2439.86281,0.07074
2437.93407,0.07066
2436.00532,0.07047
2434.07658,0.07034
2432.14783,0.07033
2430.21909,0.07028
2428.29034,0.07019
2426.36160,0.07026
2424.43285,0.07048
2422.50411,0.07060
2420.57536,0.07050
2418.64662,0.07039
2416.71787,0.07035
2414.78912,0.07027
2412.86038,0.07014
2410.93163,0.06998
2409.00289,0.06979
2407.07414,0.06963
2405.14540,0.06952
2403.21665,0.06961
2401.28791,0.06986
2399.35916,0.06998
2397.43042,0.06989
2395.50167,0.06977
2393.57293,0.06960
2391.64418,0.06942
2389.71544,0.06940
2387.78669,0.06940
2385.85795,0.06921
2383.92920,0.06891
2382.00045,0.06873
2380.07171,0.06875
2378.14296,0.06890
2376.21422,0.06899
2374.28547,0.06893
2372.35673,0.06879
2370.42798,0.06864
2368.49924,0.06852
2366.57049,0.06840
2364.64175,0.06821
2362.71300,0.06816
2360.78426,0.06835
2358.85551,0.06849
2356.92677,0.06838
2354.99802,0.06805
2353.06927,0.06764
2351.14053,0.06727
2349.21178,0.06703
2347.28304,0.06689
2345.35429,0.06673
2343.42555,0.06653
2341.49680,0.06637
2339.56806,0.06629
2337.63931,0.06639
2335.71057,0.06668
2333.78182,0.06709
2331.85308,0.06753
2329.92433,0.06784
2327.99559,0.06784
2326.06684,0.06768
2324.13810,0.06753
2322.20935,0.06735
2320.28060,0.06722
2318.35186,0.06710
2316.42311,0.06694
2314.49437,0.06687
2312.56562,0.06680
2310.63688,0.06675
2308.70813,0.06689
2306.77939,0.06705
2304.85064,0.06717
2302.92190,0.06738
2300.99315,0.06753
2299.06441,0.06757
2297.13566,0.06758
2295.20692,0.06757
2293.27817,0.06756
2291.34943,0.06758
2289.42068,0.06759
2287.49193,0.06760
2285.56319,0.06768
2283.63444,0.06775
2281.70570,0.06764
2279.77695,0.06740
2277.84821,0.06709
2275.91946,0.06673
2273.99072,0.06648
2272.06197,0.06637
2270.13323,0.06620
2268.20448,0.06594
2266.27574,0.06566
2264.34699,0.06537
2262.41825,0.06515
2260.48950,0.06494
2258.56075,0.06456
2256.63201,0.06397
2254.70326,0.06334
2252.77452,0.06266
2250.84577,0.06191
2248.91703,0.06137
2246.98828,0.06102
2245.05954,0.06051
2243.13079,0.06001
2241.20205,0.05990
2239.27330,0.06012
2237.34456,0.06056
2235.41581,0.06106
2233.48707,0.06140
2231.55832,0.06164
2229.62958,0.06203
2227.70083,0.06271
2225.77208,0.06363
2223.84334,0.06453
2221.91459,0.06530
2219.98585,0.06597
2218.05710,0.06659
2216.12836,0.06704
2214.19961,0.06726
2212.27087,0.06740
2210.34212,0.06762
2208.41338,0.06790
2206.48463,0.06812
2204.55589,0.06818
2202.62714,0.06820
2200.69840,0.06819
2198.76965,0.06807
2196.84090,0.06793
2194.91216,0.06787
2192.98341,0.06782
2191.05467,0.06762
2189.12592,0.06725
2187.19718,0.06697
2185.26843,0.06706
2183.33969,0.06750
2181.41094,0.06798
2179.48220,0.06840
2177.55345,0.06881
2175.62471,0.06916
2173.69596,0.06944
2171.76722,0.06965
2169.83847,0.06970
2167.90973,0.06969
2165.98098,0.06987
2164.05223,0.07016
2162.12349,0.07024
2160.19474,0.07014
2158.26600,0.07015
2156.33725,0.07022
2154.40851,0.07014
2152.47976,0.06994
2150.55102,0.06979
2148.62227,0.06968
2146.69353,0.06966
2144.76478,0.06974
2142.83604,0.06978
2140.90729,0.06979
2138.97855,0.06989
2137.04980,0.06999
2135.12106,0.06993
2133.19231,0.06984
2131.26356,0.06990
2129.33482,0.07001
2127.40607,0.06996
2125.47733,0.06977
2123.54858,0.06957
2121.61984,0.06948
2119.69109,0.06952
2117.76235,0.06961
2115.83360,0.06962
2113.90486,0.06961
2111.97611,0.06973
2110.04737,0.06988
2108.11862,0.06995
2106.18988,0.06991
2104.26113,0.06967
2102.33238,0.06937
2100.40364,0.06919
2098.47489,0.06916
2096.54615,0.06922
2094.61740,0.06926
2092.68866,0.06928
2090.75991,0.06937
2088.83117,0.06941
2086.90242,0.06927
2084.97368,0.06908
2083.04493,0.06900
2081.11619,0.06902
2079.18744,0.06905
2077.25870,0.06902
2075.32995,0.06888
2073.40121,0.06867
2071.47246,0.06840
2069.54371,0.06823
2067.61497,0.06829
2065.68622,0.06835
2063.75748,0.06824
2061.82873,0.06812
2059.89999,0.06810
2057.97124,0.06800
2056.04250,0.06790
2054.11375,0.06806
2052.18501,0.06817
2050.25626,0.06797
2048.32752,0.06773
2046.39877,0.06756
2044.47003,0.06747
2042.54128,0.06749
2040.61254,0.06749
2038.68379,0.06732
2036.75504,0.06712
2034.82630,0.06711
2032.89755,0.06730
2030.96881,0.06738
2029.04006,0.06719
2027.11132,0.06688
2025.18257,0.06659
2023.25383,0.06639
2021.32508,0.06626
2019.39634,0.06610
2017.46759,0.06589
2015.53885,0.06571
2013.61010,0.06554
2011.68136,0.06544
2009.75261,0.06538
2007.82386,0.06521
2005.89512,0.06498
2003.96637,0.06482
2002.03763,0.06464
2000.10888,0.06435
1998.18014,0.06400
1996.25139,0.06373
1994.32265,0.06359
1992.39390,0.06335
1990.46516,0.06292
1988.53641,0.06252
1986.60767,0.06229
1984.67892,0.06216
1982.75018,0.06205
1980.82143,0.06195
1978.89269,0.06182
1976.96394,0.06164
1975.03519,0.06143
1973.10645,0.06130
1971.17770,0.06130
1969.24896,0.06142
1967.32021,0.06156
1965.39147,0.06150
1963.46272,0.06120
1961.53398,0.06091
1959.60523,0.06081
1957.67649,0.06086
1955.74774,0.06099
1953.81900,0.06118
1951.89025,0.06132
1949.96151,0.06125
1948.03276,0.06106
1946.10402,0.06107
1944.17527,0.06127
1942.24652,0.06138
1940.31778,0.06140
1938.38903,0.06156
1936.46029,0.06186
1934.53154,0.06215
1932.60280,0.06232
1930.67405,0.06239
1928.74531,0.06243
1926.81656,0.06252
1924.88782,0.06261
1922.95907,0.06268
1921.03033,0.06273
1919.10158,0.06267
1917.17284,0.06249
1915.24409,0.06236
1913.31534,0.06226
1911.38660,0.06209
1909.45785,0.06188
1907.52911,0.06163
1905.60036,0.06133
1903.67162,0.06109
1901.74287,0.06095
1899.81413,0.06087
1897.88538,0.06086
1895.95664,0.06086
1894.02789,0.06085
1892.09915,0.06085
1890.17040,0.06085
1888.24166,0.06077
1886.31291,0.06067
1884.38417,0.06061
1882.45542,0.06050
1880.52667,0.06039
1878.59793,0.06042
1876.66918,0.06054
1874.74044,0.06065
1872.81169,0.06080
1870.88295,0.06100
1868.95420,0.06111
1867.02546,0.06119
1865.09671,0.06138
1863.16797,0.06152
1861.23922,0.06158
1859.31048,0.06165
1857.38173,0.06174
1855.45299,0.06194
1853.52424,0.06218
1851.59549,0.06229
1849.66675,0.06226
1847.73800,0.06219
1845.80926,0.06201
1843.88051,0.06168
1841.95177,0.06133
1840.02302,0.06099
1838.09428,0.06070
1836.16553,0.06056
1834.23679,0.06040
1832.30804,0.06017
1830.37930,0.06007
1828.45055,0.06005
1826.52181,0.05993
1824.59306,0.05971
1822.66432,0.05950
1820.73557,0.05943
1818.80682,0.05942
1816.87808,0.05937
1814.94933,0.05937
1813.02059,0.05948
1811.09184,0.05953
1809.16310,0.05954
1807.23435,0.05962
1805.30561,0.05975
1803.37686,0.05981
1801.44812,0.05983
1799.51937,0.05995
1797.59063,0.06014
1795.66188,0.06034
1793.73314,0.06048
1791.80439,0.06057
1789.87565,0.06065
1787.94690,0.06073
1786.01815,0.06070
1784.08941,0.06058
1782.16066,0.06042
1780.23192,0.06020
1778.30317,0.05995
1776.37443,0.05987
1774.44568,0.05996
1772.51694,0.05998
1770.58819,0.05987
1768.65945,0.05986
1766.73070,0.05997
1764.80196,0.06003
1762.87321,0.05987
1760.94447,0.05955
1759.01572,0.05930
1757.08697,0.05923
1755.15823,0.05933
1753.22948,0.05959
1751.30074,0.05987
1749.37199,0.05993
1747.44325,0.05975
1745.51450,0.05956
1743.58576,0.05946
1741.65701,0.05933
1739.72827,0.05926
1737.79952,0.05947
1735.87078,0.05981
1733.94203,0.06000
1732.01329,0.06005
1730.08454,0.06013
1728.15580,0.06023
1726.22705,0.06044
1724.29830,0.06068
1722.36956,0.06081
1720.44081,0.06091
1718.51207,0.06110
1716.58332,0.06124
1714.65458,0.06121
1712.72583,0.06108
1710.79709,0.06098
1708.86834,0.06113
1706.93960,0.06144
1705.01085,0.06155
1703.08211,0.06152
1701.15336,0.06157
1699.22462,0.06145
1697.29587,0.06109
1695.36713,0.06071
1693.43838,0.06045
1691.50963,0.06034
1689.58089,0.06030
1687.65214,0.06024
1685.72340,0.06019
1683.79465,0.06011
1681.86591,0.06001
1679.93716,0.05991
1678.00842,0.05991
1676.07967,0.06003
1674.15093,0.06013
1672.22218,0.06015
1670.29344,0.06019
1668.36469,0.06023
1666.43595,0.06028
1664.50720,0.06041
1662.57845,0.06056
1660.64971,0.06067
1658.72096,0.06068
1656.79222,0.06075
1654.86347,0.06085
1652.93473,0.06058
1651.00598,0.06023
1649.07724,0.06026
1647.14849,0.06022
1645.21975,0.05974
1643.29100,0.05929
1641.36226,0.05933
1639.43351,0.05986
1637.50477,0.06054
1635.57602,0.06090
1633.64728,0.06086
1631.71853,0.06087
1629.78978,0.06103
1627.86104,0.06112
1625.93229,0.06101
1624.00355,0.06078
1622.07480,0.06046
1620.14606,0.06023
1618.21731,0.06016
1616.28857,0.05999
1614.35982,0.05969
1612.43108,0.05956
1610.50233,0.05956
1608.57359,0.05947
1606.64484,0.05926
1604.71610,0.05914
1602.78735,0.05939
1600.85861,0.05994
1598.92986,0.06044
1597.00111,0.06068
1595.07237,0.06071
1593.14362,0.06062
1591.21488,0.06035
1589.28613,0.05996
1587.35739,0.05975
1585.42864,0.05987
1583.49990,0.06004
1581.57115,0.06006
1579.64241,0.06004
1577.71366,0.06001
1575.78492,0.05983
1573.85617,0.05971
1571.92743,0.05982
1569.99868,0.05989
1568.06993,0.05968
1566.14119,0.05938
1564.21244,0.05922
1562.28370,0.05926
1560.35495,0.05937
1558.42621,0.05924
1556.49746,0.05908
1554.56872,0.05909
1552.63997,0.05904
1550.71123,0.05896
1548.78248,0.05897
1546.85374,0.05907
1544.92499,0.05927
1542.99625,0.05953
1541.06750,0.05965
1539.13876,0.05954
1537.21001,0.05949
1535.28126,0.05948
1533.35252,0.05917
1531.42377,0.05875
1529.49503,0.05861
1527.56628,0.05872
1525.63754,0.05889
1523.70879,0.05897
1521.78005,0.05890
1519.85130,0.05873
1517.92256,0.05852
1515.99381,0.05825
1514.06507,0.05799
1512.13632,0.05780
1510.20758,0.05776
1508.27883,0.05782
1506.35008,0.05755
1504.42134,0.05706
1502.49259,0.05672
1500.56385,0.05635
1498.63510,0.05585
1496.70636,0.05590
1494.77761,0.05716
1492.84887,0.05892
1490.92012,0.06016
1488.99138,0.06054
1487.06263,0.06043
1485.13389,0.06016
1483.20514,0.05966
1481.27640,0.05909
1479.34765,0.05873
1477.41891,0.05859
1475.49016,0.05855
1473.56141,0.05844
1471.63267,0.05807
1469.70392,0.05767
1467.77518,0.05750
1465.84643,0.05726
1463.91769,0.05670
1461.98894,0.05611
1460.06020,0.05565
1458.13145,0.05525
1456.20271,0.05555
1454.27396,0.05716
1452.34522,0.05928
1450.41647,0.06082
1448.48773,0.06141
1446.55898,0.06148
1444.63024,0.06152
1442.70149,0.06159
1440.77274,0.06166
1438.84400,0.06173
1436.91525,0.06159
1434.98651,0.06131
1433.05776,0.06128
1431.12902,0.06143
1429.20027,0.06139
1427.27153,0.06125
1425.34278,0.06127
1423.41404,0.06129
1421.48529,0.06116
1419.55655,0.06094
1417.62780,0.06078
1415.69906,0.06078
1413.77031,0.06072
1411.84156,0.06050
1409.91282,0.06046
1407.98407,0.06069
1406.05533,0.06079
1404.12658,0.06063
1402.19784,0.06046
1400.26909,0.06037
1398.34035,0.06031
1396.41160,0.06027
1394.48286,0.06012
1392.55411,0.05995
1390.62537,0.05995
1388.69662,0.05999
1386.76788,0.05988
1384.83913,0.05974
1382.91039,0.05970
1380.98164,0.05973
1379.05289,0.05984
1377.12415,0.05997
1375.19540,0.05997
1373.26666,0.05982
1371.33791,0.05966
1369.40917,0.05957
1367.48042,0.05956
1365.55168,0.05965
1363.62293,0.05985
1361.69419,0.06010
1359.76544,0.06023
1357.83670,0.06015
1355.90795,0.05998
1353.97921,0.05985
1352.05046,0.05980
1350.12172,0.05984
1348.19297,0.05990
1346.26422,0.05999
1344.33548,0.06015
1342.40673,0.06016
1340.47799,0.05999
1338.54924,0.05991
1336.62050,0.05988
1334.69175,0.05983
1332.76301,0.05985
1330.83426,0.05990
1328.90552,0.05980
1326.97677,0.05967
1325.04803,0.05979
1323.11928,0.06003
1321.19054,0.06017
1319.26179,0.06018
1317.33304,0.06007
1315.40430,0.05989
1313.47555,0.05987
1311.54681,0.06002
1309.61806,0.06014
1307.68932,0.06028
1305.76057,0.06048
1303.83183,0.06055
1301.90308,0.06036
1299.97434,0.06007
1298.04559,0.05997
1296.11685,0.06003
1294.18810,0.06013
1292.25936,0.06024
1290.33061,0.06032
1288.40187,0.06033
1286.47312,0.06024
1284.54437,0.06017
1282.61563,0.06020
1280.68688,0.06025
1278.75814,0.06024
1276.82939,0.06021
1274.90065,0.06020
1272.97190,0.06025
1271.04316,0.06026
1269.11441,0.06025
1267.18567,0.06035
1265.25692,0.06050
1263.32818,0.06057
1261.39943,0.06059
1259.47069,0.06054
1257.54194,0.06045
1255.61320,0.06039
1253.68445,0.06037
1251.75570,0.06040
1249.82696,0.06041
1247.89821,0.06029
1245.96947,0.06016
1244.04072,0.06012
1242.11198,0.06015
1240.18323,0.06010
1238.25449,0.06004
1236.32574,0.06019
1234.39700,0.06050
1232.46825,0.06062
1230.53951,0.06049
1228.61076,0.06026
1226.68202,0.06003
1224.75327,0.05995
1222.82452,0.06008
1220.89578,0.06017
1218.96703,0.06004
1217.03829,0.05976
1215.10954,0.05956
1213.18080,0.05960
1211.25205,0.05990
1209.32331,0.06019
1207.39456,0.06020
1205.46582,0.06007
1203.53707,0.06002
1201.60833,0.05990
1199.67958,0.05974
1197.75084,0.05980
1195.82209,0.06010
1193.89335,0.06044
1191.96460,0.06056
1190.03585,0.06036
1188.10711,0.05999
1186.17836,0.05959
1184.24962,0.05939
1182.32087,0.05975
1180.39213,0.06040
1178.46338,0.06061
1176.53464,0.06033
1174.60589,0.06016
1172.67715,0.06027
1170.74840,0.06048
1168.81966,0.06055
1166.89091,0.06048
1164.96217,0.06042
1163.03342,0.06049
1161.10467,0.06051
1159.17593,0.06034
1157.24718,0.06018
1155.31844,0.06020
1153.38969,0.06032
1151.46095,0.06042
1149.53220,0.06047
1147.60346,0.06041
1145.67471,0.06028
1143.74597,0.06034
1141.81722,0.06061
1139.88848,0.06069
1137.95973,0.06051
1136.03099,0.06045
1134.10224,0.06054
1132.17350,0.06045
1130.24475,0.06017
1128.31600,0.05993
1126.38726,0.05993
1124.45851,0.06021
1122.52977,0.06048
1120.60102,0.06048
1118.67228,0.06034
1116.74353,0.06019
1114.81479,0.06005
1112.88604,0.05995
1110.95730,0.05986
1109.02855,0.05968
1107.09981,0.05961
1105.17106,0.05974
1103.24232,0.05988
1101.31357,0.05990
1099.38483,0.05970
1097.45608,0.05927
1095.52733,0.05894
1093.59859,0.05901
1091.66984,0.05936
1089.74110,0.05945
1087.81235,0.05922
1085.88361,0.05927
1083.95486,0.05965
1082.02612,0.05985
1080.09737,0.05976
1078.16863,0.05951
1076.23988,0.05940
1074.31114,0.05954
1072.38239,0.05970
1070.45365,0.05968
1068.52490,0.05950
1066.59615,0.05945
1064.66741,0.05967
1062.73866,0.06004
1060.80992,0.06040
1058.88117,0.06048
1056.95243,0.06020
1055.02368,0.06005
1053.09494,0.06033
1051.16619,0.06070
1049.23745,0.06083
1047.30870,0.06074
1045.37996,0.06067
1043.45121,0.06059
1041.52247,0.06035
1039.59372,0.05992
1037.66498,0.05951
1035.73623,0.05948
1033.80748,0.05977
1031.87874,0.06016
1029.94999,0.06057
1028.02125,0.06084
1026.09250,0.06093
1024.16376,0.06108
1022.23501,0.06141
1020.30627,0.06159
1018.37752,0.06133
1016.44878,0.06102
1014.52003,0.06078
1012.59129,0.06034
1010.66254,0.05995
1008.73380,0.05986
1006.80505,0.05980
1004.87631,0.05962
1002.94756,0.05941
1001.01881,0.05904
999.09007,0.05852
997.16132,0.05834
995.23258,0.05871
993.30383,0.05897
991.37509,0.05889
989.44634,0.05887
987.51760,0.05890
985.58885,0.05888
983.66011,0.05884
981.73136,0.05864
979.80262,0.05845
977.87387,0.05824
975.94513,0.05770
974.01638,0.05702
972.08763,0.05669
970.15889,0.05671
968.23014,0.05706
966.30140,0.05795
964.37265,0.05921
962.44391,0.06048
960.51516,0.06145
958.58642,0.06183
956.65767,0.06173
954.72893,0.06157
952.80018,0.06161
950.87144,0.06176
948.94269,0.06177
947.01395,0.06160
945.08520,0.06139
943.15646,0.06131
941.22771,0.06127
939.29896,0.06113
937.37022,0.06095
935.44147,0.06081
933.51273,0.06058
931.58398,0.06024
929.65524,0.05989
927.72649,0.05950
925.79775,0.05924
923.86900,0.05924
921.94026,0.05901
920.01151,0.05844
918.08277,0.05806
916.15402,0.05796
914.22528,0.05800
912.29653,0.05833
910.36779,0.05905
908.43904,0.05999
906.51029,0.06072
904.58155,0.06095
902.65280,0.06077
900.72406,0.06044
898.79531,0.06009
896.86657,0.05992
894.93782,0.05986
893.00908,0.05979
891.08033,0.05977
889.15159,0.05983
887.22284,0.05982
885.29410,0.05955
883.36535,0.05904
881.43661,0.05873
879.50786,0.05871
877.57911,0.05862
875.65037,0.05837
873.72162,0.05826
871.79288,0.05853
869.86413,0.05898
867.93539,0.05920
866.00664,0.05912
864.07790,0.05904
862.14915,0.05891
860.22041,0.05853
858.29166,0.05817
856.36292,0.05825
854.43417,0.05852
852.50543,0.05852
850.57668,0.05830
848.64794,0.05799
846.71919,0.05763
844.79044,0.05758
842.86170,0.05785
840.93295,0.05786
839.00421,0.05763
837.07546,0.05767
835.14672,0.05787
833.21797,0.05797
831.28923,0.05797
829.36048,0.05776
827.43174,0.05713
825.50299,0.05642
823.57425,0.05628
821.64550,0.05642
819.71676,0.05615
817.78801,0.05580
815.85926,0.05583
813.93052,0.05596
812.00177,0.05598
810.07303,0.05592
808.14428,0.05583
806.21554,0.05586
804.28679,0.05600
802.35805,0.05612
800.42930,0.05592
798.50056,0.05521
796.57181,0.05434
794.64307,0.05396
792.71432,0.05400
790.78558,0.05381
788.85683,0.05332
786.92809,0.05280
784.99934,0.05227
783.07059,0.05175
781.14185,0.05127
779.21310,0.05098
777.28436,0.05103
775.35561,0.05120
773.42687,0.05120
771.49812,0.05093
769.56938,0.05050
767.64063,0.05055
765.71189,0.05163
763.78314,0.05352
761.85440,0.05552
759.92565,0.05708
757.99691,0.05824
756.06816,0.05933
754.13942,0.06027
752.21067,0.06060
750.28192,0.06021
748.35318,0.05964
746.42443,0.05921
744.49569,0.05869
742.56694,0.05816
740.63820,0.05785
738.70945,0.05757
736.78071,0.05705
734.85196,0.05634
732.92322,0.05563
730.99447,0.05505
729.06573,0.05457
727.13698,0.05400
725.20824,0.05337
723.27949,0.05260
721.35074,0.05136
719.42200,0.05010
717.49325,0.04934
715.56451,0.04845
713.63576,0.04690
711.70702,0.04526
709.77827,0.04429
707.84953,0.04522
705.92078,0.04920
703.99204,0.05636
702.06329,0.06579
700.13455,0.07506
698.20580,0.08090
696.27706,0.08174
694.34831,0.07901
692.41957,0.07509
690.49082,0.07138
688.56207,0.06846
686.63333,0.06672
684.70458,0.06592
682.77584,0.06524
680.84709,0.06453
678.91835,0.06398
676.98960,0.06362
675.06086,0.06362
673.13211,0.06375
671.20337,0.06356
669.27462,0.06299
667.34588,0.06228
665.41713,0.06193
663.48839,0.06205
661.55964,0.06250
659.63090,0.06301
657.70215,0.06322
655.77340,0.06303
653.84466,0.06253
651.91591,0.06193
649.98717,0.06138
648.05842,0.06083
646.12968,0.06045
644.20093,0.06044
642.27219,0.06069
640.34344,0.06099
638.41470,0.06118
636.48595,0.06123
634.55721,0.06101
632.62846,0.06068
630.69972,0.06063
628.77097,0.06079
626.84222,0.06071
624.91348,0.06013
622.98473,0.05951
621.05599,0.05978
619.12724,0.06090
617.19850,0.06156
615.26975,0.06132
613.34101,0.06068
611.41226,0.05993
609.48352,0.05959
607.55477,0.05960
605.62603,0.05940
603.69728,0.05917
601.76854,0.05913
599.83979,0.05932
