7497.03301,0.05875
7495.10426,0.05912
7493.17552,0.05740
7491.24677,0.05452
7489.31803,0.05385
7487.38928,0.05587
7485.46054,0.05756
7483.53179,0.05867
7481.60305,0.06057
7479.67430,0.06130
7477.74556,0.05792
7475.81681,0.05311
7473.88807,0.05302
7471.95932,0.05717
7470.03057,0.05840
7468.10183,0.05480
7466.17308,0.04977
7464.24434,0.04828
7462.31559,0.05353
7460.38685,0.06098
7458.45810,0.06456
7456.52936,0.06396
7454.60061,0.06022
7452.67187,0.05651
7450.74312,0.05484
7448.81438,0.05210
7446.88563,0.04886
7444.95689,0.04845
7443.02814,0.05124
7441.09940,0.05734
7439.17065,0.06303
7437.24190,0.06370
7435.31316,0.06025
7433.38441,0.05612
7431.45567,0.05551
7429.52692,0.05721
7427.59818,0.05522
7425.66943,0.05328
7423.74069,0.05699
7421.81194,0.06102
7419.88320,0.06072
7417.95445,0.05923
7416.02571,0.05729
7414.09696,0.05329
7412.16822,0.05103
7410.23947,0.05448
7408.31073,0.05902
7406.38198,0.05983
7404.45323,0.05940
7402.52449,0.05980
7400.59574,0.05983
7398.66700,0.06033
7396.73825,0.06066
7394.80951,0.05866
7392.88076,0.05560
7390.95202,0.05328
7389.02327,0.05233
7387.09453,0.05373
7385.16578,0.05652
7383.23704,0.05820
7381.30829,0.05828
7379.37955,0.05710
7377.45080,0.05425
7375.52205,0.05284
7373.59331,0.05434
7371.66456,0.05619
7369.73582,0.05776
7367.80707,0.05799
7365.87833,0.05488
7363.94958,0.05191
7362.02084,0.05291
7360.09209,0.05563
7358.16335,0.05986
7356.23460,0.06519
7354.30586,0.06479
7352.37711,0.06024
7350.44837,0.05856
7348.51962,0.05950
7346.59088,0.06048
7344.66213,0.06048
7342.73338,0.05882
7340.80464,0.05535
7338.87589,0.05107
7336.94715,0.05007
7335.01840,0.05201
7333.08966,0.05293
7331.16091,0.05339
7329.23217,0.05465
7327.30342,0.05628
7325.37468,0.05952
7323.44593,0.06270
7321.51719,0.06193
7319.58844,0.05781
7317.65970,0.05375
7315.73095,0.05173
7313.80221,0.05303
7311.87346,0.05669
7309.94471,0.05738
7308.01597,0.05438
7306.08722,0.05425
7304.15848,0.05738
7302.22973,0.05915
7300.30099,0.05751
7298.37224,0.05358
7296.44350,0.05206
7294.51475,0.05481
7292.58601,0.05778
7290.65726,0.05829
7288.72852,0.05702
7286.79977,0.05646
7284.87103,0.05737
7282.94228,0.05850
7281.01353,0.05912
7279.08479,0.05897
7277.15604,0.05877
7275.22730,0.05978
7273.29855,0.06172
7271.36981,0.06383
7269.44106,0.06263
7267.51232,0.05683
7265.58357,0.05247
7263.65483,0.05341
7261.72608,0.05658
7259.79734,0.05751
7257.86859,0.05582
7255.93985,0.05481
7254.01110,0.05464
7252.08236,0.05539
7250.15361,0.05779
7248.22486,0.05930
7246.29612,0.05852
7244.36737,0.05631
7242.43863,0.05349
7240.50988,0.05133
7238.58114,0.05112
7236.65239,0.05319
7234.72365,0.05518
7232.79490,0.05566
7230.86616,0.05627
7228.93741,0.05805
7227.00867,0.05936
7225.07992,0.05913
7223.15118,0.05856
7221.22243,0.05911
7219.29369,0.05838
7217.36494,0.05588
7215.43619,0.05591
7213.50745,0.05830
7211.57870,0.05969
7209.64996,0.06080
7207.72121,0.06197
7205.79247,0.06187
7203.86372,0.05957
7201.93498,0.05716
7200.00623,0.05786
7198.07749,0.05895
7196.14874,0.05699
7194.22000,0.05506
7192.29125,0.05569
7190.36251,0.05519
7188.43376,0.05083
7186.50501,0.04820
7184.57627,0.05199
7182.64752,0.05819
7180.71878,0.06155
7178.79003,0.06073
7176.86129,0.05758
7174.93254,0.05537
7173.00380,0.05388
7171.07505,0.05207
7169.14631,0.05223
7167.21756,0.05474
7165.28882,0.05564
7163.36007,0.05314
7161.43133,0.05078
7159.50258,0.05154
7157.57384,0.05355
7155.64509,0.05479
7153.71634,0.05588
7151.78760,0.05718
7149.85885,0.05737
7147.93011,0.05710
7146.00136,0.05828
7144.07262,0.05996
7142.14387,0.05992
7140.21513,0.05825
7138.28638,0.05690
7136.35764,0.05708
7134.42889,0.05800
7132.50015,0.05763
7130.57140,0.05528
7128.64266,0.05328
7126.71391,0.05221
7124.78516,0.05133
7122.85642,0.05025
7120.92767,0.04995
7118.99893,0.05291
7117.07018,0.05642
7115.14144,0.05595
7113.21269,0.05420
7111.28395,0.05347
7109.35520,0.05355
7107.42646,0.05496
7105.49771,0.05748
7103.56897,0.05985
7101.64022,0.06135
7099.71148,0.06118
7097.78273,0.05940
7095.85399,0.05704
7093.92524,0.05611
7091.99649,0.05740
7090.06775,0.06035
7088.13900,0.06265
7086.21026,0.06015
7084.28151,0.05504
7082.35277,0.05323
7080.42402,0.05353
7078.49528,0.05284
7076.56653,0.05081
7074.63779,0.04995
7072.70904,0.05371
7070.78030,0.05945
7068.85155,0.06204
7066.92281,0.06218
7064.99406,0.06122
7063.06532,0.06030
7061.13657,0.06220
7059.20782,0.06411
7057.27908,0.06098
7055.35033,0.05605
7053.42159,0.05641
7051.49284,0.06150
7049.56410,0.06423
7047.63535,0.06228
7045.70661,0.05824
7043.77786,0.05384
7041.84912,0.05032
7039.92037,0.05044
7037.99163,0.05436
7036.06288,0.05735
7034.13414,0.05738
7032.20539,0.05712
7030.27664,0.05629
7028.34790,0.05328
7026.41915,0.05067
7024.49041,0.05270
7022.56166,0.05777
7020.63292,0.05961
7018.70417,0.05652
7016.77543,0.05456
7014.84668,0.05722
7012.91794,0.06000
7010.98919,0.05932
7009.06045,0.05645
7007.13170,0.05370
7005.20296,0.05344
7003.27421,0.05561
7001.34547,0.05719
6999.41672,0.05646
6997.48797,0.05463
6995.55923,0.05352
6993.63048,0.05489
6991.70174,0.05901
6989.77299,0.06211
6987.84425,0.06178
6985.91550,0.06073
6983.98676,0.05908
6982.05801,0.05506
6980.12927,0.05310
6978.20052,0.05626
6976.27178,0.05904
6974.34303,0.05752
6972.41429,0.05412
6970.48554,0.05273
6968.55680,0.05378
6966.62805,0.05471
6964.69930,0.05480
6962.77056,0.05557
6960.84181,0.05859
6958.91307,0.06075
6956.98432,0.05757
6955.05558,0.05407
6953.12683,0.05453
6951.19809,0.05495
6949.26934,0.05534
6947.34060,0.05664
6945.41185,0.05502
6943.48311,0.05247
6941.55436,0.05293
6939.62562,0.05267
6937.69687,0.05099
6935.76812,0.05252
6933.83938,0.05525
6931.91063,0.05562
6929.98189,0.05484
6928.05314,0.05532
6926.12440,0.05705
6924.19565,0.05642
6922.26691,0.05315
6920.33816,0.05361
6918.40942,0.05809
6916.48067,0.05930
6914.55193,0.05656
6912.62318,0.05528
6910.69444,0.05702
6908.76569,0.05878
6906.83695,0.05709
6904.90820,0.05403
6902.97945,0.05394
6901.05071,0.05514
6899.12196,0.05561
6897.19322,0.05742
6895.26447,0.05972
6893.33573,0.05930
6891.40698,0.05761
6889.47824,0.05637
6887.54949,0.05424
6885.62075,0.05271
6883.69200,0.05375
6881.76326,0.05646
6879.83451,0.05776
6877.90577,0.05500
6875.97702,0.05156
6874.04828,0.05215
6872.11953,0.05479
6870.19078,0.05649
6868.26204,0.05710
6866.33329,0.05722
6864.40455,0.05633
6862.47580,0.05425
6860.54706,0.05384
6858.61831,0.05657
6856.68957,0.05814
6854.76082,0.05632
6852.83208,0.05516
6850.90333,0.05697
6848.97459,0.05956
6847.04584,0.06078
6845.11710,0.05900
6843.18835,0.05501
6841.25960,0.05362
6839.33086,0.05667
6837.40211,0.05951
6835.47337,0.05831
6833.54462,0.05445
6831.61588,0.05171
6829.68713,0.05200
6827.75839,0.05493
6825.82964,0.05895
6823.90090,0.06160
6821.97215,0.06094
6820.04341,0.05779
6818.11466,0.05506
6816.18592,0.05543
6814.25717,0.05833
6812.32843,0.05901
6810.39968,0.05506
6808.47093,0.05125
6806.54219,0.05164
6804.61344,0.05416
6802.68470,0.05702
6800.75595,0.06063
6798.82721,0.06356
6796.89846,0.06357
6794.96972,0.06054
6793.04097,0.05709
6791.11223,0.05502
6789.18348,0.05382
6787.25474,0.05291
6785.32599,0.05253
6783.39725,0.05301
6781.46850,0.05412
6779.53975,0.05441
6777.61101,0.05329
6775.68226,0.05207
6773.75352,0.05313
6771.82477,0.05593
6769.89603,0.05799
6767.96728,0.05857
6766.03854,0.05783
6764.10979,0.05629
6762.18105,0.05509
6760.25230,0.05490
6758.32356,0.05556
6756.39481,0.05611
6754.46607,0.05683
6752.53732,0.05910
6750.60858,0.06148
6748.67983,0.06027
6746.75108,0.05608
6744.82234,0.05363
6742.89359,0.05457
6740.96485,0.05712
6739.03610,0.05908
6737.10736,0.05903
6735.17861,0.05824
6733.24987,0.05819
6731.32112,0.05811
6729.39238,0.05777
6727.46363,0.05766
6725.53489,0.05586
6723.60614,0.05179
6721.67740,0.04929
6719.74865,0.05081
6717.81991,0.05364
6715.89116,0.05470
6713.96241,0.05409
6712.03367,0.05428
6710.10492,0.05591
6708.17618,0.05693
6706.24743,0.05689
6704.31869,0.05671
6702.38994,0.05634
6700.46120,0.05613
6698.53245,0.05646
6696.60371,0.05773
6694.67496,0.05953
6692.74622,0.05925
6690.81747,0.05725
6688.88873,0.05649
6686.95998,0.05620
6685.03123,0.05631
6683.10249,0.05849
6681.17374,0.06053
6679.24500,0.06002
6677.31625,0.05820
6675.38751,0.05657
6673.45876,0.05586
6671.53002,0.05626
6669.60127,0.05712
6667.67253,0.05787
6665.74378,0.05848
6663.81504,0.05870
6661.88629,0.05876
6659.95755,0.05984
6658.02880,0.06176
6656.10006,0.06187
6654.17131,0.05940
6652.24256,0.05754
6650.31382,0.05843
6648.38507,0.06017
6646.45633,0.06056
6644.52758,0.05990
6642.59884,0.05966
6640.67009,0.05946
6638.74135,0.05863
6636.81260,0.05698
6634.88386,0.05553
6632.95511,0.05582
6631.02637,0.05780
6629.09762,0.05984
6627.16888,0.06059
6625.24013,0.05988
6623.31139,0.05876
6621.38264,0.05786
6619.45389,0.05718
6617.52515,0.05676
6615.59640,0.05653
6613.66766,0.05603
6611.73891,0.05540
6609.81017,0.05534
6607.88142,0.05574
6605.95268,0.05560
6604.02393,0.05473
6602.09519,0.05468
6600.16644,0.05675
6598.23770,0.05873
6596.30895,0.05820
6594.38021,0.05661
6592.45146,0.05628
6590.52271,0.05771
6588.59397,0.05916
6586.66522,0.05843
6584.73648,0.05757
6582.80773,0.05794
6580.87899,0.05646
6578.95024,0.05440
6577.02150,0.05508
6575.09275,0.05545
6573.16401,0.05331
6571.23526,0.05263
6569.30652,0.05565
6567.37777,0.05901
6565.44903,0.05909
6563.52028,0.05629
6561.59154,0.05353
6559.66279,0.05338
6557.73404,0.05581
6555.80530,0.05777
6553.87655,0.05775
6551.94781,0.05695
6550.01906,0.05652
6548.09032,0.05753
6546.16157,0.05887
6544.23283,0.05696
6542.30408,0.05249
6540.37534,0.05173
6538.44659,0.05608
6536.51785,0.05840
6534.58910,0.05604
6532.66036,0.05438
6530.73161,0.05574
6528.80287,0.05660
6526.87412,0.05580
6524.94537,0.05611
6523.01663,0.05727
6521.08788,0.05618
6519.15914,0.05292
6517.23039,0.05102
6515.30165,0.05303
6513.37290,0.05542
6511.44416,0.05392
6509.51541,0.05154
6507.58667,0.05262
6505.65792,0.05551
6503.72918,0.05679
6501.80043,0.05632
6499.87169,0.05574
6497.94294,0.05537
6496.01419,0.05539
6494.08545,0.05605
6492.15670,0.05669
6490.22796,0.05731
6488.29921,0.05807
6486.37047,0.05831
6484.44172,0.05875
6482.51298,0.05908
6480.58423,0.05719
6478.65549,0.05452
6476.72674,0.05344
6474.79800,0.05381
6472.86925,0.05609
6470.94051,0.05916
6469.01176,0.05977
6467.08302,0.05836
6465.15427,0.05830
6463.22552,0.05941
6461.29678,0.05990
6459.36803,0.06004
6457.43929,0.06006
6455.51054,0.05950
6453.58180,0.05806
6451.65305,0.05653
6449.72431,0.05680
6447.79556,0.05734
6445.86682,0.05643
6443.93807,0.05660
6442.00933,0.05845
6440.08058,0.05929
6438.15184,0.05905
6436.22309,0.05918
6434.29434,0.05935
6432.36560,0.05945
6430.43685,0.05969
6428.50811,0.05921
6426.57936,0.05805
6424.65062,0.05718
6422.72187,0.05638
6420.79313,0.05534
6418.86438,0.05569
6416.93564,0.05837
6415.00689,0.06099
6413.07815,0.06138
6411.14940,0.06026
6409.22066,0.05917
6407.29191,0.05878
6405.36317,0.05861
6403.43442,0.05871
6401.50567,0.05959
6399.57693,0.06037
6397.64818,0.06017
6395.71944,0.05996
6393.79069,0.06023
6391.86195,0.05979
6389.93320,0.05778
6388.00446,0.05569
6386.07571,0.05531
6384.14697,0.05591
6382.21822,0.05668
6380.28948,0.05778
6378.36073,0.05703
6376.43199,0.05416
6374.50324,0.05352
6372.57450,0.05601
6370.64575,0.05800
6368.71700,0.05833
6366.78826,0.05802
6364.85951,0.05622
6362.93077,0.05288
6361.00202,0.05138
6359.07328,0.05306
6357.14453,0.05512
6355.21579,0.05573
6353.28704,0.05547
6351.35830,0.05496
6349.42955,0.05446
6347.50081,0.05418
6345.57206,0.05343
6343.64332,0.05181
6341.71457,0.05032
6339.78582,0.05032
6337.85708,0.05253
6335.92833,0.05591
6333.99959,0.05773
6332.07084,0.05729
6330.14210,0.05740
6328.21335,0.05877
6326.28461,0.05953
6324.35586,0.05936
6322.42712,0.05882
6320.49837,0.05834
6318.56963,0.05803
6316.64088,0.05701
6314.71214,0.05571
6312.78339,0.05626
6310.85465,0.05800
6308.92590,0.05781
6306.99715,0.05627
6305.06841,0.05600
6303.13966,0.05658
6301.21092,0.05611
6299.28217,0.05482
6297.35343,0.05441
6295.42468,0.05543
6293.49594,0.05662
6291.56719,0.05730
6289.63845,0.05776
6287.70970,0.05814
6285.78096,0.05794
6283.85221,0.05640
6281.92347,0.05428
6279.99472,0.05351
6278.06598,0.05433
6276.13723,0.05598
6274.20848,0.05738
6272.27974,0.05723
6270.35099,0.05664
6268.42225,0.05742
6266.49350,0.05787
6264.56476,0.05628
6262.63601,0.05492
6260.70727,0.05563
6258.77852,0.05651
6256.84978,0.05621
6254.92103,0.05589
6252.99229,0.05628
6251.06354,0.05663
6249.13480,0.05650
6247.20605,0.05618
6245.27730,0.05690
6243.34856,0.05884
6241.41981,0.05945
6239.49107,0.05815
6237.56232,0.05714
6235.63358,0.05610
6233.70483,0.05452
6231.77609,0.05497
6229.84734,0.05797
6227.91860,0.06073
6225.98985,0.06189
6224.06111,0.06121
6222.13236,0.05927
6220.20362,0.05832
6218.27487,0.05875
6216.34613,0.05910
6214.41738,0.05954
6212.48863,0.06020
6210.55989,0.05991
6208.63114,0.05868
6206.70240,0.05809
6204.77365,0.05840
6202.84491,0.05867
6200.91616,0.05874
6198.98742,0.05905
6197.05867,0.05916
6195.12993,0.05821
6193.20118,0.05743
6191.27244,0.05802
6189.34369,0.05903
6187.41495,0.05962
6185.48620,0.05899
6183.55746,0.05742
6181.62871,0.05609
6179.69996,0.05469
6177.77122,0.05380
6175.84247,0.05502
6173.91373,0.05741
6171.98498,0.05850
6170.05624,0.05785
6168.12749,0.05722
6166.19875,0.05752
6164.27000,0.05820
6162.34126,0.05877
6160.41251,0.05906
6158.48377,0.05892
6156.55502,0.05858
6154.62628,0.05871
6152.69753,0.05963
6150.76878,0.06058
6148.84004,0.06060
6146.91129,0.05981
6144.98255,0.05924
6143.05380,0.05933
6141.12506,0.06004
6139.19631,0.06069
6137.26757,0.06046
6135.33882,0.05917
6133.41008,0.05799
6131.48133,0.05794
6129.55259,0.05811
6127.62384,0.05784
6125.69510,0.05880
6123.76635,0.06106
6121.83761,0.06150
6119.90886,0.05931
6117.98011,0.05752
6116.05137,0.05798
6114.12262,0.05967
6112.19388,0.06017
6110.26513,0.05778
6108.33639,0.05367
6106.40764,0.05120
6104.47890,0.05155
6102.55015,0.05329
6100.62141,0.05525
6098.69266,0.05665
6096.76392,0.05708
6094.83517,0.05702
6092.90643,0.05765
6090.97768,0.05963
6089.04893,0.06121
6087.12019,0.06120
6085.19144,0.06073
6083.26270,0.06042
6081.33395,0.06015
6079.40521,0.05979
6077.47646,0.05884
6075.54772,0.05831
6073.61897,0.05919
6071.69023,0.05964
6069.76148,0.05844
6067.83274,0.05752
6065.90399,0.05789
6063.97525,0.05793
6062.04650,0.05665
6060.11776,0.05576
6058.18901,0.05663
6056.26026,0.05857
6054.33152,0.06041
6052.40277,0.06124
6050.47403,0.06076
6048.54528,0.05925
6046.61654,0.05746
6044.68779,0.05675
6042.75905,0.05709
6040.83030,0.05744
6038.90156,0.05788
6036.97281,0.05861
6035.04407,0.05935
6033.11532,0.06034
6031.18658,0.06122
6029.25783,0.06092
6027.32909,0.05984
6025.40034,0.05904
6023.47159,0.05865
6021.54285,0.05813
6019.61410,0.05713
6017.68536,0.05729
6015.75661,0.05950
6013.82787,0.06127
6011.89912,0.06073
6009.97038,0.05942
6008.04163,0.05868
6006.11289,0.05815
6004.18414,0.05808
6002.25540,0.05903
6000.32665,0.06027
5998.39791,0.06061
5996.46916,0.06022
5994.54041,0.06023
5992.61167,0.06079
5990.68292,0.06123
5988.75418,0.06107
5986.82543,0.06065
5984.89669,0.06071
5982.96794,0.06034
5981.03920,0.05872
5979.11045,0.05758
5977.18171,0.05781
5975.25296,0.05821
5973.32422,0.05896
5971.39547,0.06047
5969.46673,0.06085
5967.53798,0.05986
5965.60924,0.05940
5963.68049,0.05925
5961.75174,0.05849
5959.82300,0.05763
5957.89425,0.05734
5955.96551,0.05764
5954.03676,0.05815
5952.10802,0.05900
5950.17927,0.06020
5948.25053,0.06094
5946.32178,0.06080
5944.39304,0.06006
5942.46429,0.05973
5940.53555,0.05985
5938.60680,0.05900
5936.67806,0.05824
5934.74931,0.05956
5932.82057,0.06094
5930.89182,0.06040
5928.96307,0.05942
5927.03433,0.05880
5925.10558,0.05839
5923.17684,0.05829
5921.24809,0.05810
5919.31935,0.05791
5917.39060,0.05798
5915.46186,0.05824
5913.53311,0.05889
5911.60437,0.05939
5909.67562,0.05931
5907.74688,0.05947
5905.81813,0.05973
5903.88939,0.05927
5901.96064,0.05891
5900.03189,0.05932
5898.10315,0.05988
5896.17440,0.06025
5894.24566,0.06035
5892.31691,0.05977
5890.38817,0.05858
5888.45942,0.05778
5886.53068,0.05813
5884.60193,0.05865
5882.67319,0.05821
5880.74444,0.05748
5878.81570,0.05758
5876.88695,0.05826
5874.95821,0.05859
5873.02946,0.05904
5871.10072,0.06004
5869.17197,0.06010
5867.24322,0.05922
5865.31448,0.05912
5863.38573,0.05970
5861.45699,0.05935
5859.52824,0.05766
5857.59950,0.05674
5855.67075,0.05836
5853.74201,0.06035
5851.81326,0.06015
5849.88452,0.05902
5847.95577,0.05883
5846.02703,0.05936
5844.09828,0.06000
5842.16954,0.05954
5840.24079,0.05796
5838.31205,0.05757
5836.38330,0.05862
5834.45455,0.05956
5832.52581,0.06079
5830.59706,0.06243
5828.66832,0.06318
5826.73957,0.06282
5824.81083,0.06196
5822.88208,0.06043
5820.95334,0.05897
5819.02459,0.05881
5817.09585,0.05905
5815.16710,0.05874
5813.23836,0.05882
5811.30961,0.05907
5809.38087,0.05807
5807.45212,0.05651
5805.52337,0.05622
5803.59463,0.05762
5801.66588,0.05999
5799.73714,0.06205
5797.80839,0.06281
5795.87965,0.06194
5793.95090,0.05980
5792.02216,0.05809
5790.09341,0.05830
5788.16467,0.05968
5786.23592,0.06071
5784.30718,0.06080
5782.37843,0.06050
5780.44969,0.06048
5778.52094,0.06100
5776.59220,0.06188
5774.66345,0.06202
5772.73470,0.06115
5770.80596,0.06037
5768.87721,0.06010
5766.94847,0.06008
5765.01972,0.06003
5763.09098,0.05993
5761.16223,0.05988
5759.23349,0.05975
5757.30474,0.05974
5755.37600,0.06012
5753.44725,0.06053
5751.51851,0.06028
5749.58976,0.05931
5747.66102,0.05868
5745.73227,0.05921
5743.80352,0.06037
5741.87478,0.06144
5739.94603,0.06175
5738.01729,0.06089
5736.08854,0.05993
5734.15980,0.06024
5732.23105,0.06129
5730.30231,0.06158
5728.37356,0.06108
5726.44482,0.06076
5724.51607,0.06039
5722.58733,0.05971
5720.65858,0.05955
5718.72984,0.05958
5716.80109,0.05887
5714.87235,0.05791
5712.94360,0.05741
5711.01485,0.05804
5709.08611,0.06037
5707.15736,0.06278
5705.22862,0.06317
5703.29987,0.06212
5701.37113,0.06066
5699.44238,0.05912
5697.51364,0.05870
5695.58489,0.05946
5693.65615,0.05996
5691.72740,0.06007
5689.79866,0.06071
5687.86991,0.06186
5685.94117,0.06270
5684.01242,0.06292
5682.08368,0.06243
5680.15493,0.06115
5678.22618,0.05981
5676.29744,0.05931
5674.36869,0.05981
5672.43995,0.06052
5670.51120,0.06050
5668.58246,0.05983
5666.65371,0.05951
5664.72497,0.06004
5662.79622,0.06076
5660.86748,0.06115
5658.93873,0.06086
5657.00999,0.06004
5655.08124,0.06005
5653.15250,0.06097
5651.22375,0.06142
5649.29500,0.06142
5647.36626,0.06152
5645.43751,0.06087
5643.50877,0.05923
5641.58002,0.05842
5639.65128,0.05940
5637.72253,0.06079
5635.79379,0.06123
5633.86504,0.06113
5631.93630,0.06147
5630.00755,0.06156
5628.07881,0.06052
5626.15006,0.05940
5624.22132,0.05927
5622.29257,0.05951
5620.36383,0.05985
5618.43508,0.06088
5616.50633,0.06190
5614.57759,0.06186
5612.64884,0.06125
5610.72010,0.06080
5608.79135,0.06062
5606.86261,0.06062
5604.93386,0.06048
5603.00512,0.06004
5601.07637,0.05973
5599.14763,0.06039
5597.21888,0.06187
5595.29014,0.06305
5593.36139,0.06373
5591.43265,0.06387
5589.50390,0.06331
5587.57516,0.06247
5585.64641,0.06128
5583.71766,0.05996
5581.78892,0.05952
5579.86017,0.06007
5577.93143,0.06094
5576.00268,0.06149
5574.07394,0.06143
5572.14519,0.06128
5570.21645,0.06145
5568.28770,0.06157
5566.35896,0.06136
5564.43021,0.06094
5562.50147,0.06083
5560.57272,0.06113
5558.64398,0.06118
5556.71523,0.06108
5554.78648,0.06116
5552.85774,0.06078
5550.92899,0.06008
5549.00025,0.05999
5547.07150,0.06031
5545.14276,0.06035
5543.21401,0.06017
5541.28527,0.06006
5539.35652,0.06042
5537.42778,0.06111
5535.49903,0.06147
5533.57029,0.06158
5531.64154,0.06139
5529.71280,0.06034
5527.78405,0.05944
5525.85531,0.05985
5523.92656,0.06045
5521.99781,0.06001
5520.06907,0.05928
5518.14032,0.05942
5516.21158,0.06032
5514.28283,0.06116
5512.35409,0.06145
5510.42534,0.06135
5508.49660,0.06177
5506.56785,0.06268
5504.63911,0.06301
5502.71036,0.06224
5500.78162,0.06053
5498.85287,0.05933
5496.92413,0.06013
5494.99538,0.06154
5493.06664,0.06147
5491.13789,0.06045
5489.20914,0.06020
5487.28040,0.06100
5485.35165,0.06195
5483.42291,0.06255
5481.49416,0.06257
5479.56542,0.06194
5477.63667,0.06137
5475.70793,0.06144
5473.77918,0.06172
5471.85044,0.06149
5469.92169,0.06091
5467.99295,0.06064
5466.06420,0.06077
5464.13546,0.06127
5462.20671,0.06238
5460.27796,0.06369
5458.34922,0.06414
5456.42047,0.06354
5454.49173,0.06304
5452.56298,0.06324
5450.63424,0.06307
5448.70549,0.06205
5446.77675,0.06168
5444.84800,0.06276
5442.91926,0.06392
5440.99051,0.06412
5439.06177,0.06344
5437.13302,0.06254
5435.20428,0.06238
5433.27553,0.06283
5431.34679,0.06277
5429.41804,0.06168
5427.48929,0.06091
5425.56055,0.06164
5423.63180,0.06250
5421.70306,0.06220
5419.77431,0.06145
5417.84557,0.06115
5415.91682,0.06142
5413.98808,0.06196
5412.05933,0.06244
5410.13059,0.06272
5408.20184,0.06289
5406.27310,0.06283
5404.34435,0.06244
5402.41561,0.06243
5400.48686,0.06269
5398.55811,0.06235
5396.62937,0.06167
5394.70062,0.06111
5392.77188,0.06083
5390.84313,0.06128
5388.91439,0.06173
5386.98564,0.06147
5385.05690,0.06123
5383.12815,0.06160
5381.19941,0.06220
5379.27066,0.06220
5377.34192,0.06157
5375.41317,0.06180
5373.48443,0.06318
5371.55568,0.06373
5369.62694,0.06272
5367.69819,0.06201
5365.76944,0.06225
5363.84070,0.06209
5361.91195,0.06169
5359.98321,0.06221
5358.05446,0.06306
5356.12572,0.06315
5354.19697,0.06261
5352.26823,0.06194
5350.33948,0.06126
5348.41074,0.06095
5346.48199,0.06132
5344.55325,0.06191
5342.62450,0.06213
5340.69576,0.06211
5338.76701,0.06223
5336.83827,0.06255
5334.90952,0.06284
5332.98077,0.06245
5331.05203,0.06143
5329.12328,0.06107
5327.19454,0.06158
5325.26579,0.06151
5323.33705,0.06077
5321.40830,0.06072
5319.47956,0.06138
5317.55081,0.06180
5315.62207,0.06199
5313.69332,0.06202
5311.76458,0.06184
5309.83583,0.06182
5307.90709,0.06188
5305.97834,0.06175
5304.04959,0.06177
5302.12085,0.06239
5300.19210,0.06311
5298.26336,0.06315
5296.33461,0.06280
5294.40587,0.06233
5292.47712,0.06149
5290.54838,0.06065
5288.61963,0.06064
5286.69089,0.06147
5284.76214,0.06207
5282.83340,0.06179
5280.90465,0.06132
5278.97591,0.06151
5277.04716,0.06205
5275.11842,0.06212
5273.18967,0.06182
5271.26092,0.06184
5269.33218,0.06268
5267.40343,0.06391
5265.47469,0.06373
5263.54594,0.06208
5261.61720,0.06155
5259.68845,0.06264
5257.75971,0.06324
5255.83096,0.06289
5253.90222,0.06284
5251.97347,0.06303
5250.04473,0.06279
5248.11598,0.06246
5246.18724,0.06236
5244.25849,0.06268
5242.32975,0.06354
5240.40100,0.06390
5238.47225,0.06327
5236.54351,0.06258
5234.61476,0.06243
5232.68602,0.06277
5230.75727,0.06320
5228.82853,0.06312
5226.89978,0.06287
5224.97104,0.06329
5223.04229,0.06394
5221.11355,0.06378
5219.18480,0.06304
5217.25606,0.06290
5215.32731,0.06369
5213.39857,0.06427
5211.46982,0.06395
5209.54107,0.06334
5207.61233,0.06286
5205.68358,0.06250
5203.75484,0.06230
5201.82609,0.06194
5199.89735,0.06142
5197.96860,0.06168
5196.03986,0.06246
5194.11111,0.06248
5192.18237,0.06217
5190.25362,0.06240
5188.32488,0.06264
5186.39613,0.06264
5184.46739,0.06288
5182.53864,0.06342
5180.60990,0.06410
5178.68115,0.06477
5176.75240,0.06496
5174.82366,0.06453
5172.89491,0.06386
5170.96617,0.06301
5169.03742,0.06240
5167.10868,0.06273
5165.17993,0.06317
5163.25119,0.06298
5161.32244,0.06306
5159.39370,0.06362
5157.46495,0.06397
5155.53621,0.06391
5153.60746,0.06350
5151.67872,0.06304
5149.74997,0.06267
5147.82123,0.06239
5145.89248,0.06273
5143.96373,0.06349
5142.03499,0.06377
5140.10624,0.06380
5138.17750,0.06382
5136.24875,0.06340
5134.32001,0.06288
5132.39126,0.06264
5130.46252,0.06268
5128.53377,0.06287
5126.60503,0.06285
5124.67628,0.06276
5122.74754,0.06275
5120.81879,0.06252
5118.89005,0.06224
5116.96130,0.06228
5115.03255,0.06237
5113.10381,0.06250
5111.17506,0.06272
5109.24632,0.06265
5107.31757,0.06278
5105.38883,0.06347
5103.46008,0.06396
5101.53134,0.06373
5099.60259,0.06325
5097.67385,0.06306
5095.74510,0.06324
5093.81636,0.06359
5091.88761,0.06402
5089.95887,0.06425
5088.03012,0.06400
5086.10138,0.06361
5084.17263,0.06352
5082.24388,0.06353
5080.31514,0.06354
5078.38639,0.06357
5076.45765,0.06329
5074.52890,0.06270
5072.60016,0.06280
5070.67141,0.06364
5068.74267,0.06394
5066.81392,0.06357
5064.88518,0.06327
5062.95643,0.06301
5061.02769,0.06262
5059.09894,0.06211
5057.17020,0.06193
5055.24145,0.06248
5053.31270,0.06310
5051.38396,0.06337
5049.45521,0.06385
5047.52647,0.06450
5045.59772,0.06466
5043.66898,0.06431
5041.74023,0.06410
5039.81149,0.06440
5037.88274,0.06469
5035.95400,0.06438
5034.02525,0.06395
5032.09651,0.06396
5030.16776,0.06415
5028.23902,0.06415
5026.31027,0.06395
5024.38153,0.06356
5022.45278,0.06334
5020.52403,0.06403
5018.59529,0.06495
5016.66654,0.06447
5014.73780,0.06326
5012.80905,0.06331
5010.88031,0.06426
5008.95156,0.06453
5007.02282,0.06397
5005.09407,0.06340
5003.16533,0.06322
5001.23658,0.06352
4999.30784,0.06411
4997.37909,0.06442
4995.45035,0.06426
4993.52160,0.06417
4991.59286,0.06440
4989.66411,0.06430
4987.73536,0.06369
4985.80662,0.06359
4983.87787,0.06433
4981.94913,0.06499
4980.02038,0.06478
4978.09164,0.06404
4976.16289,0.06374
4974.23415,0.06407
4972.30540,0.06430
4970.37666,0.06436
4968.44791,0.06471
4966.51917,0.06506
4964.59042,0.06502
4962.66168,0.06478
4960.73293,0.06422
4958.80418,0.06325
4956.87544,0.06262
4954.94669,0.06299
4953.01795,0.06386
4951.08920,0.06441
4949.16046,0.06457
4947.23171,0.06457
4945.30297,0.06436
4943.37422,0.06408
4941.44548,0.06423
4939.51673,0.06476
4937.58799,0.06502
4935.65924,0.06464
4933.73050,0.06395
4931.80175,0.06371
4929.87301,0.06426
4927.94426,0.06496
4926.01551,0.06518
4924.08677,0.06501
4922.15802,0.06492
4920.22928,0.06513
4918.30053,0.06519
4916.37179,0.06494
4914.44304,0.06503
4912.51430,0.06539
4910.58555,0.06537
4908.65681,0.06487
4906.72806,0.06434
4904.79932,0.06419
4902.87057,0.06412
4900.94183,0.06380
4899.01308,0.06367
4897.08434,0.06400
4895.15559,0.06439
4893.22684,0.06459
4891.29810,0.06470
4889.36935,0.06458
4887.44061,0.06435
4885.51186,0.06430
4883.58312,0.06437
4881.65437,0.06442
4879.72563,0.06440
4877.79688,0.06413
4875.86814,0.06395
4873.93939,0.06439
4872.01065,0.06485
4870.08190,0.06453
4868.15316,0.06399
4866.22441,0.06396
4864.29566,0.06430
4862.36692,0.06444
4860.43817,0.06432
4858.50943,0.06466
4856.58068,0.06535
4854.65194,0.06550
4852.72319,0.06506
4850.79445,0.06481
4848.86570,0.06519
4846.93696,0.06569
4845.00821,0.06583
4843.07947,0.06566
4841.15072,0.06533
4839.22198,0.06511
4837.29323,0.06526
4835.36449,0.06553
4833.43574,0.06546
4831.50699,0.06511
4829.57825,0.06486
4827.64950,0.06495
4825.72076,0.06562
4823.79201,0.06654
4821.86327,0.06695
4819.93452,0.06648
4818.00578,0.06545
4816.07703,0.06470
4814.14829,0.06453
4812.21954,0.06458
4810.29080,0.06496
4808.36205,0.06560
4806.43331,0.06588
4804.50456,0.06576
4802.57582,0.06581
4800.64707,0.06594
4798.71832,0.06582
4796.78958,0.06578
4794.86083,0.06597
4792.93209,0.06588
4791.00334,0.06543
4789.07460,0.06509
4787.14585,0.06502
4785.21711,0.06508
4783.28836,0.06555
4781.35962,0.06637
4779.43087,0.06674
4777.50213,0.06637
4775.57338,0.06566
4773.64464,0.06512
4771.71589,0.06509
4769.78714,0.06505
4767.85840,0.06487
4765.92965,0.06514
4764.00091,0.06575
4762.07216,0.06624
4760.14342,0.06631
4758.21467,0.06597
4756.28593,0.06556
4754.35718,0.06506
4752.42844,0.06475
4750.49969,0.06522
4748.57095,0.06586
4746.64220,0.06576
4744.71346,0.06528
4742.78471,0.06517
4740.85597,0.06526
4738.92722,0.06526
4736.99847,0.06550
4735.06973,0.06612
4733.14098,0.06645
4731.21224,0.06592
4729.28349,0.06521
4727.35475,0.06499
4725.42600,0.06495
4723.49726,0.06494
4721.56851,0.06506
4719.63977,0.06521
4717.71102,0.06549
4715.78228,0.06569
4713.85353,0.06547
4711.92479,0.06503
4709.99604,0.06501
4708.06729,0.06550
4706.13855,0.06578
4704.20980,0.06559
4702.28106,0.06528
4700.35231,0.06490
4698.42357,0.06457
4696.49482,0.06480
4694.56608,0.06569
4692.63733,0.06619
4690.70859,0.06578
4688.77984,0.06543
4686.85110,0.06559
4684.92235,0.06573
4682.99361,0.06556
4681.06486,0.06541
4679.13612,0.06553
4677.20737,0.06544
4675.27862,0.06489
4673.34988,0.06450
4671.42113,0.06487
4669.49239,0.06579
4667.56364,0.06654
4665.63490,0.06683
4663.70615,0.06660
4661.77741,0.06590
4659.84866,0.06537
4657.91992,0.06545
4655.99117,0.06579
4654.06243,0.06610
4652.13368,0.06620
4650.20494,0.06604
4648.27619,0.06579
4646.34745,0.06565
4644.41870,0.06576
4642.48995,0.06600
4640.56121,0.06602
4638.63246,0.06583
4636.70372,0.06570
4634.77497,0.06589
4632.84623,0.06650
4630.91748,0.06701
4628.98874,0.06688
4627.05999,0.06609
4625.13125,0.06515
4623.20250,0.06473
4621.27376,0.06514
4619.34501,0.06585
4617.41627,0.06618
4615.48752,0.06614
4613.55877,0.06611
4611.63003,0.06602
4609.70128,0.06590
4607.77254,0.06624
4605.84379,0.06665
4603.91505,0.06644
4601.98630,0.06579
4600.05756,0.06526
4598.12881,0.06529
4596.20007,0.06572
4594.27132,0.06580
4592.34258,0.06558
4590.41383,0.06558
4588.48509,0.06553
4586.55634,0.06533
4584.62760,0.06534
4582.69885,0.06546
4580.77010,0.06552
4578.84136,0.06573
4576.91261,0.06604
4574.98387,0.06608
4573.05512,0.06565
4571.12638,0.06513
4569.19763,0.06476
4567.26889,0.06458
4565.34014,0.06487
4563.41140,0.06559
4561.48265,0.06597
4559.55391,0.06566
4557.62516,0.06514
4555.69642,0.06494
4553.76767,0.06507
4551.83893,0.06514
4549.91018,0.06500
4547.98143,0.06503
4546.05269,0.06538
4544.12394,0.06586
4542.19520,0.06609
4540.26645,0.06584
4538.33771,0.06539
4536.40896,0.06496
4534.48022,0.06468
4532.55147,0.06466
4530.62273,0.06493
4528.69398,0.06550
4526.76524,0.06595
4524.83649,0.06604
4522.90775,0.06592
4520.97900,0.06558
4519.05025,0.06514
4517.12151,0.06479
4515.19276,0.06451
4513.26402,0.06467
4511.33527,0.06522
4509.40653,0.06541
4507.47778,0.06526
4505.54904,0.06531
4503.62029,0.06538
4501.69155,0.06516
4499.76280,0.06473
4497.83406,0.06440
4495.90531,0.06438
4493.97657,0.06462
4492.04782,0.06484
4490.11908,0.06490
4488.19033,0.06499
4486.26158,0.06506
4484.33284,0.06492
4482.40409,0.06452
4480.47535,0.06390
4478.54660,0.06348
4476.61786,0.06363
4474.68911,0.06417
4472.76037,0.06472
4470.83162,0.06492
4468.90288,0.06470
4466.97413,0.06428
4465.04539,0.06371
4463.11664,0.06321
4461.18790,0.06316
4459.25915,0.06336
4457.33041,0.06323
4455.40166,0.06285
4453.47291,0.06262
4451.54417,0.06244
4449.61542,0.06200
4447.68668,0.06143
4445.75793,0.06098
4443.82919,0.06071
4441.90044,0.06074
4439.97170,0.06116
4438.04295,0.06172
4436.11421,0.06200
4434.18546,0.06208
4432.25672,0.06216
4430.32797,0.06212
4428.39923,0.06209
4426.47048,0.06235
4424.54173,0.06248
4422.61299,0.06206
4420.68424,0.06161
4418.75550,0.06135
4416.82675,0.06105
4414.89801,0.06080
4412.96926,0.06076
4411.04052,0.06107
4409.11177,0.06167
4407.18303,0.06222
4405.25428,0.06244
4403.32554,0.06227
4401.39679,0.06198
4399.46805,0.06201
4397.53930,0.06245
4395.61056,0.06280
4393.68181,0.06283
4391.75306,0.06295
4389.82432,0.06319
4387.89557,0.06306
4385.96683,0.06265
4384.03808,0.06241
4382.10934,0.06217
4380.18059,0.06176
4378.25185,0.06161
4376.32310,0.06177
4374.39436,0.06196
4372.46561,0.06201
4370.53687,0.06157
4368.60812,0.06083
4366.67938,0.06059
4364.75063,0.06093
4362.82189,0.06120
4360.89314,0.06126
4358.96439,0.06115
4357.03565,0.06069
4355.10690,0.06029
4353.17816,0.06033
4351.24941,0.06061
4349.32067,0.06064
4347.39192,0.06018
4345.46318,0.05961
4343.53443,0.05946
4341.60569,0.05973
4339.67694,0.06004
4337.74820,0.05995
4335.81945,0.05952
4333.89071,0.05921
4331.96196,0.05913
4330.03321,0.05910
4328.10447,0.05909
4326.17572,0.05925
4324.24698,0.05941
4322.31823,0.05919
4320.38949,0.05871
4318.46074,0.05835
4316.53200,0.05830
4314.60325,0.05843
4312.67451,0.05829
4310.74576,0.05786
4308.81702,0.05765
4306.88827,0.05775
4304.95953,0.05770
4303.03078,0.05751
4301.10204,0.05769
4299.17329,0.05812
4297.24454,0.05831
4295.31580,0.05815
4293.38705,0.05780
4291.45831,0.05750
4289.52956,0.05753
4287.60082,0.05765
4285.67207,0.05726
4283.74333,0.05669
4281.81458,0.05674
4279.88584,0.05713
4277.95709,0.05703
4276.02835,0.05655
4274.09960,0.05640
4272.17086,0.05658
4270.24211,0.05683
4268.31336,0.05716
4266.38462,0.05738
4264.45587,0.05742
4262.52713,0.05749
4260.59838,0.05756
4258.66964,0.05752
4256.74089,0.05764
4254.81215,0.05810
4252.88340,0.05849
4250.95466,0.05851
4249.02591,0.05838
4247.09717,0.05839
4245.16842,0.05850
4243.23968,0.05872
4241.31093,0.05913
4239.38219,0.05969
4237.45344,0.06008
4235.52469,0.06030
4233.59595,0.06051
4231.66720,0.06042
4229.73846,0.06009
4227.80971,0.06012
4225.88097,0.06054
4223.95222,0.06098
4222.02348,0.06127
4220.09473,0.06137
4218.16599,0.06128
4216.23724,0.06119
4214.30850,0.06128
4212.37975,0.06140
4210.45101,0.06144
4208.52226,0.06161
4206.59352,0.06198
4204.66477,0.06232
4202.73602,0.06244
4200.80728,0.06235
4198.87853,0.06210
4196.94979,0.06169
4195.02104,0.06148
4193.09230,0.06185
4191.16355,0.06236
4189.23481,0.06239
4187.30606,0.06222
4185.37732,0.06229
4183.44857,0.06252
4181.51983,0.06264
4179.59108,0.06257
4177.66234,0.06224
4175.73359,0.06186
4173.80484,0.06199
4171.87610,0.06239
4169.94735,0.06229
4168.01861,0.06197
4166.08986,0.06225
4164.16112,0.06301
4162.23237,0.06360
4160.30363,0.06374
4158.37488,0.06349
4156.44614,0.06309
4154.51739,0.06285
4152.58865,0.06286
4150.65990,0.06295
4148.73116,0.06313
4146.80241,0.06324
4144.87367,0.06311
4142.94492,0.06302
4141.01617,0.06311
4139.08743,0.06309
4137.15868,0.06305
4135.22994,0.06321
4133.30119,0.06338
4131.37245,0.06352
4129.44370,0.06370
4127.51496,0.06379
4125.58621,0.06386
4123.65747,0.06401
4121.72872,0.06407
4119.79998,0.06392
4117.87123,0.06382
4115.94249,0.06395
4114.01374,0.06386
4112.08500,0.06340
4110.15625,0.06314
4108.22750,0.06332
4106.29876,0.06356
4104.37001,0.06365
4102.44127,0.06357
4100.51252,0.06323
4098.58378,0.06294
4096.65503,0.06311
4094.72629,0.06346
4092.79754,0.06352
4090.86880,0.06329
4088.94005,0.06310
4087.01131,0.06319
4085.08256,0.06346
4083.15382,0.06361
4081.22507,0.06352
4079.29632,0.06330
4077.36758,0.06313
4075.43883,0.06313
4073.51009,0.06319
4071.58134,0.06314
4069.65260,0.06301
4067.72385,0.06289
4065.79511,0.06283
4063.86636,0.06284
4061.93762,0.06282
4060.00887,0.06258
4058.08013,0.06202
4056.15138,0.06158
4054.22264,0.06156
4052.29389,0.06157
4050.36515,0.06158
4048.43640,0.06185
4046.50765,0.06210
4044.57891,0.06219
4042.65016,0.06221
4040.72142,0.06223
4038.79267,0.06233
4036.86393,0.06225
4034.93518,0.06191
4033.00644,0.06167
4031.07769,0.06159
4029.14895,0.06145
4027.22020,0.06148
4025.29146,0.06171
4023.36271,0.06185
4021.43397,0.06180
4019.50522,0.06157
4017.57648,0.06138
4015.64773,0.06142
4013.71898,0.06158
4011.79024,0.06174
4009.86149,0.06167
4007.93275,0.06132
4006.00400,0.06112
4004.07526,0.06125
4002.14651,0.06137
4000.21777,0.06139
3998.28902,0.06155
3996.36028,0.06191
3994.43153,0.06216
3992.50279,0.06193
3990.57404,0.06154
3988.64530,0.06145
3986.71655,0.06154
3984.78780,0.06161
3982.85906,0.06169
3980.93031,0.06182
3979.00157,0.06178
3977.07282,0.06159
3975.14408,0.06160
3973.21533,0.06189
3971.28659,0.06208
3969.35784,0.06201
3967.42910,0.06197
3965.50035,0.06196
3963.57161,0.06164
3961.64286,0.06130
3959.71412,0.06139
3957.78537,0.06166
3955.85663,0.06172
3953.92788,0.06151
3951.99913,0.06129
3950.07039,0.06143
3948.14164,0.06182
3946.21290,0.06189
3944.28415,0.06166
3942.35541,0.06143
3940.42666,0.06123
3938.49792,0.06125
3936.56917,0.06165
3934.64043,0.06216
3932.71168,0.06231
3930.78294,0.06211
3928.85419,0.06202
3926.92545,0.06191
3924.99670,0.06163
3923.06795,0.06145
3921.13921,0.06143
3919.21046,0.06160
3917.28172,0.06191
3915.35297,0.06200
3913.42423,0.06187
3911.49548,0.06172
3909.56674,0.06166
3907.63799,0.06188
3905.70925,0.06230
3903.78050,0.06243
3901.85176,0.06216
3899.92301,0.06196
3897.99427,0.06207
3896.06552,0.06227
3894.13678,0.06234
3892.20803,0.06224
3890.27928,0.06199
3888.35054,0.06170
3886.42179,0.06147
3884.49305,0.06151
3882.56430,0.06182
3880.63556,0.06193
3878.70681,0.06169
3876.77807,0.06155
3874.84932,0.06162
3872.92058,0.06168
3870.99183,0.06182
3869.06309,0.06198
3867.13434,0.06187
3865.20560,0.06163
3863.27685,0.06152
3861.34811,0.06150
3859.41936,0.06159
3857.49061,0.06179
3855.56187,0.06196
3853.63312,0.06200
3851.70438,0.06195
3849.77563,0.06189
3847.84689,0.06189
3845.91814,0.06203
3843.98940,0.06210
3842.06065,0.06186
3840.13191,0.06167
3838.20316,0.06188
3836.27442,0.06208
3834.34567,0.06195
3832.41693,0.06184
3830.48818,0.06186
3828.55943,0.06184
3826.63069,0.06187
3824.70194,0.06200
3822.77320,0.06207
3820.84445,0.06215
3818.91571,0.06217
3816.98696,0.06203
3815.05822,0.06207
3813.12947,0.06232
3811.20073,0.06243
3809.27198,0.06233
3807.34324,0.06210
3805.41449,0.06185
3803.48575,0.06184
3801.55700,0.06207
3799.62826,0.06219
3797.69951,0.06220
3795.77076,0.06236
3793.84202,0.06247
3791.91327,0.06233
3789.98453,0.06210
3788.05578,0.06202
3786.12704,0.06206
3784.19829,0.06198
3782.26955,0.06184
3780.34080,0.06180
3778.41206,0.06176
3776.48331,0.06172
3774.55457,0.06173
3772.62582,0.06177
3770.69708,0.06176
3768.76833,0.06179
3766.83959,0.06196
3764.91084,0.06220
3762.98209,0.06230
3761.05335,0.06219
3759.12460,0.06204
3757.19586,0.06190
3755.26711,0.06169
3753.33837,0.06144
3751.40962,0.06134
3749.48088,0.06153
3747.55213,0.06177
3745.62339,0.06159
3743.69464,0.06086
3741.76590,0.06033
3739.83715,0.06042
3737.90841,0.06065
3735.97966,0.06053
3734.05091,0.06004
3732.12217,0.05959
3730.19342,0.05937
3728.26468,0.05901
3726.33593,0.05843
3724.40719,0.05815
3722.47844,0.05823
3720.54970,0.05819
3718.62095,0.05781
3716.69221,0.05733
3714.76346,0.05691
3712.83472,0.05642
3710.90597,0.05573
3708.97723,0.05488
3707.04848,0.05400
3705.11974,0.05329
3703.19099,0.05260
3701.26224,0.05157
3699.33350,0.05052
3697.40475,0.04986
3695.47601,0.04938
3693.54726,0.04884
3691.61852,0.04839
3689.68977,0.04810
3687.76103,0.04787
3685.83228,0.04727
3683.90354,0.04633
3681.97479,0.04569
3680.04605,0.04547
3678.11730,0.04525
3676.18856,0.04480
3674.25981,0.04421
3672.33107,0.04385
3670.40232,0.04377
3668.47357,0.04363
3666.54483,0.04345
3664.61608,0.04338
3662.68734,0.04335
3660.75859,0.04319
3658.82985,0.04295
3656.90110,0.04298
3654.97236,0.04345
3653.04361,0.04394
3651.11487,0.04407
3649.18612,0.04378
3647.25738,0.04316
3645.32863,0.04261
3643.39989,0.04249
3641.47114,0.04265
3639.54239,0.04276
3637.61365,0.04289
3635.68490,0.04315
3633.75616,0.04328
3631.82741,0.04315
3629.89867,0.04281
3627.96992,0.04244
3626.04118,0.04221
3624.11243,0.04208
3622.18369,0.04209
3620.25494,0.04218
3618.32620,0.04196
3616.39745,0.04155
3614.46871,0.04145
3612.53996,0.04164
3610.61122,0.04155
3608.68247,0.04111
3606.75372,0.04094
3604.82498,0.04111
3602.89623,0.04115
3600.96749,0.04102
3599.03874,0.04100
3597.11000,0.04095
3595.18125,0.04065
3593.25251,0.04035
3591.32376,0.04025
3589.39502,0.04009
3587.46627,0.04005
3585.53753,0.04035
3583.60878,0.04058
3581.68004,0.04043
3579.75129,0.04014
3577.82254,0.04007
3575.89380,0.04026
3573.96505,0.04045
3572.03631,0.04048
3570.10756,0.04024
3568.17882,0.03986
3566.25007,0.03952
3564.32133,0.03919
3562.39258,0.03901
3560.46384,0.03919
3558.53509,0.03943
3556.60635,0.03943
3554.67760,0.03945
3552.74886,0.03961
3550.82011,0.03967
3548.89137,0.03953
3546.96262,0.03915
3545.03387,0.03877
3543.10513,0.03874
3541.17638,0.03892
3539.24764,0.03899
3537.31889,0.03908
3535.39015,0.03922
3533.46140,0.03916
3531.53266,0.03900
3529.60391,0.03900
3527.67517,0.03922
3525.74642,0.03961
3523.81768,0.03981
3521.88893,0.03958
3519.96019,0.03934
3518.03144,0.03939
3516.10270,0.03950
3514.17395,0.03945
3512.24520,0.03934
3510.31646,0.03927
3508.38771,0.03921
3506.45897,0.03907
3504.53022,0.03894
3502.60148,0.03892
3500.67273,0.03885
3498.74399,0.03876
3496.81524,0.03889
3494.88650,0.03898
3492.95775,0.03881
3491.02901,0.03872
3489.10026,0.03883
3487.17152,0.03892
3485.24277,0.03897
3483.31402,0.03888
3481.38528,0.03859
3479.45653,0.03846
3477.52779,0.03871
3475.59904,0.03910
3473.67030,0.03926
3471.74155,0.03906
3469.81281,0.03874
3467.88406,0.03841
3465.95532,0.03816
3464.02657,0.03825
3462.09783,0.03861
3460.16908,0.03887
3458.24034,0.03905
3456.31159,0.03915
3454.38285,0.03894
3452.45410,0.03870
3450.52535,0.03858
3448.59661,0.03830
3446.66786,0.03793
3444.73912,0.03787
3442.81037,0.03794
3440.88163,0.03782
3438.95288,0.03795
3437.02414,0.03851
3435.09539,0.03876
3433.16665,0.03856
3431.23790,0.03853
3429.30916,0.03862
3427.38041,0.03853
3425.45167,0.03855
3423.52292,0.03873
3421.59418,0.03857
3419.66543,0.03817
3417.73668,0.03811
3415.80794,0.03836
3413.87919,0.03857
3411.95045,0.03869
3410.02170,0.03866
3408.09296,0.03856
3406.16421,0.03854
3404.23547,0.03855
3402.30672,0.03852
3400.37798,0.03837
3398.44923,0.03819
3396.52049,0.03815
3394.59174,0.03820
3392.66300,0.03815
3390.73425,0.03807
3388.80550,0.03805
3386.87676,0.03808
3384.94801,0.03814
3383.01927,0.03804
3381.09052,0.03789
3379.16178,0.03790
3377.23303,0.03789
3375.30429,0.03783
3373.37554,0.03779
3371.44680,0.03770
3369.51805,0.03778
3367.58931,0.03812
3365.66056,0.03848
3363.73182,0.03852
3361.80307,0.03828
3359.87433,0.03822
3357.94558,0.03847
3356.01683,0.03869
3354.08809,0.03884
3352.15934,0.03900
3350.23060,0.03896
3348.30185,0.03859
3346.37311,0.03829
3344.44436,0.03842
3342.51562,0.03871
3340.58687,0.03876
3338.65813,0.03864
3336.72938,0.03854
3334.80064,0.03859
3332.87189,0.03873
3330.94315,0.03877
3329.01440,0.03864
3327.08566,0.03856
3325.15691,0.03854
3323.22816,0.03853
3321.29942,0.03867
3319.37067,0.03892
3317.44193,0.03926
3315.51318,0.03980
3313.58444,0.04028
3311.65569,0.04029
3309.72695,0.03999
3307.79820,0.03984
3305.86946,0.03987
3303.94071,0.03978
3302.01197,0.03951
3300.08322,0.03932
3298.15448,0.03925
3296.22573,0.03916
3294.29698,0.03902
3292.36824,0.03892
3290.43949,0.03904
3288.51075,0.03935
3286.58200,0.03952
3284.65326,0.03952
3282.72451,0.03962
3280.79577,0.03969
3278.86702,0.03958
3276.93828,0.03951
3275.00953,0.03955
3273.08079,0.03952
3271.15204,0.03949
3269.22330,0.03959
3267.29455,0.03983
3265.36581,0.04020
3263.43706,0.04057
3261.50831,0.04072
3259.57957,0.04052
3257.65082,0.04026
3255.72208,0.04021
3253.79333,0.04026
3251.86459,0.04034
3249.93584,0.04044
3248.00710,0.04056
3246.07835,0.04079
3244.14961,0.04105
3242.22086,0.04130
3240.29212,0.04154
3238.36337,0.04159
3236.43463,0.04136
3234.50588,0.04109
3232.57713,0.04085
3230.64839,0.04054
3228.71964,0.04037
3226.79090,0.04061
3224.86215,0.04116
3222.93341,0.04164
3221.00466,0.04180
3219.07592,0.04169
3217.14717,0.04158
3215.21843,0.04155
3213.28968,0.04150
3211.36094,0.04143
3209.43219,0.04141
3207.50345,0.04146
3205.57470,0.04156
3203.64596,0.04167
3201.71721,0.04193
3199.78846,0.04235
3197.85972,0.04260
3195.93097,0.04246
3194.00223,0.04223
3192.07348,0.04226
3190.14474,0.04250
3188.21599,0.04274
3186.28725,0.04281
3184.35850,0.04280
3182.42976,0.04290
3180.50101,0.04310
3178.57227,0.04325
3176.64352,0.04334
3174.71478,0.04329
3172.78603,0.04326
3170.85729,0.04355
3168.92854,0.04387
3166.99979,0.04381
3165.07105,0.04362
3163.14230,0.04366
3161.21356,0.04380
3159.28481,0.04384
3157.35607,0.04381
3155.42732,0.04382
3153.49858,0.04397
3151.56983,0.04422
3149.64109,0.04438
3147.71234,0.04444
3145.78360,0.04442
3143.85485,0.04444
3141.92611,0.04444
3139.99736,0.04435
3138.06861,0.04437
3136.13987,0.04447
3134.21112,0.04446
3132.28238,0.04449
3130.35363,0.04480
3128.42489,0.04522
3126.49614,0.04544
3124.56740,0.04537
3122.63865,0.04521
3120.70991,0.04528
3118.78116,0.04557
3116.85242,0.04577
3114.92367,0.04576
3112.99493,0.04581
3111.06618,0.04598
3109.13744,0.04609
3107.20869,0.04610
3105.27994,0.04608
3103.35120,0.04611
3101.42245,0.04631
3099.49371,0.04647
3097.56496,0.04639
3095.63622,0.04625
3093.70747,0.04625
3091.77873,0.04629
3089.84998,0.04629
3087.92124,0.04628
3085.99249,0.04629
3084.06375,0.04626
3082.13500,0.04617
3080.20626,0.04622
3078.27751,0.04644
3076.34877,0.04661
3074.42002,0.04664
3072.49127,0.04657
3070.56253,0.04655
3068.63378,0.04663
3066.70504,0.04664
3064.77629,0.04657
3062.84755,0.04665
3060.91880,0.04689
3058.99006,0.04711
3057.06131,0.04713
3055.13257,0.04709
3053.20382,0.04711
3051.27508,0.04708
3049.34633,0.04700
3047.41759,0.04696
3045.48884,0.04703
3043.56009,0.04712
3041.63135,0.04716
3039.70260,0.04718
3037.77386,0.04723
3035.84511,0.04737
3033.91637,0.04755
3031.98762,0.04762
3030.05888,0.04759
3028.13013,0.04756
3026.20139,0.04763
3024.27264,0.04775
3022.34390,0.04780
3020.41515,0.04780
3018.48641,0.04788
3016.55766,0.04807
3014.62892,0.04829
3012.70017,0.04847
3010.77142,0.04859
3008.84268,0.04849
3006.91393,0.04808
3004.98519,0.04769
3003.05644,0.04764
3001.12770,0.04772
2999.19895,0.04760
2997.27021,0.04734
2995.34146,0.04715
2993.41272,0.04710
2991.48397,0.04716
2989.55523,0.04729
2987.62648,0.04730
2985.69774,0.04704
2983.76899,0.04669
2981.84025,0.04643
2979.91150,0.04620
2977.98275,0.04588
2976.05401,0.04553
2974.12526,0.04533
2972.19652,0.04502
2970.26777,0.04444
2968.33903,0.04394
2966.41028,0.04363
2964.48154,0.04334
2962.55279,0.04301
2960.62405,0.04282
2958.69530,0.04286
2956.76656,0.04292
2954.83781,0.04292
2952.90907,0.04285
2950.98032,0.04276
2949.05157,0.04288
2947.12283,0.04317
2945.19408,0.04319
2943.26534,0.04282
2941.33659,0.04227
2939.40785,0.04175
2937.47910,0.04146
2935.55036,0.04145
2933.62161,0.04159
2931.69287,0.04164
2929.76412,0.04157
2927.83538,0.04157
2925.90663,0.04180
2923.97789,0.04229
2922.04914,0.04294
2920.12040,0.04345
2918.19165,0.04378
2916.26290,0.04426
2914.33416,0.04487
2912.40541,0.04527
2910.47667,0.04545
2908.54792,0.04557
2906.61918,0.04575
2904.69043,0.04601
2902.76169,0.04614
2900.83294,0.04603
2898.90420,0.04603
2896.97545,0.04634
2895.04671,0.04674
2893.11796,0.04701
2891.18922,0.04705
2889.26047,0.04695
2887.33172,0.04693
2885.40298,0.04707
2883.47423,0.04737
2881.54549,0.04764
2879.61674,0.04768
2877.68800,0.04758
2875.75925,0.04753
2873.83051,0.04748
2871.90176,0.04722
2869.97302,0.04682
2868.04427,0.04666
2866.11553,0.04671
2864.18678,0.04657
2862.25804,0.04633
2860.32929,0.04612
2858.40055,0.04572
2856.47180,0.04528
2854.54305,0.04528
2852.61431,0.04580
2850.68556,0.04662
2848.75682,0.04752
2846.82807,0.04825
2844.89933,0.04891
2842.97058,0.04968
2841.04184,0.05046
2839.11309,0.05107
2837.18435,0.05136
2835.25560,0.05151
2833.32686,0.05192
2831.39811,0.05251
2829.46937,0.05300
2827.54062,0.05339
2825.61188,0.05352
2823.68313,0.05339
2821.75438,0.05336
2819.82564,0.05347
2817.89689,0.05350
2815.96815,0.05354
2814.03940,0.05370
2812.11066,0.05398
2810.18191,0.05420
2808.25317,0.05424
2806.32442,0.05430
2804.39568,0.05449
2802.46693,0.05474
2800.53819,0.05492
2798.60944,0.05494
2796.68070,0.05496
2794.75195,0.05524
2792.82320,0.05559
2790.89446,0.05559
2788.96571,0.05549
2787.03697,0.05559
2785.10822,0.05578
2783.17948,0.05598
2781.25073,0.05618
2779.32199,0.05619
2777.39324,0.05613
2775.46450,0.05623
2773.53575,0.05631
2771.60701,0.05616
2769.67826,0.05605
2767.74952,0.05608
2765.82077,0.05601
2763.89203,0.05601
2761.96328,0.05636
2760.03453,0.05675
2758.10579,0.05666
2756.17704,0.05632
2754.24830,0.05639
2752.31955,0.05682
2750.39081,0.05702
2748.46206,0.05679
2746.53332,0.05645
2744.60457,0.05637
2742.67583,0.05655
2740.74708,0.05683
2738.81834,0.05705
2736.88959,0.05703
2734.96085,0.05676
2733.03210,0.05656
2731.10336,0.05659
2729.17461,0.05668
2727.24586,0.05675
2725.31712,0.05692
2723.38837,0.05712
2721.45963,0.05725
2719.53088,0.05731
2717.60214,0.05732
2715.67339,0.05730
2713.74465,0.05720
2711.81590,0.05708
2709.88716,0.05717
2707.95841,0.05733
2706.02967,0.05733
2704.10092,0.05727
2702.17218,0.05736
2700.24343,0.05755
2698.31468,0.05762
2696.38594,0.05761
2694.45719,0.05774
2692.52845,0.05797
2690.59970,0.05797
2688.67096,0.05792
2686.74221,0.05806
2684.81347,0.05815
2682.88472,0.05813
2680.95598,0.05809
2679.02723,0.05799
2677.09849,0.05797
2675.16974,0.05812
2673.24100,0.05822
2671.31225,0.05815
2669.38351,0.05794
2667.45476,0.05781
2665.52601,0.05795
2663.59727,0.05822
2661.66852,0.05834
2659.73978,0.05831
2657.81103,0.05824
2655.88229,0.05820
2653.95354,0.05819
2652.02480,0.05813
2650.09605,0.05810
2648.16731,0.05819
2646.23856,0.05838
2644.30982,0.05854
2642.38107,0.05853
2640.45233,0.05843
2638.52358,0.05846
2636.59484,0.05867
2634.66609,0.05885
2632.73734,0.05890
2630.80860,0.05879
2628.87985,0.05860
2626.95111,0.05849
2625.02236,0.05854
2623.09362,0.05866
2621.16487,0.05872
2619.23613,0.05857
2617.30738,0.05830
2615.37864,0.05822
2613.44989,0.05831
2611.52115,0.05842
2609.59240,0.05850
2607.66366,0.05854
2605.73491,0.05850
2603.80616,0.05848
2601.87742,0.05859
2599.94867,0.05860
2598.01993,0.05846
2596.09118,0.05847
2594.16244,0.05865
2592.23369,0.05877
2590.30495,0.05873
2588.37620,0.05866
2586.44746,0.05868
2584.51871,0.05875
2582.58997,0.05878
2580.66122,0.05881
2578.73248,0.05885
2576.80373,0.05892
2574.87499,0.05898
2572.94624,0.05896
2571.01749,0.05894
2569.08875,0.05904
2567.16000,0.05916
2565.23126,0.05924
2563.30251,0.05922
2561.37377,0.05917
2559.44502,0.05915
2557.51628,0.05909
2555.58753,0.05899
2553.65879,0.05902
2551.73004,0.05911
2549.80130,0.05909
2547.87255,0.05899
2545.94381,0.05897
2544.01506,0.05911
2542.08631,0.05923
2540.15757,0.05913
2538.22882,0.05894
2536.30008,0.05875
2534.37133,0.05857
2532.44259,0.05860
2530.51384,0.05865
2528.58510,0.05853
2526.65635,0.05850
2524.72761,0.05861
2522.79886,0.05862
2520.87012,0.05856
2518.94137,0.05854
2517.01263,0.05851
2515.08388,0.05842
2513.15514,0.05839
2511.22639,0.05845
2509.29764,0.05856
2507.36890,0.05863
2505.44015,0.05855
2503.51141,0.05841
2501.58266,0.05850
2499.65392,0.05883
2497.72517,0.05911
2495.79643,0.05915
2493.86768,0.05909
2491.93894,0.05910
2490.01019,0.05914
2488.08145,0.05920
2486.15270,0.05933
2484.22396,0.05941
2482.29521,0.05935
2480.36647,0.05929
2478.43772,0.05933
2476.50897,0.05933
2474.58023,0.05921
2472.65148,0.05919
2470.72274,0.05930
2468.79399,0.05940
2466.86525,0.05949
2464.93650,0.05963
2463.00776,0.05972
2461.07901,0.05971
2459.15027,0.05965
2457.22152,0.05956
2455.29278,0.05957
2453.36403,0.05980
2451.43529,0.05992
2449.50654,0.05975
2447.57779,0.05955
2445.64905,0.05951
2443.72030,0.05957
2441.79156,0.05962
2439.86281,0.05969
2437.93407,0.05981
2436.00532,0.05996
2434.07658,0.06011
2432.14783,0.06018
2430.21909,0.06015
2428.29034,0.06009
2426.36160,0.06000
2424.43285,0.05992
2422.50411,0.05993
2420.57536,0.05990
2418.64662,0.05977
2416.71787,0.05972
2414.78912,0.05986
2412.86038,0.05998
2410.93163,0.05986
2409.00289,0.05965
2407.07414,0.05959
2405.14540,0.05964
2403.21665,0.05975
2401.28791,0.05990
2399.35916,0.05997
2397.43042,0.05999
2395.50167,0.06004
2393.57293,0.06000
2391.64418,0.05989
2389.71544,0.05984
2387.78669,0.05969
2385.85795,0.05943
2383.92920,0.05933
2382.00045,0.05942
2380.07171,0.05950
2378.14296,0.05944
2376.21422,0.05924
2374.28547,0.05904
2372.35673,0.05893
2370.42798,0.05891
2368.49924,0.05905
2366.57049,0.05920
2364.64175,0.05913
2362.71300,0.05898
2360.78426,0.05880
2358.85551,0.05859
2356.92677,0.05851
2354.99802,0.05853
2353.06927,0.05848
2351.14053,0.05845
2349.21178,0.05846
2347.28304,0.05838
2345.35429,0.05818
2343.42555,0.05806
2341.49680,0.05815
2339.56806,0.05824
2337.63931,0.05812
2335.71057,0.05802
2333.78182,0.05810
2331.85308,0.05829
2329.92433,0.05851
2327.99559,0.05867
2326.06684,0.05867
2324.13810,0.05853
2322.20935,0.05832
2320.28060,0.05812
2318.35186,0.05804
2316.42311,0.05806
2314.49437,0.05810
2312.56562,0.05815
2310.63688,0.05815
2308.70813,0.05809
2306.77939,0.05803
2304.85064,0.05808
2302.92190,0.05816
2300.99315,0.05803
2299.06441,0.05771
2297.13566,0.05756
2295.20692,0.05763
2293.27817,0.05763
2291.34943,0.05755
2289.42068,0.05750
2287.49193,0.05745
2285.56319,0.05751
2283.63444,0.05757
2281.70570,0.05745
2279.77695,0.05734
2277.84821,0.05739
2275.91946,0.05739
2273.99072,0.05727
2272.06197,0.05715
2270.13323,0.05704
2268.20448,0.05691
2266.27574,0.05672
2264.34699,0.05651
2262.41825,0.05646
2260.48950,0.05650
2258.56075,0.05646
2256.63201,0.05640
2254.70326,0.05635
2252.77452,0.05628
2250.84577,0.05620
2248.91703,0.05617
2246.98828,0.05616
2245.05954,0.05600
2243.13079,0.05573
2241.20205,0.05562
2239.27330,0.05570
2237.34456,0.05578
2235.41581,0.05568
2233.48707,0.05549
2231.55832,0.05541
2229.62958,0.05539
2227.70083,0.05531
2225.77208,0.05520
2223.84334,0.05517
2221.91459,0.05513
2219.98585,0.05493
2218.05710,0.05479
2216.12836,0.05481
2214.19961,0.05477
2212.27087,0.05459
2210.34212,0.05443
2208.41338,0.05429
2206.48463,0.05415
2204.55589,0.05401
2202.62714,0.05394
2200.69840,0.05400
2198.76965,0.05398
2196.84090,0.05368
2194.91216,0.05331
2192.98341,0.05310
2191.05467,0.05312
2189.12592,0.05314
2187.19718,0.05291
2185.26843,0.05259
2183.33969,0.05237
2181.41094,0.05223
2179.48220,0.05214
2177.55345,0.05200
2175.62471,0.05179
2173.69596,0.05165
2171.76722,0.05159
2169.83847,0.05147
2167.90973,0.05127
2165.98098,0.05103
2164.05223,0.05078
2162.12349,0.05069
2160.19474,0.05071
2158.26600,0.05070
2156.33725,0.05067
2154.40851,0.05068
2152.47976,0.05057
2150.55102,0.05038
2148.62227,0.05033
2146.69353,0.05032
2144.76478,0.05028
2142.83604,0.05034
2140.90729,0.05032
2138.97855,0.05011
2137.04980,0.04997
2135.12106,0.04998
2133.19231,0.04992
2131.26356,0.04976
2129.33482,0.04972
2127.40607,0.04987
2125.47733,0.04997
2123.54858,0.04981
2121.61984,0.04952
2119.69109,0.04934
2117.76235,0.04930
2115.83360,0.04938
2113.90486,0.04946
2111.97611,0.04950
2110.04737,0.04949
2108.11862,0.04931
2106.18988,0.04902
2104.26113,0.04873
2102.33238,0.04845
2100.40364,0.04836
2098.47489,0.04845
2096.54615,0.04838
2094.61740,0.04807
2092.68866,0.04785
2090.75991,0.04781
2088.83117,0.04781
2086.90242,0.04775
2084.97368,0.04771
2083.04493,0.04768
2081.11619,0.04764
2079.18744,0.04763
2077.25870,0.04759
2075.32995,0.04751
2073.40121,0.04738
2071.47246,0.04713
2069.54371,0.04691
2067.61497,0.04694
2065.68622,0.04705
2063.75748,0.04710
2061.82873,0.04710
2059.89999,0.04700
2057.97124,0.04678
2056.04250,0.04658
2054.11375,0.04647
2052.18501,0.04640
2050.25626,0.04639
2048.32752,0.04636
2046.39877,0.04621
2044.47003,0.04609
2042.54128,0.04605
2040.61254,0.04590
2038.68379,0.04560
2036.75504,0.04542
2034.82630,0.04551
2032.89755,0.04550
2030.96881,0.04526
2029.04006,0.04520
2027.11132,0.04533
2025.18257,0.04532
2023.25383,0.04523
2021.32508,0.04528
2019.39634,0.04545
2017.46759,0.04554
2015.53885,0.04548
2013.61010,0.04531
2011.68136,0.04505
2009.75261,0.04489
2007.82386,0.04494
2005.89512,0.04507
2003.96637,0.04519
2002.03763,0.04526
2000.10888,0.04526
1998.18014,0.04525
1996.25139,0.04525
1994.32265,0.04522
1992.39390,0.04525
1990.46516,0.04537
1988.53641,0.04546
1986.60767,0.04544
1984.67892,0.04527
1982.75018,0.04502
1980.82143,0.04485
1978.89269,0.04475
1976.96394,0.04474
1975.03519,0.04493
1973.10645,0.04519
1971.17770,0.04534
1969.24896,0.04540
1967.32021,0.04540
1965.39147,0.04531
1963.46272,0.04525
1961.53398,0.04529
1959.60523,0.04534
1957.67649,0.04531
1955.74774,0.04522
1953.81900,0.04517
1951.89025,0.04518
1949.96151,0.04516
1948.03276,0.04507
1946.10402,0.04497
1944.17527,0.04493
1942.24652,0.04487
1940.31778,0.04479
1938.38903,0.04476
1936.46029,0.04472
1934.53154,0.04468
1932.60280,0.04480
1930.67405,0.04496
1928.74531,0.04493
1926.81656,0.04478
1924.88782,0.04462
1922.95907,0.04452
1921.03033,0.04459
1919.10158,0.04467
1917.17284,0.04457
1915.24409,0.04437
1913.31534,0.04421
1911.38660,0.04409
1909.45785,0.04412
1907.52911,0.04426
1905.60036,0.04432
1903.67162,0.04430
1901.74287,0.04430
1899.81413,0.04424
1897.88538,0.04408
1895.95664,0.04395
1894.02789,0.04394
1892.09915,0.04409
1890.17040,0.04433
1888.24166,0.04441
1886.31291,0.04421
1884.38417,0.04396
1882.45542,0.04387
1880.52667,0.04389
1878.59793,0.04388
1876.66918,0.04388
1874.74044,0.04398
1872.81169,0.04407
1870.88295,0.04413
1868.95420,0.04417
1867.02546,0.04414
1865.09671,0.04398
1863.16797,0.04382
1861.23922,0.04375
1859.31048,0.04376
1857.38173,0.04378
1855.45299,0.04379
1853.52424,0.04377
1851.59549,0.04374
1849.66675,0.04376
1847.73800,0.04374
1845.80926,0.04360
1843.88051,0.04352
1841.95177,0.04364
1840.02302,0.04377
1838.09428,0.04379
1836.16553,0.04376
1834.23679,0.04370
1832.30804,0.04360
1830.37930,0.04349
1828.45055,0.04334
1826.52181,0.04318
1824.59306,0.04310
1822.66432,0.04307
1820.73557,0.04310
1818.80682,0.04311
1816.87808,0.04291
1814.94933,0.04261
1813.02059,0.04245
1811.09184,0.04244
1809.16310,0.04247
1807.23435,0.04235
1805.30561,0.04210
1803.37686,0.04192
1801.44812,0.04174
1799.51937,0.04141
1797.59063,0.04107
1795.66188,0.04095
1793.73314,0.04099
1791.80439,0.04098
1789.87565,0.04086
1787.94690,0.04078
1786.01815,0.04080
1784.08941,0.04087
1782.16066,0.04087
1780.23192,0.04078
1778.30317,0.04077
1776.37443,0.04085
1774.44568,0.04095
1772.51694,0.04096
1770.58819,0.04088
1768.65945,0.04077
1766.73070,0.04065
1764.80196,0.04060
1762.87321,0.04067
1760.94447,0.04070
1759.01572,0.04065
1757.08697,0.04057
1755.15823,0.04040
1753.22948,0.04020
1751.30074,0.04002
1749.37199,0.03988
1747.44325,0.03982
1745.51450,0.03984
1743.58576,0.03993
1741.65701,0.03994
1739.72827,0.03975
1737.79952,0.03959
1735.87078,0.03963
1733.94203,0.03967
1732.01329,0.03950
1730.08454,0.03933
1728.15580,0.03927
1726.22705,0.03926
1724.29830,0.03929
1722.36956,0.03940
1720.44081,0.03949
1718.51207,0.03941
1716.58332,0.03918
1714.65458,0.03901
1712.72583,0.03893
1710.79709,0.03882
1708.86834,0.03869
1706.93960,0.03866
1705.01085,0.03880
1703.08211,0.03899
1701.15336,0.03891
1699.22462,0.03853
1697.29587,0.03839
1695.36713,0.03845
1693.43838,0.03834
1691.50963,0.03815
1689.58089,0.03806
1687.65214,0.03816
1685.72340,0.03844
1683.79465,0.03871
1681.86591,0.03882
1679.93716,0.03882
1678.00842,0.03872
1676.07967,0.03842
1674.15093,0.03815
1672.22218,0.03825
1670.29344,0.03863
1668.36469,0.03904
1666.43595,0.03928
1664.50720,0.03931
1662.57845,0.03922
1660.64971,0.03922
1658.72096,0.03930
1656.79222,0.03938
1654.86347,0.03951
1652.93473,0.03952
1651.00598,0.03942
1649.07724,0.03952
1647.14849,0.03967
1645.21975,0.03966
1643.29100,0.03964
1641.36226,0.03969
1639.43351,0.03978
1637.50477,0.03996
1635.57602,0.04016
1633.64728,0.04027
1631.71853,0.04029
1629.78978,0.04023
1627.86104,0.04019
1625.93229,0.04015
1624.00355,0.03993
1622.07480,0.03971
1620.14606,0.03985
1618.21731,0.04016
1616.28857,0.04020
1614.35982,0.04008
1612.43108,0.04002
1610.50233,0.03999
1608.57359,0.04002
1606.64484,0.04021
1604.71610,0.04048
1602.78735,0.04068
1600.85861,0.04083
1598.92986,0.04104
1597.00111,0.04130
1595.07237,0.04150
1593.14362,0.04159
1591.21488,0.04164
1589.28613,0.04166
1587.35739,0.04179
1585.42864,0.04210
1583.49990,0.04247
1581.57115,0.04290
1579.64241,0.04343
1577.71366,0.04389
1575.78492,0.04414
1573.85617,0.04444
1571.92743,0.04491
1569.99868,0.04536
1568.06993,0.04576
1566.14119,0.04625
1564.21244,0.04682
1562.28370,0.04734
1560.35495,0.04792
1558.42621,0.04849
1556.49746,0.04871
1554.56872,0.04872
1552.63997,0.04881
1550.71123,0.04898
1548.78248,0.04907
1546.85374,0.04899
1544.92499,0.04871
1542.99625,0.04850
1541.06750,0.04861
1539.13876,0.04879
1537.21001,0.04878
1535.28126,0.04865
1533.35252,0.04844
1531.42377,0.04831
1529.49503,0.04839
1527.56628,0.04845
1525.63754,0.04832
1523.70879,0.04817
1521.78005,0.04808
1519.85130,0.04794
1517.92256,0.04765
1515.99381,0.04723
1514.06507,0.04683
1512.13632,0.04660
1510.20758,0.04656
1508.27883,0.04665
1506.35008,0.04650
1504.42134,0.04610
1502.49259,0.04594
1500.56385,0.04598
1498.63510,0.04590
1496.70636,0.04561
1494.77761,0.04529
1492.84887,0.04512
1490.92012,0.04507
1488.99138,0.04498
1487.06263,0.04470
1485.13389,0.04421
1483.20514,0.04370
1481.27640,0.04330
1479.34765,0.04301
1477.41891,0.04280
1475.49016,0.04252
1473.56141,0.04202
1471.63267,0.04133
1469.70392,0.04067
1467.77518,0.04024
1465.84643,0.04011
1463.91769,0.04015
1461.98894,0.04013
1460.06020,0.04006
1458.13145,0.03999
1456.20271,0.03992
1454.27396,0.03993
1452.34522,0.03988
1450.41647,0.03978
1448.48773,0.03979
1446.55898,0.03995
1444.63024,0.04011
1442.70149,0.04023
1440.77274,0.04034
1438.84400,0.04047
1436.91525,0.04054
1434.98651,0.04056
1433.05776,0.04057
1431.12902,0.04046
1429.20027,0.04025
1427.27153,0.04025
1425.34278,0.04037
1423.41404,0.04028
1421.48529,0.04018
1419.55655,0.04028
1417.62780,0.04030
1415.69906,0.04009
1413.77031,0.03986
1411.84156,0.03969
1409.91282,0.03950
1407.98407,0.03939
1406.05533,0.03939
1404.12658,0.03925
1402.19784,0.03901
1400.26909,0.03884
1398.34035,0.03872
1396.41160,0.03859
1394.48286,0.03849
1392.55411,0.03848
1390.62537,0.03848
1388.69662,0.03833
1386.76788,0.03806
1384.83913,0.03790
1382.91039,0.03797
1380.98164,0.03803
1379.05289,0.03786
1377.12415,0.03754
1375.19540,0.03726
1373.26666,0.03722
1371.33791,0.03739
1369.40917,0.03759
1367.48042,0.03775
1365.55168,0.03791
1363.62293,0.03796
1361.69419,0.03792
1359.76544,0.03795
1357.83670,0.03799
1355.90795,0.03791
1353.97921,0.03776
1352.05046,0.03778
1350.12172,0.03799
1348.19297,0.03816
1346.26422,0.03829
1344.33548,0.03847
1342.40673,0.03848
1340.47799,0.03832
1338.54924,0.03832
1336.62050,0.03835
1334.69175,0.03821
1332.76301,0.03811
1330.83426,0.03805
1328.90552,0.03794
1326.97677,0.03781
1325.04803,0.03767
1323.11928,0.03763
1321.19054,0.03768
1319.26179,0.03762
1317.33304,0.03735
1315.40430,0.03706
1313.47555,0.03698
1311.54681,0.03708
1309.61806,0.03719
1307.68932,0.03723
1305.76057,0.03715
1303.83183,0.03700
1301.90308,0.03692
1299.97434,0.03691
1298.04559,0.03697
1296.11685,0.03711
1294.18810,0.03715
1292.25936,0.03702
1290.33061,0.03685
1288.40187,0.03679
1286.47312,0.03682
1284.54437,0.03680
1282.61563,0.03667
1280.68688,0.03652
1278.75814,0.03647
1276.82939,0.03642
1274.90065,0.03614
1272.97190,0.03581
1271.04316,0.03563
1269.11441,0.03556
1267.18567,0.03552
1265.25692,0.03544
1263.32818,0.03530
1261.39943,0.03499
1259.47069,0.03450
1257.54194,0.03411
1255.61320,0.03400
1253.68445,0.03400
1251.75570,0.03390
1249.82696,0.03373
1247.89821,0.03364
1245.96947,0.03356
1244.04072,0.03339
1242.11198,0.03334
1240.18323,0.03341
1238.25449,0.03341
1236.32574,0.03347
1234.39700,0.03382
1232.46825,0.03426
1230.53951,0.03435
1228.61076,0.03417
1226.68202,0.03416
1224.75327,0.03455
1222.82452,0.03511
1220.89578,0.03538
1218.96703,0.03532
1217.03829,0.03521
1215.10954,0.03508
1213.18080,0.03496
1211.25205,0.03507
1209.32331,0.03538
1207.39456,0.03560
1205.46582,0.03565
1203.53707,0.03573
1201.60833,0.03581
1199.67958,0.03587
1197.75084,0.03588
1195.82209,0.03579
1193.89335,0.03573
1191.96460,0.03589
1190.03585,0.03622
1188.10711,0.03648
1186.17836,0.03651
1184.24962,0.03643
1182.32087,0.03634
1180.39213,0.03627
1178.46338,0.03637
1176.53464,0.03665
1174.60589,0.03699
1172.67715,0.03723
1170.74840,0.03737
1168.81966,0.03762
1166.89091,0.03784
1164.96217,0.03789
1163.03342,0.03799
1161.10467,0.03818
1159.17593,0.03829
1157.24718,0.03841
1155.31844,0.03873
1153.38969,0.03928
1151.46095,0.03991
1149.53220,0.04052
1147.60346,0.04121
1145.67471,0.04185
1143.74597,0.04225
1141.81722,0.04252
1139.88848,0.04281
1137.95973,0.04322
1136.03099,0.04380
1134.10224,0.04445
1132.17350,0.04508
1130.24475,0.04570
1128.31600,0.04631
1126.38726,0.04683
1124.45851,0.04731
1122.52977,0.04815
1120.60102,0.04943
1118.67228,0.05054
1116.74353,0.05100
1114.81479,0.05111
1112.88604,0.05147
1110.95730,0.05219
1109.02855,0.05300
1107.09981,0.05398
1105.17106,0.05516
1103.24232,0.05624
1101.31357,0.05715
1099.38483,0.05806
1097.45608,0.05900
1095.52733,0.05976
1093.59859,0.06021
1091.66984,0.06051
1089.74110,0.06081
1087.81235,0.06110
1085.88361,0.06145
1083.95486,0.06184
1082.02612,0.06215
1080.09737,0.06258
1078.16863,0.06322
1076.23988,0.06366
1074.31114,0.06387
1072.38239,0.06405
1070.45365,0.06408
1068.52490,0.06378
1066.59615,0.06344
1064.66741,0.06344
1062.73866,0.06382
1060.80992,0.06433
1058.88117,0.06469
1056.95243,0.06483
1055.02368,0.06486
1053.09494,0.06478
1051.16619,0.06488
1049.23745,0.06553
1047.30870,0.06641
1045.37996,0.06704
1043.45121,0.06757
1041.52247,0.06829
1039.59372,0.06915
1037.66498,0.07002
1035.73623,0.07087
1033.80748,0.07171
1031.87874,0.07221
1029.94999,0.07193
1028.02125,0.07116
1026.09250,0.07039
1024.16376,0.06971
1022.23501,0.06910
1020.30627,0.06875
1018.37752,0.06897
1016.44878,0.06975
1014.52003,0.07093
1012.59129,0.07218
1010.66254,0.07303
1008.73380,0.07363
1006.80505,0.07443
1004.87631,0.07513
1002.94756,0.07530
1001.01881,0.07524
999.09007,0.07526
997.16132,0.07521
995.23258,0.07519
993.30383,0.07535
991.37509,0.07550
989.44634,0.07558
987.51760,0.07559
985.58885,0.07524
983.66011,0.07463
981.73136,0.07426
979.80262,0.07418
977.87387,0.07401
975.94513,0.07361
974.01638,0.07312
972.08763,0.07284
970.15889,0.07288
968.23014,0.07281
966.30140,0.07241
964.37265,0.07216
962.44391,0.07221
960.51516,0.07226
958.58642,0.07218
956.65767,0.07215
954.72893,0.07232
952.80018,0.07253
950.87144,0.07257
948.94269,0.07240
947.01395,0.07205
945.08520,0.07167
943.15646,0.07118
941.22771,0.07040
939.29896,0.06956
937.37022,0.06868
935.44147,0.06767
933.51273,0.06679
931.58398,0.06621
929.65524,0.06562
927.72649,0.06477
925.79775,0.06404
923.86900,0.06376
921.94026,0.06355
920.01151,0.06329
918.08277,0.06320
916.15402,0.06305
914.22528,0.06276
912.29653,0.06264
910.36779,0.06279
908.43904,0.06301
906.51029,0.06310
904.58155,0.06303
902.65280,0.06288
900.72406,0.06273
898.79531,0.06257
896.86657,0.06244
894.93782,0.06256
893.00908,0.06295
891.08033,0.06327
889.15159,0.06313
887.22284,0.06235
885.29410,0.06132
883.36535,0.06057
881.43661,0.06003
879.50786,0.05953
877.57911,0.05903
875.65037,0.05857
873.72162,0.05810
871.79288,0.05748
869.86413,0.05679
867.93539,0.05616
866.00664,0.05576
864.07790,0.05558
862.14915,0.05549
860.22041,0.05533
858.29166,0.05498
856.36292,0.05462
854.43417,0.05443
852.50543,0.05407
850.57668,0.05317
848.64794,0.05218
846.71919,0.05164
844.79044,0.05131
842.86170,0.05084
840.93295,0.05039
839.00421,0.05020
837.07546,0.05015
835.14672,0.04995
833.21797,0.04967
831.28923,0.04942
829.36048,0.04912
827.43174,0.04881
825.50299,0.04864
823.57425,0.04837
821.64550,0.04760
819.71676,0.04677
817.78801,0.04673
815.85926,0.04706
813.93052,0.04679
812.00177,0.04626
810.07303,0.04611
808.14428,0.04606
806.21554,0.04595
804.28679,0.04591
802.35805,0.04589
800.42930,0.04584
798.50056,0.04569
796.57181,0.04544
794.64307,0.04519
792.71432,0.04502
790.78558,0.04507
788.85683,0.04532
786.92809,0.04553
784.99934,0.04572
783.07059,0.04611
781.14185,0.04670
779.21310,0.04694
777.28436,0.04643
775.35561,0.04560
773.42687,0.04530
771.49812,0.04562
769.56938,0.04581
767.64063,0.04554
765.71189,0.04519
763.78314,0.04510
761.85440,0.04536
759.92565,0.04572
757.99691,0.04607
756.06816,0.04667
754.13942,0.04734
752.21067,0.04738
750.28192,0.04676
748.35318,0.04629
746.42443,0.04640
744.49569,0.04657
742.56694,0.04630
740.63820,0.04604
738.70945,0.04618
736.78071,0.04634
734.85196,0.04623
732.92322,0.04603
730.99447,0.04593
729.06573,0.04566
727.13698,0.04494
725.20824,0.04430
723.27949,0.04430
721.35074,0.04475
719.42200,0.04534
717.49325,0.04597
715.56451,0.04604
713.63576,0.04523
711.70702,0.04453
709.77827,0.04476
707.84953,0.04530
705.92078,0.04517
703.99204,0.04459
702.06329,0.04422
700.13455,0.04372
698.20580,0.04314
696.27706,0.04335
694.34831,0.04419
692.41957,0.04462
690.49082,0.04437
688.56207,0.04386
686.63333,0.04368
684.70458,0.04422
682.77584,0.04475
680.84709,0.04461
678.91835,0.04417
676.98960,0.04378
675.06086,0.04366
673.13211,0.04388
671.20337,0.04412
669.27462,0.04427
667.34588,0.04441
665.41713,0.04437
663.48839,0.04406
661.55964,0.04374
659.63090,0.04399
657.70215,0.04484
655.77340,0.04531
653.84466,0.04492
651.91591,0.04504
649.98717,0.04661
648.05842,0.04826
646.12968,0.04853
644.20093,0.04790
642.27219,0.04741
640.34344,0.04712
638.41470,0.04666
636.48595,0.04613
634.55721,0.04563
632.62846,0.04525
630.69972,0.04513
628.77097,0.04483
626.84222,0.04432
624.91348,0.04415
622.98473,0.04420
621.05599,0.04418
619.12724,0.04373
617.19850,0.04262
615.26975,0.04174
613.34101,0.04140
611.41226,0.04075
609.48352,0.04054
607.55477,0.04147
605.62603,0.04224
603.69728,0.04233
601.76854,0.04259
599.83979,0.04254
