7497.03301,0.05587
7495.10426,0.05504
7493.17552,0.05385
7491.24677,0.05403
7489.31803,0.05557
7487.38928,0.05452
7485.46054,0.05282
7483.53179,0.05226
7481.60305,0.04984
7479.67430,0.04938
7477.74556,0.05445
7475.81681,0.05959
7473.88807,0.06118
7471.95932,0.05967
7470.03057,0.05452
7468.10183,0.05016
7466.17308,0.05073
7464.24434,0.05228
7462.31559,0.05349
7460.38685,0.05572
7458.45810,0.05643
7456.52936,0.05801
7454.60061,0.06051
7452.67187,0.05867
7450.74312,0.05359
7448.81438,0.04882
7446.88563,0.04770
7444.95689,0.05149
7443.02814,0.05396
7441.09940,0.05361
7439.17065,0.05479
7437.24190,0.05696
7435.31316,0.05784
7433.38441,0.05957
7431.45567,0.06199
7429.52692,0.06149
7427.59818,0.05853
7425.66943,0.05550
7423.74069,0.05246
7421.81194,0.05136
7419.88320,0.05395
7417.95445,0.05704
7416.02571,0.05736
7414.09696,0.05464
7412.16822,0.04948
7410.23947,0.04628
7408.31073,0.04764
7406.38198,0.04932
7404.45323,0.04764
7402.52449,0.04531
7400.59574,0.04500
7398.66700,0.04670
7396.73825,0.04865
7394.80951,0.04780
7392.88076,0.04429
7390.95202,0.04435
7389.02327,0.04888
7387.09453,0.05375
7385.16578,0.05702
7383.23704,0.05886
7381.30829,0.06041
7379.37955,0.06095
7377.45080,0.05920
7375.52205,0.05702
7373.59331,0.05448
7371.66456,0.05182
7369.73582,0.05271
7367.80707,0.05729
7365.87833,0.06115
7363.94958,0.06162
7362.02084,0.06002
7360.09209,0.05995
7358.16335,0.06086
7356.23460,0.05980
7354.30586,0.05793
7352.37711,0.05603
7350.44837,0.05540
7348.51962,0.05845
7346.59088,0.06096
7344.66213,0.05999
7342.73338,0.05690
7340.80464,0.05365
7338.87589,0.05412
7336.94715,0.05697
7335.01840,0.05719
7333.08966,0.05651
7331.16091,0.05777
7329.23217,0.05775
7327.30342,0.05377
7325.37468,0.05217
7323.44593,0.05686
7321.51719,0.06215
7319.58844,0.06424
7317.65970,0.06295
7315.73095,0.05881
7313.80221,0.05547
7311.87346,0.05521
7309.94471,0.05549
7308.01597,0.05344
7306.08722,0.05184
7304.15848,0.05303
7302.22973,0.05282
7300.30099,0.04848
7298.37224,0.04549
7296.44350,0.04746
7294.51475,0.05017
7292.58601,0.05165
7290.65726,0.05338
7288.72852,0.05479
7286.79977,0.05622
7284.87103,0.05723
7282.94228,0.05592
7281.01353,0.05426
7279.08479,0.05565
7277.15604,0.05788
7275.22730,0.05793
7273.29855,0.05656
7271.36981,0.05394
7269.44106,0.05187
7267.51232,0.05312
7265.58357,0.05462
7263.65483,0.05466
7261.72608,0.05510
7259.79734,0.05480
7257.86859,0.05205
7255.93985,0.05040
7254.01110,0.05429
7252.08236,0.05896
7250.15361,0.05715
7248.22486,0.05208
7246.29612,0.04944
7244.36737,0.04956
7242.43863,0.05146
7240.50988,0.05398
7238.58114,0.05465
7236.65239,0.05500
7234.72365,0.05691
7232.79490,0.05842
7230.86616,0.05770
7228.93741,0.05517
7227.00867,0.05150
7225.07992,0.04910
7223.15118,0.04975
7221.22243,0.05089
7219.29369,0.05158
7217.36494,0.05527
7215.43619,0.06017
7213.50745,0.06108
7211.57870,0.05790
7209.64996,0.05589
7207.72121,0.05847
7205.79247,0.06274
7203.86372,0.06498
7201.93498,0.06542
7200.00623,0.06506
7198.07749,0.06394
7196.14874,0.06200
7194.22000,0.05909
7192.29125,0.05630
7190.36251,0.05618
7188.43376,0.05665
7186.50501,0.05320
7184.57627,0.05017
7182.64752,0.05260
7180.71878,0.05518
7178.79003,0.05426
7176.86129,0.05294
7174.93254,0.05383
7173.00380,0.05601
7171.07505,0.05615
7169.14631,0.05317
7167.21756,0.05083
7165.28882,0.05108
7163.36007,0.05205
7161.43133,0.05264
7159.50258,0.05271
7157.57384,0.05276
7155.64509,0.05429
7153.71634,0.05660
7151.78760,0.05772
7149.85885,0.05756
7147.93011,0.05671
7146.00136,0.05514
7144.07262,0.05464
7142.14387,0.05546
7140.21513,0.05609
7138.28638,0.05655
7136.35764,0.05742
7134.42889,0.05884
7132.50015,0.05925
7130.57140,0.05676
7128.64266,0.05403
7126.71391,0.05322
7124.78516,0.05300
7122.85642,0.05290
7120.92767,0.05351
7118.99893,0.05307
7117.07018,0.05087
7115.14144,0.05040
7113.21269,0.05284
7111.28395,0.05629
7109.35520,0.05928
7107.42646,0.05977
7105.49771,0.05903
7103.56897,0.05909
7101.64022,0.05822
7099.71148,0.05708
7097.78273,0.05907
7095.85399,0.06238
7093.92524,0.06395
7091.99649,0.06433
7090.06775,0.06310
7088.13900,0.06029
7086.21026,0.05796
7084.28151,0.05598
7082.35277,0.05408
7080.42402,0.05366
7078.49528,0.05463
7076.56653,0.05538
7074.63779,0.05685
7072.70904,0.05941
7070.78030,0.06073
7068.85155,0.05980
7066.92281,0.05714
7064.99406,0.05556
7063.06532,0.05752
7061.13657,0.05992
7059.20782,0.06011
7057.27908,0.05863
7055.35033,0.05690
7053.42159,0.05784
7051.49284,0.06093
7049.56410,0.06076
7047.63535,0.05697
7045.70661,0.05397
7043.77786,0.05358
7041.84912,0.05411
7039.92037,0.05463
7037.99163,0.05564
7036.06288,0.05702
7034.13414,0.05684
7032.20539,0.05442
7030.27664,0.05198
7028.34790,0.05230
7026.41915,0.05547
7024.49041,0.05836
7022.56166,0.05878
7020.63292,0.05805
7018.70417,0.05743
7016.77543,0.05755
7014.84668,0.05747
7012.91794,0.05579
7010.98919,0.05485
7009.06045,0.05696
7007.13170,0.05857
7005.20296,0.05699
7003.27421,0.05640
7001.34547,0.05891
6999.41672,0.06186
6997.48797,0.06434
6995.55923,0.06405
6993.63048,0.05876
6991.70174,0.05309
6989.77299,0.05273
6987.84425,0.05541
6985.91550,0.05579
6983.98676,0.05452
6982.05801,0.05498
6980.12927,0.05769
6978.20052,0.06151
6976.27178,0.06382
6974.34303,0.06296
6972.41429,0.06098
6970.48554,0.05930
6968.55680,0.05730
6966.62805,0.05650
6964.69930,0.05703
6962.77056,0.05666
6960.84181,0.05613
6958.91307,0.05648
6956.98432,0.05591
6955.05558,0.05504
6953.12683,0.05565
6951.19809,0.05678
6949.26934,0.05702
6947.34060,0.05627
6945.41185,0.05549
6943.48311,0.05734
6941.55436,0.06028
6939.62562,0.06003
6937.69687,0.05854
6935.76812,0.05945
6933.83938,0.06105
6931.91063,0.06184
6929.98189,0.06183
6928.05314,0.06017
6926.12440,0.05740
6924.19565,0.05500
6922.26691,0.05339
6920.33816,0.05278
6918.40942,0.05314
6916.48067,0.05392
6914.55193,0.05436
6912.62318,0.05507
6910.69444,0.05719
6908.76569,0.05933
6906.83695,0.06019
6904.90820,0.06132
6902.97945,0.06254
6901.05071,0.06196
6899.12196,0.05976
6897.19322,0.05672
6895.26447,0.05482
6893.33573,0.05502
6891.40698,0.05435
6889.47824,0.05408
6887.54949,0.05616
6885.62075,0.05696
6883.69200,0.05492
6881.76326,0.05241
6879.83451,0.05015
6877.90577,0.04896
6875.97702,0.05045
6874.04828,0.05430
6872.11953,0.05809
6870.19078,0.05949
6868.26204,0.05849
6866.33329,0.05690
6864.40455,0.05580
6862.47580,0.05575
6860.54706,0.05635
6858.61831,0.05642
6856.68957,0.05665
6854.76082,0.05745
6852.83208,0.05603
6850.90333,0.05278
6848.97459,0.05186
6847.04584,0.05398
6845.11710,0.05639
6843.18835,0.05791
6841.25960,0.05843
6839.33086,0.05872
6837.40211,0.05864
6835.47337,0.05722
6833.54462,0.05542
6831.61588,0.05430
6829.68713,0.05408
6827.75839,0.05524
6825.82964,0.05582
6823.90090,0.05528
6821.97215,0.05660
6820.04341,0.05996
6818.11466,0.06218
6816.18592,0.06223
6814.25717,0.06131
6812.32843,0.05999
6810.39968,0.05833
6808.47093,0.05814
6806.54219,0.06005
6804.61344,0.06099
6802.68470,0.05966
6800.75595,0.05880
6798.82721,0.05915
6796.89846,0.05947
6794.96972,0.05970
6793.04097,0.05865
6791.11223,0.05737
6789.18348,0.05915
6787.25474,0.06053
6785.32599,0.05750
6783.39725,0.05420
6781.46850,0.05469
6779.53975,0.05634
6777.61101,0.05656
6775.68226,0.05704
6773.75352,0.05778
6771.82477,0.05655
6769.89603,0.05504
6767.96728,0.05531
6766.03854,0.05680
6764.10979,0.05874
6762.18105,0.05986
6760.25230,0.05913
6758.32356,0.05699
6756.39481,0.05474
6754.46607,0.05420
6752.53732,0.05570
6750.60858,0.05709
6748.67983,0.05711
6746.75108,0.05771
6744.82234,0.05963
6742.89359,0.06051
6740.96485,0.05898
6739.03610,0.05686
6737.10736,0.05691
6735.17861,0.05963
6733.24987,0.06210
6731.32112,0.06092
6729.39238,0.05694
6727.46363,0.05415
6725.53489,0.05384
6723.60614,0.05456
6721.67740,0.05502
6719.74865,0.05492
6717.81991,0.05425
6715.89116,0.05347
6713.96241,0.05337
6712.03367,0.05403
6710.10492,0.05557
6708.17618,0.05756
6706.24743,0.05794
6704.31869,0.05754
6702.38994,0.05860
6700.46120,0.06018
6698.53245,0.06139
6696.60371,0.06214
6694.67496,0.06146
6692.74622,0.05959
6690.81747,0.05711
6688.88873,0.05463
6686.95998,0.05389
6685.03123,0.05563
6683.10249,0.05871
6681.17374,0.06123
6679.24500,0.06098
6677.31625,0.05784
6675.38751,0.05484
6673.45876,0.05459
6671.53002,0.05627
6669.60127,0.05849
6667.67253,0.06034
6665.74378,0.06001
6663.81504,0.05790
6661.88629,0.05643
6659.95755,0.05577
6658.02880,0.05592
6656.10006,0.05740
6654.17131,0.05856
6652.24256,0.05754
6650.31382,0.05562
6648.38507,0.05471
6646.45633,0.05386
6644.52758,0.05283
6642.59884,0.05449
6640.67009,0.05739
6638.74135,0.05799
6636.81260,0.05732
6634.88386,0.05661
6632.95511,0.05457
6631.02637,0.05120
6629.09762,0.04973
6627.16888,0.05191
6625.24013,0.05421
6623.31139,0.05458
6621.38264,0.05489
6619.45389,0.05483
6617.52515,0.05350
6615.59640,0.05295
6613.66766,0.05318
6611.73891,0.05231
6609.81017,0.05180
6607.88142,0.05312
6605.95268,0.05456
6604.02393,0.05550
6602.09519,0.05677
6600.16644,0.05775
6598.23770,0.05752
6596.30895,0.05741
6594.38021,0.05813
6592.45146,0.05749
6590.52271,0.05538
6588.59397,0.05476
6586.66522,0.05580
6584.73648,0.05657
6582.80773,0.05642
6580.87899,0.05605
6578.95024,0.05587
6577.02150,0.05646
6575.09275,0.05830
6573.16401,0.05989
6571.23526,0.05929
6569.30652,0.05767
6567.37777,0.05694
6565.44903,0.05670
6563.52028,0.05667
6561.59154,0.05761
6559.66279,0.05883
6557.73404,0.05911
6555.80530,0.05859
6553.87655,0.05767
6551.94781,0.05621
6550.01906,0.05600
6548.09032,0.05821
6546.16157,0.06026
6544.23283,0.06083
6542.30408,0.06101
6540.37534,0.06000
6538.44659,0.05790
6536.51785,0.05712
6534.58910,0.05722
6532.66036,0.05592
6530.73161,0.05453
6528.80287,0.05488
6526.87412,0.05586
6524.94537,0.05614
6523.01663,0.05506
6521.08788,0.05244
6519.15914,0.05052
6517.23039,0.05201
6515.30165,0.05591
6513.37290,0.05829
6511.44416,0.05767
6509.51541,0.05630
6507.58667,0.05521
6505.65792,0.05443
6503.72918,0.05543
6501.80043,0.05789
6499.87169,0.06010
6497.94294,0.06098
6496.01419,0.05959
6494.08545,0.05645
6492.15670,0.05399
6490.22796,0.05365
6488.29921,0.05468
6486.37047,0.05675
6484.44172,0.05953
6482.51298,0.06012
6480.58423,0.05769
6478.65549,0.05553
6476.72674,0.05608
6474.79800,0.05825
6472.86925,0.05960
6470.94051,0.05970
6469.01176,0.05915
6467.08302,0.05729
6465.15427,0.05545
6463.22552,0.05561
6461.29678,0.05644
6459.36803,0.05630
6457.43929,0.05526
6455.51054,0.05478
6453.58180,0.05601
6451.65305,0.05711
6449.72431,0.05690
6447.79556,0.05786
6445.86682,0.05966
6443.93807,0.05921
6442.00933,0.05784
6440.08058,0.05789
6438.15184,0.05811
6436.22309,0.05704
6434.29434,0.05564
6432.36560,0.05548
6430.43685,0.05630
6428.50811,0.05686
6426.57936,0.05641
6424.65062,0.05509
6422.72187,0.05421
6420.79313,0.05497
6418.86438,0.05729
6416.93564,0.05872
6415.00689,0.05706
6413.07815,0.05412
6411.14940,0.05355
6409.22066,0.05528
6407.29191,0.05622
6405.36317,0.05661
6403.43442,0.05767
6401.50567,0.05794
6399.57693,0.05774
6397.64818,0.05801
6395.71944,0.05739
6393.79069,0.05613
6391.86195,0.05641
6389.93320,0.05711
6388.00446,0.05616
6386.07571,0.05577
6384.14697,0.05771
6382.21822,0.05946
6380.28948,0.05894
6378.36073,0.05780
6376.43199,0.05763
6374.50324,0.05721
6372.57450,0.05657
6370.64575,0.05707
6368.71700,0.05814
6366.78826,0.05943
6364.85951,0.06080
6362.93077,0.06036
6361.00202,0.05835
6359.07328,0.05711
6357.14453,0.05663
6355.21579,0.05601
6353.28704,0.05546
6351.35830,0.05570
6349.42955,0.05668
6347.50081,0.05753
6345.57206,0.05804
6343.64332,0.05762
6341.71457,0.05667
6339.78582,0.05713
6337.85708,0.05859
6335.92833,0.05887
6333.99959,0.05781
6332.07084,0.05679
6330.14210,0.05675
6328.21335,0.05701
6326.28461,0.05677
6324.35586,0.05679
6322.42712,0.05696
6320.49837,0.05613
6318.56963,0.05505
6316.64088,0.05515
6314.71214,0.05636
6312.78339,0.05719
6310.85465,0.05686
6308.92590,0.05680
6306.99715,0.05730
6305.06841,0.05632
6303.13966,0.05497
6301.21092,0.05634
6299.28217,0.05892
6297.35343,0.05905
6295.42468,0.05710
6293.49594,0.05652
6291.56719,0.05800
6289.63845,0.05872
6287.70970,0.05861
6285.78096,0.05931
6283.85221,0.05956
6281.92347,0.05868
6279.99472,0.05853
6278.06598,0.05916
6276.13723,0.05911
6274.20848,0.05833
6272.27974,0.05813
6270.35099,0.05868
6268.42225,0.05879
6266.49350,0.05799
6264.56476,0.05682
6262.63601,0.05543
6260.70727,0.05465
6258.77852,0.05510
6256.84978,0.05553
6254.92103,0.05580
6252.99229,0.05707
6251.06354,0.05826
6249.13480,0.05856
6247.20605,0.05880
6245.27730,0.05881
6243.34856,0.05839
6241.41981,0.05749
6239.49107,0.05572
6237.56232,0.05448
6235.63358,0.05506
6233.70483,0.05667
6231.77609,0.05808
6229.84734,0.05868
6227.91860,0.05856
6225.98985,0.05785
6224.06111,0.05691
6222.13236,0.05716
6220.20362,0.05841
6218.27487,0.05848
6216.34613,0.05691
6214.41738,0.05527
6212.48863,0.05561
6210.55989,0.05856
6208.63114,0.06151
6206.70240,0.06167
6204.77365,0.05921
6202.84491,0.05671
6200.91616,0.05578
6198.98742,0.05560
6197.05867,0.05586
6195.12993,0.05624
6193.20118,0.05573
6191.27244,0.05514
6189.34369,0.05505
6187.41495,0.05516
6185.48620,0.05577
6183.55746,0.05661
6181.62871,0.05762
6179.69996,0.05928
6177.77122,0.06034
6175.84247,0.05951
6173.91373,0.05827
6171.98498,0.05803
6170.05624,0.05816
6168.12749,0.05826
6166.19875,0.05824
6164.27000,0.05743
6162.34126,0.05642
6160.41251,0.05677
6158.48377,0.05784
6156.55502,0.05794
6154.62628,0.05734
6152.69753,0.05677
6150.76878,0.05563
6148.84004,0.05448
6146.91129,0.05513
6144.98255,0.05698
6143.05380,0.05758
6141.12506,0.05664
6139.19631,0.05609
6137.26757,0.05702
6135.33882,0.05829
6133.41008,0.05865
6131.48133,0.05868
6129.55259,0.05901
6127.62384,0.05860
6125.69510,0.05719
6123.76635,0.05637
6121.83761,0.05641
6119.90886,0.05614
6117.98011,0.05578
6116.05137,0.05643
6114.12262,0.05806
6112.19388,0.05935
6110.26513,0.05923
6108.33639,0.05778
6106.40764,0.05633
6104.47890,0.05645
6102.55015,0.05735
6100.62141,0.05737
6098.69266,0.05738
6096.76392,0.05807
6094.83517,0.05866
6092.90643,0.05943
6090.97768,0.06022
6089.04893,0.05930
6087.12019,0.05658
6085.19144,0.05495
6083.26270,0.05596
6081.33395,0.05796
6079.40521,0.06017
6077.47646,0.06154
6075.54772,0.06007
6073.61897,0.05729
6071.69023,0.05635
6069.76148,0.05704
6067.83274,0.05750
6065.90399,0.05774
6063.97525,0.05821
6062.04650,0.05822
6060.11776,0.05782
6058.18901,0.05743
6056.26026,0.05737
6054.33152,0.05779
6052.40277,0.05808
6050.47403,0.05792
6048.54528,0.05779
6046.61654,0.05824
6044.68779,0.05895
6042.75905,0.05870
6040.83030,0.05755
6038.90156,0.05681
6036.97281,0.05666
6035.04407,0.05707
6033.11532,0.05854
6031.18658,0.05952
6029.25783,0.05866
6027.32909,0.05789
6025.40034,0.05854
6023.47159,0.05936
6021.54285,0.05940
6019.61410,0.05920
6017.68536,0.05939
6015.75661,0.05919
6013.82787,0.05871
6011.89912,0.05954
6009.97038,0.06058
6008.04163,0.05987
6006.11289,0.05923
6004.18414,0.06038
6002.25540,0.06089
6000.32665,0.05872
5998.39791,0.05635
5996.46916,0.05659
5994.54041,0.05843
5992.61167,0.05900
5990.68292,0.05796
5988.75418,0.05724
5986.82543,0.05769
5984.89669,0.05864
5982.96794,0.05966
5981.03920,0.06046
5979.11045,0.06017
5977.18171,0.05912
5975.25296,0.05898
5973.32422,0.05963
5971.39547,0.05975
5969.46673,0.05899
5967.53798,0.05837
5965.60924,0.05884
5963.68049,0.05959
5961.75174,0.05996
5959.82300,0.06023
5957.89425,0.05996
5955.96551,0.05939
5954.03676,0.05921
5952.10802,0.05929
5950.17927,0.06001
5948.25053,0.06145
5946.32178,0.06219
5944.39304,0.06093
5942.46429,0.05771
5940.53555,0.05508
5938.60680,0.05504
5936.67806,0.05664
5934.74931,0.05884
5932.82057,0.06044
5930.89182,0.06058
5928.96307,0.06003
5927.03433,0.05886
5925.10558,0.05777
5923.17684,0.05838
5921.24809,0.05979
5919.31935,0.05977
5917.39060,0.05839
5915.46186,0.05749
5913.53311,0.05801
5911.60437,0.05913
5909.67562,0.06005
5907.74688,0.06060
5905.81813,0.06024
5903.88939,0.05896
5901.96064,0.05796
5900.03189,0.05773
5898.10315,0.05812
5896.17440,0.05924
5894.24566,0.06017
5892.31691,0.05970
5890.38817,0.05836
5888.45942,0.05816
5886.53068,0.05926
5884.60193,0.05906
5882.67319,0.05776
5880.74444,0.05806
5878.81570,0.05975
5876.88695,0.06129
5874.95821,0.06172
5873.02946,0.06092
5871.10072,0.06025
5869.17197,0.06027
5867.24322,0.06026
5865.31448,0.05988
5863.38573,0.05955
5861.45699,0.05891
5859.52824,0.05737
5857.59950,0.05598
5855.67075,0.05616
5853.74201,0.05778
5851.81326,0.05970
5849.88452,0.06106
5847.95577,0.06156
5846.02703,0.06132
5844.09828,0.06098
5842.16954,0.06087
5840.24079,0.06074
5838.31205,0.06048
5836.38330,0.06032
5834.45455,0.06086
5832.52581,0.06198
5830.59706,0.06209
5828.66832,0.06074
5826.73957,0.05993
5824.81083,0.06059
5822.88208,0.06084
5820.95334,0.05926
5819.02459,0.05734
5817.09585,0.05732
5815.16710,0.05895
5813.23836,0.06030
5811.30961,0.06026
5809.38087,0.05909
5807.45212,0.05811
5805.52337,0.05888
5803.59463,0.06061
5801.66588,0.06076
5799.73714,0.05960
5797.80839,0.05950
5795.87965,0.06013
5793.95090,0.05989
5792.02216,0.05974
5790.09341,0.06073
5788.16467,0.06126
5786.23592,0.06040
5784.30718,0.05950
5782.37843,0.05968
5780.44969,0.06021
5778.52094,0.05963
5776.59220,0.05831
5774.66345,0.05815
5772.73470,0.05968
5770.80596,0.06095
5768.87721,0.06038
5766.94847,0.05934
5765.01972,0.05953
5763.09098,0.06024
5761.16223,0.06054
5759.23349,0.06069
5757.30474,0.06055
5755.37600,0.06029
5753.44725,0.06060
5751.51851,0.06076
5749.58976,0.05998
5747.66102,0.05925
5745.73227,0.05942
5743.80352,0.05953
5741.87478,0.05929
5739.94603,0.06012
5738.01729,0.06153
5736.08854,0.06169
5734.15980,0.06079
5732.23105,0.06014
5730.30231,0.06028
5728.37356,0.06032
5726.44482,0.05987
5724.51607,0.05985
5722.58733,0.06037
5720.65858,0.06063
5718.72984,0.06002
5716.80109,0.05940
5714.87235,0.05978
5712.94360,0.06000
5711.01485,0.05925
5709.08611,0.05851
5707.15736,0.05810
5705.22862,0.05805
5703.29987,0.05853
5701.37113,0.05905
5699.44238,0.05941
5697.51364,0.05988
5695.58489,0.06008
5693.65615,0.06010
5691.72740,0.06060
5689.79866,0.06104
5687.86991,0.06119
5685.94117,0.06165
5684.01242,0.06167
5682.08368,0.06088
5680.15493,0.06044
5678.22618,0.06053
5676.29744,0.06073
5674.36869,0.06160
5672.43995,0.06286
5670.51120,0.06326
5668.58246,0.06268
5666.65371,0.06197
5664.72497,0.06124
5662.79622,0.06048
5660.86748,0.05999
5658.93873,0.05991
5657.00999,0.06038
5655.08124,0.06112
5653.15250,0.06137
5651.22375,0.06094
5649.29500,0.06003
5647.36626,0.05933
5645.43751,0.05969
5643.50877,0.06067
5641.58002,0.06128
5639.65128,0.06132
5637.72253,0.06112
5635.79379,0.06104
5633.86504,0.06114
5631.93630,0.06110
5630.00755,0.06098
5628.07881,0.06123
5626.15006,0.06147
5624.22132,0.06122
5622.29257,0.06089
5620.36383,0.06057
5618.43508,0.06015
5616.50633,0.06015
5614.57759,0.06079
5612.64884,0.06151
5610.72010,0.06155
5608.79135,0.06089
5606.86261,0.06032
5604.93386,0.06048
5603.00512,0.06084
5601.07637,0.06088
5599.14763,0.06088
5597.21888,0.06068
5595.29014,0.05991
5593.36139,0.05931
5591.43265,0.05944
5589.50390,0.06003
5587.57516,0.06075
5585.64641,0.06143
5583.71766,0.06171
5581.78892,0.06166
5579.86017,0.06176
5577.93143,0.06225
5576.00268,0.06244
5574.07394,0.06185
5572.14519,0.06159
5570.21645,0.06218
5568.28770,0.06256
5566.35896,0.06253
5564.43021,0.06246
5562.50147,0.06189
5560.57272,0.06087
5558.64398,0.06057
5556.71523,0.06103
5554.78648,0.06071
5552.85774,0.05976
5550.92899,0.06000
5549.00025,0.06141
5547.07150,0.06224
5545.14276,0.06207
5543.21401,0.06195
5541.28527,0.06236
5539.35652,0.06272
5537.42778,0.06232
5535.49903,0.06160
5533.57029,0.06146
5531.64154,0.06191
5529.71280,0.06253
5527.78405,0.06285
5525.85531,0.06240
5523.92656,0.06149
5521.99781,0.06121
5520.06907,0.06184
5518.14032,0.06263
5516.21158,0.06284
5514.28283,0.06214
5512.35409,0.06112
5510.42534,0.06075
5508.49660,0.06107
5506.56785,0.06143
5504.63911,0.06178
5502.71036,0.06227
5500.78162,0.06231
5498.85287,0.06181
5496.92413,0.06159
5494.99538,0.06196
5493.06664,0.06230
5491.13789,0.06198
5489.20914,0.06122
5487.28040,0.06103
5485.35165,0.06197
5483.42291,0.06315
5481.49416,0.06346
5479.56542,0.06251
5477.63667,0.06110
5475.70793,0.06063
5473.77918,0.06118
5471.85044,0.06158
5469.92169,0.06160
5467.99295,0.06150
5466.06420,0.06096
5464.13546,0.06043
5462.20671,0.06083
5460.27796,0.06156
5458.34922,0.06163
5456.42047,0.06149
5454.49173,0.06175
5452.56298,0.06234
5450.63424,0.06301
5448.70549,0.06354
5446.77675,0.06419
5444.84800,0.06440
5442.91926,0.06305
5440.99051,0.06176
5439.06177,0.06231
5437.13302,0.06295
5435.20428,0.06217
5433.27553,0.06127
5431.34679,0.06169
5429.41804,0.06293
5427.48929,0.06336
5425.56055,0.06277
5423.63180,0.06216
5421.70306,0.06175
5419.77431,0.06168
5417.84557,0.06223
5415.91682,0.06274
5413.98808,0.06280
5412.05933,0.06302
5410.13059,0.06348
5408.20184,0.06349
5406.27310,0.06273
5404.34435,0.06178
5402.41561,0.06161
5400.48686,0.06224
5398.55811,0.06263
5396.62937,0.06263
5394.70062,0.06293
5392.77188,0.06352
5390.84313,0.06357
5388.91439,0.06293
5386.98564,0.06229
5385.05690,0.06187
5383.12815,0.06163
5381.19941,0.06194
5379.27066,0.06262
5377.34192,0.06309
5375.41317,0.06301
5373.48443,0.06252
5371.55568,0.06194
5369.62694,0.06123
5367.69819,0.06071
5365.76944,0.06074
5363.84070,0.06085
5361.91195,0.06088
5359.98321,0.06099
5358.05446,0.06116
5356.12572,0.06168
5354.19697,0.06256
5352.26823,0.06339
5350.33948,0.06384
5348.41074,0.06373
5346.48199,0.06335
5344.55325,0.06306
5342.62450,0.06292
5340.69576,0.06295
5338.76701,0.06306
5336.83827,0.06295
5334.90952,0.06247
5332.98077,0.06216
5331.05203,0.06254
5329.12328,0.06328
5327.19454,0.06361
5325.26579,0.06315
5323.33705,0.06246
5321.40830,0.06267
5319.47956,0.06353
5317.55081,0.06381
5315.62207,0.06336
5313.69332,0.06298
5311.76458,0.06293
5309.83583,0.06276
5307.90709,0.06274
5305.97834,0.06339
5304.04959,0.06371
5302.12085,0.06272
5300.19210,0.06169
5298.26336,0.06211
5296.33461,0.06320
5294.40587,0.06335
5292.47712,0.06272
5290.54838,0.06245
5288.61963,0.06261
5286.69089,0.06273
5284.76214,0.06275
5282.83340,0.06275
5280.90465,0.06266
5278.97591,0.06253
5277.04716,0.06255
5275.11842,0.06251
5273.18967,0.06212
5271.26092,0.06190
5269.33218,0.06238
5267.40343,0.06297
5265.47469,0.06318
5263.54594,0.06344
5261.61720,0.06360
5259.68845,0.06289
5257.75971,0.06186
5255.83096,0.06146
5253.90222,0.06189
5251.97347,0.06302
5250.04473,0.06379
5248.11598,0.06321
5246.18724,0.06214
5244.25849,0.06159
5242.32975,0.06173
5240.40100,0.06251
5238.47225,0.06346
5236.54351,0.06389
5234.61476,0.06338
5232.68602,0.06245
5230.75727,0.06232
5228.82853,0.06315
5226.89978,0.06389
5224.97104,0.06406
5223.04229,0.06410
5221.11355,0.06382
5219.18480,0.06326
5217.25606,0.06319
5215.32731,0.06318
5213.39857,0.06275
5211.46982,0.06257
5209.54107,0.06295
5207.61233,0.06386
5205.68358,0.06459
5203.75484,0.06395
5201.82609,0.06270
5199.89735,0.06251
5197.96860,0.06326
5196.03986,0.06374
5194.11111,0.06364
5192.18237,0.06344
5190.25362,0.06358
5188.32488,0.06370
5186.39613,0.06326
5184.46739,0.06286
5182.53864,0.06298
5180.60990,0.06333
5178.68115,0.06387
5176.75240,0.06449
5174.82366,0.06479
5172.89491,0.06449
5170.96617,0.06385
5169.03742,0.06379
5167.10868,0.06445
5165.17993,0.06475
5163.25119,0.06446
5161.32244,0.06454
5159.39370,0.06489
5157.46495,0.06438
5155.53621,0.06320
5153.60746,0.06240
5151.67872,0.06224
5149.74997,0.06249
5147.82123,0.06255
5145.89248,0.06226
5143.96373,0.06240
5142.03499,0.06304
5140.10624,0.06357
5138.17750,0.06406
5136.24875,0.06461
5134.32001,0.06492
5132.39126,0.06487
5130.46252,0.06464
5128.53377,0.06413
5126.60503,0.06360
5124.67628,0.06348
5122.74754,0.06344
5120.81879,0.06309
5118.89005,0.06264
5116.96130,0.06257
5115.03255,0.06296
5113.10381,0.06335
5111.17506,0.06365
5109.24632,0.06390
5107.31757,0.06386
5105.38883,0.06354
5103.46008,0.06296
5101.53134,0.06240
5099.60259,0.06263
5097.67385,0.06344
5095.74510,0.06381
5093.81636,0.06381
5091.88761,0.06388
5089.95887,0.06359
5088.03012,0.06318
5086.10138,0.06348
5084.17263,0.06400
5082.24388,0.06392
5080.31514,0.06369
5078.38639,0.06387
5076.45765,0.06408
5074.52890,0.06385
5072.60016,0.06365
5070.67141,0.06388
5068.74267,0.06398
5066.81392,0.06344
5064.88518,0.06271
5062.95643,0.06243
5061.02769,0.06277
5059.09894,0.06357
5057.17020,0.06453
5055.24145,0.06494
5053.31270,0.06449
5051.38396,0.06403
5049.45521,0.06389
5047.52647,0.06376
5045.59772,0.06394
5043.66898,0.06426
5041.74023,0.06427
5039.81149,0.06417
5037.88274,0.06387
5035.95400,0.06325
5034.02525,0.06292
5032.09651,0.06282
5030.16776,0.06268
5028.23902,0.06290
5026.31027,0.06330
5024.38153,0.06318
5022.45278,0.06302
5020.52403,0.06378
5018.59529,0.06490
5016.66654,0.06497
5014.73780,0.06393
5012.80905,0.06280
5010.88031,0.06229
5008.95156,0.06260
5007.02282,0.06352
5005.09407,0.06447
5003.16533,0.06489
5001.23658,0.06474
4999.30784,0.06448
4997.37909,0.06452
4995.45035,0.06446
4993.52160,0.06379
4991.59286,0.06330
4989.66411,0.06366
4987.73536,0.06406
4985.80662,0.06407
4983.87787,0.06417
4981.94913,0.06448
4980.02038,0.06447
4978.09164,0.06398
4976.16289,0.06356
4974.23415,0.06318
4972.30540,0.06280
4970.37666,0.06301
4968.44791,0.06342
4966.51917,0.06330
4964.59042,0.06320
4962.66168,0.06363
4960.73293,0.06412
4958.80418,0.06429
4956.87544,0.06433
4954.94669,0.06476
4953.01795,0.06554
4951.08920,0.06575
4949.16046,0.06544
4947.23171,0.06558
4945.30297,0.06601
4943.37422,0.06597
4941.44548,0.06555
4939.51673,0.06499
4937.58799,0.06428
4935.65924,0.06390
4933.73050,0.06429
4931.80175,0.06483
4929.87301,0.06497
4927.94426,0.06486
4926.01551,0.06454
4924.08677,0.06429
4922.15802,0.06437
4920.22928,0.06466
4918.30053,0.06513
4916.37179,0.06554
4914.44304,0.06564
4912.51430,0.06582
4910.58555,0.06592
4908.65681,0.06563
4906.72806,0.06533
4904.79932,0.06503
4902.87057,0.06450
4900.94183,0.06426
4899.01308,0.06463
4897.08434,0.06492
4895.15559,0.06488
4893.22684,0.06502
4891.29810,0.06539
4889.36935,0.06559
4887.44061,0.06545
4885.51186,0.06521
4883.58312,0.06515
4881.65437,0.06509
4879.72563,0.06491
4877.79688,0.06488
4875.86814,0.06523
4873.93939,0.06569
4872.01065,0.06588
4870.08190,0.06540
4868.15316,0.06432
4866.22441,0.06374
4864.29566,0.06427
4862.36692,0.06514
4860.43817,0.06551
4858.50943,0.06529
4856.58068,0.06513
4854.65194,0.06562
4852.72319,0.06630
4850.79445,0.06617
4848.86570,0.06544
4846.93696,0.06513
4845.00821,0.06545
4843.07947,0.06584
4841.15072,0.06585
4839.22198,0.06565
4837.29323,0.06560
4835.36449,0.06574
4833.43574,0.06596
4831.50699,0.06612
4829.57825,0.06619
4827.64950,0.06632
4825.72076,0.06624
4823.79201,0.06565
4821.86327,0.06492
4819.93452,0.06453
4818.00578,0.06436
4816.07703,0.06437
4814.14829,0.06467
4812.21954,0.06485
4810.29080,0.06483
4808.36205,0.06514
4806.43331,0.06561
4804.50456,0.06585
4802.57582,0.06597
4800.64707,0.06602
4798.71832,0.06590
4796.78958,0.06574
4794.86083,0.06558
4792.93209,0.06569
4791.00334,0.06636
4789.07460,0.06695
4787.14585,0.06693
4785.21711,0.06671
4783.28836,0.06639
4781.35962,0.06593
4779.43087,0.06582
4777.50213,0.06603
4775.57338,0.06614
4773.64464,0.06607
4771.71589,0.06595
4769.78714,0.06588
4767.85840,0.06599
4765.92965,0.06599
4764.00091,0.06588
4762.07216,0.06611
4760.14342,0.06618
4758.21467,0.06579
4756.28593,0.06574
4754.35718,0.06601
4752.42844,0.06611
4750.49969,0.06623
4748.57095,0.06645
4746.64220,0.06667
4744.71346,0.06691
4742.78471,0.06698
4740.85597,0.06698
4738.92722,0.06693
4736.99847,0.06663
4735.06973,0.06633
4733.14098,0.06608
4731.21224,0.06571
4729.28349,0.06561
4727.35475,0.06587
4725.42600,0.06573
4723.49726,0.06493
4721.56851,0.06436
4719.63977,0.06476
4717.71102,0.06561
4715.78228,0.06589
4713.85353,0.06561
4711.92479,0.06535
4709.99604,0.06547
4708.06729,0.06621
4706.13855,0.06683
4704.20980,0.06636
4702.28106,0.06551
4700.35231,0.06536
4698.42357,0.06562
4696.49482,0.06575
4694.56608,0.06601
4692.63733,0.06641
4690.70859,0.06641
4688.77984,0.06598
4686.85110,0.06595
4684.92235,0.06654
4682.99361,0.06704
4681.06486,0.06689
4679.13612,0.06622
4677.20737,0.06576
4675.27862,0.06587
4673.34988,0.06588
4671.42113,0.06580
4669.49239,0.06628
4667.56364,0.06687
4665.63490,0.06684
4663.70615,0.06665
4661.77741,0.06689
4659.84866,0.06715
4657.91992,0.06690
4655.99117,0.06657
4654.06243,0.06673
4652.13368,0.06706
4650.20494,0.06686
4648.27619,0.06621
4646.34745,0.06572
4644.41870,0.06569
4642.48995,0.06607
4640.56121,0.06640
4638.63246,0.06612
4636.70372,0.06558
4634.77497,0.06546
4632.84623,0.06569
4630.91748,0.06600
4628.98874,0.06633
4627.05999,0.06642
4625.13125,0.06613
4623.20250,0.06591
4621.27376,0.06609
4619.34501,0.06623
4617.41627,0.06595
4615.48752,0.06564
4613.55877,0.06563
4611.63003,0.06576
4609.70128,0.06588
4607.77254,0.06588
4605.84379,0.06585
4603.91505,0.06604
4601.98630,0.06652
4600.05756,0.06713
4598.12881,0.06743
4596.20007,0.06721
4594.27132,0.06672
4592.34258,0.06616
4590.41383,0.06588
4588.48509,0.06611
4586.55634,0.06649
4584.62760,0.06672
4582.69885,0.06682
4580.77010,0.06673
4578.84136,0.06657
4576.91261,0.06639
4574.98387,0.06603
4573.05512,0.06571
4571.12638,0.06580
4569.19763,0.06613
4567.26889,0.06631
4565.34014,0.06613
4563.41140,0.06563
4561.48265,0.06534
4559.55391,0.06556
4557.62516,0.06578
4555.69642,0.06560
4553.76767,0.06555
4551.83893,0.06578
4549.91018,0.06561
4547.98143,0.06544
4546.05269,0.06588
4544.12394,0.06652
4542.19520,0.06687
4540.26645,0.06680
4538.33771,0.06653
4536.40896,0.06632
4534.48022,0.06610
4532.55147,0.06609
4530.62273,0.06654
4528.69398,0.06676
4526.76524,0.06642
4524.83649,0.06609
4522.90775,0.06590
4520.97900,0.06577
4519.05025,0.06596
4517.12151,0.06595
4515.19276,0.06539
4513.26402,0.06524
4511.33527,0.06568
4509.40653,0.06567
4507.47778,0.06513
4505.54904,0.06455
4503.62029,0.06414
4501.69155,0.06428
4499.76280,0.06486
4497.83406,0.06528
4495.90531,0.06538
4493.97657,0.06539
4492.04782,0.06519
4490.11908,0.06469
4488.19033,0.06424
4486.26158,0.06421
4484.33284,0.06445
4482.40409,0.06458
4480.47535,0.06467
4478.54660,0.06495
4476.61786,0.06498
4474.68911,0.06455
4472.76037,0.06421
4470.83162,0.06421
4468.90288,0.06420
4466.97413,0.06397
4465.04539,0.06369
4463.11664,0.06356
4461.18790,0.06352
4459.25915,0.06340
4457.33041,0.06336
4455.40166,0.06330
4453.47291,0.06291
4451.54417,0.06249
4449.61542,0.06247
4447.68668,0.06245
4445.75793,0.06219
4443.82919,0.06223
4441.90044,0.06225
4439.97170,0.06187
4438.04295,0.06188
4436.11421,0.06225
4434.18546,0.06228
4432.25672,0.06222
4430.32797,0.06238
4428.39923,0.06246
4426.47048,0.06224
4424.54173,0.06199
4422.61299,0.06201
4420.68424,0.06204
4418.75550,0.06174
4416.82675,0.06163
4414.89801,0.06211
4412.96926,0.06251
4411.04052,0.06234
4409.11177,0.06211
4407.18303,0.06239
4405.25428,0.06298
4403.32554,0.06319
4401.39679,0.06290
4399.46805,0.06275
4397.53930,0.06297
4395.61056,0.06311
4393.68181,0.06294
4391.75306,0.06266
4389.82432,0.06242
4387.89557,0.06226
4385.96683,0.06231
4384.03808,0.06249
4382.10934,0.06257
4380.18059,0.06270
4378.25185,0.06292
4376.32310,0.06271
4374.39436,0.06202
4372.46561,0.06167
4370.53687,0.06196
4368.60812,0.06207
4366.67938,0.06142
4364.75063,0.06074
4362.82189,0.06076
4360.89314,0.06126
4358.96439,0.06171
4357.03565,0.06176
4355.10690,0.06146
4353.17816,0.06119
4351.24941,0.06111
4349.32067,0.06083
4347.39192,0.06042
4345.46318,0.06058
4343.53443,0.06117
4341.60569,0.06119
4339.67694,0.06042
4337.74820,0.05965
4335.81945,0.05952
4333.89071,0.05971
4331.96196,0.05961
4330.03321,0.05926
4328.10447,0.05901
4326.17572,0.05908
4324.24698,0.05949
4322.31823,0.05968
4320.38949,0.05937
4318.46074,0.05904
4316.53200,0.05876
4314.60325,0.05832
4312.67451,0.05804
4310.74576,0.05805
4308.81702,0.05823
4306.88827,0.05860
4304.95953,0.05885
4303.03078,0.05886
4301.10204,0.05896
4299.17329,0.05904
4297.24454,0.05889
4295.31580,0.05851
4293.38705,0.05806
4291.45831,0.05782
4289.52956,0.05772
4287.60082,0.05733
4285.67207,0.05679
4283.74333,0.05672
4281.81458,0.05703
4279.88584,0.05718
4277.95709,0.05689
4276.02835,0.05654
4274.09960,0.05667
4272.17086,0.05707
4270.24211,0.05725
4268.31336,0.05721
4266.38462,0.05699
4264.45587,0.05689
4262.52713,0.05736
4260.59838,0.05813
4258.66964,0.05841
4256.74089,0.05822
4254.81215,0.05832
4252.88340,0.05870
4250.95466,0.05876
4249.02591,0.05868
4247.09717,0.05867
4245.16842,0.05876
4243.23968,0.05924
4241.31093,0.05984
4239.38219,0.06002
4237.45344,0.06009
4235.52469,0.06032
4233.59595,0.06044
4231.66720,0.06044
4229.73846,0.06065
4227.80971,0.06113
4225.88097,0.06160
4223.95222,0.06179
4222.02348,0.06173
4220.09473,0.06173
4218.16599,0.06175
4216.23724,0.06175
4214.30850,0.06196
4212.37975,0.06242
4210.45101,0.06275
4208.52226,0.06282
4206.59352,0.06281
4204.66477,0.06265
4202.73602,0.06239
4200.80728,0.06234
4198.87853,0.06235
4196.94979,0.06226
4195.02104,0.06236
4193.09230,0.06257
4191.16355,0.06263
4189.23481,0.06261
4187.30606,0.06242
4185.37732,0.06220
4183.44857,0.06241
4181.51983,0.06283
4179.59108,0.06287
4177.66234,0.06240
4175.73359,0.06177
4173.80484,0.06162
4171.87610,0.06219
4169.94735,0.06283
4168.01861,0.06298
4166.08986,0.06288
4164.16112,0.06297
4162.23237,0.06332
4160.30363,0.06359
4158.37488,0.06361
4156.44614,0.06353
4154.51739,0.06350
4152.58865,0.06352
4150.65990,0.06353
4148.73116,0.06366
4146.80241,0.06405
4144.87367,0.06452
4142.94492,0.06461
4141.01617,0.06427
4139.08743,0.06406
4137.15868,0.06404
4135.22994,0.06393
4133.30119,0.06397
4131.37245,0.06421
4129.44370,0.06431
4127.51496,0.06420
4125.58621,0.06397
4123.65747,0.06368
4121.72872,0.06358
4119.79998,0.06377
4117.87123,0.06387
4115.94249,0.06373
4114.01374,0.06363
4112.08500,0.06378
4110.15625,0.06397
4108.22750,0.06414
4106.29876,0.06436
4104.37001,0.06426
4102.44127,0.06376
4100.51252,0.06341
4098.58378,0.06342
4096.65503,0.06351
4094.72629,0.06350
4092.79754,0.06344
4090.86880,0.06344
4088.94005,0.06346
4087.01131,0.06346
4085.08256,0.06353
4083.15382,0.06358
4081.22507,0.06338
4079.29632,0.06306
4077.36758,0.06301
4075.43883,0.06335
4073.51009,0.06359
4071.58134,0.06341
4069.65260,0.06317
4067.72385,0.06299
4065.79511,0.06271
4063.86636,0.06261
4061.93762,0.06297
4060.00887,0.06345
4058.08013,0.06348
4056.15138,0.06306
4054.22264,0.06266
4052.29389,0.06257
4050.36515,0.06268
4048.43640,0.06264
4046.50765,0.06242
4044.57891,0.06238
4042.65016,0.06252
4040.72142,0.06249
4038.79267,0.06232
4036.86393,0.06240
4034.93518,0.06268
4033.00644,0.06276
4031.07769,0.06262
4029.14895,0.06259
4027.22020,0.06275
4025.29146,0.06295
4023.36271,0.06300
4021.43397,0.06273
4019.50522,0.06232
4017.57648,0.06226
4015.64773,0.06253
4013.71898,0.06263
4011.79024,0.06236
4009.86149,0.06222
4007.93275,0.06263
4006.00400,0.06300
4004.07526,0.06283
4002.14651,0.06253
4000.21777,0.06229
3998.28902,0.06203
3996.36028,0.06199
3994.43153,0.06222
3992.50279,0.06247
3990.57404,0.06253
3988.64530,0.06234
3986.71655,0.06215
3984.78780,0.06218
3982.85906,0.06227
3980.93031,0.06232
3979.00157,0.06235
3977.07282,0.06216
3975.14408,0.06186
3973.21533,0.06180
3971.28659,0.06215
3969.35784,0.06255
3967.42910,0.06254
3965.50035,0.06220
3963.57161,0.06193
3961.64286,0.06183
3959.71412,0.06172
3957.78537,0.06157
3955.85663,0.06155
3953.92788,0.06168
3951.99913,0.06188
3950.07039,0.06211
3948.14164,0.06226
3946.21290,0.06223
3944.28415,0.06206
3942.35541,0.06204
3940.42666,0.06235
3938.49792,0.06259
3936.56917,0.06250
3934.64043,0.06230
3932.71168,0.06209
3930.78294,0.06183
3928.85419,0.06174
3926.92545,0.06188
3924.99670,0.06193
3923.06795,0.06187
3921.13921,0.06180
3919.21046,0.06172
3917.28172,0.06176
3915.35297,0.06197
3913.42423,0.06222
3911.49548,0.06247
3909.56674,0.06244
3907.63799,0.06217
3905.70925,0.06201
3903.78050,0.06203
3901.85176,0.06205
3899.92301,0.06203
3897.99427,0.06213
3896.06552,0.06223
3894.13678,0.06198
3892.20803,0.06150
3890.27928,0.06139
3888.35054,0.06185
3886.42179,0.06237
3884.49305,0.06258
3882.56430,0.06242
3880.63556,0.06215
3878.70681,0.06192
3876.77807,0.06169
3874.84932,0.06153
3872.92058,0.06146
3870.99183,0.06164
3869.06309,0.06209
3867.13434,0.06232
3865.20560,0.06225
3863.27685,0.06223
3861.34811,0.06235
3859.41936,0.06253
3857.49061,0.06263
3855.56187,0.06251
3853.63312,0.06243
3851.70438,0.06262
3849.77563,0.06266
3847.84689,0.06244
3845.91814,0.06223
3843.98940,0.06214
3842.06065,0.06222
3840.13191,0.06252
3838.20316,0.06285
3836.27442,0.06288
3834.34567,0.06268
3832.41693,0.06252
3830.48818,0.06242
3828.55943,0.06226
3826.63069,0.06216
3824.70194,0.06220
3822.77320,0.06229
3820.84445,0.06231
3818.91571,0.06227
3816.98696,0.06227
3815.05822,0.06234
3813.12947,0.06230
3811.20073,0.06212
3809.27198,0.06197
3807.34324,0.06205
3805.41449,0.06230
3803.48575,0.06237
3801.55700,0.06227
3799.62826,0.06234
3797.69951,0.06239
3795.77076,0.06222
3793.84202,0.06215
3791.91327,0.06222
3789.98453,0.06217
3788.05578,0.06212
3786.12704,0.06220
3784.19829,0.06230
3782.26955,0.06242
3780.34080,0.06262
3778.41206,0.06260
3776.48331,0.06224
3774.55457,0.06198
3772.62582,0.06205
3770.69708,0.06218
3768.76833,0.06234
3766.83959,0.06240
3764.91084,0.06209
3762.98209,0.06173
3761.05335,0.06160
3759.12460,0.06148
3757.19586,0.06148
3755.26711,0.06187
3753.33837,0.06235
3751.40962,0.06245
3749.48088,0.06219
3747.55213,0.06188
3745.62339,0.06151
3743.69464,0.06115
3741.76590,0.06114
3739.83715,0.06131
3737.90841,0.06128
3735.97966,0.06106
3734.05091,0.06091
3732.12217,0.06083
3730.19342,0.06064
3728.26468,0.06036
3726.33593,0.05996
3724.40719,0.05951
3722.47844,0.05912
3720.54970,0.05867
3718.62095,0.05830
3716.69221,0.05814
3714.76346,0.05768
3712.83472,0.05682
3710.90597,0.05595
3708.97723,0.05512
3707.04848,0.05433
3705.11974,0.05358
3703.19099,0.05270
3701.26224,0.05173
3699.33350,0.05099
3697.40475,0.05058
3695.47601,0.05016
3693.54726,0.04959
3691.61852,0.04918
3689.68977,0.04871
3687.76103,0.04781
3685.83228,0.04694
3683.90354,0.04652
3681.97479,0.04630
3680.04605,0.04604
3678.11730,0.04579
3676.18856,0.04525
3674.25981,0.04446
3672.33107,0.04421
3670.40232,0.04452
3668.47357,0.04477
3666.54483,0.04464
3664.61608,0.04422
3662.68734,0.04393
3660.75859,0.04383
3658.82985,0.04360
3656.90110,0.04341
3654.97236,0.04346
3653.04361,0.04357
3651.11487,0.04366
3649.18612,0.04376
3647.25738,0.04372
3645.32863,0.04349
3643.39989,0.04331
3641.47114,0.04330
3639.54239,0.04332
3637.61365,0.04330
3635.68490,0.04324
3633.75616,0.04318
3631.82741,0.04306
3629.89867,0.04265
3627.96992,0.04198
3626.04118,0.04169
3624.11243,0.04182
3622.18369,0.04182
3620.25494,0.04168
3618.32620,0.04182
3616.39745,0.04231
3614.46871,0.04272
3612.53996,0.04246
3610.61122,0.04181
3608.68247,0.04165
3606.75372,0.04193
3604.82498,0.04192
3602.89623,0.04161
3600.96749,0.04151
3599.03874,0.04162
3597.11000,0.04164
3595.18125,0.04148
3593.25251,0.04112
3591.32376,0.04076
3589.39502,0.04072
3587.46627,0.04089
3585.53753,0.04094
3583.60878,0.04080
3581.68004,0.04054
3579.75129,0.04012
3577.82254,0.03983
3575.89380,0.03993
3573.96505,0.04002
3572.03631,0.03989
3570.10756,0.03983
3568.17882,0.03980
3566.25007,0.03942
3564.32133,0.03915
3562.39258,0.03951
3560.46384,0.03998
3558.53509,0.04003
3556.60635,0.03983
3554.67760,0.03963
3552.74886,0.03944
3550.82011,0.03938
3548.89137,0.03951
3546.96262,0.03952
3545.03387,0.03932
3543.10513,0.03924
3541.17638,0.03945
3539.24764,0.03966
3537.31889,0.03947
3535.39015,0.03898
3533.46140,0.03881
3531.53266,0.03919
3529.60391,0.03963
3527.67517,0.03972
3525.74642,0.03954
3523.81768,0.03933
3521.88893,0.03927
3519.96019,0.03932
3518.03144,0.03923
3516.10270,0.03909
3514.17395,0.03915
3512.24520,0.03924
3510.31646,0.03913
3508.38771,0.03893
3506.45897,0.03874
3504.53022,0.03869
3502.60148,0.03887
3500.67273,0.03908
3498.74399,0.03926
3496.81524,0.03945
3494.88650,0.03928
3492.95775,0.03868
3491.02901,0.03828
3489.10026,0.03828
3487.17152,0.03848
3485.24277,0.03874
3483.31402,0.03885
3481.38528,0.03897
3479.45653,0.03935
3477.52779,0.03977
3475.59904,0.03980
3473.67030,0.03929
3471.74155,0.03860
3469.81281,0.03847
3467.88406,0.03897
3465.95532,0.03926
3464.02657,0.03911
3462.09783,0.03902
3460.16908,0.03911
3458.24034,0.03917
3456.31159,0.03917
3454.38285,0.03901
3452.45410,0.03870
3450.52535,0.03841
3448.59661,0.03829
3446.66786,0.03833
3444.73912,0.03833
3442.81037,0.03818
3440.88163,0.03814
3438.95288,0.03831
3437.02414,0.03841
3435.09539,0.03819
3433.16665,0.03785
3431.23790,0.03777
3429.30916,0.03800
3427.38041,0.03823
3425.45167,0.03825
3423.52292,0.03819
3421.59418,0.03825
3419.66543,0.03828
3417.73668,0.03804
3415.80794,0.03775
3413.87919,0.03778
3411.95045,0.03816
3410.02170,0.03841
3408.09296,0.03829
3406.16421,0.03819
3404.23547,0.03842
3402.30672,0.03872
3400.37798,0.03887
3398.44923,0.03870
3396.52049,0.03824
3394.59174,0.03805
3392.66300,0.03838
3390.73425,0.03865
3388.80550,0.03850
3386.87676,0.03820
3384.94801,0.03811
3383.01927,0.03822
3381.09052,0.03825
3379.16178,0.03807
3377.23303,0.03798
3375.30429,0.03823
3373.37554,0.03841
3371.44680,0.03822
3369.51805,0.03812
3367.58931,0.03819
3365.66056,0.03810
3363.73182,0.03808
3361.80307,0.03838
3359.87433,0.03886
3357.94558,0.03921
3356.01683,0.03907
3354.08809,0.03869
3352.15934,0.03869
3350.23060,0.03902
3348.30185,0.03927
3346.37311,0.03916
3344.44436,0.03866
3342.51562,0.03818
3340.58687,0.03816
3338.65813,0.03836
3336.72938,0.03848
3334.80064,0.03864
3332.87189,0.03873
3330.94315,0.03863
3329.01440,0.03868
3327.08566,0.03899
3325.15691,0.03930
3323.22816,0.03956
3321.29942,0.03974
3319.37067,0.03965
3317.44193,0.03939
3315.51318,0.03919
3313.58444,0.03911
3311.65569,0.03897
3309.72695,0.03857
3307.79820,0.03827
3305.86946,0.03850
3303.94071,0.03911
3302.01197,0.03962
3300.08322,0.03977
3298.15448,0.03971
3296.22573,0.03956
3294.29698,0.03932
3292.36824,0.03934
3290.43949,0.03987
3288.51075,0.04040
3286.58200,0.04054
3284.65326,0.04061
3282.72451,0.04070
3280.79577,0.04062
3278.86702,0.04036
3276.93828,0.04002
3275.00953,0.03993
3273.08079,0.04030
3271.15204,0.04074
3269.22330,0.04085
3267.29455,0.04059
3265.36581,0.04023
3263.43706,0.04019
3261.50831,0.04035
3259.57957,0.04035
3257.65082,0.04031
3255.72208,0.04049
3253.79333,0.04086
3251.86459,0.04096
3249.93584,0.04062
3248.00710,0.04033
3246.07835,0.04044
3244.14961,0.04072
3242.22086,0.04101
3240.29212,0.04120
3238.36337,0.04119
3236.43463,0.04125
3234.50588,0.04156
3232.57713,0.04181
3230.64839,0.04186
3228.71964,0.04194
3226.79090,0.04203
3224.86215,0.04188
3222.93341,0.04155
3221.00466,0.04152
3219.07592,0.04186
3217.14717,0.04195
3215.21843,0.04158
3213.28968,0.04137
3211.36094,0.04164
3209.43219,0.04211
3207.50345,0.04241
3205.57470,0.04243
3203.64596,0.04226
3201.71721,0.04210
3199.78846,0.04227
3197.85972,0.04293
3195.93097,0.04347
3194.00223,0.04333
3192.07348,0.04293
3190.14474,0.04287
3188.21599,0.04318
3186.28725,0.04339
3184.35850,0.04325
3182.42976,0.04318
3180.50101,0.04356
3178.57227,0.04413
3176.64352,0.04442
3174.71478,0.04437
3172.78603,0.04418
3170.85729,0.04399
3168.92854,0.04375
3166.99979,0.04352
3165.07105,0.04360
3163.14230,0.04385
3161.21356,0.04392
3159.28481,0.04403
3157.35607,0.04433
3155.42732,0.04437
3153.49858,0.04412
3151.56983,0.04407
3149.64109,0.04430
3147.71234,0.04447
3145.78360,0.04454
3143.85485,0.04471
3141.92611,0.04485
3139.99736,0.04475
3138.06861,0.04458
3136.13987,0.04456
3134.21112,0.04466
3132.28238,0.04482
3130.35363,0.04501
3128.42489,0.04524
3126.49614,0.04532
3124.56740,0.04527
3122.63865,0.04537
3120.70991,0.04551
3118.78116,0.04549
3116.85242,0.04559
3114.92367,0.04588
3112.99493,0.04605
3111.06618,0.04616
3109.13744,0.04632
3107.20869,0.04630
3105.27994,0.04609
3103.35120,0.04594
3101.42245,0.04599
3099.49371,0.04611
3097.56496,0.04605
3095.63622,0.04590
3093.70747,0.04600
3091.77873,0.04632
3089.84998,0.04663
3087.92124,0.04683
3085.99249,0.04689
3084.06375,0.04694
3082.13500,0.04706
3080.20626,0.04710
3078.27751,0.04705
3076.34877,0.04708
3074.42002,0.04703
3072.49127,0.04687
3070.56253,0.04706
3068.63378,0.04749
3066.70504,0.04771
3064.77629,0.04769
3062.84755,0.04760
3060.91880,0.04749
3058.99006,0.04741
3057.06131,0.04735
3055.13257,0.04732
3053.20382,0.04740
3051.27508,0.04749
3049.34633,0.04742
3047.41759,0.04728
3045.48884,0.04719
3043.56009,0.04722
3041.63135,0.04747
3039.70260,0.04786
3037.77386,0.04819
3035.84511,0.04836
3033.91637,0.04827
3031.98762,0.04806
3030.05888,0.04803
3028.13013,0.04819
3026.20139,0.04818
3024.27264,0.04792
3022.34390,0.04770
3020.41515,0.04763
3018.48641,0.04758
3016.55766,0.04763
3014.62892,0.04790
3012.70017,0.04810
3010.77142,0.04806
3008.84268,0.04806
3006.91393,0.04806
3004.98519,0.04775
3003.05644,0.04747
3001.12770,0.04756
2999.19895,0.04774
2997.27021,0.04793
2995.34146,0.04805
2993.41272,0.04781
2991.48397,0.04762
2989.55523,0.04774
2987.62648,0.04779
2985.69774,0.04774
2983.76899,0.04774
2981.84025,0.04762
2979.91150,0.04732
2977.98275,0.04692
2976.05401,0.04646
2974.12526,0.04596
2972.19652,0.04540
2970.26777,0.04498
2968.33903,0.04468
2966.41028,0.04438
2964.48154,0.04406
2962.55279,0.04381
2960.62405,0.04371
2958.69530,0.04367
2956.76656,0.04363
2954.83781,0.04359
2952.90907,0.04346
2950.98032,0.04334
2949.05157,0.04344
2947.12283,0.04365
2945.19408,0.04360
2943.26534,0.04329
2941.33659,0.04299
2939.40785,0.04267
2937.47910,0.04224
2935.55036,0.04189
2933.62161,0.04176
2931.69287,0.04168
2929.76412,0.04153
2927.83538,0.04145
2925.90663,0.04159
2923.97789,0.04194
2922.04914,0.04261
2920.12040,0.04355
2918.19165,0.04446
2916.26290,0.04515
2914.33416,0.04559
2912.40541,0.04571
2910.47667,0.04562
2908.54792,0.04569
2906.61918,0.04602
2904.69043,0.04622
2902.76169,0.04623
2900.83294,0.04638
2898.90420,0.04666
2896.97545,0.04687
2895.04671,0.04695
2893.11796,0.04716
2891.18922,0.04776
2889.26047,0.04822
2887.33172,0.04811
2885.40298,0.04783
2883.47423,0.04774
2881.54549,0.04787
2879.61674,0.04811
2877.68800,0.04818
2875.75925,0.04814
2873.83051,0.04806
2871.90176,0.04785
2869.97302,0.04765
2868.04427,0.04763
2866.11553,0.04771
2864.18678,0.04769
2862.25804,0.04740
2860.32929,0.04694
2858.40055,0.04647
2856.47180,0.04612
2854.54305,0.04621
2852.61431,0.04682
2850.68556,0.04762
2848.75682,0.04838
2846.82807,0.04900
2844.89933,0.04947
2842.97058,0.05007
2841.04184,0.05087
2839.11309,0.05159
2837.18435,0.05209
2835.25560,0.05257
2833.32686,0.05302
2831.39811,0.05331
2829.46937,0.05339
2827.54062,0.05329
2825.61188,0.05330
2823.68313,0.05367
2821.75438,0.05420
2819.82564,0.05456
2817.89689,0.05477
2815.96815,0.05490
2814.03940,0.05495
2812.11066,0.05488
2810.18191,0.05474
2808.25317,0.05479
2806.32442,0.05504
2804.39568,0.05518
2802.46693,0.05509
2800.53819,0.05507
2798.60944,0.05533
2796.68070,0.05553
2794.75195,0.05554
2792.82320,0.05569
2790.89446,0.05594
2788.96571,0.05602
2787.03697,0.05600
2785.10822,0.05616
2783.17948,0.05642
2781.25073,0.05650
2779.32199,0.05647
2777.39324,0.05659
2775.46450,0.05680
2773.53575,0.05684
2771.60701,0.05672
2769.67826,0.05665
2767.74952,0.05663
2765.82077,0.05662
2763.89203,0.05672
2761.96328,0.05684
2760.03453,0.05692
2758.10579,0.05700
2756.17704,0.05706
2754.24830,0.05708
2752.31955,0.05700
2750.39081,0.05684
2748.46206,0.05675
2746.53332,0.05678
2744.60457,0.05684
2742.67583,0.05694
2740.74708,0.05713
2738.81834,0.05740
2736.88959,0.05767
2734.96085,0.05768
2733.03210,0.05739
2731.10336,0.05718
2729.17461,0.05732
2727.24586,0.05753
2725.31712,0.05747
2723.38837,0.05741
2721.45963,0.05761
2719.53088,0.05771
2717.60214,0.05756
2715.67339,0.05748
2713.74465,0.05763
2711.81590,0.05787
2709.88716,0.05801
2707.95841,0.05800
2706.02967,0.05798
2704.10092,0.05800
2702.17218,0.05802
2700.24343,0.05803
2698.31468,0.05809
2696.38594,0.05820
2694.45719,0.05828
2692.52845,0.05830
2690.59970,0.05829
2688.67096,0.05832
2686.74221,0.05837
2684.81347,0.05837
2682.88472,0.05834
2680.95598,0.05841
2679.02723,0.05856
2677.09849,0.05860
2675.16974,0.05849
2673.24100,0.05837
2671.31225,0.05825
2669.38351,0.05819
2667.45476,0.05818
2665.52601,0.05818
2663.59727,0.05822
2661.66852,0.05839
2659.73978,0.05857
2657.81103,0.05854
2655.88229,0.05851
2653.95354,0.05873
2652.02480,0.05891
2650.09605,0.05886
2648.16731,0.05880
2646.23856,0.05893
2644.30982,0.05917
2642.38107,0.05929
2640.45233,0.05911
2638.52358,0.05875
2636.59484,0.05861
2634.66609,0.05885
2632.73734,0.05907
2630.80860,0.05902
2628.87985,0.05889
2626.95111,0.05885
2625.02236,0.05891
2623.09362,0.05904
2621.16487,0.05917
2619.23613,0.05923
2617.30738,0.05927
2615.37864,0.05930
2613.44989,0.05932
2611.52115,0.05930
2609.59240,0.05929
2607.66366,0.05929
2605.73491,0.05919
2603.80616,0.05901
2601.87742,0.05892
2599.94867,0.05899
2598.01993,0.05909
2596.09118,0.05908
2594.16244,0.05907
2592.23369,0.05914
2590.30495,0.05919
2588.37620,0.05910
2586.44746,0.05895
2584.51871,0.05894
2582.58997,0.05918
2580.66122,0.05958
2578.73248,0.05995
2576.80373,0.06005
2574.87499,0.05986
2572.94624,0.05960
2571.01749,0.05941
2569.08875,0.05931
2567.16000,0.05941
2565.23126,0.05959
2563.30251,0.05968
2561.37377,0.05962
2559.44502,0.05943
2557.51628,0.05927
2555.58753,0.05928
2553.65879,0.05927
2551.73004,0.05924
2549.80130,0.05932
2547.87255,0.05952
2545.94381,0.05969
2544.01506,0.05964
2542.08631,0.05938
2540.15757,0.05925
2538.22882,0.05935
2536.30008,0.05939
2534.37133,0.05936
2532.44259,0.05939
2530.51384,0.05935
2528.58510,0.05919
2526.65635,0.05906
2524.72761,0.05899
2522.79886,0.05887
2520.87012,0.05878
2518.94137,0.05878
2517.01263,0.05881
2515.08388,0.05882
2513.15514,0.05883
2511.22639,0.05891
2509.29764,0.05902
2507.36890,0.05911
2505.44015,0.05926
2503.51141,0.05942
2501.58266,0.05941
2499.65392,0.05937
2497.72517,0.05941
2495.79643,0.05941
2493.86768,0.05941
2491.93894,0.05958
2490.01019,0.05983
2488.08145,0.05990
2486.15270,0.05987
2484.22396,0.05996
2482.29521,0.06007
2480.36647,0.06005
2478.43772,0.05995
2476.50897,0.05983
2474.58023,0.05974
2472.65148,0.05971
2470.72274,0.05973
2468.79399,0.05983
2466.86525,0.06000
2464.93650,0.06016
2463.00776,0.06028
2461.07901,0.06028
2459.15027,0.06021
2457.22152,0.06024
2455.29278,0.06040
2453.36403,0.06057
2451.43529,0.06057
2449.50654,0.06052
2447.57779,0.06053
2445.64905,0.06043
2443.72030,0.06032
2441.79156,0.06032
2439.86281,0.06029
2437.93407,0.06032
2436.00532,0.06054
2434.07658,0.06064
2432.14783,0.06049
2430.21909,0.06038
2428.29034,0.06043
2426.36160,0.06058
2424.43285,0.06067
2422.50411,0.06063
2420.57536,0.06046
2418.64662,0.06024
2416.71787,0.06009
2414.78912,0.06012
2412.86038,0.06034
2410.93163,0.06051
2409.00289,0.06038
2407.07414,0.06017
2405.14540,0.06014
2403.21665,0.06024
2401.28791,0.06031
2399.35916,0.06034
2397.43042,0.06039
2395.50167,0.06033
2393.57293,0.06015
2391.64418,0.06001
2389.71544,0.05995
2387.78669,0.05994
2385.85795,0.05995
2383.92920,0.06003
2382.00045,0.06020
2380.07171,0.06024
2378.14296,0.06002
2376.21422,0.05976
2374.28547,0.05961
2372.35673,0.05945
2370.42798,0.05928
2368.49924,0.05925
2366.57049,0.05937
2364.64175,0.05946
2362.71300,0.05948
2360.78426,0.05947
2358.85551,0.05921
2356.92677,0.05883
2354.99802,0.05866
2353.06927,0.05873
2351.14053,0.05893
2349.21178,0.05911
2347.28304,0.05909
2345.35429,0.05897
2343.42555,0.05887
2341.49680,0.05872
2339.56806,0.05864
2337.63931,0.05872
2335.71057,0.05882
2333.78182,0.05888
2331.85308,0.05894
2329.92433,0.05884
2327.99559,0.05859
2326.06684,0.05840
2324.13810,0.05828
2322.20935,0.05819
2320.28060,0.05822
2318.35186,0.05834
2316.42311,0.05848
2314.49437,0.05853
2312.56562,0.05841
2310.63688,0.05830
2308.70813,0.05839
2306.77939,0.05853
2304.85064,0.05854
2302.92190,0.05837
2300.99315,0.05822
2299.06441,0.05818
2297.13566,0.05821
2295.20692,0.05826
2293.27817,0.05832
2291.34943,0.05831
2289.42068,0.05824
2287.49193,0.05818
2285.56319,0.05807
2283.63444,0.05792
2281.70570,0.05785
2279.77695,0.05781
2277.84821,0.05769
2275.91946,0.05759
2273.99072,0.05757
2272.06197,0.05751
2270.13323,0.05729
2268.20448,0.05706
2266.27574,0.05701
2264.34699,0.05712
2262.41825,0.05720
2260.48950,0.05720
2258.56075,0.05714
2256.63201,0.05700
2254.70326,0.05684
2252.77452,0.05672
2250.84577,0.05655
2248.91703,0.05630
2246.98828,0.05612
2245.05954,0.05615
2243.13079,0.05629
2241.20205,0.05634
2239.27330,0.05621
2237.34456,0.05598
2235.41581,0.05566
2233.48707,0.05537
2231.55832,0.05539
2229.62958,0.05562
2227.70083,0.05569
2225.77208,0.05553
2223.84334,0.05541
2221.91459,0.05546
2219.98585,0.05552
2218.05710,0.05550
2216.12836,0.05548
2214.19961,0.05548
2212.27087,0.05532
2210.34212,0.05499
2208.41338,0.05473
2206.48463,0.05457
2204.55589,0.05441
2202.62714,0.05437
2200.69840,0.05445
2198.76965,0.05439
2196.84090,0.05411
2194.91216,0.05386
2192.98341,0.05379
2191.05467,0.05368
2189.12592,0.05334
2187.19718,0.05286
2185.26843,0.05248
2183.33969,0.05237
2181.41094,0.05235
2179.48220,0.05219
2177.55345,0.05202
2175.62471,0.05203
2173.69596,0.05214
2171.76722,0.05220
2169.83847,0.05212
2167.90973,0.05185
2165.98098,0.05140
2164.05223,0.05099
2162.12349,0.05089
2160.19474,0.05099
2158.26600,0.05106
2156.33725,0.05107
2154.40851,0.05107
2152.47976,0.05110
2150.55102,0.05112
2148.62227,0.05100
2146.69353,0.05083
2144.76478,0.05071
2142.83604,0.05056
2140.90729,0.05041
2138.97855,0.05040
2137.04980,0.05037
2135.12106,0.05032
2133.19231,0.05034
2131.26356,0.05029
2129.33482,0.05006
2127.40607,0.04980
2125.47733,0.04961
2123.54858,0.04958
2121.61984,0.04970
2119.69109,0.04972
2117.76235,0.04955
2115.83360,0.04951
2113.90486,0.04967
2111.97611,0.04986
2110.04737,0.04995
2108.11862,0.04976
2106.18988,0.04939
2104.26113,0.04915
2102.33238,0.04897
2100.40364,0.04873
2098.47489,0.04858
2096.54615,0.04850
2094.61740,0.04835
2092.68866,0.04808
2090.75991,0.04785
2088.83117,0.04767
2086.90242,0.04754
2084.97368,0.04757
2083.04493,0.04769
2081.11619,0.04774
2079.18744,0.04777
2077.25870,0.04790
2075.32995,0.04796
2073.40121,0.04777
2071.47246,0.04757
2069.54371,0.04750
2067.61497,0.04745
2065.68622,0.04750
2063.75748,0.04761
2061.82873,0.04760
2059.89999,0.04749
2057.97124,0.04731
2056.04250,0.04701
2054.11375,0.04674
2052.18501,0.04669
2050.25626,0.04674
2048.32752,0.04671
2046.39877,0.04653
2044.47003,0.04627
2042.54128,0.04605
2040.61254,0.04592
2038.68379,0.04584
2036.75504,0.04578
2034.82630,0.04569
2032.89755,0.04555
2030.96881,0.04549
2029.04006,0.04562
2027.11132,0.04584
2025.18257,0.04597
2023.25383,0.04601
2021.32508,0.04607
2019.39634,0.04616
2017.46759,0.04617
2015.53885,0.04602
2013.61010,0.04573
2011.68136,0.04543
2009.75261,0.04520
2007.82386,0.04515
2005.89512,0.04532
2003.96637,0.04548
2002.03763,0.04546
2000.10888,0.04537
1998.18014,0.04537
1996.25139,0.04547
1994.32265,0.04561
1992.39390,0.04582
1990.46516,0.04599
1988.53641,0.04595
1986.60767,0.04571
1984.67892,0.04549
1982.75018,0.04538
1980.82143,0.04527
1978.89269,0.04522
1976.96394,0.04544
1975.03519,0.04573
1973.10645,0.04586
1971.17770,0.04588
1969.24896,0.04584
1967.32021,0.04566
1965.39147,0.04552
1963.46272,0.04554
1961.53398,0.04559
1959.60523,0.04560
1957.67649,0.04564
1955.74774,0.04564
1953.81900,0.04559
1951.89025,0.04550
1949.96151,0.04539
1948.03276,0.04536
1946.10402,0.04547
1944.17527,0.04553
1942.24652,0.04540
1940.31778,0.04528
1938.38903,0.04526
1936.46029,0.04524
1934.53154,0.04514
1932.60280,0.04501
1930.67405,0.04493
1928.74531,0.04492
1926.81656,0.04494
1924.88782,0.04496
1922.95907,0.04496
1921.03033,0.04497
1919.10158,0.04488
1917.17284,0.04465
1915.24409,0.04448
1913.31534,0.04450
1911.38660,0.04450
1909.45785,0.04438
1907.52911,0.04427
1905.60036,0.04420
1903.67162,0.04412
1901.74287,0.04411
1899.81413,0.04432
1897.88538,0.04456
1895.95664,0.04457
1894.02789,0.04448
1892.09915,0.04448
1890.17040,0.04441
1888.24166,0.04425
1886.31291,0.04415
1884.38417,0.04410
1882.45542,0.04402
1880.52667,0.04395
1878.59793,0.04394
1876.66918,0.04398
1874.74044,0.04403
1872.81169,0.04414
1870.88295,0.04430
1868.95420,0.04428
1867.02546,0.04412
1865.09671,0.04412
1863.16797,0.04427
1861.23922,0.04435
1859.31048,0.04432
1857.38173,0.04429
1855.45299,0.04426
1853.52424,0.04425
1851.59549,0.04433
1849.66675,0.04440
1847.73800,0.04441
1845.80926,0.04440
1843.88051,0.04435
1841.95177,0.04425
1840.02302,0.04414
1838.09428,0.04404
1836.16553,0.04400
1834.23679,0.04395
1832.30804,0.04385
1830.37930,0.04373
1828.45055,0.04367
1826.52181,0.04367
1824.59306,0.04358
1822.66432,0.04345
1820.73557,0.04347
1818.80682,0.04359
1816.87808,0.04365
1814.94933,0.04358
1813.02059,0.04337
1811.09184,0.04312
1809.16310,0.04288
1807.23435,0.04264
1805.30561,0.04251
1803.37686,0.04241
1801.44812,0.04210
1799.51937,0.04162
1797.59063,0.04129
1795.66188,0.04132
1793.73314,0.04153
1791.80439,0.04154
1789.87565,0.04129
1787.94690,0.04110
1786.01815,0.04111
1784.08941,0.04127
1782.16066,0.04134
1780.23192,0.04119
1778.30317,0.04111
1776.37443,0.04137
1774.44568,0.04181
1772.51694,0.04196
1770.58819,0.04171
1768.65945,0.04142
1766.73070,0.04125
1764.80196,0.04113
1762.87321,0.04100
1760.94447,0.04085
1759.01572,0.04070
1757.08697,0.04060
1755.15823,0.04054
1753.22948,0.04050
1751.30074,0.04049
1749.37199,0.04046
1747.44325,0.04035
1745.51450,0.04021
1743.58576,0.04010
1741.65701,0.04006
1739.72827,0.04002
1737.79952,0.03989
1735.87078,0.03981
1733.94203,0.03979
1732.01329,0.03977
1730.08454,0.03982
1728.15580,0.03989
1726.22705,0.03981
1724.29830,0.03956
1722.36956,0.03940
1720.44081,0.03948
1718.51207,0.03955
1716.58332,0.03942
1714.65458,0.03924
1712.72583,0.03909
1710.79709,0.03897
1708.86834,0.03886
1706.93960,0.03877
1705.01085,0.03885
1703.08211,0.03900
1701.15336,0.03890
1699.22462,0.03862
1697.29587,0.03854
1695.36713,0.03851
1693.43838,0.03840
1691.50963,0.03846
1689.58089,0.03864
1687.65214,0.03866
1685.72340,0.03856
1683.79465,0.03854
1681.86591,0.03861
1679.93716,0.03875
1678.00842,0.03897
1676.07967,0.03913
1674.15093,0.03903
1672.22218,0.03882
1670.29344,0.03874
1668.36469,0.03870
1666.43595,0.03868
1664.50720,0.03885
1662.57845,0.03911
1660.64971,0.03922
1658.72096,0.03919
1656.79222,0.03918
1654.86347,0.03926
1652.93473,0.03941
1651.00598,0.03952
1649.07724,0.03963
1647.14849,0.03981
1645.21975,0.03989
1643.29100,0.03980
1641.36226,0.03976
1639.43351,0.03985
1637.50477,0.03993
1635.57602,0.03996
1633.64728,0.04004
1631.71853,0.04017
1629.78978,0.04027
1627.86104,0.04029
1625.93229,0.04031
1624.00355,0.04026
1622.07480,0.04017
1620.14606,0.04014
1618.21731,0.04011
1616.28857,0.04001
1614.35982,0.04001
1612.43108,0.04013
1610.50233,0.04029
1608.57359,0.04051
1606.64484,0.04071
1604.71610,0.04086
1602.78735,0.04107
1600.85861,0.04132
1598.92986,0.04142
1597.00111,0.04145
1595.07237,0.04166
1593.14362,0.04203
1591.21488,0.04226
1589.28613,0.04220
1587.35739,0.04211
1585.42864,0.04228
1583.49990,0.04259
1581.57115,0.04282
1579.64241,0.04306
1577.71366,0.04351
1575.78492,0.04411
1573.85617,0.04457
1571.92743,0.04493
1569.99868,0.04538
1568.06993,0.04576
1566.14119,0.04606
1564.21244,0.04648
1562.28370,0.04705
1560.35495,0.04755
1558.42621,0.04794
1556.49746,0.04841
1554.56872,0.04890
1552.63997,0.04923
1550.71123,0.04937
1548.78248,0.04937
1546.85374,0.04937
1544.92499,0.04943
1542.99625,0.04945
1541.06750,0.04940
1539.13876,0.04927
1537.21001,0.04908
1535.28126,0.04889
1533.35252,0.04864
1531.42377,0.04835
1529.49503,0.04823
1527.56628,0.04839
1525.63754,0.04861
1523.70879,0.04856
1521.78005,0.04821
1519.85130,0.04790
1517.92256,0.04770
1515.99381,0.04736
1514.06507,0.04697
1512.13632,0.04676
1510.20758,0.04666
1508.27883,0.04657
1506.35008,0.04647
1504.42134,0.04633
1502.49259,0.04610
1500.56385,0.04595
1498.63510,0.04600
1496.70636,0.04599
1494.77761,0.04575
1492.84887,0.04554
1490.92012,0.04541
1488.99138,0.04526
1487.06263,0.04503
1485.13389,0.04470
1483.20514,0.04430
1481.27640,0.04397
1479.34765,0.04372
1477.41891,0.04339
1475.49016,0.04291
1473.56141,0.04237
1471.63267,0.04179
1469.70392,0.04125
1467.77518,0.04087
1465.84643,0.04067
1463.91769,0.04055
1461.98894,0.04047
1460.06020,0.04038
1458.13145,0.04033
1456.20271,0.04034
1454.27396,0.04026
1452.34522,0.04020
1450.41647,0.04026
1448.48773,0.04028
1446.55898,0.04022
1444.63024,0.04020
1442.70149,0.04029
1440.77274,0.04040
1438.84400,0.04041
1436.91525,0.04034
1434.98651,0.04033
1433.05776,0.04032
1431.12902,0.04019
1429.20027,0.04008
1427.27153,0.04017
1425.34278,0.04032
1423.41404,0.04034
1421.48529,0.04035
1419.55655,0.04035
1417.62780,0.04031
1415.69906,0.04035
1413.77031,0.04039
1411.84156,0.04021
1409.91282,0.03982
1407.98407,0.03949
1406.05533,0.03942
1404.12658,0.03942
1402.19784,0.03928
1400.26909,0.03909
1398.34035,0.03896
1396.41160,0.03886
1394.48286,0.03878
1392.55411,0.03874
1390.62537,0.03873
1388.69662,0.03867
1386.76788,0.03845
1384.83913,0.03810
1382.91039,0.03787
1380.98164,0.03787
1379.05289,0.03792
1377.12415,0.03778
1375.19540,0.03765
1373.26666,0.03777
1371.33791,0.03797
1369.40917,0.03804
1367.48042,0.03802
1365.55168,0.03809
1363.62293,0.03827
1361.69419,0.03842
1359.76544,0.03848
1357.83670,0.03850
1355.90795,0.03847
1353.97921,0.03840
1352.05046,0.03836
1350.12172,0.03835
1348.19297,0.03819
1346.26422,0.03797
1344.33548,0.03799
1342.40673,0.03824
1340.47799,0.03841
1338.54924,0.03831
1336.62050,0.03810
1334.69175,0.03792
1332.76301,0.03776
1330.83426,0.03771
1328.90552,0.03785
1326.97677,0.03796
1325.04803,0.03781
1323.11928,0.03758
1321.19054,0.03762
1319.26179,0.03776
1317.33304,0.03769
1315.40430,0.03745
1313.47555,0.03726
1311.54681,0.03728
1309.61806,0.03745
1307.68932,0.03751
1305.76057,0.03742
1303.83183,0.03741
1301.90308,0.03748
1299.97434,0.03752
1298.04559,0.03746
1296.11685,0.03740
1294.18810,0.03738
1292.25936,0.03730
1290.33061,0.03714
1288.40187,0.03692
1286.47312,0.03664
1284.54437,0.03641
1282.61563,0.03629
1280.68688,0.03624
1278.75814,0.03614
1276.82939,0.03597
1274.90065,0.03581
1272.97190,0.03569
1271.04316,0.03556
1269.11441,0.03542
1267.18567,0.03530
1265.25692,0.03515
1263.32818,0.03500
1261.39943,0.03484
1259.47069,0.03466
1257.54194,0.03450
1255.61320,0.03441
1253.68445,0.03430
1251.75570,0.03416
1249.82696,0.03416
1247.89821,0.03415
1245.96947,0.03401
1244.04072,0.03393
1242.11198,0.03380
1240.18323,0.03353
1238.25449,0.03351
1236.32574,0.03367
1234.39700,0.03363
1232.46825,0.03368
1230.53951,0.03400
1228.61076,0.03429
1226.68202,0.03454
1224.75327,0.03493
1222.82452,0.03530
1220.89578,0.03552
1218.96703,0.03562
1217.03829,0.03558
1215.10954,0.03548
1213.18080,0.03545
1211.25205,0.03561
1209.32331,0.03598
1207.39456,0.03634
1205.46582,0.03646
1203.53707,0.03638
1201.60833,0.03626
1199.67958,0.03625
1197.75084,0.03636
1195.82209,0.03649
1193.89335,0.03651
1191.96460,0.03638
1190.03585,0.03614
1188.10711,0.03609
1186.17836,0.03641
1184.24962,0.03677
1182.32087,0.03687
1180.39213,0.03686
1178.46338,0.03694
1176.53464,0.03710
1174.60589,0.03718
1172.67715,0.03716
1170.74840,0.03706
1168.81966,0.03703
1166.89091,0.03731
1164.96217,0.03781
1163.03342,0.03823
1161.10467,0.03842
1159.17593,0.03847
1157.24718,0.03863
1155.31844,0.03903
1153.38969,0.03946
1151.46095,0.03977
1149.53220,0.04007
1147.60346,0.04055
1145.67471,0.04113
1143.74597,0.04154
1141.81722,0.04184
1139.88848,0.04231
1137.95973,0.04291
1136.03099,0.04363
1134.10224,0.04448
1132.17350,0.04528
1130.24475,0.04601
1128.31600,0.04684
1126.38726,0.04764
1124.45851,0.04827
1122.52977,0.04879
1120.60102,0.04943
1118.67228,0.05038
1116.74353,0.05147
1114.81479,0.05243
1112.88604,0.05323
1110.95730,0.05373
1109.02855,0.05397
1107.09981,0.05437
1105.17106,0.05518
1103.24232,0.05621
1101.31357,0.05734
1099.38483,0.05854
1097.45608,0.05948
1095.52733,0.06005
1093.59859,0.06044
1091.66984,0.06083
1089.74110,0.06131
1087.81235,0.06169
1085.88361,0.06193
1083.95486,0.06237
1082.02612,0.06287
1080.09737,0.06308
1078.16863,0.06307
1076.23988,0.06299
1074.31114,0.06304
1072.38239,0.06339
1070.45365,0.06384
1068.52490,0.06417
1066.59615,0.06421
1064.66741,0.06390
1062.73866,0.06367
1060.80992,0.06384
1058.88117,0.06418
1056.95243,0.06462
1055.02368,0.06533
1053.09494,0.06612
1051.16619,0.06660
1049.23745,0.06673
1047.30870,0.06688
1045.37996,0.06726
1043.45121,0.06777
1041.52247,0.06850
1039.59372,0.06954
1037.66498,0.07059
1035.73623,0.07145
1033.80748,0.07208
1031.87874,0.07213
1029.94999,0.07162
1028.02125,0.07101
1026.09250,0.07055
1024.16376,0.07010
1022.23501,0.06959
1020.30627,0.06948
1018.37752,0.06986
1016.44878,0.07026
1014.52003,0.07088
1012.59129,0.07202
1010.66254,0.07316
1008.73380,0.07392
1006.80505,0.07441
1004.87631,0.07485
1002.94756,0.07538
1001.01881,0.07589
999.09007,0.07608
997.16132,0.07571
995.23258,0.07516
993.30383,0.07500
991.37509,0.07531
989.44634,0.07578
987.51760,0.07599
985.58885,0.07568
983.66011,0.07518
981.73136,0.07489
979.80262,0.07473
977.87387,0.07431
975.94513,0.07361
974.01638,0.07314
972.08763,0.07312
970.15889,0.07330
968.23014,0.07336
966.30140,0.07299
964.37265,0.07246
962.44391,0.07218
960.51516,0.07219
958.58642,0.07235
956.65767,0.07257
954.72893,0.07276
952.80018,0.07275
950.87144,0.07251
948.94269,0.07235
947.01395,0.07234
945.08520,0.07220
943.15646,0.07179
941.22771,0.07120
939.29896,0.07041
937.37022,0.06927
935.44147,0.06819
933.51273,0.06764
931.58398,0.06721
929.65524,0.06634
927.72649,0.06524
925.79775,0.06420
923.86900,0.06324
921.94026,0.06275
920.01151,0.06286
918.08277,0.06308
916.15402,0.06315
914.22528,0.06318
912.29653,0.06327
910.36779,0.06342
908.43904,0.06340
906.51029,0.06324
904.58155,0.06312
902.65280,0.06297
900.72406,0.06269
898.79531,0.06230
896.86657,0.06217
894.93782,0.06242
893.00908,0.06257
891.08033,0.06247
889.15159,0.06239
887.22284,0.06231
885.29410,0.06185
883.36535,0.06101
881.43661,0.06026
879.50786,0.05953
877.57911,0.05860
875.65037,0.05789
873.72162,0.05746
871.79288,0.05699
869.86413,0.05657
867.93539,0.05643
866.00664,0.05635
864.07790,0.05618
862.14915,0.05618
860.22041,0.05624
858.29166,0.05590
856.36292,0.05513
854.43417,0.05419
852.50543,0.05335
850.57668,0.05287
848.64794,0.05265
846.71919,0.05225
844.79044,0.05175
842.86170,0.05155
840.93295,0.05135
839.00421,0.05075
837.07546,0.05019
835.14672,0.05007
833.21797,0.04992
831.28923,0.04925
829.36048,0.04837
827.43174,0.04791
825.50299,0.04801
823.57425,0.04800
821.64550,0.04756
819.71676,0.04713
817.78801,0.04694
815.85926,0.04682
813.93052,0.04653
812.00177,0.04617
810.07303,0.04600
808.14428,0.04593
806.21554,0.04576
804.28679,0.04562
802.35805,0.04555
800.42930,0.04535
798.50056,0.04532
796.57181,0.04578
794.64307,0.04624
792.71432,0.04625
790.78558,0.04603
788.85683,0.04579
786.92809,0.04573
784.99934,0.04594
783.07059,0.04602
781.14185,0.04566
779.21310,0.04551
777.28436,0.04578
775.35561,0.04584
773.42687,0.04569
771.49812,0.04563
769.56938,0.04545
767.64063,0.04511
765.71189,0.04502
763.78314,0.04531
761.85440,0.04596
759.92565,0.04665
757.99691,0.04681
756.06816,0.04663
754.13942,0.04673
752.21067,0.04695
750.28192,0.04696
748.35318,0.04693
746.42443,0.04690
744.49569,0.04663
742.56694,0.04633
740.63820,0.04640
738.70945,0.04659
736.78071,0.04645
734.85196,0.04606
732.92322,0.04555
730.99447,0.04479
729.06573,0.04426
727.13698,0.04435
725.20824,0.04473
723.27949,0.04504
721.35074,0.04529
719.42200,0.04551
717.49325,0.04560
715.56451,0.04550
713.63576,0.04536
711.70702,0.04536
709.77827,0.04525
707.84953,0.04498
705.92078,0.04504
703.99204,0.04518
702.06329,0.04488
700.13455,0.04443
698.20580,0.04418
696.27706,0.04415
694.34831,0.04413
692.41957,0.04400
690.49082,0.04399
688.56207,0.04410
686.63333,0.04429
684.70458,0.04479
682.77584,0.04548
680.84709,0.04577
678.91835,0.04564
676.98960,0.04567
675.06086,0.04563
673.13211,0.04493
671.20337,0.04432
669.27462,0.04435
667.34588,0.04414
665.41713,0.04361
663.48839,0.04376
661.55964,0.04446
659.63090,0.04503
657.70215,0.04505
655.77340,0.04474
653.84466,0.04480
651.91591,0.04536
649.98717,0.04577
648.05842,0.04589
646.12968,0.04614
644.20093,0.04638
642.27219,0.04616
640.34344,0.04565
638.41470,0.04540
636.48595,0.04573
634.55721,0.04654
632.62846,0.04706
630.69972,0.04659
628.77097,0.04543
626.84222,0.04409
624.91348,0.04305
622.98473,0.04262
621.05599,0.04233
619.12724,0.04180
617.19850,0.04163
615.26975,0.04189
613.34101,0.04245
611.41226,0.04366
609.48352,0.04435
607.55477,0.04338
605.62603,0.04216
603.69728,0.04164
601.76854,0.04097
599.83979,0.04052
