7497.03301,0.05238
7495.10426,0.05641
7493.17552,0.05885
7491.24677,0.05733
7489.31803,0.05481
7487.38928,0.05469
7485.46054,0.05613
7483.53179,0.05578
7481.60305,0.05238
7479.67430,0.05178
7477.74556,0.05814
7475.81681,0.06601
7473.88807,0.06820
7471.95932,0.06443
7470.03057,0.05971
7468.10183,0.05852
7466.17308,0.05948
7464.24434,0.05977
7462.31559,0.05888
7460.38685,0.05769
7458.45810,0.05783
7456.52936,0.05719
7454.60061,0.05362
7452.67187,0.05064
7450.74312,0.05011
7448.81438,0.05143
7446.88563,0.05369
7444.95689,0.05540
7443.02814,0.05656
7441.09940,0.05744
7439.17065,0.05673
7437.24190,0.05610
7435.31316,0.05602
7433.38441,0.05344
7431.45567,0.04993
7429.52692,0.04924
7427.59818,0.04966
7425.66943,0.05127
7423.74069,0.05448
7421.81194,0.05576
7419.88320,0.05397
7417.95445,0.05256
7416.02571,0.05300
7414.09696,0.05487
7412.16822,0.05657
7410.23947,0.05726
7408.31073,0.05627
7406.38198,0.05476
7404.45323,0.05476
7402.52449,0.05641
7400.59574,0.05539
7398.66700,0.05233
7396.73825,0.05312
7394.80951,0.05719
7392.88076,0.05829
7390.95202,0.05491
7389.02327,0.05183
7387.09453,0.05298
7385.16578,0.05741
7383.23704,0.06110
7381.30829,0.06062
7379.37955,0.05905
7377.45080,0.05972
7375.52205,0.05961
7373.59331,0.05725
7371.66456,0.05550
7369.73582,0.05520
7367.80707,0.05447
7365.87833,0.05350
7363.94958,0.05414
7362.02084,0.05492
7360.09209,0.05507
7358.16335,0.05722
7356.23460,0.05937
7354.30586,0.05719
7352.37711,0.05329
7350.44837,0.05077
7348.51962,0.05046
7346.59088,0.05410
7344.66213,0.06019
7342.73338,0.06562
7340.80464,0.06733
7338.87589,0.06406
7336.94715,0.06120
7335.01840,0.06147
7333.08966,0.06110
7331.16091,0.05776
7329.23217,0.05366
7327.30342,0.05125
7325.37468,0.05167
7323.44593,0.05330
7321.51719,0.05282
7319.58844,0.05056
7317.65970,0.04847
7315.73095,0.04742
7313.80221,0.04933
7311.87346,0.05360
7309.94471,0.05676
7308.01597,0.05682
7306.08722,0.05595
7304.15848,0.05750
7302.22973,0.05854
7300.30099,0.05654
7298.37224,0.05697
7296.44350,0.06012
7294.51475,0.05956
7292.58601,0.05631
7290.65726,0.05561
7288.72852,0.05708
7286.79977,0.05847
7284.87103,0.05842
7282.94228,0.05653
7281.01353,0.05454
7279.08479,0.05352
7277.15604,0.05212
7275.22730,0.05128
7273.29855,0.05361
7271.36981,0.05753
7269.44106,0.05997
7267.51232,0.06181
7265.58357,0.06362
7263.65483,0.06253
7261.72608,0.05898
7259.79734,0.05721
7257.86859,0.05928
7255.93985,0.06253
7254.01110,0.06105
7252.08236,0.05539
7250.15361,0.05245
7248.22486,0.05457
7246.29612,0.05750
7244.36737,0.05843
7242.43863,0.05994
7240.50988,0.06259
7238.58114,0.06288
7236.65239,0.06079
7234.72365,0.05884
7232.79490,0.05729
7230.86616,0.05664
7228.93741,0.05700
7227.00867,0.05408
7225.07992,0.04780
7223.15118,0.04533
7221.22243,0.04916
7219.29369,0.05383
7217.36494,0.05576
7215.43619,0.05503
7213.50745,0.05275
7211.57870,0.05015
7209.64996,0.04796
7207.72121,0.04696
7205.79247,0.04898
7203.86372,0.05264
7201.93498,0.05644
7200.00623,0.05882
7198.07749,0.05617
7196.14874,0.05119
7194.22000,0.05134
7192.29125,0.05529
7190.36251,0.05730
7188.43376,0.05642
7186.50501,0.05580
7184.57627,0.05742
7182.64752,0.05825
7180.71878,0.05715
7178.79003,0.05688
7176.86129,0.05568
7174.93254,0.05355
7173.00380,0.05283
7171.07505,0.05140
7169.14631,0.05030
7167.21756,0.05411
7165.28882,0.05976
7163.36007,0.06086
7161.43133,0.05964
7159.50258,0.05935
7157.57384,0.05704
7155.64509,0.05419
7153.71634,0.05456
7151.78760,0.05532
7149.85885,0.05452
7147.93011,0.05419
7146.00136,0.05399
7144.07262,0.05390
7142.14387,0.05583
7140.21513,0.05935
7138.28638,0.06024
7136.35764,0.05574
7134.42889,0.05090
7132.50015,0.05131
7130.57140,0.05508
7128.64266,0.05903
7126.71391,0.06129
7124.78516,0.06008
7122.85642,0.05706
7120.92767,0.05649
7118.99893,0.05831
7117.07018,0.05854
7115.14144,0.05631
7113.21269,0.05380
7111.28395,0.05276
7109.35520,0.05272
7107.42646,0.05177
7105.49771,0.05029
7103.56897,0.05093
7101.64022,0.05418
7099.71148,0.05496
7097.78273,0.05190
7095.85399,0.05114
7093.92524,0.05211
7091.99649,0.05085
7090.06775,0.05077
7088.13900,0.05274
7086.21026,0.05408
7084.28151,0.05537
7082.35277,0.05504
7080.42402,0.05202
7078.49528,0.05126
7076.56653,0.05446
7074.63779,0.05733
7072.70904,0.05765
7070.78030,0.05688
7068.85155,0.05555
7066.92281,0.05221
7064.99406,0.04831
7063.06532,0.04815
7061.13657,0.05112
7059.20782,0.05272
7057.27908,0.05235
7055.35033,0.05399
7053.42159,0.05843
7051.49284,0.06066
7049.56410,0.05763
7047.63535,0.05162
7045.70661,0.04742
7043.77786,0.04888
7041.84912,0.05418
7039.92037,0.05893
7037.99163,0.06097
7036.06288,0.05952
7034.13414,0.05707
7032.20539,0.05714
7030.27664,0.05742
7028.34790,0.05632
7026.41915,0.05652
7024.49041,0.05756
7022.56166,0.05591
7020.63292,0.05258
7018.70417,0.05238
7016.77543,0.05507
7014.84668,0.05517
7012.91794,0.05200
7010.98919,0.04962
7009.06045,0.05042
7007.13170,0.05265
7005.20296,0.05262
7003.27421,0.05140
7001.34547,0.05161
6999.41672,0.05224
6997.48797,0.05412
6995.55923,0.05759
6993.63048,0.05964
6991.70174,0.05961
6989.77299,0.06003
6987.84425,0.06075
6985.91550,0.05797
6983.98676,0.05254
6982.05801,0.05063
6980.12927,0.05289
6978.20052,0.05510
6976.27178,0.05542
6974.34303,0.05507
6972.41429,0.05593
6970.48554,0.05710
6968.55680,0.05570
6966.62805,0.05291
6964.69930,0.05307
6962.77056,0.05581
6960.84181,0.05645
6958.91307,0.05424
6956.98432,0.05263
6955.05558,0.05316
6953.12683,0.05443
6951.19809,0.05595
6949.26934,0.05747
6947.34060,0.05748
6945.41185,0.05619
6943.48311,0.05566
6941.55436,0.05531
6939.62562,0.05378
6937.69687,0.05267
6935.76812,0.05374
6933.83938,0.05441
6931.91063,0.05345
6929.98189,0.05343
6928.05314,0.05538
6926.12440,0.05788
6924.19565,0.05904
6922.26691,0.05893
6920.33816,0.05851
6918.40942,0.05591
6916.48067,0.05188
6914.55193,0.05107
6912.62318,0.05432
6910.69444,0.05782
6908.76569,0.05943
6906.83695,0.05875
6904.90820,0.05581
6902.97945,0.05347
6901.05071,0.05489
6899.12196,0.05785
6897.19322,0.05784
6895.26447,0.05522
6893.33573,0.05362
6891.40698,0.05344
6889.47824,0.05348
6887.54949,0.05381
6885.62075,0.05418
6883.69200,0.05439
6881.76326,0.05527
6879.83451,0.05663
6877.90577,0.05731
6875.97702,0.05839
6874.04828,0.06021
6872.11953,0.05977
6870.19078,0.05680
6868.26204,0.05370
6866.33329,0.05125
6864.40455,0.05065
6862.47580,0.05266
6860.54706,0.05489
6858.61831,0.05605
6856.68957,0.05602
6854.76082,0.05477
6852.83208,0.05409
6850.90333,0.05607
6848.97459,0.05945
6847.04584,0.06129
6845.11710,0.05994
6843.18835,0.05570
6841.25960,0.05211
6839.33086,0.05283
6837.40211,0.05595
6835.47337,0.05721
6833.54462,0.05549
6831.61588,0.05350
6829.68713,0.05325
6827.75839,0.05458
6825.82964,0.05642
6823.90090,0.05795
6821.97215,0.06023
6820.04341,0.06261
6818.11466,0.06219
6816.18592,0.06071
6814.25717,0.06058
6812.32843,0.05982
6810.39968,0.05853
6808.47093,0.05868
6806.54219,0.05887
6804.61344,0.05721
6802.68470,0.05351
6800.75595,0.05057
6798.82721,0.05119
6796.89846,0.05367
6794.96972,0.05608
6793.04097,0.05796
6791.11223,0.05876
6789.18348,0.05830
6787.25474,0.05574
6785.32599,0.05307
6783.39725,0.05339
6781.46850,0.05577
6779.53975,0.05690
6777.61101,0.05546
6775.68226,0.05404
6773.75352,0.05435
6771.82477,0.05502
6769.89603,0.05613
6767.96728,0.05694
6766.03854,0.05599
6764.10979,0.05453
6762.18105,0.05469
6760.25230,0.05725
6758.32356,0.06099
6756.39481,0.06310
6754.46607,0.06303
6752.53732,0.06163
6750.60858,0.05855
6748.67983,0.05431
6746.75108,0.05074
6744.82234,0.05024
6742.89359,0.05333
6740.96485,0.05624
6739.03610,0.05721
6737.10736,0.05758
6735.17861,0.05660
6733.24987,0.05449
6731.32112,0.05371
6729.39238,0.05410
6727.46363,0.05504
6725.53489,0.05609
6723.60614,0.05701
6721.67740,0.05856
6719.74865,0.06059
6717.81991,0.06084
6715.89116,0.05877
6713.96241,0.05646
6712.03367,0.05541
6710.10492,0.05524
6708.17618,0.05554
6706.24743,0.05626
6704.31869,0.05645
6702.38994,0.05558
6700.46120,0.05492
6698.53245,0.05473
6696.60371,0.05469
6694.67496,0.05535
6692.74622,0.05647
6690.81747,0.05663
6688.88873,0.05491
6686.95998,0.05215
6685.03123,0.05029
6683.10249,0.04999
6681.17374,0.05071
6679.24500,0.05232
6677.31625,0.05408
6675.38751,0.05414
6673.45876,0.05389
6671.53002,0.05577
6669.60127,0.05805
6667.67253,0.05853
6665.74378,0.05778
6663.81504,0.05712
6661.88629,0.05669
6659.95755,0.05681
6658.02880,0.05779
6656.10006,0.05765
6654.17131,0.05683
6652.24256,0.05715
6650.31382,0.05736
6648.38507,0.05768
6646.45633,0.05966
6644.52758,0.06148
6642.59884,0.06139
6640.67009,0.06025
6638.74135,0.05850
6636.81260,0.05591
6634.88386,0.05365
6632.95511,0.05337
6631.02637,0.05524
6629.09762,0.05700
6627.16888,0.05725
6625.24013,0.05610
6623.31139,0.05424
6621.38264,0.05402
6619.45389,0.05634
6617.52515,0.05843
6615.59640,0.05804
6613.66766,0.05647
6611.73891,0.05593
6609.81017,0.05564
6607.88142,0.05529
6605.95268,0.05637
6604.02393,0.05723
6602.09519,0.05513
6600.16644,0.05219
6598.23770,0.05197
6596.30895,0.05418
6594.38021,0.05621
6592.45146,0.05712
6590.52271,0.05773
6588.59397,0.05732
6586.66522,0.05522
6584.73648,0.05348
6582.80773,0.05324
6580.87899,0.05398
6578.95024,0.05505
6577.02150,0.05584
6575.09275,0.05643
6573.16401,0.05706
6571.23526,0.05687
6569.30652,0.05567
6567.37777,0.05477
6565.44903,0.05519
6563.52028,0.05668
6561.59154,0.05821
6559.66279,0.05866
6557.73404,0.05835
6555.80530,0.05810
6553.87655,0.05780
6551.94781,0.05745
6550.01906,0.05761
6548.09032,0.05754
6546.16157,0.05614
6544.23283,0.05484
6542.30408,0.05556
6540.37534,0.05769
6538.44659,0.05881
6536.51785,0.05755
6534.58910,0.05590
6532.66036,0.05558
6530.73161,0.05609
6528.80287,0.05650
6526.87412,0.05632
6524.94537,0.05682
6523.01663,0.05896
6521.08788,0.06088
6519.15914,0.06035
6517.23039,0.05708
6515.30165,0.05412
6513.37290,0.05439
6511.44416,0.05686
6509.51541,0.05876
6507.58667,0.05884
6505.65792,0.05842
6503.72918,0.05859
6501.80043,0.05779
6499.87169,0.05474
6497.94294,0.05194
6496.01419,0.05274
6494.08545,0.05610
6492.15670,0.05808
6490.22796,0.05697
6488.29921,0.05499
6486.37047,0.05475
6484.44172,0.05555
6482.51298,0.05510
6480.58423,0.05319
6478.65549,0.05204
6476.72674,0.05329
6474.79800,0.05560
6472.86925,0.05670
6470.94051,0.05632
6469.01176,0.05645
6467.08302,0.05773
6465.15427,0.05857
6463.22552,0.05856
6461.29678,0.05767
6459.36803,0.05567
6457.43929,0.05435
6455.51054,0.05507
6453.58180,0.05571
6451.65305,0.05375
6449.72431,0.05073
6447.79556,0.04985
6445.86682,0.05192
6443.93807,0.05496
6442.00933,0.05688
6440.08058,0.05829
6438.15184,0.06017
6436.22309,0.06148
6434.29434,0.06110
6432.36560,0.05906
6430.43685,0.05689
6428.50811,0.05632
6426.57936,0.05637
6424.65062,0.05515
6422.72187,0.05413
6420.79313,0.05482
6418.86438,0.05532
6416.93564,0.05486
6415.00689,0.05522
6413.07815,0.05608
6411.14940,0.05572
6409.22066,0.05539
6407.29191,0.05724
6405.36317,0.05928
6403.43442,0.05918
6401.50567,0.05760
6399.57693,0.05643
6397.64818,0.05608
6395.71944,0.05527
6393.79069,0.05449
6391.86195,0.05479
6389.93320,0.05571
6388.00446,0.05762
6386.07571,0.05971
6384.14697,0.06045
6382.21822,0.06061
6380.28948,0.06049
6378.36073,0.05932
6376.43199,0.05728
6374.50324,0.05497
6372.57450,0.05387
6370.64575,0.05541
6368.71700,0.05796
6366.78826,0.05866
6364.85951,0.05830
6362.93077,0.05898
6361.00202,0.05928
6359.07328,0.05810
6357.14453,0.05743
6355.21579,0.05756
6353.28704,0.05722
6351.35830,0.05707
6349.42955,0.05735
6347.50081,0.05693
6345.57206,0.05607
6343.64332,0.05604
6341.71457,0.05726
6339.78582,0.05893
6337.85708,0.05969
6335.92833,0.05864
6333.99959,0.05741
6332.07084,0.05794
6330.14210,0.05893
6328.21335,0.05812
6326.28461,0.05621
6324.35586,0.05550
6322.42712,0.05571
6320.49837,0.05576
6318.56963,0.05698
6316.64088,0.05868
6314.71214,0.05846
6312.78339,0.05688
6310.85465,0.05613
6308.92590,0.05718
6306.99715,0.05827
6305.06841,0.05744
6303.13966,0.05681
6301.21092,0.05806
6299.28217,0.05864
6297.35343,0.05789
6295.42468,0.05747
6293.49594,0.05603
6291.56719,0.05385
6289.63845,0.05394
6287.70970,0.05572
6285.78096,0.05675
6283.85221,0.05705
6281.92347,0.05748
6279.99472,0.05777
6278.06598,0.05718
6276.13723,0.05659
6274.20848,0.05721
6272.27974,0.05758
6270.35099,0.05674
6268.42225,0.05680
6266.49350,0.05862
6264.56476,0.06033
6262.63601,0.05962
6260.70727,0.05757
6258.77852,0.05728
6256.84978,0.05732
6254.92103,0.05611
6252.99229,0.05585
6251.06354,0.05683
6249.13480,0.05748
6247.20605,0.05725
6245.27730,0.05666
6243.34856,0.05591
6241.41981,0.05457
6239.49107,0.05387
6237.56232,0.05520
6235.63358,0.05660
6233.70483,0.05664
6231.77609,0.05681
6229.84734,0.05732
6227.91860,0.05682
6225.98985,0.05542
6224.06111,0.05436
6222.13236,0.05380
6220.20362,0.05339
6218.27487,0.05382
6216.34613,0.05487
6214.41738,0.05582
6212.48863,0.05573
6210.55989,0.05399
6208.63114,0.05308
6206.70240,0.05507
6204.77365,0.05780
6202.84491,0.05846
6200.91616,0.05770
6198.98742,0.05773
6197.05867,0.05828
6195.12993,0.05844
6193.20118,0.05851
6191.27244,0.05887
6189.34369,0.05957
6187.41495,0.05983
6185.48620,0.05878
6183.55746,0.05716
6181.62871,0.05648
6179.69996,0.05664
6177.77122,0.05671
6175.84247,0.05659
6173.91373,0.05671
6171.98498,0.05731
6170.05624,0.05771
6168.12749,0.05753
6166.19875,0.05738
6164.27000,0.05748
6162.34126,0.05752
6160.41251,0.05768
6158.48377,0.05791
6156.55502,0.05732
6154.62628,0.05624
6152.69753,0.05592
6150.76878,0.05603
6148.84004,0.05625
6146.91129,0.05721
6144.98255,0.05884
6143.05380,0.06040
6141.12506,0.06063
6139.19631,0.05901
6137.26757,0.05705
6135.33882,0.05640
6133.41008,0.05730
6131.48133,0.05815
6129.55259,0.05799
6127.62384,0.05797
6125.69510,0.05796
6123.76635,0.05700
6121.83761,0.05637
6119.90886,0.05663
6117.98011,0.05658
6116.05137,0.05628
6114.12262,0.05634
6112.19388,0.05698
6110.26513,0.05799
6108.33639,0.05807
6106.40764,0.05818
6104.47890,0.06000
6102.55015,0.06144
6100.62141,0.06088
6098.69266,0.05980
6096.76392,0.05928
6094.83517,0.05835
6092.90643,0.05622
6090.97768,0.05491
6089.04893,0.05639
6087.12019,0.05858
6085.19144,0.05889
6083.26270,0.05816
6081.33395,0.05772
6079.40521,0.05818
6077.47646,0.05973
6075.54772,0.06025
6073.61897,0.05844
6071.69023,0.05658
6069.76148,0.05710
6067.83274,0.05907
6065.90399,0.06005
6063.97525,0.06015
6062.04650,0.06023
6060.11776,0.06006
6058.18901,0.05948
6056.26026,0.05896
6054.33152,0.05869
6052.40277,0.05775
6050.47403,0.05650
6048.54528,0.05635
6046.61654,0.05711
6044.68779,0.05825
6042.75905,0.05934
6040.83030,0.05950
6038.90156,0.05900
6036.97281,0.05900
6035.04407,0.05958
6033.11532,0.06057
6031.18658,0.06159
6029.25783,0.06111
6027.32909,0.05909
6025.40034,0.05782
6023.47159,0.05842
6021.54285,0.05958
6019.61410,0.06014
6017.68536,0.06023
6015.75661,0.05976
6013.82787,0.05855
6011.89912,0.05740
6009.97038,0.05761
6008.04163,0.05872
6006.11289,0.05886
6004.18414,0.05803
6002.25540,0.05720
6000.32665,0.05617
5998.39791,0.05538
5996.46916,0.05590
5994.54041,0.05680
5992.61167,0.05696
5990.68292,0.05731
5988.75418,0.05825
5986.82543,0.05903
5984.89669,0.05959
5982.96794,0.05989
5981.03920,0.05923
5979.11045,0.05798
5977.18171,0.05726
5975.25296,0.05730
5973.32422,0.05834
5971.39547,0.06003
5969.46673,0.06031
5967.53798,0.05865
5965.60924,0.05749
5963.68049,0.05851
5961.75174,0.05946
5959.82300,0.05779
5957.89425,0.05570
5955.96551,0.05643
5954.03676,0.05899
5952.10802,0.06073
5950.17927,0.06069
5948.25053,0.05974
5946.32178,0.05887
5944.39304,0.05815
5942.46429,0.05818
5940.53555,0.05940
5938.60680,0.06010
5936.67806,0.05938
5934.74931,0.05863
5932.82057,0.05866
5930.89182,0.05921
5928.96307,0.05990
5927.03433,0.05994
5925.10558,0.05920
5923.17684,0.05850
5921.24809,0.05879
5919.31935,0.05979
5917.39060,0.06015
5915.46186,0.05962
5913.53311,0.05872
5911.60437,0.05768
5909.67562,0.05696
5907.74688,0.05726
5905.81813,0.05854
5903.88939,0.05953
5901.96064,0.05901
5900.03189,0.05779
5898.10315,0.05754
5896.17440,0.05776
5894.24566,0.05750
5892.31691,0.05780
5890.38817,0.05898
5888.45942,0.06021
5886.53068,0.06104
5884.60193,0.06094
5882.67319,0.05962
5880.74444,0.05766
5878.81570,0.05667
5876.88695,0.05757
5874.95821,0.05927
5873.02946,0.05939
5871.10072,0.05778
5869.17197,0.05736
5867.24322,0.05893
5865.31448,0.06039
5863.38573,0.06064
5861.45699,0.05990
5859.52824,0.05898
5857.59950,0.05894
5855.67075,0.06010
5853.74201,0.06146
5851.81326,0.06225
5849.88452,0.06234
5847.95577,0.06167
5846.02703,0.06067
5844.09828,0.05987
5842.16954,0.05986
5840.24079,0.06007
5838.31205,0.05940
5836.38330,0.05889
5834.45455,0.05934
5832.52581,0.06040
5830.59706,0.06194
5828.66832,0.06252
5826.73957,0.06091
5824.81083,0.05871
5822.88208,0.05801
5820.95334,0.05873
5819.02459,0.05978
5817.09585,0.06020
5815.16710,0.05901
5813.23836,0.05693
5811.30961,0.05643
5809.38087,0.05758
5807.45212,0.05822
5805.52337,0.05817
5803.59463,0.05785
5801.66588,0.05686
5799.73714,0.05697
5797.80839,0.05900
5795.87965,0.06046
5793.95090,0.06046
5792.02216,0.06037
5790.09341,0.06083
5788.16467,0.06149
5786.23592,0.06177
5784.30718,0.06117
5782.37843,0.05992
5780.44969,0.05885
5778.52094,0.05850
5776.59220,0.05880
5774.66345,0.05949
5772.73470,0.05982
5770.80596,0.05931
5768.87721,0.05823
5766.94847,0.05754
5765.01972,0.05794
5763.09098,0.05880
5761.16223,0.05910
5759.23349,0.05889
5757.30474,0.05934
5755.37600,0.06073
5753.44725,0.06132
5751.51851,0.06051
5749.58976,0.05980
5747.66102,0.05966
5745.73227,0.05951
5743.80352,0.05939
5741.87478,0.05939
5739.94603,0.05939
5738.01729,0.05923
5736.08854,0.05899
5734.15980,0.05897
5732.23105,0.05931
5730.30231,0.06018
5728.37356,0.06120
5726.44482,0.06178
5724.51607,0.06196
5722.58733,0.06134
5720.65858,0.05980
5718.72984,0.05886
5716.80109,0.05904
5714.87235,0.05938
5712.94360,0.06003
5711.01485,0.06060
5709.08611,0.06015
5707.15736,0.05951
5705.22862,0.05926
5703.29987,0.05885
5701.37113,0.05871
5699.44238,0.05944
5697.51364,0.06065
5695.58489,0.06143
5693.65615,0.06125
5691.72740,0.05990
5689.79866,0.05821
5687.86991,0.05802
5685.94117,0.05916
5684.01242,0.06015
5682.08368,0.06058
5680.15493,0.05995
5678.22618,0.05876
5676.29744,0.05903
5674.36869,0.06045
5672.43995,0.06075
5670.51120,0.05981
5668.58246,0.05914
5666.65371,0.05935
5664.72497,0.06029
5662.79622,0.06149
5660.86748,0.06205
5658.93873,0.06180
5657.00999,0.06148
5655.08124,0.06151
5653.15250,0.06173
5651.22375,0.06228
5649.29500,0.06288
5647.36626,0.06198
5645.43751,0.05998
5643.50877,0.05980
5641.58002,0.06176
5639.65128,0.06315
5637.72253,0.06280
5635.79379,0.06185
5633.86504,0.06126
5631.93630,0.06086
5630.00755,0.06071
5628.07881,0.06148
5626.15006,0.06292
5624.22132,0.06366
5622.29257,0.06231
5620.36383,0.05995
5618.43508,0.05916
5616.50633,0.05996
5614.57759,0.06098
5612.64884,0.06240
5610.72010,0.06371
5608.79135,0.06337
5606.86261,0.06174
5604.93386,0.06064
5603.00512,0.06075
5601.07637,0.06135
5599.14763,0.06180
5597.21888,0.06165
5595.29014,0.06117
5593.36139,0.06116
5591.43265,0.06107
5589.50390,0.06071
5587.57516,0.06092
5585.64641,0.06159
5583.71766,0.06191
5581.78892,0.06159
5579.86017,0.06109
5577.93143,0.06077
5576.00268,0.06024
5574.07394,0.05948
5572.14519,0.05895
5570.21645,0.05907
5568.28770,0.05992
5566.35896,0.06081
5564.43021,0.06111
5562.50147,0.06106
5560.57272,0.06110
5558.64398,0.06143
5556.71523,0.06185
5554.78648,0.06184
5552.85774,0.06166
5550.92899,0.06162
5549.00025,0.06163
5547.07150,0.06201
5545.14276,0.06290
5543.21401,0.06346
5541.28527,0.06283
5539.35652,0.06147
5537.42778,0.06031
5535.49903,0.05981
5533.57029,0.06015
5531.64154,0.06105
5529.71280,0.06185
5527.78405,0.06209
5525.85531,0.06194
5523.92656,0.06160
5521.99781,0.06082
5520.06907,0.06020
5518.14032,0.06081
5516.21158,0.06215
5514.28283,0.06268
5512.35409,0.06202
5510.42534,0.06122
5508.49660,0.06121
5506.56785,0.06168
5504.63911,0.06160
5502.71036,0.06076
5500.78162,0.06040
5498.85287,0.06144
5496.92413,0.06256
5494.99538,0.06224
5493.06664,0.06115
5491.13789,0.06032
5489.20914,0.06022
5487.28040,0.06143
5485.35165,0.06297
5483.42291,0.06318
5481.49416,0.06244
5479.56542,0.06171
5477.63667,0.06109
5475.70793,0.06092
5473.77918,0.06142
5471.85044,0.06189
5469.92169,0.06196
5467.99295,0.06201
5466.06420,0.06180
5464.13546,0.06098
5462.20671,0.06058
5460.27796,0.06124
5458.34922,0.06227
5456.42047,0.06311
5454.49173,0.06315
5452.56298,0.06206
5450.63424,0.06097
5448.70549,0.06130
5446.77675,0.06272
5444.84800,0.06341
5442.91926,0.06308
5440.99051,0.06275
5439.06177,0.06263
5437.13302,0.06258
5435.20428,0.06254
5433.27553,0.06267
5431.34679,0.06290
5429.41804,0.06282
5427.48929,0.06266
5425.56055,0.06263
5423.63180,0.06246
5421.70306,0.06219
5419.77431,0.06229
5417.84557,0.06294
5415.91682,0.06345
5413.98808,0.06300
5412.05933,0.06199
5410.13059,0.06158
5408.20184,0.06213
5406.27310,0.06313
5404.34435,0.06368
5402.41561,0.06298
5400.48686,0.06210
5398.55811,0.06249
5396.62937,0.06306
5394.70062,0.06251
5392.77188,0.06183
5390.84313,0.06184
5388.91439,0.06173
5386.98564,0.06151
5385.05690,0.06177
5383.12815,0.06165
5381.19941,0.06109
5379.27066,0.06135
5377.34192,0.06227
5375.41317,0.06262
5373.48443,0.06230
5371.55568,0.06210
5369.62694,0.06202
5367.69819,0.06150
5365.76944,0.06128
5363.84070,0.06225
5361.91195,0.06358
5359.98321,0.06332
5358.05446,0.06158
5356.12572,0.06087
5354.19697,0.06203
5352.26823,0.06307
5350.33948,0.06249
5348.41074,0.06107
5346.48199,0.06049
5344.55325,0.06121
5342.62450,0.06232
5340.69576,0.06293
5338.76701,0.06288
5336.83827,0.06245
5334.90952,0.06251
5332.98077,0.06307
5331.05203,0.06314
5329.12328,0.06238
5327.19454,0.06135
5325.26579,0.06094
5323.33705,0.06138
5321.40830,0.06197
5319.47956,0.06256
5317.55081,0.06338
5315.62207,0.06379
5313.69332,0.06315
5311.76458,0.06223
5309.83583,0.06181
5307.90709,0.06196
5305.97834,0.06267
5304.04959,0.06328
5302.12085,0.06320
5300.19210,0.06304
5298.26336,0.06318
5296.33461,0.06302
5294.40587,0.06203
5292.47712,0.06106
5290.54838,0.06136
5288.61963,0.06254
5286.69089,0.06332
5284.76214,0.06343
5282.83340,0.06290
5280.90465,0.06204
5278.97591,0.06161
5277.04716,0.06181
5275.11842,0.06217
5273.18967,0.06216
5271.26092,0.06170
5269.33218,0.06122
5267.40343,0.06098
5265.47469,0.06095
5263.54594,0.06115
5261.61720,0.06183
5259.68845,0.06254
5257.75971,0.06250
5255.83096,0.06213
5253.90222,0.06206
5251.97347,0.06226
5250.04473,0.06276
5248.11598,0.06314
5246.18724,0.06296
5244.25849,0.06236
5242.32975,0.06184
5240.40100,0.06231
5238.47225,0.06355
5236.54351,0.06406
5234.61476,0.06359
5232.68602,0.06310
5230.75727,0.06303
5228.82853,0.06332
5226.89978,0.06373
5224.97104,0.06381
5223.04229,0.06322
5221.11355,0.06260
5219.18480,0.06276
5217.25606,0.06324
5215.32731,0.06344
5213.39857,0.06366
5211.46982,0.06404
5209.54107,0.06430
5207.61233,0.06407
5205.68358,0.06318
5203.75484,0.06221
5201.82609,0.06155
5199.89735,0.06100
5197.96860,0.06090
5196.03986,0.06151
5194.11111,0.06221
5192.18237,0.06271
5190.25362,0.06324
5188.32488,0.06377
5186.39613,0.06423
5184.46739,0.06427
5182.53864,0.06360
5180.60990,0.06307
5178.68115,0.06351
5176.75240,0.06434
5174.82366,0.06470
5172.89491,0.06416
5170.96617,0.06319
5169.03742,0.06295
5167.10868,0.06337
5165.17993,0.06360
5163.25119,0.06359
5161.32244,0.06337
5159.39370,0.06292
5157.46495,0.06258
5155.53621,0.06258
5153.60746,0.06287
5151.67872,0.06302
5149.74997,0.06274
5147.82123,0.06222
5145.89248,0.06180
5143.96373,0.06157
5142.03499,0.06167
5140.10624,0.06218
5138.17750,0.06253
5136.24875,0.06226
5134.32001,0.06170
5132.39126,0.06140
5130.46252,0.06156
5128.53377,0.06213
5126.60503,0.06284
5124.67628,0.06335
5122.74754,0.06348
5120.81879,0.06322
5118.89005,0.06281
5116.96130,0.06261
5115.03255,0.06265
5113.10381,0.06263
5111.17506,0.06231
5109.24632,0.06246
5107.31757,0.06347
5105.38883,0.06413
5103.46008,0.06405
5101.53134,0.06358
5099.60259,0.06255
5097.67385,0.06171
5095.74510,0.06210
5093.81636,0.06308
5091.88761,0.06350
5089.95887,0.06322
5088.03012,0.06294
5086.10138,0.06311
5084.17263,0.06357
5082.24388,0.06401
5080.31514,0.06430
5078.38639,0.06436
5076.45765,0.06438
5074.52890,0.06436
5072.60016,0.06398
5070.67141,0.06339
5068.74267,0.06319
5066.81392,0.06342
5064.88518,0.06357
5062.95643,0.06359
5061.02769,0.06392
5059.09894,0.06456
5057.17020,0.06494
5055.24145,0.06477
5053.31270,0.06414
5051.38396,0.06352
5049.45521,0.06357
5047.52647,0.06403
5045.59772,0.06393
5043.66898,0.06351
5041.74023,0.06353
5039.81149,0.06364
5037.88274,0.06368
5035.95400,0.06428
5034.02525,0.06497
5032.09651,0.06474
5030.16776,0.06375
5028.23902,0.06308
5026.31027,0.06337
5024.38153,0.06390
5022.45278,0.06369
5020.52403,0.06340
5018.59529,0.06383
5016.66654,0.06422
5014.73780,0.06427
5012.80905,0.06450
5010.88031,0.06449
5008.95156,0.06368
5007.02282,0.06274
5005.09407,0.06272
5003.16533,0.06356
5001.23658,0.06437
4999.30784,0.06473
4997.37909,0.06477
4995.45035,0.06453
4993.52160,0.06404
4991.59286,0.06353
4989.66411,0.06292
4987.73536,0.06232
4985.80662,0.06235
4983.87787,0.06297
4981.94913,0.06362
4980.02038,0.06401
4978.09164,0.06407
4976.16289,0.06384
4974.23415,0.06341
4972.30540,0.06320
4970.37666,0.06312
4968.44791,0.06277
4966.51917,0.06277
4964.59042,0.06351
4962.66168,0.06411
4960.73293,0.06397
4958.80418,0.06371
4956.87544,0.06411
4954.94669,0.06489
4953.01795,0.06527
4951.08920,0.06505
4949.16046,0.06458
4947.23171,0.06419
4945.30297,0.06399
4943.37422,0.06414
4941.44548,0.06454
4939.51673,0.06509
4937.58799,0.06584
4935.65924,0.06613
4933.73050,0.06541
4931.80175,0.06457
4929.87301,0.06449
4927.94426,0.06476
4926.01551,0.06494
4924.08677,0.06494
4922.15802,0.06482
4920.22928,0.06498
4918.30053,0.06533
4916.37179,0.06506
4914.44304,0.06414
4912.51430,0.06375
4910.58555,0.06445
4908.65681,0.06515
4906.72806,0.06479
4904.79932,0.06398
4902.87057,0.06388
4900.94183,0.06425
4899.01308,0.06431
4897.08434,0.06420
4895.15559,0.06414
4893.22684,0.06396
4891.29810,0.06382
4889.36935,0.06402
4887.44061,0.06467
4885.51186,0.06517
4883.58312,0.06488
4881.65437,0.06421
4879.72563,0.06392
4877.79688,0.06417
4875.86814,0.06471
4873.93939,0.06520
4872.01065,0.06553
4870.08190,0.06565
4868.15316,0.06544
4866.22441,0.06511
4864.29566,0.06496
4862.36692,0.06496
4860.43817,0.06506
4858.50943,0.06516
4856.58068,0.06508
4854.65194,0.06509
4852.72319,0.06553
4850.79445,0.06618
4848.86570,0.06653
4846.93696,0.06657
4845.00821,0.06639
4843.07947,0.06583
4841.15072,0.06536
4839.22198,0.06541
4837.29323,0.06532
4835.36449,0.06494
4833.43574,0.06490
4831.50699,0.06493
4829.57825,0.06481
4827.64950,0.06512
4825.72076,0.06562
4823.79201,0.06558
4821.86327,0.06507
4819.93452,0.06456
4818.00578,0.06439
4816.07703,0.06438
4814.14829,0.06446
4812.21954,0.06487
4810.29080,0.06511
4808.36205,0.06472
4806.43331,0.06424
4804.50456,0.06426
4802.57582,0.06480
4800.64707,0.06549
4798.71832,0.06590
4796.78958,0.06597
4794.86083,0.06600
4792.93209,0.06601
4791.00334,0.06581
4789.07460,0.06569
4787.14585,0.06564
4785.21711,0.06534
4783.28836,0.06540
4781.35962,0.06595
4779.43087,0.06603
4777.50213,0.06581
4775.57338,0.06609
4773.64464,0.06651
4771.71589,0.06637
4769.78714,0.06588
4767.85840,0.06574
4765.92965,0.06594
4764.00091,0.06596
4762.07216,0.06589
4760.14342,0.06600
4758.21467,0.06591
4756.28593,0.06530
4754.35718,0.06483
4752.42844,0.06502
4750.49969,0.06541
4748.57095,0.06558
4746.64220,0.06566
4744.71346,0.06582
4742.78471,0.06595
4740.85597,0.06589
4738.92722,0.06584
4736.99847,0.06602
4735.06973,0.06619
4733.14098,0.06612
4731.21224,0.06591
4729.28349,0.06566
4727.35475,0.06550
4725.42600,0.06548
4723.49726,0.06535
4721.56851,0.06531
4719.63977,0.06574
4717.71102,0.06632
4715.78228,0.06654
4713.85353,0.06630
4711.92479,0.06598
4709.99604,0.06598
4708.06729,0.06602
4706.13855,0.06579
4704.20980,0.06556
4702.28106,0.06560
4700.35231,0.06572
4698.42357,0.06586
4696.49482,0.06606
4694.56608,0.06603
4692.63733,0.06584
4690.70859,0.06630
4688.77984,0.06711
4686.85110,0.06722
4684.92235,0.06684
4682.99361,0.06644
4681.06486,0.06598
4679.13612,0.06559
4677.20737,0.06537
4675.27862,0.06516
4673.34988,0.06490
4671.42113,0.06489
4669.49239,0.06511
4667.56364,0.06520
4665.63490,0.06518
4663.70615,0.06552
4661.77741,0.06637
4659.84866,0.06692
4657.91992,0.06679
4655.99117,0.06653
4654.06243,0.06655
4652.13368,0.06687
4650.20494,0.06707
4648.27619,0.06675
4646.34745,0.06602
4644.41870,0.06527
4642.48995,0.06496
4640.56121,0.06523
4638.63246,0.06569
4636.70372,0.06575
4634.77497,0.06558
4632.84623,0.06572
4630.91748,0.06601
4628.98874,0.06627
4627.05999,0.06646
4625.13125,0.06632
4623.20250,0.06596
4621.27376,0.06591
4619.34501,0.06617
4617.41627,0.06637
4615.48752,0.06636
4613.55877,0.06614
4611.63003,0.06587
4609.70128,0.06588
4607.77254,0.06618
4605.84379,0.06639
4603.91505,0.06641
4601.98630,0.06624
4600.05756,0.06601
4598.12881,0.06635
4596.20007,0.06722
4594.27132,0.06739
4592.34258,0.06659
4590.41383,0.06596
4588.48509,0.06587
4586.55634,0.06566
4584.62760,0.06534
4582.69885,0.06543
4580.77010,0.06579
4578.84136,0.06586
4576.91261,0.06558
4574.98387,0.06551
4573.05512,0.06568
4571.12638,0.06566
4569.19763,0.06552
4567.26889,0.06536
4565.34014,0.06518
4563.41140,0.06502
4561.48265,0.06500
4559.55391,0.06509
4557.62516,0.06507
4555.69642,0.06517
4553.76767,0.06530
4551.83893,0.06516
4549.91018,0.06506
4547.98143,0.06508
4546.05269,0.06503
4544.12394,0.06530
4542.19520,0.06594
4540.26645,0.06634
4538.33771,0.06613
4536.40896,0.06577
4534.48022,0.06569
4532.55147,0.06576
4530.62273,0.06578
4528.69398,0.06562
4526.76524,0.06519
4524.83649,0.06498
4522.90775,0.06543
4520.97900,0.06588
4519.05025,0.06563
4517.12151,0.06518
4515.19276,0.06507
4513.26402,0.06511
4511.33527,0.06477
4509.40653,0.06425
4507.47778,0.06407
4505.54904,0.06400
4503.62029,0.06385
4501.69155,0.06396
4499.76280,0.06433
4497.83406,0.06474
4495.90531,0.06514
4493.97657,0.06531
4492.04782,0.06516
4490.11908,0.06527
4488.19033,0.06563
4486.26158,0.06568
4484.33284,0.06547
4482.40409,0.06505
4480.47535,0.06437
4478.54660,0.06388
4476.61786,0.06414
4474.68911,0.06487
4472.76037,0.06501
4470.83162,0.06440
4468.90288,0.06408
4466.97413,0.06432
4465.04539,0.06427
4463.11664,0.06384
4461.18790,0.06341
4459.25915,0.06305
4457.33041,0.06287
4455.40166,0.06278
4453.47291,0.06250
4451.54417,0.06194
4449.61542,0.06143
4447.68668,0.06135
4445.75793,0.06140
4443.82919,0.06123
4441.90044,0.06103
4439.97170,0.06100
4438.04295,0.06104
4436.11421,0.06098
4434.18546,0.06092
4432.25672,0.06107
4430.32797,0.06138
4428.39923,0.06172
4426.47048,0.06184
4424.54173,0.06164
4422.61299,0.06158
4420.68424,0.06195
4418.75550,0.06238
4416.82675,0.06248
4414.89801,0.06237
4412.96926,0.06216
4411.04052,0.06188
4409.11177,0.06164
4407.18303,0.06154
4405.25428,0.06168
4403.32554,0.06183
4401.39679,0.06155
4399.46805,0.06133
4397.53930,0.06164
4395.61056,0.06203
4393.68181,0.06217
4391.75306,0.06210
4389.82432,0.06203
4387.89557,0.06227
4385.96683,0.06257
4384.03808,0.06248
4382.10934,0.06225
4380.18059,0.06211
4378.25185,0.06187
4376.32310,0.06176
4374.39436,0.06196
4372.46561,0.06185
4370.53687,0.06134
4368.60812,0.06127
4366.67938,0.06166
4364.75063,0.06173
4362.82189,0.06128
4360.89314,0.06094
4358.96439,0.06111
4357.03565,0.06117
4355.10690,0.06083
4353.17816,0.06057
4351.24941,0.06055
4349.32067,0.06061
4347.39192,0.06067
4345.46318,0.06070
4343.53443,0.06051
4341.60569,0.06000
4339.67694,0.05956
4337.74820,0.05941
4335.81945,0.05923
4333.89071,0.05894
4331.96196,0.05886
4330.03321,0.05912
4328.10447,0.05933
4326.17572,0.05911
4324.24698,0.05878
4322.31823,0.05865
4320.38949,0.05864
4318.46074,0.05880
4316.53200,0.05884
4314.60325,0.05851
4312.67451,0.05835
4310.74576,0.05863
4308.81702,0.05878
4306.88827,0.05844
4304.95953,0.05803
4303.03078,0.05793
4301.10204,0.05804
4299.17329,0.05804
4297.24454,0.05798
4295.31580,0.05799
4293.38705,0.05783
4291.45831,0.05749
4289.52956,0.05727
4287.60082,0.05723
4285.67207,0.05738
4283.74333,0.05739
4281.81458,0.05695
4279.88584,0.05656
4277.95709,0.05667
4276.02835,0.05691
4274.09960,0.05695
4272.17086,0.05699
4270.24211,0.05723
4268.31336,0.05745
4266.38462,0.05743
4264.45587,0.05733
4262.52713,0.05744
4260.59838,0.05761
4258.66964,0.05751
4256.74089,0.05727
4254.81215,0.05735
4252.88340,0.05798
4250.95466,0.05882
4249.02591,0.05955
4247.09717,0.06022
4245.16842,0.06055
4243.23968,0.06037
4241.31093,0.06031
4239.38219,0.06060
4237.45344,0.06074
4235.52469,0.06058
4233.59595,0.06049
4231.66720,0.06049
4229.73846,0.06040
4227.80971,0.06058
4225.88097,0.06097
4223.95222,0.06107
4222.02348,0.06117
4220.09473,0.06167
4218.16599,0.06208
4216.23724,0.06203
4214.30850,0.06181
4212.37975,0.06171
4210.45101,0.06176
4208.52226,0.06190
4206.59352,0.06205
4204.66477,0.06218
4202.73602,0.06222
4200.80728,0.06210
4198.87853,0.06187
4196.94979,0.06170
4195.02104,0.06169
4193.09230,0.06182
4191.16355,0.06218
4189.23481,0.06278
4187.30606,0.06325
4185.37732,0.06319
4183.44857,0.06270
4181.51983,0.06234
4179.59108,0.06237
4177.66234,0.06244
4175.73359,0.06231
4173.80484,0.06217
4171.87610,0.06220
4169.94735,0.06228
4168.01861,0.06240
4166.08986,0.06259
4164.16112,0.06262
4162.23237,0.06260
4160.30363,0.06282
4158.37488,0.06296
4156.44614,0.06286
4154.51739,0.06298
4152.58865,0.06322
4150.65990,0.06309
4148.73116,0.06270
4146.80241,0.06239
4144.87367,0.06225
4142.94492,0.06239
4141.01617,0.06267
4139.08743,0.06289
4137.15868,0.06307
4135.22994,0.06326
4133.30119,0.06349
4131.37245,0.06383
4129.44370,0.06424
4127.51496,0.06449
4125.58621,0.06445
4123.65747,0.06429
4121.72872,0.06410
4119.79998,0.06384
4117.87123,0.06361
4115.94249,0.06355
4114.01374,0.06347
4112.08500,0.06320
4110.15625,0.06306
4108.22750,0.06337
4106.29876,0.06380
4104.37001,0.06399
4102.44127,0.06399
4100.51252,0.06393
4098.58378,0.06386
4096.65503,0.06377
4094.72629,0.06368
4092.79754,0.06359
4090.86880,0.06342
4088.94005,0.06326
4087.01131,0.06318
4085.08256,0.06318
4083.15382,0.06318
4081.22507,0.06313
4079.29632,0.06295
4077.36758,0.06271
4075.43883,0.06270
4073.51009,0.06283
4071.58134,0.06280
4069.65260,0.06268
4067.72385,0.06253
4065.79511,0.06249
4063.86636,0.06269
4061.93762,0.06270
4060.00887,0.06243
4058.08013,0.06240
4056.15138,0.06253
4054.22264,0.06237
4052.29389,0.06212
4050.36515,0.06213
4048.43640,0.06225
4046.50765,0.06219
4044.57891,0.06193
4042.65016,0.06180
4040.72142,0.06202
4038.79267,0.06231
4036.86393,0.06226
4034.93518,0.06188
4033.00644,0.06166
4031.07769,0.06191
4029.14895,0.06220
4027.22020,0.06215
4025.29146,0.06199
4023.36271,0.06206
4021.43397,0.06233
4019.50522,0.06233
4017.57648,0.06183
4015.64773,0.06119
4013.71898,0.06094
4011.79024,0.06127
4009.86149,0.06187
4007.93275,0.06232
4006.00400,0.06243
4004.07526,0.06237
4002.14651,0.06243
4000.21777,0.06231
3998.28902,0.06176
3996.36028,0.06124
3994.43153,0.06130
3992.50279,0.06173
3990.57404,0.06183
3988.64530,0.06156
3986.71655,0.06135
3984.78780,0.06122
3982.85906,0.06123
3980.93031,0.06166
3979.00157,0.06214
3977.07282,0.06189
3975.14408,0.06089
3973.21533,0.06024
3971.28659,0.06065
3969.35784,0.06149
3967.42910,0.06212
3965.50035,0.06247
3963.57161,0.06248
3961.64286,0.06223
3959.71412,0.06173
3957.78537,0.06116
3955.85663,0.06112
3953.92788,0.06153
3951.99913,0.06180
3950.07039,0.06188
3948.14164,0.06199
3946.21290,0.06208
3944.28415,0.06215
3942.35541,0.06215
3940.42666,0.06194
3938.49792,0.06163
3936.56917,0.06154
3934.64043,0.06163
3932.71168,0.06162
3930.78294,0.06163
3928.85419,0.06179
3926.92545,0.06183
3924.99670,0.06172
3923.06795,0.06171
3921.13921,0.06171
3919.21046,0.06161
3917.28172,0.06160
3915.35297,0.06179
3913.42423,0.06200
3911.49548,0.06207
3909.56674,0.06196
3907.63799,0.06176
3905.70925,0.06170
3903.78050,0.06198
3901.85176,0.06220
3899.92301,0.06200
3897.99427,0.06186
3896.06552,0.06206
3894.13678,0.06230
3892.20803,0.06247
3890.27928,0.06240
3888.35054,0.06207
3886.42179,0.06178
3884.49305,0.06163
3882.56430,0.06175
3880.63556,0.06201
3878.70681,0.06195
3876.77807,0.06161
3874.84932,0.06142
3872.92058,0.06144
3870.99183,0.06165
3869.06309,0.06215
3867.13434,0.06258
3865.20560,0.06259
3863.27685,0.06230
3861.34811,0.06203
3859.41936,0.06198
3857.49061,0.06213
3855.56187,0.06221
3853.63312,0.06200
3851.70438,0.06171
3849.77563,0.06179
3847.84689,0.06210
3845.91814,0.06226
3843.98940,0.06221
3842.06065,0.06206
3840.13191,0.06185
3838.20316,0.06180
3836.27442,0.06185
3834.34567,0.06178
3832.41693,0.06183
3830.48818,0.06205
3828.55943,0.06210
3826.63069,0.06186
3824.70194,0.06165
3822.77320,0.06163
3820.84445,0.06172
3818.91571,0.06191
3816.98696,0.06197
3815.05822,0.06181
3813.12947,0.06160
3811.20073,0.06159
3809.27198,0.06189
3807.34324,0.06222
3805.41449,0.06229
3803.48575,0.06227
3801.55700,0.06222
3799.62826,0.06216
3797.69951,0.06217
3795.77076,0.06226
3793.84202,0.06232
3791.91327,0.06226
3789.98453,0.06225
3788.05578,0.06231
3786.12704,0.06231
3784.19829,0.06235
3782.26955,0.06234
3780.34080,0.06207
3778.41206,0.06180
3776.48331,0.06171
3774.55457,0.06173
3772.62582,0.06192
3770.69708,0.06223
3768.76833,0.06233
3766.83959,0.06208
3764.91084,0.06165
3762.98209,0.06140
3761.05335,0.06145
3759.12460,0.06158
3757.19586,0.06154
3755.26711,0.06112
3753.33837,0.06070
3751.40962,0.06089
3749.48088,0.06151
3747.55213,0.06184
3745.62339,0.06164
3743.69464,0.06119
3741.76590,0.06097
3739.83715,0.06082
3737.90841,0.06045
3735.97966,0.05995
3734.05091,0.05969
3732.12217,0.05970
3730.19342,0.05963
3728.26468,0.05940
3726.33593,0.05924
3724.40719,0.05907
3722.47844,0.05861
3720.54970,0.05803
3718.62095,0.05770
3716.69221,0.05763
3714.76346,0.05741
3712.83472,0.05665
3710.90597,0.05564
3708.97723,0.05481
3707.04848,0.05393
3705.11974,0.05291
3703.19099,0.05185
3701.26224,0.05076
3699.33350,0.04989
3697.40475,0.04943
3695.47601,0.04897
3693.54726,0.04837
3691.61852,0.04798
3689.68977,0.04767
3687.76103,0.04717
3685.83228,0.04665
3683.90354,0.04621
3681.97479,0.04590
3680.04605,0.04576
3678.11730,0.04564
3676.18856,0.04532
3674.25981,0.04485
3672.33107,0.04459
3670.40232,0.04468
3668.47357,0.04483
3666.54483,0.04465
3664.61608,0.04411
3662.68734,0.04350
3660.75859,0.04324
3658.82985,0.04343
3656.90110,0.04369
3654.97236,0.04360
3653.04361,0.04336
3651.11487,0.04322
3649.18612,0.04321
3647.25738,0.04326
3645.32863,0.04309
3643.39989,0.04270
3641.47114,0.04242
3639.54239,0.04233
3637.61365,0.04239
3635.68490,0.04257
3633.75616,0.04261
3631.82741,0.04248
3629.89867,0.04233
3627.96992,0.04210
3626.04118,0.04195
3624.11243,0.04195
3622.18369,0.04178
3620.25494,0.04152
3618.32620,0.04155
3616.39745,0.04162
3614.46871,0.04156
3612.53996,0.04152
3610.61122,0.04167
3608.68247,0.04200
3606.75372,0.04226
3604.82498,0.04223
3602.89623,0.04209
3600.96749,0.04192
3599.03874,0.04162
3597.11000,0.04124
3595.18125,0.04083
3593.25251,0.04064
3591.32376,0.04069
3589.39502,0.04055
3587.46627,0.04022
3585.53753,0.04013
3583.60878,0.04034
3581.68004,0.04043
3579.75129,0.04026
3577.82254,0.03995
3575.89380,0.03957
3573.96505,0.03939
3572.03631,0.03963
3570.10756,0.03984
3568.17882,0.03971
3566.25007,0.03955
3564.32133,0.03957
3562.39258,0.03952
3560.46384,0.03939
3558.53509,0.03935
3556.60635,0.03943
3554.67760,0.03963
3552.74886,0.03984
3550.82011,0.03977
3548.89137,0.03939
3546.96262,0.03891
3545.03387,0.03861
3543.10513,0.03873
3541.17638,0.03928
3539.24764,0.03967
3537.31889,0.03951
3535.39015,0.03940
3533.46140,0.03974
3531.53266,0.03979
3529.60391,0.03920
3527.67517,0.03864
3525.74642,0.03870
3523.81768,0.03915
3521.88893,0.03934
3519.96019,0.03912
3518.03144,0.03914
3516.10270,0.03956
3514.17395,0.03968
3512.24520,0.03931
3510.31646,0.03907
3508.38771,0.03923
3506.45897,0.03949
3504.53022,0.03972
3502.60148,0.03967
3500.67273,0.03911
3498.74399,0.03854
3496.81524,0.03836
3494.88650,0.03849
3492.95775,0.03878
3491.02901,0.03885
3489.10026,0.03851
3487.17152,0.03833
3485.24277,0.03869
3483.31402,0.03915
3481.38528,0.03921
3479.45653,0.03890
3477.52779,0.03858
3475.59904,0.03849
3473.67030,0.03862
3471.74155,0.03874
3469.81281,0.03883
3467.88406,0.03902
3465.95532,0.03916
3464.02657,0.03915
3462.09783,0.03928
3460.16908,0.03940
3458.24034,0.03913
3456.31159,0.03884
3454.38285,0.03876
3452.45410,0.03854
3450.52535,0.03825
3448.59661,0.03817
3446.66786,0.03821
3444.73912,0.03848
3442.81037,0.03906
3440.88163,0.03936
3438.95288,0.03902
3437.02414,0.03861
3435.09539,0.03852
3433.16665,0.03842
3431.23790,0.03820
3429.30916,0.03815
3427.38041,0.03824
3425.45167,0.03829
3423.52292,0.03828
3421.59418,0.03825
3419.66543,0.03828
3417.73668,0.03829
3415.80794,0.03837
3413.87919,0.03872
3411.95045,0.03893
3410.02170,0.03867
3408.09296,0.03832
3406.16421,0.03808
3404.23547,0.03782
3402.30672,0.03771
3400.37798,0.03788
3398.44923,0.03800
3396.52049,0.03797
3394.59174,0.03795
3392.66300,0.03793
3390.73425,0.03794
3388.80550,0.03802
3386.87676,0.03827
3384.94801,0.03868
3383.01927,0.03894
3381.09052,0.03880
3379.16178,0.03850
3377.23303,0.03833
3375.30429,0.03832
3373.37554,0.03846
3371.44680,0.03866
3369.51805,0.03851
3367.58931,0.03813
3365.66056,0.03812
3363.73182,0.03856
3361.80307,0.03891
3359.87433,0.03889
3357.94558,0.03856
3356.01683,0.03823
3354.08809,0.03833
3352.15934,0.03865
3350.23060,0.03864
3348.30185,0.03837
3346.37311,0.03821
3344.44436,0.03828
3342.51562,0.03847
3340.58687,0.03869
3338.65813,0.03892
3336.72938,0.03910
3334.80064,0.03909
3332.87189,0.03884
3330.94315,0.03839
3329.01440,0.03787
3327.08566,0.03766
3325.15691,0.03803
3323.22816,0.03860
3321.29942,0.03898
3319.37067,0.03938
3317.44193,0.03995
3315.51318,0.04018
3313.58444,0.03986
3311.65569,0.03968
3309.72695,0.03983
3307.79820,0.03971
3305.86946,0.03935
3303.94071,0.03919
3302.01197,0.03926
3300.08322,0.03933
3298.15448,0.03924
3296.22573,0.03918
3294.29698,0.03926
3292.36824,0.03930
3290.43949,0.03924
3288.51075,0.03918
3286.58200,0.03924
3284.65326,0.03934
3282.72451,0.03924
3280.79577,0.03915
3278.86702,0.03941
3276.93828,0.03979
3275.00953,0.04006
3273.08079,0.04019
3271.15204,0.03994
3269.22330,0.03955
3267.29455,0.03970
3265.36581,0.04012
3263.43706,0.04033
3261.50831,0.04054
3259.57957,0.04067
3257.65082,0.04061
3255.72208,0.04064
3253.79333,0.04073
3251.86459,0.04057
3249.93584,0.04033
3248.00710,0.04034
3246.07835,0.04037
3244.14961,0.04026
3242.22086,0.04033
3240.29212,0.04067
3238.36337,0.04107
3236.43463,0.04145
3234.50588,0.04159
3232.57713,0.04136
3230.64839,0.04129
3228.71964,0.04168
3226.79090,0.04203
3224.86215,0.04183
3222.93341,0.04141
3221.00466,0.04124
3219.07592,0.04141
3217.14717,0.04169
3215.21843,0.04169
3213.28968,0.04156
3211.36094,0.04162
3209.43219,0.04172
3207.50345,0.04171
3205.57470,0.04180
3203.64596,0.04203
3201.71721,0.04214
3199.78846,0.04230
3197.85972,0.04264
3195.93097,0.04275
3194.00223,0.04249
3192.07348,0.04230
3190.14474,0.04241
3188.21599,0.04274
3186.28725,0.04320
3184.35850,0.04348
3182.42976,0.04322
3180.50101,0.04279
3178.57227,0.04261
3176.64352,0.04270
3174.71478,0.04290
3172.78603,0.04314
3170.85729,0.04333
3168.92854,0.04336
3166.99979,0.04350
3165.07105,0.04399
3163.14230,0.04446
3161.21356,0.04459
3159.28481,0.04431
3157.35607,0.04380
3155.42732,0.04354
3153.49858,0.04367
3151.56983,0.04384
3149.64109,0.04385
3147.71234,0.04380
3145.78360,0.04390
3143.85485,0.04416
3141.92611,0.04441
3139.99736,0.04455
3138.06861,0.04457
3136.13987,0.04448
3134.21112,0.04438
3132.28238,0.04448
3130.35363,0.04484
3128.42489,0.04511
3126.49614,0.04510
3124.56740,0.04506
3122.63865,0.04519
3120.70991,0.04547
3118.78116,0.04569
3116.85242,0.04566
3114.92367,0.04538
3112.99493,0.04514
3111.06618,0.04521
3109.13744,0.04542
3107.20869,0.04540
3105.27994,0.04521
3103.35120,0.04520
3101.42245,0.04549
3099.49371,0.04585
3097.56496,0.04597
3095.63622,0.04592
3093.70747,0.04597
3091.77873,0.04610
3089.84998,0.04618
3087.92124,0.04622
3085.99249,0.04624
3084.06375,0.04628
3082.13500,0.04627
3080.20626,0.04616
3078.27751,0.04614
3076.34877,0.04625
3074.42002,0.04627
3072.49127,0.04613
3070.56253,0.04603
3068.63378,0.04629
3066.70504,0.04688
3064.77629,0.04737
3062.84755,0.04745
3060.91880,0.04728
3058.99006,0.04716
3057.06131,0.04711
3055.13257,0.04710
3053.20382,0.04716
3051.27508,0.04723
3049.34633,0.04731
3047.41759,0.04740
3045.48884,0.04737
3043.56009,0.04724
3041.63135,0.04726
3039.70260,0.04750
3037.77386,0.04773
3035.84511,0.04771
3033.91637,0.04758
3031.98762,0.04769
3030.05888,0.04785
3028.13013,0.04776
3026.20139,0.04775
3024.27264,0.04809
3022.34390,0.04845
3020.41515,0.04857
3018.48641,0.04850
3016.55766,0.04845
3014.62892,0.04847
3012.70017,0.04819
3010.77142,0.04774
3008.84268,0.04779
3006.91393,0.04819
3004.98519,0.04835
3003.05644,0.04827
3001.12770,0.04809
2999.19895,0.04777
2997.27021,0.04741
2995.34146,0.04710
2993.41272,0.04695
2991.48397,0.04715
2989.55523,0.04732
2987.62648,0.04710
2985.69774,0.04685
2983.76899,0.04691
2981.84025,0.04698
2979.91150,0.04677
2977.98275,0.04637
2976.05401,0.04598
2974.12526,0.04561
2972.19652,0.04506
2970.26777,0.04450
2968.33903,0.04412
2966.41028,0.04377
2964.48154,0.04354
2962.55279,0.04347
2960.62405,0.04330
2958.69530,0.04319
2956.76656,0.04335
2954.83781,0.04345
2952.90907,0.04331
2950.98032,0.04318
2949.05157,0.04319
2947.12283,0.04313
2945.19408,0.04288
2943.26534,0.04249
2941.33659,0.04217
2939.40785,0.04196
2937.47910,0.04176
2935.55036,0.04159
2933.62161,0.04157
2931.69287,0.04177
2929.76412,0.04208
2927.83538,0.04216
2925.90663,0.04224
2923.97789,0.04267
2922.04914,0.04319
2920.12040,0.04351
2918.19165,0.04381
2916.26290,0.04434
2914.33416,0.04500
2912.40541,0.04537
2910.47667,0.04546
2908.54792,0.04557
2906.61918,0.04569
2904.69043,0.04583
2902.76169,0.04615
2900.83294,0.04655
2898.90420,0.04681
2896.97545,0.04691
2895.04671,0.04683
2893.11796,0.04678
2891.18922,0.04699
2889.26047,0.04730
2887.33172,0.04752
2885.40298,0.04762
2883.47423,0.04761
2881.54549,0.04757
2879.61674,0.04753
2877.68800,0.04751
2875.75925,0.04741
2873.83051,0.04716
2871.90176,0.04700
2869.97302,0.04703
2868.04427,0.04703
2866.11553,0.04695
2864.18678,0.04696
2862.25804,0.04706
2860.32929,0.04698
2858.40055,0.04653
2856.47180,0.04590
2854.54305,0.04562
2852.61431,0.04597
2850.68556,0.04677
2848.75682,0.04780
2846.82807,0.04880
2844.89933,0.04959
2842.97058,0.05019
2841.04184,0.05064
2839.11309,0.05120
2837.18435,0.05193
2835.25560,0.05250
2833.32686,0.05277
2831.39811,0.05291
2829.46937,0.05296
2827.54062,0.05295
2825.61188,0.05317
2823.68313,0.05361
2821.75438,0.05392
2819.82564,0.05400
2817.89689,0.05403
2815.96815,0.05418
2814.03940,0.05433
2812.11066,0.05427
2810.18191,0.05427
2808.25317,0.05460
2806.32442,0.05492
2804.39568,0.05496
2802.46693,0.05501
2800.53819,0.05523
2798.60944,0.05543
2796.68070,0.05560
2794.75195,0.05577
2792.82320,0.05580
2790.89446,0.05563
2788.96571,0.05543
2787.03697,0.05539
2785.10822,0.05557
2783.17948,0.05584
2781.25073,0.05609
2779.32199,0.05637
2777.39324,0.05656
2775.46450,0.05652
2773.53575,0.05658
2771.60701,0.05680
2769.67826,0.05678
2767.74952,0.05660
2765.82077,0.05669
2763.89203,0.05690
2761.96328,0.05685
2760.03453,0.05663
2758.10579,0.05664
2756.17704,0.05682
2754.24830,0.05689
2752.31955,0.05690
2750.39081,0.05686
2748.46206,0.05674
2746.53332,0.05679
2744.60457,0.05703
2742.67583,0.05715
2740.74708,0.05715
2738.81834,0.05715
2736.88959,0.05697
2734.96085,0.05665
2733.03210,0.05662
2731.10336,0.05678
2729.17461,0.05678
2727.24586,0.05658
2725.31712,0.05635
2723.38837,0.05637
2721.45963,0.05667
2719.53088,0.05695
2717.60214,0.05707
2715.67339,0.05723
2713.74465,0.05742
2711.81590,0.05757
2709.88716,0.05768
2707.95841,0.05769
2706.02967,0.05760
2704.10092,0.05755
2702.17218,0.05764
2700.24343,0.05777
2698.31468,0.05783
2696.38594,0.05784
2694.45719,0.05782
2692.52845,0.05775
2690.59970,0.05766
2688.67096,0.05766
2686.74221,0.05770
2684.81347,0.05757
2682.88472,0.05734
2680.95598,0.05740
2679.02723,0.05775
2677.09849,0.05797
2675.16974,0.05809
2673.24100,0.05828
2671.31225,0.05842
2669.38351,0.05845
2667.45476,0.05849
2665.52601,0.05857
2663.59727,0.05857
2661.66852,0.05844
2659.73978,0.05822
2657.81103,0.05823
2655.88229,0.05853
2653.95354,0.05869
2652.02480,0.05866
2650.09605,0.05857
2648.16731,0.05838
2646.23856,0.05827
2644.30982,0.05838
2642.38107,0.05846
2640.45233,0.05841
2638.52358,0.05846
2636.59484,0.05855
2634.66609,0.05844
2632.73734,0.05826
2630.80860,0.05827
2628.87985,0.05842
2626.95111,0.05856
2625.02236,0.05874
2623.09362,0.05890
2621.16487,0.05885
2619.23613,0.05866
2617.30738,0.05849
2615.37864,0.05846
2613.44989,0.05856
2611.52115,0.05858
2609.59240,0.05844
2607.66366,0.05840
2605.73491,0.05856
2603.80616,0.05868
2601.87742,0.05862
2599.94867,0.05858
2598.01993,0.05861
2596.09118,0.05862
2594.16244,0.05864
2592.23369,0.05879
2590.30495,0.05898
2588.37620,0.05907
2586.44746,0.05910
2584.51871,0.05911
2582.58997,0.05904
2580.66122,0.05894
2578.73248,0.05892
2576.80373,0.05892
2574.87499,0.05873
2572.94624,0.05841
2571.01749,0.05833
2569.08875,0.05866
2567.16000,0.05908
2565.23126,0.05932
2563.30251,0.05938
2561.37377,0.05934
2559.44502,0.05927
2557.51628,0.05918
2555.58753,0.05907
2553.65879,0.05902
2551.73004,0.05902
2549.80130,0.05903
2547.87255,0.05909
2545.94381,0.05915
2544.01506,0.05915
2542.08631,0.05922
2540.15757,0.05935
2538.22882,0.05935
2536.30008,0.05932
2534.37133,0.05926
2532.44259,0.05911
2530.51384,0.05899
2528.58510,0.05893
2526.65635,0.05881
2524.72761,0.05864
2522.79886,0.05849
2520.87012,0.05839
2518.94137,0.05838
2517.01263,0.05850
2515.08388,0.05865
2513.15514,0.05862
2511.22639,0.05852
2509.29764,0.05856
2507.36890,0.05869
2505.44015,0.05886
2503.51141,0.05903
2501.58266,0.05912
2499.65392,0.05910
2497.72517,0.05903
2495.79643,0.05904
2493.86768,0.05920
2491.93894,0.05937
2490.01019,0.05944
2488.08145,0.05953
2486.15270,0.05962
2484.22396,0.05965
2482.29521,0.05969
2480.36647,0.05985
2478.43772,0.05991
2476.50897,0.05980
2474.58023,0.05972
2472.65148,0.05972
2470.72274,0.05972
2468.79399,0.05988
2466.86525,0.06015
2464.93650,0.06031
2463.00776,0.06042
2461.07901,0.06044
2459.15027,0.06024
2457.22152,0.06006
2455.29278,0.06006
2453.36403,0.06007
2451.43529,0.06004
2449.50654,0.06004
2447.57779,0.06000
2445.64905,0.05998
2443.72030,0.05999
2441.79156,0.05990
2439.86281,0.05976
2437.93407,0.05975
2436.00532,0.05981
2434.07658,0.05975
2432.14783,0.05969
2430.21909,0.05985
2428.29034,0.06004
2426.36160,0.05998
2424.43285,0.05981
2422.50411,0.05979
2420.57536,0.05996
2418.64662,0.06016
2416.71787,0.06013
2414.78912,0.05993
2412.86038,0.05970
2410.93163,0.05953
2409.00289,0.05951
2407.07414,0.05962
2405.14540,0.05977
2403.21665,0.05997
2401.28791,0.06013
2399.35916,0.06013
2397.43042,0.05997
2395.50167,0.05973
2393.57293,0.05957
2391.64418,0.05963
2389.71544,0.05974
2387.78669,0.05969
2385.85795,0.05951
2383.92920,0.05934
2382.00045,0.05929
2380.07171,0.05939
2378.14296,0.05952
2376.21422,0.05942
2374.28547,0.05916
2372.35673,0.05910
2370.42798,0.05924
2368.49924,0.05937
2366.57049,0.05942
2364.64175,0.05927
2362.71300,0.05894
2360.78426,0.05878
2358.85551,0.05896
2356.92677,0.05911
2354.99802,0.05901
2353.06927,0.05882
2351.14053,0.05868
2349.21178,0.05856
2347.28304,0.05840
2345.35429,0.05820
2343.42555,0.05804
2341.49680,0.05805
2339.56806,0.05814
2337.63931,0.05814
2335.71057,0.05808
2333.78182,0.05804
2331.85308,0.05808
2329.92433,0.05819
2327.99559,0.05822
2326.06684,0.05818
2324.13810,0.05809
2322.20935,0.05798
2320.28060,0.05796
2318.35186,0.05812
2316.42311,0.05830
2314.49437,0.05833
2312.56562,0.05821
2310.63688,0.05814
2308.70813,0.05816
2306.77939,0.05822
2304.85064,0.05833
2302.92190,0.05836
2300.99315,0.05812
2299.06441,0.05779
2297.13566,0.05768
2295.20692,0.05771
2293.27817,0.05759
2291.34943,0.05737
2289.42068,0.05729
2287.49193,0.05736
2285.56319,0.05744
2283.63444,0.05743
2281.70570,0.05744
2279.77695,0.05760
2277.84821,0.05776
2275.91946,0.05763
2273.99072,0.05737
2272.06197,0.05720
2270.13323,0.05711
2268.20448,0.05708
2266.27574,0.05702
2264.34699,0.05685
2262.41825,0.05673
2260.48950,0.05676
2258.56075,0.05683
2256.63201,0.05683
2254.70326,0.05683
2252.77452,0.05691
2250.84577,0.05690
2248.91703,0.05671
2246.98828,0.05649
2245.05954,0.05630
2243.13079,0.05619
2241.20205,0.05613
2239.27330,0.05596
2237.34456,0.05577
2235.41581,0.05572
2233.48707,0.05564
2231.55832,0.05539
2229.62958,0.05522
2227.70083,0.05516
2225.77208,0.05507
2223.84334,0.05501
2221.91459,0.05500
2219.98585,0.05490
2218.05710,0.05471
2216.12836,0.05458
2214.19961,0.05460
2212.27087,0.05451
2210.34212,0.05424
2208.41338,0.05409
2206.48463,0.05416
2204.55589,0.05423
2202.62714,0.05415
2200.69840,0.05396
2198.76965,0.05382
2196.84090,0.05375
2194.91216,0.05365
2192.98341,0.05352
2191.05467,0.05333
2189.12592,0.05302
2187.19718,0.05277
2185.26843,0.05268
2183.33969,0.05264
2181.41094,0.05251
2179.48220,0.05230
2177.55345,0.05203
2175.62471,0.05186
2173.69596,0.05180
2171.76722,0.05169
2169.83847,0.05150
2167.90973,0.05134
2165.98098,0.05126
2164.05223,0.05111
2162.12349,0.05088
2160.19474,0.05069
2158.26600,0.05053
2156.33725,0.05042
2154.40851,0.05046
2152.47976,0.05056
2150.55102,0.05056
2148.62227,0.05040
2146.69353,0.05021
2144.76478,0.05023
2142.83604,0.05044
2140.90729,0.05046
2138.97855,0.05027
2137.04980,0.05013
2135.12106,0.05007
2133.19231,0.04992
2131.26356,0.04966
2129.33482,0.04949
2127.40607,0.04953
2125.47733,0.04958
2123.54858,0.04951
2121.61984,0.04943
2119.69109,0.04938
2117.76235,0.04936
2115.83360,0.04936
2113.90486,0.04936
2111.97611,0.04929
2110.04737,0.04912
2108.11862,0.04902
2106.18988,0.04900
2104.26113,0.04889
2102.33238,0.04860
2100.40364,0.04831
2098.47489,0.04823
2096.54615,0.04826
2094.61740,0.04821
2092.68866,0.04813
2090.75991,0.04809
2088.83117,0.04795
2086.90242,0.04775
2084.97368,0.04773
2083.04493,0.04779
2081.11619,0.04770
2079.18744,0.04752
2077.25870,0.04745
2075.32995,0.04744
2073.40121,0.04743
2071.47246,0.04733
2069.54371,0.04710
2067.61497,0.04682
2065.68622,0.04671
2063.75748,0.04682
2061.82873,0.04687
2059.89999,0.04677
2057.97124,0.04674
2056.04250,0.04680
2054.11375,0.04673
2052.18501,0.04651
2050.25626,0.04620
2048.32752,0.04588
2046.39877,0.04578
2044.47003,0.04587
2042.54128,0.04598
2040.61254,0.04594
2038.68379,0.04580
2036.75504,0.04586
2034.82630,0.04606
2032.89755,0.04600
2030.96881,0.04576
2029.04006,0.04573
2027.11132,0.04577
2025.18257,0.04561
2023.25383,0.04544
2021.32508,0.04545
2019.39634,0.04548
2017.46759,0.04543
2015.53885,0.04534
2013.61010,0.04529
2011.68136,0.04541
2009.75261,0.04550
2007.82386,0.04538
2005.89512,0.04527
2003.96637,0.04533
2002.03763,0.04542
2000.10888,0.04542
1998.18014,0.04538
1996.25139,0.04527
1994.32265,0.04518
1992.39390,0.04523
1990.46516,0.04535
1988.53641,0.04540
1986.60767,0.04547
1984.67892,0.04563
1982.75018,0.04563
1980.82143,0.04538
1978.89269,0.04521
1976.96394,0.04525
1975.03519,0.04528
1973.10645,0.04524
1971.17770,0.04529
1969.24896,0.04538
1967.32021,0.04539
1965.39147,0.04537
1963.46272,0.04544
1961.53398,0.04544
1959.60523,0.04525
1957.67649,0.04511
1955.74774,0.04505
1953.81900,0.04504
1951.89025,0.04512
1949.96151,0.04525
1948.03276,0.04528
1946.10402,0.04510
1944.17527,0.04486
1942.24652,0.04477
1940.31778,0.04475
1938.38903,0.04480
1936.46029,0.04497
1934.53154,0.04510
1932.60280,0.04504
1930.67405,0.04493
1928.74531,0.04498
1926.81656,0.04511
1924.88782,0.04508
1922.95907,0.04488
1921.03033,0.04468
1919.10158,0.04452
1917.17284,0.04441
1915.24409,0.04436
1913.31534,0.04437
1911.38660,0.04433
1909.45785,0.04421
1907.52911,0.04410
1905.60036,0.04402
1903.67162,0.04400
1901.74287,0.04412
1899.81413,0.04423
1897.88538,0.04418
1895.95664,0.04413
1894.02789,0.04411
1892.09915,0.04411
1890.17040,0.04413
1888.24166,0.04414
1886.31291,0.04414
1884.38417,0.04426
1882.45542,0.04443
1880.52667,0.04434
1878.59793,0.04403
1876.66918,0.04383
1874.74044,0.04384
1872.81169,0.04379
1870.88295,0.04371
1868.95420,0.04378
1867.02546,0.04387
1865.09671,0.04393
1863.16797,0.04395
1861.23922,0.04393
1859.31048,0.04398
1857.38173,0.04405
1855.45299,0.04405
1853.52424,0.04405
1851.59549,0.04402
1849.66675,0.04389
1847.73800,0.04380
1845.80926,0.04392
1843.88051,0.04411
1841.95177,0.04415
1840.02302,0.04406
1838.09428,0.04393
1836.16553,0.04376
1834.23679,0.04372
1832.30804,0.04390
1830.37930,0.04403
1828.45055,0.04388
1826.52181,0.04364
1824.59306,0.04353
1822.66432,0.04347
1820.73557,0.04337
1818.80682,0.04332
1816.87808,0.04332
1814.94933,0.04322
1813.02059,0.04299
1811.09184,0.04279
1809.16310,0.04273
1807.23435,0.04267
1805.30561,0.04243
1803.37686,0.04204
1801.44812,0.04171
1799.51937,0.04150
1797.59063,0.04130
1795.66188,0.04117
1793.73314,0.04118
1791.80439,0.04116
1789.87565,0.04112
1787.94690,0.04120
1786.01815,0.04133
1784.08941,0.04137
1782.16066,0.04129
1780.23192,0.04113
1778.30317,0.04107
1776.37443,0.04114
1774.44568,0.04114
1772.51694,0.04107
1770.58819,0.04109
1768.65945,0.04110
1766.73070,0.04099
1764.80196,0.04085
1762.87321,0.04068
1760.94447,0.04053
1759.01572,0.04049
1757.08697,0.04048
1755.15823,0.04045
1753.22948,0.04036
1751.30074,0.04014
1749.37199,0.03989
1747.44325,0.03983
1745.51450,0.03992
1743.58576,0.04006
1741.65701,0.04012
1739.72827,0.04005
1737.79952,0.03996
1735.87078,0.03988
1733.94203,0.03978
1732.01329,0.03968
1730.08454,0.03966
1728.15580,0.03975
1726.22705,0.03983
1724.29830,0.03971
1722.36956,0.03944
1720.44081,0.03935
1718.51207,0.03933
1716.58332,0.03916
1714.65458,0.03909
1712.72583,0.03922
1710.79709,0.03919
1708.86834,0.03895
1706.93960,0.03884
1705.01085,0.03888
1703.08211,0.03892
1701.15336,0.03896
1699.22462,0.03902
1697.29587,0.03908
1695.36713,0.03895
1693.43838,0.03872
1691.50963,0.03856
1689.58089,0.03845
1687.65214,0.03847
1685.72340,0.03870
1683.79465,0.03881
1681.86591,0.03858
1679.93716,0.03831
1678.00842,0.03821
1676.07967,0.03835
1674.15093,0.03877
1672.22218,0.03921
1670.29344,0.03934
1668.36469,0.03917
1666.43595,0.03901
1664.50720,0.03894
1662.57845,0.03895
1660.64971,0.03919
1658.72096,0.03958
1656.79222,0.03985
1654.86347,0.03992
1652.93473,0.03971
1651.00598,0.03950
1649.07724,0.03949
1647.14849,0.03946
1645.21975,0.03942
1643.29100,0.03949
1641.36226,0.03963
1639.43351,0.03973
1637.50477,0.03978
1635.57602,0.03987
1633.64728,0.04004
1631.71853,0.04011
1629.78978,0.04002
1627.86104,0.03995
1625.93229,0.04004
1624.00355,0.04013
1622.07480,0.04002
1620.14606,0.03986
1618.21731,0.03981
1616.28857,0.03988
1614.35982,0.04000
1612.43108,0.04004
1610.50233,0.04004
1608.57359,0.04030
1606.64484,0.04061
1604.71610,0.04062
1602.78735,0.04055
1600.85861,0.04075
1598.92986,0.04111
1597.00111,0.04128
1595.07237,0.04120
1593.14362,0.04123
1591.21488,0.04157
1589.28613,0.04194
1587.35739,0.04219
1585.42864,0.04243
1583.49990,0.04268
1581.57115,0.04285
1579.64241,0.04310
1577.71366,0.04357
1575.78492,0.04412
1573.85617,0.04456
1571.92743,0.04493
1569.99868,0.04525
1568.06993,0.04563
1566.14119,0.04612
1564.21244,0.04661
1562.28370,0.04707
1560.35495,0.04748
1558.42621,0.04781
1556.49746,0.04815
1554.56872,0.04857
1552.63997,0.04891
1550.71123,0.04914
1548.78248,0.04934
1546.85374,0.04944
1544.92499,0.04939
1542.99625,0.04931
1541.06750,0.04923
1539.13876,0.04921
1537.21001,0.04924
1535.28126,0.04904
1533.35252,0.04855
1531.42377,0.04811
1529.49503,0.04793
1527.56628,0.04792
1525.63754,0.04801
1523.70879,0.04800
1521.78005,0.04778
1519.85130,0.04752
1517.92256,0.04735
1515.99381,0.04718
1514.06507,0.04699
1512.13632,0.04687
1510.20758,0.04688
1508.27883,0.04684
1506.35008,0.04646
1504.42134,0.04596
1502.49259,0.04576
1500.56385,0.04584
1498.63510,0.04587
1496.70636,0.04554
1494.77761,0.04507
1492.84887,0.04481
1490.92012,0.04477
1488.99138,0.04468
1487.06263,0.04434
1485.13389,0.04391
1483.20514,0.04364
1481.27640,0.04355
1479.34765,0.04332
1477.41891,0.04291
1475.49016,0.04253
1473.56141,0.04220
1471.63267,0.04168
1469.70392,0.04095
1467.77518,0.04038
1465.84643,0.04013
1463.91769,0.04000
1461.98894,0.03986
1460.06020,0.03977
1458.13145,0.03974
1456.20271,0.03985
1454.27396,0.03998
1452.34522,0.04009
1450.41647,0.04023
1448.48773,0.04034
1446.55898,0.04032
1444.63024,0.04023
1442.70149,0.04015
1440.77274,0.04010
1438.84400,0.04008
1436.91525,0.04012
1434.98651,0.04025
1433.05776,0.04038
1431.12902,0.04037
1429.20027,0.04027
1427.27153,0.04022
1425.34278,0.04022
1423.41404,0.04016
1421.48529,0.04005
1419.55655,0.03998
1417.62780,0.03994
1415.69906,0.03985
1413.77031,0.03969
1411.84156,0.03967
1409.91282,0.03982
1407.98407,0.03985
1406.05533,0.03962
1404.12658,0.03930
1402.19784,0.03913
1400.26909,0.03913
1398.34035,0.03912
1396.41160,0.03899
1394.48286,0.03878
1392.55411,0.03858
1390.62537,0.03845
1388.69662,0.03835
1386.76788,0.03809
1384.83913,0.03773
1382.91039,0.03758
1380.98164,0.03760
1379.05289,0.03760
1377.12415,0.03768
1375.19540,0.03784
1373.26666,0.03784
1371.33791,0.03771
1369.40917,0.03772
1367.48042,0.03787
1365.55168,0.03806
1363.62293,0.03830
1361.69419,0.03845
1359.76544,0.03843
1357.83670,0.03833
1355.90795,0.03833
1353.97921,0.03844
1352.05046,0.03860
1350.12172,0.03874
1348.19297,0.03879
1346.26422,0.03868
1344.33548,0.03843
1342.40673,0.03813
1340.47799,0.03795
1338.54924,0.03793
1336.62050,0.03796
1334.69175,0.03804
1332.76301,0.03816
1330.83426,0.03819
1328.90552,0.03814
1326.97677,0.03806
1325.04803,0.03793
1323.11928,0.03768
1321.19054,0.03730
1319.26179,0.03701
1317.33304,0.03689
1315.40430,0.03689
1313.47555,0.03706
1311.54681,0.03732
1309.61806,0.03740
1307.68932,0.03725
1305.76057,0.03713
1303.83183,0.03711
1301.90308,0.03714
1299.97434,0.03710
1298.04559,0.03697
1296.11685,0.03686
1294.18810,0.03674
1292.25936,0.03668
1290.33061,0.03675
1288.40187,0.03675
1286.47312,0.03665
1284.54437,0.03658
1282.61563,0.03650
1280.68688,0.03637
1278.75814,0.03625
1276.82939,0.03610
1274.90065,0.03587
1272.97190,0.03567
1271.04316,0.03555
1269.11441,0.03540
1267.18567,0.03522
1265.25692,0.03515
1263.32818,0.03507
1261.39943,0.03484
1259.47069,0.03462
1257.54194,0.03445
1255.61320,0.03424
1253.68445,0.03402
1251.75570,0.03381
1249.82696,0.03356
1247.89821,0.03345
1245.96947,0.03348
1244.04072,0.03336
1242.11198,0.03315
1240.18323,0.03324
1238.25449,0.03362
1236.32574,0.03404
1234.39700,0.03430
1232.46825,0.03433
1230.53951,0.03426
1228.61076,0.03421
1226.68202,0.03430
1224.75327,0.03451
1222.82452,0.03477
1220.89578,0.03507
1218.96703,0.03540
1217.03829,0.03564
1215.10954,0.03582
1213.18080,0.03606
1211.25205,0.03621
1209.32331,0.03610
1207.39456,0.03588
1205.46582,0.03577
1203.53707,0.03575
1201.60833,0.03581
1199.67958,0.03601
1197.75084,0.03636
1195.82209,0.03671
1193.89335,0.03686
1191.96460,0.03679
1190.03585,0.03676
1188.10711,0.03684
1186.17836,0.03674
1184.24962,0.03656
1182.32087,0.03658
1180.39213,0.03662
1178.46338,0.03659
1176.53464,0.03666
1174.60589,0.03684
1172.67715,0.03704
1170.74840,0.03728
1168.81966,0.03756
1166.89091,0.03778
1164.96217,0.03784
1163.03342,0.03785
1161.10467,0.03812
1159.17593,0.03866
1157.24718,0.03901
1155.31844,0.03914
1153.38969,0.03945
1151.46095,0.04002
1149.53220,0.04074
1147.60346,0.04144
1145.67471,0.04174
1143.74597,0.04177
1141.81722,0.04217
1139.88848,0.04301
1137.95973,0.04373
1136.03099,0.04414
1134.10224,0.04450
1132.17350,0.04495
1130.24475,0.04548
1128.31600,0.04626
1126.38726,0.04734
1124.45851,0.04837
1122.52977,0.04903
1120.60102,0.04962
1118.67228,0.05058
1116.74353,0.05165
1114.81479,0.05218
1112.88604,0.05230
1110.95730,0.05269
1109.02855,0.05349
1107.09981,0.05442
1105.17106,0.05539
1103.24232,0.05633
1101.31357,0.05694
1099.38483,0.05749
1097.45608,0.05846
1095.52733,0.05960
1093.59859,0.06040
1091.66984,0.06093
1089.74110,0.06129
1087.81235,0.06149
1085.88361,0.06179
1083.95486,0.06211
1082.02612,0.06215
1080.09737,0.06227
1078.16863,0.06258
1076.23988,0.06268
1074.31114,0.06271
1072.38239,0.06309
1070.45365,0.06368
1068.52490,0.06403
1066.59615,0.06418
1064.66741,0.06426
1062.73866,0.06431
1060.80992,0.06439
1058.88117,0.06451
1056.95243,0.06469
1055.02368,0.06495
1053.09494,0.06533
1051.16619,0.06576
1049.23745,0.06608
1047.30870,0.06645
1045.37996,0.06703
1043.45121,0.06771
1041.52247,0.06842
1039.59372,0.06914
1037.66498,0.06992
1035.73623,0.07080
1033.80748,0.07153
1031.87874,0.07186
1029.94999,0.07172
1028.02125,0.07112
1026.09250,0.07047
1024.16376,0.07011
1022.23501,0.06983
1020.30627,0.06948
1018.37752,0.06931
1016.44878,0.06964
1014.52003,0.07062
1012.59129,0.07185
1010.66254,0.07298
1008.73380,0.07392
1006.80505,0.07454
1004.87631,0.07482
1002.94756,0.07490
1001.01881,0.07502
999.09007,0.07526
997.16132,0.07536
995.23258,0.07512
993.30383,0.07484
991.37509,0.07489
989.44634,0.07515
987.51760,0.07532
985.58885,0.07526
983.66011,0.07496
981.73136,0.07451
979.80262,0.07428
977.87387,0.07436
975.94513,0.07421
974.01638,0.07363
972.08763,0.07306
970.15889,0.07256
968.23014,0.07215
966.30140,0.07205
964.37265,0.07213
962.44391,0.07221
960.51516,0.07236
958.58642,0.07251
956.65767,0.07255
954.72893,0.07244
952.80018,0.07231
950.87144,0.07233
948.94269,0.07235
947.01395,0.07214
945.08520,0.07185
943.15646,0.07147
941.22771,0.07081
939.29896,0.06999
937.37022,0.06927
935.44147,0.06865
933.51273,0.06786
931.58398,0.06680
929.65524,0.06559
927.72649,0.06458
925.79775,0.06414
923.86900,0.06408
921.94026,0.06391
920.01151,0.06352
918.08277,0.06322
916.15402,0.06311
914.22528,0.06304
912.29653,0.06302
910.36779,0.06318
908.43904,0.06329
906.51029,0.06303
904.58155,0.06265
902.65280,0.06261
900.72406,0.06273
898.79531,0.06269
896.86657,0.06256
894.93782,0.06239
893.00908,0.06237
891.08033,0.06271
889.15159,0.06303
887.22284,0.06279
885.29410,0.06197
883.36535,0.06080
881.43661,0.05982
879.50786,0.05934
877.57911,0.05889
875.65037,0.05840
873.72162,0.05804
871.79288,0.05752
869.86413,0.05698
867.93539,0.05675
866.00664,0.05630
864.07790,0.05539
862.14915,0.05484
860.22041,0.05503
858.29166,0.05514
856.36292,0.05457
854.43417,0.05376
852.50543,0.05308
850.57668,0.05260
848.64794,0.05217
846.71919,0.05147
844.79044,0.05088
842.86170,0.05082
840.93295,0.05092
839.00421,0.05082
837.07546,0.05058
835.14672,0.05015
833.21797,0.04940
831.28923,0.04859
829.36048,0.04813
827.43174,0.04807
825.50299,0.04801
823.57425,0.04765
821.64550,0.04711
819.71676,0.04676
817.78801,0.04688
815.85926,0.04711
813.93052,0.04699
812.00177,0.04655
810.07303,0.04602
808.14428,0.04569
806.21554,0.04562
804.28679,0.04572
802.35805,0.04587
800.42930,0.04596
798.50056,0.04615
796.57181,0.04633
794.64307,0.04618
792.71432,0.04599
790.78558,0.04614
788.85683,0.04641
786.92809,0.04657
784.99934,0.04654
783.07059,0.04619
781.14185,0.04571
779.21310,0.04554
777.28436,0.04588
775.35561,0.04626
773.42687,0.04594
771.49812,0.04519
769.56938,0.04491
767.64063,0.04508
765.71189,0.04537
763.78314,0.04561
761.85440,0.04574
759.92565,0.04595
757.99691,0.04639
756.06816,0.04683
754.13942,0.04695
752.21067,0.04680
750.28192,0.04664
748.35318,0.04667
746.42443,0.04706
744.49569,0.04742
742.56694,0.04729
740.63820,0.04680
738.70945,0.04621
736.78071,0.04594
734.85196,0.04606
732.92322,0.04607
730.99447,0.04601
729.06573,0.04607
727.13698,0.04592
725.20824,0.04586
723.27949,0.04608
721.35074,0.04595
719.42200,0.04551
717.49325,0.04530
715.56451,0.04537
713.63576,0.04550
711.70702,0.04547
709.77827,0.04516
707.84953,0.04479
705.92078,0.04476
703.99204,0.04508
702.06329,0.04529
700.13455,0.04485
698.20580,0.04385
696.27706,0.04306
694.34831,0.04293
692.41957,0.04347
690.49082,0.04440
688.56207,0.04520
686.63333,0.04545
684.70458,0.04489
682.77584,0.04425
680.84709,0.04458
678.91835,0.04540
676.98960,0.04547
675.06086,0.04497
673.13211,0.04500
671.20337,0.04532
669.27462,0.04514
667.34588,0.04471
665.41713,0.04427
663.48839,0.04358
661.55964,0.04318
659.63090,0.04373
657.70215,0.04484
655.77340,0.04542
653.84466,0.04549
651.91591,0.04588
649.98717,0.04638
648.05842,0.04662
646.12968,0.04706
644.20093,0.04781
642.27219,0.04822
640.34344,0.04783
638.41470,0.04686
636.48595,0.04566
634.55721,0.04471
632.62846,0.04446
630.69972,0.04445
628.77097,0.04386
626.84222,0.04303
624.91348,0.04294
622.98473,0.04340
621.05599,0.04407
619.12724,0.04512
617.19850,0.04569
615.26975,0.04532
613.34101,0.04483
611.41226,0.04399
609.48352,0.04269
607.55477,0.04231
605.62603,0.04344
603.69728,0.04473
601.76854,0.04467
599.83979,0.04338
