7497.03301,0.57269
7495.10426,0.57162
7493.17552,0.57735
7491.24677,0.58330
7489.31803,0.58370
7487.38928,0.58178
7485.46054,0.58056
7483.53179,0.58055
7481.60305,0.57983
7479.67430,0.57714
7477.74556,0.57410
7475.81681,0.57150
7473.88807,0.56901
7471.95932,0.56935
7470.03057,0.57478
7468.10183,0.57830
7466.17308,0.57462
7464.24434,0.57004
7462.31559,0.56850
7460.38685,0.56790
7458.45810,0.56865
7456.52936,0.57175
7454.60061,0.57507
7452.67187,0.57656
7450.74312,0.57558
7448.81438,0.57388
7446.88563,0.57363
7444.95689,0.57292
7443.02814,0.57073
7441.09940,0.56947
7439.17065,0.57063
7437.24190,0.57282
7435.31316,0.57345
7433.38441,0.57173
7431.45567,0.56766
7429.52692,0.56374
7427.59818,0.56387
7425.66943,0.56863
7423.74069,0.57528
7421.81194,0.57948
7419.88320,0.57912
7417.95445,0.57576
7416.02571,0.57291
7414.09696,0.57257
7412.16822,0.57257
7410.23947,0.57110
7408.31073,0.57010
7406.38198,0.57120
7404.45323,0.57383
7402.52449,0.57816
7400.59574,0.58166
7398.66700,0.58161
7396.73825,0.58041
7394.80951,0.57768
7392.88076,0.57313
7390.95202,0.56991
7389.02327,0.56876
7387.09453,0.56969
7385.16578,0.57159
7383.23704,0.57388
7381.30829,0.57588
7379.37955,0.57332
7377.45080,0.56733
7375.52205,0.56478
7373.59331,0.56662
7371.66456,0.56821
7369.73582,0.56774
7367.80707,0.56758
7365.87833,0.56813
7363.94958,0.56703
7362.02084,0.56718
7360.09209,0.57187
7358.16335,0.57363
7356.23460,0.56804
7354.30586,0.56316
7352.37711,0.56395
7350.44837,0.56822
7348.51962,0.57231
7346.59088,0.57284
7344.66213,0.57190
7342.73338,0.57183
7340.80464,0.56969
7338.87589,0.56696
7336.94715,0.56670
7335.01840,0.56663
7333.08966,0.56676
7331.16091,0.56787
7329.23217,0.56793
7327.30342,0.56632
7325.37468,0.56380
7323.44593,0.56148
7321.51719,0.56045
7319.58844,0.56058
7317.65970,0.56180
7315.73095,0.56513
7313.80221,0.56877
7311.87346,0.56728
7309.94471,0.56092
7308.01597,0.55678
7306.08722,0.55773
7304.15848,0.56141
7302.22973,0.56582
7300.30099,0.56813
7298.37224,0.56629
7296.44350,0.56318
7294.51475,0.56250
7292.58601,0.56455
7290.65726,0.56586
7288.72852,0.56223
7286.79977,0.55602
7284.87103,0.55337
7282.94228,0.55478
7281.01353,0.55795
7279.08479,0.56229
7277.15604,0.56518
7275.22730,0.56310
7273.29855,0.55804
7271.36981,0.55658
7269.44106,0.55978
7267.51232,0.56159
7265.58357,0.56055
7263.65483,0.56042
7261.72608,0.56047
7259.79734,0.55900
7257.86859,0.55940
7255.93985,0.56243
7254.01110,0.56262
7252.08236,0.55756
7250.15361,0.55210
7248.22486,0.55087
7246.29612,0.55180
7244.36737,0.55314
7242.43863,0.55775
7240.50988,0.56327
7238.58114,0.56510
7236.65239,0.56554
7234.72365,0.56650
7232.79490,0.56550
7230.86616,0.56223
7228.93741,0.56011
7227.00867,0.55970
7225.07992,0.55893
7223.15118,0.55799
7221.22243,0.55723
7219.29369,0.55700
7217.36494,0.55760
7215.43619,0.55741
7213.50745,0.55675
7211.57870,0.55663
7209.64996,0.55679
7207.72121,0.55770
7205.79247,0.55772
7203.86372,0.55622
7201.93498,0.55624
7200.00623,0.55730
7198.07749,0.55698
7196.14874,0.55767
7194.22000,0.56061
7192.29125,0.56070
7190.36251,0.55657
7188.43376,0.55385
7186.50501,0.55382
7184.57627,0.55253
7182.64752,0.55112
7180.71878,0.55424
7178.79003,0.55962
7176.86129,0.56174
7174.93254,0.56064
7173.00380,0.55751
7171.07505,0.55346
7169.14631,0.55332
7167.21756,0.55735
7165.28882,0.55822
7163.36007,0.55336
7161.43133,0.54804
7159.50258,0.54776
7157.57384,0.55240
7155.64509,0.55723
7153.71634,0.55903
7151.78760,0.55777
7149.85885,0.55607
7147.93011,0.55666
7146.00136,0.55881
7144.07262,0.56046
7142.14387,0.56115
7140.21513,0.56141
7138.28638,0.56066
7136.35764,0.55934
7134.42889,0.56015
7132.50015,0.56037
7130.57140,0.55515
7128.64266,0.54806
7126.71391,0.54529
7124.78516,0.54695
7122.85642,0.54963
7120.92767,0.55116
7118.99893,0.55197
7117.07018,0.55284
7115.14144,0.55190
7113.21269,0.54850
7111.28395,0.54737
7109.35520,0.55123
7107.42646,0.55641
7105.49771,0.55959
7103.56897,0.55945
7101.64022,0.55672
7099.71148,0.55403
7097.78273,0.55226
7095.85399,0.55229
7093.92524,0.55389
7091.99649,0.55524
7090.06775,0.55608
7088.13900,0.55492
7086.21026,0.55118
7084.28151,0.54903
7082.35277,0.55045
7080.42402,0.55111
7078.49528,0.54915
7076.56653,0.54913
7074.63779,0.55198
7072.70904,0.55283
7070.78030,0.55103
7068.85155,0.55069
7066.92281,0.55224
7064.99406,0.55484
7063.06532,0.55882
7061.13657,0.55940
7059.20782,0.55407
7057.27908,0.54786
7055.35033,0.54525
7053.42159,0.54809
7051.49284,0.55293
7049.56410,0.55312
7047.63535,0.54928
7045.70661,0.54662
7043.77786,0.54761
7041.84912,0.55107
7039.92037,0.55272
7037.99163,0.55086
7036.06288,0.55073
7034.13414,0.55486
7032.20539,0.55762
7030.27664,0.55691
7028.34790,0.55525
7026.41915,0.55266
7024.49041,0.55021
7022.56166,0.54920
7020.63292,0.55034
7018.70417,0.55369
7016.77543,0.55527
7014.84668,0.55339
7012.91794,0.55110
7010.98919,0.55000
7009.06045,0.54893
7007.13170,0.54805
7005.20296,0.55024
7003.27421,0.55424
7001.34547,0.55618
6999.41672,0.55717
6997.48797,0.55841
6995.55923,0.55749
6993.63048,0.55364
6991.70174,0.55085
6989.77299,0.55287
6987.84425,0.55778
6985.91550,0.56083
6983.98676,0.55985
6982.05801,0.55631
6980.12927,0.55327
6978.20052,0.55199
6976.27178,0.55103
6974.34303,0.55040
6972.41429,0.55245
6970.48554,0.55645
6968.55680,0.55888
6966.62805,0.55882
6964.69930,0.55642
6962.77056,0.55274
6960.84181,0.55106
6958.91307,0.55232
6956.98432,0.55459
6955.05558,0.55599
6953.12683,0.55632
6951.19809,0.55721
6949.26934,0.55890
6947.34060,0.56022
6945.41185,0.56049
6943.48311,0.55903
6941.55436,0.55683
6939.62562,0.55758
6937.69687,0.56269
6935.76812,0.56623
6933.83938,0.56305
6931.91063,0.55812
6929.98189,0.55688
6928.05314,0.55611
6926.12440,0.55332
6924.19565,0.55162
6922.26691,0.55308
6920.33816,0.55739
6918.40942,0.56221
6916.48067,0.56433
6914.55193,0.56337
6912.62318,0.56013
6910.69444,0.55501
6908.76569,0.55063
6906.83695,0.55076
6904.90820,0.55467
6902.97945,0.55882
6901.05071,0.56183
6899.12196,0.56103
6897.19322,0.55578
6895.26447,0.55228
6893.33573,0.55322
6891.40698,0.55467
6889.47824,0.55602
6887.54949,0.55801
6885.62075,0.55777
6883.69200,0.55617
6881.76326,0.55681
6879.83451,0.55797
6877.90577,0.55735
6875.97702,0.55708
6874.04828,0.55823
6872.11953,0.55816
6870.19078,0.55607
6868.26204,0.55491
6866.33329,0.55591
6864.40455,0.55704
6862.47580,0.55872
6860.54706,0.56278
6858.61831,0.56603
6856.68957,0.56428
6854.76082,0.55969
6852.83208,0.55666
6850.90333,0.55590
6848.97459,0.55672
6847.04584,0.55893
6845.11710,0.56145
6843.18835,0.56384
6841.25960,0.56530
6839.33086,0.56417
6837.40211,0.56194
6835.47337,0.56136
6833.54462,0.56259
6831.61588,0.56434
6829.68713,0.56562
6827.75839,0.56606
6825.82964,0.56456
6823.90090,0.56154
6821.97215,0.55942
6820.04341,0.55891
6818.11466,0.56015
6816.18592,0.56332
6814.25717,0.56665
6812.32843,0.56812
6810.39968,0.56732
6808.47093,0.56554
6806.54219,0.56402
6804.61344,0.56262
6802.68470,0.56168
6800.75595,0.56179
6798.82721,0.56214
6796.89846,0.56133
6794.96972,0.56045
6793.04097,0.56170
6791.11223,0.56272
6789.18348,0.56103
6787.25474,0.55851
6785.32599,0.55683
6783.39725,0.55684
6781.46850,0.55866
6779.53975,0.56103
6777.61101,0.56232
6775.68226,0.56209
6773.75352,0.56195
6771.82477,0.56181
6769.89603,0.56054
6767.96728,0.55953
6766.03854,0.55957
6764.10979,0.56002
6762.18105,0.56078
6760.25230,0.56145
6758.32356,0.56079
6756.39481,0.55858
6754.46607,0.55705
6752.53732,0.55870
6750.60858,0.56112
6748.67983,0.56017
6746.75108,0.55827
6744.82234,0.55901
6742.89359,0.56095
6740.96485,0.56298
6739.03610,0.56547
6737.10736,0.56653
6735.17861,0.56507
6733.24987,0.56341
6731.32112,0.56298
6729.39238,0.56256
6727.46363,0.56146
6725.53489,0.56082
6723.60614,0.56102
6721.67740,0.56125
6719.74865,0.56175
6717.81991,0.56186
6715.89116,0.56057
6713.96241,0.56000
6712.03367,0.56164
6710.10492,0.56279
6708.17618,0.56101
6706.24743,0.55835
6704.31869,0.55792
6702.38994,0.55964
6700.46120,0.56146
6698.53245,0.56191
6696.60371,0.56005
6694.67496,0.55733
6692.74622,0.55879
6690.81747,0.56350
6688.88873,0.56464
6686.95998,0.56313
6685.03123,0.56329
6683.10249,0.56279
6681.17374,0.56002
6679.24500,0.55867
6677.31625,0.56037
6675.38751,0.56261
6673.45876,0.56238
6671.53002,0.55925
6669.60127,0.55695
6667.67253,0.55807
6665.74378,0.56026
6663.81504,0.56034
6661.88629,0.55865
6659.95755,0.55836
6658.02880,0.56013
6656.10006,0.56109
6654.17131,0.55953
6652.24256,0.55641
6650.31382,0.55427
6648.38507,0.55480
6646.45633,0.55706
6644.52758,0.55953
6642.59884,0.56046
6640.67009,0.55878
6638.74135,0.55615
6636.81260,0.55437
6634.88386,0.55336
6632.95511,0.55209
6631.02637,0.55098
6629.09762,0.55221
6627.16888,0.55464
6625.24013,0.55537
6623.31139,0.55584
6621.38264,0.55742
6619.45389,0.55718
6617.52515,0.55446
6615.59640,0.55420
6613.66766,0.55877
6611.73891,0.56272
6609.81017,0.56161
6607.88142,0.55929
6605.95268,0.55922
6604.02393,0.55906
6602.09519,0.55672
6600.16644,0.55426
6598.23770,0.55484
6596.30895,0.55752
6594.38021,0.55927
6592.45146,0.55896
6590.52271,0.55722
6588.59397,0.55537
6586.66522,0.55434
6584.73648,0.55560
6582.80773,0.55902
6580.87899,0.56048
6578.95024,0.55844
6577.02150,0.55605
6575.09275,0.55490
6573.16401,0.55484
6571.23526,0.55618
6569.30652,0.55790
6567.37777,0.55848
6565.44903,0.55785
6563.52028,0.55675
6561.59154,0.55670
6559.66279,0.55893
6557.73404,0.56114
6555.80530,0.55897
6553.87655,0.55313
6551.94781,0.54986
6550.01906,0.55180
6548.09032,0.55409
6546.16157,0.55294
6544.23283,0.55153
6542.30408,0.55234
6540.37534,0.55392
6538.44659,0.55550
6536.51785,0.55697
6534.58910,0.55727
6532.66036,0.55552
6530.73161,0.55313
6528.80287,0.55296
6526.87412,0.55427
6524.94537,0.55375
6523.01663,0.55210
6521.08788,0.55197
6519.15914,0.55305
6517.23039,0.55393
6515.30165,0.55456
6513.37290,0.55447
6511.44416,0.55264
6509.51541,0.55088
6507.58667,0.55228
6505.65792,0.55527
6503.72918,0.55518
6501.80043,0.55243
6499.87169,0.55163
6497.94294,0.55323
6496.01419,0.55396
6494.08545,0.55297
6492.15670,0.55242
6490.22796,0.55356
6488.29921,0.55542
6486.37047,0.55678
6484.44172,0.55631
6482.51298,0.55411
6480.58423,0.55296
6478.65549,0.55348
6476.72674,0.55454
6474.79800,0.55627
6472.86925,0.55769
6470.94051,0.55827
6469.01176,0.55908
6467.08302,0.55954
6465.15427,0.55863
6463.22552,0.55724
6461.29678,0.55748
6459.36803,0.55981
6457.43929,0.56107
6455.51054,0.56016
6453.58180,0.55984
6451.65305,0.56036
6449.72431,0.56097
6447.79556,0.56266
6445.86682,0.56375
6443.93807,0.56168
6442.00933,0.55842
6440.08058,0.55788
6438.15184,0.56043
6436.22309,0.56305
6434.29434,0.56453
6432.36560,0.56622
6430.43685,0.56760
6428.50811,0.56702
6426.57936,0.56564
6424.65062,0.56474
6422.72187,0.56244
6420.79313,0.55925
6418.86438,0.55882
6416.93564,0.56026
6415.00689,0.56119
6413.07815,0.56233
6411.14940,0.56291
6409.22066,0.56248
6407.29191,0.56324
6405.36317,0.56467
6403.43442,0.56440
6401.50567,0.56269
6399.57693,0.56075
6397.64818,0.55971
6395.71944,0.56092
6393.79069,0.56352
6391.86195,0.56455
6389.93320,0.56303
6388.00446,0.56118
6386.07571,0.56070
6384.14697,0.56076
6382.21822,0.56054
6380.28948,0.56051
6378.36073,0.56052
6376.43199,0.55989
6374.50324,0.55823
6372.57450,0.55642
6370.64575,0.55599
6368.71700,0.55636
6366.78826,0.55677
6364.85951,0.55842
6362.93077,0.56148
6361.00202,0.56438
6359.07328,0.56480
6357.14453,0.56206
6355.21579,0.55989
6353.28704,0.56137
6351.35830,0.56292
6349.42955,0.56085
6347.50081,0.55789
6345.57206,0.55746
6343.64332,0.55924
6341.71457,0.56087
6339.78582,0.56067
6337.85708,0.55891
6335.92833,0.55723
6333.99959,0.55639
6332.07084,0.55580
6330.14210,0.55595
6328.21335,0.55780
6326.28461,0.56030
6324.35586,0.56137
6322.42712,0.56035
6320.49837,0.55905
6318.56963,0.55879
6316.64088,0.55933
6314.71214,0.56105
6312.78339,0.56341
6310.85465,0.56404
6308.92590,0.56237
6306.99715,0.56041
6305.06841,0.55929
6303.13966,0.55894
6301.21092,0.55930
6299.28217,0.56007
6297.35343,0.56084
6295.42468,0.56082
6293.49594,0.56005
6291.56719,0.55980
6289.63845,0.55996
6287.70970,0.55933
6285.78096,0.55863
6283.85221,0.55903
6281.92347,0.55920
6279.99472,0.55817
6278.06598,0.55750
6276.13723,0.55813
6274.20848,0.55899
6272.27974,0.55895
6270.35099,0.55859
6268.42225,0.55927
6266.49350,0.56062
6264.56476,0.56097
6262.63601,0.55979
6260.70727,0.55852
6258.77852,0.55838
6256.84978,0.55850
6254.92103,0.55783
6252.99229,0.55720
6251.06354,0.55716
6249.13480,0.55683
6247.20605,0.55640
6245.27730,0.55718
6243.34856,0.55874
6241.41981,0.56010
6239.49107,0.56098
6237.56232,0.56089
6235.63358,0.56055
6233.70483,0.56071
6231.77609,0.56049
6229.84734,0.55915
6227.91860,0.55721
6225.98985,0.55589
6224.06111,0.55530
6222.13236,0.55523
6220.20362,0.55614
6218.27487,0.55747
6216.34613,0.55779
6214.41738,0.55701
6212.48863,0.55703
6210.55989,0.55817
6208.63114,0.55835
6206.70240,0.55666
6204.77365,0.55390
6202.84491,0.55198
6200.91616,0.55174
6198.98742,0.55161
6197.05867,0.55061
6195.12993,0.54950
6193.20118,0.54977
6191.27244,0.55197
6189.34369,0.55414
6187.41495,0.55426
6185.48620,0.55297
6183.55746,0.55204
6181.62871,0.55156
6179.69996,0.55139
6177.77122,0.55219
6175.84247,0.55336
6173.91373,0.55419
6171.98498,0.55461
6170.05624,0.55487
6168.12749,0.55516
6166.19875,0.55459
6164.27000,0.55322
6162.34126,0.55246
6160.41251,0.55329
6158.48377,0.55536
6156.55502,0.55664
6154.62628,0.55625
6152.69753,0.55522
6150.76878,0.55431
6148.84004,0.55406
6146.91129,0.55429
6144.98255,0.55396
6143.05380,0.55310
6141.12506,0.55246
6139.19631,0.55239
6137.26757,0.55282
6135.33882,0.55309
6133.41008,0.55318
6131.48133,0.55309
6129.55259,0.55235
6127.62384,0.55228
6125.69510,0.55264
6123.76635,0.55134
6121.83761,0.55037
6119.90886,0.55097
6117.98011,0.55025
6116.05137,0.54818
6114.12262,0.54666
6112.19388,0.54551
6110.26513,0.54417
6108.33639,0.54194
6106.40764,0.53881
6104.47890,0.53625
6102.55015,0.53419
6100.62141,0.53151
6098.69266,0.52856
6096.76392,0.52543
6094.83517,0.52197
6092.90643,0.51979
6090.97768,0.51954
6089.04893,0.51904
6087.12019,0.51695
6085.19144,0.51459
6083.26270,0.51292
6081.33395,0.51213
6079.40521,0.51221
6077.47646,0.51152
6075.54772,0.50853
6073.61897,0.50428
6071.69023,0.50051
6069.76148,0.49748
6067.83274,0.49472
6065.90399,0.49216
6063.97525,0.48949
6062.04650,0.48635
6060.11776,0.48334
6058.18901,0.48085
6056.26026,0.47869
6054.33152,0.47691
6052.40277,0.47524
6050.47403,0.47331
6048.54528,0.47130
6046.61654,0.46935
6044.68779,0.46687
6042.75905,0.46399
6040.83030,0.46253
6038.90156,0.46245
6036.97281,0.46071
6035.04407,0.45693
6033.11532,0.45403
6031.18658,0.45246
6029.25783,0.45055
6027.32909,0.44809
6025.40034,0.44518
6023.47159,0.44255
6021.54285,0.44224
6019.61410,0.44386
6017.68536,0.44470
6015.75661,0.44372
6013.82787,0.44297
6011.89912,0.44469
6009.97038,0.44820
6008.04163,0.45163
6006.11289,0.45463
6004.18414,0.45731
6002.25540,0.45966
6000.32665,0.46249
5998.39791,0.46616
5996.46916,0.46984
5994.54041,0.47287
5992.61167,0.47446
5990.68292,0.47505
5988.75418,0.47689
5986.82543,0.47987
5984.89669,0.48087
5982.96794,0.47993
5981.03920,0.48081
5979.11045,0.48364
5977.18171,0.48573
5975.25296,0.48696
5973.32422,0.48770
5971.39547,0.48811
5969.46673,0.48923
5967.53798,0.49124
5965.60924,0.49256
5963.68049,0.49222
5961.75174,0.49182
5959.82300,0.49266
5957.89425,0.49456
5955.96551,0.49696
5954.03676,0.49767
5952.10802,0.49618
5950.17927,0.49558
5948.25053,0.49627
5946.32178,0.49553
5944.39304,0.49386
5942.46429,0.49344
5940.53555,0.49404
5938.60680,0.49484
5936.67806,0.49629
5934.74931,0.49809
5932.82057,0.49922
5930.89182,0.50054
5928.96307,0.50273
5927.03433,0.50478
5925.10558,0.50601
5923.17684,0.50630
5921.24809,0.50701
5919.31935,0.50915
5917.39060,0.51049
5915.46186,0.50989
5913.53311,0.50943
5911.60437,0.51011
5909.67562,0.51073
5907.74688,0.51074
5905.81813,0.51109
5903.88939,0.51192
5901.96064,0.51163
5900.03189,0.51026
5898.10315,0.50984
5896.17440,0.51013
5894.24566,0.50875
5892.31691,0.50533
5890.38817,0.50238
5888.45942,0.50122
5886.53068,0.50020
5884.60193,0.49812
5882.67319,0.49595
5880.74444,0.49480
5878.81570,0.49393
5876.88695,0.49212
5874.95821,0.49082
5873.02946,0.49115
5871.10072,0.49121
5869.17197,0.49020
5867.24322,0.48904
5865.31448,0.48761
5863.38573,0.48566
5861.45699,0.48358
5859.52824,0.48214
5857.59950,0.48167
5855.67075,0.48188
5853.74201,0.48253
5851.81326,0.48279
5849.88452,0.48205
5847.95577,0.48108
5846.02703,0.48082
5844.09828,0.48100
5842.16954,0.48048
5840.24079,0.47878
5838.31205,0.47692
5836.38330,0.47625
5834.45455,0.47656
5832.52581,0.47699
5830.59706,0.47713
5828.66832,0.47638
5826.73957,0.47520
5824.81083,0.47463
5822.88208,0.47418
5820.95334,0.47377
5819.02459,0.47414
5817.09585,0.47444
5815.16710,0.47401
5813.23836,0.47397
5811.30961,0.47444
5809.38087,0.47385
5807.45212,0.47250
5805.52337,0.47251
5803.59463,0.47380
5801.66588,0.47462
5799.73714,0.47505
5797.80839,0.47566
5795.87965,0.47581
5793.95090,0.47516
5792.02216,0.47458
5790.09341,0.47457
5788.16467,0.47438
5786.23592,0.47385
5784.30718,0.47391
5782.37843,0.47480
5780.44969,0.47553
5778.52094,0.47594
5776.59220,0.47681
5774.66345,0.47809
5772.73470,0.47975
5770.80596,0.48171
5768.87721,0.48316
5766.94847,0.48392
5765.01972,0.48455
5763.09098,0.48524
5761.16223,0.48553
5759.23349,0.48493
5757.30474,0.48446
5755.37600,0.48540
5753.44725,0.48637
5751.51851,0.48645
5749.58976,0.48776
5747.66102,0.49001
5745.73227,0.49072
5743.80352,0.49077
5741.87478,0.49187
5739.94603,0.49357
5738.01729,0.49468
5736.08854,0.49446
5734.15980,0.49332
5732.23105,0.49222
5730.30231,0.49166
5728.37356,0.49180
5726.44482,0.49272
5724.51607,0.49391
5722.58733,0.49471
5720.65858,0.49487
5718.72984,0.49448
5716.80109,0.49405
5714.87235,0.49411
5712.94360,0.49482
5711.01485,0.49587
5709.08611,0.49666
5707.15736,0.49683
5705.22862,0.49654
5703.29987,0.49683
5701.37113,0.49761
5699.44238,0.49724
5697.51364,0.49641
5695.58489,0.49729
5693.65615,0.49929
5691.72740,0.50056
5689.79866,0.50076
5687.86991,0.50040
5685.94117,0.50003
5684.01242,0.50024
5682.08368,0.50094
5680.15493,0.50182
5678.22618,0.50256
5676.29744,0.50255
5674.36869,0.50235
5672.43995,0.50278
5670.51120,0.50327
5668.58246,0.50378
5666.65371,0.50477
5664.72497,0.50525
5662.79622,0.50484
5660.86748,0.50523
5658.93873,0.50691
5657.00999,0.50813
5655.08124,0.50870
5653.15250,0.50978
5651.22375,0.51088
5649.29500,0.51117
5647.36626,0.51086
5645.43751,0.51080
5643.50877,0.51203
5641.58002,0.51437
5639.65128,0.51647
5637.72253,0.51743
5635.79379,0.51773
5633.86504,0.51833
5631.93630,0.51925
5630.00755,0.52013
5628.07881,0.52078
5626.15006,0.52082
5624.22132,0.52050
5622.29257,0.52056
5620.36383,0.52095
5618.43508,0.52138
5616.50633,0.52137
5614.57759,0.52086
5612.64884,0.52108
5610.72010,0.52211
5608.79135,0.52250
5606.86261,0.52255
5604.93386,0.52369
5603.00512,0.52516
5601.07637,0.52546
5599.14763,0.52522
5597.21888,0.52513
5595.29014,0.52484
5593.36139,0.52450
5591.43265,0.52402
5589.50390,0.52362
5587.57516,0.52381
5585.64641,0.52359
5583.71766,0.52258
5581.78892,0.52208
5579.86017,0.52212
5577.93143,0.52151
5576.00268,0.52072
5574.07394,0.52110
5572.14519,0.52192
5570.21645,0.52194
5568.28770,0.52214
5566.35896,0.52333
5564.43021,0.52445
5562.50147,0.52444
5560.57272,0.52350
5558.64398,0.52241
5556.71523,0.52199
5554.78648,0.52255
5552.85774,0.52333
5550.92899,0.52338
5549.00025,0.52278
5547.07150,0.52232
5545.14276,0.52228
5543.21401,0.52231
5541.28527,0.52246
5539.35652,0.52304
5537.42778,0.52375
5535.49903,0.52399
5533.57029,0.52388
5531.64154,0.52367
5529.71280,0.52310
5527.78405,0.52219
5525.85531,0.52128
5523.92656,0.52101
5521.99781,0.52169
5520.06907,0.52278
5518.14032,0.52415
5516.21158,0.52556
5514.28283,0.52625
5512.35409,0.52626
5510.42534,0.52620
5508.49660,0.52607
5506.56785,0.52586
5504.63911,0.52579
5502.71036,0.52575
5500.78162,0.52561
5498.85287,0.52593
5496.92413,0.52710
5494.99538,0.52801
5493.06664,0.52749
5491.13789,0.52653
5489.20914,0.52605
5487.28040,0.52555
5485.35165,0.52546
5483.42291,0.52590
5481.49416,0.52571
5479.56542,0.52506
5477.63667,0.52497
5475.70793,0.52546
5473.77918,0.52585
5471.85044,0.52548
5469.92169,0.52449
5467.99295,0.52415
5466.06420,0.52526
5464.13546,0.52667
5462.20671,0.52710
5460.27796,0.52681
5458.34922,0.52677
5456.42047,0.52720
5454.49173,0.52763
5452.56298,0.52783
5450.63424,0.52804
5448.70549,0.52875
5446.77675,0.52993
5444.84800,0.53087
5442.91926,0.53112
5440.99051,0.53110
5439.06177,0.53163
5437.13302,0.53285
5435.20428,0.53385
5433.27553,0.53372
5431.34679,0.53261
5429.41804,0.53168
5427.48929,0.53185
5425.56055,0.53304
5423.63180,0.53458
5421.70306,0.53559
5419.77431,0.53576
5417.84557,0.53555
5415.91682,0.53523
5413.98808,0.53492
5412.05933,0.53477
5410.13059,0.53483
5408.20184,0.53538
5406.27310,0.53640
5404.34435,0.53689
5402.41561,0.53634
5400.48686,0.53574
5398.55811,0.53581
5396.62937,0.53607
5394.70062,0.53630
5392.77188,0.53680
5390.84313,0.53764
5388.91439,0.53828
5386.98564,0.53839
5385.05690,0.53858
5383.12815,0.53883
5381.19941,0.53857
5379.27066,0.53831
5377.34192,0.53893
5375.41317,0.53971
5373.48443,0.53921
5371.55568,0.53796
5369.62694,0.53785
5367.69819,0.53876
5365.76944,0.53929
5363.84070,0.53937
5361.91195,0.53929
5359.98321,0.53899
5358.05446,0.53885
5356.12572,0.53906
5354.19697,0.53945
5352.26823,0.53979
5350.33948,0.54004
5348.41074,0.54010
5346.48199,0.53962
5344.55325,0.53897
5342.62450,0.53888
5340.69576,0.53934
5338.76701,0.54007
5336.83827,0.54090
5334.90952,0.54141
5332.98077,0.54115
5331.05203,0.54053
5329.12328,0.54023
5327.19454,0.53977
5325.26579,0.53918
5323.33705,0.53982
5321.40830,0.54154
5319.47956,0.54248
5317.55081,0.54203
5315.62207,0.54098
5313.69332,0.54043
5311.76458,0.54091
5309.83583,0.54128
5307.90709,0.54050
5305.97834,0.53989
5304.04959,0.54022
5302.12085,0.54006
5300.19210,0.53924
5298.26336,0.53870
5296.33461,0.53818
5294.40587,0.53760
5292.47712,0.53721
5290.54838,0.53668
5288.61963,0.53597
5286.69089,0.53563
5284.76214,0.53581
5282.83340,0.53582
5280.90465,0.53504
5278.97591,0.53409
5277.04716,0.53366
5275.11842,0.53330
5273.18967,0.53283
5271.26092,0.53231
5269.33218,0.53147
5267.40343,0.53074
5265.47469,0.53030
5263.54594,0.52952
5261.61720,0.52860
5259.68845,0.52837
5257.75971,0.52869
5255.83096,0.52870
5253.90222,0.52811
5251.97347,0.52705
5250.04473,0.52621
5248.11598,0.52649
5246.18724,0.52707
5244.25849,0.52632
5242.32975,0.52482
5240.40100,0.52429
5238.47225,0.52481
5236.54351,0.52570
5234.61476,0.52609
5232.68602,0.52519
5230.75727,0.52428
5228.82853,0.52474
5226.89978,0.52540
5224.97104,0.52532
5223.04229,0.52527
5221.11355,0.52556
5219.18480,0.52556
5217.25606,0.52507
5215.32731,0.52448
5213.39857,0.52419
5211.46982,0.52424
5209.54107,0.52421
5207.61233,0.52394
5205.68358,0.52400
5203.75484,0.52463
5201.82609,0.52522
5199.89735,0.52524
5197.96860,0.52501
5196.03986,0.52478
5194.11111,0.52438
5192.18237,0.52392
5190.25362,0.52343
5188.32488,0.52284
5186.39613,0.52273
5184.46739,0.52314
5182.53864,0.52344
5180.60990,0.52354
5178.68115,0.52353
5176.75240,0.52346
5174.82366,0.52298
5172.89491,0.52182
5170.96617,0.52101
5169.03742,0.52113
5167.10868,0.52127
5165.17993,0.52102
5163.25119,0.52056
5161.32244,0.51986
5159.39370,0.51910
5157.46495,0.51854
5155.53621,0.51820
5153.60746,0.51777
5151.67872,0.51717
5149.74997,0.51665
5147.82123,0.51617
5145.89248,0.51585
5143.96373,0.51605
5142.03499,0.51627
5140.10624,0.51592
5138.17750,0.51508
5136.24875,0.51357
5134.32001,0.51201
5132.39126,0.51164
5130.46252,0.51206
5128.53377,0.51235
5126.60503,0.51228
5124.67628,0.51174
5122.74754,0.51105
5120.81879,0.51079
5118.89005,0.51090
5116.96130,0.51134
5115.03255,0.51209
5113.10381,0.51284
5111.17506,0.51363
5109.24632,0.51471
5107.31757,0.51582
5105.38883,0.51656
5103.46008,0.51697
5101.53134,0.51717
5099.60259,0.51709
5097.67385,0.51750
5095.74510,0.51912
5093.81636,0.52105
5091.88761,0.52226
5089.95887,0.52270
5088.03012,0.52267
5086.10138,0.52292
5084.17263,0.52390
5082.24388,0.52506
5080.31514,0.52621
5078.38639,0.52733
5076.45765,0.52762
5074.52890,0.52694
5072.60016,0.52635
5070.67141,0.52653
5068.74267,0.52706
5066.81392,0.52739
5064.88518,0.52762
5062.95643,0.52799
5061.02769,0.52887
5059.09894,0.53011
5057.17020,0.53068
5055.24145,0.53021
5053.31270,0.52923
5051.38396,0.52848
5049.45521,0.52837
5047.52647,0.52811
5045.59772,0.52735
5043.66898,0.52715
5041.74023,0.52777
5039.81149,0.52823
5037.88274,0.52792
5035.95400,0.52735
5034.02525,0.52731
5032.09651,0.52781
5030.16776,0.52845
5028.23902,0.52880
5026.31027,0.52844
5024.38153,0.52733
5022.45278,0.52604
5020.52403,0.52557
5018.59529,0.52595
5016.66654,0.52616
5014.73780,0.52579
5012.80905,0.52538
5010.88031,0.52547
5008.95156,0.52581
5007.02282,0.52570
5005.09407,0.52469
5003.16533,0.52312
5001.23658,0.52237
4999.30784,0.52300
4997.37909,0.52361
4995.45035,0.52310
4993.52160,0.52210
4991.59286,0.52131
4989.66411,0.52050
4987.73536,0.51940
4985.80662,0.51802
4983.87787,0.51701
4981.94913,0.51694
4980.02038,0.51695
4978.09164,0.51604
4976.16289,0.51456
4974.23415,0.51333
4972.30540,0.51270
4970.37666,0.51257
4968.44791,0.51249
4966.51917,0.51228
4964.59042,0.51192
4962.66168,0.51120
4960.73293,0.51068
4958.80418,0.51094
4956.87544,0.51092
4954.94669,0.50970
4953.01795,0.50824
4951.08920,0.50764
4949.16046,0.50777
4947.23171,0.50789
4945.30297,0.50786
4943.37422,0.50779
4941.44548,0.50719
4939.51673,0.50616
4937.58799,0.50544
4935.65924,0.50482
4933.73050,0.50411
4931.80175,0.50370
4929.87301,0.50352
4927.94426,0.50325
4926.01551,0.50288
4924.08677,0.50235
4922.15802,0.50121
4920.22928,0.49953
4918.30053,0.49828
4916.37179,0.49778
4914.44304,0.49723
4912.51430,0.49599
4910.58555,0.49422
4908.65681,0.49232
4906.72806,0.49041
4904.79932,0.48826
4902.87057,0.48602
4900.94183,0.48395
4899.01308,0.48212
4897.08434,0.48050
4895.15559,0.47886
4893.22684,0.47720
4891.29810,0.47556
4889.36935,0.47357
4887.44061,0.47146
4885.51186,0.46964
4883.58312,0.46792
4881.65437,0.46625
4879.72563,0.46516
4877.79688,0.46488
4875.86814,0.46448
4873.93939,0.46310
4872.01065,0.46186
4870.08190,0.46207
4868.15316,0.46300
4866.22441,0.46371
4864.29566,0.46485
4862.36692,0.46697
4860.43817,0.46960
4858.50943,0.47203
4856.58068,0.47411
4854.65194,0.47613
4852.72319,0.47819
4850.79445,0.47999
4848.86570,0.48142
4846.93696,0.48309
4845.00821,0.48510
4843.07947,0.48628
4841.15072,0.48628
4839.22198,0.48646
4837.29323,0.48758
4835.36449,0.48886
4833.43574,0.48945
4831.50699,0.48950
4829.57825,0.48946
4827.64950,0.48942
4825.72076,0.48949
4823.79201,0.48951
4821.86327,0.48907
4819.93452,0.48831
4818.00578,0.48772
4816.07703,0.48723
4814.14829,0.48653
4812.21954,0.48595
4810.29080,0.48586
4808.36205,0.48569
4806.43331,0.48478
4804.50456,0.48358
4802.57582,0.48279
4800.64707,0.48253
4798.71832,0.48260
4796.78958,0.48242
4794.86083,0.48143
4792.93209,0.48025
4791.00334,0.48024
4789.07460,0.48162
4787.14585,0.48309
4785.21711,0.48394
4783.28836,0.48457
4781.35962,0.48514
4779.43087,0.48539
4777.50213,0.48558
4775.57338,0.48621
4773.64464,0.48675
4771.71589,0.48642
4769.78714,0.48580
4767.85840,0.48579
4765.92965,0.48617
4764.00091,0.48606
4762.07216,0.48511
4760.14342,0.48362
4758.21467,0.48183
4756.28593,0.48005
4754.35718,0.47846
4752.42844,0.47680
4750.49969,0.47495
4748.57095,0.47286
4746.64220,0.47047
4744.71346,0.46817
4742.78471,0.46631
4740.85597,0.46450
4738.92722,0.46249
4736.99847,0.46069
4735.06973,0.45875
4733.14098,0.45571
4731.21224,0.45183
4729.28349,0.44784
4727.35475,0.44390
4725.42600,0.44020
4723.49726,0.43675
4721.56851,0.43347
4719.63977,0.43065
4717.71102,0.42866
4715.78228,0.42768
4713.85353,0.42738
4711.92479,0.42707
4709.99604,0.42632
4708.06729,0.42462
4706.13855,0.42185
4704.20980,0.41871
4702.28106,0.41511
4700.35231,0.41046
4698.42357,0.40551
4696.49482,0.40114
4694.56608,0.39730
4692.63733,0.39405
4690.70859,0.39206
4688.77984,0.39149
4686.85110,0.39196
4684.92235,0.39368
4682.99361,0.39689
4681.06486,0.40118
4679.13612,0.40613
4677.20737,0.41123
4675.27862,0.41599
4673.34988,0.42018
4671.42113,0.42367
4669.49239,0.42658
4667.56364,0.42920
4665.63490,0.43158
4663.70615,0.43337
4661.77741,0.43407
4659.84866,0.43379
4657.91992,0.43338
4655.99117,0.43339
4654.06243,0.43347
4652.13368,0.43283
4650.20494,0.43106
4648.27619,0.42828
4646.34745,0.42481
4644.41870,0.42102
4642.48995,0.41707
4640.56121,0.41296
4638.63246,0.40907
4636.70372,0.40610
4634.77497,0.40462
4632.84623,0.40457
4630.91748,0.40553
4628.98874,0.40772
4627.05999,0.41170
4625.13125,0.41684
4623.20250,0.42174
4621.27376,0.42595
4619.34501,0.42984
4617.41627,0.43328
4615.48752,0.43575
4613.55877,0.43744
4611.63003,0.43879
4609.70128,0.43960
4607.77254,0.43961
4605.84379,0.43897
4603.91505,0.43788
4601.98630,0.43632
4600.05756,0.43438
4598.12881,0.43216
4596.20007,0.42992
4594.27132,0.42803
4592.34258,0.42642
4590.41383,0.42463
4588.48509,0.42258
4586.55634,0.42069
4584.62760,0.41922
4582.69885,0.41780
4580.77010,0.41610
4578.84136,0.41502
4576.91261,0.41563
4574.98387,0.41780
4573.05512,0.42082
4571.12638,0.42434
4569.19763,0.42840
4567.26889,0.43249
4565.34014,0.43583
4563.41140,0.43854
4561.48265,0.44079
4559.55391,0.44229
4557.62516,0.44314
4555.69642,0.44361
4553.76767,0.44394
4551.83893,0.44428
4549.91018,0.44462
4547.98143,0.44509
4546.05269,0.44575
4544.12394,0.44616
4542.19520,0.44584
4540.26645,0.44513
4538.33771,0.44497
4536.40896,0.44533
4534.48022,0.44555
4532.55147,0.44539
4530.62273,0.44488
4528.69398,0.44437
4526.76524,0.44408
4524.83649,0.44387
4522.90775,0.44348
4520.97900,0.44279
4519.05025,0.44215
4517.12151,0.44177
4515.19276,0.44110
4513.26402,0.43995
4511.33527,0.43879
4509.40653,0.43753
4507.47778,0.43550
4505.54904,0.43264
4503.62029,0.42944
4501.69155,0.42622
4499.76280,0.42294
4497.83406,0.41942
4495.90531,0.41570
4493.97657,0.41193
4492.04782,0.40825
4490.11908,0.40492
4488.19033,0.40234
4486.26158,0.40038
4484.33284,0.39861
4482.40409,0.39679
4480.47535,0.39471
4478.54660,0.39227
4476.61786,0.38965
4474.68911,0.38694
4472.76037,0.38394
4470.83162,0.38017
4468.90288,0.37556
4466.97413,0.37049
4465.04539,0.36492
4463.11664,0.35894
4461.18790,0.35334
4459.25915,0.34873
4457.33041,0.34512
4455.40166,0.34228
4453.47291,0.33994
4451.54417,0.33794
4449.61542,0.33608
4447.68668,0.33393
4445.75793,0.33130
4443.82919,0.32837
4441.90044,0.32523
4439.97170,0.32191
4438.04295,0.31882
4436.11421,0.31652
4434.18546,0.31497
4432.25672,0.31363
4430.32797,0.31248
4428.39923,0.31197
4426.47048,0.31226
4424.54173,0.31316
4422.61299,0.31426
4420.68424,0.31504
4418.75550,0.31544
4416.82675,0.31583
4414.89801,0.31610
4412.96926,0.31578
4411.04052,0.31499
4409.11177,0.31417
4407.18303,0.31357
4405.25428,0.31318
4403.32554,0.31286
4401.39679,0.31268
4399.46805,0.31288
4397.53930,0.31362
4395.61056,0.31467
4393.68181,0.31553
4391.75306,0.31613
4389.82432,0.31671
4387.89557,0.31719
4385.96683,0.31744
4384.03808,0.31716
4382.10934,0.31622
4380.18059,0.31509
4378.25185,0.31394
4376.32310,0.31239
4374.39436,0.31061
4372.46561,0.30917
4370.53687,0.30794
4368.60812,0.30643
4366.67938,0.30466
4364.75063,0.30307
4362.82189,0.30188
4360.89314,0.30091
4358.96439,0.30012
4357.03565,0.29967
4355.10690,0.29955
4353.17816,0.29969
4351.24941,0.30014
4349.32067,0.30062
4347.39192,0.30084
4345.46318,0.30094
4343.53443,0.30116
4341.60569,0.30125
4339.67694,0.30111
4337.74820,0.30139
4335.81945,0.30206
4333.89071,0.30255
4331.96196,0.30292
4330.03321,0.30300
4328.10447,0.30262
4326.17572,0.30218
4324.24698,0.30179
4322.31823,0.30175
4320.38949,0.30270
4318.46074,0.30428
4316.53200,0.30579
4314.60325,0.30696
4312.67451,0.30757
4310.74576,0.30761
4308.81702,0.30729
4306.88827,0.30648
4304.95953,0.30524
4303.03078,0.30388
4301.10204,0.30251
4299.17329,0.30112
4297.24454,0.29988
4295.31580,0.29888
4293.38705,0.29778
4291.45831,0.29652
4289.52956,0.29569
4287.60082,0.29550
4285.67207,0.29530
4283.74333,0.29462
4281.81458,0.29373
4279.88584,0.29314
4277.95709,0.29266
4276.02835,0.29202
4274.09960,0.29142
4272.17086,0.29093
4270.24211,0.29064
4268.31336,0.29058
4266.38462,0.29049
4264.45587,0.29039
4262.52713,0.29049
4260.59838,0.29068
4258.66964,0.29068
4256.74089,0.29055
4254.81215,0.29048
4252.88340,0.29039
4250.95466,0.29025
4249.02591,0.29043
4247.09717,0.29123
4245.16842,0.29205
4243.23968,0.29253
4241.31093,0.29331
4239.38219,0.29454
4237.45344,0.29546
4235.52469,0.29584
4233.59595,0.29628
4231.66720,0.29691
4229.73846,0.29714
4227.80971,0.29687
4225.88097,0.29670
4223.95222,0.29684
4222.02348,0.29727
4220.09473,0.29816
4218.16599,0.29962
4216.23724,0.30139
4214.30850,0.30294
4212.37975,0.30411
4210.45101,0.30501
4208.52226,0.30577
4206.59352,0.30651
4204.66477,0.30720
4202.73602,0.30774
4200.80728,0.30816
4198.87853,0.30834
4196.94979,0.30832
4195.02104,0.30856
4193.09230,0.30913
4191.16355,0.30938
4189.23481,0.30882
4187.30606,0.30764
4185.37732,0.30627
4183.44857,0.30487
4181.51983,0.30347
4179.59108,0.30223
4177.66234,0.30148
4175.73359,0.30138
4173.80484,0.30199
4171.87610,0.30347
4169.94735,0.30582
4168.01861,0.30875
4166.08986,0.31172
4164.16112,0.31419
4162.23237,0.31620
4160.30363,0.31812
4158.37488,0.31988
4156.44614,0.32143
4154.51739,0.32309
4152.58865,0.32460
4150.65990,0.32552
4148.73116,0.32600
4146.80241,0.32634
4144.87367,0.32654
4142.94492,0.32629
4141.01617,0.32529
4139.08743,0.32387
4137.15868,0.32270
4135.22994,0.32182
4133.30119,0.32067
4131.37245,0.31942
4129.44370,0.31864
4127.51496,0.31809
4125.58621,0.31734
4123.65747,0.31638
4121.72872,0.31534
4119.79998,0.31414
4117.87123,0.31257
4115.94249,0.31080
4114.01374,0.30899
4112.08500,0.30701
4110.15625,0.30465
4108.22750,0.30173
4106.29876,0.29831
4104.37001,0.29446
4102.44127,0.29011
4100.51252,0.28525
4098.58378,0.27980
4096.65503,0.27357
4094.72629,0.26684
4092.79754,0.26093
4090.86880,0.25740
4088.94005,0.25648
4087.01131,0.25730
4085.08256,0.25933
4083.15382,0.26260
4081.22507,0.26724
4079.29632,0.27324
4077.36758,0.27995
4075.43883,0.28648
4073.51009,0.29238
4071.58134,0.29743
4069.65260,0.30140
4067.72385,0.30434
4065.79511,0.30662
4063.86636,0.30875
4061.93762,0.31089
4060.00887,0.31259
4058.08013,0.31372
4056.15138,0.31484
4054.22264,0.31614
4052.29389,0.31731
4050.36515,0.31838
4048.43640,0.31942
4046.50765,0.32042
4044.57891,0.32139
4042.65016,0.32243
4040.72142,0.32357
4038.79267,0.32485
4036.86393,0.32601
4034.93518,0.32669
4033.00644,0.32693
4031.07769,0.32702
4029.14895,0.32718
4027.22020,0.32732
4025.29146,0.32741
4023.36271,0.32772
4021.43397,0.32817
4019.50522,0.32823
4017.57648,0.32791
4015.64773,0.32772
4013.71898,0.32783
4011.79024,0.32801
4009.86149,0.32809
4007.93275,0.32823
4006.00400,0.32849
4004.07526,0.32875
4002.14651,0.32897
4000.21777,0.32933
3998.28902,0.32994
3996.36028,0.33077
3994.43153,0.33156
3992.50279,0.33234
3990.57404,0.33339
3988.64530,0.33471
3986.71655,0.33620
3984.78780,0.33772
3982.85906,0.33898
3980.93031,0.34017
3979.00157,0.34178
3977.07282,0.34364
3975.14408,0.34527
3973.21533,0.34665
3971.28659,0.34799
3969.35784,0.34937
3967.42910,0.35083
3965.50035,0.35234
3963.57161,0.35391
3961.64286,0.35572
3959.71412,0.35771
3957.78537,0.35946
3955.85663,0.36083
3953.92788,0.36194
3951.99913,0.36304
3950.07039,0.36416
3948.14164,0.36509
3946.21290,0.36594
3944.28415,0.36690
3942.35541,0.36785
3940.42666,0.36864
3938.49792,0.36931
3936.56917,0.36999
3934.64043,0.37062
3932.71168,0.37116
3930.78294,0.37152
3928.85419,0.37154
3926.92545,0.37139
3924.99670,0.37149
3923.06795,0.37188
3921.13921,0.37237
3919.21046,0.37297
3917.28172,0.37363
3915.35297,0.37458
3913.42423,0.37617
3911.49548,0.37797
3909.56674,0.37943
3907.63799,0.38055
3905.70925,0.38170
3903.78050,0.38322
3901.85176,0.38491
3899.92301,0.38650
3897.99427,0.38805
3896.06552,0.38941
3894.13678,0.39046
3892.20803,0.39135
3890.27928,0.39211
3888.35054,0.39281
3886.42179,0.39357
3884.49305,0.39409
3882.56430,0.39440
3880.63556,0.39499
3878.70681,0.39582
3876.77807,0.39650
3874.84932,0.39724
3872.92058,0.39812
3870.99183,0.39891
3869.06309,0.39965
3867.13434,0.40011
3865.20560,0.40011
3863.27685,0.40003
3861.34811,0.40023
3859.41936,0.40060
3857.49061,0.40096
3855.56187,0.40128
3853.63312,0.40166
3851.70438,0.40207
3849.77563,0.40214
3847.84689,0.40183
3845.91814,0.40161
3843.98940,0.40157
3842.06065,0.40136
3840.13191,0.40117
3838.20316,0.40141
3836.27442,0.40208
3834.34567,0.40292
3832.41693,0.40369
3830.48818,0.40422
3828.55943,0.40453
3826.63069,0.40468
3824.70194,0.40464
3822.77320,0.40444
3820.84445,0.40403
3818.91571,0.40328
3816.98696,0.40203
3815.05822,0.40028
3813.12947,0.39883
3811.20073,0.39795
3809.27198,0.39730
3807.34324,0.39709
3805.41449,0.39757
3803.48575,0.39839
3801.55700,0.39951
3799.62826,0.40078
3797.69951,0.40205
3795.77076,0.40359
3793.84202,0.40513
3791.91327,0.40631
3789.98453,0.40727
3788.05578,0.40806
3786.12704,0.40855
3784.19829,0.40877
3782.26955,0.40891
3780.34080,0.40898
3778.41206,0.40865
3776.48331,0.40799
3774.55457,0.40722
3772.62582,0.40599
3770.69708,0.40431
3768.76833,0.40277
3766.83959,0.40160
3764.91084,0.40034
3762.98209,0.39874
3761.05335,0.39699
3759.12460,0.39586
3757.19586,0.39613
3755.26711,0.39742
3753.33837,0.39953
3751.40962,0.40280
3749.48088,0.40652
3747.55213,0.40937
3745.62339,0.41124
3743.69464,0.41248
3741.76590,0.41303
3739.83715,0.41270
3737.90841,0.41138
3735.97966,0.40941
3734.05091,0.40782
3732.12217,0.40716
3730.19342,0.40739
3728.26468,0.40850
3726.33593,0.41046
3724.40719,0.41281
3722.47844,0.41487
3720.54970,0.41603
3718.62095,0.41622
3716.69221,0.41589
3714.76346,0.41519
3712.83472,0.41409
3710.90597,0.41262
3708.97723,0.41068
3707.04848,0.40816
3705.11974,0.40505
3703.19099,0.40143
3701.26224,0.39743
3699.33350,0.39318
3697.40475,0.38847
3695.47601,0.38289
3693.54726,0.37622
3691.61852,0.36857
3689.68977,0.36043
3687.76103,0.35305
3685.83228,0.34819
3683.90354,0.34635
3681.97479,0.34718
3680.04605,0.34997
3678.11730,0.35310
3676.18856,0.35553
3674.25981,0.35706
3672.33107,0.35745
3670.40232,0.35661
3668.47357,0.35486
3666.54483,0.35256
3664.61608,0.34956
3662.68734,0.34614
3660.75859,0.34286
3658.82985,0.33958
3656.90110,0.33595
3654.97236,0.33224
3653.04361,0.32882
3651.11487,0.32520
3649.18612,0.32117
3647.25738,0.31720
3645.32863,0.31327
3643.39989,0.30945
3641.47114,0.30609
3639.54239,0.30325
3637.61365,0.30064
3635.68490,0.29835
3633.75616,0.29642
3631.82741,0.29448
3629.89867,0.29217
3627.96992,0.28966
3626.04118,0.28748
3624.11243,0.28550
3622.18369,0.28345
3620.25494,0.28135
3618.32620,0.27936
3616.39745,0.27747
3614.46871,0.27534
3612.53996,0.27291
3610.61122,0.27038
3608.68247,0.26787
3606.75372,0.26560
3604.82498,0.26359
3602.89623,0.26161
3600.96749,0.25950
3599.03874,0.25712
3597.11000,0.25443
3595.18125,0.25162
3593.25251,0.24890
3591.32376,0.24616
3589.39502,0.24308
3587.46627,0.23958
3585.53753,0.23617
3583.60878,0.23298
3581.68004,0.22966
3579.75129,0.22602
3577.82254,0.22213
3575.89380,0.21849
3573.96505,0.21541
3572.03631,0.21238
3570.10756,0.20923
3568.17882,0.20640
3566.25007,0.20393
3564.32133,0.20166
3562.39258,0.19943
3560.46384,0.19699
3558.53509,0.19448
3556.60635,0.19236
3554.67760,0.19065
3552.74886,0.18901
3550.82011,0.18747
3548.89137,0.18635
3546.96262,0.18566
3545.03387,0.18486
3543.10513,0.18385
3541.17638,0.18313
3539.24764,0.18273
3537.31889,0.18246
3535.39015,0.18208
3533.46140,0.18157
3531.53266,0.18126
3529.60391,0.18115
3527.67517,0.18106
3525.74642,0.18116
3523.81768,0.18145
3521.88893,0.18158
3519.96019,0.18150
3518.03144,0.18142
3516.10270,0.18132
3514.17395,0.18128
3512.24520,0.18150
3510.31646,0.18179
3508.38771,0.18188
3506.45897,0.18182
3504.53022,0.18185
3502.60148,0.18207
3500.67273,0.18218
3498.74399,0.18190
3496.81524,0.18146
3494.88650,0.18126
3492.95775,0.18135
3491.02901,0.18144
3489.10026,0.18128
3487.17152,0.18089
3485.24277,0.18030
3483.31402,0.17944
3481.38528,0.17830
3479.45653,0.17713
3477.52779,0.17587
3475.59904,0.17448
3473.67030,0.17322
3471.74155,0.17199
3469.81281,0.17042
3467.88406,0.16842
3465.95532,0.16600
3464.02657,0.16343
3462.09783,0.16093
3460.16908,0.15816
3458.24034,0.15494
3456.31159,0.15160
3454.38285,0.14831
3452.45410,0.14492
3450.52535,0.14138
3448.59661,0.13783
3446.66786,0.13438
3444.73912,0.13101
3442.81037,0.12761
3440.88163,0.12438
3438.95288,0.12165
3437.02414,0.11918
3435.09539,0.11677
3433.16665,0.11492
3431.23790,0.11422
3429.30916,0.11487
3427.38041,0.11689
3425.45167,0.12001
3423.52292,0.12365
3421.59418,0.12725
3419.66543,0.13060
3417.73668,0.13391
3415.80794,0.13736
3413.87919,0.14059
3411.95045,0.14346
3410.02170,0.14624
3408.09296,0.14884
3406.16421,0.15079
3404.23547,0.15208
3402.30672,0.15298
3400.37798,0.15340
3398.44923,0.15351
3396.52049,0.15371
3394.59174,0.15390
3392.66300,0.15370
3390.73425,0.15305
3388.80550,0.15208
3386.87676,0.15107
3384.94801,0.15003
3383.01927,0.14871
3381.09052,0.14731
3379.16178,0.14605
3377.23303,0.14474
3375.30429,0.14337
3373.37554,0.14215
3371.44680,0.14110
3369.51805,0.14004
3367.58931,0.13871
3365.66056,0.13716
3363.73182,0.13575
3361.80307,0.13457
3359.87433,0.13323
3357.94558,0.13148
3356.01683,0.12975
3354.08809,0.12836
3352.15934,0.12693
3350.23060,0.12534
3348.30185,0.12376
3346.37311,0.12233
3344.44436,0.12123
3342.51562,0.12027
3340.58687,0.11936
3338.65813,0.11875
3336.72938,0.11842
3334.80064,0.11822
3332.87189,0.11828
3330.94315,0.11859
3329.01440,0.11897
3327.08566,0.11933
3325.15691,0.11977
3323.22816,0.12015
3321.29942,0.12033
3319.37067,0.12050
3317.44193,0.12077
3315.51318,0.12102
3313.58444,0.12119
3311.65569,0.12138
3309.72695,0.12160
3307.79820,0.12149
3305.86946,0.12111
3303.94071,0.12097
3302.01197,0.12104
3300.08322,0.12108
3298.15448,0.12124
3296.22573,0.12180
3294.29698,0.12267
3292.36824,0.12327
3290.43949,0.12329
3288.51075,0.12320
3286.58200,0.12331
3284.65326,0.12343
3282.72451,0.12366
3280.79577,0.12412
3278.86702,0.12451
3276.93828,0.12477
3275.00953,0.12512
3273.08079,0.12568
3271.15204,0.12609
3269.22330,0.12609
3267.29455,0.12630
3265.36581,0.12712
3263.43706,0.12788
3261.50831,0.12805
3259.57957,0.12784
3257.65082,0.12774
3255.72208,0.12792
3253.79333,0.12829
3251.86459,0.12890
3249.93584,0.12965
3248.00710,0.13019
3246.07835,0.13054
3244.14961,0.13099
3242.22086,0.13152
3240.29212,0.13197
3238.36337,0.13230
3236.43463,0.13245
3234.50588,0.13273
3232.57713,0.13348
3230.64839,0.13439
3228.71964,0.13497
3226.79090,0.13544
3224.86215,0.13613
3222.93341,0.13703
3221.00466,0.13795
3219.07592,0.13873
3217.14717,0.13949
3215.21843,0.14008
3213.28968,0.14023
3211.36094,0.14030
3209.43219,0.14061
3207.50345,0.14090
3205.57470,0.14087
3203.64596,0.14092
3201.71721,0.14146
3199.78846,0.14197
3197.85972,0.14201
3195.93097,0.14188
3194.00223,0.14196
3192.07348,0.14230
3190.14474,0.14279
3188.21599,0.14336
3186.28725,0.14387
3184.35850,0.14434
3182.42976,0.14498
3180.50101,0.14590
3178.57227,0.14697
3176.64352,0.14784
3174.71478,0.14837
3172.78603,0.14908
3170.85729,0.15014
3168.92854,0.15093
3166.99979,0.15151
3165.07105,0.15231
3163.14230,0.15290
3161.21356,0.15308
3159.28481,0.15334
3157.35607,0.15366
3155.42732,0.15365
3153.49858,0.15344
3151.56983,0.15324
3149.64109,0.15271
3147.71234,0.15173
3145.78360,0.15072
3143.85485,0.14981
3141.92611,0.14888
3139.99736,0.14786
3138.06861,0.14658
3136.13987,0.14498
3134.21112,0.14309
3132.28238,0.14097
3130.35363,0.13904
3128.42489,0.13759
3126.49614,0.13652
3124.56740,0.13592
3122.63865,0.13566
3120.70991,0.13518
3118.78116,0.13409
3116.85242,0.13232
3114.92367,0.13001
3112.99493,0.12740
3111.06618,0.12431
3109.13744,0.12076
3107.20869,0.11743
3105.27994,0.11480
3103.35120,0.11295
3101.42245,0.11209
3099.49371,0.11221
3097.56496,0.11278
3095.63622,0.11326
3093.70747,0.11331
3091.77873,0.11247
3089.84998,0.11059
3087.92124,0.10827
3085.99249,0.10602
3084.06375,0.10387
3082.13500,0.10205
3080.20626,0.10096
3078.27751,0.10057
3076.34877,0.10052
3074.42002,0.10059
3072.49127,0.10058
3070.56253,0.10030
3068.63378,0.10003
3066.70504,0.10013
3064.77629,0.10069
3062.84755,0.10132
3060.91880,0.10125
3058.99006,0.10023
3057.06131,0.09886
3055.13257,0.09815
3053.20382,0.09931
3051.27508,0.10299
3049.34633,0.10862
3047.41759,0.11507
3045.48884,0.12129
3043.56009,0.12645
3041.63135,0.13009
3039.70260,0.13227
3037.77386,0.13342
3035.84511,0.13389
3033.91637,0.13372
3031.98762,0.13295
3030.05888,0.13151
3028.13013,0.12939
3026.20139,0.12665
3024.27264,0.12335
3022.34390,0.11957
3020.41515,0.11538
3018.48641,0.11089
3016.55766,0.10647
3014.62892,0.10266
3012.70017,0.09980
3010.77142,0.09767
3008.84268,0.09573
3006.91393,0.09391
3004.98519,0.09235
3003.05644,0.09079
3001.12770,0.08893
2999.19895,0.08684
2997.27021,0.08462
2995.34146,0.08224
2993.41272,0.07958
2991.48397,0.07673
2989.55523,0.07388
2987.62648,0.07082
2985.69774,0.06741
2983.76899,0.06391
2981.84025,0.06051
2979.91150,0.05730
2977.98275,0.05422
2976.05401,0.05139
2974.12526,0.04901
2972.19652,0.04693
2970.26777,0.04521
2968.33903,0.04415
2966.41028,0.04375
2964.48154,0.04379
2962.55279,0.04396
2960.62405,0.04413
2958.69530,0.04442
2956.76656,0.04507
2954.83781,0.04608
2952.90907,0.04725
2950.98032,0.04885
2949.05157,0.05118
2947.12283,0.05360
2945.19408,0.05577
2943.26534,0.05813
2941.33659,0.06071
2939.40785,0.06315
2937.47910,0.06526
2935.55036,0.06693
2933.62161,0.06831
2931.69287,0.06951
2929.76412,0.07018
2927.83538,0.07006
2925.90663,0.06942
2923.97789,0.06863
2922.04914,0.06771
2920.12040,0.06655
2918.19165,0.06522
2916.26290,0.06391
2914.33416,0.06251
2912.40541,0.06088
2910.47667,0.05942
2908.54792,0.05875
2906.61918,0.05919
2904.69043,0.06075
2902.76169,0.06309
2900.83294,0.06561
2898.90420,0.06774
2896.97545,0.06906
2895.04671,0.06975
2893.11796,0.07040
2891.18922,0.07108
2889.26047,0.07165
2887.33172,0.07223
2885.40298,0.07301
2883.47423,0.07402
2881.54549,0.07498
2879.61674,0.07565
2877.68800,0.07622
2875.75925,0.07686
2873.83051,0.07738
2871.90176,0.07783
2869.97302,0.07854
2868.04427,0.07942
2866.11553,0.08022
2864.18678,0.08091
2862.25804,0.08148
2860.32929,0.08210
2858.40055,0.08306
2856.47180,0.08417
2854.54305,0.08507
2852.61431,0.08623
2850.68556,0.08874
2848.75682,0.09288
2846.82807,0.09795
2844.89933,0.10336
2842.97058,0.10884
2841.04184,0.11425
2839.11309,0.11937
2837.18435,0.12385
2835.25560,0.12767
2833.32686,0.13112
2831.39811,0.13429
2829.46937,0.13714
2827.54062,0.13973
2825.61188,0.14217
2823.68313,0.14455
2821.75438,0.14686
2819.82564,0.14889
2817.89689,0.15039
2815.96815,0.15158
2814.03940,0.15276
2812.11066,0.15384
2810.18191,0.15474
2808.25317,0.15557
2806.32442,0.15660
2804.39568,0.15816
2802.46693,0.16042
2800.53819,0.16313
2798.60944,0.16585
2796.68070,0.16849
2794.75195,0.17116
2792.82320,0.17372
2790.89446,0.17612
2788.96571,0.17847
2787.03697,0.18083
2785.10822,0.18310
2783.17948,0.18520
2781.25073,0.18711
2779.32199,0.18893
2777.39324,0.19077
2775.46450,0.19256
2773.53575,0.19402
2771.60701,0.19500
2769.67826,0.19567
2767.74952,0.19631
2765.82077,0.19698
2763.89203,0.19759
2761.96328,0.19819
2760.03453,0.19889
2758.10579,0.19957
2756.17704,0.20014
2754.24830,0.20076
2752.31955,0.20150
2750.39081,0.20216
2748.46206,0.20271
2746.53332,0.20330
2744.60457,0.20399
2742.67583,0.20482
2740.74708,0.20594
2738.81834,0.20741
2736.88959,0.20918
2734.96085,0.21112
2733.03210,0.21328
2731.10336,0.21562
2729.17461,0.21793
2727.24586,0.22022
2725.31712,0.22253
2723.38837,0.22470
2721.45963,0.22674
2719.53088,0.22869
2717.60214,0.23057
2715.67339,0.23233
2713.74465,0.23385
2711.81590,0.23526
2709.88716,0.23681
2707.95841,0.23849
2706.02967,0.24004
2704.10092,0.24140
2702.17218,0.24264
2700.24343,0.24377
2698.31468,0.24479
2696.38594,0.24577
2694.45719,0.24667
2692.52845,0.24738
2690.59970,0.24784
2688.67096,0.24836
2686.74221,0.24906
2684.81347,0.24971
2682.88472,0.25021
2680.95598,0.25069
2679.02723,0.25129
2677.09849,0.25197
2675.16974,0.25267
2673.24100,0.25350
2671.31225,0.25451
2669.38351,0.25553
2667.45476,0.25627
2665.52601,0.25660
2663.59727,0.25677
2661.66852,0.25705
2659.73978,0.25734
2657.81103,0.25747
2655.88229,0.25748
2653.95354,0.25742
2652.02480,0.25734
2650.09605,0.25735
2648.16731,0.25728
2646.23856,0.25685
2644.30982,0.25596
2642.38107,0.25463
2640.45233,0.25301
2638.52358,0.25109
2636.59484,0.24883
2634.66609,0.24653
2632.73734,0.24465
2630.80860,0.24355
2628.87985,0.24328
2626.95111,0.24375
2625.02236,0.24467
2623.09362,0.24567
2621.16487,0.24667
2619.23613,0.24760
2617.30738,0.24819
2615.37864,0.24840
2613.44989,0.24840
2611.52115,0.24830
2609.59240,0.24815
2607.66366,0.24799
2605.73491,0.24771
2603.80616,0.24726
2601.87742,0.24659
2599.94867,0.24555
2598.01993,0.24420
2596.09118,0.24291
2594.16244,0.24176
2592.23369,0.24036
2590.30495,0.23866
2588.37620,0.23707
2586.44746,0.23594
2584.51871,0.23532
2582.58997,0.23512
2580.66122,0.23536
2578.73248,0.23587
2576.80373,0.23648
2574.87499,0.23727
2572.94624,0.23817
2571.01749,0.23890
2569.08875,0.23943
2567.16000,0.23986
2565.23126,0.24006
2563.30251,0.24013
2561.37377,0.24029
2559.44502,0.24049
2557.51628,0.24057
2555.58753,0.24053
2553.65879,0.24044
2551.73004,0.24047
2549.80130,0.24064
2547.87255,0.24069
2545.94381,0.24064
2544.01506,0.24073
2542.08631,0.24097
2540.15757,0.24116
2538.22882,0.24125
2536.30008,0.24140
2534.37133,0.24183
2532.44259,0.24249
2530.51384,0.24314
2528.58510,0.24384
2526.65635,0.24490
2524.72761,0.24641
2522.79886,0.24815
2520.87012,0.24993
2518.94137,0.25160
2517.01263,0.25311
2515.08388,0.25448
2513.15514,0.25577
2511.22639,0.25700
2509.29764,0.25803
2507.36890,0.25878
2505.44015,0.25959
2503.51141,0.26056
2501.58266,0.26151
2499.65392,0.26242
2497.72517,0.26357
2495.79643,0.26511
2493.86768,0.26687
2491.93894,0.26862
2490.01019,0.27033
2488.08145,0.27215
2486.15270,0.27417
2484.22396,0.27612
2482.29521,0.27789
2480.36647,0.27957
2478.43772,0.28137
2476.50897,0.28336
2474.58023,0.28534
2472.65148,0.28715
2470.72274,0.28898
2468.79399,0.29090
2466.86525,0.29269
2464.93650,0.29420
2463.00776,0.29544
2461.07901,0.29651
2459.15027,0.29742
2457.22152,0.29813
2455.29278,0.29864
2453.36403,0.29898
2451.43529,0.29906
2449.50654,0.29889
2447.57779,0.29846
2445.64905,0.29763
2443.72030,0.29638
2441.79156,0.29496
2439.86281,0.29334
2437.93407,0.29134
2436.00532,0.28910
2434.07658,0.28680
2432.14783,0.28450
2430.21909,0.28217
2428.29034,0.27968
2426.36160,0.27706
2424.43285,0.27442
2422.50411,0.27179
2420.57536,0.26917
2418.64662,0.26660
2416.71787,0.26431
2414.78912,0.26228
2412.86038,0.26028
2410.93163,0.25822
2409.00289,0.25616
2407.07414,0.25419
2405.14540,0.25235
2403.21665,0.25060
2401.28791,0.24904
2399.35916,0.24766
2397.43042,0.24642
2395.50167,0.24533
2393.57293,0.24428
2391.64418,0.24333
2389.71544,0.24277
2387.78669,0.24263
2385.85795,0.24278
2383.92920,0.24328
2382.00045,0.24428
2380.07171,0.24545
2378.14296,0.24647
2376.21422,0.24777
2374.28547,0.24953
2372.35673,0.25140
2370.42798,0.25328
2368.49924,0.25553
2366.57049,0.25834
2364.64175,0.26160
2362.71300,0.26510
2360.78426,0.26847
2358.85551,0.27161
2356.92677,0.27466
2354.99802,0.27762
2353.06927,0.28040
2351.14053,0.28299
2349.21178,0.28540
2347.28304,0.28767
2345.35429,0.28983
2343.42555,0.29168
2341.49680,0.29302
2339.56806,0.29385
2337.63931,0.29429
2335.71057,0.29453
2333.78182,0.29467
2331.85308,0.29472
2329.92433,0.29487
2327.99559,0.29506
2326.06684,0.29512
2324.13810,0.29552
2322.20935,0.29673
2320.28060,0.29861
2318.35186,0.30081
2316.42311,0.30283
2314.49437,0.30420
2312.56562,0.30472
2310.63688,0.30451
2308.70813,0.30373
2306.77939,0.30241
2304.85064,0.30047
2302.92190,0.29781
2300.99315,0.29450
2299.06441,0.29062
2297.13566,0.28631
2295.20692,0.28177
2293.27817,0.27731
2291.34943,0.27317
2289.42068,0.26959
2287.49193,0.26690
2285.56319,0.26539
2283.63444,0.26510
2281.70570,0.26577
2279.77695,0.26697
2277.84821,0.26837
2275.91946,0.26968
2273.99072,0.27048
2272.06197,0.27057
2270.13323,0.27004
2268.20448,0.26910
2266.27574,0.26763
2264.34699,0.26555
2262.41825,0.26286
2260.48950,0.25956
2258.56075,0.25550
2256.63201,0.25044
2254.70326,0.24415
2252.77452,0.23676
2250.84577,0.22899
2248.91703,0.22187
2246.98828,0.21626
2245.05954,0.21276
2243.13079,0.21190
2241.20205,0.21424
2239.27330,0.22036
2237.34456,0.23058
2235.41581,0.24398
2233.48707,0.25818
2231.55832,0.27060
2229.62958,0.27961
2227.70083,0.28515
2225.77208,0.28838
2223.84334,0.29043
2221.91459,0.29173
2219.98585,0.29261
2218.05710,0.29336
2216.12836,0.29404
2214.19961,0.29462
2212.27087,0.29533
2210.34212,0.29648
2208.41338,0.29816
2206.48463,0.30028
2204.55589,0.30268
2202.62714,0.30498
2200.69840,0.30651
2198.76965,0.30697
2196.84090,0.30669
2194.91216,0.30612
2192.98341,0.30547
2191.05467,0.30489
2189.12592,0.30448
2187.19718,0.30418
2185.26843,0.30380
2183.33969,0.30318
2181.41094,0.30231
2179.48220,0.30110
2177.55345,0.29936
2175.62471,0.29714
2173.69596,0.29473
2171.76722,0.29227
2169.83847,0.28958
2167.90973,0.28644
2165.98098,0.28292
2164.05223,0.27920
2162.12349,0.27537
2160.19474,0.27160
2158.26600,0.26797
2156.33725,0.26448
2154.40851,0.26116
2152.47976,0.25813
2150.55102,0.25546
2148.62227,0.25316
2146.69353,0.25115
2144.76478,0.24940
2142.83604,0.24782
2140.90729,0.24630
2138.97855,0.24492
2137.04980,0.24376
2135.12106,0.24260
2133.19231,0.24117
2131.26356,0.23949
2129.33482,0.23774
2127.40607,0.23599
2125.47733,0.23421
2123.54858,0.23247
2121.61984,0.23079
2119.69109,0.22916
2117.76235,0.22787
2115.83360,0.22704
2113.90486,0.22649
2111.97611,0.22605
2110.04737,0.22573
2108.11862,0.22563
2106.18988,0.22579
2104.26113,0.22610
2102.33238,0.22657
2100.40364,0.22732
2098.47489,0.22818
2096.54615,0.22910
2094.61740,0.23040
2092.68866,0.23209
2090.75991,0.23394
2088.83117,0.23585
2086.90242,0.23797
2084.97368,0.24045
2083.04493,0.24315
2081.11619,0.24596
2079.18744,0.24896
2077.25870,0.25205
2075.32995,0.25514
2073.40121,0.25853
2071.47246,0.26237
2069.54371,0.26648
2067.61497,0.27053
2065.68622,0.27436
2063.75748,0.27804
2061.82873,0.28155
2059.89999,0.28495
2057.97124,0.28835
2056.04250,0.29169
2054.11375,0.29481
2052.18501,0.29750
2050.25626,0.29964
2048.32752,0.30141
2046.39877,0.30289
2044.47003,0.30387
2042.54128,0.30435
2040.61254,0.30455
2038.68379,0.30455
2036.75504,0.30424
2034.82630,0.30367
2032.89755,0.30286
2030.96881,0.30163
2029.04006,0.29989
2027.11132,0.29776
2025.18257,0.29540
2023.25383,0.29296
2021.32508,0.29048
2019.39634,0.28791
2017.46759,0.28532
2015.53885,0.28275
2013.61010,0.28007
2011.68136,0.27725
2009.75261,0.27425
2007.82386,0.27097
2005.89512,0.26742
2003.96637,0.26373
2002.03763,0.25999
2000.10888,0.25621
1998.18014,0.25231
1996.25139,0.24836
1994.32265,0.24448
1992.39390,0.24066
1990.46516,0.23696
1988.53641,0.23352
1986.60767,0.23033
1984.67892,0.22723
1982.75018,0.22417
1980.82143,0.22111
1978.89269,0.21789
1976.96394,0.21431
1975.03519,0.21036
1973.10645,0.20601
1971.17770,0.20099
1969.24896,0.19521
1967.32021,0.18890
1965.39147,0.18251
1963.46272,0.17671
1961.53398,0.17228
1959.60523,0.16966
1957.67649,0.16877
1955.74774,0.16925
1953.81900,0.17059
1951.89025,0.17244
1949.96151,0.17491
1948.03276,0.17816
1946.10402,0.18213
1944.17527,0.18681
1942.24652,0.19209
1940.31778,0.19753
1938.38903,0.20289
1936.46029,0.20818
1934.53154,0.21331
1932.60280,0.21833
1930.67405,0.22318
1928.74531,0.22758
1926.81656,0.23153
1924.88782,0.23531
1922.95907,0.23879
1921.03033,0.24173
1919.10158,0.24448
1917.17284,0.24729
1915.24409,0.24991
1913.31534,0.25232
1911.38660,0.25456
1909.45785,0.25661
1907.52911,0.25863
1905.60036,0.26052
1903.67162,0.26210
1901.74287,0.26350
1899.81413,0.26485
1897.88538,0.26615
1895.95664,0.26739
1894.02789,0.26859
1892.09915,0.26973
1890.17040,0.27085
1888.24166,0.27168
1886.31291,0.27194
1884.38417,0.27183
1882.45542,0.27153
1880.52667,0.27097
1878.59793,0.27001
1876.66918,0.26876
1874.74044,0.26725
1872.81169,0.26543
1870.88295,0.26328
1868.95420,0.26061
1867.02546,0.25749
1865.09671,0.25403
1863.16797,0.25014
1861.23922,0.24570
1859.31048,0.24076
1857.38173,0.23536
1855.45299,0.22945
1853.52424,0.22305
1851.59549,0.21634
1849.66675,0.20940
1847.73800,0.20244
1845.80926,0.19566
1843.88051,0.18901
1841.95177,0.18297
1840.02302,0.17778
1838.09428,0.17292
1836.16553,0.16819
1834.23679,0.16374
1832.30804,0.15972
1830.37930,0.15603
1828.45055,0.15267
1826.52181,0.14997
1824.59306,0.14798
1822.66432,0.14662
1820.73557,0.14577
1818.80682,0.14509
1816.87808,0.14443
1814.94933,0.14377
1813.02059,0.14297
1811.09184,0.14193
1809.16310,0.14088
1807.23435,0.14003
1805.30561,0.13920
1803.37686,0.13821
1801.44812,0.13692
1799.51937,0.13528
1797.59063,0.13341
1795.66188,0.13155
1793.73314,0.12964
1791.80439,0.12725
1789.87565,0.12451
1787.94690,0.12190
1786.01815,0.11933
1784.08941,0.11645
1782.16066,0.11325
1780.23192,0.10987
1778.30317,0.10645
1776.37443,0.10310
1774.44568,0.09966
1772.51694,0.09564
1770.58819,0.09124
1768.65945,0.08697
1766.73070,0.08270
1764.80196,0.07844
1762.87321,0.07378
1760.94447,0.06852
1759.01572,0.06332
1757.08697,0.05806
1755.15823,0.05286
1753.22948,0.04819
1751.30074,0.04376
1749.37199,0.03956
1747.44325,0.03602
1745.51450,0.03330
1743.58576,0.03162
1741.65701,0.03089
1739.72827,0.03088
1737.79952,0.03152
1735.87078,0.03271
1733.94203,0.03442
1732.01329,0.03631
1730.08454,0.03795
1728.15580,0.03951
1726.22705,0.04116
1724.29830,0.04265
1722.36956,0.04380
1720.44081,0.04490
1718.51207,0.04589
1716.58332,0.04619
1714.65458,0.04561
1712.72583,0.04457
1710.79709,0.04354
1708.86834,0.04292
1706.93960,0.04288
1705.01085,0.04339
1703.08211,0.04428
1701.15336,0.04544
1699.22462,0.04682
1697.29587,0.04825
1695.36713,0.04964
1693.43838,0.05065
1691.50963,0.05109
1689.58089,0.05109
1687.65214,0.05084
1685.72340,0.05038
1683.79465,0.05000
1681.86591,0.05049
1679.93716,0.05185
1678.00842,0.05347
1676.07967,0.05507
1674.15093,0.05677
1672.22218,0.05855
1670.29344,0.06047
1668.36469,0.06282
1666.43595,0.06549
1664.50720,0.06837
1662.57845,0.07149
1660.64971,0.07439
1658.72096,0.07675
1656.79222,0.07885
1654.86347,0.08092
1652.93473,0.08305
1651.00598,0.08474
1649.07724,0.08623
1647.14849,0.08814
1645.21975,0.09003
1643.29100,0.09123
1641.36226,0.09213
1639.43351,0.09315
1637.50477,0.09420
1635.57602,0.09495
1633.64728,0.09538
1631.71853,0.09578
1629.78978,0.09623
1627.86104,0.09667
1625.93229,0.09695
1624.00355,0.09672
1622.07480,0.09544
1620.14606,0.09300
1618.21731,0.08928
1616.28857,0.08490
1614.35982,0.08261
1612.43108,0.08349
1610.50233,0.08660
1608.57359,0.09073
1606.64484,0.09482
1604.71610,0.09861
1602.78735,0.10217
1600.85861,0.10515
1598.92986,0.10698
1597.00111,0.10763
1595.07237,0.10721
1593.14362,0.10566
1591.21488,0.10299
1589.28613,0.09898
1587.35739,0.09307
1585.42864,0.08498
1583.49990,0.07536
1581.57115,0.06615
1579.64241,0.05987
1577.71366,0.05828
1575.78492,0.06180
1573.85617,0.06784
1571.92743,0.07383
1569.99868,0.07963
1568.06993,0.08425
1566.14119,0.08716
1564.21244,0.08919
1562.28370,0.09093
1560.35495,0.09255
1558.42621,0.09363
1556.49746,0.09404
1554.56872,0.09452
1552.63997,0.09525
1550.71123,0.09610
1548.78248,0.09712
1546.85374,0.09824
1544.92499,0.09928
1542.99625,0.10006
1541.06750,0.10037
1539.13876,0.09980
1537.21001,0.09878
1535.28126,0.09748
1533.35252,0.09522
1531.42377,0.09236
1529.49503,0.08985
1527.56628,0.08777
1525.63754,0.08611
1523.70879,0.08524
1521.78005,0.08532
1519.85130,0.08561
1517.92256,0.08502
1515.99381,0.08296
1514.06507,0.07876
1512.13632,0.07193
1510.20758,0.06309
1508.27883,0.05350
1506.35008,0.04584
1504.42134,0.04530
1502.49259,0.05146
1500.56385,0.06160
1498.63510,0.07334
1496.70636,0.08383
1494.77761,0.09059
1492.84887,0.09333
1490.92012,0.09291
1488.99138,0.08966
1487.06263,0.08453
1485.13389,0.07867
1483.20514,0.07246
1481.27640,0.06605
1479.34765,0.06003
1477.41891,0.05478
1475.49016,0.05027
1473.56141,0.04677
1471.63267,0.04483
1469.70392,0.04420
1467.77518,0.04370
1465.84643,0.04245
1463.91769,0.04034
1461.98894,0.03817
1460.06020,0.03652
1458.13145,0.03522
1456.20271,0.03412
1454.27396,0.03356
1452.34522,0.03367
1450.41647,0.03441
1448.48773,0.03564
1446.55898,0.03681
1444.63024,0.03754
1442.70149,0.03808
1440.77274,0.03888
1438.84400,0.04028
1436.91525,0.04244
1434.98651,0.04502
1433.05776,0.04776
1431.12902,0.05074
1429.20027,0.05328
1427.27153,0.05426
1425.34278,0.05335
1423.41404,0.05085
1421.48529,0.04729
1419.55655,0.04254
1417.62780,0.03711
1415.69906,0.03266
1413.77031,0.02983
1411.84156,0.02873
1409.91282,0.02911
1407.98407,0.03040
1406.05533,0.03213
1404.12658,0.03386
1402.19784,0.03543
1400.26909,0.03693
1398.34035,0.03837
1396.41160,0.03955
1394.48286,0.04034
1392.55411,0.04075
1390.62537,0.04083
1388.69662,0.04036
1386.76788,0.03926
1384.83913,0.03802
1382.91039,0.03689
1380.98164,0.03570
1379.05289,0.03446
1377.12415,0.03328
1375.19540,0.03234
1373.26666,0.03181
1371.33791,0.03174
1369.40917,0.03213
1367.48042,0.03318
1365.55168,0.03488
1363.62293,0.03687
1361.69419,0.03850
1359.76544,0.03930
1357.83670,0.03939
1355.90795,0.03889
1353.97921,0.03789
1352.05046,0.03656
1350.12172,0.03518
1348.19297,0.03404
1346.26422,0.03326
1344.33548,0.03293
1342.40673,0.03298
1340.47799,0.03317
1338.54924,0.03358
1336.62050,0.03433
1334.69175,0.03516
1332.76301,0.03586
1330.83426,0.03637
1328.90552,0.03643
1326.97677,0.03584
1325.04803,0.03476
1323.11928,0.03340
1321.19054,0.03205
1319.26179,0.03080
1317.33304,0.02957
1315.40430,0.02844
1313.47555,0.02753
1311.54681,0.02676
1309.61806,0.02609
1307.68932,0.02558
1305.76057,0.02512
1303.83183,0.02475
1301.90308,0.02472
1299.97434,0.02504
1298.04559,0.02559
1296.11685,0.02630
1294.18810,0.02702
1292.25936,0.02776
1290.33061,0.02868
1288.40187,0.02974
1286.47312,0.03079
1284.54437,0.03195
1282.61563,0.03339
1280.68688,0.03485
1278.75814,0.03615
1276.82939,0.03753
1274.90065,0.03907
1272.97190,0.04053
1271.04316,0.04189
1269.11441,0.04314
1267.18567,0.04411
1265.25692,0.04477
1263.32818,0.04508
1261.39943,0.04497
1259.47069,0.04476
1257.54194,0.04481
1255.61320,0.04506
1253.68445,0.04539
1251.75570,0.04575
1249.82696,0.04593
1247.89821,0.04576
1245.96947,0.04551
1244.04072,0.04534
1242.11198,0.04510
1240.18323,0.04468
1238.25449,0.04412
1236.32574,0.04360
1234.39700,0.04340
1232.46825,0.04362
1230.53951,0.04417
1228.61076,0.04500
1226.68202,0.04604
1224.75327,0.04722
1222.82452,0.04867
1220.89578,0.05028
1218.96703,0.05185
1217.03829,0.05351
1215.10954,0.05528
1213.18080,0.05684
1211.25205,0.05794
1209.32331,0.05867
1207.39456,0.05932
1205.46582,0.06017
1203.53707,0.06126
1201.60833,0.06276
1199.67958,0.06466
1197.75084,0.06658
1195.82209,0.06832
1193.89335,0.06980
1191.96460,0.07068
1190.03585,0.07057
1188.10711,0.06920
1186.17836,0.06659
1184.24962,0.06285
1182.32087,0.05849
1180.39213,0.05444
1178.46338,0.05121
1176.53464,0.04892
1174.60589,0.04796
1172.67715,0.04857
1170.74840,0.05012
1168.81966,0.05173
1166.89091,0.05294
1164.96217,0.05345
1163.03342,0.05299
1161.10467,0.05157
1159.17593,0.04946
1157.24718,0.04710
1155.31844,0.04465
1153.38969,0.04206
1151.46095,0.03940
1149.53220,0.03691
1147.60346,0.03481
1145.67471,0.03334
1143.74597,0.03248
1141.81722,0.03207
1139.88848,0.03211
1137.95973,0.03276
1136.03099,0.03403
1134.10224,0.03578
1132.17350,0.03755
1130.24475,0.03883
1128.31600,0.03960
1126.38726,0.04010
1124.45851,0.04057
1122.52977,0.04109
1120.60102,0.04134
1118.67228,0.04107
1116.74353,0.04071
1114.81479,0.04066
1112.88604,0.04069
1110.95730,0.04071
1109.02855,0.04111
1107.09981,0.04206
1105.17106,0.04326
1103.24232,0.04445
1101.31357,0.04535
1099.38483,0.04570
1097.45608,0.04574
1095.52733,0.04596
1093.59859,0.04619
1091.66984,0.04598
1089.74110,0.04564
1087.81235,0.04582
1085.88361,0.04655
1083.95486,0.04757
1082.02612,0.04900
1080.09737,0.05098
1078.16863,0.05372
1076.23988,0.05723
1074.31114,0.06110
1072.38239,0.06511
1070.45365,0.06892
1068.52490,0.07185
1066.59615,0.07391
1064.66741,0.07574
1062.73866,0.07736
1060.80992,0.07800
1058.88117,0.07694
1056.95243,0.07435
1055.02368,0.07104
1053.09494,0.06754
1051.16619,0.06423
1049.23745,0.06152
1047.30870,0.05934
1045.37996,0.05780
1043.45121,0.05715
1041.52247,0.05717
1039.59372,0.05762
1037.66498,0.05836
1035.73623,0.05910
1033.80748,0.05949
1031.87874,0.05890
1029.94999,0.05690
1028.02125,0.05414
1026.09250,0.05190
1024.16376,0.05042
1022.23501,0.04907
1020.30627,0.04800
1018.37752,0.04832
1016.44878,0.05121
1014.52003,0.05759
1012.59129,0.06768
1010.66254,0.08027
1008.73380,0.09323
1006.80505,0.10458
1004.87631,0.11297
1002.94756,0.11835
1001.01881,0.12184
999.09007,0.12422
997.16132,0.12546
995.23258,0.12524
993.30383,0.12318
991.37509,0.11935
989.44634,0.11505
987.51760,0.11170
985.58885,0.10879
983.66011,0.10491
981.73136,0.09978
979.80262,0.09392
977.87387,0.08791
975.94513,0.08283
974.01638,0.07992
972.08763,0.07978
970.15889,0.08227
968.23014,0.08725
966.30140,0.09441
964.37265,0.10278
962.44391,0.11121
960.51516,0.11927
958.58642,0.12691
956.65767,0.13367
954.72893,0.13899
952.80018,0.14304
950.87144,0.14617
948.94269,0.14820
947.01395,0.14891
945.08520,0.14853
943.15646,0.14713
941.22771,0.14459
939.29896,0.14152
937.37022,0.13914
935.44147,0.13828
933.51273,0.13924
931.58398,0.14184
929.65524,0.14542
927.72649,0.14908
925.79775,0.15200
923.86900,0.15365
921.94026,0.15390
920.01151,0.15277
918.08277,0.15015
916.15402,0.14601
914.22528,0.14028
912.29653,0.13252
910.36779,0.12279
908.43904,0.11253
906.51029,0.10361
904.58155,0.09700
902.65280,0.09271
900.72406,0.09017
898.79531,0.08894
896.86657,0.08896
894.93782,0.08976
893.00908,0.09031
891.08033,0.08990
889.15159,0.08848
887.22284,0.08600
885.29410,0.08242
883.36535,0.07784
881.43661,0.07256
879.50786,0.06730
877.57911,0.06277
875.65037,0.05941
873.72162,0.05851
871.79288,0.06175
869.86413,0.06886
867.93539,0.07752
866.00664,0.08531
864.07790,0.09073
862.14915,0.09306
860.22041,0.09242
858.29166,0.08975
856.36292,0.08623
854.43417,0.08279
852.50543,0.07988
850.57668,0.07756
848.64794,0.07608
846.71919,0.07635
844.79044,0.07871
842.86170,0.08245
840.93295,0.08684
839.00421,0.09172
837.07546,0.09697
835.14672,0.10233
833.21797,0.10772
831.28923,0.11305
829.36048,0.11757
827.43174,0.12073
825.50299,0.12303
823.57425,0.12483
821.64550,0.12562
819.71676,0.12534
817.78801,0.12439
815.85926,0.12301
813.93052,0.12148
812.00177,0.11987
810.07303,0.11824
808.14428,0.11703
806.21554,0.11638
804.28679,0.11587
802.35805,0.11495
800.42930,0.11246
798.50056,0.10640
796.57181,0.09701
794.64307,0.08915
792.71432,0.08797
790.78558,0.09365
788.85683,0.10260
786.92809,0.11161
784.99934,0.11939
783.07059,0.12561
781.14185,0.13026
779.21310,0.13356
777.28436,0.13567
775.35561,0.13694
773.42687,0.13800
771.49812,0.13918
769.56938,0.14003
767.64063,0.14007
765.71189,0.13958
763.78314,0.13869
761.85440,0.13681
759.92565,0.13351
757.99691,0.12899
756.06816,0.12394
754.13942,0.11917
752.21067,0.11424
750.28192,0.10771
748.35318,0.09894
746.42443,0.08811
744.49569,0.07544
742.56694,0.06173
740.63820,0.04900
738.70945,0.03957
736.78071,0.03437
734.85196,0.03273
732.92322,0.03325
730.99447,0.03495
729.06573,0.03757
727.13698,0.04043
725.20824,0.04303
723.27949,0.04665
721.35074,0.05326
719.42200,0.06296
717.49325,0.07368
715.56451,0.08287
713.63576,0.08917
711.70702,0.09289
709.77827,0.09543
707.84953,0.09822
705.92078,0.10186
703.99204,0.10659
702.06329,0.11319
700.13455,0.12195
698.20580,0.13126
696.27706,0.13882
694.34831,0.14371
692.41957,0.14619
690.49082,0.14660
688.56207,0.14537
686.63333,0.14296
684.70458,0.13953
682.77584,0.13589
680.84709,0.13403
678.91835,0.13558
676.98960,0.14051
675.06086,0.14689
673.13211,0.15225
671.20337,0.15603
669.27462,0.15947
667.34588,0.16277
665.41713,0.16493
663.48839,0.16620
661.55964,0.16761
659.63090,0.16933
657.70215,0.17104
655.77340,0.17243
653.84466,0.17338
651.91591,0.17444
649.98717,0.17616
648.05842,0.17778
646.12968,0.17836
644.20093,0.17806
642.27219,0.17751
640.34344,0.17679
638.41470,0.17454
636.48595,0.16776
634.55721,0.15528
632.62846,0.14452
630.69972,0.14579
628.77097,0.15605
626.84222,0.16454
624.91348,0.16890
622.98473,0.17245
621.05599,0.17611
619.12724,0.17878
617.19850,0.18006
615.26975,0.18117
613.34101,0.18249
611.41226,0.18330
609.48352,0.18340
607.55477,0.18241
605.62603,0.18062
603.69728,0.17983
601.76854,0.18049
599.83979,0.18033
