7497.03301,0.58395
7495.10426,0.57819
7493.17552,0.57541
7491.24677,0.57741
7489.31803,0.57548
7487.38928,0.57186
7485.46054,0.57301
7483.53179,0.57604
7481.60305,0.57631
7479.67430,0.57607
7477.74556,0.57888
7475.81681,0.58142
7473.88807,0.57849
7471.95932,0.57280
7470.03057,0.57123
7468.10183,0.57577
7466.17308,0.58207
7464.24434,0.58393
7462.31559,0.58155
7460.38685,0.57707
7458.45810,0.56946
7456.52936,0.56425
7454.60061,0.56677
7452.67187,0.57390
7450.74312,0.58023
7448.81438,0.58015
7446.88563,0.57430
7444.95689,0.56988
7443.02814,0.57012
7441.09940,0.57321
7439.17065,0.57487
7437.24190,0.56985
7435.31316,0.56191
7433.38441,0.56083
7431.45567,0.56584
7429.52692,0.57201
7427.59818,0.57754
7425.66943,0.57661
7423.74069,0.56908
7421.81194,0.56440
7419.88320,0.56510
7417.95445,0.56689
7416.02571,0.56811
7414.09696,0.56863
7412.16822,0.56755
7410.23947,0.56427
7408.31073,0.56179
7406.38198,0.56410
7404.45323,0.56938
7402.52449,0.57344
7400.59574,0.57316
7398.66700,0.56842
7396.73825,0.56531
7394.80951,0.56739
7392.88076,0.57062
7390.95202,0.57257
7389.02327,0.57367
7387.09453,0.57250
7385.16578,0.56917
7383.23704,0.56645
7381.30829,0.56776
7379.37955,0.57290
7377.45080,0.57566
7375.52205,0.57405
7373.59331,0.57152
7371.66456,0.56851
7369.73582,0.56458
7367.80707,0.56145
7365.87833,0.56122
7363.94958,0.56219
7362.02084,0.56184
7360.09209,0.56104
7358.16335,0.55978
7356.23460,0.55835
7354.30586,0.56027
7352.37711,0.56508
7350.44837,0.56670
7348.51962,0.56507
7346.59088,0.56434
7344.66213,0.56220
7342.73338,0.55925
7340.80464,0.56140
7338.87589,0.56744
7336.94715,0.57117
7335.01840,0.56789
7333.08966,0.55905
7331.16091,0.55277
7329.23217,0.55271
7327.30342,0.55585
7325.37468,0.55856
7323.44593,0.55874
7321.51719,0.55735
7319.58844,0.55738
7317.65970,0.56036
7315.73095,0.56391
7313.80221,0.56363
7311.87346,0.56050
7309.94471,0.56102
7308.01597,0.56597
7306.08722,0.57013
7304.15848,0.57200
7302.22973,0.57186
7300.30099,0.56923
7298.37224,0.56781
7296.44350,0.56973
7294.51475,0.57076
7292.58601,0.56947
7290.65726,0.56747
7288.72852,0.56431
7286.79977,0.56045
7284.87103,0.55691
7282.94228,0.55560
7281.01353,0.55887
7279.08479,0.56301
7277.15604,0.56282
7275.22730,0.55950
7273.29855,0.55546
7271.36981,0.55177
7269.44106,0.55164
7267.51232,0.55539
7265.58357,0.55865
7263.65483,0.55877
7261.72608,0.55741
7259.79734,0.55679
7257.86859,0.55540
7255.93985,0.55377
7254.01110,0.55498
7252.08236,0.55705
7250.15361,0.55793
7248.22486,0.55839
7246.29612,0.55793
7244.36737,0.55702
7242.43863,0.55706
7240.50988,0.55714
7238.58114,0.55575
7236.65239,0.55400
7234.72365,0.55453
7232.79490,0.55567
7230.86616,0.55282
7228.93741,0.54977
7227.00867,0.55166
7225.07992,0.55430
7223.15118,0.55633
7221.22243,0.56099
7219.29369,0.56396
7217.36494,0.56145
7215.43619,0.55846
7213.50745,0.55830
7211.57870,0.55876
7209.64996,0.55811
7207.72121,0.55611
7205.79247,0.55407
7203.86372,0.55349
7201.93498,0.55364
7200.00623,0.55418
7198.07749,0.55546
7196.14874,0.55636
7194.22000,0.55584
7192.29125,0.55566
7190.36251,0.55661
7188.43376,0.55649
7186.50501,0.55513
7184.57627,0.55382
7182.64752,0.55266
7180.71878,0.55207
7178.79003,0.55225
7176.86129,0.55347
7174.93254,0.55578
7173.00380,0.55628
7171.07505,0.55411
7169.14631,0.55434
7167.21756,0.55795
7165.28882,0.56070
7163.36007,0.56147
7161.43133,0.56001
7159.50258,0.55651
7157.57384,0.55376
7155.64509,0.55271
7153.71634,0.55282
7151.78760,0.55423
7149.85885,0.55437
7147.93011,0.55206
7146.00136,0.55116
7144.07262,0.55185
7142.14387,0.55029
7140.21513,0.54722
7138.28638,0.54667
7136.35764,0.54955
7134.42889,0.55383
7132.50015,0.55817
7130.57140,0.56100
7128.64266,0.56128
7126.71391,0.55968
7124.78516,0.55652
7122.85642,0.55215
7120.92767,0.54832
7118.99893,0.54810
7117.07018,0.55158
7115.14144,0.55534
7113.21269,0.55715
7111.28395,0.55550
7109.35520,0.55282
7107.42646,0.55356
7105.49771,0.55450
7103.56897,0.55083
7101.64022,0.54517
7099.71148,0.54250
7097.78273,0.54447
7095.85399,0.54934
7093.92524,0.55482
7091.99649,0.55878
7090.06775,0.55961
7088.13900,0.55834
7086.21026,0.55722
7084.28151,0.55689
7082.35277,0.55696
7080.42402,0.55644
7078.49528,0.55411
7076.56653,0.55139
7074.63779,0.54989
7072.70904,0.54825
7070.78030,0.54688
7068.85155,0.54757
7066.92281,0.54996
7064.99406,0.55328
7063.06532,0.55570
7061.13657,0.55534
7059.20782,0.55509
7057.27908,0.55708
7055.35033,0.55772
7053.42159,0.55570
7051.49284,0.55343
7049.56410,0.55237
7047.63535,0.55235
7045.70661,0.55132
7043.77786,0.55090
7041.84912,0.55450
7039.92037,0.55889
7037.99163,0.55947
7036.06288,0.55701
7034.13414,0.55434
7032.20539,0.55250
7030.27664,0.55155
7028.34790,0.55070
7026.41915,0.54807
7024.49041,0.54502
7022.56166,0.54498
7020.63292,0.54731
7018.70417,0.55002
7016.77543,0.55400
7014.84668,0.55899
7012.91794,0.56275
7010.98919,0.56277
7009.06045,0.55777
7007.13170,0.55184
7005.20296,0.55018
7003.27421,0.55159
7001.34547,0.55272
6999.41672,0.55378
6997.48797,0.55531
6995.55923,0.55554
6993.63048,0.55447
6991.70174,0.55393
6989.77299,0.55476
6987.84425,0.55566
6985.91550,0.55353
6983.98676,0.54939
6982.05801,0.54913
6980.12927,0.55290
6978.20052,0.55517
6976.27178,0.55532
6974.34303,0.55612
6972.41429,0.55727
6970.48554,0.55828
6968.55680,0.55899
6966.62805,0.55844
6964.69930,0.55785
6962.77056,0.55814
6960.84181,0.55734
6958.91307,0.55572
6956.98432,0.55539
6955.05558,0.55502
6953.12683,0.55392
6951.19809,0.55457
6949.26934,0.55688
6947.34060,0.55831
6945.41185,0.55776
6943.48311,0.55608
6941.55436,0.55463
6939.62562,0.55378
6937.69687,0.55352
6935.76812,0.55345
6933.83938,0.55348
6931.91063,0.55604
6929.98189,0.56148
6928.05314,0.56485
6926.12440,0.56431
6924.19565,0.56290
6922.26691,0.56039
6920.33816,0.55637
6918.40942,0.55406
6916.48067,0.55451
6914.55193,0.55651
6912.62318,0.55921
6910.69444,0.56084
6908.76569,0.56058
6906.83695,0.55981
6904.90820,0.56000
6902.97945,0.56071
6901.05071,0.56064
6899.12196,0.56048
6897.19322,0.56121
6895.26447,0.56144
6893.33573,0.56099
6891.40698,0.56149
6889.47824,0.56204
6887.54949,0.56099
6885.62075,0.55843
6883.69200,0.55578
6881.76326,0.55516
6879.83451,0.55576
6877.90577,0.55594
6875.97702,0.55681
6874.04828,0.55830
6872.11953,0.55860
6870.19078,0.55753
6868.26204,0.55621
6866.33329,0.55566
6864.40455,0.55609
6862.47580,0.55659
6860.54706,0.55668
6858.61831,0.55724
6856.68957,0.55885
6854.76082,0.56078
6852.83208,0.56074
6850.90333,0.55906
6848.97459,0.55916
6847.04584,0.56034
6845.11710,0.56091
6843.18835,0.56268
6841.25960,0.56558
6839.33086,0.56643
6837.40211,0.56404
6835.47337,0.56132
6833.54462,0.56008
6831.61588,0.55910
6829.68713,0.55820
6827.75839,0.55814
6825.82964,0.55891
6823.90090,0.55979
6821.97215,0.56042
6820.04341,0.56148
6818.11466,0.56215
6816.18592,0.56134
6814.25717,0.56127
6812.32843,0.56258
6810.39968,0.56157
6808.47093,0.55845
6806.54219,0.55798
6804.61344,0.56001
6802.68470,0.56053
6800.75595,0.55934
6798.82721,0.55914
6796.89846,0.56108
6794.96972,0.56380
6793.04097,0.56560
6791.11223,0.56603
6789.18348,0.56509
6787.25474,0.56324
6785.32599,0.56134
6783.39725,0.56051
6781.46850,0.56106
6779.53975,0.56031
6777.61101,0.55759
6775.68226,0.55678
6773.75352,0.55837
6771.82477,0.55932
6769.89603,0.55960
6767.96728,0.56051
6766.03854,0.56133
6764.10979,0.56108
6762.18105,0.56013
6760.25230,0.55981
6758.32356,0.55943
6756.39481,0.55728
6754.46607,0.55587
6752.53732,0.55700
6750.60858,0.55789
6748.67983,0.55682
6746.75108,0.55484
6744.82234,0.55432
6742.89359,0.55547
6740.96485,0.55532
6739.03610,0.55441
6737.10736,0.55585
6735.17861,0.55804
6733.24987,0.55784
6731.32112,0.55764
6729.39238,0.56046
6727.46363,0.56386
6725.53489,0.56434
6723.60614,0.56216
6721.67740,0.56072
6719.74865,0.56080
6717.81991,0.56011
6715.89116,0.56020
6713.96241,0.56282
6712.03367,0.56464
6710.10492,0.56324
6708.17618,0.56084
6706.24743,0.56026
6704.31869,0.56025
6702.38994,0.55782
6700.46120,0.55499
6698.53245,0.55620
6696.60371,0.56010
6694.67496,0.56062
6692.74622,0.55660
6690.81747,0.55271
6688.88873,0.55199
6686.95998,0.55404
6685.03123,0.55657
6683.10249,0.55791
6681.17374,0.55883
6679.24500,0.55985
6677.31625,0.56025
6675.38751,0.55935
6673.45876,0.55803
6671.53002,0.55834
6669.60127,0.55969
6667.67253,0.56046
6665.74378,0.56039
6663.81504,0.55833
6661.88629,0.55537
6659.95755,0.55496
6658.02880,0.55664
6656.10006,0.55815
6654.17131,0.55879
6652.24256,0.55860
6650.31382,0.55854
6648.38507,0.55829
6646.45633,0.55718
6644.52758,0.55678
6642.59884,0.55731
6640.67009,0.55697
6638.74135,0.55618
6636.81260,0.55662
6634.88386,0.55764
6632.95511,0.55824
6631.02637,0.55884
6629.09762,0.55863
6627.16888,0.55759
6625.24013,0.55820
6623.31139,0.56060
6621.38264,0.56147
6619.45389,0.55965
6617.52515,0.55703
6615.59640,0.55468
6613.66766,0.55368
6611.73891,0.55476
6609.81017,0.55560
6607.88142,0.55387
6605.95268,0.55044
6604.02393,0.54857
6602.09519,0.55004
6600.16644,0.55278
6598.23770,0.55515
6596.30895,0.55677
6594.38021,0.55639
6592.45146,0.55461
6590.52271,0.55372
6588.59397,0.55425
6586.66522,0.55510
6584.73648,0.55571
6582.80773,0.55544
6580.87899,0.55402
6578.95024,0.55406
6577.02150,0.55593
6575.09275,0.55662
6573.16401,0.55627
6571.23526,0.55628
6569.30652,0.55666
6567.37777,0.55659
6565.44903,0.55522
6563.52028,0.55436
6561.59154,0.55564
6559.66279,0.55657
6557.73404,0.55550
6555.80530,0.55466
6553.87655,0.55461
6551.94781,0.55377
6550.01906,0.55289
6548.09032,0.55288
6546.16157,0.55326
6544.23283,0.55410
6542.30408,0.55474
6540.37534,0.55388
6538.44659,0.55270
6536.51785,0.55309
6534.58910,0.55432
6532.66036,0.55458
6530.73161,0.55278
6528.80287,0.55036
6526.87412,0.55055
6524.94537,0.55343
6523.01663,0.55582
6521.08788,0.55613
6519.15914,0.55516
6517.23039,0.55387
6515.30165,0.55303
6513.37290,0.55283
6511.44416,0.55309
6509.51541,0.55362
6507.58667,0.55364
6505.65792,0.55325
6503.72918,0.55371
6501.80043,0.55515
6499.87169,0.55585
6497.94294,0.55573
6496.01419,0.55553
6494.08545,0.55369
6492.15670,0.55082
6490.22796,0.54920
6488.29921,0.54893
6486.37047,0.55069
6484.44172,0.55414
6482.51298,0.55599
6480.58423,0.55520
6478.65549,0.55468
6476.72674,0.55644
6474.79800,0.55927
6472.86925,0.56027
6470.94051,0.55773
6469.01176,0.55470
6467.08302,0.55508
6465.15427,0.55728
6463.22552,0.55865
6461.29678,0.55947
6459.36803,0.56073
6457.43929,0.56243
6455.51054,0.56246
6453.58180,0.56032
6451.65305,0.55904
6449.72431,0.55921
6447.79556,0.55918
6445.86682,0.55920
6443.93807,0.55973
6442.00933,0.55997
6440.08058,0.55996
6438.15184,0.56093
6436.22309,0.56180
6434.29434,0.56179
6432.36560,0.56204
6430.43685,0.56126
6428.50811,0.55947
6426.57936,0.55903
6424.65062,0.56003
6422.72187,0.56171
6420.79313,0.56385
6418.86438,0.56585
6416.93564,0.56642
6415.00689,0.56521
6413.07815,0.56404
6411.14940,0.56410
6409.22066,0.56421
6407.29191,0.56317
6405.36317,0.56115
6403.43442,0.55940
6401.50567,0.55946
6399.57693,0.56140
6397.64818,0.56262
6395.71944,0.56127
6393.79069,0.55922
6391.86195,0.55888
6389.93320,0.56018
6388.00446,0.56182
6386.07571,0.56258
6384.14697,0.56248
6382.21822,0.56265
6380.28948,0.56302
6378.36073,0.56250
6376.43199,0.56066
6374.50324,0.55840
6372.57450,0.55767
6370.64575,0.55816
6368.71700,0.55779
6366.78826,0.55774
6364.85951,0.55911
6362.93077,0.55941
6361.00202,0.55739
6359.07328,0.55551
6357.14453,0.55582
6355.21579,0.55745
6353.28704,0.55892
6351.35830,0.55935
6349.42955,0.55919
6347.50081,0.56005
6345.57206,0.56042
6343.64332,0.55861
6341.71457,0.55707
6339.78582,0.55728
6337.85708,0.55815
6335.92833,0.55898
6333.99959,0.55953
6332.07084,0.55956
6330.14210,0.55936
6328.21335,0.55922
6326.28461,0.55930
6324.35586,0.55998
6322.42712,0.56026
6320.49837,0.55929
6318.56963,0.55838
6316.64088,0.55811
6314.71214,0.55801
6312.78339,0.55867
6310.85465,0.55985
6308.92590,0.56006
6306.99715,0.55983
6305.06841,0.56052
6303.13966,0.56139
6301.21092,0.56202
6299.28217,0.56280
6297.35343,0.56275
6295.42468,0.56196
6293.49594,0.56194
6291.56719,0.56213
6289.63845,0.56152
6287.70970,0.56098
6285.78096,0.56125
6283.85221,0.56173
6281.92347,0.56135
6279.99472,0.56076
6278.06598,0.56089
6276.13723,0.56074
6274.20848,0.55945
6272.27974,0.55729
6270.35099,0.55572
6268.42225,0.55639
6266.49350,0.55806
6264.56476,0.55837
6262.63601,0.55785
6260.70727,0.55809
6258.77852,0.55858
6256.84978,0.55767
6254.92103,0.55519
6252.99229,0.55311
6251.06354,0.55322
6249.13480,0.55478
6247.20605,0.55595
6245.27730,0.55686
6243.34856,0.55776
6241.41981,0.55786
6239.49107,0.55794
6237.56232,0.55847
6235.63358,0.55822
6233.70483,0.55717
6231.77609,0.55653
6229.84734,0.55749
6227.91860,0.56042
6225.98985,0.56312
6224.06111,0.56320
6222.13236,0.56111
6220.20362,0.55906
6218.27487,0.55915
6216.34613,0.56069
6214.41738,0.56078
6212.48863,0.55835
6210.55989,0.55522
6208.63114,0.55374
6206.70240,0.55361
6204.77365,0.55242
6202.84491,0.55005
6200.91616,0.54871
6198.98742,0.54950
6197.05867,0.55095
6195.12993,0.55127
6193.20118,0.55076
6191.27244,0.55038
6189.34369,0.55049
6187.41495,0.55116
6185.48620,0.55204
6183.55746,0.55300
6181.62871,0.55339
6179.69996,0.55244
6177.77122,0.55201
6175.84247,0.55320
6173.91373,0.55405
6171.98498,0.55479
6170.05624,0.55663
6168.12749,0.55759
6166.19875,0.55656
6164.27000,0.55534
6162.34126,0.55440
6160.41251,0.55356
6158.48377,0.55344
6156.55502,0.55300
6154.62628,0.55148
6152.69753,0.55025
6150.76878,0.55036
6148.84004,0.55154
6146.91129,0.55241
6144.98255,0.55217
6143.05380,0.55159
6141.12506,0.55162
6139.19631,0.55201
6137.26757,0.55163
6135.33882,0.55067
6133.41008,0.55051
6131.48133,0.55116
6129.55259,0.55173
6127.62384,0.55162
6125.69510,0.55045
6123.76635,0.54973
6121.83761,0.55059
6119.90886,0.55076
6117.98011,0.54888
6116.05137,0.54637
6114.12262,0.54432
6112.19388,0.54292
6110.26513,0.54234
6108.33639,0.54204
6106.40764,0.54045
6104.47890,0.53695
6102.55015,0.53348
6100.62141,0.53172
6098.69266,0.53044
6096.76392,0.52811
6094.83517,0.52499
6092.90643,0.52189
6090.97768,0.51924
6089.04893,0.51684
6087.12019,0.51470
6085.19144,0.51322
6083.26270,0.51179
6081.33395,0.50955
6079.40521,0.50697
6077.47646,0.50515
6075.54772,0.50436
6073.61897,0.50411
6071.69023,0.50305
6069.76148,0.50024
6067.83274,0.49653
6065.90399,0.49303
6063.97525,0.49045
6062.04650,0.48859
6060.11776,0.48629
6058.18901,0.48301
6056.26026,0.47865
6054.33152,0.47441
6052.40277,0.47272
6050.47403,0.47344
6048.54528,0.47341
6046.61654,0.47093
6044.68779,0.46739
6042.75905,0.46490
6040.83030,0.46345
6038.90156,0.46153
6036.97281,0.45964
6035.04407,0.45856
6033.11532,0.45681
6031.18658,0.45376
6029.25783,0.45055
6027.32909,0.44783
6025.40034,0.44551
6023.47159,0.44402
6021.54285,0.44352
6019.61410,0.44270
6017.68536,0.44153
6015.75661,0.44222
6013.82787,0.44546
6011.89912,0.44880
6009.97038,0.44944
6008.04163,0.44846
6006.11289,0.45001
6004.18414,0.45443
6002.25540,0.45838
6000.32665,0.46111
5998.39791,0.46352
5996.46916,0.46671
5994.54041,0.47160
5992.61167,0.47598
5990.68292,0.47790
5988.75418,0.47918
5986.82543,0.48143
5984.89669,0.48339
5982.96794,0.48388
5981.03920,0.48374
5979.11045,0.48361
5977.18171,0.48362
5975.25296,0.48435
5973.32422,0.48556
5971.39547,0.48692
5969.46673,0.48876
5967.53798,0.49043
5965.60924,0.49167
5963.68049,0.49310
5961.75174,0.49355
5959.82300,0.49260
5957.89425,0.49214
5955.96551,0.49292
5954.03676,0.49405
5952.10802,0.49453
5950.17927,0.49486
5948.25053,0.49597
5946.32178,0.49682
5944.39304,0.49617
5942.46429,0.49457
5940.53555,0.49343
5938.60680,0.49364
5936.67806,0.49542
5934.74931,0.49770
5932.82057,0.49904
5930.89182,0.49979
5928.96307,0.50073
5927.03433,0.50177
5925.10558,0.50251
5923.17684,0.50335
5921.24809,0.50532
5919.31935,0.50751
5917.39060,0.50869
5915.46186,0.50972
5913.53311,0.51070
5911.60437,0.51055
5909.67562,0.50974
5907.74688,0.50927
5905.81813,0.50922
5903.88939,0.50952
5901.96064,0.50929
5900.03189,0.50799
5898.10315,0.50713
5896.17440,0.50726
5894.24566,0.50728
5892.31691,0.50608
5890.38817,0.50356
5888.45942,0.50150
5886.53068,0.50074
5884.60193,0.49948
5882.67319,0.49748
5880.74444,0.49618
5878.81570,0.49510
5876.88695,0.49358
5874.95821,0.49250
5873.02946,0.49190
5871.10072,0.49060
5869.17197,0.48827
5867.24322,0.48655
5865.31448,0.48613
5863.38573,0.48488
5861.45699,0.48236
5859.52824,0.48107
5857.59950,0.48210
5855.67075,0.48323
5853.74201,0.48224
5851.81326,0.48015
5849.88452,0.47926
5847.95577,0.47938
5846.02703,0.47866
5844.09828,0.47731
5842.16954,0.47718
5840.24079,0.47823
5838.31205,0.47889
5836.38330,0.47858
5834.45455,0.47792
5832.52581,0.47772
5830.59706,0.47740
5828.66832,0.47619
5826.73957,0.47477
5824.81083,0.47412
5822.88208,0.47426
5820.95334,0.47424
5819.02459,0.47350
5817.09585,0.47299
5815.16710,0.47349
5813.23836,0.47445
5811.30961,0.47446
5809.38087,0.47306
5807.45212,0.47202
5805.52337,0.47291
5803.59463,0.47481
5801.66588,0.47608
5799.73714,0.47617
5797.80839,0.47565
5795.87965,0.47510
5793.95090,0.47459
5792.02216,0.47455
5790.09341,0.47512
5788.16467,0.47584
5786.23592,0.47631
5784.30718,0.47592
5782.37843,0.47517
5780.44969,0.47573
5778.52094,0.47688
5776.59220,0.47720
5774.66345,0.47765
5772.73470,0.47844
5770.80596,0.47882
5768.87721,0.47986
5766.94847,0.48201
5765.01972,0.48376
5763.09098,0.48483
5761.16223,0.48610
5759.23349,0.48698
5757.30474,0.48689
5755.37600,0.48728
5753.44725,0.48893
5751.51851,0.49065
5749.58976,0.49126
5747.66102,0.49088
5745.73227,0.49064
5743.80352,0.49159
5741.87478,0.49327
5739.94603,0.49435
5738.01729,0.49455
5736.08854,0.49436
5734.15980,0.49417
5732.23105,0.49410
5730.30231,0.49439
5728.37356,0.49498
5726.44482,0.49527
5724.51607,0.49509
5722.58733,0.49457
5720.65858,0.49413
5718.72984,0.49438
5716.80109,0.49491
5714.87235,0.49487
5712.94360,0.49470
5711.01485,0.49519
5709.08611,0.49532
5707.15736,0.49460
5705.22862,0.49489
5703.29987,0.49688
5701.37113,0.49862
5699.44238,0.49842
5697.51364,0.49745
5695.58489,0.49739
5693.65615,0.49766
5691.72740,0.49788
5689.79866,0.49859
5687.86991,0.49916
5685.94117,0.49889
5684.01242,0.49892
5682.08368,0.50066
5680.15493,0.50322
5678.22618,0.50479
5676.29744,0.50473
5674.36869,0.50392
5672.43995,0.50433
5670.51120,0.50637
5668.58246,0.50796
5666.65371,0.50781
5664.72497,0.50691
5662.79622,0.50663
5660.86748,0.50700
5658.93873,0.50677
5657.00999,0.50572
5655.08124,0.50584
5653.15250,0.50807
5651.22375,0.51055
5649.29500,0.51159
5647.36626,0.51177
5645.43751,0.51227
5643.50877,0.51317
5641.58002,0.51375
5639.65128,0.51371
5637.72253,0.51348
5635.79379,0.51388
5633.86504,0.51511
5631.93630,0.51668
5630.00755,0.51867
5628.07881,0.52097
5626.15006,0.52259
5624.22132,0.52268
5622.29257,0.52149
5620.36383,0.52076
5618.43508,0.52130
5616.50633,0.52223
5614.57759,0.52294
5612.64884,0.52306
5610.72010,0.52247
5608.79135,0.52188
5606.86261,0.52191
5604.93386,0.52278
5603.00512,0.52387
5601.07637,0.52398
5599.14763,0.52317
5597.21888,0.52240
5595.29014,0.52225
5593.36139,0.52263
5591.43265,0.52285
5589.50390,0.52280
5587.57516,0.52280
5585.64641,0.52289
5583.71766,0.52292
5581.78892,0.52251
5579.86017,0.52212
5577.93143,0.52231
5576.00268,0.52262
5574.07394,0.52270
5572.14519,0.52250
5570.21645,0.52211
5568.28770,0.52177
5566.35896,0.52119
5564.43021,0.52046
5562.50147,0.52037
5560.57272,0.52063
5558.64398,0.52085
5556.71523,0.52148
5554.78648,0.52229
5552.85774,0.52281
5550.92899,0.52318
5549.00025,0.52347
5547.07150,0.52345
5545.14276,0.52292
5543.21401,0.52233
5541.28527,0.52223
5539.35652,0.52262
5537.42778,0.52337
5535.49903,0.52370
5533.57029,0.52262
5531.64154,0.52130
5529.71280,0.52156
5527.78405,0.52272
5525.85531,0.52354
5523.92656,0.52414
5521.99781,0.52429
5520.06907,0.52353
5518.14032,0.52298
5516.21158,0.52384
5514.28283,0.52499
5512.35409,0.52506
5510.42534,0.52508
5508.49660,0.52575
5506.56785,0.52597
5504.63911,0.52530
5502.71036,0.52475
5500.78162,0.52532
5498.85287,0.52631
5496.92413,0.52599
5494.99538,0.52429
5493.06664,0.52299
5491.13789,0.52288
5489.20914,0.52331
5487.28040,0.52390
5485.35165,0.52428
5483.42291,0.52413
5481.49416,0.52393
5479.56542,0.52378
5477.63667,0.52348
5475.70793,0.52356
5473.77918,0.52408
5471.85044,0.52442
5469.92169,0.52467
5467.99295,0.52503
5466.06420,0.52531
5464.13546,0.52541
5462.20671,0.52523
5460.27796,0.52521
5458.34922,0.52624
5456.42047,0.52747
5454.49173,0.52773
5452.56298,0.52817
5450.63424,0.52927
5448.70549,0.52969
5446.77675,0.52974
5444.84800,0.53033
5442.91926,0.53088
5440.99051,0.53091
5439.06177,0.53101
5437.13302,0.53178
5435.20428,0.53298
5433.27553,0.53398
5431.34679,0.53436
5429.41804,0.53438
5427.48929,0.53435
5425.56055,0.53438
5423.63180,0.53464
5421.70306,0.53478
5419.77431,0.53477
5417.84557,0.53502
5415.91682,0.53497
5413.98808,0.53440
5412.05933,0.53411
5410.13059,0.53432
5408.20184,0.53477
5406.27310,0.53513
5404.34435,0.53492
5402.41561,0.53452
5400.48686,0.53464
5398.55811,0.53494
5396.62937,0.53505
5394.70062,0.53537
5392.77188,0.53603
5390.84313,0.53668
5388.91439,0.53686
5386.98564,0.53672
5385.05690,0.53676
5383.12815,0.53714
5381.19941,0.53801
5379.27066,0.53911
5377.34192,0.53949
5375.41317,0.53885
5373.48443,0.53802
5371.55568,0.53782
5369.62694,0.53831
5367.69819,0.53905
5365.76944,0.53959
5363.84070,0.53947
5361.91195,0.53900
5359.98321,0.53938
5358.05446,0.54028
5356.12572,0.54040
5354.19697,0.53974
5352.26823,0.53895
5350.33948,0.53840
5348.41074,0.53829
5346.48199,0.53870
5344.55325,0.53914
5342.62450,0.53871
5340.69576,0.53797
5338.76701,0.53794
5336.83827,0.53851
5334.90952,0.53938
5332.98077,0.54026
5331.05203,0.54068
5329.12328,0.54084
5327.19454,0.54114
5325.26579,0.54124
5323.33705,0.54082
5321.40830,0.54029
5319.47956,0.54012
5317.55081,0.54017
5315.62207,0.54013
5313.69332,0.54029
5311.76458,0.54068
5309.83583,0.54051
5307.90709,0.53982
5305.97834,0.53914
5304.04959,0.53829
5302.12085,0.53750
5300.19210,0.53717
5298.26336,0.53720
5296.33461,0.53737
5294.40587,0.53751
5292.47712,0.53731
5290.54838,0.53656
5288.61963,0.53561
5286.69089,0.53482
5284.76214,0.53426
5282.83340,0.53365
5280.90465,0.53254
5278.97591,0.53152
5277.04716,0.53139
5275.11842,0.53146
5273.18967,0.53071
5271.26092,0.52945
5269.33218,0.52867
5267.40343,0.52834
5265.47469,0.52782
5263.54594,0.52698
5261.61720,0.52594
5259.68845,0.52530
5257.75971,0.52557
5255.83096,0.52598
5253.90222,0.52595
5251.97347,0.52581
5250.04473,0.52587
5248.11598,0.52592
5246.18724,0.52538
5244.25849,0.52436
5242.32975,0.52353
5240.40100,0.52300
5238.47225,0.52296
5236.54351,0.52335
5234.61476,0.52367
5232.68602,0.52369
5230.75727,0.52354
5228.82853,0.52347
5226.89978,0.52345
5224.97104,0.52351
5223.04229,0.52385
5221.11355,0.52421
5219.18480,0.52424
5217.25606,0.52402
5215.32731,0.52384
5213.39857,0.52374
5211.46982,0.52346
5209.54107,0.52332
5207.61233,0.52356
5205.68358,0.52370
5203.75484,0.52355
5201.82609,0.52329
5199.89735,0.52309
5197.96860,0.52295
5196.03986,0.52267
5194.11111,0.52255
5192.18237,0.52279
5190.25362,0.52268
5188.32488,0.52178
5186.39613,0.52082
5184.46739,0.52091
5182.53864,0.52188
5180.60990,0.52232
5178.68115,0.52151
5176.75240,0.52023
5174.82366,0.51953
5172.89491,0.51973
5170.96617,0.52012
5169.03742,0.51996
5167.10868,0.51945
5165.17993,0.51902
5163.25119,0.51883
5161.32244,0.51884
5159.39370,0.51866
5157.46495,0.51812
5155.53621,0.51711
5153.60746,0.51581
5151.67872,0.51524
5149.74997,0.51529
5147.82123,0.51493
5145.89248,0.51442
5143.96373,0.51431
5142.03499,0.51420
5140.10624,0.51387
5138.17750,0.51356
5136.24875,0.51316
5134.32001,0.51256
5132.39126,0.51199
5130.46252,0.51158
5128.53377,0.51141
5126.60503,0.51125
5124.67628,0.51053
5122.74754,0.50960
5120.81879,0.50910
5118.89005,0.50860
5116.96130,0.50804
5115.03255,0.50829
5113.10381,0.50957
5111.17506,0.51133
5109.24632,0.51285
5107.31757,0.51385
5105.38883,0.51458
5103.46008,0.51545
5101.53134,0.51687
5099.60259,0.51833
5097.67385,0.51854
5095.74510,0.51823
5093.81636,0.51906
5091.88761,0.52052
5089.95887,0.52141
5088.03012,0.52185
5086.10138,0.52226
5084.17263,0.52285
5082.24388,0.52392
5080.31514,0.52491
5078.38639,0.52494
5076.45765,0.52482
5074.52890,0.52513
5072.60016,0.52506
5070.67141,0.52512
5068.74267,0.52584
5066.81392,0.52622
5064.88518,0.52621
5062.95643,0.52630
5061.02769,0.52629
5059.09894,0.52653
5057.17020,0.52710
5055.24145,0.52751
5053.31270,0.52759
5051.38396,0.52733
5049.45521,0.52718
5047.52647,0.52758
5045.59772,0.52768
5043.66898,0.52719
5041.74023,0.52707
5039.81149,0.52699
5037.88274,0.52651
5035.95400,0.52656
5034.02525,0.52746
5032.09651,0.52819
5030.16776,0.52815
5028.23902,0.52796
5026.31027,0.52794
5024.38153,0.52736
5022.45278,0.52596
5020.52403,0.52488
5018.59529,0.52513
5016.66654,0.52590
5014.73780,0.52580
5012.80905,0.52511
5010.88031,0.52471
5008.95156,0.52445
5007.02282,0.52391
5005.09407,0.52337
5003.16533,0.52294
5001.23658,0.52248
4999.30784,0.52225
4997.37909,0.52227
4995.45035,0.52218
4993.52160,0.52162
4991.59286,0.52052
4989.66411,0.51921
4987.73536,0.51822
4985.80662,0.51748
4983.87787,0.51661
4981.94913,0.51586
4980.02038,0.51546
4978.09164,0.51476
4976.16289,0.51350
4974.23415,0.51244
4972.30540,0.51180
4970.37666,0.51129
4968.44791,0.51102
4966.51917,0.51083
4964.59042,0.51033
4962.66168,0.50962
4960.73293,0.50892
4958.80418,0.50853
4956.87544,0.50854
4954.94669,0.50856
4953.01795,0.50851
4951.08920,0.50832
4949.16046,0.50780
4947.23171,0.50727
4945.30297,0.50702
4943.37422,0.50707
4941.44548,0.50703
4939.51673,0.50651
4937.58799,0.50585
4935.65924,0.50531
4933.73050,0.50470
4931.80175,0.50419
4929.87301,0.50397
4927.94426,0.50373
4926.01551,0.50314
4924.08677,0.50218
4922.15802,0.50122
4920.22928,0.50026
4918.30053,0.49901
4916.37179,0.49782
4914.44304,0.49656
4912.51430,0.49479
4910.58555,0.49315
4908.65681,0.49189
4906.72806,0.49038
4904.79932,0.48833
4902.87057,0.48613
4900.94183,0.48403
4899.01308,0.48192
4897.08434,0.47973
4895.15559,0.47777
4893.22684,0.47627
4891.29810,0.47458
4889.36935,0.47235
4887.44061,0.47038
4885.51186,0.46917
4883.58312,0.46807
4881.65437,0.46667
4879.72563,0.46520
4877.79688,0.46379
4875.86814,0.46271
4873.93939,0.46204
4872.01065,0.46169
4870.08190,0.46174
4868.15316,0.46224
4866.22441,0.46338
4864.29566,0.46521
4862.36692,0.46716
4860.43817,0.46905
4858.50943,0.47123
4856.58068,0.47368
4854.65194,0.47571
4852.72319,0.47706
4850.79445,0.47839
4848.86570,0.48026
4846.93696,0.48232
4845.00821,0.48391
4843.07947,0.48508
4841.15072,0.48624
4839.22198,0.48727
4837.29323,0.48768
4835.36449,0.48765
4833.43574,0.48818
4831.50699,0.48926
4829.57825,0.48961
4827.64950,0.48895
4825.72076,0.48818
4823.79201,0.48784
4821.86327,0.48757
4819.93452,0.48691
4818.00578,0.48629
4816.07703,0.48620
4814.14829,0.48623
4812.21954,0.48587
4810.29080,0.48533
4808.36205,0.48509
4806.43331,0.48491
4804.50456,0.48421
4802.57582,0.48311
4800.64707,0.48237
4798.71832,0.48222
4796.78958,0.48196
4794.86083,0.48106
4792.93209,0.48000
4791.00334,0.47994
4789.07460,0.48120
4787.14585,0.48245
4785.21711,0.48283
4783.28836,0.48287
4781.35962,0.48337
4779.43087,0.48456
4777.50213,0.48565
4775.57338,0.48576
4773.64464,0.48514
4771.71589,0.48469
4769.78714,0.48485
4767.85840,0.48518
4765.92965,0.48500
4764.00091,0.48428
4762.07216,0.48331
4760.14342,0.48207
4758.21467,0.48052
4756.28593,0.47914
4754.35718,0.47804
4752.42844,0.47660
4750.49969,0.47449
4748.57095,0.47221
4746.64220,0.47034
4744.71346,0.46882
4742.78471,0.46708
4740.85597,0.46484
4738.92722,0.46236
4736.99847,0.45997
4735.06973,0.45742
4733.14098,0.45454
4731.21224,0.45140
4729.28349,0.44784
4727.35475,0.44384
4725.42600,0.43982
4723.49726,0.43624
4721.56851,0.43314
4719.63977,0.43035
4717.71102,0.42828
4715.78228,0.42730
4713.85353,0.42710
4711.92479,0.42706
4709.99604,0.42634
4708.06729,0.42438
4706.13855,0.42141
4704.20980,0.41778
4702.28106,0.41365
4700.35231,0.40922
4698.42357,0.40449
4696.49482,0.39972
4694.56608,0.39584
4692.63733,0.39324
4690.70859,0.39152
4688.77984,0.39087
4686.85110,0.39158
4684.92235,0.39316
4682.99361,0.39595
4681.06486,0.40067
4679.13612,0.40638
4677.20737,0.41153
4675.27862,0.41595
4673.34988,0.42011
4671.42113,0.42360
4669.49239,0.42628
4667.56364,0.42868
4665.63490,0.43070
4663.70615,0.43201
4661.77741,0.43281
4659.84866,0.43342
4657.91992,0.43389
4655.99117,0.43400
4654.06243,0.43359
4652.13368,0.43254
4650.20494,0.43042
4648.27619,0.42728
4646.34745,0.42401
4644.41870,0.42070
4642.48995,0.41686
4640.56121,0.41291
4638.63246,0.40921
4636.70372,0.40587
4634.77497,0.40344
4632.84623,0.40260
4630.91748,0.40386
4628.98874,0.40692
4627.05999,0.41102
4625.13125,0.41592
4623.20250,0.42116
4621.27376,0.42613
4619.34501,0.43050
4617.41627,0.43395
4615.48752,0.43644
4613.55877,0.43819
4611.63003,0.43921
4609.70128,0.43950
4607.77254,0.43927
4605.84379,0.43867
4603.91505,0.43767
4601.98630,0.43615
4600.05756,0.43424
4598.12881,0.43217
4596.20007,0.43001
4594.27132,0.42764
4592.34258,0.42526
4590.41383,0.42321
4588.48509,0.42138
4586.55634,0.41950
4584.62760,0.41770
4582.69885,0.41611
4580.77010,0.41507
4578.84136,0.41511
4576.91261,0.41593
4574.98387,0.41745
4573.05512,0.42037
4571.12638,0.42461
4569.19763,0.42914
4567.26889,0.43316
4565.34014,0.43633
4563.41140,0.43860
4561.48265,0.44023
4559.55391,0.44159
4557.62516,0.44264
4555.69642,0.44322
4553.76767,0.44365
4551.83893,0.44419
4549.91018,0.44457
4547.98143,0.44463
4546.05269,0.44450
4544.12394,0.44448
4542.19520,0.44465
4540.26645,0.44489
4538.33771,0.44501
4536.40896,0.44494
4534.48022,0.44502
4532.55147,0.44539
4530.62273,0.44539
4528.69398,0.44472
4526.76524,0.44396
4524.83649,0.44356
4522.90775,0.44312
4520.97900,0.44240
4519.05025,0.44161
4517.12151,0.44088
4515.19276,0.44028
4513.26402,0.43963
4511.33527,0.43854
4509.40653,0.43671
4507.47778,0.43406
4505.54904,0.43134
4503.62029,0.42908
4501.69155,0.42659
4499.76280,0.42318
4497.83406,0.41890
4495.90531,0.41434
4493.97657,0.41028
4492.04782,0.40703
4490.11908,0.40440
4488.19033,0.40205
4486.26158,0.39984
4484.33284,0.39786
4482.40409,0.39597
4480.47535,0.39406
4478.54660,0.39208
4476.61786,0.38969
4474.68911,0.38667
4472.76037,0.38347
4470.83162,0.38009
4468.90288,0.37568
4466.97413,0.37005
4465.04539,0.36407
4463.11664,0.35829
4461.18790,0.35306
4459.25915,0.34881
4457.33041,0.34531
4455.40166,0.34241
4453.47291,0.34045
4451.54417,0.33892
4449.61542,0.33686
4447.68668,0.33408
4445.75793,0.33083
4443.82919,0.32749
4441.90044,0.32444
4439.97170,0.32155
4438.04295,0.31872
4436.11421,0.31626
4434.18546,0.31425
4432.25672,0.31283
4430.32797,0.31222
4428.39923,0.31197
4426.47048,0.31190
4424.54173,0.31243
4422.61299,0.31344
4420.68424,0.31435
4418.75550,0.31502
4416.82675,0.31555
4414.89801,0.31565
4412.96926,0.31515
4411.04052,0.31449
4409.11177,0.31369
4407.18303,0.31250
4405.25428,0.31171
4403.32554,0.31193
4401.39679,0.31253
4399.46805,0.31290
4397.53930,0.31334
4395.61056,0.31405
4393.68181,0.31450
4391.75306,0.31487
4389.82432,0.31581
4387.89557,0.31681
4385.96683,0.31703
4384.03808,0.31653
4382.10934,0.31580
4380.18059,0.31511
4378.25185,0.31426
4376.32310,0.31309
4374.39436,0.31166
4372.46561,0.30998
4370.53687,0.30816
4368.60812,0.30631
4366.67938,0.30433
4364.75063,0.30255
4362.82189,0.30130
4360.89314,0.30048
4358.96439,0.30014
4357.03565,0.30005
4355.10690,0.29967
4353.17816,0.29903
4351.24941,0.29881
4349.32067,0.29933
4347.39192,0.30018
4345.46318,0.30069
4343.53443,0.30083
4341.60569,0.30103
4339.67694,0.30138
4337.74820,0.30173
4335.81945,0.30208
4333.89071,0.30259
4331.96196,0.30319
4330.03321,0.30349
4328.10447,0.30322
4326.17572,0.30244
4324.24698,0.30170
4322.31823,0.30165
4320.38949,0.30261
4318.46074,0.30431
4316.53200,0.30590
4314.60325,0.30682
4312.67451,0.30700
4310.74576,0.30660
4308.81702,0.30618
4306.88827,0.30577
4304.95953,0.30487
4303.03078,0.30360
4301.10204,0.30228
4299.17329,0.30081
4297.24454,0.29937
4295.31580,0.29841
4293.38705,0.29770
4291.45831,0.29658
4289.52956,0.29534
4287.60082,0.29465
4285.67207,0.29438
4283.74333,0.29418
4281.81458,0.29395
4279.88584,0.29357
4277.95709,0.29305
4276.02835,0.29232
4274.09960,0.29125
4272.17086,0.29019
4270.24211,0.28962
4268.31336,0.28944
4266.38462,0.28940
4264.45587,0.28972
4262.52713,0.29035
4260.59838,0.29072
4258.66964,0.29069
4256.74089,0.29044
4254.81215,0.28991
4252.88340,0.28944
4250.95466,0.28959
4249.02591,0.29001
4247.09717,0.29032
4245.16842,0.29106
4243.23968,0.29233
4241.31093,0.29326
4239.38219,0.29376
4237.45344,0.29466
4235.52469,0.29593
4233.59595,0.29681
4231.66720,0.29707
4229.73846,0.29693
4227.80971,0.29673
4225.88097,0.29675
4223.95222,0.29700
4222.02348,0.29746
4220.09473,0.29823
4218.16599,0.29919
4216.23724,0.30023
4214.30850,0.30143
4212.37975,0.30289
4210.45101,0.30429
4208.52226,0.30511
4206.59352,0.30555
4204.66477,0.30615
4202.73602,0.30688
4200.80728,0.30753
4198.87853,0.30816
4196.94979,0.30865
4195.02104,0.30871
4193.09230,0.30848
4191.16355,0.30821
4189.23481,0.30776
4187.30606,0.30694
4185.37732,0.30565
4183.44857,0.30417
4181.51983,0.30284
4179.59108,0.30151
4177.66234,0.30043
4175.73359,0.30039
4173.80484,0.30176
4171.87610,0.30392
4169.94735,0.30615
4168.01861,0.30843
4166.08986,0.31092
4164.16112,0.31360
4162.23237,0.31622
4160.30363,0.31834
4158.37488,0.32003
4156.44614,0.32150
4154.51739,0.32266
4152.58865,0.32369
4150.65990,0.32471
4148.73116,0.32537
4146.80241,0.32551
4144.87367,0.32538
4142.94492,0.32509
4141.01617,0.32448
4139.08743,0.32328
4137.15868,0.32169
4135.22994,0.32026
4133.30119,0.31915
4131.37245,0.31836
4129.44370,0.31776
4127.51496,0.31721
4125.58621,0.31653
4123.65747,0.31539
4121.72872,0.31408
4119.79998,0.31292
4117.87123,0.31154
4115.94249,0.31010
4114.01374,0.30868
4112.08500,0.30660
4110.15625,0.30389
4108.22750,0.30101
4106.29876,0.29783
4104.37001,0.29426
4102.44127,0.29033
4100.51252,0.28570
4098.58378,0.27997
4096.65503,0.27328
4094.72629,0.26655
4092.79754,0.26117
4090.86880,0.25784
4088.94005,0.25639
4087.01131,0.25664
4085.08256,0.25848
4083.15382,0.26170
4081.22507,0.26633
4079.29632,0.27235
4077.36758,0.27920
4075.43883,0.28588
4073.51009,0.29176
4071.58134,0.29677
4069.65260,0.30086
4067.72385,0.30415
4065.79511,0.30692
4063.86636,0.30920
4061.93762,0.31095
4060.00887,0.31240
4058.08013,0.31370
4056.15138,0.31489
4054.22264,0.31603
4052.29389,0.31716
4050.36515,0.31811
4048.43640,0.31885
4046.50765,0.31968
4044.57891,0.32081
4042.65016,0.32216
4040.72142,0.32351
4038.79267,0.32455
4036.86393,0.32526
4034.93518,0.32593
4033.00644,0.32656
4031.07769,0.32702
4029.14895,0.32727
4027.22020,0.32731
4025.29146,0.32727
4023.36271,0.32735
4021.43397,0.32757
4019.50522,0.32763
4017.57648,0.32748
4015.64773,0.32742
4013.71898,0.32748
4011.79024,0.32751
4009.86149,0.32757
4007.93275,0.32777
4006.00400,0.32799
4004.07526,0.32823
4002.14651,0.32861
4000.21777,0.32914
3998.28902,0.32976
3996.36028,0.33059
3994.43153,0.33166
3992.50279,0.33277
3990.57404,0.33379
3988.64530,0.33478
3986.71655,0.33589
3984.78780,0.33722
3982.85906,0.33866
3980.93031,0.34002
3979.00157,0.34135
3977.07282,0.34277
3975.14408,0.34410
3973.21533,0.34537
3971.28659,0.34688
3969.35784,0.34860
3967.42910,0.35030
3965.50035,0.35189
3963.57161,0.35334
3961.64286,0.35483
3959.71412,0.35662
3957.78537,0.35839
3955.85663,0.35988
3953.92788,0.36138
3951.99913,0.36288
3950.07039,0.36399
3948.14164,0.36480
3946.21290,0.36568
3944.28415,0.36657
3942.35541,0.36732
3940.42666,0.36808
3938.49792,0.36903
3936.56917,0.36998
3934.64043,0.37052
3932.71168,0.37063
3930.78294,0.37057
3928.85419,0.37050
3926.92545,0.37060
3924.99670,0.37089
3923.06795,0.37135
3921.13921,0.37199
3919.21046,0.37267
3917.28172,0.37325
3915.35297,0.37397
3913.42423,0.37507
3911.49548,0.37650
3909.56674,0.37823
3907.63799,0.37998
3905.70925,0.38165
3903.78050,0.38353
3901.85176,0.38524
3899.92301,0.38640
3897.99427,0.38768
3896.06552,0.38923
3894.13678,0.39040
3892.20803,0.39113
3890.27928,0.39180
3888.35054,0.39234
3886.42179,0.39257
3884.49305,0.39273
3882.56430,0.39334
3880.63556,0.39455
3878.70681,0.39564
3876.77807,0.39607
3874.84932,0.39618
3872.92058,0.39666
3870.99183,0.39786
3869.06309,0.39915
3867.13434,0.39973
3865.20560,0.39988
3863.27685,0.40005
3861.34811,0.40027
3859.41936,0.40060
3857.49061,0.40103
3855.56187,0.40132
3853.63312,0.40131
3851.70438,0.40122
3849.77563,0.40120
3847.84689,0.40133
3845.91814,0.40160
3843.98940,0.40159
3842.06065,0.40120
3840.13191,0.40094
3838.20316,0.40105
3836.27442,0.40147
3834.34567,0.40205
3832.41693,0.40258
3830.48818,0.40298
3828.55943,0.40329
3826.63069,0.40341
3824.70194,0.40326
3822.77320,0.40296
3820.84445,0.40259
3818.91571,0.40194
3816.98696,0.40066
3815.05822,0.39906
3813.12947,0.39786
3811.20073,0.39704
3809.27198,0.39650
3807.34324,0.39639
3805.41449,0.39673
3803.48575,0.39750
3801.55700,0.39864
3799.62826,0.40002
3797.69951,0.40166
3795.77076,0.40337
3793.84202,0.40471
3791.91327,0.40564
3789.98453,0.40629
3788.05578,0.40682
3786.12704,0.40746
3784.19829,0.40814
3782.26955,0.40859
3780.34080,0.40862
3778.41206,0.40811
3776.48331,0.40722
3774.55457,0.40626
3772.62582,0.40518
3770.69708,0.40380
3768.76833,0.40219
3766.83959,0.40064
3764.91084,0.39924
3762.98209,0.39792
3761.05335,0.39663
3759.12460,0.39564
3757.19586,0.39549
3755.26711,0.39638
3753.33837,0.39839
3751.40962,0.40171
3749.48088,0.40550
3747.55213,0.40837
3745.62339,0.41038
3743.69464,0.41175
3741.76590,0.41206
3739.83715,0.41147
3737.90841,0.41033
3735.97966,0.40875
3734.05091,0.40713
3732.12217,0.40633
3730.19342,0.40664
3728.26468,0.40769
3726.33593,0.40941
3724.40719,0.41164
3722.47844,0.41355
3720.54970,0.41446
3718.62095,0.41440
3716.69221,0.41384
3714.76346,0.41319
3712.83472,0.41256
3710.90597,0.41153
3708.97723,0.40946
3707.04848,0.40648
3705.11974,0.40330
3703.19099,0.40013
3701.26224,0.39644
3699.33350,0.39195
3697.40475,0.38683
3695.47601,0.38109
3693.54726,0.37454
3691.61852,0.36702
3689.68977,0.35847
3687.76103,0.35031
3685.83228,0.34525
3683.90354,0.34376
3681.97479,0.34454
3680.04605,0.34647
3678.11730,0.34881
3676.18856,0.35110
3674.25981,0.35247
3672.33107,0.35246
3670.40232,0.35150
3668.47357,0.34965
3666.54483,0.34712
3664.61608,0.34415
3662.68734,0.34100
3660.75859,0.33791
3658.82985,0.33465
3656.90110,0.33072
3654.97236,0.32664
3653.04361,0.32329
3651.11487,0.31992
3649.18612,0.31577
3647.25738,0.31168
3645.32863,0.30811
3643.39989,0.30478
3641.47114,0.30177
3639.54239,0.29907
3637.61365,0.29630
3635.68490,0.29337
3633.75616,0.29076
3631.82741,0.28867
3629.89867,0.28650
3627.96992,0.28393
3626.04118,0.28169
3624.11243,0.27970
3622.18369,0.27760
3620.25494,0.27557
3618.32620,0.27342
3616.39745,0.27108
3614.46871,0.26899
3612.53996,0.26723
3610.61122,0.26538
3608.68247,0.26317
3606.75372,0.26081
3604.82498,0.25854
3602.89623,0.25641
3600.96749,0.25435
3599.03874,0.25217
3597.11000,0.24967
3595.18125,0.24696
3593.25251,0.24430
3591.32376,0.24177
3589.39502,0.23890
3587.46627,0.23539
3585.53753,0.23180
3583.60878,0.22844
3581.68004,0.22511
3579.75129,0.22180
3577.82254,0.21861
3575.89380,0.21540
3573.96505,0.21201
3572.03631,0.20872
3570.10756,0.20582
3568.17882,0.20322
3566.25007,0.20058
3564.32133,0.19782
3562.39258,0.19518
3560.46384,0.19267
3558.53509,0.19020
3556.60635,0.18797
3554.67760,0.18633
3552.74886,0.18519
3550.82011,0.18425
3548.89137,0.18330
3546.96262,0.18223
3545.03387,0.18123
3543.10513,0.18061
3541.17638,0.18022
3539.24764,0.17967
3537.31889,0.17901
3535.39015,0.17872
3533.46140,0.17889
3531.53266,0.17896
3529.60391,0.17849
3527.67517,0.17794
3525.74642,0.17796
3523.81768,0.17829
3521.88893,0.17841
3519.96019,0.17835
3518.03144,0.17831
3516.10270,0.17835
3514.17395,0.17843
3512.24520,0.17853
3510.31646,0.17864
3508.38771,0.17874
3506.45897,0.17888
3504.53022,0.17883
3502.60148,0.17844
3500.67273,0.17819
3498.74399,0.17824
3496.81524,0.17823
3494.88650,0.17814
3492.95775,0.17826
3491.02901,0.17854
3489.10026,0.17850
3487.17152,0.17777
3485.24277,0.17667
3483.31402,0.17577
3481.38528,0.17521
3479.45653,0.17455
3477.52779,0.17339
3475.59904,0.17201
3473.67030,0.17068
3471.74155,0.16926
3469.81281,0.16752
3467.88406,0.16552
3465.95532,0.16334
3464.02657,0.16097
3462.09783,0.15831
3460.16908,0.15536
3458.24034,0.15230
3456.31159,0.14932
3454.38285,0.14634
3452.45410,0.14307
3450.52535,0.13942
3448.59661,0.13564
3446.66786,0.13204
3444.73912,0.12882
3442.81037,0.12588
3440.88163,0.12298
3438.95288,0.12019
3437.02414,0.11763
3435.09539,0.11540
3433.16665,0.11366
3431.23790,0.11270
3429.30916,0.11318
3427.38041,0.11512
3425.45167,0.11788
3423.52292,0.12101
3421.59418,0.12434
3419.66543,0.12794
3417.73668,0.13190
3415.80794,0.13590
3413.87919,0.13934
3411.95045,0.14204
3410.02170,0.14445
3408.09296,0.14682
3406.16421,0.14880
3404.23547,0.15037
3402.30672,0.15164
3400.37798,0.15243
3398.44923,0.15274
3396.52049,0.15285
3394.59174,0.15283
3392.66300,0.15235
3390.73425,0.15144
3388.80550,0.15049
3386.87676,0.14969
3384.94801,0.14906
3383.01927,0.14834
3381.09052,0.14729
3379.16178,0.14604
3377.23303,0.14483
3375.30429,0.14372
3373.37554,0.14257
3371.44680,0.14116
3369.51805,0.13963
3367.58931,0.13818
3365.66056,0.13686
3363.73182,0.13573
3361.80307,0.13453
3359.87433,0.13294
3357.94558,0.13117
3356.01683,0.12939
3354.08809,0.12775
3352.15934,0.12648
3350.23060,0.12539
3348.30185,0.12412
3346.37311,0.12262
3344.44436,0.12109
3342.51562,0.11987
3340.58687,0.11913
3338.65813,0.11846
3336.72938,0.11775
3334.80064,0.11738
3332.87189,0.11754
3330.94315,0.11816
3329.01440,0.11894
3327.08566,0.11959
3325.15691,0.12012
3323.22816,0.12049
3321.29942,0.12055
3319.37067,0.12048
3317.44193,0.12062
3315.51318,0.12087
3313.58444,0.12088
3311.65569,0.12075
3309.72695,0.12088
3307.79820,0.12116
3305.86946,0.12118
3303.94071,0.12101
3302.01197,0.12098
3300.08322,0.12104
3298.15448,0.12096
3296.22573,0.12118
3294.29698,0.12184
3292.36824,0.12222
3290.43949,0.12235
3288.51075,0.12281
3286.58200,0.12333
3284.65326,0.12365
3282.72451,0.12398
3280.79577,0.12432
3278.86702,0.12455
3276.93828,0.12469
3275.00953,0.12475
3273.08079,0.12493
3271.15204,0.12543
3269.22330,0.12604
3267.29455,0.12630
3265.36581,0.12636
3263.43706,0.12683
3261.50831,0.12752
3259.57957,0.12800
3257.65082,0.12839
3255.72208,0.12878
3253.79333,0.12919
3251.86459,0.12981
3249.93584,0.13058
3248.00710,0.13131
3246.07835,0.13181
3244.14961,0.13207
3242.22086,0.13211
3240.29212,0.13200
3238.36337,0.13207
3236.43463,0.13253
3234.50588,0.13314
3232.57713,0.13375
3230.64839,0.13438
3228.71964,0.13507
3226.79090,0.13567
3224.86215,0.13599
3222.93341,0.13650
3221.00466,0.13753
3219.07592,0.13856
3217.14717,0.13920
3215.21843,0.13955
3213.28968,0.13975
3211.36094,0.13987
3209.43219,0.13993
3207.50345,0.14007
3205.57470,0.14040
3203.64596,0.14067
3201.71721,0.14078
3199.78846,0.14071
3197.85972,0.14053
3195.93097,0.14074
3194.00223,0.14138
3192.07348,0.14181
3190.14474,0.14200
3188.21599,0.14230
3186.28725,0.14290
3184.35850,0.14390
3182.42976,0.14511
3180.50101,0.14603
3178.57227,0.14673
3176.64352,0.14768
3174.71478,0.14870
3172.78603,0.14938
3170.85729,0.14996
3168.92854,0.15074
3166.99979,0.15146
3165.07105,0.15184
3163.14230,0.15206
3161.21356,0.15233
3159.28481,0.15253
3157.35607,0.15256
3155.42732,0.15265
3153.49858,0.15274
3151.56983,0.15244
3149.64109,0.15186
3147.71234,0.15132
3145.78360,0.15076
3143.85485,0.15000
3141.92611,0.14907
3139.99736,0.14787
3138.06861,0.14630
3136.13987,0.14441
3134.21112,0.14246
3132.28238,0.14066
3130.35363,0.13900
3128.42489,0.13752
3126.49614,0.13649
3124.56740,0.13588
3122.63865,0.13546
3120.70991,0.13498
3118.78116,0.13407
3116.85242,0.13239
3114.92367,0.12989
3112.99493,0.12680
3111.06618,0.12343
3109.13744,0.11999
3107.20869,0.11675
3105.27994,0.11413
3103.35120,0.11251
3101.42245,0.11192
3099.49371,0.11214
3097.56496,0.11291
3095.63622,0.11365
3093.70747,0.11350
3091.77873,0.11227
3089.84998,0.11046
3087.92124,0.10835
3085.99249,0.10582
3084.06375,0.10335
3082.13500,0.10171
3080.20626,0.10097
3078.27751,0.10066
3076.34877,0.10063
3074.42002,0.10065
3072.49127,0.10037
3070.56253,0.09995
3068.63378,0.09985
3066.70504,0.10014
3064.77629,0.10071
3062.84755,0.10126
3060.91880,0.10113
3058.99006,0.10009
3057.06131,0.09884
3055.13257,0.09845
3053.20382,0.09978
3051.27508,0.10336
3049.34633,0.10883
3047.41759,0.11505
3045.48884,0.12106
3043.56009,0.12620
3041.63135,0.12999
3039.70260,0.13231
3037.77386,0.13350
3035.84511,0.13401
3033.91637,0.13398
3031.98762,0.13325
3030.05888,0.13167
3028.13013,0.12929
3026.20139,0.12640
3024.27264,0.12314
3022.34390,0.11945
3020.41515,0.11528
3018.48641,0.11079
3016.55766,0.10633
3014.62892,0.10245
3012.70017,0.09953
3010.77142,0.09753
3008.84268,0.09597
3006.91393,0.09421
3004.98519,0.09202
3003.05644,0.08983
3001.12770,0.08793
2999.19895,0.08607
2997.27021,0.08413
2995.34146,0.08222
2993.41272,0.08003
2991.48397,0.07718
2989.55523,0.07391
2987.62648,0.07064
2985.69774,0.06738
2983.76899,0.06401
2981.84025,0.06061
2979.91150,0.05727
2977.98275,0.05417
2976.05401,0.05141
2974.12526,0.04882
2972.19652,0.04659
2970.26777,0.04506
2968.33903,0.04416
2966.41028,0.04379
2964.48154,0.04383
2962.55279,0.04408
2960.62405,0.04435
2958.69530,0.04467
2956.76656,0.04523
2954.83781,0.04600
2952.90907,0.04697
2950.98032,0.04823
2949.05157,0.04994
2947.12283,0.05226
2945.19408,0.05504
2943.26534,0.05789
2941.33659,0.06054
2939.40785,0.06297
2937.47910,0.06517
2935.55036,0.06717
2933.62161,0.06882
2931.69287,0.06973
2929.76412,0.06983
2927.83538,0.06956
2925.90663,0.06919
2923.97789,0.06863
2922.04914,0.06790
2920.12040,0.06704
2918.19165,0.06582
2916.26290,0.06407
2914.33416,0.06216
2912.40541,0.06054
2910.47667,0.05933
2908.54792,0.05883
2906.61918,0.05945
2904.69043,0.06118
2902.76169,0.06360
2900.83294,0.06600
2898.90420,0.06778
2896.97545,0.06900
2895.04671,0.06986
2893.11796,0.07046
2891.18922,0.07096
2889.26047,0.07137
2887.33172,0.07182
2885.40298,0.07261
2883.47423,0.07360
2881.54549,0.07449
2879.61674,0.07528
2877.68800,0.07600
2875.75925,0.07650
2873.83051,0.07697
2871.90176,0.07784
2869.97302,0.07879
2868.04427,0.07930
2866.11553,0.07964
2864.18678,0.08035
2862.25804,0.08127
2860.32929,0.08202
2858.40055,0.08275
2856.47180,0.08383
2854.54305,0.08533
2852.61431,0.08709
2850.68556,0.08947
2848.75682,0.09317
2846.82807,0.09824
2844.89933,0.10393
2842.97058,0.10952
2841.04184,0.11468
2839.11309,0.11931
2837.18435,0.12363
2835.25560,0.12767
2833.32686,0.13124
2831.39811,0.13430
2829.46937,0.13699
2827.54062,0.13949
2825.61188,0.14194
2823.68313,0.14429
2821.75438,0.14645
2819.82564,0.14836
2817.89689,0.14994
2815.96815,0.15118
2814.03940,0.15231
2812.11066,0.15347
2810.18191,0.15453
2808.25317,0.15542
2806.32442,0.15650
2804.39568,0.15812
2802.46693,0.16024
2800.53819,0.16267
2798.60944,0.16539
2796.68070,0.16813
2794.75195,0.17071
2792.82320,0.17333
2790.89446,0.17601
2788.96571,0.17850
2787.03697,0.18078
2785.10822,0.18299
2783.17948,0.18508
2781.25073,0.18701
2779.32199,0.18885
2777.39324,0.19062
2775.46450,0.19216
2773.53575,0.19339
2771.60701,0.19447
2769.67826,0.19546
2767.74952,0.19630
2765.82077,0.19704
2763.89203,0.19772
2761.96328,0.19831
2760.03453,0.19889
2758.10579,0.19956
2756.17704,0.20019
2754.24830,0.20066
2752.31955,0.20115
2750.39081,0.20180
2748.46206,0.20245
2746.53332,0.20310
2744.60457,0.20379
2742.67583,0.20438
2740.74708,0.20512
2738.81834,0.20646
2736.88959,0.20846
2734.96085,0.21086
2733.03210,0.21333
2731.10336,0.21572
2729.17461,0.21797
2727.24586,0.22010
2725.31712,0.22223
2723.38837,0.22436
2721.45963,0.22640
2719.53088,0.22838
2717.60214,0.23028
2715.67339,0.23194
2713.74465,0.23346
2711.81590,0.23499
2709.88716,0.23659
2707.95841,0.23822
2706.02967,0.23974
2704.10092,0.24105
2702.17218,0.24222
2700.24343,0.24344
2698.31468,0.24461
2696.38594,0.24551
2694.45719,0.24622
2692.52845,0.24683
2690.59970,0.24735
2688.67096,0.24781
2686.74221,0.24837
2684.81347,0.24907
2682.88472,0.24978
2680.95598,0.25045
2679.02723,0.25105
2677.09849,0.25171
2675.16974,0.25260
2673.24100,0.25360
2671.31225,0.25446
2669.38351,0.25522
2667.45476,0.25587
2665.52601,0.25630
2663.59727,0.25657
2661.66852,0.25679
2659.73978,0.25694
2657.81103,0.25699
2655.88229,0.25699
2653.95354,0.25701
2652.02480,0.25699
2650.09605,0.25693
2648.16731,0.25686
2646.23856,0.25664
2644.30982,0.25590
2642.38107,0.25442
2640.45233,0.25248
2638.52358,0.25039
2636.59484,0.24825
2634.66609,0.24606
2632.73734,0.24408
2630.80860,0.24285
2628.87985,0.24262
2626.95111,0.24325
2625.02236,0.24447
2623.09362,0.24575
2621.16487,0.24659
2619.23613,0.24710
2617.30738,0.24753
2615.37864,0.24781
2613.44989,0.24780
2611.52115,0.24760
2609.59240,0.24743
2607.66366,0.24739
2605.73491,0.24736
2603.80616,0.24706
2601.87742,0.24630
2599.94867,0.24528
2598.01993,0.24420
2596.09118,0.24304
2594.16244,0.24169
2592.23369,0.24009
2590.30495,0.23842
2588.37620,0.23704
2586.44746,0.23607
2584.51871,0.23540
2582.58997,0.23500
2580.66122,0.23498
2578.73248,0.23547
2576.80373,0.23639
2574.87499,0.23741
2572.94624,0.23828
2571.01749,0.23908
2569.08875,0.23968
2567.16000,0.23996
2565.23126,0.24014
2563.30251,0.24023
2561.37377,0.24010
2559.44502,0.24002
2557.51628,0.24013
2555.58753,0.24025
2553.65879,0.24036
2551.73004,0.24047
2549.80130,0.24058
2547.87255,0.24077
2545.94381,0.24087
2544.01506,0.24078
2542.08631,0.24081
2540.15757,0.24112
2538.22882,0.24154
2536.30008,0.24187
2534.37133,0.24213
2532.44259,0.24246
2530.51384,0.24304
2528.58510,0.24399
2526.65635,0.24519
2524.72761,0.24649
2522.79886,0.24803
2520.87012,0.24981
2518.94137,0.25157
2517.01263,0.25306
2515.08388,0.25442
2513.15514,0.25581
2511.22639,0.25706
2509.29764,0.25796
2507.36890,0.25858
2505.44015,0.25917
2503.51141,0.25998
2501.58266,0.26101
2499.65392,0.26212
2497.72517,0.26332
2495.79643,0.26469
2493.86768,0.26618
2491.93894,0.26784
2490.01019,0.26967
2488.08145,0.27158
2486.15270,0.27354
2484.22396,0.27560
2482.29521,0.27761
2480.36647,0.27946
2478.43772,0.28133
2476.50897,0.28321
2474.58023,0.28497
2472.65148,0.28679
2470.72274,0.28876
2468.79399,0.29065
2466.86525,0.29234
2464.93650,0.29388
2463.00776,0.29513
2461.07901,0.29599
2459.15027,0.29672
2457.22152,0.29747
2455.29278,0.29813
2453.36403,0.29854
2451.43529,0.29858
2449.50654,0.29825
2447.57779,0.29777
2445.64905,0.29722
2443.72030,0.29621
2441.79156,0.29462
2439.86281,0.29287
2437.93407,0.29115
2436.00532,0.28910
2434.07658,0.28665
2432.14783,0.28418
2430.21909,0.28178
2428.29034,0.27927
2426.36160,0.27671
2424.43285,0.27423
2422.50411,0.27182
2420.57536,0.26931
2418.64662,0.26677
2416.71787,0.26452
2414.78912,0.26253
2412.86038,0.26042
2410.93163,0.25820
2409.00289,0.25610
2407.07414,0.25411
2405.14540,0.25229
2403.21665,0.25065
2401.28791,0.24901
2399.35916,0.24736
2397.43042,0.24591
2395.50167,0.24479
2393.57293,0.24385
2391.64418,0.24296
2389.71544,0.24235
2387.78669,0.24224
2385.85795,0.24251
2383.92920,0.24305
2382.00045,0.24376
2380.07171,0.24467
2378.14296,0.24591
2376.21422,0.24740
2374.28547,0.24898
2372.35673,0.25088
2370.42798,0.25313
2368.49924,0.25549
2366.57049,0.25803
2364.64175,0.26107
2362.71300,0.26452
2360.78426,0.26795
2358.85551,0.27118
2356.92677,0.27437
2354.99802,0.27755
2353.06927,0.28041
2351.14053,0.28280
2349.21178,0.28500
2347.28304,0.28719
2345.35429,0.28918
2343.42555,0.29081
2341.49680,0.29220
2339.56806,0.29333
2337.63931,0.29397
2335.71057,0.29415
2333.78182,0.29416
2331.85308,0.29426
2329.92433,0.29438
2327.99559,0.29430
2326.06684,0.29423
2324.13810,0.29474
2322.20935,0.29618
2320.28060,0.29823
2318.35186,0.30034
2316.42311,0.30224
2314.49437,0.30379
2312.56562,0.30469
2310.63688,0.30471
2308.70813,0.30386
2306.77939,0.30224
2304.85064,0.29993
2302.92190,0.29704
2300.99315,0.29367
2299.06441,0.28984
2297.13566,0.28550
2295.20692,0.28089
2293.27817,0.27648
2291.34943,0.27258
2289.42068,0.26931
2287.49193,0.26685
2285.56319,0.26531
2283.63444,0.26470
2281.70570,0.26513
2279.77695,0.26645
2277.84821,0.26813
2275.91946,0.26951
2273.99072,0.27011
2272.06197,0.26999
2270.13323,0.26948
2268.20448,0.26854
2266.27574,0.26701
2264.34699,0.26487
2262.41825,0.26215
2260.48950,0.25891
2258.56075,0.25504
2256.63201,0.25009
2254.70326,0.24377
2252.77452,0.23637
2250.84577,0.22872
2248.91703,0.22172
2246.98828,0.21606
2245.05954,0.21235
2243.13079,0.21131
2241.20205,0.21366
2239.27330,0.21996
2237.34456,0.23031
2235.41581,0.24386
2233.48707,0.25823
2231.55832,0.27041
2229.62958,0.27896
2227.70083,0.28440
2225.77208,0.28782
2223.84334,0.28986
2221.91459,0.29109
2219.98585,0.29207
2218.05710,0.29286
2216.12836,0.29331
2214.19961,0.29365
2212.27087,0.29424
2210.34212,0.29533
2208.41338,0.29707
2206.48463,0.29943
2204.55589,0.30190
2202.62714,0.30389
2200.69840,0.30512
2198.76965,0.30570
2196.84090,0.30592
2194.91216,0.30573
2192.98341,0.30509
2191.05467,0.30440
2189.12592,0.30396
2187.19718,0.30356
2185.26843,0.30296
2183.33969,0.30221
2181.41094,0.30128
2179.48220,0.30004
2177.55345,0.29836
2175.62471,0.29634
2173.69596,0.29410
2171.76722,0.29153
2169.83847,0.28850
2167.90973,0.28524
2165.98098,0.28193
2164.05223,0.27853
2162.12349,0.27484
2160.19474,0.27091
2158.26600,0.26711
2156.33725,0.26373
2154.40851,0.26064
2152.47976,0.25767
2150.55102,0.25498
2148.62227,0.25271
2146.69353,0.25080
2144.76478,0.24901
2142.83604,0.24726
2140.90729,0.24576
2138.97855,0.24447
2137.04980,0.24319
2135.12106,0.24198
2133.19231,0.24076
2131.26356,0.23923
2129.33482,0.23743
2127.40607,0.23553
2125.47733,0.23360
2123.54858,0.23170
2121.61984,0.23005
2119.69109,0.22867
2117.76235,0.22739
2115.83360,0.22635
2113.90486,0.22575
2111.97611,0.22540
2110.04737,0.22516
2108.11862,0.22510
2106.18988,0.22526
2104.26113,0.22567
2102.33238,0.22631
2100.40364,0.22711
2098.47489,0.22810
2096.54615,0.22925
2094.61740,0.23044
2092.68866,0.23170
2090.75991,0.23331
2088.83117,0.23528
2086.90242,0.23738
2084.97368,0.23971
2083.04493,0.24247
2081.11619,0.24545
2079.18744,0.24837
2077.25870,0.25135
2075.32995,0.25469
2073.40121,0.25826
2071.47246,0.26186
2069.54371,0.26556
2067.61497,0.26935
2065.68622,0.27323
2063.75748,0.27720
2061.82873,0.28103
2059.89999,0.28456
2057.97124,0.28787
2056.04250,0.29097
2054.11375,0.29380
2052.18501,0.29648
2050.25626,0.29897
2048.32752,0.30093
2046.39877,0.30233
2044.47003,0.30332
2042.54128,0.30386
2040.61254,0.30415
2038.68379,0.30429
2036.75504,0.30404
2034.82630,0.30335
2032.89755,0.30231
2030.96881,0.30093
2029.04006,0.29932
2027.11132,0.29741
2025.18257,0.29498
2023.25383,0.29229
2021.32508,0.28968
2019.39634,0.28714
2017.46759,0.28458
2015.53885,0.28204
2013.61010,0.27951
2011.68136,0.27691
2009.75261,0.27404
2007.82386,0.27077
2005.89512,0.26706
2003.96637,0.26315
2002.03763,0.25931
2000.10888,0.25556
1998.18014,0.25177
1996.25139,0.24791
1994.32265,0.24396
1992.39390,0.23999
1990.46516,0.23630
1988.53641,0.23312
1986.60767,0.23022
1984.67892,0.22724
1982.75018,0.22415
1980.82143,0.22107
1978.89269,0.21783
1976.96394,0.21424
1975.03519,0.21033
1973.10645,0.20600
1971.17770,0.20089
1969.24896,0.19503
1967.32021,0.18879
1965.39147,0.18251
1963.46272,0.17667
1961.53398,0.17195
1959.60523,0.16897
1957.67649,0.16799
1955.74774,0.16866
1953.81900,0.17034
1951.89025,0.17257
1949.96151,0.17514
1948.03276,0.17816
1946.10402,0.18184
1944.17527,0.18638
1942.24652,0.19170
1940.31778,0.19722
1938.38903,0.20263
1936.46029,0.20803
1934.53154,0.21327
1932.60280,0.21822
1930.67405,0.22289
1928.74531,0.22723
1926.81656,0.23117
1924.88782,0.23474
1922.95907,0.23803
1921.03033,0.24100
1919.10158,0.24373
1917.17284,0.24649
1915.24409,0.24918
1913.31534,0.25161
1911.38660,0.25388
1909.45785,0.25602
1907.52911,0.25798
1905.60036,0.25972
1903.67162,0.26133
1901.74287,0.26291
1899.81413,0.26445
1897.88538,0.26585
1895.95664,0.26713
1894.02789,0.26838
1892.09915,0.26955
1890.17040,0.27065
1888.24166,0.27146
1886.31291,0.27178
1884.38417,0.27178
1882.45542,0.27151
1880.52667,0.27097
1878.59793,0.27015
1876.66918,0.26890
1874.74044,0.26719
1872.81169,0.26521
1870.88295,0.26292
1868.95420,0.26000
1867.02546,0.25671
1865.09671,0.25337
1863.16797,0.24973
1861.23922,0.24549
1859.31048,0.24063
1857.38173,0.23518
1855.45299,0.22925
1853.52424,0.22289
1851.59549,0.21608
1849.66675,0.20906
1847.73800,0.20240
1845.80926,0.19607
1843.88051,0.18941
1841.95177,0.18298
1840.02302,0.17745
1838.09428,0.17234
1836.16553,0.16752
1834.23679,0.16324
1832.30804,0.15943
1830.37930,0.15585
1828.45055,0.15268
1826.52181,0.15016
1824.59306,0.14812
1822.66432,0.14658
1820.73557,0.14551
1818.80682,0.14468
1816.87808,0.14395
1814.94933,0.14325
1813.02059,0.14264
1811.09184,0.14189
1809.16310,0.14082
1807.23435,0.13966
1805.30561,0.13862
1803.37686,0.13762
1801.44812,0.13641
1799.51937,0.13489
1797.59063,0.13322
1795.66188,0.13160
1793.73314,0.12977
1791.80439,0.12739
1789.87565,0.12480
1787.94690,0.12225
1786.01815,0.11935
1784.08941,0.11597
1782.16066,0.11251
1780.23192,0.10913
1778.30317,0.10588
1776.37443,0.10283
1774.44568,0.09955
1772.51694,0.09550
1770.58819,0.09123
1768.65945,0.08718
1766.73070,0.08288
1764.80196,0.07835
1762.87321,0.07343
1760.94447,0.06816
1759.01572,0.06309
1757.08697,0.05797
1755.15823,0.05290
1753.22948,0.04828
1751.30074,0.04365
1749.37199,0.03921
1747.44325,0.03570
1745.51450,0.03321
1743.58576,0.03176
1741.65701,0.03120
1739.72827,0.03117
1737.79952,0.03162
1735.87078,0.03262
1733.94203,0.03432
1732.01329,0.03625
1730.08454,0.03791
1728.15580,0.03943
1726.22705,0.04095
1724.29830,0.04249
1722.36956,0.04396
1720.44081,0.04518
1718.51207,0.04597
1716.58332,0.04610
1714.65458,0.04562
1712.72583,0.04475
1710.79709,0.04376
1708.86834,0.04297
1706.93960,0.04273
1705.01085,0.04318
1703.08211,0.04413
1701.15336,0.04558
1699.22462,0.04731
1697.29587,0.04869
1695.36713,0.04979
1693.43838,0.05072
1691.50963,0.05136
1689.58089,0.05161
1687.65214,0.05146
1685.72340,0.05091
1683.79465,0.05031
1681.86591,0.05058
1679.93716,0.05187
1678.00842,0.05352
1676.07967,0.05517
1674.15093,0.05684
1672.22218,0.05850
1670.29344,0.06046
1668.36469,0.06306
1666.43595,0.06583
1664.50720,0.06847
1662.57845,0.07129
1660.64971,0.07420
1658.72096,0.07676
1656.79222,0.07881
1654.86347,0.08066
1652.93473,0.08281
1651.00598,0.08460
1649.07724,0.08587
1647.14849,0.08737
1645.21975,0.08909
1643.29100,0.09070
1641.36226,0.09222
1639.43351,0.09351
1637.50477,0.09433
1635.57602,0.09477
1633.64728,0.09516
1631.71853,0.09571
1629.78978,0.09625
1627.86104,0.09661
1625.93229,0.09670
1624.00355,0.09632
1622.07480,0.09512
1620.14606,0.09298
1618.21731,0.08948
1616.28857,0.08513
1614.35982,0.08283
1612.43108,0.08373
1610.50233,0.08681
1608.57359,0.09090
1606.64484,0.09495
1604.71610,0.09860
1602.78735,0.10195
1600.85861,0.10496
1598.92986,0.10723
1597.00111,0.10829
1595.07237,0.10784
1593.14362,0.10577
1591.21488,0.10245
1589.28613,0.09822
1587.35739,0.09249
1585.42864,0.08450
1583.49990,0.07492
1581.57115,0.06593
1579.64241,0.05999
1577.71366,0.05854
1575.78492,0.06192
1573.85617,0.06773
1571.92743,0.07349
1569.99868,0.07913
1568.06993,0.08384
1566.14119,0.08698
1564.21244,0.08912
1562.28370,0.09076
1560.35495,0.09229
1558.42621,0.09359
1556.49746,0.09426
1554.56872,0.09476
1552.63997,0.09532
1550.71123,0.09600
1548.78248,0.09695
1546.85374,0.09799
1544.92499,0.09907
1542.99625,0.10025
1541.06750,0.10094
1539.13876,0.10029
1537.21001,0.09898
1535.28126,0.09754
1533.35252,0.09527
1531.42377,0.09233
1529.49503,0.08972
1527.56628,0.08772
1525.63754,0.08638
1523.70879,0.08581
1521.78005,0.08584
1519.85130,0.08585
1517.92256,0.08497
1515.99381,0.08257
1514.06507,0.07831
1512.13632,0.07180
1510.20758,0.06327
1508.27883,0.05369
1506.35008,0.04584
1504.42134,0.04521
1502.49259,0.05135
1500.56385,0.06158
1498.63510,0.07355
1496.70636,0.08414
1494.77761,0.09077
1492.84887,0.09330
1490.92012,0.09278
1488.99138,0.08973
1487.06263,0.08481
1485.13389,0.07886
1483.20514,0.07250
1481.27640,0.06623
1479.34765,0.06052
1477.41891,0.05540
1475.49016,0.05066
1473.56141,0.04675
1471.63267,0.04455
1469.70392,0.04394
1467.77518,0.04364
1465.84643,0.04267
1463.91769,0.04074
1461.98894,0.03853
1460.06020,0.03662
1458.13145,0.03485
1456.20271,0.03353
1454.27396,0.03332
1452.34522,0.03383
1450.41647,0.03447
1448.48773,0.03513
1446.55898,0.03605
1444.63024,0.03716
1442.70149,0.03805
1440.77274,0.03892
1438.84400,0.04030
1436.91525,0.04251
1434.98651,0.04527
1433.05776,0.04808
1431.12902,0.05084
1429.20027,0.05312
1427.27153,0.05415
1425.34278,0.05350
1423.41404,0.05114
1421.48529,0.04734
1419.55655,0.04213
1417.62780,0.03640
1415.69906,0.03197
1413.77031,0.02946
1411.84156,0.02881
1409.91282,0.02949
1407.98407,0.03072
1406.05533,0.03212
1404.12658,0.03376
1402.19784,0.03557
1400.26909,0.03739
1398.34035,0.03898
1396.41160,0.04004
1394.48286,0.04068
1392.55411,0.04093
1390.62537,0.04065
1388.69662,0.04003
1386.76788,0.03922
1384.83913,0.03828
1382.91039,0.03711
1380.98164,0.03575
1379.05289,0.03455
1377.12415,0.03361
1375.19540,0.03260
1373.26666,0.03172
1371.33791,0.03149
1369.40917,0.03193
1367.48042,0.03292
1365.55168,0.03455
1363.62293,0.03660
1361.69419,0.03820
1359.76544,0.03887
1357.83670,0.03903
1355.90795,0.03894
1353.97921,0.03836
1352.05046,0.03716
1350.12172,0.03566
1348.19297,0.03428
1346.26422,0.03327
1344.33548,0.03284
1342.40673,0.03298
1340.47799,0.03331
1338.54924,0.03376
1336.62050,0.03451
1334.69175,0.03545
1332.76301,0.03630
1330.83426,0.03680
1328.90552,0.03666
1326.97677,0.03584
1325.04803,0.03467
1323.11928,0.03340
1321.19054,0.03215
1319.26179,0.03098
1317.33304,0.02989
1315.40430,0.02886
1313.47555,0.02796
1311.54681,0.02712
1309.61806,0.02636
1307.68932,0.02580
1305.76057,0.02538
1303.83183,0.02501
1301.90308,0.02480
1299.97434,0.02502
1298.04559,0.02563
1296.11685,0.02643
1294.18810,0.02732
1292.25936,0.02831
1290.33061,0.02923
1288.40187,0.03001
1286.47312,0.03091
1284.54437,0.03205
1282.61563,0.03332
1280.68688,0.03462
1278.75814,0.03590
1276.82939,0.03725
1274.90065,0.03876
1272.97190,0.04036
1271.04316,0.04184
1269.11441,0.04300
1267.18567,0.04379
1265.25692,0.04431
1263.32818,0.04471
1261.39943,0.04496
1259.47069,0.04493
1257.54194,0.04476
1255.61320,0.04482
1253.68445,0.04516
1251.75570,0.04548
1249.82696,0.04572
1247.89821,0.04596
1245.96947,0.04612
1244.04072,0.04608
1242.11198,0.04576
1240.18323,0.04522
1238.25449,0.04456
1236.32574,0.04394
1234.39700,0.04357
1232.46825,0.04366
1230.53951,0.04434
1228.61076,0.04548
1226.68202,0.04666
1224.75327,0.04774
1222.82452,0.04908
1220.89578,0.05072
1218.96703,0.05236
1217.03829,0.05387
1215.10954,0.05522
1213.18080,0.05641
1211.25205,0.05749
1209.32331,0.05853
1207.39456,0.05951
1205.46582,0.06054
1203.53707,0.06178
1201.60833,0.06320
1199.67958,0.06472
1197.75084,0.06650
1195.82209,0.06847
1193.89335,0.07010
1191.96460,0.07088
1190.03585,0.07065
1188.10711,0.06928
1186.17836,0.06669
1184.24962,0.06293
1182.32087,0.05870
1180.39213,0.05487
1178.46338,0.05169
1176.53464,0.04950
1174.60589,0.04873
1172.67715,0.04928
1170.74840,0.05069
1168.81966,0.05236
1166.89091,0.05362
1164.96217,0.05392
1163.03342,0.05315
1161.10467,0.05160
1159.17593,0.04963
1157.24718,0.04737
1155.31844,0.04485
1153.38969,0.04211
1151.46095,0.03930
1149.53220,0.03684
1147.60346,0.03507
1145.67471,0.03390
1143.74597,0.03309
1141.81722,0.03256
1139.88848,0.03245
1137.95973,0.03298
1136.03099,0.03398
1134.10224,0.03529
1132.17350,0.03701
1130.24475,0.03874
1128.31600,0.03977
1126.38726,0.04019
1124.45851,0.04063
1122.52977,0.04102
1120.60102,0.04101
1118.67228,0.04080
1116.74353,0.04071
1114.81479,0.04066
1112.88604,0.04070
1110.95730,0.04093
1109.02855,0.04131
1107.09981,0.04197
1105.17106,0.04287
1103.24232,0.04370
1101.31357,0.04442
1099.38483,0.04508
1097.45608,0.04548
1095.52733,0.04550
1093.59859,0.04545
1091.66984,0.04558
1089.74110,0.04581
1087.81235,0.04597
1085.88361,0.04620
1083.95486,0.04688
1082.02612,0.04822
1080.09737,0.05027
1078.16863,0.05321
1076.23988,0.05682
1074.31114,0.06066
1072.38239,0.06456
1070.45365,0.06829
1068.52490,0.07148
1066.59615,0.07401
1064.66741,0.07607
1062.73866,0.07748
1060.80992,0.07771
1058.88117,0.07661
1056.95243,0.07434
1055.02368,0.07124
1053.09494,0.06782
1051.16619,0.06442
1049.23745,0.06138
1047.30870,0.05907
1045.37996,0.05762
1043.45121,0.05701
1041.52247,0.05702
1039.59372,0.05750
1037.66498,0.05842
1035.73623,0.05945
1033.80748,0.05985
1031.87874,0.05913
1029.94999,0.05722
1028.02125,0.05439
1026.09250,0.05163
1024.16376,0.05000
1022.23501,0.04918
1020.30627,0.04863
1018.37752,0.04925
1016.44878,0.05228
1014.52003,0.05854
1012.59129,0.06830
1010.66254,0.08040
1008.73380,0.09301
1006.80505,0.10448
1004.87631,0.11332
1002.94756,0.11912
1001.01881,0.12247
999.09007,0.12417
997.16132,0.12497
995.23258,0.12489
993.30383,0.12314
991.37509,0.11952
989.44634,0.11522
987.51760,0.11164
985.58885,0.10860
983.66011,0.10482
981.73136,0.09985
979.80262,0.09405
977.87387,0.08813
975.94513,0.08312
974.01638,0.08009
972.08763,0.07978
970.15889,0.08246
968.23014,0.08782
966.30140,0.09491
964.37265,0.10265
962.44391,0.11059
960.51516,0.11861
958.58642,0.12626
956.65767,0.13311
954.72893,0.13884
952.80018,0.14317
950.87144,0.14623
948.94269,0.14807
947.01395,0.14867
945.08520,0.14830
943.15646,0.14700
941.22771,0.14457
939.29896,0.14144
937.37022,0.13876
935.44147,0.13757
933.51273,0.13825
931.58398,0.14080
929.65524,0.14464
927.72649,0.14856
925.79775,0.15143
923.86900,0.15294
921.94026,0.15319
920.01151,0.15214
918.08277,0.14954
916.15402,0.14518
914.22528,0.13914
912.29653,0.13156
910.36779,0.12237
908.43904,0.11232
906.51029,0.10331
904.58155,0.09672
902.65280,0.09242
900.72406,0.08975
898.79531,0.08837
896.86657,0.08825
894.93782,0.08919
893.00908,0.09018
891.08033,0.09006
889.15159,0.08870
887.22284,0.08645
885.29410,0.08301
883.36535,0.07838
881.43661,0.07320
879.50786,0.06809
877.57911,0.06346
875.65037,0.05974
873.72162,0.05837
871.79288,0.06148
869.86413,0.06912
867.93539,0.07847
866.00664,0.08626
864.07790,0.09082
862.14915,0.09237
860.22041,0.09174
858.29166,0.08941
856.36292,0.08598
854.43417,0.08244
852.50543,0.07947
850.57668,0.07735
848.64794,0.07651
846.71919,0.07749
844.79044,0.08011
842.86170,0.08337
840.93295,0.08691
839.00421,0.09126
837.07546,0.09641
835.14672,0.10185
833.21797,0.10729
831.28923,0.11238
829.36048,0.11674
827.43174,0.12029
825.50299,0.12280
823.57425,0.12422
821.64550,0.12487
819.71676,0.12465
817.78801,0.12353
815.85926,0.12224
813.93052,0.12118
812.00177,0.12010
810.07303,0.11878
808.14428,0.11760
806.21554,0.11692
804.28679,0.11596
802.35805,0.11411
800.42930,0.11093
798.50056,0.10480
796.57181,0.09563
794.64307,0.08805
792.71432,0.08734
790.78558,0.09355
788.85683,0.10273
786.92809,0.11173
784.99934,0.11951
783.07059,0.12567
781.14185,0.12998
779.21310,0.13293
777.28436,0.13514
775.35561,0.13678
773.42687,0.13794
771.49812,0.13878
769.56938,0.13925
767.64063,0.13942
765.71189,0.13929
763.78314,0.13834
761.85440,0.13626
759.92565,0.13335
757.99691,0.12962
756.06816,0.12492
754.13942,0.11961
752.21067,0.11394
750.28192,0.10751
748.35318,0.09938
746.42443,0.08869
744.49569,0.07567
742.56694,0.06170
740.63820,0.04894
738.70945,0.03957
736.78071,0.03430
734.85196,0.03242
732.92322,0.03291
730.99447,0.03473
729.06573,0.03707
727.13698,0.03986
725.20824,0.04311
723.27949,0.04700
721.35074,0.05284
719.42200,0.06187
717.49325,0.07298
715.56451,0.08288
713.63576,0.08965
711.70702,0.09405
709.77827,0.09694
707.84953,0.09908
705.92078,0.10202
703.99204,0.10664
702.06329,0.11307
700.13455,0.12133
698.20580,0.13024
696.27706,0.13765
694.34831,0.14249
692.41957,0.14493
690.49082,0.14544
688.56207,0.14470
686.63333,0.14323
684.70458,0.14073
682.77584,0.13745
680.84709,0.13543
678.91835,0.13663
676.98960,0.14096
675.06086,0.14633
673.13211,0.15075
671.20337,0.15417
669.27462,0.15745
667.34588,0.16062
665.41713,0.16323
663.48839,0.16523
661.55964,0.16711
659.63090,0.16944
657.70215,0.17184
655.77340,0.17350
653.84466,0.17462
651.91591,0.17574
649.98717,0.17660
648.05842,0.17689
646.12968,0.17720
644.20093,0.17796
642.27219,0.17831
640.34344,0.17714
638.41470,0.17362
636.48595,0.16596
634.55721,0.15370
632.62846,0.14411
630.69972,0.14654
628.77097,0.15744
626.84222,0.16652
624.91348,0.17124
622.98473,0.17420
621.05599,0.17675
619.12724,0.17850
617.19850,0.17908
615.26975,0.17957
613.34101,0.18037
611.41226,0.18136
609.48352,0.18274
607.55477,0.18375
605.62603,0.18330
603.69728,0.18136
601.76854,0.17897
599.83979,0.17763
