7497.03301,0.57378
7495.10426,0.57274
7493.17552,0.57656
7491.24677,0.57978
7489.31803,0.58089
7487.38928,0.57863
7485.46054,0.57474
7483.53179,0.57205
7481.60305,0.56840
7479.67430,0.56219
7477.74556,0.55905
7475.81681,0.56377
7473.88807,0.57069
7471.95932,0.57435
7470.03057,0.57521
7468.10183,0.57419
7466.17308,0.57433
7464.24434,0.57718
7462.31559,0.58047
7460.38685,0.58056
7458.45810,0.57650
7456.52936,0.57223
7454.60061,0.56796
7452.67187,0.56437
7450.74312,0.56624
7448.81438,0.56988
7446.88563,0.57063
7444.95689,0.57227
7443.02814,0.57457
7441.09940,0.57248
7439.17065,0.56698
7437.24190,0.56514
7435.31316,0.56926
7433.38441,0.57161
7431.45567,0.56813
7429.52692,0.56659
7427.59818,0.57094
7425.66943,0.57472
7423.74069,0.57312
7421.81194,0.57084
7419.88320,0.57273
7417.95445,0.57302
7416.02571,0.56781
7414.09696,0.56434
7412.16822,0.56581
7410.23947,0.56682
7408.31073,0.56682
7406.38198,0.56944
7404.45323,0.57139
7402.52449,0.56946
7400.59574,0.56822
7398.66700,0.57058
7396.73825,0.57373
7394.80951,0.57215
7392.88076,0.56422
7390.95202,0.55734
7389.02327,0.55702
7387.09453,0.56232
7385.16578,0.57177
7383.23704,0.57852
7381.30829,0.57712
7379.37955,0.57557
7377.45080,0.57772
7375.52205,0.57699
7373.59331,0.57343
7371.66456,0.57171
7369.73582,0.57060
7367.80707,0.56653
7365.87833,0.56251
7363.94958,0.56485
7362.02084,0.57010
7360.09209,0.56936
7358.16335,0.56420
7356.23460,0.56216
7354.30586,0.56330
7352.37711,0.56390
7350.44837,0.56527
7348.51962,0.56921
7346.59088,0.57000
7344.66213,0.56278
7342.73338,0.55581
7340.80464,0.55784
7338.87589,0.56311
7336.94715,0.56303
7335.01840,0.55924
7333.08966,0.55726
7331.16091,0.55917
7329.23217,0.56265
7327.30342,0.56259
7325.37468,0.55890
7323.44593,0.55835
7321.51719,0.56252
7319.58844,0.56511
7317.65970,0.56435
7315.73095,0.56432
7313.80221,0.56526
7311.87346,0.56456
7309.94471,0.56204
7308.01597,0.56010
7306.08722,0.56165
7304.15848,0.56511
7302.22973,0.56572
7300.30099,0.56417
7298.37224,0.56494
7296.44350,0.56639
7294.51475,0.56528
7292.58601,0.56519
7290.65726,0.56741
7288.72852,0.56711
7286.79977,0.56340
7284.87103,0.56082
7282.94228,0.56281
7281.01353,0.56718
7279.08479,0.56811
7277.15604,0.56591
7275.22730,0.56601
7273.29855,0.56763
7271.36981,0.56704
7269.44106,0.56530
7267.51232,0.56500
7265.58357,0.56529
7263.65483,0.56347
7261.72608,0.56021
7259.79734,0.55762
7257.86859,0.55760
7255.93985,0.56166
7254.01110,0.56538
7252.08236,0.56457
7250.15361,0.56153
7248.22486,0.55808
7246.29612,0.55525
7244.36737,0.55484
7242.43863,0.55639
7240.50988,0.55876
7238.58114,0.56209
7236.65239,0.56474
7234.72365,0.56276
7232.79490,0.55622
7230.86616,0.55078
7228.93741,0.55013
7227.00867,0.55340
7225.07992,0.55829
7223.15118,0.56263
7221.22243,0.56586
7219.29369,0.56774
7217.36494,0.56652
7215.43619,0.56255
7213.50745,0.55892
7211.57870,0.55654
7209.64996,0.55516
7207.72121,0.55648
7205.79247,0.55915
7203.86372,0.55906
7201.93498,0.55676
7200.00623,0.55488
7198.07749,0.55394
7196.14874,0.55452
7194.22000,0.55689
7192.29125,0.55899
7190.36251,0.55831
7188.43376,0.55680
7186.50501,0.55694
7184.57627,0.55590
7182.64752,0.55400
7180.71878,0.55624
7178.79003,0.56088
7176.86129,0.56163
7174.93254,0.55906
7173.00380,0.55800
7171.07505,0.55920
7169.14631,0.56207
7167.21756,0.56450
7165.28882,0.56208
7163.36007,0.55778
7161.43133,0.55771
7159.50258,0.55990
7157.57384,0.55982
7155.64509,0.55845
7153.71634,0.55811
7151.78760,0.55772
7149.85885,0.55657
7147.93011,0.55637
7146.00136,0.55771
7144.07262,0.55839
7142.14387,0.55769
7140.21513,0.55704
7138.28638,0.55544
7136.35764,0.55375
7134.42889,0.55392
7132.50015,0.55312
7130.57140,0.55204
7128.64266,0.55473
7126.71391,0.55830
7124.78516,0.55776
7122.85642,0.55378
7120.92767,0.55064
7118.99893,0.55126
7117.07018,0.55360
7115.14144,0.55280
7113.21269,0.54926
7111.28395,0.54790
7109.35520,0.54910
7107.42646,0.54977
7105.49771,0.55003
7103.56897,0.55150
7101.64022,0.55337
7099.71148,0.55440
7097.78273,0.55519
7095.85399,0.55461
7093.92524,0.55026
7091.99649,0.54624
7090.06775,0.54784
7088.13900,0.55115
7086.21026,0.55137
7084.28151,0.55102
7082.35277,0.55368
7080.42402,0.55698
7078.49528,0.55596
7076.56653,0.55144
7074.63779,0.54738
7072.70904,0.54571
7070.78030,0.54718
7068.85155,0.55049
7066.92281,0.55349
7064.99406,0.55395
7063.06532,0.55124
7061.13657,0.54868
7059.20782,0.54866
7057.27908,0.54978
7055.35033,0.55084
7053.42159,0.55330
7051.49284,0.55630
7049.56410,0.55558
7047.63535,0.55168
7045.70661,0.55030
7043.77786,0.55296
7041.84912,0.55703
7039.92037,0.55990
7037.99163,0.55779
7036.06288,0.55324
7034.13414,0.55211
7032.20539,0.55050
7030.27664,0.54795
7028.34790,0.54968
7026.41915,0.55058
7024.49041,0.54741
7022.56166,0.54712
7020.63292,0.55031
7018.70417,0.55091
7016.77543,0.54948
7014.84668,0.55037
7012.91794,0.55252
7010.98919,0.55237
7009.06045,0.54999
7007.13170,0.54812
7005.20296,0.54879
7003.27421,0.55189
7001.34547,0.55515
6999.41672,0.55572
6997.48797,0.55354
6995.55923,0.55120
6993.63048,0.54994
6991.70174,0.55063
6989.77299,0.55428
6987.84425,0.55815
6985.91550,0.55819
6983.98676,0.55476
6982.05801,0.55315
6980.12927,0.55633
6978.20052,0.55836
6976.27178,0.55502
6974.34303,0.55189
6972.41429,0.55265
6970.48554,0.55351
6968.55680,0.55290
6966.62805,0.55383
6964.69930,0.55601
6962.77056,0.55714
6960.84181,0.55706
6958.91307,0.55637
6956.98432,0.55578
6955.05558,0.55538
6953.12683,0.55644
6951.19809,0.55936
6949.26934,0.56035
6947.34060,0.55854
6945.41185,0.55745
6943.48311,0.55762
6941.55436,0.55644
6939.62562,0.55358
6937.69687,0.55179
6935.76812,0.55266
6933.83938,0.55479
6931.91063,0.55516
6929.98189,0.55415
6928.05314,0.55563
6926.12440,0.55852
6924.19565,0.55903
6922.26691,0.55779
6920.33816,0.55691
6918.40942,0.55728
6916.48067,0.55898
6914.55193,0.56034
6912.62318,0.56033
6910.69444,0.56014
6908.76569,0.55936
6906.83695,0.55807
6904.90820,0.55863
6902.97945,0.56007
6901.05071,0.56028
6899.12196,0.56052
6897.19322,0.56233
6895.26447,0.56474
6893.33573,0.56555
6891.40698,0.56385
6889.47824,0.55926
6887.54949,0.55377
6885.62075,0.55261
6883.69200,0.55570
6881.76326,0.55744
6879.83451,0.55777
6877.90577,0.56027
6875.97702,0.56311
6874.04828,0.56282
6872.11953,0.55967
6870.19078,0.55648
6868.26204,0.55577
6866.33329,0.55715
6864.40455,0.55797
6862.47580,0.55640
6860.54706,0.55427
6858.61831,0.55486
6856.68957,0.55730
6854.76082,0.55815
6852.83208,0.55727
6850.90333,0.55743
6848.97459,0.55981
6847.04584,0.56310
6845.11710,0.56418
6843.18835,0.56140
6841.25960,0.55846
6839.33086,0.55898
6837.40211,0.56186
6835.47337,0.56398
6833.54462,0.56291
6831.61588,0.55935
6829.68713,0.55671
6827.75839,0.55757
6825.82964,0.56068
6823.90090,0.56270
6821.97215,0.56191
6820.04341,0.55864
6818.11466,0.55616
6816.18592,0.55658
6814.25717,0.55769
6812.32843,0.55907
6810.39968,0.56056
6808.47093,0.55967
6806.54219,0.55733
6804.61344,0.55674
6802.68470,0.55919
6800.75595,0.56308
6798.82721,0.56379
6796.89846,0.56035
6794.96972,0.55669
6793.04097,0.55493
6791.11223,0.55563
6789.18348,0.55887
6787.25474,0.56229
6785.32599,0.56270
6783.39725,0.56006
6781.46850,0.55812
6779.53975,0.55771
6777.61101,0.55672
6775.68226,0.55717
6773.75352,0.56013
6771.82477,0.56182
6769.89603,0.56101
6767.96728,0.55969
6766.03854,0.55942
6764.10979,0.56031
6762.18105,0.56031
6760.25230,0.55795
6758.32356,0.55499
6756.39481,0.55468
6754.46607,0.55773
6752.53732,0.56052
6750.60858,0.56124
6748.67983,0.56191
6746.75108,0.56228
6744.82234,0.56183
6742.89359,0.56220
6740.96485,0.56312
6739.03610,0.56260
6737.10736,0.56024
6735.17861,0.55837
6733.24987,0.55916
6731.32112,0.56113
6729.39238,0.56151
6727.46363,0.55997
6725.53489,0.55860
6723.60614,0.55859
6721.67740,0.55891
6719.74865,0.55908
6717.81991,0.55951
6715.89116,0.55920
6713.96241,0.55794
6712.03367,0.55884
6710.10492,0.56255
6708.17618,0.56463
6706.24743,0.56344
6704.31869,0.56229
6702.38994,0.56154
6700.46120,0.55858
6698.53245,0.55507
6696.60371,0.55449
6694.67496,0.55582
6692.74622,0.55703
6690.81747,0.55916
6688.88873,0.56167
6686.95998,0.56173
6685.03123,0.56022
6683.10249,0.55927
6681.17374,0.55793
6679.24500,0.55642
6677.31625,0.55722
6675.38751,0.55953
6673.45876,0.56051
6671.53002,0.56130
6669.60127,0.56336
6667.67253,0.56464
6665.74378,0.56352
6663.81504,0.56087
6661.88629,0.55879
6659.95755,0.55869
6658.02880,0.56008
6656.10006,0.56062
6654.17131,0.55872
6652.24256,0.55611
6650.31382,0.55483
6648.38507,0.55507
6646.45633,0.55582
6644.52758,0.55635
6642.59884,0.55716
6640.67009,0.55757
6638.74135,0.55669
6636.81260,0.55539
6634.88386,0.55402
6632.95511,0.55330
6631.02637,0.55473
6629.09762,0.55691
6627.16888,0.55773
6625.24013,0.55811
6623.31139,0.55790
6621.38264,0.55631
6619.45389,0.55586
6617.52515,0.55749
6615.59640,0.55796
6613.66766,0.55586
6611.73891,0.55383
6609.81017,0.55377
6607.88142,0.55470
6605.95268,0.55482
6604.02393,0.55439
6602.09519,0.55544
6600.16644,0.55726
6598.23770,0.55811
6596.30895,0.55864
6594.38021,0.55912
6592.45146,0.55872
6590.52271,0.55690
6588.59397,0.55474
6586.66522,0.55537
6584.73648,0.55948
6582.80773,0.56355
6580.87899,0.56415
6578.95024,0.56060
6577.02150,0.55632
6575.09275,0.55415
6573.16401,0.55258
6571.23526,0.55195
6569.30652,0.55349
6567.37777,0.55519
6565.44903,0.55647
6563.52028,0.55761
6561.59154,0.55750
6559.66279,0.55598
6557.73404,0.55394
6555.80530,0.55236
6553.87655,0.55129
6551.94781,0.55029
6550.01906,0.55061
6548.09032,0.55208
6546.16157,0.55277
6544.23283,0.55383
6542.30408,0.55526
6540.37534,0.55490
6538.44659,0.55429
6536.51785,0.55443
6534.58910,0.55429
6532.66036,0.55434
6530.73161,0.55367
6528.80287,0.55110
6526.87412,0.54943
6524.94537,0.55049
6523.01663,0.55191
6521.08788,0.55228
6519.15914,0.55189
6517.23039,0.55141
6515.30165,0.55219
6513.37290,0.55363
6511.44416,0.55334
6509.51541,0.55073
6507.58667,0.54947
6505.65792,0.55200
6503.72918,0.55472
6501.80043,0.55540
6499.87169,0.55505
6497.94294,0.55333
6496.01419,0.55141
6494.08545,0.55246
6492.15670,0.55540
6490.22796,0.55552
6488.29921,0.55291
6486.37047,0.55198
6484.44172,0.55335
6482.51298,0.55460
6480.58423,0.55598
6478.65549,0.55803
6476.72674,0.55735
6474.79800,0.55327
6472.86925,0.55183
6470.94051,0.55437
6469.01176,0.55626
6467.08302,0.55693
6465.15427,0.55742
6463.22552,0.55725
6461.29678,0.55694
6459.36803,0.55699
6457.43929,0.55789
6455.51054,0.55989
6453.58180,0.56217
6451.65305,0.56366
6449.72431,0.56361
6447.79556,0.56249
6445.86682,0.56126
6443.93807,0.56050
6442.00933,0.56080
6440.08058,0.56194
6438.15184,0.56298
6436.22309,0.56380
6434.29434,0.56483
6432.36560,0.56507
6430.43685,0.56356
6428.50811,0.56205
6426.57936,0.56238
6424.65062,0.56409
6422.72187,0.56514
6420.79313,0.56438
6418.86438,0.56333
6416.93564,0.56282
6415.00689,0.56138
6413.07815,0.55911
6411.14940,0.55816
6409.22066,0.55945
6407.29191,0.56096
6405.36317,0.56066
6403.43442,0.56050
6401.50567,0.56192
6399.57693,0.56284
6397.64818,0.56190
6395.71944,0.55980
6393.79069,0.55886
6391.86195,0.56044
6389.93320,0.56131
6388.00446,0.55927
6386.07571,0.55773
6384.14697,0.55978
6382.21822,0.56287
6380.28948,0.56308
6378.36073,0.56086
6376.43199,0.55889
6374.50324,0.55878
6372.57450,0.56044
6370.64575,0.56056
6368.71700,0.55736
6366.78826,0.55541
6364.85951,0.55725
6362.93077,0.55897
6361.00202,0.55893
6359.07328,0.55923
6357.14453,0.56017
6355.21579,0.56089
6353.28704,0.56052
6351.35830,0.55857
6349.42955,0.55659
6347.50081,0.55639
6345.57206,0.55768
6343.64332,0.56017
6341.71457,0.56283
6339.78582,0.56197
6337.85708,0.55782
6335.92833,0.55581
6333.99959,0.55755
6332.07084,0.56022
6330.14210,0.56157
6328.21335,0.56168
6326.28461,0.56225
6324.35586,0.56236
6322.42712,0.56018
6320.49837,0.55822
6318.56963,0.55884
6316.64088,0.56000
6314.71214,0.55997
6312.78339,0.56038
6310.85465,0.56217
6308.92590,0.56395
6306.99715,0.56499
6305.06841,0.56472
6303.13966,0.56234
6301.21092,0.55950
6299.28217,0.55893
6297.35343,0.56041
6295.42468,0.56170
6293.49594,0.56179
6291.56719,0.56037
6289.63845,0.55741
6287.70970,0.55494
6285.78096,0.55551
6283.85221,0.55804
6281.92347,0.55928
6279.99472,0.55928
6278.06598,0.56033
6276.13723,0.56236
6274.20848,0.56235
6272.27974,0.55875
6270.35099,0.55469
6268.42225,0.55357
6266.49350,0.55483
6264.56476,0.55600
6262.63601,0.55582
6260.70727,0.55581
6258.77852,0.55733
6256.84978,0.55863
6254.92103,0.55843
6252.99229,0.55786
6251.06354,0.55711
6249.13480,0.55583
6247.20605,0.55492
6245.27730,0.55502
6243.34856,0.55550
6241.41981,0.55588
6239.49107,0.55683
6237.56232,0.55861
6235.63358,0.55995
6233.70483,0.55988
6231.77609,0.55911
6229.84734,0.55876
6227.91860,0.55926
6225.98985,0.55962
6224.06111,0.55795
6222.13236,0.55539
6220.20362,0.55505
6218.27487,0.55625
6216.34613,0.55644
6214.41738,0.55600
6212.48863,0.55582
6210.55989,0.55537
6208.63114,0.55511
6206.70240,0.55552
6204.77365,0.55549
6202.84491,0.55443
6200.91616,0.55329
6198.98742,0.55317
6197.05867,0.55359
6195.12993,0.55336
6193.20118,0.55264
6191.27244,0.55183
6189.34369,0.55074
6187.41495,0.55014
6185.48620,0.55082
6183.55746,0.55170
6181.62871,0.55188
6179.69996,0.55207
6177.77122,0.55253
6175.84247,0.55278
6173.91373,0.55364
6171.98498,0.55541
6170.05624,0.55654
6168.12749,0.55697
6166.19875,0.55735
6164.27000,0.55735
6162.34126,0.55718
6160.41251,0.55679
6158.48377,0.55607
6156.55502,0.55521
6154.62628,0.55390
6152.69753,0.55208
6150.76878,0.55056
6148.84004,0.55030
6146.91129,0.55102
6144.98255,0.55108
6143.05380,0.55003
6141.12506,0.54906
6139.19631,0.54867
6137.26757,0.54882
6135.33882,0.54945
6133.41008,0.54966
6131.48133,0.54976
6129.55259,0.55037
6127.62384,0.55047
6125.69510,0.54998
6123.76635,0.54894
6121.83761,0.54732
6119.90886,0.54708
6117.98011,0.54852
6116.05137,0.54881
6114.12262,0.54718
6112.19388,0.54571
6110.26513,0.54437
6108.33639,0.54162
6106.40764,0.53866
6104.47890,0.53679
6102.55015,0.53469
6100.62141,0.53195
6098.69266,0.53022
6096.76392,0.52896
6094.83517,0.52640
6092.90643,0.52346
6090.97768,0.52137
6089.04893,0.51955
6087.12019,0.51750
6085.19144,0.51548
6083.26270,0.51367
6081.33395,0.51114
6079.40521,0.50840
6077.47646,0.50698
6075.54772,0.50543
6073.61897,0.50289
6071.69023,0.50124
6069.76148,0.50014
6067.83274,0.49709
6065.90399,0.49274
6063.97525,0.48988
6062.04650,0.48821
6060.11776,0.48539
6058.18901,0.48118
6056.26026,0.47738
6054.33152,0.47497
6052.40277,0.47338
6050.47403,0.47236
6048.54528,0.47115
6046.61654,0.46895
6044.68779,0.46691
6042.75905,0.46598
6040.83030,0.46515
6038.90156,0.46361
6036.97281,0.46196
6035.04407,0.46006
6033.11532,0.45678
6031.18658,0.45328
6029.25783,0.45099
6027.32909,0.44897
6025.40034,0.44695
6023.47159,0.44530
6021.54285,0.44359
6019.61410,0.44211
6017.68536,0.44206
6015.75661,0.44383
6013.82787,0.44627
6011.89912,0.44810
6009.97038,0.44945
6008.04163,0.45129
6006.11289,0.45354
6004.18414,0.45557
6002.25540,0.45825
6000.32665,0.46141
5998.39791,0.46382
5996.46916,0.46669
5994.54041,0.47109
5992.61167,0.47568
5990.68292,0.47868
5988.75418,0.47949
5986.82543,0.47936
5984.89669,0.47983
5982.96794,0.48094
5981.03920,0.48224
5979.11045,0.48418
5977.18171,0.48639
5975.25296,0.48712
5973.32422,0.48666
5971.39547,0.48743
5969.46673,0.48962
5967.53798,0.49161
5965.60924,0.49294
5963.68049,0.49347
5961.75174,0.49298
5959.82300,0.49263
5957.89425,0.49300
5955.96551,0.49329
5954.03676,0.49366
5952.10802,0.49451
5950.17927,0.49525
5948.25053,0.49535
5946.32178,0.49539
5944.39304,0.49590
5942.46429,0.49608
5940.53555,0.49591
5938.60680,0.49662
5936.67806,0.49748
5934.74931,0.49710
5932.82057,0.49719
5930.89182,0.49963
5928.96307,0.50212
5927.03433,0.50231
5925.10558,0.50242
5923.17684,0.50459
5921.24809,0.50684
5919.31935,0.50721
5917.39060,0.50667
5915.46186,0.50682
5913.53311,0.50824
5911.60437,0.51041
5909.67562,0.51178
5907.74688,0.51136
5905.81813,0.51027
5903.88939,0.50977
5901.96064,0.50956
5900.03189,0.50898
5898.10315,0.50825
5896.17440,0.50780
5894.24566,0.50680
5892.31691,0.50401
5890.38817,0.50078
5888.45942,0.49906
5886.53068,0.49835
5884.60193,0.49742
5882.67319,0.49614
5880.74444,0.49506
5878.81570,0.49402
5876.88695,0.49279
5874.95821,0.49189
5873.02946,0.49048
5871.10072,0.48845
5869.17197,0.48765
5867.24322,0.48757
5865.31448,0.48638
5863.38573,0.48478
5861.45699,0.48390
5859.52824,0.48367
5857.59950,0.48411
5855.67075,0.48447
5853.74201,0.48379
5851.81326,0.48263
5849.88452,0.48154
5847.95577,0.48031
5846.02703,0.47894
5844.09828,0.47786
5842.16954,0.47746
5840.24079,0.47750
5838.31205,0.47716
5836.38330,0.47648
5834.45455,0.47686
5832.52581,0.47854
5830.59706,0.47991
5828.66832,0.48002
5826.73957,0.47884
5824.81083,0.47696
5822.88208,0.47548
5820.95334,0.47491
5819.02459,0.47498
5817.09585,0.47502
5815.16710,0.47488
5813.23836,0.47534
5811.30961,0.47687
5809.38087,0.47831
5807.45212,0.47800
5805.52337,0.47661
5803.59463,0.47617
5801.66588,0.47656
5799.73714,0.47612
5797.80839,0.47488
5795.87965,0.47425
5793.95090,0.47417
5792.02216,0.47382
5790.09341,0.47412
5788.16467,0.47539
5786.23592,0.47593
5784.30718,0.47558
5782.37843,0.47608
5780.44969,0.47752
5778.52094,0.47823
5776.59220,0.47812
5774.66345,0.47871
5772.73470,0.48025
5770.80596,0.48157
5768.87721,0.48187
5766.94847,0.48147
5765.01972,0.48174
5763.09098,0.48321
5761.16223,0.48493
5759.23349,0.48624
5757.30474,0.48710
5755.37600,0.48783
5753.44725,0.48864
5751.51851,0.48926
5749.58976,0.48940
5747.66102,0.48884
5745.73227,0.48809
5743.80352,0.48861
5741.87478,0.49058
5739.94603,0.49278
5738.01729,0.49407
5736.08854,0.49418
5734.15980,0.49387
5732.23105,0.49327
5730.30231,0.49262
5728.37356,0.49361
5726.44482,0.49583
5724.51607,0.49711
5722.58733,0.49728
5720.65858,0.49701
5718.72984,0.49647
5716.80109,0.49600
5714.87235,0.49548
5712.94360,0.49487
5711.01485,0.49457
5709.08611,0.49461
5707.15736,0.49491
5705.22862,0.49535
5703.29987,0.49588
5701.37113,0.49656
5699.44238,0.49704
5697.51364,0.49776
5695.58489,0.49921
5693.65615,0.50009
5691.72740,0.49968
5689.79866,0.49959
5687.86991,0.50049
5685.94117,0.50122
5684.01242,0.50145
5682.08368,0.50181
5680.15493,0.50264
5678.22618,0.50337
5676.29744,0.50324
5674.36869,0.50292
5672.43995,0.50349
5670.51120,0.50464
5668.58246,0.50563
5666.65371,0.50635
5664.72497,0.50673
5662.79622,0.50698
5660.86748,0.50738
5658.93873,0.50762
5657.00999,0.50787
5655.08124,0.50827
5653.15250,0.50891
5651.22375,0.51016
5649.29500,0.51131
5647.36626,0.51153
5645.43751,0.51186
5643.50877,0.51353
5641.58002,0.51560
5639.65128,0.51678
5637.72253,0.51730
5635.79379,0.51754
5633.86504,0.51792
5631.93630,0.51915
5630.00755,0.52048
5628.07881,0.52055
5626.15006,0.52047
5624.22132,0.52143
5622.29257,0.52221
5620.36383,0.52220
5618.43508,0.52231
5616.50633,0.52294
5614.57759,0.52394
5612.64884,0.52496
5610.72010,0.52494
5608.79135,0.52396
5606.86261,0.52371
5604.93386,0.52393
5603.00512,0.52389
5601.07637,0.52482
5599.14763,0.52637
5597.21888,0.52630
5595.29014,0.52472
5593.36139,0.52418
5591.43265,0.52495
5589.50390,0.52484
5587.57516,0.52374
5585.64641,0.52325
5583.71766,0.52326
5581.78892,0.52286
5579.86017,0.52205
5577.93143,0.52131
5576.00268,0.52140
5574.07394,0.52239
5572.14519,0.52319
5570.21645,0.52328
5568.28770,0.52290
5566.35896,0.52270
5564.43021,0.52263
5562.50147,0.52180
5560.57272,0.52066
5558.64398,0.52062
5556.71523,0.52145
5554.78648,0.52224
5552.85774,0.52284
5550.92899,0.52311
5549.00025,0.52322
5547.07150,0.52304
5545.14276,0.52236
5543.21401,0.52197
5541.28527,0.52243
5539.35652,0.52321
5537.42778,0.52382
5535.49903,0.52442
5533.57029,0.52461
5531.64154,0.52370
5529.71280,0.52243
5527.78405,0.52195
5525.85531,0.52287
5523.92656,0.52468
5521.99781,0.52567
5520.06907,0.52523
5518.14032,0.52422
5516.21158,0.52366
5514.28283,0.52407
5512.35409,0.52484
5510.42534,0.52573
5508.49660,0.52725
5506.56785,0.52838
5504.63911,0.52819
5502.71036,0.52760
5500.78162,0.52713
5498.85287,0.52665
5496.92413,0.52613
5494.99538,0.52565
5493.06664,0.52556
5491.13789,0.52536
5489.20914,0.52410
5487.28040,0.52298
5485.35165,0.52330
5483.42291,0.52374
5481.49416,0.52339
5479.56542,0.52339
5477.63667,0.52407
5475.70793,0.52483
5473.77918,0.52555
5471.85044,0.52656
5469.92169,0.52759
5467.99295,0.52791
5466.06420,0.52746
5464.13546,0.52679
5462.20671,0.52686
5460.27796,0.52790
5458.34922,0.52876
5456.42047,0.52890
5454.49173,0.52908
5452.56298,0.52965
5450.63424,0.52999
5448.70549,0.52967
5446.77675,0.52916
5444.84800,0.52886
5442.91926,0.52895
5440.99051,0.52956
5439.06177,0.53059
5437.13302,0.53189
5435.20428,0.53294
5433.27553,0.53299
5431.34679,0.53254
5429.41804,0.53279
5427.48929,0.53377
5425.56055,0.53475
5423.63180,0.53525
5421.70306,0.53542
5419.77431,0.53582
5417.84557,0.53643
5415.91682,0.53660
5413.98808,0.53597
5412.05933,0.53496
5410.13059,0.53454
5408.20184,0.53521
5406.27310,0.53633
5404.34435,0.53729
5402.41561,0.53792
5400.48686,0.53812
5398.55811,0.53838
5396.62937,0.53871
5394.70062,0.53821
5392.77188,0.53738
5390.84313,0.53725
5388.91439,0.53723
5386.98564,0.53714
5385.05690,0.53786
5383.12815,0.53907
5381.19941,0.53955
5379.27066,0.53904
5377.34192,0.53884
5375.41317,0.53993
5373.48443,0.54059
5371.55568,0.53978
5369.62694,0.53887
5367.69819,0.53868
5365.76944,0.53873
5363.84070,0.53839
5361.91195,0.53808
5359.98321,0.53831
5358.05446,0.53852
5356.12572,0.53840
5354.19697,0.53831
5352.26823,0.53850
5350.33948,0.53855
5348.41074,0.53821
5346.48199,0.53805
5344.55325,0.53832
5342.62450,0.53850
5340.69576,0.53856
5338.76701,0.53883
5336.83827,0.53955
5334.90952,0.54054
5332.98077,0.54095
5331.05203,0.54087
5329.12328,0.54100
5327.19454,0.54091
5325.26579,0.54081
5323.33705,0.54154
5321.40830,0.54242
5319.47956,0.54272
5317.55081,0.54256
5315.62207,0.54207
5313.69332,0.54167
5311.76458,0.54153
5309.83583,0.54133
5307.90709,0.54113
5305.97834,0.54091
5304.04959,0.54021
5302.12085,0.53908
5300.19210,0.53814
5298.26336,0.53757
5296.33461,0.53700
5294.40587,0.53675
5292.47712,0.53711
5290.54838,0.53712
5288.61963,0.53632
5286.69089,0.53572
5284.76214,0.53598
5282.83340,0.53617
5280.90465,0.53520
5278.97591,0.53407
5277.04716,0.53432
5275.11842,0.53468
5273.18967,0.53341
5271.26092,0.53168
5269.33218,0.53097
5267.40343,0.53073
5265.47469,0.53033
5263.54594,0.53012
5261.61720,0.53020
5259.68845,0.52987
5257.75971,0.52877
5255.83096,0.52736
5253.90222,0.52627
5251.97347,0.52589
5250.04473,0.52595
5248.11598,0.52589
5246.18724,0.52588
5244.25849,0.52593
5242.32975,0.52546
5240.40100,0.52474
5238.47225,0.52448
5236.54351,0.52456
5234.61476,0.52463
5232.68602,0.52471
5230.75727,0.52500
5228.82853,0.52514
5226.89978,0.52483
5224.97104,0.52469
5223.04229,0.52488
5221.11355,0.52457
5219.18480,0.52420
5217.25606,0.52490
5215.32731,0.52589
5213.39857,0.52583
5211.46982,0.52518
5209.54107,0.52503
5207.61233,0.52570
5205.68358,0.52675
5203.75484,0.52744
5201.82609,0.52750
5199.89735,0.52707
5197.96860,0.52659
5196.03986,0.52620
5194.11111,0.52545
5192.18237,0.52476
5190.25362,0.52476
5188.32488,0.52481
5186.39613,0.52453
5184.46739,0.52457
5182.53864,0.52484
5180.60990,0.52435
5178.68115,0.52301
5176.75240,0.52156
5174.82366,0.52058
5172.89491,0.52047
5170.96617,0.52124
5169.03742,0.52230
5167.10868,0.52270
5165.17993,0.52197
5163.25119,0.52087
5161.32244,0.52028
5159.39370,0.51965
5157.46495,0.51836
5155.53621,0.51697
5153.60746,0.51623
5151.67872,0.51657
5149.74997,0.51763
5147.82123,0.51817
5145.89248,0.51777
5143.96373,0.51704
5142.03499,0.51636
5140.10624,0.51568
5138.17750,0.51517
5136.24875,0.51515
5134.32001,0.51524
5132.39126,0.51473
5130.46252,0.51391
5128.53377,0.51345
5126.60503,0.51333
5124.67628,0.51306
5122.74754,0.51227
5120.81879,0.51129
5118.89005,0.51075
5116.96130,0.51095
5115.03255,0.51172
5113.10381,0.51265
5111.17506,0.51341
5109.24632,0.51395
5107.31757,0.51485
5105.38883,0.51617
5103.46008,0.51725
5101.53134,0.51829
5099.60259,0.51953
5097.67385,0.52059
5095.74510,0.52132
5093.81636,0.52180
5091.88761,0.52227
5089.95887,0.52288
5088.03012,0.52352
5086.10138,0.52418
5084.17263,0.52464
5082.24388,0.52461
5080.31514,0.52455
5078.38639,0.52529
5076.45765,0.52642
5074.52890,0.52687
5072.60016,0.52684
5070.67141,0.52738
5068.74267,0.52825
5066.81392,0.52842
5064.88518,0.52807
5062.95643,0.52809
5061.02769,0.52868
5059.09894,0.52936
5057.17020,0.52941
5055.24145,0.52890
5053.31270,0.52879
5051.38396,0.52932
5049.45521,0.52951
5047.52647,0.52908
5045.59772,0.52845
5043.66898,0.52786
5041.74023,0.52762
5039.81149,0.52789
5037.88274,0.52845
5035.95400,0.52892
5034.02525,0.52905
5032.09651,0.52901
5030.16776,0.52893
5028.23902,0.52849
5026.31027,0.52771
5024.38153,0.52716
5022.45278,0.52720
5020.52403,0.52747
5018.59529,0.52727
5016.66654,0.52658
5014.73780,0.52602
5012.80905,0.52584
5010.88031,0.52570
5008.95156,0.52553
5007.02282,0.52542
5005.09407,0.52493
5003.16533,0.52409
5001.23658,0.52355
4999.30784,0.52317
4997.37909,0.52233
4995.45035,0.52122
4993.52160,0.52047
4991.59286,0.52016
4989.66411,0.51994
4987.73536,0.51970
4985.80662,0.51932
4983.87787,0.51868
4981.94913,0.51790
4980.02038,0.51684
4978.09164,0.51522
4976.16289,0.51358
4974.23415,0.51298
4972.30540,0.51325
4970.37666,0.51322
4968.44791,0.51259
4966.51917,0.51180
4964.59042,0.51114
4962.66168,0.51074
4960.73293,0.51045
4958.80418,0.50991
4956.87544,0.50930
4954.94669,0.50906
4953.01795,0.50906
4951.08920,0.50923
4949.16046,0.50966
4947.23171,0.50960
4945.30297,0.50855
4943.37422,0.50741
4941.44548,0.50675
4939.51673,0.50645
4937.58799,0.50647
4935.65924,0.50629
4933.73050,0.50553
4931.80175,0.50454
4929.87301,0.50377
4927.94426,0.50337
4926.01551,0.50299
4924.08677,0.50226
4922.15802,0.50116
4920.22928,0.49985
4918.30053,0.49854
4916.37179,0.49761
4914.44304,0.49716
4912.51430,0.49654
4910.58555,0.49535
4908.65681,0.49359
4906.72806,0.49105
4904.79932,0.48819
4902.87057,0.48590
4900.94183,0.48421
4899.01308,0.48257
4897.08434,0.48063
4895.15559,0.47831
4893.22684,0.47582
4891.29810,0.47370
4889.36935,0.47240
4887.44061,0.47141
4885.51186,0.46971
4883.58312,0.46751
4881.65437,0.46601
4879.72563,0.46526
4877.79688,0.46451
4875.86814,0.46374
4873.93939,0.46287
4872.01065,0.46175
4870.08190,0.46147
4868.15316,0.46270
4866.22441,0.46441
4864.29566,0.46574
4862.36692,0.46687
4860.43817,0.46817
4858.50943,0.46994
4856.58068,0.47236
4854.65194,0.47510
4852.72319,0.47762
4850.79445,0.47978
4848.86570,0.48171
4846.93696,0.48327
4845.00821,0.48419
4843.07947,0.48497
4841.15072,0.48631
4839.22198,0.48779
4837.29323,0.48883
4835.36449,0.48967
4833.43574,0.49044
4831.50699,0.49058
4829.57825,0.49013
4827.64950,0.48964
4825.72076,0.48900
4823.79201,0.48834
4821.86327,0.48811
4819.93452,0.48792
4818.00578,0.48726
4816.07703,0.48645
4814.14829,0.48592
4812.21954,0.48578
4810.29080,0.48555
4808.36205,0.48464
4806.43331,0.48335
4804.50456,0.48250
4802.57582,0.48259
4800.64707,0.48310
4798.71832,0.48331
4796.78958,0.48315
4794.86083,0.48268
4792.93209,0.48231
4791.00334,0.48257
4789.07460,0.48316
4787.14585,0.48357
4785.21711,0.48381
4783.28836,0.48400
4781.35962,0.48412
4779.43087,0.48400
4777.50213,0.48380
4775.57338,0.48430
4773.64464,0.48544
4771.71589,0.48609
4769.78714,0.48611
4767.85840,0.48611
4765.92965,0.48613
4764.00091,0.48587
4762.07216,0.48504
4760.14342,0.48339
4758.21467,0.48116
4756.28593,0.47908
4754.35718,0.47737
4752.42844,0.47580
4750.49969,0.47430
4748.57095,0.47268
4746.64220,0.47075
4744.71346,0.46870
4742.78471,0.46669
4740.85597,0.46465
4738.92722,0.46235
4736.99847,0.45999
4735.06973,0.45782
4733.14098,0.45528
4731.21224,0.45201
4729.28349,0.44853
4727.35475,0.44493
4725.42600,0.44093
4723.49726,0.43681
4721.56851,0.43336
4719.63977,0.43096
4717.71102,0.42930
4715.78228,0.42802
4713.85353,0.42741
4711.92479,0.42716
4709.99604,0.42613
4708.06729,0.42407
4706.13855,0.42135
4704.20980,0.41805
4702.28106,0.41418
4700.35231,0.40956
4698.42357,0.40437
4696.49482,0.39984
4694.56608,0.39669
4692.63733,0.39437
4690.70859,0.39281
4688.77984,0.39263
4686.85110,0.39352
4684.92235,0.39486
4682.99361,0.39699
4681.06486,0.40053
4679.13612,0.40545
4677.20737,0.41116
4675.27862,0.41667
4673.34988,0.42107
4671.42113,0.42457
4669.49239,0.42776
4667.56364,0.43047
4665.63490,0.43243
4663.70615,0.43358
4661.77741,0.43420
4659.84866,0.43460
4657.91992,0.43464
4655.99117,0.43422
4654.06243,0.43347
4652.13368,0.43251
4650.20494,0.43110
4648.27619,0.42865
4646.34745,0.42497
4644.41870,0.42066
4642.48995,0.41639
4640.56121,0.41257
4638.63246,0.40921
4636.70372,0.40631
4634.77497,0.40404
4632.84623,0.40303
4630.91748,0.40415
4628.98874,0.40739
4627.05999,0.41199
4625.13125,0.41724
4623.20250,0.42237
4621.27376,0.42701
4619.34501,0.43102
4617.41627,0.43412
4615.48752,0.43647
4613.55877,0.43820
4611.63003,0.43903
4609.70128,0.43921
4607.77254,0.43937
4605.84379,0.43921
4603.91505,0.43827
4601.98630,0.43683
4600.05756,0.43489
4598.12881,0.43222
4596.20007,0.42939
4594.27132,0.42703
4592.34258,0.42510
4590.41383,0.42351
4588.48509,0.42233
4586.55634,0.42105
4584.62760,0.41937
4582.69885,0.41783
4580.77010,0.41674
4578.84136,0.41610
4576.91261,0.41634
4574.98387,0.41799
4573.05512,0.42111
4571.12638,0.42515
4569.19763,0.42903
4567.26889,0.43219
4565.34014,0.43524
4563.41140,0.43820
4561.48265,0.44035
4559.55391,0.44177
4557.62516,0.44285
4555.69642,0.44367
4553.76767,0.44444
4551.83893,0.44520
4549.91018,0.44562
4547.98143,0.44566
4546.05269,0.44551
4544.12394,0.44541
4542.19520,0.44559
4540.26645,0.44571
4538.33771,0.44534
4536.40896,0.44479
4534.48022,0.44463
4532.55147,0.44473
4530.62273,0.44460
4528.69398,0.44423
4526.76524,0.44388
4524.83649,0.44358
4522.90775,0.44331
4520.97900,0.44301
4519.05025,0.44273
4517.12151,0.44246
4515.19276,0.44165
4513.26402,0.44010
4511.33527,0.43842
4509.40653,0.43711
4507.47778,0.43583
4505.54904,0.43366
4503.62029,0.43033
4501.69155,0.42670
4499.76280,0.42327
4497.83406,0.41982
4495.90531,0.41630
4493.97657,0.41259
4492.04782,0.40858
4490.11908,0.40490
4488.19033,0.40209
4486.26158,0.40016
4484.33284,0.39873
4482.40409,0.39714
4480.47535,0.39514
4478.54660,0.39292
4476.61786,0.39046
4474.68911,0.38789
4472.76037,0.38522
4470.83162,0.38167
4468.90288,0.37674
4466.97413,0.37082
4465.04539,0.36470
4463.11664,0.35892
4461.18790,0.35337
4459.25915,0.34839
4457.33041,0.34477
4455.40166,0.34213
4453.47291,0.33981
4451.54417,0.33793
4449.61542,0.33624
4447.68668,0.33425
4445.75793,0.33184
4443.82919,0.32900
4441.90044,0.32589
4439.97170,0.32256
4438.04295,0.31905
4436.11421,0.31612
4434.18546,0.31416
4432.25672,0.31284
4430.32797,0.31198
4428.39923,0.31163
4426.47048,0.31176
4424.54173,0.31231
4422.61299,0.31319
4420.68424,0.31435
4418.75550,0.31539
4416.82675,0.31571
4414.89801,0.31528
4412.96926,0.31450
4411.04052,0.31381
4409.11177,0.31330
4407.18303,0.31270
4405.25428,0.31196
4403.32554,0.31157
4401.39679,0.31189
4399.46805,0.31248
4397.53930,0.31288
4395.61056,0.31349
4393.68181,0.31465
4391.75306,0.31589
4389.82432,0.31676
4387.89557,0.31744
4385.96683,0.31782
4384.03808,0.31754
4382.10934,0.31674
4380.18059,0.31573
4378.25185,0.31444
4376.32310,0.31273
4374.39436,0.31090
4372.46561,0.30908
4370.53687,0.30732
4368.60812,0.30568
4366.67938,0.30402
4364.75063,0.30249
4362.82189,0.30130
4360.89314,0.30038
4358.96439,0.29962
4357.03565,0.29916
4355.10690,0.29925
4353.17816,0.29970
4351.24941,0.30004
4349.32067,0.30019
4347.39192,0.30034
4345.46318,0.30036
4343.53443,0.30016
4341.60569,0.30012
4339.67694,0.30048
4337.74820,0.30118
4335.81945,0.30194
4333.89071,0.30260
4331.96196,0.30324
4330.03321,0.30358
4328.10447,0.30326
4326.17572,0.30236
4324.24698,0.30126
4322.31823,0.30070
4320.38949,0.30145
4318.46074,0.30325
4316.53200,0.30508
4314.60325,0.30646
4312.67451,0.30743
4310.74576,0.30767
4308.81702,0.30684
4306.88827,0.30559
4304.95953,0.30460
4303.03078,0.30386
4301.10204,0.30306
4299.17329,0.30174
4297.24454,0.29995
4295.31580,0.29836
4293.38705,0.29723
4291.45831,0.29646
4289.52956,0.29605
4287.60082,0.29580
4285.67207,0.29540
4283.74333,0.29492
4281.81458,0.29440
4279.88584,0.29368
4277.95709,0.29281
4276.02835,0.29201
4274.09960,0.29118
4272.17086,0.29042
4270.24211,0.29016
4268.31336,0.29016
4266.38462,0.29015
4264.45587,0.29047
4262.52713,0.29102
4260.59838,0.29122
4258.66964,0.29095
4256.74089,0.29044
4254.81215,0.28983
4252.88340,0.28938
4250.95466,0.28954
4249.02591,0.29041
4247.09717,0.29140
4245.16842,0.29205
4243.23968,0.29261
4241.31093,0.29332
4239.38219,0.29416
4237.45344,0.29510
4235.52469,0.29603
4233.59595,0.29674
4231.66720,0.29703
4229.73846,0.29694
4227.80971,0.29690
4225.88097,0.29714
4223.95222,0.29750
4222.02348,0.29807
4220.09473,0.29894
4218.16599,0.29987
4216.23724,0.30093
4214.30850,0.30239
4212.37975,0.30394
4210.45101,0.30502
4208.52226,0.30563
4206.59352,0.30609
4204.66477,0.30649
4202.73602,0.30683
4200.80728,0.30727
4198.87853,0.30789
4196.94979,0.30847
4195.02104,0.30858
4193.09230,0.30846
4191.16355,0.30867
4189.23481,0.30863
4187.30606,0.30751
4185.37732,0.30577
4183.44857,0.30425
4181.51983,0.30295
4179.59108,0.30165
4177.66234,0.30090
4175.73359,0.30109
4173.80484,0.30196
4171.87610,0.30359
4169.94735,0.30597
4168.01861,0.30853
4166.08986,0.31107
4164.16112,0.31371
4162.23237,0.31628
4160.30363,0.31866
4158.37488,0.32073
4156.44614,0.32222
4154.51739,0.32316
4152.58865,0.32383
4150.65990,0.32452
4148.73116,0.32528
4146.80241,0.32579
4144.87367,0.32592
4142.94492,0.32583
4141.01617,0.32536
4139.08743,0.32428
4137.15868,0.32301
4135.22994,0.32193
4133.30119,0.32094
4131.37245,0.32001
4129.44370,0.31913
4127.51496,0.31821
4125.58621,0.31734
4123.65747,0.31635
4121.72872,0.31506
4119.79998,0.31353
4117.87123,0.31202
4115.94249,0.31084
4114.01374,0.30963
4112.08500,0.30759
4110.15625,0.30478
4108.22750,0.30180
4106.29876,0.29867
4104.37001,0.29510
4102.44127,0.29086
4100.51252,0.28575
4098.58378,0.27970
4096.65503,0.27309
4094.72629,0.26680
4092.79754,0.26168
4090.86880,0.25835
4088.94005,0.25702
4087.01131,0.25742
4085.08256,0.25919
4083.15382,0.26262
4081.22507,0.26780
4079.29632,0.27379
4077.36758,0.27992
4075.43883,0.28621
4073.51009,0.29226
4071.58134,0.29726
4069.65260,0.30099
4067.72385,0.30400
4065.79511,0.30685
4063.86636,0.30945
4061.93762,0.31143
4060.00887,0.31295
4058.08013,0.31433
4056.15138,0.31559
4054.22264,0.31666
4052.29389,0.31760
4050.36515,0.31840
4048.43640,0.31917
4046.50765,0.32018
4044.57891,0.32143
4042.65016,0.32273
4040.72142,0.32399
4038.79267,0.32507
4036.86393,0.32577
4034.93518,0.32625
4033.00644,0.32671
4031.07769,0.32696
4029.14895,0.32687
4027.22020,0.32693
4025.29146,0.32744
4023.36271,0.32803
4021.43397,0.32842
4019.50522,0.32850
4017.57648,0.32831
4015.64773,0.32810
4013.71898,0.32805
4011.79024,0.32815
4009.86149,0.32833
4007.93275,0.32843
4006.00400,0.32847
4004.07526,0.32864
4002.14651,0.32895
4000.21777,0.32956
3998.28902,0.33051
3996.36028,0.33132
3994.43153,0.33179
3992.50279,0.33247
3990.57404,0.33377
3988.64530,0.33538
3986.71655,0.33673
3984.78780,0.33769
3982.85906,0.33872
3980.93031,0.34000
3979.00157,0.34136
3977.07282,0.34269
3975.14408,0.34416
3973.21533,0.34589
3971.28659,0.34767
3969.35784,0.34928
3967.42910,0.35081
3965.50035,0.35239
3963.57161,0.35411
3961.64286,0.35582
3959.71412,0.35730
3957.78537,0.35864
3955.85663,0.36008
3953.92788,0.36169
3951.99913,0.36313
3950.07039,0.36430
3948.14164,0.36556
3946.21290,0.36679
3944.28415,0.36757
3942.35541,0.36823
3940.42666,0.36910
3938.49792,0.36985
3936.56917,0.37023
3934.64043,0.37058
3932.71168,0.37111
3930.78294,0.37158
3928.85419,0.37186
3926.92545,0.37201
3924.99670,0.37210
3923.06795,0.37220
3921.13921,0.37240
3919.21046,0.37292
3917.28172,0.37397
3915.35297,0.37527
3913.42423,0.37649
3911.49548,0.37788
3909.56674,0.37955
3907.63799,0.38121
3905.70925,0.38267
3903.78050,0.38397
3901.85176,0.38526
3899.92301,0.38669
3897.99427,0.38820
3896.06552,0.38958
3894.13678,0.39063
3892.20803,0.39137
3890.27928,0.39191
3888.35054,0.39245
3886.42179,0.39333
3884.49305,0.39439
3882.56430,0.39506
3880.63556,0.39546
3878.70681,0.39600
3876.77807,0.39683
3874.84932,0.39788
3872.92058,0.39886
3870.99183,0.39967
3869.06309,0.40032
3867.13434,0.40054
3865.20560,0.40058
3863.27685,0.40093
3861.34811,0.40134
3859.41936,0.40149
3857.49061,0.40166
3855.56187,0.40213
3853.63312,0.40259
3851.70438,0.40264
3849.77563,0.40246
3847.84689,0.40225
3845.91814,0.40203
3843.98940,0.40188
3842.06065,0.40181
3840.13191,0.40185
3838.20316,0.40225
3836.27442,0.40290
3834.34567,0.40321
3832.41693,0.40323
3830.48818,0.40343
3828.55943,0.40381
3826.63069,0.40406
3824.70194,0.40414
3822.77320,0.40398
3820.84445,0.40324
3818.91571,0.40226
3816.98696,0.40131
3815.05822,0.40014
3813.12947,0.39883
3811.20073,0.39763
3809.27198,0.39702
3807.34324,0.39736
3805.41449,0.39804
3803.48575,0.39844
3801.55700,0.39897
3799.62826,0.40017
3797.69951,0.40174
3795.77076,0.40343
3793.84202,0.40512
3791.91327,0.40646
3789.98453,0.40732
3788.05578,0.40784
3786.12704,0.40832
3784.19829,0.40875
3782.26955,0.40894
3780.34080,0.40904
3778.41206,0.40901
3776.48331,0.40846
3774.55457,0.40732
3772.62582,0.40589
3770.69708,0.40443
3768.76833,0.40295
3766.83959,0.40145
3764.91084,0.39997
3762.98209,0.39850
3761.05335,0.39707
3759.12460,0.39614
3757.19586,0.39643
3755.26711,0.39779
3753.33837,0.40007
3751.40962,0.40364
3749.48088,0.40772
3747.55213,0.41057
3745.62339,0.41224
3743.69464,0.41323
3741.76590,0.41339
3739.83715,0.41294
3737.90841,0.41205
3735.97966,0.41070
3734.05091,0.40907
3732.12217,0.40779
3730.19342,0.40772
3728.26468,0.40892
3726.33593,0.41087
3724.40719,0.41303
3722.47844,0.41509
3720.54970,0.41668
3718.62095,0.41741
3716.69221,0.41734
3714.76346,0.41655
3712.83472,0.41508
3710.90597,0.41330
3708.97723,0.41130
3707.04848,0.40877
3705.11974,0.40570
3703.19099,0.40211
3701.26224,0.39776
3699.33350,0.39295
3697.40475,0.38808
3695.47601,0.38295
3693.54726,0.37703
3691.61852,0.36992
3689.68977,0.36181
3687.76103,0.35440
3685.83228,0.34980
3683.90354,0.34832
3681.97479,0.34932
3680.04605,0.35194
3678.11730,0.35516
3676.18856,0.35820
3674.25981,0.36009
3672.33107,0.36036
3670.40232,0.35955
3668.47357,0.35785
3666.54483,0.35541
3664.61608,0.35272
3662.68734,0.34993
3660.75859,0.34681
3658.82985,0.34328
3656.90110,0.33946
3654.97236,0.33570
3653.04361,0.33245
3651.11487,0.32930
3649.18612,0.32545
3647.25738,0.32115
3645.32863,0.31745
3643.39989,0.31447
3641.47114,0.31157
3639.54239,0.30857
3637.61365,0.30572
3635.68490,0.30313
3633.75616,0.30076
3631.82741,0.29857
3629.89867,0.29619
3627.96992,0.29383
3626.04118,0.29209
3624.11243,0.29044
3622.18369,0.28836
3620.25494,0.28596
3618.32620,0.28347
3616.39745,0.28111
3614.46871,0.27887
3612.53996,0.27660
3610.61122,0.27428
3608.68247,0.27205
3606.75372,0.26987
3604.82498,0.26757
3602.89623,0.26531
3600.96749,0.26308
3599.03874,0.26062
3597.11000,0.25798
3595.18125,0.25524
3593.25251,0.25237
3591.32376,0.24939
3589.39502,0.24610
3587.46627,0.24252
3585.53753,0.23915
3583.60878,0.23602
3581.68004,0.23286
3579.75129,0.22939
3577.82254,0.22557
3575.89380,0.22189
3573.96505,0.21871
3572.03631,0.21567
3570.10756,0.21249
3568.17882,0.20921
3566.25007,0.20590
3564.32133,0.20303
3562.39258,0.20103
3560.46384,0.19944
3558.53509,0.19760
3556.60635,0.19555
3554.67760,0.19375
3552.74886,0.19222
3550.82011,0.19075
3548.89137,0.18950
3546.96262,0.18859
3545.03387,0.18782
3543.10513,0.18695
3541.17638,0.18604
3539.24764,0.18537
3537.31889,0.18502
3535.39015,0.18471
3533.46140,0.18444
3531.53266,0.18433
3529.60391,0.18419
3527.67517,0.18399
3525.74642,0.18390
3523.81768,0.18395
3521.88893,0.18418
3519.96019,0.18447
3518.03144,0.18443
3516.10270,0.18435
3514.17395,0.18464
3512.24520,0.18483
3510.31646,0.18451
3508.38771,0.18423
3506.45897,0.18454
3504.53022,0.18498
3502.60148,0.18493
3500.67273,0.18462
3498.74399,0.18436
3496.81524,0.18417
3494.88650,0.18405
3492.95775,0.18387
3491.02901,0.18362
3489.10026,0.18345
3487.17152,0.18327
3485.24277,0.18284
3483.31402,0.18215
3481.38528,0.18130
3479.45653,0.18027
3477.52779,0.17889
3475.59904,0.17729
3473.67030,0.17587
3471.74155,0.17469
3469.81281,0.17331
3467.88406,0.17134
3465.95532,0.16890
3464.02657,0.16599
3462.09783,0.16266
3460.16908,0.15946
3458.24034,0.15648
3456.31159,0.15329
3454.38285,0.14990
3452.45410,0.14632
3450.52535,0.14246
3448.59661,0.13870
3446.66786,0.13518
3444.73912,0.13177
3442.81037,0.12875
3440.88163,0.12602
3438.95288,0.12309
3437.02414,0.11993
3435.09539,0.11702
3433.16665,0.11512
3431.23790,0.11457
3429.30916,0.11514
3427.38041,0.11692
3425.45167,0.11992
3423.52292,0.12341
3421.59418,0.12697
3419.66543,0.13076
3417.73668,0.13453
3415.80794,0.13793
3413.87919,0.14115
3411.95045,0.14430
3410.02170,0.14701
3408.09296,0.14917
3406.16421,0.15107
3404.23547,0.15283
3402.30672,0.15404
3400.37798,0.15454
3398.44923,0.15463
3396.52049,0.15451
3394.59174,0.15419
3392.66300,0.15370
3390.73425,0.15313
3388.80550,0.15261
3386.87676,0.15192
3384.94801,0.15073
3383.01927,0.14933
3381.09052,0.14819
3379.16178,0.14735
3377.23303,0.14644
3375.30429,0.14503
3373.37554,0.14324
3371.44680,0.14155
3369.51805,0.13999
3367.58931,0.13828
3365.66056,0.13666
3363.73182,0.13555
3361.80307,0.13457
3359.87433,0.13322
3357.94558,0.13162
3356.01683,0.13008
3354.08809,0.12859
3352.15934,0.12707
3350.23060,0.12565
3348.30185,0.12443
3346.37311,0.12333
3344.44436,0.12227
3342.51562,0.12119
3340.58687,0.12004
3338.65813,0.11905
3336.72938,0.11854
3334.80064,0.11838
3332.87189,0.11828
3330.94315,0.11842
3329.01440,0.11913
3327.08566,0.11999
3325.15691,0.12043
3323.22816,0.12055
3321.29942,0.12081
3319.37067,0.12115
3317.44193,0.12114
3315.51318,0.12103
3313.58444,0.12131
3311.65569,0.12181
3309.72695,0.12193
3307.79820,0.12146
3305.86946,0.12092
3303.94071,0.12070
3302.01197,0.12060
3300.08322,0.12073
3298.15448,0.12115
3296.22573,0.12151
3294.29698,0.12176
3292.36824,0.12211
3290.43949,0.12248
3288.51075,0.12287
3286.58200,0.12328
3284.65326,0.12361
3282.72451,0.12408
3280.79577,0.12482
3278.86702,0.12526
3276.93828,0.12508
3275.00953,0.12488
3273.08079,0.12537
3271.15204,0.12617
3269.22330,0.12659
3267.29455,0.12669
3265.36581,0.12681
3263.43706,0.12714
3261.50831,0.12748
3259.57957,0.12761
3257.65082,0.12783
3255.72208,0.12839
3253.79333,0.12922
3251.86459,0.13014
3249.93584,0.13086
3248.00710,0.13117
3246.07835,0.13121
3244.14961,0.13132
3242.22086,0.13161
3240.29212,0.13188
3238.36337,0.13217
3236.43463,0.13275
3234.50588,0.13357
3232.57713,0.13437
3230.64839,0.13504
3228.71964,0.13548
3226.79090,0.13562
3224.86215,0.13606
3222.93341,0.13706
3221.00466,0.13797
3219.07592,0.13859
3217.14717,0.13927
3215.21843,0.14012
3213.28968,0.14079
3211.36094,0.14093
3209.43219,0.14066
3207.50345,0.14045
3205.57470,0.14048
3203.64596,0.14062
3201.71721,0.14095
3199.78846,0.14146
3197.85972,0.14204
3195.93097,0.14257
3194.00223,0.14277
3192.07348,0.14270
3190.14474,0.14292
3188.21599,0.14348
3186.28725,0.14396
3184.35850,0.14449
3182.42976,0.14529
3180.50101,0.14609
3178.57227,0.14679
3176.64352,0.14763
3174.71478,0.14853
3172.78603,0.14934
3170.85729,0.15012
3168.92854,0.15092
3166.99979,0.15159
3165.07105,0.15208
3163.14230,0.15263
3161.21356,0.15333
3159.28481,0.15376
3157.35607,0.15353
3155.42732,0.15298
3153.49858,0.15280
3151.56983,0.15294
3149.64109,0.15282
3147.71234,0.15230
3145.78360,0.15165
3143.85485,0.15084
3141.92611,0.14985
3139.99736,0.14863
3138.06861,0.14702
3136.13987,0.14503
3134.21112,0.14298
3132.28238,0.14116
3130.35363,0.13952
3128.42489,0.13806
3126.49614,0.13703
3124.56740,0.13657
3122.63865,0.13640
3120.70991,0.13601
3118.78116,0.13493
3116.85242,0.13295
3114.92367,0.13020
3112.99493,0.12699
3111.06618,0.12357
3109.13744,0.12017
3107.20869,0.11706
3105.27994,0.11446
3103.35120,0.11268
3101.42245,0.11190
3099.49371,0.11209
3097.56496,0.11299
3095.63622,0.11394
3093.70747,0.11404
3091.77873,0.11294
3089.84998,0.11087
3087.92124,0.10827
3085.99249,0.10560
3084.06375,0.10347
3082.13500,0.10221
3080.20626,0.10151
3078.27751,0.10113
3076.34877,0.10107
3074.42002,0.10102
3072.49127,0.10076
3070.56253,0.10046
3068.63378,0.10038
3066.70504,0.10062
3064.77629,0.10105
3062.84755,0.10134
3060.91880,0.10104
3058.99006,0.10009
3057.06131,0.09890
3055.13257,0.09836
3053.20382,0.09967
3051.27508,0.10340
3049.34633,0.10890
3047.41759,0.11506
3045.48884,0.12102
3043.56009,0.12620
3041.63135,0.13028
3039.70260,0.13290
3037.77386,0.13405
3035.84511,0.13445
3033.91637,0.13439
3031.98762,0.13344
3030.05888,0.13173
3028.13013,0.12970
3026.20139,0.12716
3024.27264,0.12391
3022.34390,0.12009
3020.41515,0.11570
3018.48641,0.11099
3016.55766,0.10664
3014.62892,0.10310
3012.70017,0.10031
3010.77142,0.09788
3008.84268,0.09569
3006.91393,0.09391
3004.98519,0.09230
3003.05644,0.09047
3001.12770,0.08854
2999.19895,0.08665
2997.27021,0.08449
2995.34146,0.08200
2993.41272,0.07949
2991.48397,0.07698
2989.55523,0.07413
2987.62648,0.07084
2985.69774,0.06748
2983.76899,0.06419
2981.84025,0.06071
2979.91150,0.05713
2977.98275,0.05387
2976.05401,0.05104
2974.12526,0.04855
2972.19652,0.04641
2970.26777,0.04477
2968.33903,0.04388
2966.41028,0.04371
2964.48154,0.04379
2962.55279,0.04389
2960.62405,0.04409
2958.69530,0.04450
2956.76656,0.04522
2954.83781,0.04630
2952.90907,0.04771
2950.98032,0.04944
2949.05157,0.05141
2947.12283,0.05356
2945.19408,0.05589
2943.26534,0.05823
2941.33659,0.06057
2939.40785,0.06306
2937.47910,0.06550
2935.55036,0.06749
2933.62161,0.06876
2931.69287,0.06947
2929.76412,0.06987
2927.83538,0.06986
2925.90663,0.06936
2923.97789,0.06853
2922.04914,0.06750
2920.12040,0.06643
2918.19165,0.06534
2916.26290,0.06411
2914.33416,0.06280
2912.40541,0.06130
2910.47667,0.05956
2908.54792,0.05856
2906.61918,0.05919
2904.69043,0.06107
2902.76169,0.06347
2900.83294,0.06594
2898.90420,0.06792
2896.97545,0.06899
2895.04671,0.06952
2893.11796,0.07013
2891.18922,0.07082
2889.26047,0.07142
2887.33172,0.07213
2885.40298,0.07311
2883.47423,0.07409
2881.54549,0.07486
2879.61674,0.07540
2877.68800,0.07597
2875.75925,0.07679
2873.83051,0.07752
2871.90176,0.07795
2869.97302,0.07840
2868.04427,0.07907
2866.11553,0.07980
2864.18678,0.08052
2862.25804,0.08125
2860.32929,0.08194
2858.40055,0.08271
2856.47180,0.08368
2854.54305,0.08496
2852.61431,0.08679
2850.68556,0.08939
2848.75682,0.09309
2846.82807,0.09799
2844.89933,0.10349
2842.97058,0.10900
2841.04184,0.11432
2839.11309,0.11927
2837.18435,0.12372
2835.25560,0.12774
2833.32686,0.13140
2831.39811,0.13453
2829.46937,0.13704
2827.54062,0.13930
2825.61188,0.14173
2823.68313,0.14437
2821.75438,0.14693
2819.82564,0.14907
2817.89689,0.15074
2815.96815,0.15211
2814.03940,0.15326
2812.11066,0.15422
2810.18191,0.15518
2808.25317,0.15628
2806.32442,0.15745
2804.39568,0.15875
2802.46693,0.16057
2800.53819,0.16306
2798.60944,0.16575
2796.68070,0.16824
2794.75195,0.17063
2792.82320,0.17317
2790.89446,0.17595
2788.96571,0.17868
2787.03697,0.18110
2785.10822,0.18334
2783.17948,0.18554
2781.25073,0.18759
2779.32199,0.18939
2777.39324,0.19088
2775.46450,0.19219
2773.53575,0.19346
2771.60701,0.19461
2769.67826,0.19558
2767.74952,0.19641
2765.82077,0.19719
2763.89203,0.19801
2761.96328,0.19880
2760.03453,0.19939
2758.10579,0.19989
2756.17704,0.20051
2754.24830,0.20117
2752.31955,0.20175
2750.39081,0.20229
2748.46206,0.20280
2746.53332,0.20331
2744.60457,0.20397
2742.67583,0.20492
2740.74708,0.20625
2738.81834,0.20784
2736.88959,0.20947
2734.96085,0.21120
2733.03210,0.21327
2731.10336,0.21565
2729.17461,0.21807
2727.24586,0.22038
2725.31712,0.22262
2723.38837,0.22485
2721.45963,0.22699
2719.53088,0.22891
2717.60214,0.23069
2715.67339,0.23247
2713.74465,0.23422
2711.81590,0.23586
2709.88716,0.23730
2707.95841,0.23859
2706.02967,0.23987
2704.10092,0.24120
2702.17218,0.24258
2700.24343,0.24390
2698.31468,0.24490
2696.38594,0.24558
2694.45719,0.24620
2692.52845,0.24686
2690.59970,0.24752
2688.67096,0.24815
2686.74221,0.24871
2684.81347,0.24923
2682.88472,0.24981
2680.95598,0.25044
2679.02723,0.25125
2677.09849,0.25235
2675.16974,0.25342
2673.24100,0.25425
2671.31225,0.25492
2669.38351,0.25551
2667.45476,0.25609
2665.52601,0.25675
2663.59727,0.25739
2661.66852,0.25764
2659.73978,0.25747
2657.81103,0.25726
2655.88229,0.25714
2653.95354,0.25718
2652.02480,0.25737
2650.09605,0.25749
2648.16731,0.25745
2646.23856,0.25712
2644.30982,0.25634
2642.38107,0.25520
2640.45233,0.25359
2638.52358,0.25143
2636.59484,0.24906
2634.66609,0.24691
2632.73734,0.24518
2630.80860,0.24398
2628.87985,0.24348
2626.95111,0.24373
2625.02236,0.24456
2623.09362,0.24563
2621.16487,0.24671
2619.23613,0.24766
2617.30738,0.24824
2615.37864,0.24828
2613.44989,0.24810
2611.52115,0.24808
2609.59240,0.24812
2607.66366,0.24793
2605.73491,0.24760
2603.80616,0.24722
2601.87742,0.24667
2599.94867,0.24592
2598.01993,0.24497
2596.09118,0.24369
2594.16244,0.24210
2592.23369,0.24052
2590.30495,0.23908
2588.37620,0.23771
2586.44746,0.23651
2584.51871,0.23568
2582.58997,0.23528
2580.66122,0.23539
2578.73248,0.23600
2576.80373,0.23684
2574.87499,0.23776
2572.94624,0.23873
2571.01749,0.23958
2569.08875,0.24011
2567.16000,0.24024
2565.23126,0.24007
2563.30251,0.23985
2561.37377,0.23990
2559.44502,0.24027
2557.51628,0.24061
2555.58753,0.24055
2553.65879,0.24026
2551.73004,0.24014
2549.80130,0.24025
2547.87255,0.24042
2545.94381,0.24066
2544.01506,0.24107
2542.08631,0.24147
2540.15757,0.24169
2538.22882,0.24193
2536.30008,0.24232
2534.37133,0.24272
2532.44259,0.24308
2530.51384,0.24355
2528.58510,0.24435
2526.65635,0.24546
2524.72761,0.24672
2522.79886,0.24809
2520.87012,0.24963
2518.94137,0.25129
2517.01263,0.25291
2515.08388,0.25444
2513.15514,0.25584
2511.22639,0.25712
2509.29764,0.25814
2507.36890,0.25890
2505.44015,0.25967
2503.51141,0.26053
2501.58266,0.26143
2499.65392,0.26254
2497.72517,0.26382
2495.79643,0.26511
2493.86768,0.26653
2491.93894,0.26819
2490.01019,0.27005
2488.08145,0.27209
2486.15270,0.27421
2484.22396,0.27621
2482.29521,0.27810
2480.36647,0.28002
2478.43772,0.28199
2476.50897,0.28398
2474.58023,0.28587
2472.65148,0.28767
2470.72274,0.28953
2468.79399,0.29130
2466.86525,0.29278
2464.93650,0.29409
2463.00776,0.29541
2461.07901,0.29671
2459.15027,0.29770
2457.22152,0.29807
2455.29278,0.29814
2453.36403,0.29846
2451.43529,0.29890
2449.50654,0.29885
2447.57779,0.29822
2445.64905,0.29731
2443.72030,0.29626
2441.79156,0.29489
2439.86281,0.29312
2437.93407,0.29113
2436.00532,0.28914
2434.07658,0.28717
2432.14783,0.28493
2430.21909,0.28234
2428.29034,0.27974
2426.36160,0.27729
2424.43285,0.27479
2422.50411,0.27211
2420.57536,0.26939
2418.64662,0.26681
2416.71787,0.26439
2414.78912,0.26210
2412.86038,0.26002
2410.93163,0.25820
2409.00289,0.25643
2407.07414,0.25458
2405.14540,0.25280
2403.21665,0.25117
2401.28791,0.24954
2399.35916,0.24795
2397.43042,0.24658
2395.50167,0.24535
2393.57293,0.24417
2391.64418,0.24330
2389.71544,0.24284
2387.78669,0.24268
2385.85795,0.24285
2383.92920,0.24336
2382.00045,0.24413
2380.07171,0.24520
2378.14296,0.24642
2376.21422,0.24788
2374.28547,0.24984
2372.35673,0.25201
2370.42798,0.25415
2368.49924,0.25646
2366.57049,0.25904
2364.64175,0.26187
2362.71300,0.26503
2360.78426,0.26844
2358.85551,0.27193
2356.92677,0.27536
2354.99802,0.27849
2353.06927,0.28112
2351.14053,0.28336
2349.21178,0.28539
2347.28304,0.28749
2345.35429,0.28971
2343.42555,0.29173
2341.49680,0.29316
2339.56806,0.29393
2337.63931,0.29420
2335.71057,0.29434
2333.78182,0.29466
2331.85308,0.29508
2329.92433,0.29514
2327.99559,0.29479
2326.06684,0.29472
2324.13810,0.29548
2322.20935,0.29700
2320.28060,0.29890
2318.35186,0.30089
2316.42311,0.30277
2314.49437,0.30413
2312.56562,0.30464
2310.63688,0.30447
2308.70813,0.30385
2306.77939,0.30266
2304.85064,0.30060
2302.92190,0.29774
2300.99315,0.29434
2299.06441,0.29045
2297.13566,0.28615
2295.20692,0.28175
2293.27817,0.27746
2291.34943,0.27335
2289.42068,0.26968
2287.49193,0.26703
2285.56319,0.26574
2283.63444,0.26563
2281.70570,0.26635
2279.77695,0.26762
2277.84821,0.26907
2275.91946,0.27021
2273.99072,0.27074
2272.06197,0.27067
2270.13323,0.27013
2268.20448,0.26906
2266.27574,0.26741
2264.34699,0.26528
2262.41825,0.26271
2260.48950,0.25957
2258.56075,0.25556
2256.63201,0.25050
2254.70326,0.24427
2252.77452,0.23697
2250.84577,0.22913
2248.91703,0.22180
2246.98828,0.21609
2245.05954,0.21266
2243.13079,0.21189
2241.20205,0.21431
2239.27330,0.22061
2237.34456,0.23112
2235.41581,0.24484
2233.48707,0.25916
2231.55832,0.27118
2229.62958,0.27968
2227.70083,0.28513
2225.77208,0.28854
2223.84334,0.29072
2221.91459,0.29212
2219.98585,0.29301
2218.05710,0.29364
2216.12836,0.29416
2214.19961,0.29474
2212.27087,0.29556
2210.34212,0.29670
2208.41338,0.29842
2206.48463,0.30073
2204.55589,0.30315
2202.62714,0.30522
2200.69840,0.30665
2198.76965,0.30727
2196.84090,0.30719
2194.91216,0.30668
2192.98341,0.30603
2191.05467,0.30537
2189.12592,0.30482
2187.19718,0.30447
2185.26843,0.30409
2183.33969,0.30338
2181.41094,0.30235
2179.48220,0.30119
2177.55345,0.29972
2175.62471,0.29768
2173.69596,0.29535
2171.76722,0.29290
2169.83847,0.29002
2167.90973,0.28669
2165.98098,0.28312
2164.05223,0.27945
2162.12349,0.27575
2160.19474,0.27202
2158.26600,0.26837
2156.33725,0.26497
2154.40851,0.26181
2152.47976,0.25890
2150.55102,0.25626
2148.62227,0.25388
2146.69353,0.25174
2144.76478,0.24992
2142.83604,0.24845
2140.90729,0.24719
2138.97855,0.24596
2137.04980,0.24454
2135.12106,0.24287
2133.19231,0.24108
2131.26356,0.23936
2129.33482,0.23769
2127.40607,0.23601
2125.47733,0.23432
2123.54858,0.23268
2121.61984,0.23109
2119.69109,0.22955
2117.76235,0.22820
2115.83360,0.22710
2113.90486,0.22626
2111.97611,0.22574
2110.04737,0.22561
2108.11862,0.22579
2106.18988,0.22610
2104.26113,0.22651
2102.33238,0.22710
2100.40364,0.22796
2098.47489,0.22895
2096.54615,0.22993
2094.61740,0.23106
2092.68866,0.23252
2090.75991,0.23424
2088.83117,0.23604
2086.90242,0.23800
2084.97368,0.24030
2083.04493,0.24302
2081.11619,0.24601
2079.18744,0.24909
2077.25870,0.25230
2075.32995,0.25572
2073.40121,0.25928
2071.47246,0.26293
2069.54371,0.26665
2067.61497,0.27034
2065.68622,0.27405
2063.75748,0.27788
2061.82873,0.28163
2059.89999,0.28517
2057.97124,0.28862
2056.04250,0.29196
2054.11375,0.29494
2052.18501,0.29749
2050.25626,0.29981
2048.32752,0.30190
2046.39877,0.30345
2044.47003,0.30438
2042.54128,0.30493
2040.61254,0.30528
2038.68379,0.30533
2036.75504,0.30505
2034.82630,0.30447
2032.89755,0.30343
2030.96881,0.30187
2029.04006,0.30003
2027.11132,0.29804
2025.18257,0.29580
2023.25383,0.29336
2021.32508,0.29087
2019.39634,0.28823
2017.46759,0.28556
2015.53885,0.28299
2013.61010,0.28039
2011.68136,0.27759
2009.75261,0.27450
2007.82386,0.27099
2005.89512,0.26736
2003.96637,0.26386
2002.03763,0.26025
2000.10888,0.25625
1998.18014,0.25204
1996.25139,0.24795
1994.32265,0.24410
1992.39390,0.24044
1990.46516,0.23696
1988.53641,0.23366
1986.60767,0.23052
1984.67892,0.22753
1982.75018,0.22462
1980.82143,0.22159
1978.89269,0.21824
1976.96394,0.21455
1975.03519,0.21056
1973.10645,0.20609
1971.17770,0.20115
1969.24896,0.19576
1967.32021,0.18969
1965.39147,0.18319
1963.46272,0.17704
1961.53398,0.17217
1959.60523,0.16935
1957.67649,0.16863
1955.74774,0.16933
1953.81900,0.17080
1951.89025,0.17279
1949.96151,0.17524
1948.03276,0.17823
1946.10402,0.18195
1944.17527,0.18658
1942.24652,0.19188
1940.31778,0.19740
1938.38903,0.20290
1936.46029,0.20829
1934.53154,0.21348
1932.60280,0.21852
1930.67405,0.22331
1928.74531,0.22755
1926.81656,0.23127
1924.88782,0.23489
1922.95907,0.23847
1921.03033,0.24170
1919.10158,0.24467
1917.17284,0.24763
1915.24409,0.25031
1913.31534,0.25249
1911.38660,0.25441
1909.45785,0.25641
1907.52911,0.25845
1905.60036,0.26035
1903.67162,0.26211
1901.74287,0.26371
1899.81413,0.26512
1897.88538,0.26645
1895.95664,0.26771
1894.02789,0.26887
1892.09915,0.26995
1890.17040,0.27094
1888.24166,0.27164
1886.31291,0.27198
1884.38417,0.27199
1882.45542,0.27176
1880.52667,0.27130
1878.59793,0.27047
1876.66918,0.26918
1874.74044,0.26751
1872.81169,0.26560
1870.88295,0.26347
1868.95420,0.26087
1867.02546,0.25778
1865.09671,0.25430
1863.16797,0.25038
1861.23922,0.24600
1859.31048,0.24101
1857.38173,0.23541
1855.45299,0.22946
1853.52424,0.22313
1851.59549,0.21633
1849.66675,0.20933
1847.73800,0.20256
1845.80926,0.19594
1843.88051,0.18924
1841.95177,0.18311
1840.02302,0.17779
1838.09428,0.17271
1836.16553,0.16783
1834.23679,0.16341
1832.30804,0.15952
1830.37930,0.15600
1828.45055,0.15283
1826.52181,0.15028
1824.59306,0.14832
1822.66432,0.14681
1820.73557,0.14567
1818.80682,0.14479
1816.87808,0.14408
1814.94933,0.14340
1813.02059,0.14268
1811.09184,0.14193
1809.16310,0.14105
1807.23435,0.14003
1805.30561,0.13900
1803.37686,0.13791
1801.44812,0.13657
1799.51937,0.13492
1797.59063,0.13314
1795.66188,0.13132
1793.73314,0.12920
1791.80439,0.12674
1789.87565,0.12425
1787.94690,0.12177
1786.01815,0.11906
1784.08941,0.11610
1782.16066,0.11294
1780.23192,0.10955
1778.30317,0.10609
1776.37443,0.10281
1774.44568,0.09945
1772.51694,0.09552
1770.58819,0.09116
1768.65945,0.08673
1766.73070,0.08222
1764.80196,0.07785
1762.87321,0.07321
1760.94447,0.06805
1759.01572,0.06309
1757.08697,0.05822
1755.15823,0.05331
1753.22948,0.04854
1751.30074,0.04364
1749.37199,0.03908
1747.44325,0.03562
1745.51450,0.03323
1743.58576,0.03170
1741.65701,0.03089
1739.72827,0.03086
1737.79952,0.03165
1735.87078,0.03298
1733.94203,0.03457
1732.01329,0.03614
1730.08454,0.03774
1728.15580,0.03954
1726.22705,0.04125
1724.29830,0.04280
1722.36956,0.04417
1720.44081,0.04531
1718.51207,0.04614
1716.58332,0.04646
1714.65458,0.04607
1712.72583,0.04509
1710.79709,0.04394
1708.86834,0.04315
1706.93960,0.04303
1705.01085,0.04346
1703.08211,0.04430
1701.15336,0.04577
1699.22462,0.04760
1697.29587,0.04896
1695.36713,0.04994
1693.43838,0.05066
1691.50963,0.05112
1689.58089,0.05134
1687.65214,0.05121
1685.72340,0.05076
1683.79465,0.05023
1681.86591,0.05028
1679.93716,0.05129
1678.00842,0.05300
1676.07967,0.05498
1674.15093,0.05688
1672.22218,0.05866
1670.29344,0.06070
1668.36469,0.06317
1666.43595,0.06579
1664.50720,0.06855
1662.57845,0.07161
1660.64971,0.07460
1658.72096,0.07704
1656.79222,0.07897
1654.86347,0.08082
1652.93473,0.08301
1651.00598,0.08499
1649.07724,0.08658
1647.14849,0.08828
1645.21975,0.09002
1643.29100,0.09157
1641.36226,0.09298
1639.43351,0.09408
1637.50477,0.09486
1635.57602,0.09547
1633.64728,0.09584
1631.71853,0.09602
1629.78978,0.09620
1627.86104,0.09647
1625.93229,0.09679
1624.00355,0.09677
1622.07480,0.09576
1620.14606,0.09355
1618.21731,0.09002
1616.28857,0.08572
1614.35982,0.08333
1612.43108,0.08406
1610.50233,0.08701
1608.57359,0.09098
1606.64484,0.09501
1604.71610,0.09876
1602.78735,0.10211
1600.85861,0.10491
1598.92986,0.10707
1597.00111,0.10820
1595.07237,0.10779
1593.14362,0.10594
1591.21488,0.10302
1589.28613,0.09885
1587.35739,0.09286
1585.42864,0.08465
1583.49990,0.07492
1581.57115,0.06582
1579.64241,0.05993
1577.71366,0.05864
1575.78492,0.06207
1573.85617,0.06778
1571.92743,0.07350
1569.99868,0.07915
1568.06993,0.08387
1566.14119,0.08704
1564.21244,0.08927
1562.28370,0.09100
1560.35495,0.09251
1558.42621,0.09363
1556.49746,0.09417
1554.56872,0.09472
1552.63997,0.09548
1550.71123,0.09632
1548.78248,0.09723
1546.85374,0.09814
1544.92499,0.09911
1542.99625,0.10019
1541.06750,0.10091
1539.13876,0.10047
1537.21001,0.09922
1535.28126,0.09766
1533.35252,0.09532
1531.42377,0.09247
1529.49503,0.08986
1527.56628,0.08761
1525.63754,0.08603
1523.70879,0.08553
1521.78005,0.08579
1519.85130,0.08594
1517.92256,0.08518
1515.99381,0.08290
1514.06507,0.07857
1512.13632,0.07179
1510.20758,0.06296
1508.27883,0.05325
1506.35008,0.04563
1504.42134,0.04519
1502.49259,0.05119
1500.56385,0.06121
1498.63510,0.07315
1496.70636,0.08395
1494.77761,0.09082
1492.84887,0.09350
1490.92012,0.09304
1488.99138,0.08986
1487.06263,0.08470
1485.13389,0.07862
1483.20514,0.07228
1481.27640,0.06595
1479.34765,0.06010
1477.41891,0.05494
1475.49016,0.05036
1473.56141,0.04673
1471.63267,0.04472
1469.70392,0.04409
1467.77518,0.04351
1465.84643,0.04204
1463.91769,0.03985
1461.98894,0.03789
1460.06020,0.03639
1458.13145,0.03496
1456.20271,0.03380
1454.27396,0.03341
1452.34522,0.03360
1450.41647,0.03424
1448.48773,0.03522
1446.55898,0.03616
1444.63024,0.03690
1442.70149,0.03776
1440.77274,0.03887
1438.84400,0.04022
1436.91525,0.04217
1434.98651,0.04474
1433.05776,0.04761
1431.12902,0.05063
1429.20027,0.05311
1427.27153,0.05417
1425.34278,0.05351
1423.41404,0.05117
1421.48529,0.04737
1419.55655,0.04214
1417.62780,0.03655
1415.69906,0.03244
1413.77031,0.03000
1411.84156,0.02908
1409.91282,0.02952
1407.98407,0.03066
1406.05533,0.03202
1404.12658,0.03359
1402.19784,0.03527
1400.26909,0.03685
1398.34035,0.03822
1396.41160,0.03950
1394.48286,0.04066
1392.55411,0.04120
1390.62537,0.04091
1388.69662,0.04013
1386.76788,0.03924
1384.83913,0.03836
1382.91039,0.03734
1380.98164,0.03605
1379.05289,0.03464
1377.12415,0.03337
1375.19540,0.03238
1373.26666,0.03177
1371.33791,0.03158
1369.40917,0.03179
1367.48042,0.03259
1365.55168,0.03414
1363.62293,0.03623
1361.69419,0.03815
1359.76544,0.03926
1357.83670,0.03950
1355.90795,0.03907
1353.97921,0.03821
1352.05046,0.03712
1350.12172,0.03589
1348.19297,0.03466
1346.26422,0.03368
1344.33548,0.03318
1342.40673,0.03312
1340.47799,0.03335
1338.54924,0.03378
1336.62050,0.03436
1334.69175,0.03507
1332.76301,0.03584
1330.83426,0.03650
1328.90552,0.03667
1326.97677,0.03601
1325.04803,0.03470
1323.11928,0.03324
1321.19054,0.03188
1319.26179,0.03059
1317.33304,0.02938
1315.40430,0.02842
1313.47555,0.02776
1311.54681,0.02719
1309.61806,0.02657
1307.68932,0.02589
1305.76057,0.02521
1303.83183,0.02483
1301.90308,0.02486
1299.97434,0.02507
1298.04559,0.02544
1296.11685,0.02601
1294.18810,0.02674
1292.25936,0.02763
1290.33061,0.02874
1288.40187,0.03000
1286.47312,0.03127
1284.54437,0.03245
1282.61563,0.03354
1280.68688,0.03462
1278.75814,0.03577
1276.82939,0.03708
1274.90065,0.03865
1272.97190,0.04042
1271.04316,0.04199
1269.11441,0.04315
1267.18567,0.04406
1265.25692,0.04475
1263.32818,0.04506
1261.39943,0.04503
1259.47069,0.04481
1257.54194,0.04467
1255.61320,0.04493
1253.68445,0.04535
1251.75570,0.04556
1249.82696,0.04574
1247.89821,0.04606
1245.96947,0.04621
1244.04072,0.04598
1242.11198,0.04553
1240.18323,0.04488
1238.25449,0.04424
1236.32574,0.04394
1234.39700,0.04395
1232.46825,0.04418
1230.53951,0.04468
1228.61076,0.04545
1226.68202,0.04651
1224.75327,0.04779
1222.82452,0.04916
1220.89578,0.05066
1218.96703,0.05231
1217.03829,0.05390
1215.10954,0.05524
1213.18080,0.05642
1211.25205,0.05756
1209.32331,0.05849
1207.39456,0.05916
1205.46582,0.06009
1203.53707,0.06158
1201.60833,0.06320
1199.67958,0.06472
1197.75084,0.06629
1195.82209,0.06795
1193.89335,0.06947
1191.96460,0.07049
1190.03585,0.07060
1188.10711,0.06926
1186.17836,0.06635
1184.24962,0.06250
1182.32087,0.05833
1180.39213,0.05429
1178.46338,0.05111
1176.53464,0.04925
1174.60589,0.04862
1172.67715,0.04899
1170.74840,0.05030
1168.81966,0.05217
1166.89091,0.05366
1164.96217,0.05396
1163.03342,0.05294
1161.10467,0.05127
1159.17593,0.04935
1157.24718,0.04701
1155.31844,0.04441
1153.38969,0.04188
1151.46095,0.03942
1149.53220,0.03695
1147.60346,0.03468
1145.67471,0.03305
1143.74597,0.03217
1141.81722,0.03186
1139.88848,0.03204
1137.95973,0.03276
1136.03099,0.03390
1134.10224,0.03531
1132.17350,0.03695
1130.24475,0.03861
1128.31600,0.03989
1126.38726,0.04070
1124.45851,0.04116
1122.52977,0.04143
1120.60102,0.04160
1118.67228,0.04151
1116.74353,0.04105
1114.81479,0.04069
1112.88604,0.04069
1110.95730,0.04081
1109.02855,0.04104
1107.09981,0.04167
1105.17106,0.04256
1103.24232,0.04328
1101.31357,0.04394
1099.38483,0.04491
1097.45608,0.04557
1095.52733,0.04542
1093.59859,0.04531
1091.66984,0.04595
1089.74110,0.04672
1087.81235,0.04697
1085.88361,0.04697
1083.95486,0.04740
1082.02612,0.04866
1080.09737,0.05069
1078.16863,0.05346
1076.23988,0.05698
1074.31114,0.06082
1072.38239,0.06457
1070.45365,0.06807
1068.52490,0.07117
1066.59615,0.07385
1064.66741,0.07612
1062.73866,0.07751
1060.80992,0.07759
1058.88117,0.07639
1056.95243,0.07410
1055.02368,0.07112
1053.09494,0.06788
1051.16619,0.06468
1049.23745,0.06185
1047.30870,0.05955
1045.37996,0.05785
1043.45121,0.05698
1041.52247,0.05690
1039.59372,0.05732
1037.66498,0.05819
1035.73623,0.05922
1033.80748,0.05969
1031.87874,0.05902
1029.94999,0.05718
1028.02125,0.05472
1026.09250,0.05254
1024.16376,0.05080
1022.23501,0.04931
1020.30627,0.04860
1018.37752,0.04937
1016.44878,0.05220
1014.52003,0.05826
1012.59129,0.06807
1010.66254,0.08038
1008.73380,0.09322
1006.80505,0.10468
1004.87631,0.11327
1002.94756,0.11875
1001.01881,0.12191
999.09007,0.12377
997.16132,0.12497
995.23258,0.12513
993.30383,0.12338
991.37509,0.11984
989.44634,0.11588
987.51760,0.11277
985.58885,0.10990
983.66011,0.10579
981.73136,0.10019
979.80262,0.09383
977.87387,0.08770
975.94513,0.08272
974.01638,0.07971
972.08763,0.07950
970.15889,0.08235
968.23014,0.08768
966.30140,0.09469
964.37265,0.10271
962.44391,0.11112
960.51516,0.11935
958.58642,0.12692
956.65767,0.13357
954.72893,0.13911
952.80018,0.14334
950.87144,0.14637
948.94269,0.14831
947.01395,0.14903
945.08520,0.14853
943.15646,0.14701
941.22771,0.14473
939.29896,0.14201
937.37022,0.13940
935.44147,0.13794
933.51273,0.13874
931.58398,0.14170
929.65524,0.14542
927.72649,0.14881
925.79775,0.15146
923.86900,0.15305
921.94026,0.15355
920.01151,0.15286
918.08277,0.15061
916.15402,0.14650
914.22528,0.14026
912.29653,0.13211
910.36779,0.12279
908.43904,0.11308
906.51029,0.10411
904.58155,0.09706
902.65280,0.09248
900.72406,0.09006
898.79531,0.08907
896.86657,0.08919
894.93782,0.09023
893.00908,0.09130
891.08033,0.09141
889.15159,0.09013
887.22284,0.08738
885.29410,0.08338
883.36535,0.07854
881.43661,0.07336
879.50786,0.06828
877.57911,0.06365
875.65037,0.06006
873.72162,0.05889
871.79288,0.06183
869.86413,0.06906
867.93539,0.07815
866.00664,0.08604
864.07790,0.09105
862.14915,0.09281
860.22041,0.09188
858.29166,0.08922
856.36292,0.08568
854.43417,0.08216
852.50543,0.07943
850.57668,0.07749
848.64794,0.07642
846.71919,0.07713
844.79044,0.07957
842.86170,0.08275
840.93295,0.08645
839.00421,0.09124
837.07546,0.09695
835.14672,0.10257
833.21797,0.10770
831.28923,0.11264
829.36048,0.11734
827.43174,0.12115
825.50299,0.12363
823.57425,0.12491
821.64550,0.12536
819.71676,0.12520
817.78801,0.12436
815.85926,0.12313
813.93052,0.12193
812.00177,0.12066
810.07303,0.11925
808.14428,0.11796
806.21554,0.11679
804.28679,0.11569
802.35805,0.11457
800.42930,0.11206
798.50056,0.10585
796.57181,0.09630
794.64307,0.08829
792.71432,0.08698
790.78558,0.09267
788.85683,0.10188
786.92809,0.11121
784.99934,0.11923
783.07059,0.12580
781.14185,0.13054
779.21310,0.13341
777.28436,0.13513
775.35561,0.13625
773.42687,0.13728
771.49812,0.13874
769.56938,0.14024
767.64063,0.14091
765.71189,0.14043
763.78314,0.13881
761.85440,0.13613
759.92565,0.13276
757.99691,0.12898
756.06816,0.12448
754.13942,0.11916
752.21067,0.11336
750.28192,0.10685
748.35318,0.09875
746.42443,0.08839
744.49569,0.07598
742.56694,0.06263
740.63820,0.04999
738.70945,0.04009
736.78071,0.03442
734.85196,0.03264
732.92322,0.03320
730.99447,0.03500
729.06573,0.03756
727.13698,0.04046
725.20824,0.04356
723.27949,0.04754
721.35074,0.05368
719.42200,0.06270
717.49325,0.07328
715.56451,0.08277
713.63576,0.08948
711.70702,0.09346
709.77827,0.09615
707.84953,0.09911
705.92078,0.10287
703.99204,0.10762
702.06329,0.11398
700.13455,0.12229
698.20580,0.13114
696.27706,0.13811
694.34831,0.14228
692.41957,0.14453
690.49082,0.14592
688.56207,0.14585
686.63333,0.14346
684.70458,0.13988
682.77584,0.13677
680.84709,0.13517
678.91835,0.13632
676.98960,0.14081
675.06086,0.14696
673.13211,0.15233
671.20337,0.15624
669.27462,0.15939
667.34588,0.16211
665.41713,0.16446
663.48839,0.16660
661.55964,0.16846
659.63090,0.17019
657.70215,0.17170
655.77340,0.17286
653.84466,0.17428
651.91591,0.17572
649.98717,0.17639
648.05842,0.17695
646.12968,0.17790
644.20093,0.17821
642.27219,0.17745
640.34344,0.17630
638.41470,0.17402
636.48595,0.16755
634.55721,0.15568
632.62846,0.14558
630.69972,0.14663
628.77097,0.15619
626.84222,0.16517
624.91348,0.17042
622.98473,0.17340
621.05599,0.17578
619.12724,0.17798
617.19850,0.17965
615.26975,0.18108
613.34101,0.18240
611.41226,0.18304
609.48352,0.18312
607.55477,0.18294
605.62603,0.18243
603.69728,0.18192
601.76854,0.18121
599.83979,0.18063
