7497.03301,0.56497
7495.10426,0.56349
7493.17552,0.56610
7491.24677,0.57381
7489.31803,0.58300
7487.38928,0.58654
7485.46054,0.58525
7483.53179,0.58368
7481.60305,0.58217
7479.67430,0.57957
7477.74556,0.57655
7475.81681,0.57494
7473.88807,0.57689
7471.95932,0.58039
7470.03057,0.57894
7468.10183,0.57278
7466.17308,0.56945
7464.24434,0.56956
7462.31559,0.56748
7460.38685,0.56612
7458.45810,0.57230
7456.52936,0.57992
7454.60061,0.57805
7452.67187,0.57088
7450.74312,0.56822
7448.81438,0.57033
7446.88563,0.57397
7444.95689,0.57822
7443.02814,0.58255
7441.09940,0.58182
7439.17065,0.57246
7437.24190,0.56493
7435.31316,0.56773
7433.38441,0.57269
7431.45567,0.57168
7429.52692,0.56789
7427.59818,0.56488
7425.66943,0.56209
7423.74069,0.56244
7421.81194,0.56764
7419.88320,0.57072
7417.95445,0.56791
7416.02571,0.56577
7414.09696,0.56833
7412.16822,0.57094
7410.23947,0.56939
7408.31073,0.56723
7406.38198,0.57018
7404.45323,0.57562
7402.52449,0.57664
7400.59574,0.57194
7398.66700,0.56450
7396.73825,0.55919
7394.80951,0.56014
7392.88076,0.56454
7390.95202,0.56606
7389.02327,0.56443
7387.09453,0.56481
7385.16578,0.56956
7383.23704,0.57556
7381.30829,0.57885
7379.37955,0.57919
7377.45080,0.57783
7375.52205,0.57526
7373.59331,0.57233
7371.66456,0.57047
7369.73582,0.56955
7367.80707,0.56794
7365.87833,0.56839
7363.94958,0.57275
7362.02084,0.57496
7360.09209,0.57267
7358.16335,0.57069
7356.23460,0.57023
7354.30586,0.56849
7352.37711,0.56666
7350.44837,0.56615
7348.51962,0.56359
7346.59088,0.56039
7344.66213,0.56337
7342.73338,0.56892
7340.80464,0.56808
7338.87589,0.56515
7336.94715,0.56513
7335.01840,0.56262
7333.08966,0.55816
7331.16091,0.55808
7329.23217,0.56261
7327.30342,0.56606
7325.37468,0.56470
7323.44593,0.56157
7321.51719,0.55972
7319.58844,0.55989
7317.65970,0.56411
7315.73095,0.56916
7313.80221,0.56837
7311.87346,0.56652
7309.94471,0.57095
7308.01597,0.57452
7306.08722,0.57097
7304.15848,0.56620
7302.22973,0.56508
7300.30099,0.56594
7298.37224,0.56699
7296.44350,0.56711
7294.51475,0.56398
7292.58601,0.55830
7290.65726,0.55390
7288.72852,0.55236
7286.79977,0.55249
7284.87103,0.55343
7282.94228,0.55445
7281.01353,0.55487
7279.08479,0.55632
7277.15604,0.55809
7275.22730,0.55820
7273.29855,0.55809
7271.36981,0.55848
7269.44106,0.56055
7267.51232,0.56352
7265.58357,0.56203
7263.65483,0.55694
7261.72608,0.55442
7259.79734,0.55627
7257.86859,0.55862
7255.93985,0.55609
7254.01110,0.55065
7252.08236,0.54902
7250.15361,0.54977
7248.22486,0.54915
7246.29612,0.54988
7244.36737,0.55271
7242.43863,0.55519
7240.50988,0.55599
7238.58114,0.55426
7236.65239,0.55353
7234.72365,0.55752
7232.79490,0.56181
7230.86616,0.56176
7228.93741,0.56072
7227.00867,0.56143
7225.07992,0.56065
7223.15118,0.55658
7221.22243,0.55282
7219.29369,0.55238
7217.36494,0.55445
7215.43619,0.55763
7213.50745,0.56009
7211.57870,0.55968
7209.64996,0.55831
7207.72121,0.55820
7205.79247,0.55753
7203.86372,0.55733
7201.93498,0.56062
7200.00623,0.56561
7198.07749,0.56858
7196.14874,0.56692
7194.22000,0.56233
7192.29125,0.55949
7190.36251,0.55934
7188.43376,0.56007
7186.50501,0.55978
7184.57627,0.55717
7182.64752,0.55176
7180.71878,0.54519
7178.79003,0.54306
7176.86129,0.54750
7174.93254,0.55388
7173.00380,0.55752
7171.07505,0.55774
7169.14631,0.55644
7167.21756,0.55597
7165.28882,0.55646
7163.36007,0.55591
7161.43133,0.55482
7159.50258,0.55520
7157.57384,0.55462
7155.64509,0.55237
7153.71634,0.55225
7151.78760,0.55348
7149.85885,0.55304
7147.93011,0.55258
7146.00136,0.55468
7144.07262,0.55806
7142.14387,0.55919
7140.21513,0.55841
7138.28638,0.55854
7136.35764,0.55908
7134.42889,0.55862
7132.50015,0.55730
7130.57140,0.55554
7128.64266,0.55353
7126.71391,0.55106
7124.78516,0.54874
7122.85642,0.54894
7120.92767,0.55134
7118.99893,0.55178
7117.07018,0.55065
7115.14144,0.55127
7113.21269,0.55256
7111.28395,0.55307
7109.35520,0.55305
7107.42646,0.55362
7105.49771,0.55426
7103.56897,0.55301
7101.64022,0.55208
7099.71148,0.55176
7097.78273,0.55005
7095.85399,0.55052
7093.92524,0.55411
7091.99649,0.55563
7090.06775,0.55440
7088.13900,0.55412
7086.21026,0.55468
7084.28151,0.55403
7082.35277,0.55387
7080.42402,0.55503
7078.49528,0.55376
7076.56653,0.54931
7074.63779,0.54738
7072.70904,0.55066
7070.78030,0.55504
7068.85155,0.55742
7066.92281,0.55799
7064.99406,0.55748
7063.06532,0.55646
7061.13657,0.55456
7059.20782,0.55279
7057.27908,0.55285
7055.35033,0.55346
7053.42159,0.55381
7051.49284,0.55501
7049.56410,0.55651
7047.63535,0.55580
7045.70661,0.55198
7043.77786,0.55005
7041.84912,0.55367
7039.92037,0.55719
7037.99163,0.55677
7036.06288,0.55532
7034.13414,0.55357
7032.20539,0.55162
7030.27664,0.55011
7028.34790,0.54922
7026.41915,0.55057
7024.49041,0.55265
7022.56166,0.55223
7020.63292,0.55078
7018.70417,0.55092
7016.77543,0.55103
7014.84668,0.54921
7012.91794,0.54859
7010.98919,0.55154
7009.06045,0.55399
7007.13170,0.55357
7005.20296,0.55391
7003.27421,0.55510
7001.34547,0.55433
6999.41672,0.55373
6997.48797,0.55405
6995.55923,0.55378
6993.63048,0.55459
6991.70174,0.55590
6989.77299,0.55568
6987.84425,0.55539
6985.91550,0.55701
6983.98676,0.55975
6982.05801,0.56048
6980.12927,0.55880
6978.20052,0.55803
6976.27178,0.55897
6974.34303,0.55975
6972.41429,0.55972
6970.48554,0.55991
6968.55680,0.56011
6966.62805,0.55740
6964.69930,0.55355
6962.77056,0.55376
6960.84181,0.55648
6958.91307,0.55861
6956.98432,0.56026
6955.05558,0.56041
6953.12683,0.55837
6951.19809,0.55615
6949.26934,0.55594
6947.34060,0.55666
6945.41185,0.55550
6943.48311,0.55230
6941.55436,0.55085
6939.62562,0.55334
6937.69687,0.55501
6935.76812,0.55394
6933.83938,0.55518
6931.91063,0.55916
6929.98189,0.56037
6928.05314,0.55800
6926.12440,0.55751
6924.19565,0.55948
6922.26691,0.55904
6920.33816,0.55633
6918.40942,0.55482
6916.48067,0.55459
6914.55193,0.55438
6912.62318,0.55518
6910.69444,0.55690
6908.76569,0.55760
6906.83695,0.55779
6904.90820,0.55771
6902.97945,0.55646
6901.05071,0.55502
6899.12196,0.55503
6897.19322,0.55863
6895.26447,0.56494
6893.33573,0.56841
6891.40698,0.56643
6889.47824,0.56124
6887.54949,0.55721
6885.62075,0.55797
6883.69200,0.56107
6881.76326,0.56181
6879.83451,0.56126
6877.90577,0.56276
6875.97702,0.56552
6874.04828,0.56697
6872.11953,0.56680
6870.19078,0.56562
6868.26204,0.56306
6866.33329,0.55895
6864.40455,0.55585
6862.47580,0.55586
6860.54706,0.55620
6858.61831,0.55550
6856.68957,0.55630
6854.76082,0.55775
6852.83208,0.55746
6850.90333,0.55773
6848.97459,0.56067
6847.04584,0.56234
6845.11710,0.55970
6843.18835,0.55663
6841.25960,0.55579
6839.33086,0.55550
6837.40211,0.55564
6835.47337,0.55815
6833.54462,0.56222
6831.61588,0.56364
6829.68713,0.56256
6827.75839,0.56230
6825.82964,0.56103
6823.90090,0.55890
6821.97215,0.56149
6820.04341,0.56837
6818.11466,0.57210
6816.18592,0.56956
6814.25717,0.56520
6812.32843,0.56302
6810.39968,0.56252
6808.47093,0.56287
6806.54219,0.56298
6804.61344,0.56013
6802.68470,0.55648
6800.75595,0.55746
6798.82721,0.56207
6796.89846,0.56590
6794.96972,0.56622
6793.04097,0.56352
6791.11223,0.56096
6789.18348,0.55885
6787.25474,0.55703
6785.32599,0.55747
6783.39725,0.55954
6781.46850,0.56163
6779.53975,0.56283
6777.61101,0.56222
6775.68226,0.56155
6773.75352,0.56245
6771.82477,0.56365
6769.89603,0.56376
6767.96728,0.56212
6766.03854,0.56056
6764.10979,0.56162
6762.18105,0.56352
6760.25230,0.56339
6758.32356,0.56196
6756.39481,0.56128
6754.46607,0.56089
6752.53732,0.56004
6750.60858,0.55959
6748.67983,0.55902
6746.75108,0.55755
6744.82234,0.55664
6742.89359,0.55765
6740.96485,0.55960
6739.03610,0.56079
6737.10736,0.56084
6735.17861,0.56037
6733.24987,0.56045
6731.32112,0.56054
6729.39238,0.56044
6727.46363,0.56242
6725.53489,0.56570
6723.60614,0.56619
6721.67740,0.56321
6719.74865,0.56019
6717.81991,0.55908
6715.89116,0.55850
6713.96241,0.55765
6712.03367,0.55751
6710.10492,0.55872
6708.17618,0.56055
6706.24743,0.56165
6704.31869,0.56141
6702.38994,0.56085
6700.46120,0.56068
6698.53245,0.56003
6696.60371,0.56009
6694.67496,0.56148
6692.74622,0.56099
6690.81747,0.55831
6688.88873,0.55685
6686.95998,0.55758
6685.03123,0.55933
6683.10249,0.56065
6681.17374,0.56109
6679.24500,0.56227
6677.31625,0.56442
6675.38751,0.56491
6673.45876,0.56302
6671.53002,0.56149
6669.60127,0.56134
6667.67253,0.56028
6665.74378,0.55871
6663.81504,0.55879
6661.88629,0.55880
6659.95755,0.55778
6658.02880,0.55805
6656.10006,0.55843
6654.17131,0.55582
6652.24256,0.55296
6650.31382,0.55378
6648.38507,0.55565
6646.45633,0.55569
6644.52758,0.55554
6642.59884,0.55604
6640.67009,0.55554
6638.74135,0.55391
6636.81260,0.55370
6634.88386,0.55526
6632.95511,0.55599
6631.02637,0.55551
6629.09762,0.55477
6627.16888,0.55385
6625.24013,0.55418
6623.31139,0.55612
6621.38264,0.55780
6619.45389,0.55906
6617.52515,0.56056
6615.59640,0.56130
6613.66766,0.56065
6611.73891,0.55936
6609.81017,0.55837
6607.88142,0.55810
6605.95268,0.55861
6604.02393,0.55869
6602.09519,0.55708
6600.16644,0.55555
6598.23770,0.55629
6596.30895,0.55835
6594.38021,0.56000
6592.45146,0.56077
6590.52271,0.56046
6588.59397,0.55896
6586.66522,0.55733
6584.73648,0.55687
6582.80773,0.55749
6580.87899,0.55773
6578.95024,0.55640
6577.02150,0.55513
6575.09275,0.55518
6573.16401,0.55459
6571.23526,0.55299
6569.30652,0.55280
6567.37777,0.55517
6565.44903,0.55786
6563.52028,0.55849
6561.59154,0.55781
6559.66279,0.55730
6557.73404,0.55738
6555.80530,0.55717
6553.87655,0.55572
6551.94781,0.55396
6550.01906,0.55329
6548.09032,0.55473
6546.16157,0.55716
6544.23283,0.55730
6542.30408,0.55560
6540.37534,0.55578
6538.44659,0.55717
6536.51785,0.55550
6534.58910,0.55215
6532.66036,0.55202
6530.73161,0.55352
6528.80287,0.55292
6526.87412,0.55153
6524.94537,0.55086
6523.01663,0.55051
6521.08788,0.55070
6519.15914,0.55101
6517.23039,0.55038
6515.30165,0.54979
6513.37290,0.55134
6511.44416,0.55390
6509.51541,0.55446
6507.58667,0.55376
6505.65792,0.55390
6503.72918,0.55309
6501.80043,0.55002
6499.87169,0.54852
6497.94294,0.55020
6496.01419,0.55145
6494.08545,0.55235
6492.15670,0.55459
6490.22796,0.55580
6488.29921,0.55534
6486.37047,0.55458
6484.44172,0.55399
6482.51298,0.55426
6480.58423,0.55508
6478.65549,0.55525
6476.72674,0.55445
6474.79800,0.55430
6472.86925,0.55563
6470.94051,0.55647
6469.01176,0.55578
6467.08302,0.55487
6465.15427,0.55496
6463.22552,0.55620
6461.29678,0.55896
6459.36803,0.56226
6457.43929,0.56278
6455.51054,0.56076
6453.58180,0.56021
6451.65305,0.56138
6449.72431,0.56175
6447.79556,0.56089
6445.86682,0.55967
6443.93807,0.55893
6442.00933,0.55956
6440.08058,0.56138
6438.15184,0.56229
6436.22309,0.56085
6434.29434,0.55898
6432.36560,0.55902
6430.43685,0.56063
6428.50811,0.56328
6426.57936,0.56585
6424.65062,0.56512
6422.72187,0.56174
6420.79313,0.56079
6418.86438,0.56289
6416.93564,0.56394
6415.00689,0.56273
6413.07815,0.56170
6411.14940,0.56199
6409.22066,0.56197
6407.29191,0.56074
6405.36317,0.55939
6403.43442,0.55855
6401.50567,0.55788
6399.57693,0.55698
6397.64818,0.55718
6395.71944,0.55904
6393.79069,0.55977
6391.86195,0.55874
6389.93320,0.55810
6388.00446,0.55756
6386.07571,0.55676
6384.14697,0.55737
6382.21822,0.55871
6380.28948,0.55856
6378.36073,0.55792
6376.43199,0.55820
6374.50324,0.55892
6372.57450,0.55897
6370.64575,0.55770
6368.71700,0.55724
6366.78826,0.55859
6364.85951,0.55945
6362.93077,0.55939
6361.00202,0.55965
6359.07328,0.55997
6357.14453,0.55932
6355.21579,0.55800
6353.28704,0.55734
6351.35830,0.55842
6349.42955,0.56082
6347.50081,0.56150
6345.57206,0.55923
6343.64332,0.55696
6341.71457,0.55669
6339.78582,0.55754
6337.85708,0.55804
6335.92833,0.55733
6333.99959,0.55688
6332.07084,0.55887
6330.14210,0.56184
6328.21335,0.56365
6326.28461,0.56440
6324.35586,0.56352
6322.42712,0.56135
6320.49837,0.56017
6318.56963,0.56054
6316.64088,0.56074
6314.71214,0.55998
6312.78339,0.55883
6310.85465,0.55742
6308.92590,0.55702
6306.99715,0.55793
6305.06841,0.55749
6303.13966,0.55600
6301.21092,0.55586
6299.28217,0.55763
6297.35343,0.56135
6295.42468,0.56469
6293.49594,0.56431
6291.56719,0.56100
6289.63845,0.55871
6287.70970,0.55909
6285.78096,0.56029
6283.85221,0.56080
6281.92347,0.56083
6279.99472,0.56105
6278.06598,0.56131
6276.13723,0.56046
6274.20848,0.55909
6272.27974,0.55825
6270.35099,0.55719
6268.42225,0.55624
6266.49350,0.55693
6264.56476,0.55882
6262.63601,0.56037
6260.70727,0.56102
6258.77852,0.56093
6256.84978,0.56106
6254.92103,0.56163
6252.99229,0.56144
6251.06354,0.56086
6249.13480,0.56084
6247.20605,0.56084
6245.27730,0.56037
6243.34856,0.55925
6241.41981,0.55715
6239.49107,0.55515
6237.56232,0.55498
6235.63358,0.55636
6233.70483,0.55741
6231.77609,0.55753
6229.84734,0.55765
6227.91860,0.55741
6225.98985,0.55604
6224.06111,0.55541
6222.13236,0.55675
6220.20362,0.55795
6218.27487,0.55788
6216.34613,0.55797
6214.41738,0.55834
6212.48863,0.55830
6210.55989,0.55871
6208.63114,0.55946
6206.70240,0.55879
6204.77365,0.55661
6202.84491,0.55470
6200.91616,0.55338
6198.98742,0.55148
6197.05867,0.54918
6195.12993,0.54840
6193.20118,0.55027
6191.27244,0.55226
6189.34369,0.55216
6187.41495,0.55185
6185.48620,0.55244
6183.55746,0.55284
6181.62871,0.55249
6179.69996,0.55203
6177.77122,0.55245
6175.84247,0.55380
6173.91373,0.55521
6171.98498,0.55607
6170.05624,0.55656
6168.12749,0.55650
6166.19875,0.55591
6164.27000,0.55568
6162.34126,0.55586
6160.41251,0.55530
6158.48377,0.55380
6156.55502,0.55269
6154.62628,0.55270
6152.69753,0.55379
6150.76878,0.55531
6148.84004,0.55570
6146.91129,0.55473
6144.98255,0.55314
6143.05380,0.55129
6141.12506,0.54990
6139.19631,0.54960
6137.26757,0.55002
6135.33882,0.55011
6133.41008,0.54936
6131.48133,0.54877
6129.55259,0.54914
6127.62384,0.54911
6125.69510,0.54781
6123.76635,0.54657
6121.83761,0.54628
6119.90886,0.54689
6117.98011,0.54750
6116.05137,0.54672
6114.12262,0.54489
6112.19388,0.54289
6110.26513,0.54042
6108.33639,0.53793
6106.40764,0.53623
6104.47890,0.53429
6102.55015,0.53183
6100.62141,0.53030
6098.69266,0.53000
6096.76392,0.52989
6094.83517,0.52867
6092.90643,0.52577
6090.97768,0.52214
6089.04893,0.51884
6087.12019,0.51632
6085.19144,0.51450
6083.26270,0.51216
6081.33395,0.50906
6079.40521,0.50734
6077.47646,0.50700
6075.54772,0.50573
6073.61897,0.50386
6071.69023,0.50256
6069.76148,0.50100
6067.83274,0.49818
6065.90399,0.49469
6063.97525,0.49160
6062.04650,0.48843
6060.11776,0.48509
6058.18901,0.48268
6056.26026,0.48073
6054.33152,0.47896
6052.40277,0.47788
6050.47403,0.47631
6048.54528,0.47342
6046.61654,0.47013
6044.68779,0.46781
6042.75905,0.46668
6040.83030,0.46497
6038.90156,0.46235
6036.97281,0.46050
6035.04407,0.45882
6033.11532,0.45557
6031.18658,0.45191
6029.25783,0.44981
6027.32909,0.44847
6025.40034,0.44639
6023.47159,0.44417
6021.54285,0.44340
6019.61410,0.44408
6017.68536,0.44462
6015.75661,0.44447
6013.82787,0.44490
6011.89912,0.44649
6009.97038,0.44856
6008.04163,0.45071
6006.11289,0.45305
6004.18414,0.45595
6002.25540,0.45920
6000.32665,0.46214
5998.39791,0.46526
5996.46916,0.46907
5994.54041,0.47220
5992.61167,0.47357
5990.68292,0.47464
5988.75418,0.47726
5986.82543,0.48068
5984.89669,0.48291
5982.96794,0.48364
5981.03920,0.48431
5979.11045,0.48561
5977.18171,0.48690
5975.25296,0.48779
5973.32422,0.48804
5971.39547,0.48759
5969.46673,0.48746
5967.53798,0.48821
5965.60924,0.48943
5963.68049,0.49127
5961.75174,0.49361
5959.82300,0.49500
5957.89425,0.49529
5955.96551,0.49575
5954.03676,0.49603
5952.10802,0.49490
5950.17927,0.49362
5948.25053,0.49386
5946.32178,0.49440
5944.39304,0.49400
5942.46429,0.49316
5940.53555,0.49261
5938.60680,0.49280
5936.67806,0.49327
5934.74931,0.49353
5932.82057,0.49417
5930.89182,0.49584
5928.96307,0.49824
5927.03433,0.50068
5925.10558,0.50329
5923.17684,0.50562
5921.24809,0.50689
5919.31935,0.50725
5917.39060,0.50668
5915.46186,0.50652
5913.53311,0.50849
5911.60437,0.51117
5909.67562,0.51227
5907.74688,0.51194
5905.81813,0.51138
5903.88939,0.51010
5901.96064,0.50791
5900.03189,0.50683
5898.10315,0.50728
5896.17440,0.50716
5894.24566,0.50584
5892.31691,0.50436
5890.38817,0.50269
5888.45942,0.50055
5886.53068,0.49897
5884.60193,0.49836
5882.67319,0.49780
5880.74444,0.49705
5878.81570,0.49630
5876.88695,0.49510
5874.95821,0.49361
5873.02946,0.49254
5871.10072,0.49118
5869.17197,0.48888
5867.24322,0.48671
5865.31448,0.48540
5863.38573,0.48423
5861.45699,0.48327
5859.52824,0.48313
5857.59950,0.48307
5855.67075,0.48210
5853.74201,0.48012
5851.81326,0.47811
5849.88452,0.47765
5847.95577,0.47854
5846.02703,0.47897
5844.09828,0.47893
5842.16954,0.47943
5840.24079,0.47952
5838.31205,0.47839
5836.38330,0.47763
5834.45455,0.47794
5832.52581,0.47782
5830.59706,0.47646
5828.66832,0.47503
5826.73957,0.47456
5824.81083,0.47492
5822.88208,0.47565
5820.95334,0.47613
5819.02459,0.47603
5817.09585,0.47594
5815.16710,0.47609
5813.23836,0.47605
5811.30961,0.47598
5809.38087,0.47593
5807.45212,0.47533
5805.52337,0.47459
5803.59463,0.47486
5801.66588,0.47590
5799.73714,0.47597
5797.80839,0.47472
5795.87965,0.47361
5793.95090,0.47339
5792.02216,0.47385
5790.09341,0.47461
5788.16467,0.47544
5786.23592,0.47639
5784.30718,0.47712
5782.37843,0.47680
5780.44969,0.47549
5778.52094,0.47520
5776.59220,0.47695
5774.66345,0.47899
5772.73470,0.48011
5770.80596,0.48093
5768.87721,0.48177
5766.94847,0.48239
5765.01972,0.48280
5763.09098,0.48360
5761.16223,0.48536
5759.23349,0.48717
5757.30474,0.48780
5755.37600,0.48789
5753.44725,0.48808
5751.51851,0.48830
5749.58976,0.48897
5747.66102,0.49019
5745.73227,0.49135
5743.80352,0.49196
5741.87478,0.49198
5739.94603,0.49192
5738.01729,0.49250
5736.08854,0.49347
5734.15980,0.49396
5732.23105,0.49437
5730.30231,0.49488
5728.37356,0.49465
5726.44482,0.49440
5724.51607,0.49489
5722.58733,0.49595
5720.65858,0.49719
5718.72984,0.49761
5716.80109,0.49711
5714.87235,0.49642
5712.94360,0.49572
5711.01485,0.49525
5709.08611,0.49516
5707.15736,0.49506
5705.22862,0.49445
5703.29987,0.49380
5701.37113,0.49439
5699.44238,0.49611
5697.51364,0.49732
5695.58489,0.49774
5693.65615,0.49850
5691.72740,0.49955
5689.79866,0.49992
5687.86991,0.49938
5685.94117,0.49869
5684.01242,0.49855
5682.08368,0.49917
5680.15493,0.50039
5678.22618,0.50125
5676.29744,0.50149
5674.36869,0.50203
5672.43995,0.50289
5670.51120,0.50364
5668.58246,0.50455
5666.65371,0.50551
5664.72497,0.50619
5662.79622,0.50685
5660.86748,0.50749
5658.93873,0.50812
5657.00999,0.50935
5655.08124,0.51066
5653.15250,0.51081
5651.22375,0.51009
5649.29500,0.51016
5647.36626,0.51096
5645.43751,0.51107
5643.50877,0.51103
5641.58002,0.51194
5639.65128,0.51367
5637.72253,0.51579
5635.79379,0.51761
5633.86504,0.51870
5631.93630,0.51878
5630.00755,0.51845
5628.07881,0.51880
5626.15006,0.51925
5624.22132,0.51988
5622.29257,0.52136
5620.36383,0.52227
5618.43508,0.52184
5616.50633,0.52163
5614.57759,0.52263
5612.64884,0.52337
5610.72010,0.52305
5608.79135,0.52315
5606.86261,0.52406
5604.93386,0.52452
5603.00512,0.52442
5601.07637,0.52431
5599.14763,0.52407
5597.21888,0.52377
5595.29014,0.52414
5593.36139,0.52517
5591.43265,0.52611
5589.50390,0.52625
5587.57516,0.52514
5585.64641,0.52321
5583.71766,0.52175
5581.78892,0.52156
5579.86017,0.52187
5577.93143,0.52137
5576.00268,0.52079
5574.07394,0.52167
5572.14519,0.52297
5570.21645,0.52284
5568.28770,0.52156
5566.35896,0.52059
5564.43021,0.52055
5562.50147,0.52086
5560.57272,0.52145
5558.64398,0.52247
5556.71523,0.52297
5554.78648,0.52289
5552.85774,0.52305
5550.92899,0.52294
5549.00025,0.52189
5547.07150,0.52085
5545.14276,0.52119
5543.21401,0.52234
5541.28527,0.52268
5539.35652,0.52234
5537.42778,0.52216
5535.49903,0.52217
5533.57029,0.52258
5531.64154,0.52321
5529.71280,0.52334
5527.78405,0.52307
5525.85531,0.52314
5523.92656,0.52329
5521.99781,0.52313
5520.06907,0.52319
5518.14032,0.52359
5516.21158,0.52396
5514.28283,0.52403
5512.35409,0.52400
5510.42534,0.52477
5508.49660,0.52612
5506.56785,0.52675
5504.63911,0.52656
5502.71036,0.52614
5500.78162,0.52593
5498.85287,0.52622
5496.92413,0.52637
5494.99538,0.52564
5493.06664,0.52475
5491.13789,0.52442
5489.20914,0.52447
5487.28040,0.52477
5485.35165,0.52517
5483.42291,0.52528
5481.49416,0.52520
5479.56542,0.52545
5477.63667,0.52544
5475.70793,0.52459
5473.77918,0.52411
5471.85044,0.52447
5469.92169,0.52489
5467.99295,0.52536
5466.06420,0.52617
5464.13546,0.52647
5462.20671,0.52571
5460.27796,0.52511
5458.34922,0.52547
5456.42047,0.52604
5454.49173,0.52635
5452.56298,0.52692
5450.63424,0.52820
5448.70549,0.52980
5446.77675,0.53107
5444.84800,0.53163
5442.91926,0.53161
5440.99051,0.53129
5439.06177,0.53079
5437.13302,0.53068
5435.20428,0.53153
5433.27553,0.53270
5431.34679,0.53343
5429.41804,0.53410
5427.48929,0.53496
5425.56055,0.53541
5423.63180,0.53504
5421.70306,0.53426
5419.77431,0.53386
5417.84557,0.53427
5415.91682,0.53522
5413.98808,0.53580
5412.05933,0.53566
5410.13059,0.53554
5408.20184,0.53610
5406.27310,0.53712
5404.34435,0.53757
5402.41561,0.53697
5400.48686,0.53620
5398.55811,0.53590
5396.62937,0.53564
5394.70062,0.53521
5392.77188,0.53511
5390.84313,0.53560
5388.91439,0.53649
5386.98564,0.53719
5385.05690,0.53729
5383.12815,0.53722
5381.19941,0.53743
5379.27066,0.53792
5377.34192,0.53851
5375.41317,0.53899
5373.48443,0.53926
5371.55568,0.53947
5369.62694,0.53987
5367.69819,0.54005
5365.76944,0.53966
5363.84070,0.53913
5361.91195,0.53876
5359.98321,0.53869
5358.05446,0.53863
5356.12572,0.53808
5354.19697,0.53742
5352.26823,0.53722
5350.33948,0.53742
5348.41074,0.53747
5346.48199,0.53722
5344.55325,0.53733
5342.62450,0.53783
5340.69576,0.53790
5338.76701,0.53777
5336.83827,0.53824
5334.90952,0.53911
5332.98077,0.53987
5331.05203,0.54012
5329.12328,0.54025
5327.19454,0.54103
5325.26579,0.54136
5323.33705,0.54040
5321.40830,0.53964
5319.47956,0.53988
5317.55081,0.54029
5315.62207,0.54043
5313.69332,0.54031
5311.76458,0.53986
5309.83583,0.53929
5307.90709,0.53897
5305.97834,0.53878
5304.04959,0.53882
5302.12085,0.53916
5300.19210,0.53889
5298.26336,0.53773
5296.33461,0.53701
5294.40587,0.53699
5292.47712,0.53702
5290.54838,0.53708
5288.61963,0.53645
5286.69089,0.53509
5284.76214,0.53438
5282.83340,0.53421
5280.90465,0.53330
5278.97591,0.53214
5277.04716,0.53171
5275.11842,0.53145
5273.18967,0.53080
5271.26092,0.53003
5269.33218,0.52960
5267.40343,0.52929
5265.47469,0.52829
5263.54594,0.52713
5261.61720,0.52698
5259.68845,0.52726
5257.75971,0.52680
5255.83096,0.52549
5253.90222,0.52447
5251.97347,0.52458
5250.04473,0.52481
5248.11598,0.52430
5246.18724,0.52380
5244.25849,0.52343
5242.32975,0.52275
5240.40100,0.52241
5238.47225,0.52283
5236.54351,0.52333
5234.61476,0.52349
5232.68602,0.52338
5230.75727,0.52302
5228.82853,0.52263
5226.89978,0.52233
5224.97104,0.52215
5223.04229,0.52235
5221.11355,0.52265
5219.18480,0.52228
5217.25606,0.52125
5215.32731,0.52071
5213.39857,0.52129
5211.46982,0.52218
5209.54107,0.52252
5207.61233,0.52232
5205.68358,0.52233
5203.75484,0.52261
5201.82609,0.52258
5199.89735,0.52270
5197.96860,0.52333
5196.03986,0.52368
5194.11111,0.52317
5192.18237,0.52206
5190.25362,0.52109
5188.32488,0.52067
5186.39613,0.52060
5184.46739,0.52039
5182.53864,0.51995
5180.60990,0.51968
5178.68115,0.51972
5176.75240,0.51979
5174.82366,0.51955
5172.89491,0.51901
5170.96617,0.51871
5169.03742,0.51883
5167.10868,0.51869
5165.17993,0.51800
5163.25119,0.51710
5161.32244,0.51636
5159.39370,0.51618
5157.46495,0.51619
5155.53621,0.51558
5153.60746,0.51460
5151.67872,0.51409
5149.74997,0.51398
5147.82123,0.51399
5145.89248,0.51392
5143.96373,0.51331
5142.03499,0.51237
5140.10624,0.51181
5138.17750,0.51158
5136.24875,0.51121
5134.32001,0.51070
5132.39126,0.51035
5130.46252,0.51021
5128.53377,0.50981
5126.60503,0.50901
5124.67628,0.50837
5122.74754,0.50818
5120.81879,0.50827
5118.89005,0.50849
5116.96130,0.50842
5115.03255,0.50822
5113.10381,0.50866
5111.17506,0.50985
5109.24632,0.51119
5107.31757,0.51265
5105.38883,0.51433
5103.46008,0.51554
5101.53134,0.51601
5099.60259,0.51634
5097.67385,0.51682
5095.74510,0.51754
5093.81636,0.51854
5091.88761,0.51936
5089.95887,0.51995
5088.03012,0.52066
5086.10138,0.52131
5084.17263,0.52183
5082.24388,0.52238
5080.31514,0.52275
5078.38639,0.52275
5076.45765,0.52258
5074.52890,0.52268
5072.60016,0.52346
5070.67141,0.52477
5068.74267,0.52574
5066.81392,0.52582
5064.88518,0.52572
5062.95643,0.52612
5061.02769,0.52634
5059.09894,0.52600
5057.17020,0.52585
5055.24145,0.52635
5053.31270,0.52690
5051.38396,0.52710
5049.45521,0.52690
5047.52647,0.52627
5045.59772,0.52590
5043.66898,0.52609
5041.74023,0.52611
5039.81149,0.52582
5037.88274,0.52597
5035.95400,0.52670
5034.02525,0.52722
5032.09651,0.52726
5030.16776,0.52720
5028.23902,0.52719
5026.31027,0.52705
5024.38153,0.52646
5022.45278,0.52583
5020.52403,0.52580
5018.59529,0.52600
5016.66654,0.52608
5014.73780,0.52579
5012.80905,0.52480
5010.88031,0.52367
5008.95156,0.52304
5007.02282,0.52289
5005.09407,0.52305
5003.16533,0.52302
5001.23658,0.52226
4999.30784,0.52124
4997.37909,0.52048
4995.45035,0.51981
4993.52160,0.51922
4991.59286,0.51894
4989.66411,0.51894
4987.73536,0.51858
4985.80662,0.51752
4983.87787,0.51636
4981.94913,0.51523
4980.02038,0.51412
4978.09164,0.51357
4976.16289,0.51302
4974.23415,0.51174
4972.30540,0.51058
4970.37666,0.51009
4968.44791,0.50967
4966.51917,0.50939
4964.59042,0.50981
4962.66168,0.51048
4960.73293,0.51048
4958.80418,0.50982
4956.87544,0.50923
4954.94669,0.50892
4953.01795,0.50869
4951.08920,0.50877
4949.16046,0.50903
4947.23171,0.50865
4945.30297,0.50778
4943.37422,0.50731
4941.44548,0.50711
4939.51673,0.50665
4937.58799,0.50578
4935.65924,0.50474
4933.73050,0.50366
4931.80175,0.50253
4929.87301,0.50204
4927.94426,0.50222
4926.01551,0.50197
4924.08677,0.50140
4922.15802,0.50118
4920.22928,0.50068
4918.30053,0.49918
4916.37179,0.49728
4914.44304,0.49566
4912.51430,0.49429
4910.58555,0.49322
4908.65681,0.49232
4906.72806,0.49097
4904.79932,0.48887
4902.87057,0.48633
4900.94183,0.48405
4899.01308,0.48202
4897.08434,0.47978
4895.15559,0.47753
4893.22684,0.47557
4891.29810,0.47385
4889.36935,0.47209
4887.44061,0.47036
4885.51186,0.46888
4883.58312,0.46742
4881.65437,0.46592
4879.72563,0.46445
4877.79688,0.46311
4875.86814,0.46218
4873.93939,0.46154
4872.01065,0.46120
4870.08190,0.46136
4868.15316,0.46182
4866.22441,0.46269
4864.29566,0.46413
4862.36692,0.46582
4860.43817,0.46772
4858.50943,0.47010
4856.58068,0.47260
4854.65194,0.47471
4852.72319,0.47643
4850.79445,0.47793
4848.86570,0.47944
4846.93696,0.48125
4845.00821,0.48344
4843.07947,0.48546
4841.15072,0.48662
4839.22198,0.48699
4837.29323,0.48733
4835.36449,0.48792
4833.43574,0.48836
4831.50699,0.48850
4829.57825,0.48853
4827.64950,0.48831
4825.72076,0.48790
4823.79201,0.48779
4821.86327,0.48776
4819.93452,0.48722
4818.00578,0.48649
4816.07703,0.48602
4814.14829,0.48566
4812.21954,0.48523
4810.29080,0.48483
4808.36205,0.48458
4806.43331,0.48429
4804.50456,0.48397
4802.57582,0.48375
4800.64707,0.48301
4798.71832,0.48184
4796.78958,0.48107
4794.86083,0.48075
4792.93209,0.48093
4791.00334,0.48176
4789.07460,0.48241
4787.14585,0.48248
4785.21711,0.48245
4783.28836,0.48260
4781.35962,0.48292
4779.43087,0.48344
4777.50213,0.48417
4775.57338,0.48498
4773.64464,0.48535
4771.71589,0.48517
4769.78714,0.48498
4767.85840,0.48490
4765.92965,0.48472
4764.00091,0.48441
4762.07216,0.48366
4760.14342,0.48253
4758.21467,0.48142
4756.28593,0.48013
4754.35718,0.47848
4752.42844,0.47653
4750.49969,0.47435
4748.57095,0.47233
4746.64220,0.47049
4744.71346,0.46854
4742.78471,0.46679
4740.85597,0.46536
4738.92722,0.46335
4736.99847,0.46052
4735.06973,0.45764
4733.14098,0.45468
4731.21224,0.45115
4729.28349,0.44742
4727.35475,0.44396
4725.42600,0.44039
4723.49726,0.43666
4721.56851,0.43366
4719.63977,0.43152
4717.71102,0.42955
4715.78228,0.42770
4713.85353,0.42639
4711.92479,0.42562
4709.99604,0.42486
4708.06729,0.42361
4706.13855,0.42153
4704.20980,0.41847
4702.28106,0.41469
4700.35231,0.41050
4698.42357,0.40606
4696.49482,0.40139
4694.56608,0.39679
4692.63733,0.39312
4690.70859,0.39102
4688.77984,0.39045
4686.85110,0.39131
4684.92235,0.39377
4682.99361,0.39750
4681.06486,0.40155
4679.13612,0.40549
4677.20737,0.40982
4675.27862,0.41462
4673.34988,0.41936
4671.42113,0.42349
4669.49239,0.42667
4667.56364,0.42935
4665.63490,0.43153
4663.70615,0.43253
4661.77741,0.43282
4659.84866,0.43327
4657.91992,0.43363
4655.99117,0.43339
4654.06243,0.43254
4652.13368,0.43146
4650.20494,0.43009
4648.27619,0.42778
4646.34745,0.42462
4644.41870,0.42088
4642.48995,0.41642
4640.56121,0.41194
4638.63246,0.40848
4636.70372,0.40594
4634.77497,0.40403
4632.84623,0.40338
4630.91748,0.40461
4628.98874,0.40758
4627.05999,0.41180
4625.13125,0.41677
4623.20250,0.42183
4621.27376,0.42619
4619.34501,0.42956
4617.41627,0.43235
4615.48752,0.43474
4613.55877,0.43674
4611.63003,0.43832
4609.70128,0.43932
4607.77254,0.43967
4605.84379,0.43947
4603.91505,0.43876
4601.98630,0.43735
4600.05756,0.43518
4598.12881,0.43249
4596.20007,0.42958
4594.27132,0.42666
4592.34258,0.42407
4590.41383,0.42205
4588.48509,0.42056
4586.55634,0.41929
4584.62760,0.41782
4582.69885,0.41642
4580.77010,0.41583
4578.84136,0.41603
4576.91261,0.41651
4574.98387,0.41760
4573.05512,0.42009
4571.12638,0.42361
4569.19763,0.42771
4567.26889,0.43218
4565.34014,0.43613
4563.41140,0.43914
4561.48265,0.44126
4559.55391,0.44248
4557.62516,0.44328
4555.69642,0.44398
4553.76767,0.44436
4551.83893,0.44456
4549.91018,0.44480
4547.98143,0.44476
4546.05269,0.44437
4544.12394,0.44409
4542.19520,0.44402
4540.26645,0.44411
4538.33771,0.44438
4536.40896,0.44464
4534.48022,0.44491
4532.55147,0.44538
4530.62273,0.44559
4528.69398,0.44508
4526.76524,0.44412
4524.83649,0.44338
4522.90775,0.44317
4520.97900,0.44294
4519.05025,0.44223
4517.12151,0.44124
4515.19276,0.44015
4513.26402,0.43901
4511.33527,0.43777
4509.40653,0.43630
4507.47778,0.43465
4505.54904,0.43291
4503.62029,0.43077
4501.69155,0.42799
4499.76280,0.42432
4497.83406,0.41982
4495.90531,0.41536
4493.97657,0.41152
4492.04782,0.40803
4490.11908,0.40469
4488.19033,0.40190
4486.26158,0.39975
4484.33284,0.39794
4482.40409,0.39620
4480.47535,0.39436
4478.54660,0.39237
4476.61786,0.39018
4474.68911,0.38750
4472.76037,0.38430
4470.83162,0.38052
4468.90288,0.37576
4466.97413,0.37025
4465.04539,0.36446
4463.11664,0.35844
4461.18790,0.35277
4459.25915,0.34806
4457.33041,0.34449
4455.40166,0.34202
4453.47291,0.34004
4451.54417,0.33803
4449.61542,0.33606
4447.68668,0.33387
4445.75793,0.33112
4443.82919,0.32803
4441.90044,0.32495
4439.97170,0.32195
4438.04295,0.31915
4436.11421,0.31674
4434.18546,0.31495
4432.25672,0.31362
4430.32797,0.31244
4428.39923,0.31177
4426.47048,0.31204
4424.54173,0.31274
4422.61299,0.31344
4420.68424,0.31440
4418.75550,0.31549
4416.82675,0.31603
4414.89801,0.31578
4412.96926,0.31506
4411.04052,0.31414
4409.11177,0.31313
4407.18303,0.31226
4405.25428,0.31175
4403.32554,0.31145
4401.39679,0.31133
4399.46805,0.31178
4397.53930,0.31284
4395.61056,0.31397
4393.68181,0.31485
4391.75306,0.31566
4389.82432,0.31649
4387.89557,0.31700
4385.96683,0.31717
4384.03808,0.31712
4382.10934,0.31672
4380.18059,0.31591
4378.25185,0.31462
4376.32310,0.31289
4374.39436,0.31105
4372.46561,0.30921
4370.53687,0.30735
4368.60812,0.30565
4366.67938,0.30414
4364.75063,0.30264
4362.82189,0.30132
4360.89314,0.30019
4358.96439,0.29916
4357.03565,0.29859
4355.10690,0.29871
4353.17816,0.29917
4351.24941,0.29967
4349.32067,0.30005
4347.39192,0.30032
4345.46318,0.30051
4343.53443,0.30064
4341.60569,0.30079
4339.67694,0.30108
4337.74820,0.30156
4335.81945,0.30221
4333.89071,0.30286
4331.96196,0.30322
4330.03321,0.30338
4328.10447,0.30330
4326.17572,0.30260
4324.24698,0.30173
4322.31823,0.30169
4320.38949,0.30245
4318.46074,0.30356
4316.53200,0.30503
4314.60325,0.30638
4312.67451,0.30686
4310.74576,0.30656
4308.81702,0.30613
4306.88827,0.30572
4304.95953,0.30482
4303.03078,0.30334
4301.10204,0.30167
4299.17329,0.30001
4297.24454,0.29869
4295.31580,0.29781
4293.38705,0.29694
4291.45831,0.29588
4289.52956,0.29492
4287.60082,0.29438
4285.67207,0.29416
4283.74333,0.29387
4281.81458,0.29354
4279.88584,0.29327
4277.95709,0.29277
4276.02835,0.29195
4274.09960,0.29100
4272.17086,0.29016
4270.24211,0.28960
4268.31336,0.28933
4266.38462,0.28937
4264.45587,0.28991
4262.52713,0.29078
4260.59838,0.29139
4258.66964,0.29129
4256.74089,0.29063
4254.81215,0.29005
4252.88340,0.28997
4250.95466,0.29013
4249.02591,0.29043
4247.09717,0.29112
4245.16842,0.29194
4243.23968,0.29254
4241.31093,0.29330
4239.38219,0.29436
4237.45344,0.29517
4235.52469,0.29568
4233.59595,0.29629
4231.66720,0.29685
4229.73846,0.29688
4227.80971,0.29657
4225.88097,0.29661
4223.95222,0.29711
4222.02348,0.29777
4220.09473,0.29863
4218.16599,0.29980
4216.23724,0.30124
4214.30850,0.30265
4212.37975,0.30382
4210.45101,0.30489
4208.52226,0.30576
4206.59352,0.30632
4204.66477,0.30679
4202.73602,0.30721
4200.80728,0.30749
4198.87853,0.30773
4196.94979,0.30813
4195.02104,0.30860
4193.09230,0.30870
4191.16355,0.30845
4189.23481,0.30815
4187.30606,0.30730
4185.37732,0.30581
4183.44857,0.30427
4181.51983,0.30270
4179.59108,0.30128
4177.66234,0.30064
4175.73359,0.30090
4173.80484,0.30194
4171.87610,0.30348
4169.94735,0.30545
4168.01861,0.30808
4166.08986,0.31101
4164.16112,0.31367
4162.23237,0.31599
4160.30363,0.31807
4158.37488,0.31982
4156.44614,0.32138
4154.51739,0.32304
4152.58865,0.32441
4150.65990,0.32511
4148.73116,0.32548
4146.80241,0.32574
4144.87367,0.32573
4142.94492,0.32527
4141.01617,0.32441
4139.08743,0.32360
4137.15868,0.32301
4135.22994,0.32209
4133.30119,0.32067
4131.37245,0.31921
4129.44370,0.31790
4127.51496,0.31669
4125.58621,0.31570
4123.65747,0.31495
4121.72872,0.31433
4119.79998,0.31353
4117.87123,0.31241
4115.94249,0.31093
4114.01374,0.30891
4112.08500,0.30653
4110.15625,0.30379
4108.22750,0.30051
4106.29876,0.29724
4104.37001,0.29420
4102.44127,0.29066
4100.51252,0.28594
4098.58378,0.27978
4096.65503,0.27265
4094.72629,0.26572
4092.79754,0.26030
4090.86880,0.25723
4088.94005,0.25634
4087.01131,0.25696
4085.08256,0.25886
4083.15382,0.26219
4081.22507,0.26698
4079.29632,0.27288
4077.36758,0.27933
4075.43883,0.28584
4073.51009,0.29183
4071.58134,0.29671
4069.65260,0.30047
4067.72385,0.30375
4065.79511,0.30670
4063.86636,0.30890
4061.93762,0.31042
4060.00887,0.31185
4058.08013,0.31343
4056.15138,0.31488
4054.22264,0.31593
4052.29389,0.31672
4050.36515,0.31763
4048.43640,0.31880
4046.50765,0.31974
4044.57891,0.32030
4042.65016,0.32119
4040.72142,0.32271
4038.79267,0.32419
4036.86393,0.32498
4034.93518,0.32534
4033.00644,0.32579
4031.07769,0.32627
4029.14895,0.32663
4027.22020,0.32675
4025.29146,0.32673
4023.36271,0.32687
4021.43397,0.32720
4019.50522,0.32751
4017.57648,0.32771
4015.64773,0.32764
4013.71898,0.32742
4011.79024,0.32742
4009.86149,0.32771
4007.93275,0.32787
4006.00400,0.32770
4004.07526,0.32775
4002.14651,0.32827
4000.21777,0.32891
3998.28902,0.32960
3996.36028,0.33048
3994.43153,0.33128
3992.50279,0.33197
3990.57404,0.33305
3988.64530,0.33452
3986.71655,0.33582
3984.78780,0.33697
3982.85906,0.33823
3980.93031,0.33957
3979.00157,0.34094
3977.07282,0.34241
3975.14408,0.34388
3973.21533,0.34515
3971.28659,0.34635
3969.35784,0.34794
3967.42910,0.35014
3965.50035,0.35245
3963.57161,0.35431
3961.64286,0.35578
3959.71412,0.35716
3957.78537,0.35859
3955.85663,0.35999
3953.92788,0.36132
3951.99913,0.36257
3950.07039,0.36376
3948.14164,0.36485
3946.21290,0.36565
3944.28415,0.36631
3942.35541,0.36711
3940.42666,0.36781
3938.49792,0.36824
3936.56917,0.36867
3934.64043,0.36915
3932.71168,0.36944
3930.78294,0.36956
3928.85419,0.36985
3926.92545,0.37029
3924.99670,0.37075
3923.06795,0.37122
3921.13921,0.37175
3919.21046,0.37227
3917.28172,0.37285
3915.35297,0.37371
3913.42423,0.37482
3911.49548,0.37612
3909.56674,0.37767
3907.63799,0.37932
3905.70925,0.38086
3903.78050,0.38245
3901.85176,0.38411
3899.92301,0.38559
3897.99427,0.38696
3896.06552,0.38834
3894.13678,0.38964
3892.20803,0.39070
3890.27928,0.39146
3888.35054,0.39189
3886.42179,0.39209
3884.49305,0.39234
3882.56430,0.39294
3880.63556,0.39384
3878.70681,0.39478
3876.77807,0.39567
3874.84932,0.39658
3872.92058,0.39746
3870.99183,0.39823
3869.06309,0.39892
3867.13434,0.39943
3865.20560,0.39957
3863.27685,0.39963
3861.34811,0.39992
3859.41936,0.40015
3857.49061,0.40019
3855.56187,0.40028
3853.63312,0.40045
3851.70438,0.40068
3849.77563,0.40109
3847.84689,0.40129
3845.91814,0.40099
3843.98940,0.40058
3842.06065,0.40067
3840.13191,0.40134
3838.20316,0.40205
3836.27442,0.40216
3834.34567,0.40195
3832.41693,0.40209
3830.48818,0.40252
3828.55943,0.40291
3826.63069,0.40328
3824.70194,0.40366
3822.77320,0.40345
3820.84445,0.40224
3818.91571,0.40082
3816.98696,0.39969
3815.05822,0.39859
3813.12947,0.39760
3811.20073,0.39675
3809.27198,0.39614
3807.34324,0.39597
3805.41449,0.39630
3803.48575,0.39705
3801.55700,0.39822
3799.62826,0.39958
3797.69951,0.40111
3795.77076,0.40269
3793.84202,0.40381
3791.91327,0.40474
3789.98453,0.40596
3788.05578,0.40715
3786.12704,0.40785
3784.19829,0.40810
3782.26955,0.40822
3780.34080,0.40817
3778.41206,0.40780
3776.48331,0.40705
3774.55457,0.40601
3772.62582,0.40490
3770.69708,0.40377
3768.76833,0.40249
3766.83959,0.40098
3764.91084,0.39935
3762.98209,0.39781
3761.05335,0.39640
3759.12460,0.39527
3757.19586,0.39499
3755.26711,0.39594
3753.33837,0.39826
3751.40962,0.40172
3749.48088,0.40511
3747.55213,0.40757
3745.62339,0.40929
3743.69464,0.41039
3741.76590,0.41078
3739.83715,0.41056
3737.90841,0.40972
3735.97966,0.40808
3734.05091,0.40602
3732.12217,0.40476
3730.19342,0.40502
3728.26468,0.40644
3726.33593,0.40840
3724.40719,0.41032
3722.47844,0.41207
3720.54970,0.41351
3718.62095,0.41410
3716.69221,0.41384
3714.76346,0.41297
3712.83472,0.41167
3710.90597,0.41007
3708.97723,0.40787
3707.04848,0.40513
3705.11974,0.40219
3703.19099,0.39869
3701.26224,0.39426
3699.33350,0.38953
3697.40475,0.38465
3695.47601,0.37897
3693.54726,0.37236
3691.61852,0.36491
3689.68977,0.35650
3687.76103,0.34838
3685.83228,0.34310
3683.90354,0.34095
3681.97479,0.34108
3680.04605,0.34273
3678.11730,0.34483
3676.18856,0.34691
3674.25981,0.34836
3672.33107,0.34823
3670.40232,0.34654
3668.47357,0.34394
3666.54483,0.34119
3664.61608,0.33817
3662.68734,0.33477
3660.75859,0.33126
3658.82985,0.32755
3656.90110,0.32315
3654.97236,0.31857
3653.04361,0.31505
3651.11487,0.31198
3649.18612,0.30798
3647.25738,0.30364
3645.32863,0.29983
3643.39989,0.29633
3641.47114,0.29309
3639.54239,0.29035
3637.61365,0.28803
3635.68490,0.28576
3633.75616,0.28332
3631.82741,0.28089
3629.89867,0.27872
3627.96992,0.27677
3626.04118,0.27482
3624.11243,0.27279
3622.18369,0.27081
3620.25494,0.26878
3618.32620,0.26663
3616.39745,0.26457
3614.46871,0.26240
3612.53996,0.26002
3610.61122,0.25779
3608.68247,0.25593
3606.75372,0.25427
3604.82498,0.25238
3602.89623,0.25013
3600.96749,0.24784
3599.03874,0.24579
3597.11000,0.24367
3595.18125,0.24108
3593.25251,0.23824
3591.32376,0.23560
3589.39502,0.23289
3587.46627,0.22974
3585.53753,0.22637
3583.60878,0.22302
3581.68004,0.21966
3579.75129,0.21626
3577.82254,0.21281
3575.89380,0.20938
3573.96505,0.20615
3572.03631,0.20314
3570.10756,0.20028
3568.17882,0.19750
3566.25007,0.19486
3564.32133,0.19271
3562.39258,0.19078
3560.46384,0.18849
3558.53509,0.18591
3556.60635,0.18368
3554.67760,0.18212
3552.74886,0.18083
3550.82011,0.17956
3548.89137,0.17860
3546.96262,0.17790
3545.03387,0.17716
3543.10513,0.17638
3541.17638,0.17564
3539.24764,0.17493
3537.31889,0.17427
3535.39015,0.17390
3533.46140,0.17414
3531.53266,0.17447
3529.60391,0.17416
3527.67517,0.17352
3525.74642,0.17321
3523.81768,0.17329
3521.88893,0.17349
3519.96019,0.17387
3518.03144,0.17433
3516.10270,0.17453
3514.17395,0.17437
3512.24520,0.17408
3510.31646,0.17390
3508.38771,0.17397
3506.45897,0.17419
3504.53022,0.17430
3502.60148,0.17441
3500.67273,0.17467
3498.74399,0.17470
3496.81524,0.17454
3494.88650,0.17442
3492.95775,0.17423
3491.02901,0.17393
3489.10026,0.17368
3487.17152,0.17336
3485.24277,0.17271
3483.31402,0.17189
3481.38528,0.17128
3479.45653,0.17070
3477.52779,0.16970
3475.59904,0.16821
3473.67030,0.16652
3471.74155,0.16505
3469.81281,0.16375
3467.88406,0.16196
3465.95532,0.15970
3464.02657,0.15741
3462.09783,0.15489
3460.16908,0.15191
3458.24034,0.14899
3456.31159,0.14650
3454.38285,0.14384
3452.45410,0.14059
3450.52535,0.13708
3448.59661,0.13359
3446.66786,0.13027
3444.73912,0.12727
3442.81037,0.12463
3440.88163,0.12215
3438.95288,0.11946
3437.02414,0.11644
3435.09539,0.11364
3433.16665,0.11195
3431.23790,0.11165
3429.30916,0.11235
3427.38041,0.11377
3425.45167,0.11605
3423.52292,0.11941
3421.59418,0.12344
3419.66543,0.12733
3417.73668,0.13069
3415.80794,0.13372
3413.87919,0.13668
3411.95045,0.13959
3410.02170,0.14233
3408.09296,0.14460
3406.16421,0.14651
3404.23547,0.14854
3402.30672,0.15046
3400.37798,0.15135
3398.44923,0.15120
3396.52049,0.15085
3394.59174,0.15077
3392.66300,0.15073
3390.73425,0.15030
3388.80550,0.14949
3386.87676,0.14866
3384.94801,0.14789
3383.01927,0.14713
3381.09052,0.14627
3379.16178,0.14516
3377.23303,0.14395
3375.30429,0.14270
3373.37554,0.14127
3371.44680,0.13969
3369.51805,0.13815
3367.58931,0.13678
3365.66056,0.13575
3363.73182,0.13496
3361.80307,0.13386
3359.87433,0.13235
3357.94558,0.13093
3356.01683,0.12939
3354.08809,0.12758
3352.15934,0.12593
3350.23060,0.12457
3348.30185,0.12347
3346.37311,0.12255
3344.44436,0.12154
3342.51562,0.12050
3340.58687,0.11968
3338.65813,0.11890
3336.72938,0.11792
3334.80064,0.11714
3332.87189,0.11706
3330.94315,0.11754
3329.01440,0.11809
3327.08566,0.11852
3325.15691,0.11902
3323.22816,0.11966
3321.29942,0.12023
3319.37067,0.12057
3317.44193,0.12093
3315.51318,0.12132
3313.58444,0.12140
3311.65569,0.12112
3309.72695,0.12073
3307.79820,0.12034
3305.86946,0.12016
3303.94071,0.12030
3302.01197,0.12059
3300.08322,0.12095
3298.15448,0.12126
3296.22573,0.12145
3294.29698,0.12185
3292.36824,0.12240
3290.43949,0.12278
3288.51075,0.12319
3286.58200,0.12366
3284.65326,0.12374
3282.72451,0.12369
3280.79577,0.12407
3278.86702,0.12460
3276.93828,0.12494
3275.00953,0.12532
3273.08079,0.12567
3271.15204,0.12574
3269.22330,0.12570
3267.29455,0.12596
3265.36581,0.12640
3263.43706,0.12649
3261.50831,0.12644
3259.57957,0.12668
3257.65082,0.12693
3255.72208,0.12723
3253.79333,0.12810
3251.86459,0.12930
3249.93584,0.12998
3248.00710,0.12994
3246.07835,0.12984
3244.14961,0.13001
3242.22086,0.13040
3240.29212,0.13099
3238.36337,0.13166
3236.43463,0.13222
3234.50588,0.13261
3232.57713,0.13289
3230.64839,0.13341
3228.71964,0.13432
3226.79090,0.13526
3224.86215,0.13604
3222.93341,0.13655
3221.00466,0.13692
3219.07592,0.13764
3217.14717,0.13845
3215.21843,0.13887
3213.28968,0.13913
3211.36094,0.13955
3209.43219,0.14010
3207.50345,0.14052
3205.57470,0.14060
3203.64596,0.14041
3201.71721,0.14025
3199.78846,0.14030
3197.85972,0.14043
3195.93097,0.14067
3194.00223,0.14104
3192.07348,0.14140
3190.14474,0.14187
3188.21599,0.14250
3186.28725,0.14297
3184.35850,0.14325
3182.42976,0.14387
3180.50101,0.14492
3178.57227,0.14603
3176.64352,0.14696
3174.71478,0.14769
3172.78603,0.14823
3170.85729,0.14859
3168.92854,0.14897
3166.99979,0.14982
3165.07105,0.15102
3163.14230,0.15190
3161.21356,0.15204
3159.28481,0.15182
3157.35607,0.15163
3155.42732,0.15156
3153.49858,0.15172
3151.56983,0.15175
3149.64109,0.15117
3147.71234,0.15043
3145.78360,0.14984
3143.85485,0.14911
3141.92611,0.14821
3139.99736,0.14717
3138.06861,0.14577
3136.13987,0.14399
3134.21112,0.14207
3132.28238,0.14019
3130.35363,0.13830
3128.42489,0.13656
3126.49614,0.13542
3124.56740,0.13501
3122.63865,0.13500
3120.70991,0.13493
3118.78116,0.13426
3116.85242,0.13247
3114.92367,0.12955
3112.99493,0.12614
3111.06618,0.12279
3109.13744,0.11959
3107.20869,0.11653
3105.27994,0.11393
3103.35120,0.11236
3101.42245,0.11192
3099.49371,0.11220
3097.56496,0.11281
3095.63622,0.11326
3093.70747,0.11313
3091.77873,0.11217
3089.84998,0.11030
3087.92124,0.10783
3085.99249,0.10519
3084.06375,0.10283
3082.13500,0.10124
3080.20626,0.10069
3078.27751,0.10085
3076.34877,0.10113
3074.42002,0.10118
3072.49127,0.10084
3070.56253,0.10028
3068.63378,0.10002
3066.70504,0.10029
3064.77629,0.10085
3062.84755,0.10138
3060.91880,0.10156
3058.99006,0.10087
3057.06131,0.09937
3055.13257,0.09842
3053.20382,0.09958
3051.27508,0.10326
3049.34633,0.10875
3047.41759,0.11498
3045.48884,0.12111
3043.56009,0.12635
3041.63135,0.13006
3039.70260,0.13219
3037.77386,0.13321
3035.84511,0.13349
3033.91637,0.13314
3031.98762,0.13216
3030.05888,0.13074
3028.13013,0.12893
3026.20139,0.12630
3024.27264,0.12279
3022.34390,0.11888
3020.41515,0.11464
3018.48641,0.10998
3016.55766,0.10554
3014.62892,0.10187
3012.70017,0.09905
3010.77142,0.09693
3008.84268,0.09521
3006.91393,0.09354
3004.98519,0.09190
3003.05644,0.09026
3001.12770,0.08833
2999.19895,0.08621
2997.27021,0.08407
2995.34146,0.08172
2993.41272,0.07913
2991.48397,0.07641
2989.55523,0.07351
2987.62648,0.07046
2985.69774,0.06737
2983.76899,0.06433
2981.84025,0.06116
2979.91150,0.05770
2977.98275,0.05422
2976.05401,0.05116
2974.12526,0.04854
2972.19652,0.04637
2970.26777,0.04493
2968.33903,0.04412
2966.41028,0.04359
2964.48154,0.04344
2962.55279,0.04383
2960.62405,0.04445
2958.69530,0.04492
2956.76656,0.04546
2954.83781,0.04638
2952.90907,0.04749
2950.98032,0.04880
2949.05157,0.05058
2947.12283,0.05277
2945.19408,0.05526
2943.26534,0.05794
2941.33659,0.06063
2939.40785,0.06317
2937.47910,0.06545
2935.55036,0.06734
2933.62161,0.06863
2931.69287,0.06937
2929.76412,0.06983
2927.83538,0.06998
2925.90663,0.06964
2923.97789,0.06881
2922.04914,0.06758
2920.12040,0.06614
2918.19165,0.06483
2916.26290,0.06370
2914.33416,0.06240
2912.40541,0.06074
2910.47667,0.05920
2908.54792,0.05856
2906.61918,0.05917
2904.69043,0.06087
2902.76169,0.06328
2900.83294,0.06568
2898.90420,0.06751
2896.97545,0.06889
2895.04671,0.06992
2893.11796,0.07046
2891.18922,0.07079
2889.26047,0.07128
2887.33172,0.07194
2885.40298,0.07269
2883.47423,0.07346
2881.54549,0.07429
2879.61674,0.07528
2877.68800,0.07631
2875.75925,0.07711
2873.83051,0.07776
2871.90176,0.07852
2869.97302,0.07924
2868.04427,0.07965
2866.11553,0.07990
2864.18678,0.08047
2862.25804,0.08137
2860.32929,0.08221
2858.40055,0.08294
2856.47180,0.08382
2854.54305,0.08501
2852.61431,0.08667
2850.68556,0.08912
2848.75682,0.09278
2846.82807,0.09781
2844.89933,0.10348
2842.97058,0.10900
2841.04184,0.11430
2839.11309,0.11933
2837.18435,0.12383
2835.25560,0.12777
2833.32686,0.13129
2831.39811,0.13434
2829.46937,0.13699
2827.54062,0.13958
2825.61188,0.14223
2823.68313,0.14462
2821.75438,0.14662
2819.82564,0.14844
2817.89689,0.15007
2815.96815,0.15134
2814.03940,0.15240
2812.11066,0.15343
2810.18191,0.15443
2808.25317,0.15542
2806.32442,0.15651
2804.39568,0.15798
2802.46693,0.15999
2800.53819,0.16235
2798.60944,0.16483
2796.68070,0.16747
2794.75195,0.17031
2792.82320,0.17316
2790.89446,0.17576
2788.96571,0.17818
2787.03697,0.18052
2785.10822,0.18273
2783.17948,0.18476
2781.25073,0.18670
2779.32199,0.18857
2777.39324,0.19030
2775.46450,0.19189
2773.53575,0.19323
2771.60701,0.19422
2769.67826,0.19503
2767.74952,0.19583
2765.82077,0.19655
2763.89203,0.19728
2761.96328,0.19801
2760.03453,0.19859
2758.10579,0.19908
2756.17704,0.19958
2754.24830,0.20012
2752.31955,0.20071
2750.39081,0.20128
2748.46206,0.20188
2746.53332,0.20245
2744.60457,0.20303
2742.67583,0.20399
2740.74708,0.20542
2738.81834,0.20700
2736.88959,0.20863
2734.96085,0.21058
2733.03210,0.21299
2731.10336,0.21549
2729.17461,0.21765
2727.24586,0.21957
2725.31712,0.22157
2723.38837,0.22374
2721.45963,0.22595
2719.53088,0.22816
2717.60214,0.23022
2715.67339,0.23191
2713.74465,0.23332
2711.81590,0.23475
2709.88716,0.23639
2707.95841,0.23821
2706.02967,0.23994
2704.10092,0.24130
2702.17218,0.24237
2700.24343,0.24337
2698.31468,0.24426
2696.38594,0.24501
2694.45719,0.24582
2692.52845,0.24663
2690.59970,0.24722
2688.67096,0.24776
2686.74221,0.24841
2684.81347,0.24900
2682.88472,0.24943
2680.95598,0.24984
2679.02723,0.25040
2677.09849,0.25125
2675.16974,0.25228
2673.24100,0.25329
2671.31225,0.25428
2669.38351,0.25526
2667.45476,0.25596
2665.52601,0.25617
2663.59727,0.25615
2661.66852,0.25624
2659.73978,0.25643
2657.81103,0.25664
2655.88229,0.25683
2653.95354,0.25692
2652.02480,0.25692
2650.09605,0.25682
2648.16731,0.25645
2646.23856,0.25584
2644.30982,0.25516
2642.38107,0.25420
2640.45233,0.25262
2638.52358,0.25044
2636.59484,0.24796
2634.66609,0.24568
2632.73734,0.24401
2630.80860,0.24309
2628.87985,0.24280
2626.95111,0.24313
2625.02236,0.24398
2623.09362,0.24500
2621.16487,0.24594
2619.23613,0.24672
2617.30738,0.24731
2615.37864,0.24762
2613.44989,0.24767
2611.52115,0.24759
2609.59240,0.24744
2607.66366,0.24729
2605.73491,0.24709
2603.80616,0.24664
2601.87742,0.24590
2599.94867,0.24490
2598.01993,0.24376
2596.09118,0.24253
2594.16244,0.24112
2592.23369,0.23973
2590.30495,0.23844
2588.37620,0.23700
2586.44746,0.23567
2584.51871,0.23482
2582.58997,0.23447
2580.66122,0.23462
2578.73248,0.23529
2576.80373,0.23626
2574.87499,0.23735
2572.94624,0.23831
2571.01749,0.23888
2569.08875,0.23909
2567.16000,0.23923
2565.23126,0.23946
2563.30251,0.23971
2561.37377,0.23992
2559.44502,0.24013
2557.51628,0.24033
2555.58753,0.24043
2553.65879,0.24033
2551.73004,0.24019
2549.80130,0.24019
2547.87255,0.24033
2545.94381,0.24046
2544.01506,0.24049
2542.08631,0.24046
2540.15757,0.24041
2538.22882,0.24041
2536.30008,0.24066
2534.37133,0.24129
2532.44259,0.24198
2530.51384,0.24254
2528.58510,0.24330
2526.65635,0.24459
2524.72761,0.24626
2522.79886,0.24791
2520.87012,0.24942
2518.94137,0.25088
2517.01263,0.25225
2515.08388,0.25356
2513.15514,0.25477
2511.22639,0.25581
2509.29764,0.25687
2507.36890,0.25798
2505.44015,0.25900
2503.51141,0.25986
2501.58266,0.26071
2499.65392,0.26169
2497.72517,0.26286
2495.79643,0.26423
2493.86768,0.26576
2491.93894,0.26740
2490.01019,0.26914
2488.08145,0.27097
2486.15270,0.27286
2484.22396,0.27479
2482.29521,0.27676
2480.36647,0.27876
2478.43772,0.28069
2476.50897,0.28260
2474.58023,0.28455
2472.65148,0.28656
2470.72274,0.28856
2468.79399,0.29044
2466.86525,0.29214
2464.93650,0.29367
2463.00776,0.29486
2461.07901,0.29563
2459.15027,0.29626
2457.22152,0.29698
2455.29278,0.29757
2453.36403,0.29782
2451.43529,0.29794
2449.50654,0.29802
2447.57779,0.29778
2445.64905,0.29703
2443.72030,0.29588
2441.79156,0.29453
2439.86281,0.29297
2437.93407,0.29100
2436.00532,0.28866
2434.07658,0.28636
2432.14783,0.28416
2430.21909,0.28179
2428.29034,0.27925
2426.36160,0.27668
2424.43285,0.27402
2422.50411,0.27116
2420.57536,0.26828
2418.64662,0.26569
2416.71787,0.26348
2414.78912,0.26156
2412.86038,0.25977
2410.93163,0.25798
2409.00289,0.25606
2407.07414,0.25401
2405.14540,0.25195
2403.21665,0.25000
2401.28791,0.24825
2399.35916,0.24673
2397.43042,0.24548
2395.50167,0.24454
2393.57293,0.24376
2391.64418,0.24306
2389.71544,0.24257
2387.78669,0.24234
2385.85795,0.24229
2383.92920,0.24264
2382.00045,0.24356
2380.07171,0.24476
2378.14296,0.24607
2376.21422,0.24751
2374.28547,0.24914
2372.35673,0.25100
2370.42798,0.25314
2368.49924,0.25558
2366.57049,0.25837
2364.64175,0.26140
2362.71300,0.26439
2360.78426,0.26753
2358.85551,0.27097
2356.92677,0.27435
2354.99802,0.27739
2353.06927,0.28013
2351.14053,0.28264
2349.21178,0.28487
2347.28304,0.28687
2345.35429,0.28882
2343.42555,0.29066
2341.49680,0.29215
2339.56806,0.29301
2337.63931,0.29328
2335.71057,0.29343
2333.78182,0.29383
2331.85308,0.29427
2329.92433,0.29435
2327.99559,0.29407
2326.06684,0.29396
2324.13810,0.29453
2322.20935,0.29586
2320.28060,0.29770
2318.35186,0.29969
2316.42311,0.30164
2314.49437,0.30333
2312.56562,0.30443
2310.63688,0.30460
2308.70813,0.30372
2306.77939,0.30197
2304.85064,0.29958
2302.92190,0.29667
2300.99315,0.29333
2299.06441,0.28950
2297.13566,0.28519
2295.20692,0.28057
2293.27817,0.27600
2291.34943,0.27197
2289.42068,0.26874
2287.49193,0.26635
2285.56319,0.26495
2283.63444,0.26463
2281.70570,0.26520
2279.77695,0.26640
2277.84821,0.26778
2275.91946,0.26884
2273.99072,0.26942
2272.06197,0.26949
2270.13323,0.26887
2268.20448,0.26768
2266.27574,0.26621
2264.34699,0.26435
2262.41825,0.26180
2260.48950,0.25855
2258.56075,0.25450
2256.63201,0.24938
2254.70326,0.24311
2252.77452,0.23588
2250.84577,0.22817
2248.91703,0.22090
2246.98828,0.21519
2245.05954,0.21175
2243.13079,0.21103
2241.20205,0.21342
2239.27330,0.21950
2237.34456,0.22974
2235.41581,0.24335
2233.48707,0.25770
2231.55832,0.26993
2229.62958,0.27864
2227.70083,0.28424
2225.77208,0.28771
2223.84334,0.28968
2221.91459,0.29075
2219.98585,0.29136
2218.05710,0.29175
2216.12836,0.29225
2214.19961,0.29304
2212.27087,0.29395
2210.34212,0.29509
2208.41338,0.29678
2206.48463,0.29900
2204.55589,0.30127
2202.62714,0.30321
2200.69840,0.30466
2198.76965,0.30543
2196.84090,0.30534
2194.91216,0.30468
2192.98341,0.30388
2191.05467,0.30312
2189.12592,0.30257
2187.19718,0.30233
2185.26843,0.30213
2183.33969,0.30152
2181.41094,0.30039
2179.48220,0.29898
2177.55345,0.29747
2175.62471,0.29572
2173.69596,0.29357
2171.76722,0.29099
2169.83847,0.28808
2167.90973,0.28493
2165.98098,0.28151
2164.05223,0.27778
2162.12349,0.27388
2160.19474,0.27003
2158.26600,0.26635
2156.33725,0.26296
2154.40851,0.25988
2152.47976,0.25703
2150.55102,0.25445
2148.62227,0.25213
2146.69353,0.25000
2144.76478,0.24810
2142.83604,0.24655
2140.90729,0.24531
2138.97855,0.24430
2137.04980,0.24329
2135.12106,0.24197
2133.19231,0.24033
2131.26356,0.23859
2129.33482,0.23679
2127.40607,0.23496
2125.47733,0.23318
2123.54858,0.23140
2121.61984,0.22957
2119.69109,0.22794
2117.76235,0.22678
2115.83360,0.22601
2113.90486,0.22536
2111.97611,0.22482
2110.04737,0.22461
2108.11862,0.22475
2106.18988,0.22511
2104.26113,0.22555
2102.33238,0.22604
2100.40364,0.22664
2098.47489,0.22733
2096.54615,0.22822
2094.61740,0.22949
2092.68866,0.23100
2090.75991,0.23262
2088.83117,0.23445
2086.90242,0.23657
2084.97368,0.23906
2083.04493,0.24187
2081.11619,0.24480
2079.18744,0.24786
2077.25870,0.25113
2075.32995,0.25456
2073.40121,0.25810
2071.47246,0.26181
2069.54371,0.26563
2067.61497,0.26941
2065.68622,0.27316
2063.75748,0.27688
2061.82873,0.28049
2059.89999,0.28394
2057.97124,0.28727
2056.04250,0.29051
2054.11375,0.29358
2052.18501,0.29639
2050.25626,0.29877
2048.32752,0.30048
2046.39877,0.30166
2044.47003,0.30259
2042.54128,0.30317
2040.61254,0.30341
2038.68379,0.30350
2036.75504,0.30324
2034.82630,0.30247
2032.89755,0.30146
2030.96881,0.30032
2029.04006,0.29874
2027.11132,0.29667
2025.18257,0.29435
2023.25383,0.29194
2021.32508,0.28938
2019.39634,0.28664
2017.46759,0.28373
2015.53885,0.28091
2013.61010,0.27836
2011.68136,0.27590
2009.75261,0.27323
2007.82386,0.27020
2005.89512,0.26676
2003.96637,0.26302
2002.03763,0.25914
2000.10888,0.25524
1998.18014,0.25137
1996.25139,0.24754
1994.32265,0.24366
1992.39390,0.23979
1990.46516,0.23610
1988.53641,0.23258
1986.60767,0.22925
1984.67892,0.22632
1982.75018,0.22366
1980.82143,0.22085
1978.89269,0.21765
1976.96394,0.21410
1975.03519,0.21022
1973.10645,0.20578
1971.17770,0.20062
1969.24896,0.19487
1967.32021,0.18868
1965.39147,0.18226
1963.46272,0.17630
1961.53398,0.17184
1959.60523,0.16938
1957.67649,0.16856
1955.74774,0.16889
1953.81900,0.17014
1951.89025,0.17209
1949.96151,0.17465
1948.03276,0.17791
1946.10402,0.18184
1944.17527,0.18642
1942.24652,0.19155
1940.31778,0.19685
1938.38903,0.20220
1936.46029,0.20762
1934.53154,0.21295
1932.60280,0.21803
1930.67405,0.22269
1928.74531,0.22692
1926.81656,0.23086
1924.88782,0.23445
1922.95907,0.23767
1921.03033,0.24080
1919.10158,0.24396
1917.17284,0.24697
1915.24409,0.24949
1913.31534,0.25171
1911.38660,0.25396
1909.45785,0.25603
1907.52911,0.25782
1905.60036,0.25956
1903.67162,0.26125
1901.74287,0.26270
1899.81413,0.26399
1897.88538,0.26535
1895.95664,0.26680
1894.02789,0.26805
1892.09915,0.26896
1890.17040,0.26979
1888.24166,0.27049
1886.31291,0.27089
1884.38417,0.27104
1882.45542,0.27093
1880.52667,0.27044
1878.59793,0.26959
1876.66918,0.26849
1874.74044,0.26705
1872.81169,0.26512
1870.88295,0.26274
1868.95420,0.25998
1867.02546,0.25686
1865.09671,0.25335
1863.16797,0.24949
1861.23922,0.24519
1859.31048,0.24034
1857.38173,0.23492
1855.45299,0.22894
1853.52424,0.22254
1851.59549,0.21582
1849.66675,0.20899
1847.73800,0.20232
1845.80926,0.19574
1843.88051,0.18902
1841.95177,0.18284
1840.02302,0.17759
1838.09428,0.17271
1836.16553,0.16790
1834.23679,0.16335
1832.30804,0.15929
1830.37930,0.15564
1828.45055,0.15245
1826.52181,0.14986
1824.59306,0.14786
1822.66432,0.14647
1820.73557,0.14555
1818.80682,0.14484
1816.87808,0.14413
1814.94933,0.14339
1813.02059,0.14263
1811.09184,0.14185
1809.16310,0.14105
1807.23435,0.14013
1805.30561,0.13901
1803.37686,0.13779
1801.44812,0.13646
1799.51937,0.13487
1797.59063,0.13313
1795.66188,0.13140
1793.73314,0.12937
1791.80439,0.12680
1789.87565,0.12414
1787.94690,0.12165
1786.01815,0.11904
1784.08941,0.11625
1782.16066,0.11327
1780.23192,0.10993
1778.30317,0.10634
1776.37443,0.10285
1774.44568,0.09924
1772.51694,0.09509
1770.58819,0.09072
1768.65945,0.08648
1766.73070,0.08211
1764.80196,0.07781
1762.87321,0.07335
1760.94447,0.06843
1759.01572,0.06343
1757.08697,0.05828
1755.15823,0.05316
1753.22948,0.04847
1751.30074,0.04379
1749.37199,0.03926
1747.44325,0.03565
1745.51450,0.03311
1743.58576,0.03156
1741.65701,0.03087
1739.72827,0.03079
1737.79952,0.03133
1735.87078,0.03251
1733.94203,0.03424
1732.01329,0.03612
1730.08454,0.03792
1728.15580,0.03971
1726.22705,0.04136
1724.29830,0.04283
1722.36956,0.04407
1720.44081,0.04517
1718.51207,0.04611
1716.58332,0.04641
1714.65458,0.04577
1712.72583,0.04463
1710.79709,0.04354
1708.86834,0.04286
1706.93960,0.04281
1705.01085,0.04326
1703.08211,0.04414
1701.15336,0.04560
1699.22462,0.04737
1697.29587,0.04884
1695.36713,0.05012
1693.43838,0.05118
1691.50963,0.05180
1689.58089,0.05189
1687.65214,0.05149
1685.72340,0.05088
1683.79465,0.05045
1681.86591,0.05076
1679.93716,0.05199
1678.00842,0.05374
1676.07967,0.05552
1674.15093,0.05705
1672.22218,0.05854
1670.29344,0.06054
1668.36469,0.06299
1666.43595,0.06550
1664.50720,0.06824
1662.57845,0.07129
1660.64971,0.07422
1658.72096,0.07670
1656.79222,0.07880
1654.86347,0.08082
1652.93473,0.08291
1651.00598,0.08458
1649.07724,0.08606
1647.14849,0.08776
1645.21975,0.08940
1643.29100,0.09071
1641.36226,0.09176
1639.43351,0.09253
1637.50477,0.09326
1635.57602,0.09411
1633.64728,0.09473
1631.71853,0.09508
1629.78978,0.09534
1627.86104,0.09551
1625.93229,0.09567
1624.00355,0.09558
1622.07480,0.09469
1620.14606,0.09268
1618.21731,0.08923
1616.28857,0.08498
1614.35982,0.08273
1612.43108,0.08357
1610.50233,0.08649
1608.57359,0.09038
1606.64484,0.09445
1604.71610,0.09827
1602.78735,0.10164
1600.85861,0.10444
1598.92986,0.10651
1597.00111,0.10751
1595.07237,0.10712
1593.14362,0.10529
1591.21488,0.10223
1589.28613,0.09789
1587.35739,0.09199
1585.42864,0.08427
1583.49990,0.07503
1581.57115,0.06611
1579.64241,0.06008
1577.71366,0.05850
1575.78492,0.06176
1573.85617,0.06754
1571.92743,0.07326
1569.99868,0.07886
1568.06993,0.08361
1566.14119,0.08688
1564.21244,0.08916
1562.28370,0.09080
1560.35495,0.09217
1558.42621,0.09344
1556.49746,0.09413
1554.56872,0.09454
1552.63997,0.09515
1550.71123,0.09598
1548.78248,0.09692
1546.85374,0.09791
1544.92499,0.09904
1542.99625,0.10012
1541.06750,0.10071
1539.13876,0.10037
1537.21001,0.09932
1535.28126,0.09782
1533.35252,0.09533
1531.42377,0.09219
1529.49503,0.08946
1527.56628,0.08744
1525.63754,0.08613
1523.70879,0.08561
1521.78005,0.08565
1519.85130,0.08552
1517.92256,0.08465
1515.99381,0.08241
1514.06507,0.07803
1512.13632,0.07119
1510.20758,0.06255
1508.27883,0.05326
1506.35008,0.04581
1504.42134,0.04529
1502.49259,0.05144
1500.56385,0.06173
1498.63510,0.07370
1496.70636,0.08426
1494.77761,0.09101
1492.84887,0.09372
1490.92012,0.09331
1488.99138,0.09020
1487.06263,0.08508
1485.13389,0.07894
1483.20514,0.07252
1481.27640,0.06627
1479.34765,0.06051
1477.41891,0.05524
1475.49016,0.05051
1473.56141,0.04685
1471.63267,0.04476
1469.70392,0.04394
1467.77518,0.04332
1465.84643,0.04202
1463.91769,0.03999
1461.98894,0.03812
1460.06020,0.03670
1458.13145,0.03518
1456.20271,0.03373
1454.27396,0.03324
1452.34522,0.03368
1450.41647,0.03460
1448.48773,0.03561
1446.55898,0.03652
1444.63024,0.03736
1442.70149,0.03815
1440.77274,0.03900
1438.84400,0.04031
1436.91525,0.04242
1434.98651,0.04510
1433.05776,0.04796
1431.12902,0.05081
1429.20027,0.05294
1427.27153,0.05369
1425.34278,0.05294
1423.41404,0.05074
1421.48529,0.04728
1419.55655,0.04233
1417.62780,0.03668
1415.69906,0.03241
1413.77031,0.03001
1411.84156,0.02926
1409.91282,0.02983
1407.98407,0.03104
1406.05533,0.03237
1404.12658,0.03383
1402.19784,0.03549
1400.26909,0.03712
1398.34035,0.03853
1396.41160,0.03970
1394.48286,0.04055
1392.55411,0.04085
1390.62537,0.04064
1388.69662,0.04007
1386.76788,0.03911
1384.83913,0.03801
1382.91039,0.03692
1380.98164,0.03574
1379.05289,0.03454
1377.12415,0.03355
1375.19540,0.03265
1373.26666,0.03186
1371.33791,0.03174
1369.40917,0.03239
1367.48042,0.03351
1365.55168,0.03502
1363.62293,0.03678
1361.69419,0.03833
1359.76544,0.03933
1357.83670,0.03971
1355.90795,0.03936
1353.97921,0.03833
1352.05046,0.03697
1350.12172,0.03567
1348.19297,0.03460
1346.26422,0.03388
1344.33548,0.03356
1342.40673,0.03347
1340.47799,0.03346
1338.54924,0.03359
1336.62050,0.03406
1334.69175,0.03497
1332.76301,0.03603
1330.83426,0.03674
1328.90552,0.03671
1326.97677,0.03592
1325.04803,0.03464
1323.11928,0.03332
1321.19054,0.03206
1319.26179,0.03073
1317.33304,0.02949
1315.40430,0.02858
1313.47555,0.02772
1311.54681,0.02679
1309.61806,0.02607
1307.68932,0.02557
1305.76057,0.02514
1303.83183,0.02496
1301.90308,0.02509
1299.97434,0.02540
1298.04559,0.02583
1296.11685,0.02636
1294.18810,0.02698
1292.25936,0.02771
1290.33061,0.02871
1288.40187,0.02991
1286.47312,0.03110
1284.54437,0.03225
1282.61563,0.03353
1280.68688,0.03498
1278.75814,0.03635
1276.82939,0.03759
1274.90065,0.03884
1272.97190,0.04012
1271.04316,0.04141
1269.11441,0.04270
1267.18567,0.04377
1265.25692,0.04440
1263.32818,0.04474
1261.39943,0.04500
1259.47069,0.04508
1257.54194,0.04495
1255.61320,0.04489
1253.68445,0.04515
1251.75570,0.04576
1249.82696,0.04635
1247.89821,0.04663
1245.96947,0.04663
1244.04072,0.04639
1242.11198,0.04586
1240.18323,0.04509
1238.25449,0.04424
1236.32574,0.04365
1234.39700,0.04359
1232.46825,0.04395
1230.53951,0.04451
1228.61076,0.04523
1226.68202,0.04623
1224.75327,0.04749
1222.82452,0.04887
1220.89578,0.05042
1218.96703,0.05212
1217.03829,0.05378
1215.10954,0.05527
1213.18080,0.05665
1211.25205,0.05791
1209.32331,0.05898
1207.39456,0.05981
1205.46582,0.06053
1203.53707,0.06142
1201.60833,0.06271
1199.67958,0.06444
1197.75084,0.06646
1195.82209,0.06833
1193.89335,0.06960
1191.96460,0.07018
1190.03585,0.06999
1188.10711,0.06867
1186.17836,0.06615
1184.24962,0.06276
1182.32087,0.05876
1180.39213,0.05462
1178.46338,0.05133
1176.53464,0.04933
1174.60589,0.04856
1172.67715,0.04900
1170.74840,0.05053
1168.81966,0.05252
1166.89091,0.05392
1164.96217,0.05396
1163.03342,0.05284
1161.10467,0.05118
1159.17593,0.04929
1157.24718,0.04714
1155.31844,0.04461
1153.38969,0.04183
1151.46095,0.03908
1149.53220,0.03658
1147.60346,0.03461
1145.67471,0.03343
1143.74597,0.03276
1141.81722,0.03222
1139.88848,0.03188
1137.95973,0.03221
1136.03099,0.03359
1134.10224,0.03565
1132.17350,0.03764
1130.24475,0.03917
1128.31600,0.04010
1126.38726,0.04062
1124.45851,0.04111
1122.52977,0.04162
1120.60102,0.04180
1118.67228,0.04158
1116.74353,0.04116
1114.81479,0.04094
1112.88604,0.04117
1110.95730,0.04154
1109.02855,0.04182
1107.09981,0.04224
1105.17106,0.04282
1103.24232,0.04344
1101.31357,0.04418
1099.38483,0.04501
1097.45608,0.04559
1095.52733,0.04576
1093.59859,0.04568
1091.66984,0.04564
1089.74110,0.04577
1087.81235,0.04595
1085.88361,0.04631
1083.95486,0.04715
1082.02612,0.04867
1080.09737,0.05090
1078.16863,0.05386
1076.23988,0.05756
1074.31114,0.06161
1072.38239,0.06520
1070.45365,0.06811
1068.52490,0.07074
1066.59615,0.07326
1064.66741,0.07552
1062.73866,0.07720
1060.80992,0.07774
1058.88117,0.07682
1056.95243,0.07452
1055.02368,0.07125
1053.09494,0.06783
1051.16619,0.06460
1049.23745,0.06161
1047.30870,0.05927
1045.37996,0.05777
1043.45121,0.05697
1041.52247,0.05687
1039.59372,0.05746
1037.66498,0.05846
1035.73623,0.05922
1033.80748,0.05918
1031.87874,0.05844
1029.94999,0.05713
1028.02125,0.05511
1026.09250,0.05273
1024.16376,0.05050
1022.23501,0.04867
1020.30627,0.04789
1018.37752,0.04878
1016.44878,0.05168
1014.52003,0.05769
1012.59129,0.06769
1010.66254,0.08047
1008.73380,0.09346
1006.80505,0.10465
1004.87631,0.11297
1002.94756,0.11822
1001.01881,0.12124
999.09007,0.12315
997.16132,0.12446
995.23258,0.12488
993.30383,0.12345
991.37509,0.11977
989.44634,0.11520
987.51760,0.11143
985.58885,0.10844
983.66011,0.10489
981.73136,0.09983
979.80262,0.09367
977.87387,0.08757
975.94513,0.08276
974.01638,0.08012
972.08763,0.07990
970.15889,0.08227
968.23014,0.08738
966.30140,0.09459
964.37265,0.10269
962.44391,0.11090
960.51516,0.11894
958.58642,0.12663
956.65767,0.13346
954.72893,0.13881
952.80018,0.14282
950.87144,0.14584
948.94269,0.14779
947.01395,0.14871
945.08520,0.14854
943.15646,0.14698
941.22771,0.14421
939.29896,0.14094
937.37022,0.13817
935.44147,0.13705
933.51273,0.13814
931.58398,0.14088
929.65524,0.14437
927.72649,0.14793
925.79775,0.15097
923.86900,0.15296
921.94026,0.15355
920.01151,0.15254
918.08277,0.14989
916.15402,0.14561
914.22528,0.13960
912.29653,0.13182
910.36779,0.12262
908.43904,0.11291
906.51029,0.10398
904.58155,0.09693
902.65280,0.09205
900.72406,0.08901
898.79531,0.08775
896.86657,0.08804
894.93782,0.08891
893.00908,0.08956
891.08033,0.08977
889.15159,0.08907
887.22284,0.08683
885.29410,0.08286
883.36535,0.07763
881.43661,0.07224
879.50786,0.06745
877.57911,0.06332
875.65037,0.06010
873.72162,0.05903
871.79288,0.06188
869.86413,0.06874
867.93539,0.07741
866.00664,0.08525
864.07790,0.09040
862.14915,0.09221
860.22041,0.09133
858.29166,0.08904
856.36292,0.08615
854.43417,0.08297
852.50543,0.07981
850.57668,0.07732
848.64794,0.07618
846.71919,0.07660
844.79044,0.07849
842.86170,0.08171
840.93295,0.08612
839.00421,0.09128
837.07546,0.09634
835.14672,0.10129
833.21797,0.10662
831.28923,0.11185
829.36048,0.11641
827.43174,0.12022
825.50299,0.12292
823.57425,0.12449
821.64550,0.12534
819.71676,0.12527
817.78801,0.12428
815.85926,0.12279
813.93052,0.12112
812.00177,0.11955
810.07303,0.11853
808.14428,0.11786
806.21554,0.11677
804.28679,0.11536
802.35805,0.11393
800.42930,0.11125
798.50056,0.10535
796.57181,0.09623
794.64307,0.08814
792.71432,0.08659
790.78558,0.09246
788.85683,0.10193
786.92809,0.11139
784.99934,0.11946
783.07059,0.12570
781.14185,0.12987
779.21310,0.13231
777.28436,0.13392
775.35561,0.13539
773.42687,0.13712
771.49812,0.13887
769.56938,0.13984
767.64063,0.13995
765.71189,0.13952
763.78314,0.13828
761.85440,0.13596
759.92565,0.13267
757.99691,0.12851
756.06816,0.12389
754.13942,0.11928
752.21067,0.11419
750.28192,0.10764
748.35318,0.09914
746.42443,0.08852
744.49569,0.07580
742.56694,0.06217
740.63820,0.04981
738.70945,0.04047
736.78071,0.03473
734.85196,0.03240
732.92322,0.03262
730.99447,0.03425
729.06573,0.03682
727.13698,0.04001
725.20824,0.04317
723.27949,0.04701
721.35074,0.05328
719.42200,0.06244
717.49325,0.07303
715.56451,0.08254
713.63576,0.08932
711.70702,0.09350
709.77827,0.09611
707.84953,0.09849
705.92078,0.10165
703.99204,0.10600
702.06329,0.11217
700.13455,0.12078
698.20580,0.13042
696.27706,0.13809
694.34831,0.14221
692.41957,0.14395
690.49082,0.14490
688.56207,0.14510
686.63333,0.14394
684.70458,0.14117
682.77584,0.13765
680.84709,0.13560
678.91835,0.13668
676.98960,0.14050
675.06086,0.14545
673.13211,0.15004
671.20337,0.15371
669.27462,0.15675
667.34588,0.15990
665.41713,0.16332
663.48839,0.16608
661.55964,0.16770
659.63090,0.16919
657.70215,0.17114
655.77340,0.17271
653.84466,0.17340
651.91591,0.17358
649.98717,0.17386
648.05842,0.17501
646.12968,0.17696
644.20093,0.17811
642.27219,0.17776
640.34344,0.17651
638.41470,0.17337
636.48595,0.16572
634.55721,0.15335
632.62846,0.14348
630.69972,0.14493
628.77097,0.15487
626.84222,0.16429
624.91348,0.17038
622.98473,0.17435
621.05599,0.17681
619.12724,0.17850
617.19850,0.17980
615.26975,0.18057
613.34101,0.18088
611.41226,0.18094
609.48352,0.18089
607.55477,0.18077
605.62603,0.18019
603.69728,0.17935
601.76854,0.17925
599.83979,0.17918
