7497.03301,0.83009
7495.10426,0.82454
7493.17552,0.82888
7491.24677,0.84013
7489.31803,0.84861
7487.38928,0.84569
7485.46054,0.83506
7483.53179,0.82732
7481.60305,0.82506
7479.67430,0.82421
7477.74556,0.82310
7475.81681,0.82457
7473.88807,0.82917
7471.95932,0.83098
7470.03057,0.82843
7468.10183,0.82742
7466.17308,0.83050
7464.24434,0.83316
7462.31559,0.83011
7460.38685,0.82281
7458.45810,0.81622
7456.52936,0.81293
7454.60061,0.81271
7452.67187,0.81234
7450.74312,0.80973
7448.81438,0.80632
7446.88563,0.80538
7444.95689,0.80850
7443.02814,0.81289
7441.09940,0.81659
7439.17065,0.81894
7437.24190,0.81755
7435.31316,0.81413
7433.38441,0.81387
7431.45567,0.81575
7429.52692,0.81470
7427.59818,0.81321
7425.66943,0.81460
7423.74069,0.81359
7421.81194,0.80978
7419.88320,0.80858
7417.95445,0.80791
7416.02571,0.80565
7414.09696,0.80415
7412.16822,0.80259
7410.23947,0.80027
7408.31073,0.79908
7406.38198,0.79882
7404.45323,0.79565
7402.52449,0.78856
7400.59574,0.78487
7398.66700,0.78867
7396.73825,0.79307
7394.80951,0.79325
7392.88076,0.79299
7390.95202,0.79549
7389.02327,0.79789
7387.09453,0.79683
7385.16578,0.79386
7383.23704,0.79141
7381.30829,0.79067
7379.37955,0.79337
7377.45080,0.79533
7375.52205,0.78979
7373.59331,0.78327
7371.66456,0.78432
7369.73582,0.78737
7367.80707,0.78807
7365.87833,0.78915
7363.94958,0.78895
7362.02084,0.78607
7360.09209,0.78266
7358.16335,0.78075
7356.23460,0.78306
7354.30586,0.78851
7352.37711,0.79034
7350.44837,0.78511
7348.51962,0.77711
7346.59088,0.77346
7344.66213,0.77664
7342.73338,0.78088
7340.80464,0.78155
7338.87589,0.78243
7336.94715,0.78437
7335.01840,0.78239
7333.08966,0.77582
7331.16091,0.76880
7329.23217,0.76395
7327.30342,0.76202
7325.37468,0.76463
7323.44593,0.76896
7321.51719,0.76980
7319.58844,0.76846
7317.65970,0.76899
7315.73095,0.77197
7313.80221,0.77426
7311.87346,0.77289
7309.94471,0.77018
7308.01597,0.77033
7306.08722,0.77224
7304.15848,0.77231
7302.22973,0.77180
7300.30099,0.77317
7298.37224,0.77423
7296.44350,0.77175
7294.51475,0.76879
7292.58601,0.77027
7290.65726,0.77272
7288.72852,0.77163
7286.79977,0.76964
7284.87103,0.76902
7282.94228,0.76858
7281.01353,0.76698
7279.08479,0.76456
7277.15604,0.76535
7275.22730,0.77061
7273.29855,0.77315
7271.36981,0.77002
7269.44106,0.76776
7267.51232,0.76844
7265.58357,0.76924
7263.65483,0.76996
7261.72608,0.76949
7259.79734,0.76682
7257.86859,0.76450
7255.93985,0.76164
7254.01110,0.75632
7252.08236,0.75362
7250.15361,0.75605
7248.22486,0.75818
7246.29612,0.75792
7244.36737,0.75853
7242.43863,0.76121
7240.50988,0.76500
7238.58114,0.76755
7236.65239,0.76576
7234.72365,0.76066
7232.79490,0.75856
7230.86616,0.76417
7228.93741,0.77107
7227.00867,0.77011
7225.07992,0.76451
7223.15118,0.76250
7221.22243,0.76386
7219.29369,0.76263
7217.36494,0.75885
7215.43619,0.75720
7213.50745,0.75659
7211.57870,0.75498
7209.64996,0.75517
7207.72121,0.75661
7205.79247,0.75618
7203.86372,0.75600
7201.93498,0.75751
7200.00623,0.75803
7198.07749,0.75588
7196.14874,0.75073
7194.22000,0.74683
7192.29125,0.74887
7190.36251,0.75308
7188.43376,0.75555
7186.50501,0.75664
7184.57627,0.75529
7182.64752,0.75192
7180.71878,0.74875
7178.79003,0.74466
7176.86129,0.74004
7174.93254,0.73951
7173.00380,0.74373
7171.07505,0.74789
7169.14631,0.74727
7167.21756,0.74098
7165.28882,0.73433
7163.36007,0.73306
7161.43133,0.73563
7159.50258,0.73667
7157.57384,0.73474
7155.64509,0.73148
7153.71634,0.72784
7151.78760,0.72609
7149.85885,0.72808
7147.93011,0.73157
7146.00136,0.73315
7144.07262,0.73148
7142.14387,0.72944
7140.21513,0.72983
7138.28638,0.73084
7136.35764,0.73086
7134.42889,0.72934
7132.50015,0.72677
7130.57140,0.72579
7128.64266,0.72735
7126.71391,0.72812
7124.78516,0.72359
7122.85642,0.71652
7120.92767,0.71292
7118.99893,0.71065
7117.07018,0.70657
7115.14144,0.70420
7113.21269,0.70491
7111.28395,0.70486
7109.35520,0.70396
7107.42646,0.70547
7105.49771,0.70642
7103.56897,0.70279
7101.64022,0.69841
7099.71148,0.69673
7097.78273,0.69618
7095.85399,0.69535
7093.92524,0.69345
7091.99649,0.69115
7090.06775,0.69013
7088.13900,0.68929
7086.21026,0.68648
7084.28151,0.68079
7082.35277,0.67496
7080.42402,0.67400
7078.49528,0.67634
7076.56653,0.67604
7074.63779,0.67325
7072.70904,0.67173
7070.78030,0.67050
7068.85155,0.66624
7066.92281,0.66084
7064.99406,0.65836
7063.06532,0.65819
7061.13657,0.65781
7059.20782,0.65709
7057.27908,0.65521
7055.35033,0.65229
7053.42159,0.65229
7051.49284,0.65421
7049.56410,0.65165
7047.63535,0.64440
7045.70661,0.63775
7043.77786,0.63547
7041.84912,0.63711
7039.92037,0.63797
7037.99163,0.63481
7036.06288,0.62921
7034.13414,0.62468
7032.20539,0.62411
7030.27664,0.62661
7028.34790,0.62801
7026.41915,0.62545
7024.49041,0.62057
7022.56166,0.61858
7020.63292,0.62052
7018.70417,0.62024
7016.77543,0.61492
7014.84668,0.61080
7012.91794,0.61121
7010.98919,0.61167
7009.06045,0.61235
7007.13170,0.61518
7005.20296,0.61558
7003.27421,0.61201
7001.34547,0.60863
6999.41672,0.60625
6997.48797,0.60302
6995.55923,0.60050
6993.63048,0.60041
6991.70174,0.60004
6989.77299,0.59909
6987.84425,0.60007
6985.91550,0.60112
6983.98676,0.60037
6982.05801,0.59836
6980.12927,0.59472
6978.20052,0.59181
6976.27178,0.59270
6974.34303,0.59501
6972.41429,0.59518
6970.48554,0.59435
6968.55680,0.59519
6966.62805,0.59685
6964.69930,0.59744
6962.77056,0.59748
6960.84181,0.59713
6958.91307,0.59513
6956.98432,0.59154
6955.05558,0.58909
6953.12683,0.58926
6951.19809,0.58927
6949.26934,0.58820
6947.34060,0.58798
6945.41185,0.58810
6943.48311,0.58754
6941.55436,0.58754
6939.62562,0.58987
6937.69687,0.59198
6935.76812,0.58886
6933.83938,0.58254
6931.91063,0.57975
6929.98189,0.58130
6928.05314,0.58316
6926.12440,0.58433
6924.19565,0.58574
6922.26691,0.58669
6920.33816,0.58680
6918.40942,0.58630
6916.48067,0.58562
6914.55193,0.58496
6912.62318,0.58378
6910.69444,0.58252
6908.76569,0.58213
6906.83695,0.58188
6904.90820,0.58128
6902.97945,0.58134
6901.05071,0.58148
6899.12196,0.58182
6897.19322,0.58370
6895.26447,0.58468
6893.33573,0.58314
6891.40698,0.58185
6889.47824,0.58203
6887.54949,0.58179
6885.62075,0.58114
6883.69200,0.58204
6881.76326,0.58303
6879.83451,0.58241
6877.90577,0.58186
6875.97702,0.58125
6874.04828,0.57998
6872.11953,0.58023
6870.19078,0.58141
6868.26204,0.58045
6866.33329,0.57919
6864.40455,0.58109
6862.47580,0.58363
6860.54706,0.58244
6858.61831,0.57883
6856.68957,0.57719
6854.76082,0.57816
6852.83208,0.57962
6850.90333,0.58031
6848.97459,0.58057
6847.04584,0.58172
6845.11710,0.58336
6843.18835,0.58428
6841.25960,0.58428
6839.33086,0.58243
6837.40211,0.57938
6835.47337,0.57743
6833.54462,0.57660
6831.61588,0.57624
6829.68713,0.57701
6827.75839,0.57905
6825.82964,0.58088
6823.90090,0.58184
6821.97215,0.58345
6820.04341,0.58461
6818.11466,0.58294
6816.18592,0.58107
6814.25717,0.58175
6812.32843,0.58291
6810.39968,0.58285
6808.47093,0.58366
6806.54219,0.58687
6804.61344,0.58945
6802.68470,0.58858
6800.75595,0.58562
6798.82721,0.58278
6796.89846,0.58087
6794.96972,0.58014
6793.04097,0.58062
6791.11223,0.58151
6789.18348,0.58127
6787.25474,0.57943
6785.32599,0.57785
6783.39725,0.57881
6781.46850,0.58213
6779.53975,0.58558
6777.61101,0.58702
6775.68226,0.58646
6773.75352,0.58490
6771.82477,0.58275
6769.89603,0.58116
6767.96728,0.57996
6766.03854,0.57794
6764.10979,0.57739
6762.18105,0.58002
6760.25230,0.58245
6758.32356,0.58239
6756.39481,0.58204
6754.46607,0.58270
6752.53732,0.58240
6750.60858,0.58029
6748.67983,0.57891
6746.75108,0.57967
6744.82234,0.58069
6742.89359,0.58116
6740.96485,0.58280
6739.03610,0.58502
6737.10736,0.58577
6735.17861,0.58633
6733.24987,0.58752
6731.32112,0.58797
6729.39238,0.58814
6727.46363,0.58904
6725.53489,0.59030
6723.60614,0.59031
6721.67740,0.58883
6719.74865,0.58830
6717.81991,0.58918
6715.89116,0.58913
6713.96241,0.58669
6712.03367,0.58340
6710.10492,0.58259
6708.17618,0.58419
6706.24743,0.58537
6704.31869,0.58663
6702.38994,0.58898
6700.46120,0.59036
6698.53245,0.59059
6696.60371,0.59229
6694.67496,0.59598
6692.74622,0.59871
6690.81747,0.59840
6688.88873,0.59652
6686.95998,0.59358
6685.03123,0.58887
6683.10249,0.58434
6681.17374,0.58382
6679.24500,0.58847
6677.31625,0.59313
6675.38751,0.59298
6673.45876,0.59069
6671.53002,0.59056
6669.60127,0.59205
6667.67253,0.59291
6665.74378,0.59378
6663.81504,0.59545
6661.88629,0.59594
6659.95755,0.59478
6658.02880,0.59510
6656.10006,0.59755
6654.17131,0.59918
6652.24256,0.59936
6650.31382,0.59919
6648.38507,0.59845
6646.45633,0.59735
6644.52758,0.59643
6642.59884,0.59520
6640.67009,0.59414
6638.74135,0.59570
6636.81260,0.59999
6634.88386,0.60237
6632.95511,0.60002
6631.02637,0.59688
6629.09762,0.59665
6627.16888,0.59846
6625.24013,0.60029
6623.31139,0.60088
6621.38264,0.59943
6619.45389,0.59695
6617.52515,0.59645
6615.59640,0.59911
6613.66766,0.60322
6611.73891,0.60640
6609.81017,0.60730
6607.88142,0.60734
6605.95268,0.60711
6604.02393,0.60506
6602.09519,0.60311
6600.16644,0.60398
6598.23770,0.60595
6596.30895,0.60639
6594.38021,0.60558
6592.45146,0.60483
6590.52271,0.60518
6588.59397,0.60601
6586.66522,0.60599
6584.73648,0.60598
6582.80773,0.60599
6580.87899,0.60550
6578.95024,0.60569
6577.02150,0.60592
6575.09275,0.60533
6573.16401,0.60573
6571.23526,0.60768
6569.30652,0.60851
6567.37777,0.60733
6565.44903,0.60697
6563.52028,0.60859
6561.59154,0.60918
6559.66279,0.60710
6557.73404,0.60582
6555.80530,0.60747
6553.87655,0.60974
6551.94781,0.61136
6550.01906,0.61159
6548.09032,0.60982
6546.16157,0.60879
6544.23283,0.61013
6542.30408,0.61153
6540.37534,0.61138
6538.44659,0.61048
6536.51785,0.60987
6534.58910,0.61014
6532.66036,0.61158
6530.73161,0.61320
6528.80287,0.61381
6526.87412,0.61373
6524.94537,0.61306
6523.01663,0.61175
6521.08788,0.61144
6519.15914,0.61307
6517.23039,0.61460
6515.30165,0.61358
6513.37290,0.61178
6511.44416,0.61259
6509.51541,0.61461
6507.58667,0.61530
6505.65792,0.61571
6503.72918,0.61643
6501.80043,0.61699
6499.87169,0.61742
6497.94294,0.61718
6496.01419,0.61632
6494.08545,0.61641
6492.15670,0.61780
6490.22796,0.61859
6488.29921,0.61788
6486.37047,0.61628
6484.44172,0.61516
6482.51298,0.61519
6480.58423,0.61473
6478.65549,0.61364
6476.72674,0.61290
6474.79800,0.61255
6472.86925,0.61342
6470.94051,0.61472
6469.01176,0.61542
6467.08302,0.61620
6465.15427,0.61667
6463.22552,0.61671
6461.29678,0.61697
6459.36803,0.61671
6457.43929,0.61626
6455.51054,0.61620
6453.58180,0.61578
6451.65305,0.61603
6449.72431,0.61751
6447.79556,0.61911
6445.86682,0.62099
6443.93807,0.62158
6442.00933,0.61955
6440.08058,0.61742
6438.15184,0.61705
6436.22309,0.61774
6434.29434,0.61876
6432.36560,0.62033
6430.43685,0.62195
6428.50811,0.62272
6426.57936,0.62266
6424.65062,0.62230
6422.72187,0.62202
6420.79313,0.62098
6418.86438,0.61917
6416.93564,0.61866
6415.00689,0.61989
6413.07815,0.62046
6411.14940,0.61933
6409.22066,0.61883
6407.29191,0.62023
6405.36317,0.62135
6403.43442,0.62105
6401.50567,0.62102
6399.57693,0.62143
6397.64818,0.62086
6395.71944,0.62056
6393.79069,0.62224
6391.86195,0.62445
6389.93320,0.62534
6388.00446,0.62517
6386.07571,0.62503
6384.14697,0.62558
6382.21822,0.62592
6380.28948,0.62489
6378.36073,0.62370
6376.43199,0.62352
6374.50324,0.62337
6372.57450,0.62236
6370.64575,0.62145
6368.71700,0.62283
6366.78826,0.62633
6364.85951,0.62833
6362.93077,0.62683
6361.00202,0.62449
6359.07328,0.62419
6357.14453,0.62563
6355.21579,0.62753
6353.28704,0.62790
6351.35830,0.62625
6349.42955,0.62546
6347.50081,0.62690
6345.57206,0.62824
6343.64332,0.62738
6341.71457,0.62615
6339.78582,0.62717
6337.85708,0.62855
6335.92833,0.62808
6333.99959,0.62749
6332.07084,0.62755
6330.14210,0.62688
6328.21335,0.62648
6326.28461,0.62768
6324.35586,0.62880
6322.42712,0.62902
6320.49837,0.62906
6318.56963,0.62843
6316.64088,0.62728
6314.71214,0.62730
6312.78339,0.62833
6310.85465,0.62838
6308.92590,0.62724
6306.99715,0.62668
6305.06841,0.62821
6303.13966,0.63054
6301.21092,0.63100
6299.28217,0.63014
6297.35343,0.63030
6295.42468,0.63107
6293.49594,0.63118
6291.56719,0.63182
6289.63845,0.63328
6287.70970,0.63337
6285.78096,0.63222
6283.85221,0.63220
6281.92347,0.63388
6279.99472,0.63558
6278.06598,0.63571
6276.13723,0.63495
6274.20848,0.63453
6272.27974,0.63569
6270.35099,0.63848
6268.42225,0.64028
6266.49350,0.63987
6264.56476,0.63882
6262.63601,0.63837
6260.70727,0.63919
6258.77852,0.64138
6256.84978,0.64329
6254.92103,0.64352
6252.99229,0.64300
6251.06354,0.64233
6249.13480,0.64201
6247.20605,0.64300
6245.27730,0.64445
6243.34856,0.64516
6241.41981,0.64511
6239.49107,0.64519
6237.56232,0.64612
6235.63358,0.64750
6233.70483,0.64854
6231.77609,0.64916
6229.84734,0.65071
6227.91860,0.65305
6225.98985,0.65398
6224.06111,0.65408
6222.13236,0.65540
6220.20362,0.65732
6218.27487,0.65711
6216.34613,0.65425
6214.41738,0.65222
6212.48863,0.65260
6210.55989,0.65313
6208.63114,0.65373
6206.70240,0.65585
6204.77365,0.65826
6202.84491,0.65912
6200.91616,0.65920
6198.98742,0.66097
6197.05867,0.66319
6195.12993,0.66207
6193.20118,0.65990
6191.27244,0.66087
6189.34369,0.66334
6187.41495,0.66371
6185.48620,0.66194
6183.55746,0.66105
6181.62871,0.66199
6179.69996,0.66261
6177.77122,0.66219
6175.84247,0.66216
6173.91373,0.66364
6171.98498,0.66636
6170.05624,0.66892
6168.12749,0.67050
6166.19875,0.67170
6164.27000,0.67223
6162.34126,0.67140
6160.41251,0.67086
6158.48377,0.67200
6156.55502,0.67359
6154.62628,0.67416
6152.69753,0.67317
6150.76878,0.67108
6148.84004,0.66967
6146.91129,0.67037
6144.98255,0.67237
6143.05380,0.67405
6141.12506,0.67487
6139.19631,0.67467
6137.26757,0.67351
6135.33882,0.67256
6133.41008,0.67305
6131.48133,0.67483
6129.55259,0.67655
6127.62384,0.67677
6125.69510,0.67591
6123.76635,0.67578
6121.83761,0.67673
6119.90886,0.67758
6117.98011,0.67777
6116.05137,0.67831
6114.12262,0.67970
6112.19388,0.68049
6110.26513,0.68000
6108.33639,0.67966
6106.40764,0.68098
6104.47890,0.68408
6102.55015,0.68685
6100.62141,0.68704
6098.69266,0.68468
6096.76392,0.68145
6094.83517,0.67930
6092.90643,0.67961
6090.97768,0.68191
6089.04893,0.68407
6087.12019,0.68470
6085.19144,0.68378
6083.26270,0.68197
6081.33395,0.68023
6079.40521,0.67909
6077.47646,0.67893
6075.54772,0.68006
6073.61897,0.68206
6071.69023,0.68348
6069.76148,0.68326
6067.83274,0.68172
6065.90399,0.67964
6063.97525,0.67830
6062.04650,0.67849
6060.11776,0.67941
6058.18901,0.67981
6056.26026,0.67909
6054.33152,0.67817
6052.40277,0.67836
6050.47403,0.67901
6048.54528,0.67873
6046.61654,0.67799
6044.68779,0.67809
6042.75905,0.67882
6040.83030,0.67867
6038.90156,0.67642
6036.97281,0.67336
6035.04407,0.67237
6033.11532,0.67364
6031.18658,0.67447
6029.25783,0.67408
6027.32909,0.67400
6025.40034,0.67377
6023.47159,0.67230
6021.54285,0.67140
6019.61410,0.67215
6017.68536,0.67239
6015.75661,0.67058
6013.82787,0.66825
6011.89912,0.66713
6009.97038,0.66673
6008.04163,0.66662
6006.11289,0.66680
6004.18414,0.66618
6002.25540,0.66472
6000.32665,0.66354
5998.39791,0.66284
5996.46916,0.66229
5994.54041,0.66169
5992.61167,0.66135
5990.68292,0.66105
5988.75418,0.66042
5986.82543,0.66023
5984.89669,0.66061
5982.96794,0.66099
5981.03920,0.66110
5979.11045,0.66070
5977.18171,0.65988
5975.25296,0.65846
5973.32422,0.65683
5971.39547,0.65637
5969.46673,0.65674
5967.53798,0.65679
5965.60924,0.65712
5963.68049,0.65858
5961.75174,0.66056
5959.82300,0.66151
5957.89425,0.66094
5955.96551,0.65952
5954.03676,0.65839
5952.10802,0.65826
5950.17927,0.65859
5948.25053,0.65941
5946.32178,0.66076
5944.39304,0.66185
5942.46429,0.66268
5940.53555,0.66325
5938.60680,0.66274
5936.67806,0.66126
5934.74931,0.66091
5932.82057,0.66227
5930.89182,0.66291
5928.96307,0.66240
5927.03433,0.66238
5925.10558,0.66261
5923.17684,0.66218
5921.24809,0.66132
5919.31935,0.66100
5917.39060,0.66195
5915.46186,0.66300
5913.53311,0.66276
5911.60437,0.66172
5909.67562,0.66090
5907.74688,0.66045
5905.81813,0.65962
5903.88939,0.65823
5901.96064,0.65711
5900.03189,0.65659
5898.10315,0.65677
5896.17440,0.65695
5894.24566,0.65658
5892.31691,0.65650
5890.38817,0.65693
5888.45942,0.65766
5886.53068,0.65808
5884.60193,0.65712
5882.67319,0.65549
5880.74444,0.65455
5878.81570,0.65435
5876.88695,0.65467
5874.95821,0.65489
5873.02946,0.65447
5871.10072,0.65482
5869.17197,0.65647
5867.24322,0.65728
5865.31448,0.65629
5863.38573,0.65483
5861.45699,0.65435
5859.52824,0.65513
5857.59950,0.65639
5855.67075,0.65683
5853.74201,0.65566
5851.81326,0.65390
5849.88452,0.65368
5847.95577,0.65527
5846.02703,0.65658
5844.09828,0.65610
5842.16954,0.65511
5840.24079,0.65516
5838.31205,0.65499
5836.38330,0.65296
5834.45455,0.65077
5832.52581,0.65124
5830.59706,0.65324
5828.66832,0.65350
5826.73957,0.65231
5824.81083,0.65195
5822.88208,0.65262
5820.95334,0.65269
5819.02459,0.65123
5817.09585,0.65002
5815.16710,0.65052
5813.23836,0.65146
5811.30961,0.65171
5809.38087,0.65136
5807.45212,0.65037
5805.52337,0.64932
5803.59463,0.64988
5801.66588,0.65166
5799.73714,0.65190
5797.80839,0.65012
5795.87965,0.64851
5793.95090,0.64839
5792.02216,0.64921
5790.09341,0.65006
5788.16467,0.65066
5786.23592,0.65082
5784.30718,0.65062
5782.37843,0.65033
5780.44969,0.65002
5778.52094,0.65009
5776.59220,0.65054
5774.66345,0.65077
5772.73470,0.65117
5770.80596,0.65233
5768.87721,0.65349
5766.94847,0.65397
5765.01972,0.65385
5763.09098,0.65343
5761.16223,0.65342
5759.23349,0.65376
5757.30474,0.65349
5755.37600,0.65290
5753.44725,0.65349
5751.51851,0.65469
5749.58976,0.65453
5747.66102,0.65370
5745.73227,0.65385
5743.80352,0.65398
5741.87478,0.65329
5739.94603,0.65328
5738.01729,0.65436
5736.08854,0.65482
5734.15980,0.65387
5732.23105,0.65275
5730.30231,0.65236
5728.37356,0.65227
5726.44482,0.65206
5724.51607,0.65162
5722.58733,0.65105
5720.65858,0.65073
5718.72984,0.65022
5716.80109,0.64993
5714.87235,0.65102
5712.94360,0.65247
5711.01485,0.65288
5709.08611,0.65301
5707.15736,0.65338
5705.22862,0.65298
5703.29987,0.65168
5701.37113,0.65093
5699.44238,0.65131
5697.51364,0.65189
5695.58489,0.65183
5693.65615,0.65161
5691.72740,0.65211
5689.79866,0.65295
5687.86991,0.65286
5685.94117,0.65154
5684.01242,0.65045
5682.08368,0.65031
5680.15493,0.65023
5678.22618,0.65035
5676.29744,0.65074
5674.36869,0.65046
5672.43995,0.64994
5670.51120,0.65013
5668.58246,0.65048
5666.65371,0.65067
5664.72497,0.65097
5662.79622,0.65122
5660.86748,0.65089
5658.93873,0.64972
5657.00999,0.64900
5655.08124,0.64960
5653.15250,0.65018
5651.22375,0.65010
5649.29500,0.64975
5647.36626,0.64924
5645.43751,0.64907
5643.50877,0.64939
5641.58002,0.64944
5639.65128,0.64920
5637.72253,0.64936
5635.79379,0.64967
5633.86504,0.64947
5631.93630,0.64873
5630.00755,0.64814
5628.07881,0.64772
5626.15006,0.64692
5624.22132,0.64700
5622.29257,0.64888
5620.36383,0.65074
5618.43508,0.65072
5616.50633,0.64934
5614.57759,0.64852
5612.64884,0.64884
5610.72010,0.64918
5608.79135,0.64901
5606.86261,0.64873
5604.93386,0.64830
5603.00512,0.64740
5601.07637,0.64672
5599.14763,0.64677
5597.21888,0.64709
5595.29014,0.64770
5593.36139,0.64903
5591.43265,0.65047
5589.50390,0.65115
5587.57516,0.65143
5585.64641,0.65179
5583.71766,0.65127
5581.78892,0.64952
5579.86017,0.64810
5577.93143,0.64837
5576.00268,0.64953
5574.07394,0.65034
5572.14519,0.65064
5570.21645,0.65073
5568.28770,0.65090
5566.35896,0.65093
5564.43021,0.65077
5562.50147,0.65114
5560.57272,0.65196
5558.64398,0.65233
5556.71523,0.65203
5554.78648,0.65140
5552.85774,0.65122
5550.92899,0.65202
5549.00025,0.65320
5547.07150,0.65428
5545.14276,0.65477
5543.21401,0.65387
5541.28527,0.65244
5539.35652,0.65216
5537.42778,0.65323
5535.49903,0.65459
5533.57029,0.65517
5531.64154,0.65502
5529.71280,0.65482
5527.78405,0.65482
5525.85531,0.65471
5523.92656,0.65442
5521.99781,0.65431
5520.06907,0.65450
5518.14032,0.65499
5516.21158,0.65525
5514.28283,0.65484
5512.35409,0.65453
5510.42534,0.65483
5508.49660,0.65540
5506.56785,0.65584
5504.63911,0.65617
5502.71036,0.65686
5500.78162,0.65767
5498.85287,0.65764
5496.92413,0.65689
5494.99538,0.65664
5493.06664,0.65737
5491.13789,0.65824
5489.20914,0.65849
5487.28040,0.65832
5485.35165,0.65834
5483.42291,0.65859
5481.49416,0.65834
5479.56542,0.65752
5477.63667,0.65740
5475.70793,0.65850
5473.77918,0.65958
5471.85044,0.65970
5469.92169,0.65932
5467.99295,0.65915
5466.06420,0.65909
5464.13546,0.65891
5462.20671,0.65882
5460.27796,0.65896
5458.34922,0.65905
5456.42047,0.65884
5454.49173,0.65914
5452.56298,0.66064
5450.63424,0.66222
5448.70549,0.66272
5446.77675,0.66259
5444.84800,0.66269
5442.91926,0.66309
5440.99051,0.66368
5439.06177,0.66470
5437.13302,0.66618
5435.20428,0.66709
5433.27553,0.66659
5431.34679,0.66623
5429.41804,0.66725
5427.48929,0.66821
5425.56055,0.66791
5423.63180,0.66731
5421.70306,0.66775
5419.77431,0.66916
5417.84557,0.67024
5415.91682,0.67037
5413.98808,0.66995
5412.05933,0.66927
5410.13059,0.66903
5408.20184,0.66977
5406.27310,0.67092
5404.34435,0.67205
5402.41561,0.67299
5400.48686,0.67338
5398.55811,0.67327
5396.62937,0.67298
5394.70062,0.67269
5392.77188,0.67256
5390.84313,0.67282
5388.91439,0.67352
5386.98564,0.67398
5385.05690,0.67374
5383.12815,0.67359
5381.19941,0.67402
5379.27066,0.67411
5377.34192,0.67360
5375.41317,0.67346
5373.48443,0.67383
5371.55568,0.67417
5369.62694,0.67427
5367.69819,0.67390
5365.76944,0.67309
5363.84070,0.67252
5361.91195,0.67252
5359.98321,0.67288
5358.05446,0.67328
5356.12572,0.67288
5354.19697,0.67164
5352.26823,0.67104
5350.33948,0.67131
5348.41074,0.67155
5346.48199,0.67166
5344.55325,0.67118
5342.62450,0.66997
5340.69576,0.66912
5338.76701,0.66856
5336.83827,0.66787
5334.90952,0.66779
5332.98077,0.66810
5331.05203,0.66770
5329.12328,0.66648
5327.19454,0.66481
5325.26579,0.66275
5323.33705,0.66074
5321.40830,0.65938
5319.47956,0.65831
5317.55081,0.65680
5315.62207,0.65497
5313.69332,0.65340
5311.76458,0.65196
5309.83583,0.64962
5307.90709,0.64665
5305.97834,0.64471
5304.04959,0.64350
5302.12085,0.64153
5300.19210,0.63887
5298.26336,0.63602
5296.33461,0.63296
5294.40587,0.62995
5292.47712,0.62732
5290.54838,0.62471
5288.61963,0.62181
5286.69089,0.61890
5284.76214,0.61588
5282.83340,0.61247
5280.90465,0.60878
5278.97591,0.60482
5277.04716,0.60074
5275.11842,0.59752
5273.18967,0.59507
5271.26092,0.59179
5269.33218,0.58708
5267.40343,0.58163
5265.47469,0.57648
5263.54594,0.57274
5261.61720,0.57010
5259.68845,0.56678
5257.75971,0.56233
5255.83096,0.55802
5253.90222,0.55467
5251.97347,0.55140
5250.04473,0.54745
5248.11598,0.54370
5246.18724,0.54070
5244.25849,0.53765
5242.32975,0.53446
5240.40100,0.53145
5238.47225,0.52857
5236.54351,0.52599
5234.61476,0.52363
5232.68602,0.52110
5230.75727,0.51891
5228.82853,0.51771
5226.89978,0.51692
5224.97104,0.51557
5223.04229,0.51360
5221.11355,0.51154
5219.18480,0.50978
5217.25606,0.50842
5215.32731,0.50709
5213.39857,0.50538
5211.46982,0.50356
5209.54107,0.50249
5207.61233,0.50253
5205.68358,0.50259
5203.75484,0.50190
5201.82609,0.50109
5199.89735,0.50031
5197.96860,0.49937
5196.03986,0.49875
5194.11111,0.49891
5192.18237,0.49925
5190.25362,0.49906
5188.32488,0.49873
5186.39613,0.49885
5184.46739,0.49912
5182.53864,0.49940
5180.60990,0.50016
5178.68115,0.50102
5176.75240,0.50115
5174.82366,0.50108
5172.89491,0.50120
5170.96617,0.50109
5169.03742,0.50127
5167.10868,0.50227
5165.17993,0.50352
5163.25119,0.50476
5161.32244,0.50603
5159.39370,0.50672
5157.46495,0.50674
5155.53621,0.50707
5153.60746,0.50811
5151.67872,0.50935
5149.74997,0.51053
5147.82123,0.51181
5145.89248,0.51287
5143.96373,0.51357
5142.03499,0.51457
5140.10624,0.51603
5138.17750,0.51733
5136.24875,0.51807
5134.32001,0.51874
5132.39126,0.51979
5130.46252,0.52118
5128.53377,0.52291
5126.60503,0.52466
5124.67628,0.52588
5122.74754,0.52634
5120.81879,0.52627
5118.89005,0.52651
5116.96130,0.52753
5115.03255,0.52911
5113.10381,0.53087
5111.17506,0.53215
5109.24632,0.53286
5107.31757,0.53378
5105.38883,0.53513
5103.46008,0.53639
5101.53134,0.53723
5099.60259,0.53796
5097.67385,0.53904
5095.74510,0.54054
5093.81636,0.54193
5091.88761,0.54298
5089.95887,0.54407
5088.03012,0.54536
5086.10138,0.54675
5084.17263,0.54769
5082.24388,0.54802
5080.31514,0.54862
5078.38639,0.54961
5076.45765,0.55026
5074.52890,0.55075
5072.60016,0.55161
5070.67141,0.55280
5068.74267,0.55418
5066.81392,0.55573
5064.88518,0.55696
5062.95643,0.55742
5061.02769,0.55750
5059.09894,0.55787
5057.17020,0.55885
5055.24145,0.56012
5053.31270,0.56132
5051.38396,0.56266
5049.45521,0.56409
5047.52647,0.56532
5045.59772,0.56628
5043.66898,0.56680
5041.74023,0.56712
5039.81149,0.56773
5037.88274,0.56860
5035.95400,0.56924
5034.02525,0.56938
5032.09651,0.56964
5030.16776,0.57047
5028.23902,0.57142
5026.31027,0.57200
5024.38153,0.57237
5022.45278,0.57304
5020.52403,0.57408
5018.59529,0.57487
5016.66654,0.57523
5014.73780,0.57563
5012.80905,0.57626
5010.88031,0.57667
5008.95156,0.57691
5007.02282,0.57731
5005.09407,0.57741
5003.16533,0.57701
5001.23658,0.57669
4999.30784,0.57649
4997.37909,0.57630
4995.45035,0.57642
4993.52160,0.57657
4991.59286,0.57625
4989.66411,0.57567
4987.73536,0.57527
4985.80662,0.57516
4983.87787,0.57505
4981.94913,0.57448
4980.02038,0.57361
4978.09164,0.57305
4976.16289,0.57259
4974.23415,0.57166
4972.30540,0.57039
4970.37666,0.56933
4968.44791,0.56848
4966.51917,0.56728
4964.59042,0.56579
4962.66168,0.56462
4960.73293,0.56357
4958.80418,0.56229
4956.87544,0.56098
4954.94669,0.55963
4953.01795,0.55824
4951.08920,0.55703
4949.16046,0.55584
4947.23171,0.55456
4945.30297,0.55319
4943.37422,0.55135
4941.44548,0.54902
4939.51673,0.54681
4937.58799,0.54494
4935.65924,0.54312
4933.73050,0.54115
4931.80175,0.53929
4929.87301,0.53790
4927.94426,0.53652
4926.01551,0.53481
4924.08677,0.53321
4922.15802,0.53125
4920.22928,0.52842
4918.30053,0.52574
4916.37179,0.52414
4914.44304,0.52344
4912.51430,0.52241
4910.58555,0.51996
4908.65681,0.51699
4906.72806,0.51471
4904.79932,0.51290
4902.87057,0.51123
4900.94183,0.50949
4899.01308,0.50763
4897.08434,0.50581
4895.15559,0.50389
4893.22684,0.50192
4891.29810,0.50037
4889.36935,0.49911
4887.44061,0.49756
4885.51186,0.49545
4883.58312,0.49306
4881.65437,0.49102
4879.72563,0.48951
4877.79688,0.48782
4875.86814,0.48575
4873.93939,0.48387
4872.01065,0.48217
4870.08190,0.48044
4868.15316,0.47889
4866.22441,0.47769
4864.29566,0.47663
4862.36692,0.47549
4860.43817,0.47407
4858.50943,0.47228
4856.58068,0.47042
4854.65194,0.46870
4852.72319,0.46712
4850.79445,0.46575
4848.86570,0.46447
4846.93696,0.46326
4845.00821,0.46242
4843.07947,0.46154
4841.15072,0.46009
4839.22198,0.45849
4837.29323,0.45710
4835.36449,0.45562
4833.43574,0.45397
4831.50699,0.45255
4829.57825,0.45155
4827.64950,0.45068
4825.72076,0.44977
4823.79201,0.44902
4821.86327,0.44808
4819.93452,0.44623
4818.00578,0.44437
4816.07703,0.44399
4814.14829,0.44443
4812.21954,0.44414
4810.29080,0.44307
4808.36205,0.44198
4806.43331,0.44111
4804.50456,0.44035
4802.57582,0.43957
4800.64707,0.43891
4798.71832,0.43864
4796.78958,0.43829
4794.86083,0.43752
4792.93209,0.43673
4791.00334,0.43623
4789.07460,0.43605
4787.14585,0.43607
4785.21711,0.43576
4783.28836,0.43490
4781.35962,0.43420
4779.43087,0.43422
4777.50213,0.43449
4775.57338,0.43425
4773.64464,0.43374
4771.71589,0.43362
4769.78714,0.43359
4767.85840,0.43317
4765.92965,0.43250
4764.00091,0.43196
4762.07216,0.43182
4760.14342,0.43187
4758.21467,0.43197
4756.28593,0.43227
4754.35718,0.43264
4752.42844,0.43263
4750.49969,0.43199
4748.57095,0.43153
4746.64220,0.43184
4744.71346,0.43234
4742.78471,0.43255
4740.85597,0.43260
4738.92722,0.43246
4736.99847,0.43226
4735.06973,0.43242
4733.14098,0.43293
4731.21224,0.43340
4729.28349,0.43370
4727.35475,0.43397
4725.42600,0.43421
4723.49726,0.43437
4721.56851,0.43461
4719.63977,0.43487
4717.71102,0.43496
4715.78228,0.43502
4713.85353,0.43510
4711.92479,0.43507
4709.99604,0.43493
4708.06729,0.43485
4706.13855,0.43514
4704.20980,0.43590
4702.28106,0.43673
4700.35231,0.43715
4698.42357,0.43716
4696.49482,0.43708
4694.56608,0.43713
4692.63733,0.43737
4690.70859,0.43796
4688.77984,0.43896
4686.85110,0.43993
4684.92235,0.44031
4682.99361,0.44010
4681.06486,0.44014
4679.13612,0.44082
4677.20737,0.44148
4675.27862,0.44180
4673.34988,0.44218
4671.42113,0.44282
4669.49239,0.44351
4667.56364,0.44423
4665.63490,0.44509
4663.70615,0.44610
4661.77741,0.44699
4659.84866,0.44766
4657.91992,0.44843
4655.99117,0.44939
4654.06243,0.45044
4652.13368,0.45146
4650.20494,0.45213
4648.27619,0.45245
4646.34745,0.45294
4644.41870,0.45377
4642.48995,0.45465
4640.56121,0.45551
4638.63246,0.45636
4636.70372,0.45725
4634.77497,0.45851
4632.84623,0.46011
4630.91748,0.46119
4628.98874,0.46125
4627.05999,0.46133
4625.13125,0.46254
4623.20250,0.46414
4621.27376,0.46525
4619.34501,0.46633
4617.41627,0.46754
4615.48752,0.46853
4613.55877,0.46956
4611.63003,0.47082
4609.70128,0.47231
4607.77254,0.47391
4605.84379,0.47517
4603.91505,0.47608
4601.98630,0.47688
4600.05756,0.47761
4598.12881,0.47858
4596.20007,0.47997
4594.27132,0.48135
4592.34258,0.48232
4590.41383,0.48294
4588.48509,0.48368
4586.55634,0.48457
4584.62760,0.48547
4582.69885,0.48642
4580.77010,0.48729
4578.84136,0.48795
4576.91261,0.48854
4574.98387,0.48930
4573.05512,0.49018
4571.12638,0.49096
4569.19763,0.49138
4567.26889,0.49135
4565.34014,0.49183
4563.41140,0.49338
4561.48265,0.49463
4559.55391,0.49468
4557.62516,0.49460
4555.69642,0.49537
4553.76767,0.49627
4551.83893,0.49641
4549.91018,0.49640
4547.98143,0.49705
4546.05269,0.49808
4544.12394,0.49876
4542.19520,0.49884
4540.26645,0.49872
4538.33771,0.49911
4536.40896,0.50010
4534.48022,0.50104
4532.55147,0.50134
4530.62273,0.50110
4528.69398,0.50095
4526.76524,0.50135
4524.83649,0.50217
4522.90775,0.50277
4520.97900,0.50302
4519.05025,0.50329
4517.12151,0.50329
4515.19276,0.50293
4513.26402,0.50279
4511.33527,0.50302
4509.40653,0.50318
4507.47778,0.50298
4505.54904,0.50243
4503.62029,0.50176
4501.69155,0.50133
4499.76280,0.50107
4497.83406,0.50039
4495.90531,0.49916
4493.97657,0.49790
4492.04782,0.49696
4490.11908,0.49645
4488.19033,0.49606
4486.26158,0.49514
4484.33284,0.49359
4482.40409,0.49194
4480.47535,0.49039
4478.54660,0.48893
4476.61786,0.48747
4474.68911,0.48566
4472.76037,0.48343
4470.83162,0.48120
4468.90288,0.47907
4466.97413,0.47691
4465.04539,0.47462
4463.11664,0.47227
4461.18790,0.47010
4459.25915,0.46797
4457.33041,0.46570
4455.40166,0.46354
4453.47291,0.46126
4451.54417,0.45845
4449.61542,0.45562
4447.68668,0.45320
4445.75793,0.45096
4443.82919,0.44885
4441.90044,0.44675
4439.97170,0.44448
4438.04295,0.44205
4436.11421,0.43930
4434.18546,0.43627
4432.25672,0.43337
4430.32797,0.43052
4428.39923,0.42747
4426.47048,0.42472
4424.54173,0.42257
4422.61299,0.42032
4420.68424,0.41750
4418.75550,0.41462
4416.82675,0.41211
4414.89801,0.40981
4412.96926,0.40757
4411.04052,0.40555
4409.11177,0.40363
4407.18303,0.40196
4405.25428,0.40097
4403.32554,0.40047
4401.39679,0.40008
4399.46805,0.39981
4397.53930,0.39944
4395.61056,0.39898
4393.68181,0.39898
4391.75306,0.39956
4389.82432,0.40024
4387.89557,0.40069
4385.96683,0.40112
4384.03808,0.40186
4382.10934,0.40277
4380.18059,0.40359
4378.25185,0.40439
4376.32310,0.40517
4374.39436,0.40617
4372.46561,0.40746
4370.53687,0.40838
4368.60812,0.40878
4366.67938,0.40948
4364.75063,0.41053
4362.82189,0.41135
4360.89314,0.41189
4358.96439,0.41241
4357.03565,0.41295
4355.10690,0.41330
4353.17816,0.41333
4351.24941,0.41298
4349.32067,0.41253
4347.39192,0.41241
4345.46318,0.41252
4343.53443,0.41259
4341.60569,0.41237
4339.67694,0.41159
4337.74820,0.41074
4335.81945,0.41039
4333.89071,0.41032
4331.96196,0.41000
4330.03321,0.40925
4328.10447,0.40827
4326.17572,0.40744
4324.24698,0.40695
4322.31823,0.40644
4320.38949,0.40543
4318.46074,0.40406
4316.53200,0.40280
4314.60325,0.40211
4312.67451,0.40185
4310.74576,0.40119
4308.81702,0.39997
4306.88827,0.39884
4304.95953,0.39789
4303.03078,0.39688
4301.10204,0.39599
4299.17329,0.39521
4297.24454,0.39451
4295.31580,0.39382
4293.38705,0.39293
4291.45831,0.39214
4289.52956,0.39175
4287.60082,0.39155
4285.67207,0.39130
4283.74333,0.39074
4281.81458,0.38990
4279.88584,0.38931
4277.95709,0.38928
4276.02835,0.38943
4274.09960,0.38931
4272.17086,0.38929
4270.24211,0.38984
4268.31336,0.39051
4266.38462,0.39088
4264.45587,0.39118
4262.52713,0.39178
4260.59838,0.39283
4258.66964,0.39408
4256.74089,0.39502
4254.81215,0.39535
4252.88340,0.39535
4250.95466,0.39551
4249.02591,0.39568
4247.09717,0.39556
4245.16842,0.39547
4243.23968,0.39584
4241.31093,0.39651
4239.38219,0.39699
4237.45344,0.39708
4235.52469,0.39685
4233.59595,0.39650
4231.66720,0.39636
4229.73846,0.39644
4227.80971,0.39640
4225.88097,0.39613
4223.95222,0.39584
4222.02348,0.39579
4220.09473,0.39586
4218.16599,0.39580
4216.23724,0.39575
4214.30850,0.39594
4212.37975,0.39605
4210.45101,0.39617
4208.52226,0.39670
4206.59352,0.39716
4204.66477,0.39706
4202.73602,0.39700
4200.80728,0.39723
4198.87853,0.39728
4196.94979,0.39718
4195.02104,0.39717
4193.09230,0.39726
4191.16355,0.39746
4189.23481,0.39765
4187.30606,0.39776
4185.37732,0.39799
4183.44857,0.39842
4181.51983,0.39887
4179.59108,0.39938
4177.66234,0.40001
4175.73359,0.40058
4173.80484,0.40107
4171.87610,0.40165
4169.94735,0.40228
4168.01861,0.40276
4166.08986,0.40309
4164.16112,0.40340
4162.23237,0.40355
4160.30363,0.40341
4158.37488,0.40308
4156.44614,0.40261
4154.51739,0.40207
4152.58865,0.40162
4150.65990,0.40133
4148.73116,0.40101
4146.80241,0.40050
4144.87367,0.39978
4142.94492,0.39905
4141.01617,0.39841
4139.08743,0.39759
4137.15868,0.39656
4135.22994,0.39564
4133.30119,0.39481
4131.37245,0.39370
4129.44370,0.39227
4127.51496,0.39081
4125.58621,0.38945
4123.65747,0.38805
4121.72872,0.38657
4119.79998,0.38519
4117.87123,0.38389
4115.94249,0.38241
4114.01374,0.38069
4112.08500,0.37889
4110.15625,0.37700
4108.22750,0.37504
4106.29876,0.37326
4104.37001,0.37185
4102.44127,0.37052
4100.51252,0.36889
4098.58378,0.36691
4096.65503,0.36469
4094.72629,0.36240
4092.79754,0.36028
4090.86880,0.35831
4088.94005,0.35647
4087.01131,0.35474
4085.08256,0.35306
4083.15382,0.35119
4081.22507,0.34893
4079.29632,0.34660
4077.36758,0.34478
4075.43883,0.34324
4073.51009,0.34140
4071.58134,0.33932
4069.65260,0.33730
4067.72385,0.33537
4065.79511,0.33355
4063.86636,0.33175
4061.93762,0.32998
4060.00887,0.32824
4058.08013,0.32633
4056.15138,0.32436
4054.22264,0.32272
4052.29389,0.32123
4050.36515,0.31960
4048.43640,0.31806
4046.50765,0.31680
4044.57891,0.31549
4042.65016,0.31400
4040.72142,0.31246
4038.79267,0.31103
4036.86393,0.30987
4034.93518,0.30894
4033.00644,0.30801
4031.07769,0.30707
4029.14895,0.30610
4027.22020,0.30515
4025.29146,0.30436
4023.36271,0.30375
4021.43397,0.30344
4019.50522,0.30342
4017.57648,0.30324
4015.64773,0.30276
4013.71898,0.30230
4011.79024,0.30198
4009.86149,0.30194
4007.93275,0.30226
4006.00400,0.30267
4004.07526,0.30302
4002.14651,0.30338
4000.21777,0.30378
3998.28902,0.30414
3996.36028,0.30450
3994.43153,0.30494
3992.50279,0.30532
3990.57404,0.30563
3988.64530,0.30623
3986.71655,0.30713
3984.78780,0.30787
3982.85906,0.30829
3980.93031,0.30857
3979.00157,0.30888
3977.07282,0.30940
3975.14408,0.31018
3973.21533,0.31099
3971.28659,0.31161
3969.35784,0.31205
3967.42910,0.31253
3965.50035,0.31319
3963.57161,0.31422
3961.64286,0.31568
3959.71412,0.31697
3957.78537,0.31760
3955.85663,0.31809
3953.92788,0.31906
3951.99913,0.32022
3950.07039,0.32113
3948.14164,0.32198
3946.21290,0.32311
3944.28415,0.32436
3942.35541,0.32536
3940.42666,0.32617
3938.49792,0.32701
3936.56917,0.32789
3934.64043,0.32881
3932.71168,0.32971
3930.78294,0.33057
3928.85419,0.33160
3926.92545,0.33295
3924.99670,0.33439
3923.06795,0.33564
3921.13921,0.33657
3919.21046,0.33731
3917.28172,0.33816
3915.35297,0.33895
3913.42423,0.33943
3911.49548,0.33979
3909.56674,0.34027
3907.63799,0.34101
3905.70925,0.34221
3903.78050,0.34369
3901.85176,0.34480
3899.92301,0.34519
3897.99427,0.34534
3896.06552,0.34585
3894.13678,0.34671
3892.20803,0.34760
3890.27928,0.34827
3888.35054,0.34885
3886.42179,0.34959
3884.49305,0.35048
3882.56430,0.35135
3880.63556,0.35199
3878.70681,0.35241
3876.77807,0.35298
3874.84932,0.35364
3872.92058,0.35412
3870.99183,0.35472
3869.06309,0.35571
3867.13434,0.35675
3865.20560,0.35770
3863.27685,0.35863
3861.34811,0.35957
3859.41936,0.36050
3857.49061,0.36124
3855.56187,0.36187
3853.63312,0.36277
3851.70438,0.36372
3849.77563,0.36443
3847.84689,0.36519
3845.91814,0.36612
3843.98940,0.36717
3842.06065,0.36800
3840.13191,0.36826
3838.20316,0.36828
3836.27442,0.36845
3834.34567,0.36872
3832.41693,0.36900
3830.48818,0.36925
3828.55943,0.36954
3826.63069,0.36985
3824.70194,0.37006
3822.77320,0.37019
3820.84445,0.37028
3818.91571,0.37026
3816.98696,0.37008
3815.05822,0.36985
3813.12947,0.36973
3811.20073,0.36966
3809.27198,0.36939
3807.34324,0.36891
3805.41449,0.36879
3803.48575,0.36921
3801.55700,0.36954
3799.62826,0.36942
3797.69951,0.36921
3795.77076,0.36909
3793.84202,0.36904
3791.91327,0.36904
3789.98453,0.36895
3788.05578,0.36882
3786.12704,0.36860
3784.19829,0.36823
3782.26955,0.36791
3780.34080,0.36752
3778.41206,0.36698
3776.48331,0.36661
3774.55457,0.36648
3772.62582,0.36632
3770.69708,0.36597
3768.76833,0.36557
3766.83959,0.36525
3764.91084,0.36479
3762.98209,0.36415
3761.05335,0.36352
3759.12460,0.36272
3757.19586,0.36169
3755.26711,0.36081
3753.33837,0.36018
3751.40962,0.35932
3749.48088,0.35814
3747.55213,0.35722
3745.62339,0.35633
3743.69464,0.35521
3741.76590,0.35436
3739.83715,0.35381
3737.90841,0.35323
3735.97966,0.35229
3734.05091,0.35068
3732.12217,0.34866
3730.19342,0.34683
3728.26468,0.34521
3726.33593,0.34356
3724.40719,0.34201
3722.47844,0.34053
3720.54970,0.33871
3718.62095,0.33654
3716.69221,0.33436
3714.76346,0.33220
3712.83472,0.32991
3710.90597,0.32750
3708.97723,0.32494
3707.04848,0.32226
3705.11974,0.31947
3703.19099,0.31642
3701.26224,0.31313
3699.33350,0.30988
3697.40475,0.30659
3695.47601,0.30301
3693.54726,0.29923
3691.61852,0.29521
3689.68977,0.29069
3687.76103,0.28554
3685.83228,0.28013
3683.90354,0.27466
3681.97479,0.26913
3680.04605,0.26387
3678.11730,0.25874
3676.18856,0.25237
3674.25981,0.24511
3672.33107,0.23913
3670.40232,0.23358
3668.47357,0.22733
3666.54483,0.22122
3664.61608,0.21543
3662.68734,0.20976
3660.75859,0.20439
3658.82985,0.19909
3656.90110,0.19339
3654.97236,0.18802
3653.04361,0.18373
3651.11487,0.17945
3649.18612,0.17423
3647.25738,0.16888
3645.32863,0.16443
3643.39989,0.16057
3641.47114,0.15682
3639.54239,0.15326
3637.61365,0.14995
3635.68490,0.14667
3633.75616,0.14351
3631.82741,0.14044
3629.89867,0.13679
3627.96992,0.13287
3626.04118,0.13009
3624.11243,0.12788
3622.18369,0.12545
3620.25494,0.12278
3618.32620,0.11965
3616.39745,0.11637
3614.46871,0.11361
3612.53996,0.11132
3610.61122,0.10913
3608.68247,0.10681
3606.75372,0.10430
3604.82498,0.10177
3602.89623,0.09946
3600.96749,0.09734
3599.03874,0.09530
3597.11000,0.09337
3595.18125,0.09155
3593.25251,0.08965
3591.32376,0.08772
3589.39502,0.08585
3587.46627,0.08419
3585.53753,0.08303
3583.60878,0.08199
3581.68004,0.08058
3579.75129,0.07892
3577.82254,0.07733
3575.89380,0.07599
3573.96505,0.07486
3572.03631,0.07374
3570.10756,0.07255
3568.17882,0.07132
3566.25007,0.07016
3564.32133,0.06923
3562.39258,0.06836
3560.46384,0.06748
3558.53509,0.06674
3556.60635,0.06604
3554.67760,0.06548
3552.74886,0.06504
3550.82011,0.06436
3548.89137,0.06343
3546.96262,0.06240
3545.03387,0.06132
3543.10513,0.06033
3541.17638,0.05967
3539.24764,0.05929
3537.31889,0.05898
3535.39015,0.05862
3533.46140,0.05812
3531.53266,0.05743
3529.60391,0.05678
3527.67517,0.05644
3525.74642,0.05621
3523.81768,0.05571
3521.88893,0.05498
3519.96019,0.05429
3518.03144,0.05381
3516.10270,0.05357
3514.17395,0.05332
3512.24520,0.05299
3510.31646,0.05285
3508.38771,0.05269
3506.45897,0.05218
3504.53022,0.05156
3502.60148,0.05111
3500.67273,0.05080
3498.74399,0.05053
3496.81524,0.05018
3494.88650,0.04979
3492.95775,0.04954
3491.02901,0.04943
3489.10026,0.04925
3487.17152,0.04885
3485.24277,0.04844
3483.31402,0.04829
3481.38528,0.04822
3479.45653,0.04806
3477.52779,0.04798
3475.59904,0.04798
3473.67030,0.04787
3471.74155,0.04755
3469.81281,0.04701
3467.88406,0.04640
3465.95532,0.04607
3464.02657,0.04610
3462.09783,0.04628
3460.16908,0.04646
3458.24034,0.04645
3456.31159,0.04630
3454.38285,0.04630
3452.45410,0.04654
3450.52535,0.04663
3448.59661,0.04631
3446.66786,0.04579
3444.73912,0.04541
3442.81037,0.04525
3440.88163,0.04518
3438.95288,0.04518
3437.02414,0.04538
3435.09539,0.04571
3433.16665,0.04585
3431.23790,0.04590
3429.30916,0.04605
3427.38041,0.04602
3425.45167,0.04586
3423.52292,0.04588
3421.59418,0.04593
3419.66543,0.04556
3417.73668,0.04495
3415.80794,0.04468
3413.87919,0.04483
3411.95045,0.04508
3410.02170,0.04529
3408.09296,0.04544
3406.16421,0.04560
3404.23547,0.04580
3402.30672,0.04599
3400.37798,0.04594
3398.44923,0.04570
3396.52049,0.04563
3394.59174,0.04590
3392.66300,0.04615
3390.73425,0.04601
3388.80550,0.04587
3386.87676,0.04625
3384.94801,0.04679
3383.01927,0.04686
3381.09052,0.04651
3379.16178,0.04621
3377.23303,0.04611
3375.30429,0.04613
3373.37554,0.04629
3371.44680,0.04668
3369.51805,0.04718
3367.58931,0.04740
3365.66056,0.04727
3363.73182,0.04719
3361.80307,0.04732
3359.87433,0.04759
3357.94558,0.04800
3356.01683,0.04842
3354.08809,0.04865
3352.15934,0.04877
3350.23060,0.04899
3348.30185,0.04927
3346.37311,0.04948
3344.44436,0.04975
3342.51562,0.05022
3340.58687,0.05067
3338.65813,0.05074
3336.72938,0.05085
3334.80064,0.05143
3332.87189,0.05209
3330.94315,0.05241
3329.01440,0.05250
3327.08566,0.05263
3325.15691,0.05283
3323.22816,0.05299
3321.29942,0.05312
3319.37067,0.05325
3317.44193,0.05341
3315.51318,0.05355
3313.58444,0.05365
3311.65569,0.05381
3309.72695,0.05422
3307.79820,0.05483
3305.86946,0.05514
3303.94071,0.05508
3302.01197,0.05506
3300.08322,0.05518
3298.15448,0.05525
3296.22573,0.05541
3294.29698,0.05600
3292.36824,0.05680
3290.43949,0.05700
3288.51075,0.05662
3286.58200,0.05646
3284.65326,0.05670
3282.72451,0.05708
3280.79577,0.05754
3278.86702,0.05804
3276.93828,0.05860
3275.00953,0.05910
3273.08079,0.05932
3271.15204,0.05962
3269.22330,0.06031
3267.29455,0.06095
3265.36581,0.06131
3263.43706,0.06155
3261.50831,0.06171
3259.57957,0.06184
3257.65082,0.06213
3255.72208,0.06265
3253.79333,0.06339
3251.86459,0.06405
3249.93584,0.06438
3248.00710,0.06460
3246.07835,0.06488
3244.14961,0.06511
3242.22086,0.06528
3240.29212,0.06555
3238.36337,0.06611
3236.43463,0.06689
3234.50588,0.06760
3232.57713,0.06820
3230.64839,0.06863
3228.71964,0.06884
3226.79090,0.06927
3224.86215,0.07012
3222.93341,0.07089
3221.00466,0.07147
3219.07592,0.07229
3217.14717,0.07303
3215.21843,0.07317
3213.28968,0.07320
3211.36094,0.07375
3209.43219,0.07458
3207.50345,0.07531
3205.57470,0.07598
3203.64596,0.07663
3201.71721,0.07723
3199.78846,0.07777
3197.85972,0.07816
3195.93097,0.07864
3194.00223,0.07939
3192.07348,0.08012
3190.14474,0.08078
3188.21599,0.08141
3186.28725,0.08185
3184.35850,0.08212
3182.42976,0.08235
3180.50101,0.08296
3178.57227,0.08418
3176.64352,0.08523
3174.71478,0.08550
3172.78603,0.08573
3170.85729,0.08649
3168.92854,0.08727
3166.99979,0.08790
3165.07105,0.08860
3163.14230,0.08924
3161.21356,0.08966
3159.28481,0.09000
3157.35607,0.09048
3155.42732,0.09118
3153.49858,0.09202
3151.56983,0.09291
3149.64109,0.09388
3147.71234,0.09491
3145.78360,0.09565
3143.85485,0.09610
3141.92611,0.09681
3139.99736,0.09777
3138.06861,0.09849
3136.13987,0.09893
3134.21112,0.09931
3132.28238,0.09986
3130.35363,0.10054
3128.42489,0.10112
3126.49614,0.10168
3124.56740,0.10234
3122.63865,0.10306
3120.70991,0.10377
3118.78116,0.10453
3116.85242,0.10527
3114.92367,0.10574
3112.99493,0.10604
3111.06618,0.10665
3109.13744,0.10755
3107.20869,0.10835
3105.27994,0.10898
3103.35120,0.10960
3101.42245,0.11025
3099.49371,0.11084
3097.56496,0.11141
3095.63622,0.11200
3093.70747,0.11252
3091.77873,0.11296
3089.84998,0.11346
3087.92124,0.11402
3085.99249,0.11458
3084.06375,0.11512
3082.13500,0.11556
3080.20626,0.11588
3078.27751,0.11620
3076.34877,0.11665
3074.42002,0.11720
3072.49127,0.11773
3070.56253,0.11814
3068.63378,0.11848
3066.70504,0.11891
3064.77629,0.11948
3062.84755,0.12000
3060.91880,0.12051
3058.99006,0.12108
3057.06131,0.12169
3055.13257,0.12234
3053.20382,0.12298
3051.27508,0.12365
3049.34633,0.12431
3047.41759,0.12480
3045.48884,0.12514
3043.56009,0.12543
3041.63135,0.12584
3039.70260,0.12643
3037.77386,0.12689
3035.84511,0.12696
3033.91637,0.12684
3031.98762,0.12684
3030.05888,0.12694
3028.13013,0.12708
3026.20139,0.12710
3024.27264,0.12683
3022.34390,0.12652
3020.41515,0.12630
3018.48641,0.12589
3016.55766,0.12529
3014.62892,0.12459
3012.70017,0.12377
3010.77142,0.12298
3008.84268,0.12219
3006.91393,0.12135
3004.98519,0.12063
3003.05644,0.11997
3001.12770,0.11917
2999.19895,0.11826
2997.27021,0.11731
2995.34146,0.11640
2993.41272,0.11560
2991.48397,0.11484
2989.55523,0.11378
2987.62648,0.11224
2985.69774,0.11029
2983.76899,0.10814
2981.84025,0.10586
2979.91150,0.10342
2977.98275,0.10101
2976.05401,0.09870
2974.12526,0.09627
2972.19652,0.09372
2970.26777,0.09144
2968.33903,0.08966
2966.41028,0.08836
2964.48154,0.08735
2962.55279,0.08630
2960.62405,0.08518
2958.69530,0.08417
2956.76656,0.08328
2954.83781,0.08233
2952.90907,0.08121
2950.98032,0.08006
2949.05157,0.07890
2947.12283,0.07763
2945.19408,0.07637
2943.26534,0.07537
2941.33659,0.07464
2939.40785,0.07412
2937.47910,0.07396
2935.55036,0.07420
2933.62161,0.07438
2931.69287,0.07419
2929.76412,0.07389
2927.83538,0.07382
2925.90663,0.07382
2923.97789,0.07371
2922.04914,0.07357
2920.12040,0.07337
2918.19165,0.07319
2916.26290,0.07313
2914.33416,0.07321
2912.40541,0.07347
2910.47667,0.07382
2908.54792,0.07402
2906.61918,0.07400
2904.69043,0.07386
2902.76169,0.07374
2900.83294,0.07376
2898.90420,0.07408
2896.97545,0.07466
2895.04671,0.07530
2893.11796,0.07591
2891.18922,0.07640
2889.26047,0.07672
2887.33172,0.07710
2885.40298,0.07760
2883.47423,0.07808
2881.54549,0.07849
2879.61674,0.07887
2877.68800,0.07924
2875.75925,0.07968
2873.83051,0.08026
2871.90176,0.08094
2869.97302,0.08168
2868.04427,0.08246
2866.11553,0.08325
2864.18678,0.08399
2862.25804,0.08471
2860.32929,0.08542
2858.40055,0.08604
2856.47180,0.08657
2854.54305,0.08720
2852.61431,0.08822
2850.68556,0.08953
2848.75682,0.09084
2846.82807,0.09228
2844.89933,0.09393
2842.97058,0.09560
2841.04184,0.09729
2839.11309,0.09906
2837.18435,0.10079
2835.25560,0.10246
2833.32686,0.10434
2831.39811,0.10653
2829.46937,0.10878
2827.54062,0.11088
2825.61188,0.11289
2823.68313,0.11495
2821.75438,0.11714
2819.82564,0.11938
2817.89689,0.12136
2815.96815,0.12289
2814.03940,0.12421
2812.11066,0.12569
2810.18191,0.12733
2808.25317,0.12891
2806.32442,0.13036
2804.39568,0.13169
2802.46693,0.13298
2800.53819,0.13424
2798.60944,0.13526
2796.68070,0.13605
2794.75195,0.13671
2792.82320,0.13733
2790.89446,0.13818
2788.96571,0.13923
2787.03697,0.14006
2785.10822,0.14054
2783.17948,0.14098
2781.25073,0.14151
2779.32199,0.14209
2777.39324,0.14277
2775.46450,0.14342
2773.53575,0.14372
2771.60701,0.14384
2769.67826,0.14418
2767.74952,0.14461
2765.82077,0.14483
2763.89203,0.14506
2761.96328,0.14545
2760.03453,0.14582
2758.10579,0.14612
2756.17704,0.14638
2754.24830,0.14651
2752.31955,0.14659
2750.39081,0.14672
2748.46206,0.14678
2746.53332,0.14677
2744.60457,0.14679
2742.67583,0.14688
2740.74708,0.14707
2738.81834,0.14722
2736.88959,0.14726
2734.96085,0.14740
2733.03210,0.14783
2731.10336,0.14829
2729.17461,0.14858
2727.24586,0.14892
2725.31712,0.14950
2723.38837,0.15009
2721.45963,0.15048
2719.53088,0.15094
2717.60214,0.15158
2715.67339,0.15218
2713.74465,0.15264
2711.81590,0.15322
2709.88716,0.15413
2707.95841,0.15514
2706.02967,0.15598
2704.10092,0.15672
2702.17218,0.15731
2700.24343,0.15768
2698.31468,0.15815
2696.38594,0.15894
2694.45719,0.15989
2692.52845,0.16082
2690.59970,0.16169
2688.67096,0.16252
2686.74221,0.16332
2684.81347,0.16396
2682.88472,0.16433
2680.95598,0.16458
2679.02723,0.16509
2677.09849,0.16598
2675.16974,0.16676
2673.24100,0.16716
2671.31225,0.16758
2669.38351,0.16821
2667.45476,0.16882
2665.52601,0.16931
2663.59727,0.16965
2661.66852,0.16998
2659.73978,0.17053
2657.81103,0.17114
2655.88229,0.17149
2653.95354,0.17177
2652.02480,0.17221
2650.09605,0.17279
2648.16731,0.17342
2646.23856,0.17380
2644.30982,0.17394
2642.38107,0.17443
2640.45233,0.17535
2638.52358,0.17612
2636.59484,0.17661
2634.66609,0.17718
2632.73734,0.17798
2630.80860,0.17874
2628.87985,0.17935
2626.95111,0.18002
2625.02236,0.18065
2623.09362,0.18107
2621.16487,0.18155
2619.23613,0.18221
2617.30738,0.18281
2615.37864,0.18325
2613.44989,0.18352
2611.52115,0.18385
2609.59240,0.18444
2607.66366,0.18513
2605.73491,0.18564
2603.80616,0.18595
2601.87742,0.18635
2599.94867,0.18686
2598.01993,0.18738
2596.09118,0.18801
2594.16244,0.18862
2592.23369,0.18906
2590.30495,0.18946
2588.37620,0.18989
2586.44746,0.19031
2584.51871,0.19066
2582.58997,0.19094
2580.66122,0.19126
2578.73248,0.19169
2576.80373,0.19219
2574.87499,0.19262
2572.94624,0.19295
2571.01749,0.19323
2569.08875,0.19340
2567.16000,0.19350
2565.23126,0.19365
2563.30251,0.19388
2561.37377,0.19406
2559.44502,0.19410
2557.51628,0.19411
2555.58753,0.19408
2553.65879,0.19410
2551.73004,0.19430
2549.80130,0.19456
2547.87255,0.19471
2545.94381,0.19475
2544.01506,0.19479
2542.08631,0.19504
2540.15757,0.19547
2538.22882,0.19588
2536.30008,0.19618
2534.37133,0.19653
2532.44259,0.19701
2530.51384,0.19750
2528.58510,0.19808
2526.65635,0.19892
2524.72761,0.19973
2522.79886,0.20025
2520.87012,0.20066
2518.94137,0.20114
2517.01263,0.20157
2515.08388,0.20197
2513.15514,0.20249
2511.22639,0.20323
2509.29764,0.20412
2507.36890,0.20505
2505.44015,0.20593
2503.51141,0.20682
2501.58266,0.20787
2499.65392,0.20899
2497.72517,0.20999
2495.79643,0.21083
2493.86768,0.21160
2491.93894,0.21246
2490.01019,0.21345
2488.08145,0.21439
2486.15270,0.21518
2484.22396,0.21591
2482.29521,0.21663
2480.36647,0.21729
2478.43772,0.21793
2476.50897,0.21860
2474.58023,0.21938
2472.65148,0.22026
2470.72274,0.22115
2468.79399,0.22195
2466.86525,0.22268
2464.93650,0.22326
2463.00776,0.22374
2461.07901,0.22437
2459.15027,0.22507
2457.22152,0.22564
2455.29278,0.22625
2453.36403,0.22710
2451.43529,0.22803
2449.50654,0.22880
2447.57779,0.22948
2445.64905,0.23030
2443.72030,0.23136
2441.79156,0.23252
2439.86281,0.23346
2437.93407,0.23414
2436.00532,0.23483
2434.07658,0.23582
2432.14783,0.23703
2430.21909,0.23819
2428.29034,0.23916
2426.36160,0.24010
2424.43285,0.24114
2422.50411,0.24218
2420.57536,0.24319
2418.64662,0.24429
2416.71787,0.24542
2414.78912,0.24652
2412.86038,0.24770
2410.93163,0.24885
2409.00289,0.24972
2407.07414,0.25036
2405.14540,0.25112
2403.21665,0.25203
2401.28791,0.25298
2399.35916,0.25405
2397.43042,0.25501
2395.50167,0.25570
2393.57293,0.25647
2391.64418,0.25754
2389.71544,0.25864
2387.78669,0.25959
2385.85795,0.26048
2383.92920,0.26127
2382.00045,0.26196
2380.07171,0.26268
2378.14296,0.26341
2376.21422,0.26422
2374.28547,0.26521
2372.35673,0.26610
2370.42798,0.26667
2368.49924,0.26721
2366.57049,0.26798
2364.64175,0.26887
2362.71300,0.26965
2360.78426,0.27026
2358.85551,0.27080
2356.92677,0.27134
2354.99802,0.27184
2353.06927,0.27230
2351.14053,0.27278
2349.21178,0.27320
2347.28304,0.27366
2345.35429,0.27438
2343.42555,0.27509
2341.49680,0.27540
2339.56806,0.27554
2337.63931,0.27595
2335.71057,0.27652
2333.78182,0.27695
2331.85308,0.27718
2329.92433,0.27744
2327.99559,0.27783
2326.06684,0.27820
2324.13810,0.27835
2322.20935,0.27836
2320.28060,0.27849
2318.35186,0.27883
2316.42311,0.27918
2314.49437,0.27931
2312.56562,0.27922
2310.63688,0.27915
2308.70813,0.27918
2306.77939,0.27917
2304.85064,0.27908
2302.92190,0.27885
2300.99315,0.27841
2299.06441,0.27800
2297.13566,0.27790
2295.20692,0.27801
2293.27817,0.27810
2291.34943,0.27806
2289.42068,0.27787
2287.49193,0.27768
2285.56319,0.27764
2283.63444,0.27768
2281.70570,0.27768
2279.77695,0.27747
2277.84821,0.27710
2275.91946,0.27672
2273.99072,0.27626
2272.06197,0.27561
2270.13323,0.27492
2268.20448,0.27440
2266.27574,0.27392
2264.34699,0.27330
2262.41825,0.27261
2260.48950,0.27198
2258.56075,0.27144
2256.63201,0.27104
2254.70326,0.27069
2252.77452,0.27024
2250.84577,0.26985
2248.91703,0.26965
2246.98828,0.26946
2245.05954,0.26923
2243.13079,0.26914
2241.20205,0.26910
2239.27330,0.26891
2237.34456,0.26865
2235.41581,0.26828
2233.48707,0.26776
2231.55832,0.26730
2229.62958,0.26710
2227.70083,0.26713
2225.77208,0.26722
2223.84334,0.26730
2221.91459,0.26736
2219.98585,0.26728
2218.05710,0.26713
2216.12836,0.26707
2214.19961,0.26700
2212.27087,0.26683
2210.34212,0.26658
2208.41338,0.26631
2206.48463,0.26602
2204.55589,0.26550
2202.62714,0.26477
2200.69840,0.26410
2198.76965,0.26350
2196.84090,0.26283
2194.91216,0.26208
2192.98341,0.26126
2191.05467,0.26031
2189.12592,0.25927
2187.19718,0.25807
2185.26843,0.25674
2183.33969,0.25545
2181.41094,0.25440
2179.48220,0.25351
2177.55345,0.25251
2175.62471,0.25138
2173.69596,0.25025
2171.76722,0.24915
2169.83847,0.24805
2167.90973,0.24708
2165.98098,0.24632
2164.05223,0.24559
2162.12349,0.24472
2160.19474,0.24397
2158.26600,0.24345
2156.33725,0.24294
2154.40851,0.24232
2152.47976,0.24174
2150.55102,0.24124
2148.62227,0.24077
2146.69353,0.24030
2144.76478,0.23982
2142.83604,0.23947
2140.90729,0.23927
2138.97855,0.23905
2137.04980,0.23887
2135.12106,0.23886
2133.19231,0.23896
2131.26356,0.23903
2129.33482,0.23906
2127.40607,0.23920
2125.47733,0.23949
2123.54858,0.23978
2121.61984,0.24007
2119.69109,0.24046
2117.76235,0.24088
2115.83360,0.24116
2113.90486,0.24141
2111.97611,0.24175
2110.04737,0.24210
2108.11862,0.24232
2106.18988,0.24254
2104.26113,0.24290
2102.33238,0.24333
2100.40364,0.24365
2098.47489,0.24370
2096.54615,0.24361
2094.61740,0.24366
2092.68866,0.24379
2090.75991,0.24395
2088.83117,0.24423
2086.90242,0.24441
2084.97368,0.24428
2083.04493,0.24404
2081.11619,0.24376
2079.18744,0.24332
2077.25870,0.24277
2075.32995,0.24225
2073.40121,0.24179
2071.47246,0.24141
2069.54371,0.24118
2067.61497,0.24099
2065.68622,0.24076
2063.75748,0.24050
2061.82873,0.24017
2059.89999,0.23982
2057.97124,0.23963
2056.04250,0.23970
2054.11375,0.23982
2052.18501,0.23982
2050.25626,0.23991
2048.32752,0.24027
2046.39877,0.24076
2044.47003,0.24133
2042.54128,0.24210
2040.61254,0.24291
2038.68379,0.24364
2036.75504,0.24458
2034.82630,0.24571
2032.89755,0.24676
2030.96881,0.24776
2029.04006,0.24876
2027.11132,0.24970
2025.18257,0.25063
2023.25383,0.25164
2021.32508,0.25286
2019.39634,0.25430
2017.46759,0.25556
2015.53885,0.25644
2013.61010,0.25717
2011.68136,0.25790
2009.75261,0.25863
2007.82386,0.25927
2005.89512,0.25984
2003.96637,0.26049
2002.03763,0.26111
2000.10888,0.26157
1998.18014,0.26205
1996.25139,0.26270
1994.32265,0.26339
1992.39390,0.26402
1990.46516,0.26468
1988.53641,0.26537
1986.60767,0.26600
1984.67892,0.26652
1982.75018,0.26694
1980.82143,0.26729
1978.89269,0.26768
1976.96394,0.26820
1975.03519,0.26873
1973.10645,0.26922
1971.17770,0.26984
1969.24896,0.27049
1967.32021,0.27094
1965.39147,0.27137
1963.46272,0.27207
1961.53398,0.27298
1959.60523,0.27396
1957.67649,0.27491
1955.74774,0.27580
1953.81900,0.27672
1951.89025,0.27769
1949.96151,0.27870
1948.03276,0.27982
1946.10402,0.28100
1944.17527,0.28210
1942.24652,0.28300
1940.31778,0.28370
1938.38903,0.28435
1936.46029,0.28513
1934.53154,0.28599
1932.60280,0.28675
1930.67405,0.28731
1928.74531,0.28765
1926.81656,0.28781
1924.88782,0.28801
1922.95907,0.28832
1921.03033,0.28859
1919.10158,0.28876
1917.17284,0.28889
1915.24409,0.28897
1913.31534,0.28895
1911.38660,0.28882
1909.45785,0.28851
1907.52911,0.28815
1905.60036,0.28787
1903.67162,0.28759
1901.74287,0.28729
1899.81413,0.28704
1897.88538,0.28690
1895.95664,0.28682
1894.02789,0.28666
1892.09915,0.28648
1890.17040,0.28632
1888.24166,0.28613
1886.31291,0.28598
1884.38417,0.28578
1882.45542,0.28547
1880.52667,0.28520
1878.59793,0.28515
1876.66918,0.28529
1874.74044,0.28535
1872.81169,0.28522
1870.88295,0.28510
1868.95420,0.28496
1867.02546,0.28481
1865.09671,0.28465
1863.16797,0.28442
1861.23922,0.28413
1859.31048,0.28376
1857.38173,0.28334
1855.45299,0.28297
1853.52424,0.28257
1851.59549,0.28204
1849.66675,0.28146
1847.73800,0.28087
1845.80926,0.28027
1843.88051,0.27954
1841.95177,0.27866
1840.02302,0.27786
1838.09428,0.27709
1836.16553,0.27624
1834.23679,0.27546
1832.30804,0.27483
1830.37930,0.27403
1828.45055,0.27279
1826.52181,0.27141
1824.59306,0.27015
1822.66432,0.26887
1820.73557,0.26751
1818.80682,0.26613
1816.87808,0.26464
1814.94933,0.26284
1813.02059,0.26091
1811.09184,0.25907
1809.16310,0.25725
1807.23435,0.25532
1805.30561,0.25325
1803.37686,0.25101
1801.44812,0.24864
1799.51937,0.24624
1797.59063,0.24385
1795.66188,0.24142
1793.73314,0.23878
1791.80439,0.23558
1789.87565,0.23205
1787.94690,0.22849
1786.01815,0.22465
1784.08941,0.22052
1782.16066,0.21612
1780.23192,0.21115
1778.30317,0.20569
1776.37443,0.20019
1774.44568,0.19441
1772.51694,0.18738
1770.58819,0.17933
1768.65945,0.17120
1766.73070,0.16310
1764.80196,0.15531
1762.87321,0.14722
1760.94447,0.13854
1759.01572,0.13053
1757.08697,0.12330
1755.15823,0.11686
1753.22948,0.11158
1751.30074,0.10691
1749.37199,0.10250
1747.44325,0.09878
1745.51450,0.09594
1743.58576,0.09377
1741.65701,0.09202
1739.72827,0.09072
1737.79952,0.09011
1735.87078,0.09015
1733.94203,0.09061
1732.01329,0.09142
1730.08454,0.09259
1728.15580,0.09401
1726.22705,0.09559
1724.29830,0.09745
1722.36956,0.09947
1720.44081,0.10164
1718.51207,0.10441
1716.58332,0.10760
1714.65458,0.11038
1712.72583,0.11269
1710.79709,0.11490
1708.86834,0.11711
1706.93960,0.11921
1705.01085,0.12097
1703.08211,0.12232
1701.15336,0.12322
1699.22462,0.12359
1697.29587,0.12365
1695.36713,0.12325
1693.43838,0.12228
1691.50963,0.12116
1689.58089,0.11987
1687.65214,0.11833
1685.72340,0.11634
1683.79465,0.11354
1681.86591,0.11065
1679.93716,0.10810
1678.00842,0.10553
1676.07967,0.10264
1674.15093,0.09967
1672.22218,0.09719
1670.29344,0.09492
1668.36469,0.09257
1666.43595,0.09069
1664.50720,0.08919
1662.57845,0.08783
1660.64971,0.08698
1658.72096,0.08676
1656.79222,0.08697
1654.86347,0.08742
1652.93473,0.08773
1651.00598,0.08749
1649.07724,0.08708
1647.14849,0.08639
1645.21975,0.08535
1643.29100,0.08464
1641.36226,0.08450
1639.43351,0.08464
1637.50477,0.08478
1635.57602,0.08489
1633.64728,0.08514
1631.71853,0.08555
1629.78978,0.08593
1627.86104,0.08616
1625.93229,0.08629
1624.00355,0.08621
1622.07480,0.08581
1620.14606,0.08537
1618.21731,0.08490
1616.28857,0.08408
1614.35982,0.08315
1612.43108,0.08235
1610.50233,0.08146
1608.57359,0.08067
1606.64484,0.08031
1604.71610,0.08033
1602.78735,0.08048
1600.85861,0.08066
1598.92986,0.08083
1597.00111,0.08100
1595.07237,0.08130
1593.14362,0.08176
1591.21488,0.08246
1589.28613,0.08370
1587.35739,0.08546
1585.42864,0.08774
1583.49990,0.09074
1581.57115,0.09431
1579.64241,0.09817
1577.71366,0.10263
1575.78492,0.10786
1573.85617,0.11272
1571.92743,0.11705
1569.99868,0.12155
1568.06993,0.12574
1566.14119,0.12903
1564.21244,0.13169
1562.28370,0.13396
1560.35495,0.13600
1558.42621,0.13735
1556.49746,0.13756
1554.56872,0.13756
1552.63997,0.13764
1550.71123,0.13745
1548.78248,0.13680
1546.85374,0.13591
1544.92499,0.13485
1542.99625,0.13332
1541.06750,0.13086
1539.13876,0.12728
1537.21001,0.12385
1535.28126,0.12054
1533.35252,0.11597
1531.42377,0.11023
1529.49503,0.10419
1527.56628,0.09763
1525.63754,0.09077
1523.70879,0.08410
1521.78005,0.07689
1519.85130,0.06992
1517.92256,0.06484
1515.99381,0.06132
1514.06507,0.05914
1512.13632,0.05835
1510.20758,0.05870
1508.27883,0.06006
1506.35008,0.06201
1504.42134,0.06392
1502.49259,0.06598
1500.56385,0.06853
1498.63510,0.07135
1496.70636,0.07404
1494.77761,0.07614
1492.84887,0.07755
1490.92012,0.07837
1488.99138,0.07858
1487.06263,0.07824
1485.13389,0.07747
1483.20514,0.07628
1481.27640,0.07483
1479.34765,0.07326
1477.41891,0.07142
1475.49016,0.06921
1473.56141,0.06649
1471.63267,0.06351
1469.70392,0.06121
1467.77518,0.05978
1465.84643,0.05879
1463.91769,0.05813
1461.98894,0.05793
1460.06020,0.05805
1458.13145,0.05805
1456.20271,0.05759
1454.27396,0.05729
1452.34522,0.05750
1450.41647,0.05783
1448.48773,0.05819
1446.55898,0.05880
1444.63024,0.05940
1442.70149,0.05948
1440.77274,0.05912
1438.84400,0.05859
1436.91525,0.05771
1434.98651,0.05651
1433.05776,0.05564
1431.12902,0.05534
1429.20027,0.05542
1427.27153,0.05566
1425.34278,0.05607
1423.41404,0.05673
1421.48529,0.05759
1419.55655,0.05857
1417.62780,0.05965
1415.69906,0.06075
1413.77031,0.06177
1411.84156,0.06258
1409.91282,0.06313
1407.98407,0.06351
1406.05533,0.06376
1404.12658,0.06382
1402.19784,0.06360
1400.26909,0.06333
1398.34035,0.06305
1396.41160,0.06250
1394.48286,0.06151
1392.55411,0.06032
1390.62537,0.05926
1388.69662,0.05825
1386.76788,0.05702
1384.83913,0.05566
1382.91039,0.05449
1380.98164,0.05359
1379.05289,0.05297
1377.12415,0.05265
1375.19540,0.05262
1373.26666,0.05286
1371.33791,0.05338
1369.40917,0.05401
1367.48042,0.05453
1365.55168,0.05506
1363.62293,0.05576
1361.69419,0.05650
1359.76544,0.05707
1357.83670,0.05746
1355.90795,0.05787
1353.97921,0.05831
1352.05046,0.05866
1350.12172,0.05885
1348.19297,0.05874
1346.26422,0.05837
1344.33548,0.05791
1342.40673,0.05742
1340.47799,0.05702
1338.54924,0.05695
1336.62050,0.05705
1334.69175,0.05698
1332.76301,0.05669
1330.83426,0.05639
1328.90552,0.05615
1326.97677,0.05592
1325.04803,0.05567
1323.11928,0.05550
1321.19054,0.05549
1319.26179,0.05556
1317.33304,0.05567
1315.40430,0.05589
1313.47555,0.05632
1311.54681,0.05692
1309.61806,0.05747
1307.68932,0.05776
1305.76057,0.05785
1303.83183,0.05777
1301.90308,0.05757
1299.97434,0.05741
1298.04559,0.05730
1296.11685,0.05707
1294.18810,0.05657
1292.25936,0.05567
1290.33061,0.05460
1288.40187,0.05363
1286.47312,0.05269
1284.54437,0.05184
1282.61563,0.05131
1280.68688,0.05108
1278.75814,0.05090
1276.82939,0.05063
1274.90065,0.05028
1272.97190,0.05010
1271.04316,0.05017
1269.11441,0.05037
1267.18567,0.05069
1265.25692,0.05126
1263.32818,0.05193
1261.39943,0.05255
1259.47069,0.05316
1257.54194,0.05375
1255.61320,0.05423
1253.68445,0.05453
1251.75570,0.05458
1249.82696,0.05447
1247.89821,0.05445
1245.96947,0.05452
1244.04072,0.05459
1242.11198,0.05465
1240.18323,0.05459
1238.25449,0.05431
1236.32574,0.05392
1234.39700,0.05358
1232.46825,0.05344
1230.53951,0.05351
1228.61076,0.05377
1226.68202,0.05423
1224.75327,0.05470
1222.82452,0.05495
1220.89578,0.05497
1218.96703,0.05497
1217.03829,0.05503
1215.10954,0.05504
1213.18080,0.05487
1211.25205,0.05478
1209.32331,0.05493
1207.39456,0.05498
1205.46582,0.05488
1203.53707,0.05487
1201.60833,0.05495
1199.67958,0.05496
1197.75084,0.05490
1195.82209,0.05476
1193.89335,0.05443
1191.96460,0.05387
1190.03585,0.05311
1188.10711,0.05220
1186.17836,0.05121
1184.24962,0.05022
1182.32087,0.04921
1180.39213,0.04810
1178.46338,0.04703
1176.53464,0.04626
1174.60589,0.04591
1172.67715,0.04597
1170.74840,0.04654
1168.81966,0.04760
1166.89091,0.04890
1164.96217,0.05015
1163.03342,0.05117
1161.10467,0.05179
1159.17593,0.05201
1157.24718,0.05204
1155.31844,0.05188
1153.38969,0.05139
1151.46095,0.05073
1149.53220,0.04998
1147.60346,0.04910
1145.67471,0.04807
1143.74597,0.04691
1141.81722,0.04580
1139.88848,0.04492
1137.95973,0.04419
1136.03099,0.04348
1134.10224,0.04279
1132.17350,0.04229
1130.24475,0.04213
1128.31600,0.04234
1126.38726,0.04285
1124.45851,0.04333
1122.52977,0.04355
1120.60102,0.04389
1118.67228,0.04458
1116.74353,0.04537
1114.81479,0.04618
1112.88604,0.04706
1110.95730,0.04799
1109.02855,0.04891
1107.09981,0.04961
1105.17106,0.04993
1103.24232,0.05013
1101.31357,0.05028
1099.38483,0.05006
1097.45608,0.04962
1095.52733,0.04910
1093.59859,0.04852
1091.66984,0.04830
1089.74110,0.04850
1087.81235,0.04885
1085.88361,0.04924
1083.95486,0.04987
1082.02612,0.05101
1080.09737,0.05258
1078.16863,0.05436
1076.23988,0.05629
1074.31114,0.05829
1072.38239,0.06033
1070.45365,0.06252
1068.52490,0.06497
1066.59615,0.06751
1064.66741,0.07017
1062.73866,0.07314
1060.80992,0.07613
1058.88117,0.07832
1056.95243,0.07935
1055.02368,0.07942
1053.09494,0.07879
1051.16619,0.07757
1049.23745,0.07598
1047.30870,0.07458
1045.37996,0.07396
1043.45121,0.07411
1041.52247,0.07474
1039.59372,0.07602
1037.66498,0.07813
1035.73623,0.08040
1033.80748,0.08217
1031.87874,0.08359
1029.94999,0.08478
1028.02125,0.08550
1026.09250,0.08578
1024.16376,0.08606
1022.23501,0.08643
1020.30627,0.08685
1018.37752,0.08735
1016.44878,0.08796
1014.52003,0.08861
1012.59129,0.08898
1010.66254,0.08898
1008.73380,0.08888
1006.80505,0.08894
1004.87631,0.08945
1002.94756,0.09049
1001.01881,0.09162
999.09007,0.09256
997.16132,0.09350
995.23258,0.09444
993.30383,0.09536
991.37509,0.09660
989.44634,0.09841
987.51760,0.10069
985.58885,0.10322
983.66011,0.10590
981.73136,0.10852
979.80262,0.11067
977.87387,0.11210
975.94513,0.11316
974.01638,0.11407
972.08763,0.11448
970.15889,0.11445
968.23014,0.11461
966.30140,0.11507
964.37265,0.11557
962.44391,0.11619
960.51516,0.11711
958.58642,0.11829
956.65767,0.11964
954.72893,0.12106
952.80018,0.12228
950.87144,0.12319
948.94269,0.12379
947.01395,0.12422
945.08520,0.12476
943.15646,0.12527
941.22771,0.12559
939.29896,0.12616
937.37022,0.12722
935.44147,0.12830
933.51273,0.12908
931.58398,0.12977
929.65524,0.13067
927.72649,0.13161
925.79775,0.13204
923.86900,0.13160
921.94026,0.13085
920.01151,0.13048
918.08277,0.13001
916.15402,0.12861
914.22528,0.12636
912.29653,0.12393
910.36779,0.12168
908.43904,0.11936
906.51029,0.11687
904.58155,0.11462
902.65280,0.11275
900.72406,0.11113
898.79531,0.11004
896.86657,0.11004
894.93782,0.11117
893.00908,0.11279
891.08033,0.11437
889.15159,0.11580
887.22284,0.11685
885.29410,0.11744
883.36535,0.11785
881.43661,0.11826
879.50786,0.11852
877.57911,0.11837
875.65037,0.11788
873.72162,0.11747
871.79288,0.11719
869.86413,0.11685
867.93539,0.11671
866.00664,0.11690
864.07790,0.11700
862.14915,0.11691
860.22041,0.11715
858.29166,0.11786
856.36292,0.11876
854.43417,0.11977
852.50543,0.12098
850.57668,0.12247
848.64794,0.12398
846.71919,0.12497
844.79044,0.12568
842.86170,0.12635
840.93295,0.12631
839.00421,0.12526
837.07546,0.12372
835.14672,0.12214
833.21797,0.12073
831.28923,0.11964
829.36048,0.11877
827.43174,0.11758
825.50299,0.11579
823.57425,0.11385
821.64550,0.11214
819.71676,0.11050
817.78801,0.10876
815.85926,0.10707
813.93052,0.10572
812.00177,0.10489
810.07303,0.10468
808.14428,0.10493
806.21554,0.10517
804.28679,0.10542
802.35805,0.10611
800.42930,0.10731
798.50056,0.10854
796.57181,0.10934
794.64307,0.10962
792.71432,0.10939
790.78558,0.10868
788.85683,0.10779
786.92809,0.10694
784.99934,0.10610
783.07059,0.10529
781.14185,0.10455
779.21310,0.10363
777.28436,0.10234
775.35561,0.10099
773.42687,0.10002
771.49812,0.09958
769.56938,0.09943
767.64063,0.09929
765.71189,0.09886
763.78314,0.09803
761.85440,0.09711
759.92565,0.09631
757.99691,0.09546
756.06816,0.09454
754.13942,0.09386
752.21067,0.09341
750.28192,0.09312
748.35318,0.09314
746.42443,0.09337
744.49569,0.09351
742.56694,0.09330
740.63820,0.09273
738.70945,0.09218
736.78071,0.09169
734.85196,0.09124
732.92322,0.09086
730.99447,0.09014
729.06573,0.08878
727.13698,0.08753
725.20824,0.08725
723.27949,0.08719
721.35074,0.08636
719.42200,0.08540
717.49325,0.08503
715.56451,0.08471
713.63576,0.08427
711.70702,0.08406
709.77827,0.08391
707.84953,0.08349
705.92078,0.08296
703.99204,0.08258
702.06329,0.08221
700.13455,0.08182
698.20580,0.08160
696.27706,0.08139
694.34831,0.08085
692.41957,0.08015
690.49082,0.07981
688.56207,0.07956
686.63333,0.07875
684.70458,0.07750
682.77584,0.07629
680.84709,0.07540
678.91835,0.07497
676.98960,0.07466
675.06086,0.07374
673.13211,0.07256
671.20337,0.07255
669.27462,0.07348
667.34588,0.07375
665.41713,0.07372
663.48839,0.07451
661.55964,0.07566
659.63090,0.07675
657.70215,0.07749
655.77340,0.07772
653.84466,0.07774
651.91591,0.07726
649.98717,0.07624
648.05842,0.07574
646.12968,0.07585
644.20093,0.07580
642.27219,0.07573
640.34344,0.07568
638.41470,0.07515
636.48595,0.07439
634.55721,0.07383
632.62846,0.07318
630.69972,0.07241
628.77097,0.07189
626.84222,0.07186
624.91348,0.07265
622.98473,0.07384
621.05599,0.07400
619.12724,0.07305
617.19850,0.07266
615.26975,0.07347
613.34101,0.07538
611.41226,0.07822
609.48352,0.07998
607.55477,0.07920
605.62603,0.07775
603.69728,0.07712
601.76854,0.07696
599.83979,0.07711
