7497.03301,0.83438
7495.10426,0.82678
7493.17552,0.82526
7491.24677,0.82626
7489.31803,0.82389
7487.38928,0.82156
7485.46054,0.82636
7483.53179,0.83726
7481.60305,0.84249
7479.67430,0.83771
7477.74556,0.83251
7475.81681,0.83026
7473.88807,0.82784
7471.95932,0.82877
7470.03057,0.83214
7468.10183,0.83058
7466.17308,0.82583
7464.24434,0.82412
7462.31559,0.82474
7460.38685,0.82405
7458.45810,0.82425
7456.52936,0.82618
7454.60061,0.82565
7452.67187,0.82356
7450.74312,0.82108
7448.81438,0.81685
7446.88563,0.81359
7444.95689,0.81254
7443.02814,0.81029
7441.09940,0.80652
7439.17065,0.80510
7437.24190,0.80427
7435.31316,0.80143
7433.38441,0.80099
7431.45567,0.80338
7429.52692,0.80563
7427.59818,0.80830
7425.66943,0.80948
7423.74069,0.80652
7421.81194,0.80469
7419.88320,0.80874
7417.95445,0.81288
7416.02571,0.81240
7414.09696,0.80932
7412.16822,0.80257
7410.23947,0.79268
7408.31073,0.78887
7406.38198,0.79427
7404.45323,0.79816
7402.52449,0.79412
7400.59574,0.78744
7398.66700,0.78451
7396.73825,0.78786
7394.80951,0.79514
7392.88076,0.80075
7390.95202,0.80065
7389.02327,0.79662
7387.09453,0.79250
7385.16578,0.79014
7383.23704,0.79026
7381.30829,0.79138
7379.37955,0.79197
7377.45080,0.79125
7375.52205,0.78906
7373.59331,0.78736
7371.66456,0.78574
7369.73582,0.78216
7367.80707,0.77821
7365.87833,0.77674
7363.94958,0.77850
7362.02084,0.78229
7360.09209,0.78429
7358.16335,0.78147
7356.23460,0.77767
7354.30586,0.77787
7352.37711,0.78112
7350.44837,0.78389
7348.51962,0.78229
7346.59088,0.77694
7344.66213,0.77475
7342.73338,0.77715
7340.80464,0.77930
7338.87589,0.78115
7336.94715,0.78257
7335.01840,0.77975
7333.08966,0.77606
7331.16091,0.77619
7329.23217,0.77595
7327.30342,0.77197
7325.37468,0.76782
7323.44593,0.76556
7321.51719,0.76428
7319.58844,0.76606
7317.65970,0.77138
7315.73095,0.77452
7313.80221,0.77483
7311.87346,0.77692
7309.94471,0.77743
7308.01597,0.77284
7306.08722,0.77011
7304.15848,0.77324
7302.22973,0.77622
7300.30099,0.77529
7298.37224,0.77394
7296.44350,0.77440
7294.51475,0.77369
7292.58601,0.76996
7290.65726,0.76607
7288.72852,0.76449
7286.79977,0.76443
7284.87103,0.76334
7282.94228,0.76208
7281.01353,0.76475
7279.08479,0.76957
7277.15604,0.77203
7275.22730,0.77229
7273.29855,0.77147
7271.36981,0.77078
7269.44106,0.77042
7267.51232,0.77028
7265.58357,0.77198
7263.65483,0.77285
7261.72608,0.77172
7259.79734,0.77198
7257.86859,0.77126
7255.93985,0.76906
7254.01110,0.76828
7252.08236,0.76591
7250.15361,0.76378
7248.22486,0.76552
7246.29612,0.76601
7244.36737,0.76458
7242.43863,0.76609
7240.50988,0.76867
7238.58114,0.76963
7236.65239,0.76943
7234.72365,0.76705
7232.79490,0.76418
7230.86616,0.76415
7228.93741,0.76478
7227.00867,0.76381
7225.07992,0.76267
7223.15118,0.76190
7221.22243,0.76095
7219.29369,0.76062
7217.36494,0.76073
7215.43619,0.75861
7213.50745,0.75489
7211.57870,0.75298
7209.64996,0.75283
7207.72121,0.75257
7205.79247,0.75144
7203.86372,0.75104
7201.93498,0.75318
7200.00623,0.75540
7198.07749,0.75419
7196.14874,0.75036
7194.22000,0.74729
7192.29125,0.74729
7190.36251,0.74992
7188.43376,0.75205
7186.50501,0.75133
7184.57627,0.74922
7182.64752,0.74844
7180.71878,0.74850
7178.79003,0.74741
7176.86129,0.74721
7174.93254,0.74872
7173.00380,0.74706
7171.07505,0.74134
7169.14631,0.73796
7167.21756,0.73873
7165.28882,0.73829
7163.36007,0.73605
7161.43133,0.73523
7159.50258,0.73369
7157.57384,0.73002
7155.64509,0.72758
7153.71634,0.72740
7151.78760,0.72794
7149.85885,0.72910
7147.93011,0.73077
7146.00136,0.73020
7144.07262,0.72631
7142.14387,0.72357
7140.21513,0.72609
7138.28638,0.73105
7136.35764,0.73191
7134.42889,0.72732
7132.50015,0.72158
7130.57140,0.71756
7128.64266,0.71456
7126.71391,0.71143
7124.78516,0.70996
7122.85642,0.71160
7120.92767,0.71095
7118.99893,0.70403
7117.07018,0.69680
7115.14144,0.69586
7113.21269,0.70040
7111.28395,0.70501
7109.35520,0.70563
7107.42646,0.70160
7105.49771,0.69563
7103.56897,0.69334
7101.64022,0.69684
7099.71148,0.70165
7097.78273,0.70158
7095.85399,0.69531
7093.92524,0.68911
7091.99649,0.68776
7090.06775,0.68800
7088.13900,0.68641
7086.21026,0.68498
7084.28151,0.68507
7082.35277,0.68277
7080.42402,0.67635
7078.49528,0.67063
7076.56653,0.66860
7074.63779,0.66862
7072.70904,0.66823
7070.78030,0.66580
7068.85155,0.66280
7066.92281,0.66080
7064.99406,0.65851
7063.06532,0.65538
7061.13657,0.65154
7059.20782,0.64843
7057.27908,0.64771
7055.35033,0.64725
7053.42159,0.64495
7051.49284,0.64203
7049.56410,0.64138
7047.63535,0.64315
7045.70661,0.64345
7043.77786,0.64056
7041.84912,0.63727
7039.92037,0.63731
7037.99163,0.63986
7036.06288,0.63964
7034.13414,0.63410
7032.20539,0.62668
7030.27664,0.62319
7028.34790,0.62396
7026.41915,0.62460
7024.49041,0.62390
7022.56166,0.62298
7020.63292,0.62121
7018.70417,0.61681
7016.77543,0.61222
7014.84668,0.61200
7012.91794,0.61345
7010.98919,0.61184
7009.06045,0.60870
7007.13170,0.60609
7005.20296,0.60436
7003.27421,0.60425
7001.34547,0.60522
6999.41672,0.60680
6997.48797,0.60848
6995.55923,0.60882
6993.63048,0.60792
6991.70174,0.60583
6989.77299,0.60220
6987.84425,0.59883
6985.91550,0.59754
6983.98676,0.59678
6982.05801,0.59539
6980.12927,0.59585
6978.20052,0.59834
6976.27178,0.59962
6974.34303,0.59797
6972.41429,0.59462
6970.48554,0.59254
6968.55680,0.59210
6966.62805,0.59215
6964.69930,0.59327
6962.77056,0.59558
6960.84181,0.59744
6958.91307,0.59768
6956.98432,0.59702
6955.05558,0.59523
6953.12683,0.59199
6951.19809,0.58978
6949.26934,0.58980
6947.34060,0.58944
6945.41185,0.58711
6943.48311,0.58480
6941.55436,0.58445
6939.62562,0.58586
6937.69687,0.58790
6935.76812,0.58971
6933.83938,0.59059
6931.91063,0.58948
6929.98189,0.58690
6928.05314,0.58447
6926.12440,0.58275
6924.19565,0.58222
6922.26691,0.58305
6920.33816,0.58377
6918.40942,0.58380
6916.48067,0.58457
6914.55193,0.58613
6912.62318,0.58664
6910.69444,0.58432
6908.76569,0.58032
6906.83695,0.57819
6904.90820,0.57910
6902.97945,0.58246
6901.05071,0.58709
6899.12196,0.59017
6897.19322,0.58834
6895.26447,0.58247
6893.33573,0.57966
6891.40698,0.58233
6889.47824,0.58417
6887.54949,0.58191
6885.62075,0.57979
6883.69200,0.58224
6881.76326,0.58657
6879.83451,0.58725
6877.90577,0.58573
6875.97702,0.58543
6874.04828,0.58432
6872.11953,0.58139
6870.19078,0.57921
6868.26204,0.57955
6866.33329,0.58182
6864.40455,0.58276
6862.47580,0.58223
6860.54706,0.58346
6858.61831,0.58458
6856.68957,0.58267
6854.76082,0.58033
6852.83208,0.58035
6850.90333,0.58217
6848.97459,0.58520
6847.04584,0.58882
6845.11710,0.58934
6843.18835,0.58568
6841.25960,0.58243
6839.33086,0.58177
6837.40211,0.58116
6835.47337,0.57967
6833.54462,0.57950
6831.61588,0.58162
6829.68713,0.58376
6827.75839,0.58344
6825.82964,0.58183
6823.90090,0.58188
6821.97215,0.58351
6820.04341,0.58428
6818.11466,0.58314
6816.18592,0.58138
6814.25717,0.58033
6812.32843,0.57881
6810.39968,0.57558
6808.47093,0.57260
6806.54219,0.57248
6804.61344,0.57505
6802.68470,0.57853
6800.75595,0.58181
6798.82721,0.58398
6796.89846,0.58464
6794.96972,0.58466
6793.04097,0.58437
6791.11223,0.58250
6789.18348,0.58008
6787.25474,0.58019
6785.32599,0.58129
6783.39725,0.58084
6781.46850,0.58059
6779.53975,0.58051
6777.61101,0.57953
6775.68226,0.57915
6773.75352,0.57962
6771.82477,0.58053
6769.89603,0.58227
6767.96728,0.58343
6766.03854,0.58245
6764.10979,0.58007
6762.18105,0.57720
6760.25230,0.57488
6758.32356,0.57586
6756.39481,0.58044
6754.46607,0.58371
6752.53732,0.58284
6750.60858,0.58145
6748.67983,0.58165
6746.75108,0.58192
6744.82234,0.58294
6742.89359,0.58501
6740.96485,0.58584
6739.03610,0.58575
6737.10736,0.58627
6735.17861,0.58640
6733.24987,0.58607
6731.32112,0.58686
6729.39238,0.58727
6727.46363,0.58541
6725.53489,0.58445
6723.60614,0.58698
6721.67740,0.58943
6719.74865,0.58917
6717.81991,0.58841
6715.89116,0.58853
6713.96241,0.58914
6712.03367,0.58925
6710.10492,0.58771
6708.17618,0.58605
6706.24743,0.58696
6704.31869,0.58982
6702.38994,0.59136
6700.46120,0.59031
6698.53245,0.58857
6696.60371,0.58736
6694.67496,0.58588
6692.74622,0.58435
6690.81747,0.58450
6688.88873,0.58656
6686.95998,0.58904
6685.03123,0.59009
6683.10249,0.58862
6681.17374,0.58644
6679.24500,0.58636
6677.31625,0.58847
6675.38751,0.59047
6673.45876,0.59078
6671.53002,0.59050
6669.60127,0.59132
6667.67253,0.59265
6665.74378,0.59247
6663.81504,0.59040
6661.88629,0.58955
6659.95755,0.59143
6658.02880,0.59279
6656.10006,0.59252
6654.17131,0.59224
6652.24256,0.59208
6650.31382,0.59218
6648.38507,0.59201
6646.45633,0.59109
6644.52758,0.59088
6642.59884,0.59211
6640.67009,0.59414
6638.74135,0.59573
6636.81260,0.59603
6634.88386,0.59619
6632.95511,0.59709
6631.02637,0.59745
6629.09762,0.59695
6627.16888,0.59740
6625.24013,0.59869
6623.31139,0.59977
6621.38264,0.60109
6619.45389,0.60221
6617.52515,0.60292
6615.59640,0.60350
6613.66766,0.60364
6611.73891,0.60366
6609.81017,0.60343
6607.88142,0.60339
6605.95268,0.60401
6604.02393,0.60421
6602.09519,0.60382
6600.16644,0.60279
6598.23770,0.60179
6596.30895,0.60286
6594.38021,0.60388
6592.45146,0.60244
6590.52271,0.60213
6588.59397,0.60477
6586.66522,0.60709
6584.73648,0.60698
6582.80773,0.60586
6580.87899,0.60621
6578.95024,0.60753
6577.02150,0.60807
6575.09275,0.60820
6573.16401,0.60848
6571.23526,0.60871
6569.30652,0.60902
6567.37777,0.60895
6565.44903,0.60803
6563.52028,0.60756
6561.59154,0.60858
6559.66279,0.61017
6557.73404,0.61124
6555.80530,0.61119
6553.87655,0.61056
6551.94781,0.61093
6550.01906,0.61275
6548.09032,0.61432
6546.16157,0.61358
6544.23283,0.61147
6542.30408,0.61100
6540.37534,0.61243
6538.44659,0.61335
6536.51785,0.61355
6534.58910,0.61430
6532.66036,0.61465
6530.73161,0.61409
6528.80287,0.61294
6526.87412,0.61031
6524.94537,0.60763
6523.01663,0.60809
6521.08788,0.61097
6519.15914,0.61238
6517.23039,0.61145
6515.30165,0.61058
6513.37290,0.61120
6511.44416,0.61296
6509.51541,0.61438
6507.58667,0.61442
6505.65792,0.61429
6503.72918,0.61475
6501.80043,0.61466
6499.87169,0.61417
6497.94294,0.61432
6496.01419,0.61514
6494.08545,0.61601
6492.15670,0.61635
6490.22796,0.61616
6488.29921,0.61556
6486.37047,0.61485
6484.44172,0.61494
6482.51298,0.61517
6480.58423,0.61359
6478.65549,0.61124
6476.72674,0.61070
6474.79800,0.61234
6472.86925,0.61561
6470.94051,0.61763
6469.01176,0.61622
6467.08302,0.61479
6465.15427,0.61519
6463.22552,0.61531
6461.29678,0.61522
6459.36803,0.61565
6457.43929,0.61556
6455.51054,0.61481
6453.58180,0.61481
6451.65305,0.61582
6449.72431,0.61680
6447.79556,0.61683
6445.86682,0.61599
6443.93807,0.61537
6442.00933,0.61538
6440.08058,0.61480
6438.15184,0.61393
6436.22309,0.61540
6434.29434,0.61826
6432.36560,0.61878
6430.43685,0.61716
6428.50811,0.61614
6426.57936,0.61681
6424.65062,0.61791
6422.72187,0.61782
6420.79313,0.61695
6418.86438,0.61694
6416.93564,0.61790
6415.00689,0.61860
6413.07815,0.61932
6411.14940,0.62090
6409.22066,0.62315
6407.29191,0.62499
6405.36317,0.62455
6403.43442,0.62190
6401.50567,0.61992
6399.57693,0.61981
6397.64818,0.61969
6395.71944,0.61886
6393.79069,0.61830
6391.86195,0.61823
6389.93320,0.61880
6388.00446,0.62034
6386.07571,0.62278
6384.14697,0.62501
6382.21822,0.62504
6380.28948,0.62294
6378.36073,0.62099
6376.43199,0.62070
6374.50324,0.62161
6372.57450,0.62241
6370.64575,0.62338
6368.71700,0.62547
6366.78826,0.62792
6364.85951,0.62885
6362.93077,0.62726
6361.00202,0.62431
6359.07328,0.62203
6357.14453,0.62189
6355.21579,0.62366
6353.28704,0.62515
6351.35830,0.62558
6349.42955,0.62561
6347.50081,0.62486
6345.57206,0.62418
6343.64332,0.62511
6341.71457,0.62677
6339.78582,0.62695
6337.85708,0.62528
6335.92833,0.62410
6333.99959,0.62477
6332.07084,0.62553
6330.14210,0.62528
6328.21335,0.62480
6326.28461,0.62474
6324.35586,0.62617
6322.42712,0.62875
6320.49837,0.62991
6318.56963,0.62885
6316.64088,0.62798
6314.71214,0.62945
6312.78339,0.63109
6310.85465,0.63048
6308.92590,0.62944
6306.99715,0.62958
6305.06841,0.62979
6303.13966,0.62852
6301.21092,0.62705
6299.28217,0.62738
6297.35343,0.62845
6295.42468,0.62933
6293.49594,0.63021
6291.56719,0.63129
6289.63845,0.63236
6287.70970,0.63262
6285.78096,0.63208
6283.85221,0.63117
6281.92347,0.63098
6279.99472,0.63246
6278.06598,0.63470
6276.13723,0.63608
6274.20848,0.63635
6272.27974,0.63688
6270.35099,0.63800
6268.42225,0.63867
6266.49350,0.63865
6264.56476,0.63814
6262.63601,0.63715
6260.70727,0.63603
6258.77852,0.63622
6256.84978,0.63826
6254.92103,0.64006
6252.99229,0.64060
6251.06354,0.64133
6249.13480,0.64237
6247.20605,0.64322
6245.27730,0.64411
6243.34856,0.64431
6241.41981,0.64389
6239.49107,0.64409
6237.56232,0.64488
6235.63358,0.64576
6233.70483,0.64702
6231.77609,0.64833
6229.84734,0.64913
6227.91860,0.65071
6225.98985,0.65367
6224.06111,0.65603
6222.13236,0.65667
6220.20362,0.65633
6218.27487,0.65524
6216.34613,0.65321
6214.41738,0.65142
6212.48863,0.65170
6210.55989,0.65361
6208.63114,0.65472
6206.70240,0.65529
6204.77365,0.65745
6202.84491,0.66031
6200.91616,0.66171
6198.98742,0.66127
6197.05867,0.65979
6195.12993,0.65897
6193.20118,0.65943
6191.27244,0.66032
6189.34369,0.66128
6187.41495,0.66153
6185.48620,0.66071
6183.55746,0.66083
6181.62871,0.66284
6179.69996,0.66526
6177.77122,0.66681
6175.84247,0.66707
6173.91373,0.66679
6171.98498,0.66647
6170.05624,0.66559
6168.12749,0.66526
6166.19875,0.66710
6164.27000,0.66995
6162.34126,0.67213
6160.41251,0.67353
6158.48377,0.67367
6156.55502,0.67236
6154.62628,0.67107
6152.69753,0.67080
6150.76878,0.67131
6148.84004,0.67194
6146.91129,0.67215
6144.98255,0.67203
6143.05380,0.67228
6141.12506,0.67330
6139.19631,0.67440
6137.26757,0.67492
6135.33882,0.67537
6133.41008,0.67619
6131.48133,0.67692
6129.55259,0.67782
6127.62384,0.67906
6125.69510,0.67941
6123.76635,0.67880
6121.83761,0.67834
6119.90886,0.67754
6117.98011,0.67538
6116.05137,0.67337
6114.12262,0.67397
6112.19388,0.67636
6110.26513,0.67844
6108.33639,0.68043
6106.40764,0.68274
6104.47890,0.68416
6102.55015,0.68408
6100.62141,0.68367
6098.69266,0.68323
6096.76392,0.68225
6094.83517,0.68150
6092.90643,0.68109
6090.97768,0.68041
6089.04893,0.68055
6087.12019,0.68180
6085.19144,0.68231
6083.26270,0.68146
6081.33395,0.68051
6079.40521,0.68073
6077.47646,0.68134
6075.54772,0.68088
6073.61897,0.68023
6071.69023,0.68028
6069.76148,0.68004
6067.83274,0.67899
6065.90399,0.67754
6063.97525,0.67734
6062.04650,0.67926
6060.11776,0.68034
6058.18901,0.67828
6056.26026,0.67602
6054.33152,0.67653
6052.40277,0.67765
6050.47403,0.67716
6048.54528,0.67685
6046.61654,0.67732
6044.68779,0.67714
6042.75905,0.67655
6040.83030,0.67592
6038.90156,0.67495
6036.97281,0.67416
6035.04407,0.67361
6033.11532,0.67273
6031.18658,0.67134
6029.25783,0.67021
6027.32909,0.67022
6025.40034,0.67071
6023.47159,0.67092
6021.54285,0.67096
6019.61410,0.67071
6017.68536,0.66993
6015.75661,0.66838
6013.82787,0.66701
6011.89912,0.66750
6009.97038,0.66860
6008.04163,0.66757
6006.11289,0.66478
6004.18414,0.66282
6002.25540,0.66235
6000.32665,0.66160
5998.39791,0.65994
5996.46916,0.65883
5994.54041,0.65894
5992.61167,0.65964
5990.68292,0.66011
5988.75418,0.65937
5986.82543,0.65839
5984.89669,0.65897
5982.96794,0.65976
5981.03920,0.65899
5979.11045,0.65774
5977.18171,0.65740
5975.25296,0.65762
5973.32422,0.65742
5971.39547,0.65682
5969.46673,0.65650
5967.53798,0.65673
5965.60924,0.65724
5963.68049,0.65778
5961.75174,0.65843
5959.82300,0.65851
5957.89425,0.65779
5955.96551,0.65743
5954.03676,0.65779
5952.10802,0.65843
5950.17927,0.65968
5948.25053,0.66081
5946.32178,0.66042
5944.39304,0.65942
5942.46429,0.66013
5940.53555,0.66262
5938.60680,0.66396
5936.67806,0.66285
5934.74931,0.66229
5932.82057,0.66347
5930.89182,0.66402
5928.96307,0.66341
5927.03433,0.66289
5925.10558,0.66286
5923.17684,0.66318
5921.24809,0.66329
5919.31935,0.66231
5917.39060,0.66003
5915.46186,0.65821
5913.53311,0.65852
5911.60437,0.65937
5909.67562,0.65854
5907.74688,0.65701
5905.81813,0.65611
5903.88939,0.65572
5901.96064,0.65606
5900.03189,0.65692
5898.10315,0.65737
5896.17440,0.65751
5894.24566,0.65802
5892.31691,0.65859
5890.38817,0.65828
5888.45942,0.65697
5886.53068,0.65547
5884.60193,0.65463
5882.67319,0.65445
5880.74444,0.65464
5878.81570,0.65533
5876.88695,0.65582
5874.95821,0.65561
5873.02946,0.65501
5871.10072,0.65392
5869.17197,0.65317
5867.24322,0.65328
5865.31448,0.65311
5863.38573,0.65297
5861.45699,0.65366
5859.52824,0.65466
5857.59950,0.65639
5855.67075,0.65889
5853.74201,0.66059
5851.81326,0.66039
5849.88452,0.65854
5847.95577,0.65646
5846.02703,0.65518
5844.09828,0.65477
5842.16954,0.65518
5840.24079,0.65553
5838.31205,0.65524
5836.38330,0.65509
5834.45455,0.65541
5832.52581,0.65555
5830.59706,0.65496
5828.66832,0.65423
5826.73957,0.65446
5824.81083,0.65494
5822.88208,0.65412
5820.95334,0.65277
5819.02459,0.65287
5817.09585,0.65396
5815.16710,0.65423
5813.23836,0.65328
5811.30961,0.65186
5809.38087,0.65082
5807.45212,0.65061
5805.52337,0.65089
5803.59463,0.65090
5801.66588,0.65079
5799.73714,0.65113
5797.80839,0.65142
5795.87965,0.65103
5793.95090,0.65025
5792.02216,0.64967
5790.09341,0.64969
5788.16467,0.65033
5786.23592,0.65134
5784.30718,0.65214
5782.37843,0.65212
5780.44969,0.65150
5778.52094,0.65091
5776.59220,0.65061
5774.66345,0.65069
5772.73470,0.65142
5770.80596,0.65219
5768.87721,0.65243
5766.94847,0.65284
5765.01972,0.65380
5763.09098,0.65471
5761.16223,0.65454
5759.23349,0.65337
5757.30474,0.65247
5755.37600,0.65215
5753.44725,0.65198
5751.51851,0.65213
5749.58976,0.65259
5747.66102,0.65247
5745.73227,0.65191
5743.80352,0.65258
5741.87478,0.65407
5739.94603,0.65404
5738.01729,0.65206
5736.08854,0.65003
5734.15980,0.64986
5732.23105,0.65135
5730.30231,0.65295
5728.37356,0.65427
5726.44482,0.65491
5724.51607,0.65399
5722.58733,0.65250
5720.65858,0.65165
5718.72984,0.65087
5716.80109,0.64964
5714.87235,0.64878
5712.94360,0.64908
5711.01485,0.65045
5709.08611,0.65223
5707.15736,0.65310
5705.22862,0.65294
5703.29987,0.65296
5701.37113,0.65255
5699.44238,0.65117
5697.51364,0.65042
5695.58489,0.65059
5693.65615,0.65042
5691.72740,0.65034
5689.79866,0.65162
5687.86991,0.65305
5685.94117,0.65281
5684.01242,0.65156
5682.08368,0.65051
5680.15493,0.64996
5678.22618,0.64960
5676.29744,0.64911
5674.36869,0.64869
5672.43995,0.64847
5670.51120,0.64833
5668.58246,0.64811
5666.65371,0.64804
5664.72497,0.64841
5662.79622,0.64885
5660.86748,0.64946
5658.93873,0.64990
5657.00999,0.64893
5655.08124,0.64752
5653.15250,0.64747
5651.22375,0.64816
5649.29500,0.64835
5647.36626,0.64815
5645.43751,0.64854
5643.50877,0.64988
5641.58002,0.65122
5639.65128,0.65125
5637.72253,0.64957
5635.79379,0.64737
5633.86504,0.64634
5631.93630,0.64674
5630.00755,0.64755
5628.07881,0.64820
5626.15006,0.64852
5624.22132,0.64831
5622.29257,0.64777
5620.36383,0.64713
5618.43508,0.64666
5616.50633,0.64701
5614.57759,0.64848
5612.64884,0.64989
5610.72010,0.64999
5608.79135,0.64900
5606.86261,0.64776
5604.93386,0.64698
5603.00512,0.64698
5601.07637,0.64757
5599.14763,0.64831
5597.21888,0.64870
5595.29014,0.64858
5593.36139,0.64814
5591.43265,0.64777
5589.50390,0.64775
5587.57516,0.64823
5585.64641,0.64886
5583.71766,0.64888
5581.78892,0.64850
5579.86017,0.64854
5577.93143,0.64897
5576.00268,0.64924
5574.07394,0.64888
5572.14519,0.64808
5570.21645,0.64796
5568.28770,0.64878
5566.35896,0.64967
5564.43021,0.65020
5562.50147,0.65063
5560.57272,0.65128
5558.64398,0.65217
5556.71523,0.65276
5554.78648,0.65272
5552.85774,0.65240
5550.92899,0.65227
5549.00025,0.65244
5547.07150,0.65273
5545.14276,0.65267
5543.21401,0.65196
5541.28527,0.65158
5539.35652,0.65240
5537.42778,0.65341
5535.49903,0.65369
5533.57029,0.65354
5531.64154,0.65337
5529.71280,0.65344
5527.78405,0.65354
5525.85531,0.65318
5523.92656,0.65277
5521.99781,0.65318
5520.06907,0.65420
5518.14032,0.65455
5516.21158,0.65376
5514.28283,0.65317
5512.35409,0.65364
5510.42534,0.65388
5508.49660,0.65346
5506.56785,0.65367
5504.63911,0.65460
5502.71036,0.65510
5500.78162,0.65504
5498.85287,0.65489
5496.92413,0.65494
5494.99538,0.65558
5493.06664,0.65629
5491.13789,0.65616
5489.20914,0.65578
5487.28040,0.65613
5485.35165,0.65679
5483.42291,0.65693
5481.49416,0.65673
5479.56542,0.65683
5477.63667,0.65728
5475.70793,0.65814
5473.77918,0.65938
5471.85044,0.65980
5469.92169,0.65922
5467.99295,0.65930
5466.06420,0.66011
5464.13546,0.66039
5462.20671,0.66044
5460.27796,0.66074
5458.34922,0.66095
5456.42047,0.66111
5454.49173,0.66138
5452.56298,0.66166
5450.63424,0.66199
5448.70549,0.66251
5446.77675,0.66268
5444.84800,0.66248
5442.91926,0.66326
5440.99051,0.66475
5439.06177,0.66504
5437.13302,0.66450
5435.20428,0.66476
5433.27553,0.66540
5431.34679,0.66549
5429.41804,0.66561
5427.48929,0.66628
5425.56055,0.66746
5423.63180,0.66834
5421.70306,0.66826
5419.77431,0.66839
5417.84557,0.66951
5415.91682,0.67045
5413.98808,0.67019
5412.05933,0.66912
5410.13059,0.66873
5408.20184,0.66960
5406.27310,0.67071
5404.34435,0.67116
5402.41561,0.67107
5400.48686,0.67121
5398.55811,0.67190
5396.62937,0.67247
5394.70062,0.67265
5392.77188,0.67278
5390.84313,0.67257
5388.91439,0.67239
5386.98564,0.67313
5385.05690,0.67394
5383.12815,0.67405
5381.19941,0.67417
5379.27066,0.67410
5377.34192,0.67336
5375.41317,0.67260
5373.48443,0.67230
5371.55568,0.67228
5369.62694,0.67269
5367.69819,0.67327
5365.76944,0.67308
5363.84070,0.67256
5361.91195,0.67274
5359.98321,0.67260
5358.05446,0.67164
5356.12572,0.67106
5354.19697,0.67098
5352.26823,0.67093
5350.33948,0.67093
5348.41074,0.67054
5346.48199,0.66980
5344.55325,0.66923
5342.62450,0.66852
5340.69576,0.66759
5338.76701,0.66700
5336.83827,0.66662
5334.90952,0.66595
5332.98077,0.66482
5331.05203,0.66344
5329.12328,0.66242
5327.19454,0.66173
5325.26579,0.66054
5323.33705,0.65884
5321.40830,0.65747
5319.47956,0.65645
5317.55081,0.65510
5315.62207,0.65336
5313.69332,0.65157
5311.76458,0.64978
5309.83583,0.64784
5307.90709,0.64597
5305.97834,0.64442
5304.04959,0.64260
5302.12085,0.63986
5300.19210,0.63673
5298.26336,0.63416
5296.33461,0.63178
5294.40587,0.62854
5292.47712,0.62522
5290.54838,0.62297
5288.61963,0.62054
5286.69089,0.61680
5284.76214,0.61247
5282.83340,0.60863
5280.90465,0.60558
5278.97591,0.60231
5277.04716,0.59839
5275.11842,0.59463
5273.18967,0.59086
5271.26092,0.58672
5269.33218,0.58274
5267.40343,0.57882
5265.47469,0.57435
5263.54594,0.56964
5261.61720,0.56556
5259.68845,0.56169
5257.75971,0.55708
5255.83096,0.55260
5253.90222,0.54961
5251.97347,0.54706
5250.04473,0.54342
5248.11598,0.53926
5246.18724,0.53550
5244.25849,0.53190
5242.32975,0.52848
5240.40100,0.52579
5238.47225,0.52360
5236.54351,0.52145
5234.61476,0.51948
5232.68602,0.51756
5230.75727,0.51536
5228.82853,0.51296
5226.89978,0.51061
5224.97104,0.50841
5223.04229,0.50664
5221.11355,0.50543
5219.18480,0.50439
5217.25606,0.50302
5215.32731,0.50144
5213.39857,0.50012
5211.46982,0.49887
5209.54107,0.49744
5207.61233,0.49618
5205.68358,0.49522
5203.75484,0.49470
5201.82609,0.49494
5199.89735,0.49493
5197.96860,0.49381
5196.03986,0.49260
5194.11111,0.49238
5192.18237,0.49280
5190.25362,0.49315
5188.32488,0.49334
5186.39613,0.49345
5184.46739,0.49346
5182.53864,0.49358
5180.60990,0.49346
5178.68115,0.49270
5176.75240,0.49261
5174.82366,0.49431
5172.89491,0.49628
5170.96617,0.49720
5169.03742,0.49761
5167.10868,0.49776
5165.17993,0.49798
5163.25119,0.49908
5161.32244,0.50057
5159.39370,0.50126
5157.46495,0.50118
5155.53621,0.50156
5153.60746,0.50287
5151.67872,0.50404
5149.74997,0.50465
5147.82123,0.50524
5145.89248,0.50594
5143.96373,0.50695
5142.03499,0.50863
5140.10624,0.51069
5138.17750,0.51241
5136.24875,0.51342
5134.32001,0.51398
5132.39126,0.51448
5130.46252,0.51509
5128.53377,0.51614
5126.60503,0.51782
5124.67628,0.51956
5122.74754,0.52094
5120.81879,0.52231
5118.89005,0.52362
5116.96130,0.52449
5115.03255,0.52526
5113.10381,0.52599
5111.17506,0.52653
5109.24632,0.52729
5107.31757,0.52840
5105.38883,0.52967
5103.46008,0.53078
5101.53134,0.53155
5099.60259,0.53241
5097.67385,0.53364
5095.74510,0.53460
5093.81636,0.53506
5091.88761,0.53580
5089.95887,0.53742
5088.03012,0.53960
5086.10138,0.54157
5084.17263,0.54287
5082.24388,0.54359
5080.31514,0.54422
5078.38639,0.54499
5076.45765,0.54550
5074.52890,0.54577
5072.60016,0.54655
5070.67141,0.54793
5068.74267,0.54920
5066.81392,0.55010
5064.88518,0.55119
5062.95643,0.55247
5061.02769,0.55341
5059.09894,0.55399
5057.17020,0.55448
5055.24145,0.55519
5053.31270,0.55640
5051.38396,0.55812
5049.45521,0.55993
5047.52647,0.56097
5045.59772,0.56140
5043.66898,0.56232
5041.74023,0.56375
5039.81149,0.56463
5037.88274,0.56463
5035.95400,0.56471
5034.02525,0.56538
5032.09651,0.56622
5030.16776,0.56698
5028.23902,0.56792
5026.31027,0.56886
5024.38153,0.56939
5022.45278,0.56978
5020.52403,0.57048
5018.59529,0.57125
5016.66654,0.57158
5014.73780,0.57159
5012.80905,0.57195
5010.88031,0.57269
5008.95156,0.57299
5007.02282,0.57269
5005.09407,0.57272
5003.16533,0.57357
5001.23658,0.57455
4999.30784,0.57494
4997.37909,0.57490
4995.45035,0.57481
4993.52160,0.57475
4991.59286,0.57463
4989.66411,0.57398
4987.73536,0.57248
4985.80662,0.57083
4983.87787,0.56981
4981.94913,0.56952
4980.02038,0.56971
4978.09164,0.56991
4976.16289,0.56962
4974.23415,0.56888
4972.30540,0.56807
4970.37666,0.56729
4968.44791,0.56647
4966.51917,0.56572
4964.59042,0.56490
4962.66168,0.56360
4960.73293,0.56204
4958.80418,0.56075
4956.87544,0.55957
4954.94669,0.55795
4953.01795,0.55582
4951.08920,0.55409
4949.16046,0.55356
4947.23171,0.55299
4945.30297,0.55103
4943.37422,0.54892
4941.44548,0.54769
4939.51673,0.54617
4937.58799,0.54375
4935.65924,0.54138
4933.73050,0.53959
4931.80175,0.53812
4929.87301,0.53679
4927.94426,0.53535
4926.01551,0.53353
4924.08677,0.53131
4922.15802,0.52875
4920.22928,0.52643
4918.30053,0.52513
4916.37179,0.52433
4914.44304,0.52289
4912.51430,0.52068
4910.58555,0.51846
4908.65681,0.51651
4906.72806,0.51445
4904.79932,0.51231
4902.87057,0.51052
4900.94183,0.50900
4899.01308,0.50726
4897.08434,0.50539
4895.15559,0.50393
4893.22684,0.50271
4891.29810,0.50087
4889.36935,0.49832
4887.44061,0.49594
4885.51186,0.49414
4883.58312,0.49251
4881.65437,0.49093
4879.72563,0.48941
4877.79688,0.48771
4875.86814,0.48600
4873.93939,0.48435
4872.01065,0.48269
4870.08190,0.48127
4868.15316,0.47986
4866.22441,0.47798
4864.29566,0.47599
4862.36692,0.47417
4860.43817,0.47227
4858.50943,0.47052
4856.58068,0.46935
4854.65194,0.46833
4852.72319,0.46705
4850.79445,0.46575
4848.86570,0.46446
4846.93696,0.46301
4845.00821,0.46162
4843.07947,0.46056
4841.15072,0.45962
4839.22198,0.45830
4837.29323,0.45657
4835.36449,0.45494
4833.43574,0.45364
4831.50699,0.45242
4829.57825,0.45110
4827.64950,0.45003
4825.72076,0.44952
4823.79201,0.44875
4821.86327,0.44713
4819.93452,0.44569
4818.00578,0.44492
4816.07703,0.44405
4814.14829,0.44290
4812.21954,0.44197
4810.29080,0.44139
4808.36205,0.44099
4806.43331,0.44057
4804.50456,0.44006
4802.57582,0.43953
4800.64707,0.43907
4798.71832,0.43858
4796.78958,0.43817
4794.86083,0.43804
4792.93209,0.43784
4791.00334,0.43749
4789.07460,0.43710
4787.14585,0.43619
4785.21711,0.43494
4783.28836,0.43425
4781.35962,0.43412
4779.43087,0.43380
4777.50213,0.43314
4775.57338,0.43259
4773.64464,0.43273
4771.71589,0.43342
4769.78714,0.43361
4767.85840,0.43267
4765.92965,0.43120
4764.00091,0.43048
4762.07216,0.43103
4760.14342,0.43194
4758.21467,0.43197
4756.28593,0.43120
4754.35718,0.43075
4752.42844,0.43107
4750.49969,0.43140
4748.57095,0.43114
4746.64220,0.43088
4744.71346,0.43113
4742.78471,0.43139
4740.85597,0.43144
4738.92722,0.43165
4736.99847,0.43207
4735.06973,0.43247
4733.14098,0.43255
4731.21224,0.43255
4729.28349,0.43293
4727.35475,0.43345
4725.42600,0.43367
4723.49726,0.43377
4721.56851,0.43410
4719.63977,0.43443
4717.71102,0.43429
4715.78228,0.43410
4713.85353,0.43460
4711.92479,0.43536
4709.99604,0.43565
4708.06729,0.43560
4706.13855,0.43559
4704.20980,0.43578
4702.28106,0.43617
4700.35231,0.43646
4698.42357,0.43667
4696.49482,0.43706
4694.56608,0.43736
4692.63733,0.43756
4690.70859,0.43792
4688.77984,0.43826
4686.85110,0.43848
4684.92235,0.43858
4682.99361,0.43876
4681.06486,0.43947
4679.13612,0.44059
4677.20737,0.44162
4675.27862,0.44220
4673.34988,0.44231
4671.42113,0.44222
4669.49239,0.44240
4667.56364,0.44314
4665.63490,0.44427
4663.70615,0.44542
4661.77741,0.44650
4659.84866,0.44772
4657.91992,0.44884
4655.99117,0.44943
4654.06243,0.44981
4652.13368,0.45052
4650.20494,0.45161
4648.27619,0.45274
4646.34745,0.45357
4644.41870,0.45415
4642.48995,0.45486
4640.56121,0.45573
4638.63246,0.45649
4636.70372,0.45713
4634.77497,0.45781
4632.84623,0.45853
4630.91748,0.45926
4628.98874,0.46031
4627.05999,0.46164
4625.13125,0.46266
4623.20250,0.46318
4621.27376,0.46387
4619.34501,0.46540
4617.41627,0.46735
4615.48752,0.46888
4613.55877,0.46978
4611.63003,0.47047
4609.70128,0.47158
4607.77254,0.47317
4605.84379,0.47488
4603.91505,0.47646
4601.98630,0.47746
4600.05756,0.47790
4598.12881,0.47863
4596.20007,0.47994
4594.27132,0.48112
4592.34258,0.48184
4590.41383,0.48256
4588.48509,0.48352
4586.55634,0.48456
4584.62760,0.48545
4582.69885,0.48600
4580.77010,0.48641
4578.84136,0.48716
4576.91261,0.48806
4574.98387,0.48874
4573.05512,0.48939
4571.12638,0.48987
4569.19763,0.49002
4567.26889,0.49018
4565.34014,0.49049
4563.41140,0.49104
4561.48265,0.49187
4559.55391,0.49268
4557.62516,0.49326
4555.69642,0.49382
4553.76767,0.49469
4551.83893,0.49566
4549.91018,0.49626
4547.98143,0.49646
4546.05269,0.49667
4544.12394,0.49738
4542.19520,0.49849
4540.26645,0.49928
4538.33771,0.49960
4536.40896,0.49997
4534.48022,0.50054
4532.55147,0.50095
4530.62273,0.50119
4528.69398,0.50152
4526.76524,0.50193
4524.83649,0.50239
4522.90775,0.50307
4520.97900,0.50345
4519.05025,0.50297
4517.12151,0.50228
4515.19276,0.50222
4513.26402,0.50255
4511.33527,0.50266
4509.40653,0.50246
4507.47778,0.50227
4505.54904,0.50211
4503.62029,0.50183
4501.69155,0.50130
4499.76280,0.50051
4497.83406,0.49973
4495.90531,0.49899
4493.97657,0.49813
4492.04782,0.49718
4490.11908,0.49608
4488.19033,0.49475
4486.26158,0.49349
4484.33284,0.49240
4482.40409,0.49103
4480.47535,0.48922
4478.54660,0.48729
4476.61786,0.48541
4474.68911,0.48344
4472.76037,0.48148
4470.83162,0.47976
4468.90288,0.47802
4466.97413,0.47576
4465.04539,0.47317
4463.11664,0.47118
4461.18790,0.46970
4459.25915,0.46761
4457.33041,0.46500
4455.40166,0.46278
4453.47291,0.46076
4451.54417,0.45838
4449.61542,0.45569
4447.68668,0.45311
4445.75793,0.45099
4443.82919,0.44908
4441.90044,0.44682
4439.97170,0.44403
4438.04295,0.44111
4436.11421,0.43843
4434.18546,0.43571
4432.25672,0.43281
4430.32797,0.43022
4428.39923,0.42781
4426.47048,0.42518
4424.54173,0.42253
4422.61299,0.42003
4420.68424,0.41739
4418.75550,0.41458
4416.82675,0.41192
4414.89801,0.40947
4412.96926,0.40716
4411.04052,0.40514
4409.11177,0.40333
4407.18303,0.40163
4405.25428,0.40038
4403.32554,0.39963
4401.39679,0.39904
4399.46805,0.39872
4397.53930,0.39878
4395.61056,0.39879
4393.68181,0.39861
4391.75306,0.39877
4389.82432,0.39946
4387.89557,0.40024
4385.96683,0.40088
4384.03808,0.40157
4382.10934,0.40229
4380.18059,0.40304
4378.25185,0.40392
4376.32310,0.40482
4374.39436,0.40568
4372.46561,0.40671
4370.53687,0.40800
4368.60812,0.40921
4366.67938,0.41008
4364.75063,0.41087
4362.82189,0.41161
4360.89314,0.41203
4358.96439,0.41229
4357.03565,0.41263
4355.10690,0.41280
4353.17816,0.41263
4351.24941,0.41262
4349.32067,0.41282
4347.39192,0.41257
4345.46318,0.41196
4343.53443,0.41162
4341.60569,0.41138
4339.67694,0.41090
4337.74820,0.41046
4335.81945,0.41016
4333.89071,0.40981
4331.96196,0.40929
4330.03321,0.40855
4328.10447,0.40769
4326.17572,0.40688
4324.24698,0.40618
4322.31823,0.40550
4320.38949,0.40465
4318.46074,0.40358
4316.53200,0.40257
4314.60325,0.40171
4312.67451,0.40094
4310.74576,0.40033
4308.81702,0.39958
4306.88827,0.39851
4304.95953,0.39744
4303.03078,0.39644
4301.10204,0.39543
4299.17329,0.39468
4297.24454,0.39403
4295.31580,0.39306
4293.38705,0.39215
4291.45831,0.39161
4289.52956,0.39119
4287.60082,0.39079
4285.67207,0.39032
4283.74333,0.38974
4281.81458,0.38924
4279.88584,0.38896
4277.95709,0.38909
4276.02835,0.38946
4274.09960,0.38958
4272.17086,0.38949
4270.24211,0.38975
4268.31336,0.39041
4266.38462,0.39098
4264.45587,0.39124
4262.52713,0.39135
4260.59838,0.39163
4258.66964,0.39216
4256.74089,0.39269
4254.81215,0.39309
4252.88340,0.39358
4250.95466,0.39415
4249.02591,0.39462
4247.09717,0.39491
4245.16842,0.39503
4243.23968,0.39509
4241.31093,0.39515
4239.38219,0.39524
4237.45344,0.39561
4235.52469,0.39613
4233.59595,0.39634
4231.66720,0.39628
4229.73846,0.39623
4227.80971,0.39623
4225.88097,0.39628
4223.95222,0.39638
4222.02348,0.39635
4220.09473,0.39596
4218.16599,0.39542
4216.23724,0.39520
4214.30850,0.39535
4212.37975,0.39548
4210.45101,0.39539
4208.52226,0.39541
4206.59352,0.39581
4204.66477,0.39618
4202.73602,0.39624
4200.80728,0.39631
4198.87853,0.39654
4196.94979,0.39668
4195.02104,0.39660
4193.09230,0.39655
4191.16355,0.39686
4189.23481,0.39740
4187.30606,0.39781
4185.37732,0.39808
4183.44857,0.39836
4181.51983,0.39860
4179.59108,0.39870
4177.66234,0.39892
4175.73359,0.39955
4173.80484,0.40012
4171.87610,0.40043
4169.94735,0.40098
4168.01861,0.40176
4166.08986,0.40237
4164.16112,0.40266
4162.23237,0.40259
4160.30363,0.40249
4158.37488,0.40261
4156.44614,0.40253
4154.51739,0.40221
4152.58865,0.40203
4150.65990,0.40159
4148.73116,0.40051
4146.80241,0.39926
4144.87367,0.39833
4142.94492,0.39762
4141.01617,0.39695
4139.08743,0.39631
4137.15868,0.39562
4135.22994,0.39461
4133.30119,0.39331
4131.37245,0.39209
4129.44370,0.39107
4127.51496,0.38997
4125.58621,0.38859
4123.65747,0.38692
4121.72872,0.38521
4119.79998,0.38380
4117.87123,0.38269
4115.94249,0.38148
4114.01374,0.37987
4112.08500,0.37803
4110.15625,0.37629
4108.22750,0.37473
4106.29876,0.37321
4104.37001,0.37151
4102.44127,0.36953
4100.51252,0.36751
4098.58378,0.36581
4096.65503,0.36409
4094.72629,0.36196
4092.79754,0.35980
4090.86880,0.35782
4088.94005,0.35583
4087.01131,0.35388
4085.08256,0.35208
4083.15382,0.35035
4081.22507,0.34866
4079.29632,0.34679
4077.36758,0.34455
4075.43883,0.34232
4073.51009,0.34036
4071.58134,0.33851
4069.65260,0.33666
4067.72385,0.33483
4065.79511,0.33293
4063.86636,0.33087
4061.93762,0.32879
4060.00887,0.32682
4058.08013,0.32481
4056.15138,0.32284
4054.22264,0.32123
4052.29389,0.31993
4050.36515,0.31847
4048.43640,0.31677
4046.50765,0.31529
4044.57891,0.31412
4042.65016,0.31277
4040.72142,0.31117
4038.79267,0.30985
4036.86393,0.30905
4034.93518,0.30840
4033.00644,0.30742
4031.07769,0.30612
4029.14895,0.30493
4027.22020,0.30412
4025.29146,0.30359
4023.36271,0.30315
4021.43397,0.30276
4019.50522,0.30259
4017.57648,0.30262
4015.64773,0.30250
4013.71898,0.30217
4011.79024,0.30179
4009.86149,0.30143
4007.93275,0.30138
4006.00400,0.30166
4004.07526,0.30201
4002.14651,0.30242
4000.21777,0.30277
3998.28902,0.30287
3996.36028,0.30292
3994.43153,0.30323
3992.50279,0.30392
3990.57404,0.30491
3988.64530,0.30585
3986.71655,0.30654
3984.78780,0.30716
3982.85906,0.30768
3980.93031,0.30804
3979.00157,0.30833
3977.07282,0.30873
3975.14408,0.30939
3973.21533,0.31031
3971.28659,0.31131
3969.35784,0.31206
3967.42910,0.31249
3965.50035,0.31304
3963.57161,0.31385
3961.64286,0.31456
3959.71412,0.31523
3957.78537,0.31620
3955.85663,0.31733
3953.92788,0.31846
3951.99913,0.31958
3950.07039,0.32038
3948.14164,0.32079
3946.21290,0.32124
3944.28415,0.32203
3942.35541,0.32296
3940.42666,0.32400
3938.49792,0.32529
3936.56917,0.32659
3934.64043,0.32770
3932.71168,0.32882
3930.78294,0.33006
3928.85419,0.33134
3926.92545,0.33237
3924.99670,0.33311
3923.06795,0.33384
3921.13921,0.33465
3919.21046,0.33536
3917.28172,0.33589
3915.35297,0.33660
3913.42423,0.33774
3911.49548,0.33889
3909.56674,0.33976
3907.63799,0.34060
3905.70925,0.34158
3903.78050,0.34233
3901.85176,0.34268
3899.92301,0.34322
3897.99427,0.34418
3896.06552,0.34516
3894.13678,0.34604
3892.20803,0.34686
3890.27928,0.34747
3888.35054,0.34806
3886.42179,0.34903
3884.49305,0.34996
3882.56430,0.35032
3880.63556,0.35052
3878.70681,0.35107
3876.77807,0.35176
3874.84932,0.35241
3872.92058,0.35324
3870.99183,0.35414
3869.06309,0.35476
3867.13434,0.35528
3865.20560,0.35607
3863.27685,0.35718
3861.34811,0.35827
3859.41936,0.35909
3857.49061,0.35983
3855.56187,0.36096
3853.63312,0.36254
3851.70438,0.36341
3849.77563,0.36340
3847.84689,0.36376
3845.91814,0.36485
3843.98940,0.36587
3842.06065,0.36625
3840.13191,0.36631
3838.20316,0.36649
3836.27442,0.36697
3834.34567,0.36737
3832.41693,0.36744
3830.48818,0.36762
3828.55943,0.36810
3826.63069,0.36858
3824.70194,0.36895
3822.77320,0.36919
3820.84445,0.36922
3818.91571,0.36926
3816.98696,0.36933
3815.05822,0.36932
3813.12947,0.36929
3811.20073,0.36908
3809.27198,0.36852
3807.34324,0.36799
3805.41449,0.36780
3803.48575,0.36783
3801.55700,0.36779
3799.62826,0.36758
3797.69951,0.36752
3795.77076,0.36763
3793.84202,0.36749
3791.91327,0.36691
3789.98453,0.36619
3788.05578,0.36577
3786.12704,0.36584
3784.19829,0.36610
3782.26955,0.36609
3780.34080,0.36574
3778.41206,0.36537
3776.48331,0.36521
3774.55457,0.36508
3772.62582,0.36478
3770.69708,0.36440
3768.76833,0.36403
3766.83959,0.36349
3764.91084,0.36269
3762.98209,0.36185
3761.05335,0.36123
3759.12460,0.36060
3757.19586,0.35988
3755.26711,0.35919
3753.33837,0.35836
3751.40962,0.35732
3749.48088,0.35642
3747.55213,0.35580
3745.62339,0.35500
3743.69464,0.35370
3741.76590,0.35228
3739.83715,0.35112
3737.90841,0.35008
3735.97966,0.34889
3734.05091,0.34769
3732.12217,0.34648
3730.19342,0.34487
3728.26468,0.34303
3726.33593,0.34136
3724.40719,0.33970
3722.47844,0.33771
3720.54970,0.33538
3718.62095,0.33319
3716.69221,0.33139
3714.76346,0.32960
3712.83472,0.32736
3710.90597,0.32456
3708.97723,0.32154
3707.04848,0.31858
3705.11974,0.31587
3703.19099,0.31327
3701.26224,0.31013
3699.33350,0.30650
3697.40475,0.30304
3695.47601,0.29959
3693.54726,0.29563
3691.61852,0.29111
3689.68977,0.28621
3687.76103,0.28108
3685.83228,0.27595
3683.90354,0.27085
3681.97479,0.26555
3680.04605,0.26005
3678.11730,0.25452
3676.18856,0.24854
3674.25981,0.24225
3672.33107,0.23635
3670.40232,0.22968
3668.47357,0.22231
3666.54483,0.21596
3664.61608,0.21028
3662.68734,0.20469
3660.75859,0.19931
3658.82985,0.19399
3656.90110,0.18839
3654.97236,0.18295
3653.04361,0.17838
3651.11487,0.17410
3649.18612,0.16928
3647.25738,0.16440
3645.32863,0.16024
3643.39989,0.15662
3641.47114,0.15304
3639.54239,0.14937
3637.61365,0.14583
3635.68490,0.14264
3633.75616,0.13970
3631.82741,0.13689
3629.89867,0.13369
3627.96992,0.13006
3626.04118,0.12716
3624.11243,0.12483
3622.18369,0.12231
3620.25494,0.11943
3618.32620,0.11631
3616.39745,0.11349
3614.46871,0.11116
3612.53996,0.10884
3610.61122,0.10649
3608.68247,0.10434
3606.75372,0.10223
3604.82498,0.10004
3602.89623,0.09798
3600.96749,0.09612
3599.03874,0.09423
3597.11000,0.09210
3595.18125,0.08991
3593.25251,0.08788
3591.32376,0.08605
3589.39502,0.08449
3587.46627,0.08303
3585.53753,0.08146
3583.60878,0.07986
3581.68004,0.07835
3579.75129,0.07702
3577.82254,0.07579
3575.89380,0.07439
3573.96505,0.07296
3572.03631,0.07205
3570.10756,0.07176
3568.17882,0.07147
3566.25007,0.07054
3564.32133,0.06910
3562.39258,0.06774
3560.46384,0.06680
3558.53509,0.06614
3556.60635,0.06534
3554.67760,0.06444
3552.74886,0.06377
3550.82011,0.06323
3548.89137,0.06256
3546.96262,0.06170
3545.03387,0.06078
3543.10513,0.06001
3541.17638,0.05941
3539.24764,0.05885
3537.31889,0.05829
3535.39015,0.05767
3533.46140,0.05702
3531.53266,0.05644
3529.60391,0.05600
3527.67517,0.05587
3525.74642,0.05589
3523.81768,0.05551
3521.88893,0.05482
3519.96019,0.05436
3518.03144,0.05408
3516.10270,0.05357
3514.17395,0.05291
3512.24520,0.05240
3510.31646,0.05211
3508.38771,0.05183
3506.45897,0.05148
3504.53022,0.05137
3502.60148,0.05141
3500.67273,0.05114
3498.74399,0.05062
3496.81524,0.05021
3494.88650,0.04984
3492.95775,0.04945
3491.02901,0.04911
3489.10026,0.04887
3487.17152,0.04866
3485.24277,0.04839
3483.31402,0.04800
3481.38528,0.04752
3479.45653,0.04722
3477.52779,0.04723
3475.59904,0.04715
3473.67030,0.04679
3471.74155,0.04655
3469.81281,0.04655
3467.88406,0.04654
3465.95532,0.04633
3464.02657,0.04593
3462.09783,0.04574
3460.16908,0.04605
3458.24034,0.04648
3456.31159,0.04641
3454.38285,0.04583
3452.45410,0.04534
3450.52535,0.04531
3448.59661,0.04555
3446.66786,0.04567
3444.73912,0.04552
3442.81037,0.04543
3440.88163,0.04559
3438.95288,0.04559
3437.02414,0.04528
3435.09539,0.04502
3433.16665,0.04502
3431.23790,0.04524
3429.30916,0.04552
3427.38041,0.04557
3425.45167,0.04558
3423.52292,0.04587
3421.59418,0.04607
3419.66543,0.04594
3417.73668,0.04588
3415.80794,0.04590
3413.87919,0.04571
3411.95045,0.04543
3410.02170,0.04525
3408.09296,0.04499
3406.16421,0.04486
3404.23547,0.04520
3402.30672,0.04564
3400.37798,0.04578
3398.44923,0.04589
3396.52049,0.04608
3394.59174,0.04623
3392.66300,0.04636
3390.73425,0.04641
3388.80550,0.04636
3386.87676,0.04645
3384.94801,0.04666
3383.01927,0.04671
3381.09052,0.04650
3379.16178,0.04629
3377.23303,0.04643
3375.30429,0.04685
3373.37554,0.04703
3371.44680,0.04690
3369.51805,0.04681
3367.58931,0.04681
3365.66056,0.04679
3363.73182,0.04688
3361.80307,0.04713
3359.87433,0.04737
3357.94558,0.04762
3356.01683,0.04797
3354.08809,0.04823
3352.15934,0.04819
3350.23060,0.04812
3348.30185,0.04838
3346.37311,0.04881
3344.44436,0.04917
3342.51562,0.04954
3340.58687,0.04991
3338.65813,0.05017
3336.72938,0.05054
3334.80064,0.05083
3332.87189,0.05077
3330.94315,0.05070
3329.01440,0.05100
3327.08566,0.05170
3325.15691,0.05251
3323.22816,0.05306
3321.29942,0.05327
3319.37067,0.05325
3317.44193,0.05327
3315.51318,0.05359
3313.58444,0.05410
3311.65569,0.05452
3309.72695,0.05486
3307.79820,0.05499
3305.86946,0.05486
3303.94071,0.05476
3302.01197,0.05487
3300.08322,0.05503
3298.15448,0.05524
3296.22573,0.05558
3294.29698,0.05596
3292.36824,0.05631
3290.43949,0.05655
3288.51075,0.05660
3286.58200,0.05648
3284.65326,0.05643
3282.72451,0.05681
3280.79577,0.05762
3278.86702,0.05837
3276.93828,0.05881
3275.00953,0.05915
3273.08079,0.05947
3271.15204,0.05979
3269.22330,0.06017
3267.29455,0.06057
3265.36581,0.06084
3263.43706,0.06103
3261.50831,0.06139
3259.57957,0.06173
3257.65082,0.06174
3255.72208,0.06190
3253.79333,0.06256
3251.86459,0.06315
3249.93584,0.06361
3248.00710,0.06431
3246.07835,0.06479
3244.14961,0.06474
3242.22086,0.06481
3240.29212,0.06543
3238.36337,0.06628
3236.43463,0.06682
3234.50588,0.06702
3232.57713,0.06749
3230.64839,0.06836
3228.71964,0.06912
3226.79090,0.06963
3224.86215,0.07002
3222.93341,0.07025
3221.00466,0.07045
3219.07592,0.07090
3217.14717,0.07153
3215.21843,0.07210
3213.28968,0.07266
3211.36094,0.07327
3209.43219,0.07383
3207.50345,0.07442
3205.57470,0.07506
3203.64596,0.07567
3201.71721,0.07616
3199.78846,0.07650
3197.85972,0.07694
3195.93097,0.07776
3194.00223,0.07875
3192.07348,0.07951
3190.14474,0.08006
3188.21599,0.08057
3186.28725,0.08087
3184.35850,0.08119
3182.42976,0.08191
3180.50101,0.08283
3178.57227,0.08362
3176.64352,0.08417
3174.71478,0.08443
3172.78603,0.08470
3170.85729,0.08544
3168.92854,0.08624
3166.99979,0.08672
3165.07105,0.08737
3163.14230,0.08846
3161.21356,0.08951
3159.28481,0.09019
3157.35607,0.09062
3155.42732,0.09093
3153.49858,0.09129
3151.56983,0.09200
3149.64109,0.09298
3147.71234,0.09377
3145.78360,0.09426
3143.85485,0.09458
3141.92611,0.09508
3139.99736,0.09610
3138.06861,0.09727
3136.13987,0.09793
3134.21112,0.09817
3132.28238,0.09846
3130.35363,0.09910
3128.42489,0.09998
3126.49614,0.10065
3124.56740,0.10117
3122.63865,0.10195
3120.70991,0.10270
3118.78116,0.10314
3116.85242,0.10364
3114.92367,0.10436
3112.99493,0.10494
3111.06618,0.10545
3109.13744,0.10623
3107.20869,0.10701
3105.27994,0.10762
3103.35120,0.10830
3101.42245,0.10904
3099.49371,0.10954
3097.56496,0.10982
3095.63622,0.11015
3093.70747,0.11073
3091.77873,0.11151
3089.84998,0.11227
3087.92124,0.11276
3085.99249,0.11305
3084.06375,0.11360
3082.13500,0.11436
3080.20626,0.11478
3078.27751,0.11496
3076.34877,0.11543
3074.42002,0.11615
3072.49127,0.11679
3070.56253,0.11726
3068.63378,0.11754
3066.70504,0.11769
3064.77629,0.11812
3062.84755,0.11909
3060.91880,0.12003
3058.99006,0.12059
3057.06131,0.12106
3055.13257,0.12158
3053.20382,0.12219
3051.27508,0.12280
3049.34633,0.12313
3047.41759,0.12327
3045.48884,0.12353
3043.56009,0.12398
3041.63135,0.12451
3039.70260,0.12491
3037.77386,0.12510
3035.84511,0.12531
3033.91637,0.12545
3031.98762,0.12539
3030.05888,0.12538
3028.13013,0.12545
3026.20139,0.12541
3024.27264,0.12542
3022.34390,0.12553
3020.41515,0.12537
3018.48641,0.12468
3016.55766,0.12383
3014.62892,0.12313
3012.70017,0.12253
3010.77142,0.12195
3008.84268,0.12118
3006.91393,0.12015
3004.98519,0.11930
3003.05644,0.11877
3001.12770,0.11818
2999.19895,0.11732
2997.27021,0.11648
2995.34146,0.11584
2993.41272,0.11511
2991.48397,0.11398
2989.55523,0.11250
2987.62648,0.11086
2985.69774,0.10909
2983.76899,0.10709
2981.84025,0.10479
2979.91150,0.10236
2977.98275,0.10004
2976.05401,0.09776
2974.12526,0.09546
2972.19652,0.09325
2970.26777,0.09122
2968.33903,0.08948
2966.41028,0.08821
2964.48154,0.08723
2962.55279,0.08609
2960.62405,0.08459
2958.69530,0.08323
2956.76656,0.08247
2954.83781,0.08196
2952.90907,0.08117
2950.98032,0.08002
2949.05157,0.07875
2947.12283,0.07759
2945.19408,0.07653
2943.26534,0.07555
2941.33659,0.07492
2939.40785,0.07467
2937.47910,0.07439
2935.55036,0.07396
2933.62161,0.07378
2931.69287,0.07385
2929.76412,0.07374
2927.83538,0.07343
2925.90663,0.07322
2923.97789,0.07317
2922.04914,0.07319
2920.12040,0.07330
2918.19165,0.07328
2916.26290,0.07319
2914.33416,0.07334
2912.40541,0.07357
2910.47667,0.07363
2908.54792,0.07371
2906.61918,0.07390
2904.69043,0.07397
2902.76169,0.07391
2900.83294,0.07391
2898.90420,0.07420
2896.97545,0.07482
2895.04671,0.07543
2893.11796,0.07594
2891.18922,0.07653
2889.26047,0.07707
2887.33172,0.07746
2885.40298,0.07793
2883.47423,0.07845
2881.54549,0.07881
2879.61674,0.07909
2877.68800,0.07950
2875.75925,0.08002
2873.83051,0.08042
2871.90176,0.08074
2869.97302,0.08121
2868.04427,0.08199
2866.11553,0.08297
2864.18678,0.08393
2862.25804,0.08471
2860.32929,0.08546
2858.40055,0.08636
2856.47180,0.08724
2854.54305,0.08790
2852.61431,0.08864
2850.68556,0.08969
2848.75682,0.09088
2846.82807,0.09222
2844.89933,0.09381
2842.97058,0.09547
2841.04184,0.09716
2839.11309,0.09888
2837.18435,0.10049
2835.25560,0.10218
2833.32686,0.10415
2831.39811,0.10626
2829.46937,0.10840
2827.54062,0.11057
2825.61188,0.11277
2823.68313,0.11486
2821.75438,0.11684
2819.82564,0.11867
2817.89689,0.12036
2815.96815,0.12210
2814.03940,0.12397
2812.11066,0.12578
2810.18191,0.12736
2808.25317,0.12873
2806.32442,0.13005
2804.39568,0.13130
2802.46693,0.13236
2800.53819,0.13320
2798.60944,0.13412
2796.68070,0.13537
2794.75195,0.13657
2792.82320,0.13742
2790.89446,0.13819
2788.96571,0.13894
2787.03697,0.13956
2785.10822,0.14019
2783.17948,0.14077
2781.25073,0.14115
2779.32199,0.14150
2777.39324,0.14179
2775.46450,0.14194
2773.53575,0.14216
2771.60701,0.14260
2769.67826,0.14320
2767.74952,0.14387
2765.82077,0.14429
2763.89203,0.14434
2761.96328,0.14439
2760.03453,0.14472
2758.10579,0.14512
2756.17704,0.14538
2754.24830,0.14561
2752.31955,0.14584
2750.39081,0.14599
2748.46206,0.14604
2746.53332,0.14595
2744.60457,0.14577
2742.67583,0.14578
2740.74708,0.14595
2738.81834,0.14622
2736.88959,0.14658
2734.96085,0.14694
2733.03210,0.14722
2731.10336,0.14751
2729.17461,0.14791
2727.24586,0.14838
2725.31712,0.14881
2723.38837,0.14927
2721.45963,0.14973
2719.53088,0.15006
2717.60214,0.15054
2715.67339,0.15133
2713.74465,0.15215
2711.81590,0.15287
2709.88716,0.15357
2707.95841,0.15431
2706.02967,0.15511
2704.10092,0.15590
2702.17218,0.15660
2700.24343,0.15739
2698.31468,0.15825
2696.38594,0.15893
2694.45719,0.15950
2692.52845,0.16019
2690.59970,0.16087
2688.67096,0.16142
2686.74221,0.16195
2684.81347,0.16258
2682.88472,0.16337
2680.95598,0.16416
2679.02723,0.16472
2677.09849,0.16508
2675.16974,0.16550
2673.24100,0.16620
2671.31225,0.16710
2669.38351,0.16779
2667.45476,0.16816
2665.52601,0.16843
2663.59727,0.16874
2661.66852,0.16900
2659.73978,0.16926
2657.81103,0.16967
2655.88229,0.17019
2653.95354,0.17071
2652.02480,0.17118
2650.09605,0.17175
2648.16731,0.17247
2646.23856,0.17329
2644.30982,0.17408
2642.38107,0.17471
2640.45233,0.17513
2638.52358,0.17553
2636.59484,0.17607
2634.66609,0.17660
2632.73734,0.17698
2630.80860,0.17742
2628.87985,0.17805
2626.95111,0.17863
2625.02236,0.17918
2623.09362,0.17979
2621.16487,0.18036
2619.23613,0.18085
2617.30738,0.18134
2615.37864,0.18187
2613.44989,0.18240
2611.52115,0.18299
2609.59240,0.18366
2607.66366,0.18425
2605.73491,0.18471
2603.80616,0.18524
2601.87742,0.18577
2599.94867,0.18619
2598.01993,0.18669
2596.09118,0.18734
2594.16244,0.18794
2592.23369,0.18845
2590.30495,0.18888
2588.37620,0.18923
2586.44746,0.18964
2584.51871,0.19013
2582.58997,0.19055
2580.66122,0.19085
2578.73248,0.19105
2576.80373,0.19127
2574.87499,0.19168
2572.94624,0.19220
2571.01749,0.19254
2569.08875,0.19269
2567.16000,0.19284
2565.23126,0.19295
2563.30251,0.19293
2561.37377,0.19296
2559.44502,0.19313
2557.51628,0.19339
2555.58753,0.19356
2553.65879,0.19360
2551.73004,0.19366
2549.80130,0.19377
2547.87255,0.19381
2545.94381,0.19380
2544.01506,0.19388
2542.08631,0.19415
2540.15757,0.19453
2538.22882,0.19491
2536.30008,0.19525
2534.37133,0.19565
2532.44259,0.19614
2530.51384,0.19674
2528.58510,0.19737
2526.65635,0.19796
2524.72761,0.19867
2522.79886,0.19945
2520.87012,0.20000
2518.94137,0.20035
2517.01263,0.20083
2515.08388,0.20153
2513.15514,0.20223
2511.22639,0.20279
2509.29764,0.20331
2507.36890,0.20398
2505.44015,0.20493
2503.51141,0.20605
2501.58266,0.20711
2499.65392,0.20795
2497.72517,0.20876
2495.79643,0.20970
2493.86768,0.21067
2491.93894,0.21158
2490.01019,0.21243
2488.08145,0.21334
2486.15270,0.21437
2484.22396,0.21528
2482.29521,0.21593
2480.36647,0.21652
2478.43772,0.21714
2476.50897,0.21786
2474.58023,0.21870
2472.65148,0.21952
2470.72274,0.22031
2468.79399,0.22114
2466.86525,0.22180
2464.93650,0.22230
2463.00776,0.22291
2461.07901,0.22360
2459.15027,0.22425
2457.22152,0.22495
2455.29278,0.22579
2453.36403,0.22668
2451.43529,0.22762
2449.50654,0.22852
2447.57779,0.22919
2445.64905,0.22988
2443.72030,0.23084
2441.79156,0.23182
2439.86281,0.23267
2437.93407,0.23347
2436.00532,0.23431
2434.07658,0.23526
2432.14783,0.23633
2430.21909,0.23743
2428.29034,0.23836
2426.36160,0.23916
2424.43285,0.24001
2422.50411,0.24104
2420.57536,0.24219
2418.64662,0.24331
2416.71787,0.24436
2414.78912,0.24535
2412.86038,0.24625
2410.93163,0.24714
2409.00289,0.24824
2407.07414,0.24940
2405.14540,0.25028
2403.21665,0.25100
2401.28791,0.25191
2399.35916,0.25301
2397.43042,0.25408
2395.50167,0.25504
2393.57293,0.25594
2391.64418,0.25676
2389.71544,0.25746
2387.78669,0.25822
2385.85795,0.25905
2383.92920,0.25990
2382.00045,0.26077
2380.07171,0.26161
2378.14296,0.26238
2376.21422,0.26321
2374.28547,0.26409
2372.35673,0.26495
2370.42798,0.26588
2368.49924,0.26685
2366.57049,0.26753
2364.64175,0.26799
2362.71300,0.26851
2360.78426,0.26902
2358.85551,0.26945
2356.92677,0.26997
2354.99802,0.27067
2353.06927,0.27135
2351.14053,0.27179
2349.21178,0.27224
2347.28304,0.27295
2345.35429,0.27360
2343.42555,0.27386
2341.49680,0.27397
2339.56806,0.27431
2337.63931,0.27483
2335.71057,0.27534
2333.78182,0.27583
2331.85308,0.27619
2329.92433,0.27635
2327.99559,0.27644
2326.06684,0.27657
2324.13810,0.27691
2322.20935,0.27743
2320.28060,0.27771
2318.35186,0.27767
2316.42311,0.27765
2314.49437,0.27770
2312.56562,0.27772
2310.63688,0.27774
2308.70813,0.27782
2306.77939,0.27787
2304.85064,0.27776
2302.92190,0.27756
2300.99315,0.27739
2299.06441,0.27711
2297.13566,0.27669
2295.20692,0.27636
2293.27817,0.27634
2291.34943,0.27657
2289.42068,0.27663
2287.49193,0.27632
2285.56319,0.27599
2283.63444,0.27591
2281.70570,0.27598
2279.77695,0.27599
2277.84821,0.27575
2275.91946,0.27525
2273.99072,0.27462
2272.06197,0.27399
2270.13323,0.27338
2268.20448,0.27280
2266.27574,0.27221
2264.34699,0.27155
2262.41825,0.27098
2260.48950,0.27060
2258.56075,0.27016
2256.63201,0.26960
2254.70326,0.26913
2252.77452,0.26891
2250.84577,0.26881
2248.91703,0.26848
2246.98828,0.26796
2245.05954,0.26770
2243.13079,0.26767
2241.20205,0.26752
2239.27330,0.26723
2237.34456,0.26682
2235.41581,0.26636
2233.48707,0.26608
2231.55832,0.26596
2229.62958,0.26573
2227.70083,0.26545
2225.77208,0.26530
2223.84334,0.26534
2221.91459,0.26541
2219.98585,0.26528
2218.05710,0.26507
2216.12836,0.26501
2214.19961,0.26489
2212.27087,0.26453
2210.34212,0.26412
2208.41338,0.26374
2206.48463,0.26331
2204.55589,0.26290
2202.62714,0.26249
2200.69840,0.26192
2198.76965,0.26120
2196.84090,0.26041
2194.91216,0.25956
2192.98341,0.25867
2191.05467,0.25782
2189.12592,0.25696
2187.19718,0.25597
2185.26843,0.25482
2183.33969,0.25362
2181.41094,0.25252
2179.48220,0.25148
2177.55345,0.25029
2175.62471,0.24904
2173.69596,0.24800
2171.76722,0.24716
2169.83847,0.24626
2167.90973,0.24523
2165.98098,0.24418
2164.05223,0.24321
2162.12349,0.24247
2160.19474,0.24188
2158.26600,0.24123
2156.33725,0.24055
2154.40851,0.24002
2152.47976,0.23968
2150.55102,0.23941
2148.62227,0.23890
2146.69353,0.23821
2144.76478,0.23772
2142.83604,0.23743
2140.90729,0.23713
2138.97855,0.23693
2137.04980,0.23699
2135.12106,0.23712
2133.19231,0.23707
2131.26356,0.23699
2129.33482,0.23704
2127.40607,0.23712
2125.47733,0.23728
2123.54858,0.23766
2121.61984,0.23808
2119.69109,0.23832
2117.76235,0.23855
2115.83360,0.23892
2113.90486,0.23930
2111.97611,0.23958
2110.04737,0.23974
2108.11862,0.23987
2106.18988,0.24011
2104.26113,0.24050
2102.33238,0.24089
2100.40364,0.24118
2098.47489,0.24141
2096.54615,0.24158
2094.61740,0.24166
2092.68866,0.24176
2090.75991,0.24189
2088.83117,0.24192
2086.90242,0.24182
2084.97368,0.24177
2083.04493,0.24178
2081.11619,0.24167
2079.18744,0.24137
2077.25870,0.24090
2075.32995,0.24036
2073.40121,0.23988
2071.47246,0.23953
2069.54371,0.23927
2067.61497,0.23901
2065.68622,0.23866
2063.75748,0.23823
2061.82873,0.23789
2059.89999,0.23779
2057.97124,0.23783
2056.04250,0.23783
2054.11375,0.23780
2052.18501,0.23787
2050.25626,0.23811
2048.32752,0.23854
2046.39877,0.23906
2044.47003,0.23960
2042.54128,0.24022
2040.61254,0.24095
2038.68379,0.24171
2036.75504,0.24258
2034.82630,0.24355
2032.89755,0.24458
2030.96881,0.24571
2029.04006,0.24690
2027.11132,0.24797
2025.18257,0.24898
2023.25383,0.25008
2021.32508,0.25120
2019.39634,0.25226
2017.46759,0.25341
2015.53885,0.25460
2013.61010,0.25562
2011.68136,0.25645
2009.75261,0.25708
2007.82386,0.25758
2005.89512,0.25814
2003.96637,0.25880
2002.03763,0.25935
2000.10888,0.25972
1998.18014,0.26003
1996.25139,0.26052
1994.32265,0.26129
1992.39390,0.26219
1990.46516,0.26300
1988.53641,0.26356
1986.60767,0.26395
1984.67892,0.26443
1982.75018,0.26501
1980.82143,0.26549
1978.89269,0.26578
1976.96394,0.26600
1975.03519,0.26634
1973.10645,0.26689
1971.17770,0.26751
1969.24896,0.26809
1967.32021,0.26872
1965.39147,0.26946
1963.46272,0.27028
1961.53398,0.27112
1959.60523,0.27198
1957.67649,0.27283
1955.74774,0.27367
1953.81900,0.27461
1951.89025,0.27560
1949.96151,0.27657
1948.03276,0.27762
1946.10402,0.27877
1944.17527,0.27989
1942.24652,0.28089
1940.31778,0.28168
1938.38903,0.28242
1936.46029,0.28328
1934.53154,0.28409
1932.60280,0.28468
1930.67405,0.28520
1928.74531,0.28571
1926.81656,0.28605
1924.88782,0.28624
1922.95907,0.28647
1921.03033,0.28667
1919.10158,0.28673
1917.17284,0.28670
1915.24409,0.28667
1913.31534,0.28668
1911.38660,0.28665
1909.45785,0.28653
1907.52911,0.28631
1905.60036,0.28604
1903.67162,0.28573
1901.74287,0.28539
1899.81413,0.28508
1897.88538,0.28492
1895.95664,0.28485
1894.02789,0.28477
1892.09915,0.28461
1890.17040,0.28438
1888.24166,0.28414
1886.31291,0.28396
1884.38417,0.28380
1882.45542,0.28359
1880.52667,0.28338
1878.59793,0.28335
1876.66918,0.28350
1874.74044,0.28362
1872.81169,0.28359
1870.88295,0.28343
1868.95420,0.28322
1867.02546,0.28303
1865.09671,0.28277
1863.16797,0.28241
1861.23922,0.28211
1859.31048,0.28195
1857.38173,0.28172
1855.45299,0.28128
1853.52424,0.28073
1851.59549,0.28016
1849.66675,0.27966
1847.73800,0.27920
1845.80926,0.27861
1843.88051,0.27789
1841.95177,0.27708
1840.02302,0.27613
1838.09428,0.27518
1836.16553,0.27441
1834.23679,0.27371
1832.30804,0.27290
1830.37930,0.27197
1828.45055,0.27093
1826.52181,0.26975
1824.59306,0.26838
1822.66432,0.26689
1820.73557,0.26536
1818.80682,0.26385
1816.87808,0.26252
1814.94933,0.26120
1813.02059,0.25967
1811.09184,0.25787
1809.16310,0.25582
1807.23435,0.25367
1805.30561,0.25165
1803.37686,0.24980
1801.44812,0.24776
1799.51937,0.24524
1797.59063,0.24247
1795.66188,0.23984
1793.73314,0.23724
1791.80439,0.23427
1789.87565,0.23094
1787.94690,0.22742
1786.01815,0.22366
1784.08941,0.21958
1782.16066,0.21516
1780.23192,0.21041
1778.30317,0.20538
1776.37443,0.20014
1774.44568,0.19427
1772.51694,0.18710
1770.58819,0.17911
1768.65945,0.17112
1766.73070,0.16303
1764.80196,0.15506
1762.87321,0.14682
1760.94447,0.13828
1759.01572,0.13058
1757.08697,0.12351
1755.15823,0.11708
1753.22948,0.11185
1751.30074,0.10723
1749.37199,0.10285
1747.44325,0.09911
1745.51450,0.09615
1743.58576,0.09381
1741.65701,0.09207
1739.72827,0.09091
1737.79952,0.09029
1735.87078,0.09014
1733.94203,0.09052
1732.01329,0.09132
1730.08454,0.09225
1728.15580,0.09343
1726.22705,0.09509
1724.29830,0.09708
1722.36956,0.09904
1720.44081,0.10108
1718.51207,0.10366
1716.58332,0.10650
1714.65458,0.10890
1712.72583,0.11119
1710.79709,0.11365
1708.86834,0.11609
1706.93960,0.11834
1705.01085,0.12012
1703.08211,0.12125
1701.15336,0.12197
1699.22462,0.12244
1697.29587,0.12260
1695.36713,0.12226
1693.43838,0.12138
1691.50963,0.12023
1689.58089,0.11876
1687.65214,0.11714
1685.72340,0.11523
1683.79465,0.11240
1681.86591,0.10937
1679.93716,0.10670
1678.00842,0.10402
1676.07967,0.10112
1674.15093,0.09823
1672.22218,0.09592
1670.29344,0.09388
1668.36469,0.09172
1666.43595,0.08987
1664.50720,0.08839
1662.57845,0.08722
1660.64971,0.08646
1658.72096,0.08597
1656.79222,0.08572
1654.86347,0.08570
1652.93473,0.08566
1651.00598,0.08543
1649.07724,0.08522
1647.14849,0.08488
1645.21975,0.08425
1643.29100,0.08374
1641.36226,0.08357
1639.43351,0.08362
1637.50477,0.08379
1635.57602,0.08410
1633.64728,0.08444
1631.71853,0.08473
1629.78978,0.08500
1627.86104,0.08520
1625.93229,0.08533
1624.00355,0.08528
1622.07480,0.08500
1620.14606,0.08466
1618.21731,0.08421
1616.28857,0.08355
1614.35982,0.08283
1612.43108,0.08212
1610.50233,0.08131
1608.57359,0.08060
1606.64484,0.08027
1604.71610,0.08015
1602.78735,0.08018
1600.85861,0.08043
1598.92986,0.08079
1597.00111,0.08097
1595.07237,0.08104
1593.14362,0.08142
1591.21488,0.08225
1589.28613,0.08350
1587.35739,0.08521
1585.42864,0.08741
1583.49990,0.09011
1581.57115,0.09342
1579.64241,0.09727
1577.71366,0.10172
1575.78492,0.10693
1573.85617,0.11191
1571.92743,0.11633
1569.99868,0.12082
1568.06993,0.12498
1566.14119,0.12824
1564.21244,0.13082
1562.28370,0.13298
1560.35495,0.13499
1558.42621,0.13640
1556.49746,0.13670
1554.56872,0.13672
1552.63997,0.13664
1550.71123,0.13626
1548.78248,0.13553
1546.85374,0.13461
1544.92499,0.13360
1542.99625,0.13227
1541.06750,0.13017
1539.13876,0.12698
1537.21001,0.12366
1535.28126,0.12012
1533.35252,0.11520
1531.42377,0.10933
1529.49503,0.10351
1527.56628,0.09726
1525.63754,0.09039
1523.70879,0.08348
1521.78005,0.07621
1519.85130,0.06923
1517.92256,0.06403
1515.99381,0.06063
1514.06507,0.05888
1512.13632,0.05834
1510.20758,0.05850
1508.27883,0.05949
1506.35008,0.06147
1504.42134,0.06375
1502.49259,0.06594
1500.56385,0.06837
1498.63510,0.07112
1496.70636,0.07382
1494.77761,0.07590
1492.84887,0.07734
1490.92012,0.07833
1488.99138,0.07867
1487.06263,0.07819
1485.13389,0.07726
1483.20514,0.07618
1481.27640,0.07488
1479.34765,0.07322
1477.41891,0.07117
1475.49016,0.06872
1473.56141,0.06589
1471.63267,0.06304
1469.70392,0.06083
1467.77518,0.05938
1465.84643,0.05855
1463.91769,0.05826
1461.98894,0.05832
1460.06020,0.05852
1458.13145,0.05841
1456.20271,0.05773
1454.27396,0.05719
1452.34522,0.05718
1450.41647,0.05762
1448.48773,0.05839
1446.55898,0.05911
1444.63024,0.05943
1442.70149,0.05945
1440.77274,0.05936
1438.84400,0.05897
1436.91525,0.05790
1434.98651,0.05657
1433.05776,0.05565
1431.12902,0.05521
1429.20027,0.05523
1427.27153,0.05560
1425.34278,0.05611
1423.41404,0.05669
1421.48529,0.05748
1419.55655,0.05868
1417.62780,0.05993
1415.69906,0.06080
1413.77031,0.06149
1411.84156,0.06218
1409.91282,0.06277
1407.98407,0.06316
1406.05533,0.06332
1404.12658,0.06341
1402.19784,0.06359
1400.26909,0.06369
1398.34035,0.06335
1396.41160,0.06253
1394.48286,0.06158
1392.55411,0.06066
1390.62537,0.05956
1388.69662,0.05809
1386.76788,0.05643
1384.83913,0.05493
1382.91039,0.05380
1380.98164,0.05316
1379.05289,0.05295
1377.12415,0.05291
1375.19540,0.05287
1373.26666,0.05293
1371.33791,0.05331
1369.40917,0.05393
1367.48042,0.05460
1365.55168,0.05527
1363.62293,0.05591
1361.69419,0.05657
1359.76544,0.05723
1357.83670,0.05775
1355.90795,0.05810
1353.97921,0.05841
1352.05046,0.05866
1350.12172,0.05869
1348.19297,0.05857
1346.26422,0.05835
1344.33548,0.05797
1342.40673,0.05748
1340.47799,0.05699
1338.54924,0.05656
1336.62050,0.05635
1334.69175,0.05634
1332.76301,0.05637
1330.83426,0.05639
1328.90552,0.05628
1326.97677,0.05597
1325.04803,0.05562
1323.11928,0.05534
1321.19054,0.05523
1319.26179,0.05538
1317.33304,0.05572
1315.40430,0.05614
1313.47555,0.05662
1311.54681,0.05700
1309.61806,0.05717
1307.68932,0.05745
1305.76057,0.05790
1303.83183,0.05812
1301.90308,0.05802
1299.97434,0.05775
1298.04559,0.05741
1296.11685,0.05700
1294.18810,0.05635
1292.25936,0.05545
1290.33061,0.05450
1288.40187,0.05356
1286.47312,0.05262
1284.54437,0.05179
1282.61563,0.05118
1280.68688,0.05080
1278.75814,0.05053
1276.82939,0.05030
1274.90065,0.05008
1272.97190,0.04994
1271.04316,0.05001
1269.11441,0.05036
1267.18567,0.05091
1265.25692,0.05151
1263.32818,0.05210
1261.39943,0.05269
1259.47069,0.05319
1257.54194,0.05356
1255.61320,0.05389
1253.68445,0.05420
1251.75570,0.05447
1249.82696,0.05467
1247.89821,0.05482
1245.96947,0.05490
1244.04072,0.05502
1242.11198,0.05518
1240.18323,0.05511
1238.25449,0.05466
1236.32574,0.05417
1234.39700,0.05404
1232.46825,0.05403
1230.53951,0.05396
1228.61076,0.05399
1226.68202,0.05414
1224.75327,0.05445
1222.82452,0.05489
1220.89578,0.05526
1218.96703,0.05541
1217.03829,0.05528
1215.10954,0.05496
1213.18080,0.05471
1211.25205,0.05470
1209.32331,0.05482
1207.39456,0.05479
1205.46582,0.05448
1203.53707,0.05435
1201.60833,0.05479
1199.67958,0.05535
1197.75084,0.05539
1195.82209,0.05503
1193.89335,0.05458
1191.96460,0.05410
1190.03585,0.05353
1188.10711,0.05277
1186.17836,0.05158
1184.24962,0.05005
1182.32087,0.04876
1180.39213,0.04799
1178.46338,0.04725
1176.53464,0.04625
1174.60589,0.04544
1172.67715,0.04527
1170.74840,0.04577
1168.81966,0.04684
1166.89091,0.04832
1164.96217,0.04989
1163.03342,0.05123
1161.10467,0.05210
1159.17593,0.05229
1157.24718,0.05195
1155.31844,0.05150
1153.38969,0.05113
1151.46095,0.05047
1149.53220,0.04948
1147.60346,0.04857
1145.67471,0.04780
1143.74597,0.04702
1141.81722,0.04623
1139.88848,0.04553
1137.95973,0.04487
1136.03099,0.04402
1134.10224,0.04315
1132.17350,0.04258
1130.24475,0.04233
1128.31600,0.04232
1126.38726,0.04253
1124.45851,0.04294
1122.52977,0.04344
1120.60102,0.04400
1118.67228,0.04469
1116.74353,0.04535
1114.81479,0.04593
1112.88604,0.04676
1110.95730,0.04781
1109.02855,0.04879
1107.09981,0.04947
1105.17106,0.04984
1103.24232,0.04999
1101.31357,0.04981
1099.38483,0.04942
1097.45608,0.04921
1095.52733,0.04910
1093.59859,0.04889
1091.66984,0.04882
1089.74110,0.04894
1087.81235,0.04917
1085.88361,0.04962
1083.95486,0.05037
1082.02612,0.05140
1080.09737,0.05274
1078.16863,0.05422
1076.23988,0.05560
1074.31114,0.05718
1072.38239,0.05925
1070.45365,0.06157
1068.52490,0.06401
1066.59615,0.06697
1064.66741,0.07049
1062.73866,0.07403
1060.80992,0.07689
1058.88117,0.07878
1056.95243,0.07971
1055.02368,0.07969
1053.09494,0.07890
1051.16619,0.07777
1049.23745,0.07663
1047.30870,0.07554
1045.37996,0.07464
1043.45121,0.07430
1041.52247,0.07471
1039.59372,0.07599
1037.66498,0.07818
1035.73623,0.08062
1033.80748,0.08251
1031.87874,0.08377
1029.94999,0.08448
1028.02125,0.08482
1026.09250,0.08515
1024.16376,0.08549
1022.23501,0.08572
1020.30627,0.08592
1018.37752,0.08629
1016.44878,0.08699
1014.52003,0.08779
1012.59129,0.08834
1010.66254,0.08881
1008.73380,0.08921
1006.80505,0.08952
1004.87631,0.09003
1002.94756,0.09083
1001.01881,0.09183
999.09007,0.09292
997.16132,0.09404
995.23258,0.09501
993.30383,0.09577
991.37509,0.09677
989.44634,0.09821
987.51760,0.10001
985.58885,0.10239
983.66011,0.10538
981.73136,0.10838
979.80262,0.11082
977.87387,0.11252
975.94513,0.11355
974.01638,0.11403
972.08763,0.11422
970.15889,0.11426
968.23014,0.11420
966.30140,0.11430
964.37265,0.11479
962.44391,0.11559
960.51516,0.11656
958.58642,0.11779
956.65767,0.11926
954.72893,0.12075
952.80018,0.12215
950.87144,0.12332
948.94269,0.12406
947.01395,0.12440
945.08520,0.12464
943.15646,0.12489
941.22771,0.12525
939.29896,0.12601
937.37022,0.12703
935.44147,0.12803
933.51273,0.12904
931.58398,0.12990
929.65524,0.13053
927.72649,0.13124
925.79775,0.13188
923.86900,0.13206
921.94026,0.13193
920.01151,0.13141
918.08277,0.12999
916.15402,0.12790
914.22528,0.12584
912.29653,0.12396
910.36779,0.12186
908.43904,0.11933
906.51029,0.11660
904.58155,0.11408
902.65280,0.11210
900.72406,0.11059
898.79531,0.10962
896.86657,0.10961
894.93782,0.11054
893.00908,0.11201
891.08033,0.11362
889.15159,0.11505
887.22284,0.11612
885.29410,0.11681
883.36535,0.11714
881.43661,0.11722
879.50786,0.11727
877.57911,0.11720
875.65037,0.11682
873.72162,0.11647
871.79288,0.11613
869.86413,0.11534
867.93539,0.11459
866.00664,0.11460
864.07790,0.11496
862.14915,0.11538
860.22041,0.11605
858.29166,0.11673
856.36292,0.11736
854.43417,0.11840
852.50543,0.11997
850.57668,0.12166
848.64794,0.12306
846.71919,0.12422
844.79044,0.12526
842.86170,0.12573
840.93295,0.12520
839.00421,0.12399
837.07546,0.12262
835.14672,0.12130
833.21797,0.11995
831.28923,0.11839
829.36048,0.11678
827.43174,0.11531
825.50299,0.11391
823.57425,0.11251
821.64550,0.11094
819.71676,0.10887
817.78801,0.10657
815.85926,0.10487
813.93052,0.10378
812.00177,0.10282
810.07303,0.10233
808.14428,0.10265
806.21554,0.10345
804.28679,0.10447
802.35805,0.10568
800.42930,0.10667
798.50056,0.10712
796.57181,0.10726
794.64307,0.10741
792.71432,0.10737
790.78558,0.10709
788.85683,0.10674
786.92809,0.10606
784.99934,0.10504
783.07059,0.10400
781.14185,0.10298
779.21310,0.10198
777.28436,0.10102
775.35561,0.10006
773.42687,0.09922
771.49812,0.09853
769.56938,0.09799
767.64063,0.09794
765.71189,0.09811
763.78314,0.09770
761.85440,0.09701
759.92565,0.09661
757.99691,0.09606
756.06816,0.09508
754.13942,0.09408
752.21067,0.09335
750.28192,0.09281
748.35318,0.09246
746.42443,0.09233
744.49569,0.09225
742.56694,0.09213
740.63820,0.09194
738.70945,0.09158
736.78071,0.09105
734.85196,0.09045
732.92322,0.08995
730.99447,0.08937
729.06573,0.08834
727.13698,0.08716
725.20824,0.08641
723.27949,0.08583
721.35074,0.08520
719.42200,0.08465
717.49325,0.08409
715.56451,0.08347
713.63576,0.08293
711.70702,0.08256
709.77827,0.08247
707.84953,0.08246
705.92078,0.08211
703.99204,0.08145
702.06329,0.08058
700.13455,0.07975
698.20580,0.07948
696.27706,0.07966
694.34831,0.07950
692.41957,0.07874
690.49082,0.07795
688.56207,0.07767
686.63333,0.07753
684.70458,0.07689
682.77584,0.07603
680.84709,0.07531
678.91835,0.07455
676.98960,0.07374
675.06086,0.07291
673.13211,0.07245
671.20337,0.07286
669.27462,0.07367
667.34588,0.07402
665.41713,0.07408
663.48839,0.07453
661.55964,0.07520
659.63090,0.07556
657.70215,0.07569
655.77340,0.07609
653.84466,0.07679
651.91591,0.07711
649.98717,0.07682
648.05842,0.07662
646.12968,0.07662
644.20093,0.07619
642.27219,0.07548
640.34344,0.07485
638.41470,0.07429
636.48595,0.07390
634.55721,0.07349
632.62846,0.07278
630.69972,0.07196
628.77097,0.07112
626.84222,0.07033
624.91348,0.06964
622.98473,0.06909
621.05599,0.06939
619.12724,0.07096
617.19850,0.07282
615.26975,0.07434
613.34101,0.07633
611.41226,0.07844
609.48352,0.07900
607.55477,0.07872
605.62603,0.07953
603.69728,0.08036
601.76854,0.07958
599.83979,0.07832
