7497.03301,0.83468
7495.10426,0.83493
7493.17552,0.83769
7491.24677,0.84099
7489.31803,0.83963
7487.38928,0.83307
7485.46054,0.82903
7483.53179,0.83117
7481.60305,0.83455
7479.67430,0.83556
7477.74556,0.83431
7475.81681,0.83129
7473.88807,0.82978
7471.95932,0.83182
7470.03057,0.83355
7468.10183,0.83227
7466.17308,0.82854
7464.24434,0.82380
7462.31559,0.82026
7460.38685,0.81850
7458.45810,0.81814
7456.52936,0.81916
7454.60061,0.82168
7452.67187,0.82389
7450.74312,0.82281
7448.81438,0.82032
7446.88563,0.81872
7444.95689,0.81790
7443.02814,0.81825
7441.09940,0.81732
7439.17065,0.81285
7437.24190,0.80776
7435.31316,0.80622
7433.38441,0.80891
7431.45567,0.81100
7429.52692,0.80943
7427.59818,0.80918
7425.66943,0.81120
7423.74069,0.80903
7421.81194,0.80301
7419.88320,0.79901
7417.95445,0.79971
7416.02571,0.80363
7414.09696,0.80675
7412.16822,0.80724
7410.23947,0.80552
7408.31073,0.80233
7406.38198,0.80012
7404.45323,0.79845
7402.52449,0.79377
7400.59574,0.78878
7398.66700,0.78740
7396.73825,0.78655
7394.80951,0.78474
7392.88076,0.78557
7390.95202,0.79157
7389.02327,0.79781
7387.09453,0.79682
7385.16578,0.79217
7383.23704,0.79015
7381.30829,0.78994
7379.37955,0.79110
7377.45080,0.79110
7375.52205,0.78599
7373.59331,0.78001
7371.66456,0.77836
7369.73582,0.77979
7367.80707,0.78192
7365.87833,0.78295
7363.94958,0.78324
7362.02084,0.78397
7360.09209,0.78334
7358.16335,0.78154
7356.23460,0.78287
7354.30586,0.78784
7352.37711,0.79019
7350.44837,0.78674
7348.51962,0.78147
7346.59088,0.77847
7344.66213,0.77947
7342.73338,0.78201
7340.80464,0.78046
7338.87589,0.77563
7336.94715,0.77323
7335.01840,0.77398
7333.08966,0.77549
7331.16091,0.77658
7329.23217,0.77624
7327.30342,0.77450
7325.37468,0.77240
7323.44593,0.77020
7321.51719,0.76839
7319.58844,0.76649
7317.65970,0.76492
7315.73095,0.76676
7313.80221,0.77111
7311.87346,0.77331
7309.94471,0.77252
7308.01597,0.76960
7306.08722,0.76522
7304.15848,0.76304
7302.22973,0.76650
7300.30099,0.77272
7298.37224,0.77409
7296.44350,0.77005
7294.51475,0.76688
7292.58601,0.76574
7290.65726,0.76473
7288.72852,0.76498
7286.79977,0.76685
7284.87103,0.76716
7282.94228,0.76369
7281.01353,0.75949
7279.08479,0.75830
7277.15604,0.75946
7275.22730,0.76133
7273.29855,0.76464
7271.36981,0.76842
7269.44106,0.76800
7267.51232,0.76361
7265.58357,0.76212
7263.65483,0.76568
7261.72608,0.77266
7259.79734,0.78057
7257.86859,0.78156
7255.93985,0.77393
7254.01110,0.76686
7252.08236,0.76565
7250.15361,0.76634
7248.22486,0.76391
7246.29612,0.75970
7244.36737,0.75874
7242.43863,0.76290
7240.50988,0.76820
7238.58114,0.76991
7236.65239,0.76836
7234.72365,0.76460
7232.79490,0.76055
7230.86616,0.76068
7228.93741,0.76482
7227.00867,0.76756
7225.07992,0.76622
7223.15118,0.76479
7221.22243,0.76608
7219.29369,0.76638
7217.36494,0.76433
7215.43619,0.76300
7213.50745,0.76264
7211.57870,0.76137
7209.64996,0.75844
7207.72121,0.75468
7205.79247,0.75316
7203.86372,0.75589
7201.93498,0.76043
7200.00623,0.76330
7198.07749,0.76431
7196.14874,0.76399
7194.22000,0.76198
7192.29125,0.75963
7190.36251,0.75813
7188.43376,0.75732
7186.50501,0.75602
7184.57627,0.75275
7182.64752,0.74910
7180.71878,0.74743
7178.79003,0.74823
7176.86129,0.74946
7174.93254,0.74818
7173.00380,0.74536
7171.07505,0.74342
7169.14631,0.74310
7167.21756,0.74422
7165.28882,0.74573
7163.36007,0.74638
7161.43133,0.74649
7159.50258,0.74737
7157.57384,0.74752
7155.64509,0.74652
7153.71634,0.74586
7151.78760,0.74258
7149.85885,0.73627
7147.93011,0.73264
7146.00136,0.73247
7144.07262,0.73223
7142.14387,0.73212
7140.21513,0.73322
7138.28638,0.73347
7136.35764,0.73160
7134.42889,0.73020
7132.50015,0.73021
7130.57140,0.72801
7128.64266,0.72348
7126.71391,0.71996
7124.78516,0.71689
7122.85642,0.71367
7120.92767,0.71303
7118.99893,0.71545
7117.07018,0.71741
7115.14144,0.71673
7113.21269,0.71431
7111.28395,0.71041
7109.35520,0.70592
7107.42646,0.70355
7105.49771,0.70361
7103.56897,0.70300
7101.64022,0.70010
7099.71148,0.69776
7097.78273,0.69759
7095.85399,0.69599
7093.92524,0.69155
7091.99649,0.68784
7090.06775,0.68604
7088.13900,0.68412
7086.21026,0.68267
7084.28151,0.68336
7082.35277,0.68324
7080.42402,0.68053
7078.49528,0.67884
7076.56653,0.67960
7074.63779,0.68041
7072.70904,0.67898
7070.78030,0.67496
7068.85155,0.67094
7066.92281,0.66800
7064.99406,0.66478
7063.06532,0.66240
7061.13657,0.66281
7059.20782,0.66511
7057.27908,0.66634
7055.35033,0.66342
7053.42159,0.65551
7051.49284,0.64656
7049.56410,0.64237
7047.63535,0.64318
7045.70661,0.64490
7043.77786,0.64584
7041.84912,0.64592
7039.92037,0.64412
7037.99163,0.64027
7036.06288,0.63601
7034.13414,0.63371
7032.20539,0.63411
7030.27664,0.63500
7028.34790,0.63402
7026.41915,0.63086
7024.49041,0.62715
7022.56166,0.62444
7020.63292,0.62151
7018.70417,0.61740
7016.77543,0.61403
7014.84668,0.61324
7012.91794,0.61559
7010.98919,0.61853
7009.06045,0.61745
7007.13170,0.61241
7005.20296,0.60775
7003.27421,0.60553
7001.34547,0.60427
6999.41672,0.60264
6997.48797,0.60184
6995.55923,0.60262
6993.63048,0.60345
6991.70174,0.60461
6989.77299,0.60692
6987.84425,0.60730
6985.91550,0.60410
6983.98676,0.60110
6982.05801,0.60046
6980.12927,0.60058
6978.20052,0.60122
6976.27178,0.60238
6974.34303,0.60202
6972.41429,0.60094
6970.48554,0.60186
6968.55680,0.60301
6966.62805,0.60183
6964.69930,0.60021
6962.77056,0.60050
6960.84181,0.60028
6958.91307,0.59685
6956.98432,0.59343
6955.05558,0.59201
6953.12683,0.59000
6951.19809,0.58806
6949.26934,0.58778
6947.34060,0.58807
6945.41185,0.58914
6943.48311,0.59051
6941.55436,0.59089
6939.62562,0.59157
6937.69687,0.59252
6935.76812,0.59152
6933.83938,0.58946
6931.91063,0.58879
6929.98189,0.58879
6928.05314,0.58838
6926.12440,0.58790
6924.19565,0.58773
6922.26691,0.58838
6920.33816,0.58859
6918.40942,0.58725
6916.48067,0.58616
6914.55193,0.58609
6912.62318,0.58668
6910.69444,0.58785
6908.76569,0.58863
6906.83695,0.58748
6904.90820,0.58352
6902.97945,0.57984
6901.05071,0.58054
6899.12196,0.58441
6897.19322,0.58825
6895.26447,0.59035
6893.33573,0.58977
6891.40698,0.58733
6889.47824,0.58434
6887.54949,0.58233
6885.62075,0.58340
6883.69200,0.58639
6881.76326,0.58788
6879.83451,0.58703
6877.90577,0.58638
6875.97702,0.58839
6874.04828,0.59061
6872.11953,0.58981
6870.19078,0.58798
6868.26204,0.58762
6866.33329,0.58840
6864.40455,0.58813
6862.47580,0.58660
6860.54706,0.58689
6858.61831,0.58888
6856.68957,0.58876
6854.76082,0.58527
6852.83208,0.58233
6850.90333,0.58384
6848.97459,0.58633
6847.04584,0.58494
6845.11710,0.58094
6843.18835,0.57719
6841.25960,0.57588
6839.33086,0.57769
6837.40211,0.57975
6835.47337,0.58013
6833.54462,0.58143
6831.61588,0.58451
6829.68713,0.58544
6827.75839,0.58425
6825.82964,0.58518
6823.90090,0.58610
6821.97215,0.58342
6820.04341,0.58071
6818.11466,0.58183
6816.18592,0.58428
6814.25717,0.58409
6812.32843,0.58278
6810.39968,0.58373
6808.47093,0.58548
6806.54219,0.58525
6804.61344,0.58396
6802.68470,0.58340
6800.75595,0.58304
6798.82721,0.58278
6796.89846,0.58393
6794.96972,0.58623
6793.04097,0.58708
6791.11223,0.58536
6789.18348,0.58396
6787.25474,0.58502
6785.32599,0.58767
6783.39725,0.58972
6781.46850,0.58887
6779.53975,0.58595
6777.61101,0.58327
6775.68226,0.58193
6773.75352,0.58171
6771.82477,0.58141
6769.89603,0.58148
6767.96728,0.58162
6766.03854,0.58093
6764.10979,0.58066
6762.18105,0.58123
6760.25230,0.58186
6758.32356,0.58179
6756.39481,0.58132
6754.46607,0.58226
6752.53732,0.58471
6750.60858,0.58612
6748.67983,0.58541
6746.75108,0.58452
6744.82234,0.58465
6742.89359,0.58546
6740.96485,0.58686
6739.03610,0.58780
6737.10736,0.58757
6735.17861,0.58788
6733.24987,0.58931
6731.32112,0.58947
6729.39238,0.58828
6727.46363,0.58791
6725.53489,0.58844
6723.60614,0.58991
6721.67740,0.59207
6719.74865,0.59338
6717.81991,0.59279
6715.89116,0.58993
6713.96241,0.58649
6712.03367,0.58533
6710.10492,0.58730
6708.17618,0.59067
6706.24743,0.59329
6704.31869,0.59477
6702.38994,0.59549
6700.46120,0.59553
6698.53245,0.59439
6696.60371,0.59270
6694.67496,0.59239
6692.74622,0.59285
6690.81747,0.59198
6688.88873,0.58981
6686.95998,0.58865
6685.03123,0.59072
6683.10249,0.59377
6681.17374,0.59316
6679.24500,0.58991
6677.31625,0.58856
6675.38751,0.58910
6673.45876,0.58903
6671.53002,0.58919
6669.60127,0.59089
6667.67253,0.59241
6665.74378,0.59272
6663.81504,0.59279
6661.88629,0.59264
6659.95755,0.59188
6658.02880,0.59207
6656.10006,0.59461
6654.17131,0.59745
6652.24256,0.59887
6650.31382,0.59970
6648.38507,0.60004
6646.45633,0.60007
6644.52758,0.60072
6642.59884,0.60199
6640.67009,0.60360
6638.74135,0.60492
6636.81260,0.60416
6634.88386,0.60086
6632.95511,0.59743
6631.02637,0.59544
6629.09762,0.59520
6627.16888,0.59707
6625.24013,0.59933
6623.31139,0.60013
6621.38264,0.60077
6619.45389,0.60241
6617.52515,0.60395
6615.59640,0.60544
6613.66766,0.60682
6611.73891,0.60689
6609.81017,0.60608
6607.88142,0.60513
6605.95268,0.60501
6604.02393,0.60639
6602.09519,0.60794
6600.16644,0.60854
6598.23770,0.60779
6596.30895,0.60610
6594.38021,0.60514
6592.45146,0.60483
6590.52271,0.60382
6588.59397,0.60337
6586.66522,0.60499
6584.73648,0.60710
6582.80773,0.60791
6580.87899,0.60797
6578.95024,0.60826
6577.02150,0.60869
6575.09275,0.60832
6573.16401,0.60658
6571.23526,0.60506
6569.30652,0.60542
6567.37777,0.60689
6565.44903,0.60876
6563.52028,0.61095
6561.59154,0.61293
6559.66279,0.61458
6557.73404,0.61591
6555.80530,0.61593
6553.87655,0.61434
6551.94781,0.61289
6550.01906,0.61258
6548.09032,0.61273
6546.16157,0.61264
6544.23283,0.61167
6542.30408,0.61031
6540.37534,0.61087
6538.44659,0.61400
6536.51785,0.61658
6534.58910,0.61619
6532.66036,0.61438
6530.73161,0.61365
6528.80287,0.61363
6526.87412,0.61267
6524.94537,0.61179
6523.01663,0.61157
6521.08788,0.61065
6519.15914,0.61076
6517.23039,0.61379
6515.30165,0.61685
6513.37290,0.61720
6511.44416,0.61572
6509.51541,0.61390
6507.58667,0.61272
6505.65792,0.61235
6503.72918,0.61221
6501.80043,0.61309
6499.87169,0.61526
6497.94294,0.61683
6496.01419,0.61760
6494.08545,0.61862
6492.15670,0.61959
6490.22796,0.62017
6488.29921,0.62067
6486.37047,0.62095
6484.44172,0.62045
6482.51298,0.61935
6480.58423,0.61800
6478.65549,0.61636
6476.72674,0.61540
6474.79800,0.61590
6472.86925,0.61702
6470.94051,0.61764
6469.01176,0.61710
6467.08302,0.61541
6465.15427,0.61486
6463.22552,0.61779
6461.29678,0.62174
6459.36803,0.62281
6457.43929,0.62113
6455.51054,0.61900
6453.58180,0.61769
6451.65305,0.61768
6449.72431,0.61918
6447.79556,0.62083
6445.86682,0.62104
6443.93807,0.62009
6442.00933,0.61931
6440.08058,0.61982
6438.15184,0.62039
6436.22309,0.61987
6434.29434,0.62058
6432.36560,0.62336
6430.43685,0.62532
6428.50811,0.62557
6426.57936,0.62538
6424.65062,0.62504
6422.72187,0.62498
6420.79313,0.62529
6418.86438,0.62480
6416.93564,0.62328
6415.00689,0.62250
6413.07815,0.62386
6411.14940,0.62576
6409.22066,0.62587
6407.29191,0.62433
6405.36317,0.62307
6403.43442,0.62342
6401.50567,0.62461
6399.57693,0.62515
6397.64818,0.62402
6395.71944,0.62194
6393.79069,0.62141
6391.86195,0.62287
6389.93320,0.62446
6388.00446,0.62556
6386.07571,0.62557
6384.14697,0.62399
6382.21822,0.62242
6380.28948,0.62181
6378.36073,0.62221
6376.43199,0.62416
6374.50324,0.62596
6372.57450,0.62574
6370.64575,0.62626
6368.71700,0.62962
6366.78826,0.63239
6364.85951,0.63182
6362.93077,0.62956
6361.00202,0.62826
6359.07328,0.62833
6357.14453,0.62858
6355.21579,0.62890
6353.28704,0.62968
6351.35830,0.63061
6349.42955,0.63076
6347.50081,0.62966
6345.57206,0.62774
6343.64332,0.62603
6341.71457,0.62631
6339.78582,0.62752
6337.85708,0.62702
6335.92833,0.62600
6333.99959,0.62612
6332.07084,0.62665
6330.14210,0.62721
6328.21335,0.62823
6326.28461,0.62946
6324.35586,0.62973
6322.42712,0.62890
6320.49837,0.62839
6318.56963,0.62837
6316.64088,0.62802
6314.71214,0.62798
6312.78339,0.62944
6310.85465,0.63136
6308.92590,0.63137
6306.99715,0.63046
6305.06841,0.63067
6303.13966,0.63110
6301.21092,0.63159
6299.28217,0.63291
6297.35343,0.63417
6295.42468,0.63466
6293.49594,0.63513
6291.56719,0.63544
6289.63845,0.63480
6287.70970,0.63457
6285.78096,0.63486
6283.85221,0.63456
6281.92347,0.63523
6279.99472,0.63715
6278.06598,0.63898
6276.13723,0.64111
6274.20848,0.64276
6272.27974,0.64189
6270.35099,0.63902
6268.42225,0.63693
6266.49350,0.63710
6264.56476,0.63862
6262.63601,0.64065
6260.70727,0.64283
6258.77852,0.64347
6256.84978,0.64246
6254.92103,0.64229
6252.99229,0.64403
6251.06354,0.64649
6249.13480,0.64787
6247.20605,0.64824
6245.27730,0.64895
6243.34856,0.64971
6241.41981,0.65015
6239.49107,0.65027
6237.56232,0.64970
6235.63358,0.65006
6233.70483,0.65209
6231.77609,0.65343
6229.84734,0.65326
6227.91860,0.65334
6225.98985,0.65469
6224.06111,0.65631
6222.13236,0.65638
6220.20362,0.65492
6218.27487,0.65402
6216.34613,0.65458
6214.41738,0.65601
6212.48863,0.65825
6210.55989,0.66051
6208.63114,0.66167
6206.70240,0.66211
6204.77365,0.66213
6202.84491,0.66146
6200.91616,0.66044
6198.98742,0.66018
6197.05867,0.66121
6195.12993,0.66264
6193.20118,0.66396
6191.27244,0.66505
6189.34369,0.66576
6187.41495,0.66634
6185.48620,0.66658
6183.55746,0.66690
6181.62871,0.66773
6179.69996,0.66805
6177.77122,0.66818
6175.84247,0.66942
6173.91373,0.67142
6171.98498,0.67309
6170.05624,0.67346
6168.12749,0.67322
6166.19875,0.67424
6164.27000,0.67534
6162.34126,0.67527
6160.41251,0.67500
6158.48377,0.67385
6156.55502,0.67200
6154.62628,0.67196
6152.69753,0.67337
6150.76878,0.67434
6148.84004,0.67454
6146.91129,0.67474
6144.98255,0.67668
6143.05380,0.67958
6141.12506,0.68019
6139.19631,0.67931
6137.26757,0.67935
6135.33882,0.67916
6133.41008,0.67846
6131.48133,0.67878
6129.55259,0.67960
6127.62384,0.68012
6125.69510,0.68059
6123.76635,0.68061
6121.83761,0.68081
6119.90886,0.68222
6117.98011,0.68264
6116.05137,0.68076
6114.12262,0.67963
6112.19388,0.68042
6110.26513,0.68181
6108.33639,0.68389
6106.40764,0.68572
6104.47890,0.68589
6102.55015,0.68496
6100.62141,0.68370
6098.69266,0.68267
6096.76392,0.68259
6094.83517,0.68329
6092.90643,0.68413
6090.97768,0.68483
6089.04893,0.68497
6087.12019,0.68450
6085.19144,0.68392
6083.26270,0.68361
6081.33395,0.68382
6079.40521,0.68427
6077.47646,0.68451
6075.54772,0.68451
6073.61897,0.68435
6071.69023,0.68422
6069.76148,0.68385
6067.83274,0.68279
6065.90399,0.68171
6063.97525,0.68162
6062.04650,0.68186
6060.11776,0.68091
6058.18901,0.67923
6056.26026,0.67816
6054.33152,0.67803
6052.40277,0.67904
6050.47403,0.68067
6048.54528,0.68130
6046.61654,0.68032
6044.68779,0.67878
6042.75905,0.67766
6040.83030,0.67685
6038.90156,0.67604
6036.97281,0.67524
6035.04407,0.67496
6033.11532,0.67487
6031.18658,0.67410
6029.25783,0.67360
6027.32909,0.67405
6025.40034,0.67395
6023.47159,0.67289
6021.54285,0.67209
6019.61410,0.67154
6017.68536,0.67083
6015.75661,0.67045
6013.82787,0.67032
6011.89912,0.66991
6009.97038,0.66937
6008.04163,0.66897
6006.11289,0.66795
6004.18414,0.66580
6002.25540,0.66427
6000.32665,0.66456
5998.39791,0.66486
5996.46916,0.66379
5994.54041,0.66222
5992.61167,0.66113
5990.68292,0.66079
5988.75418,0.66160
5986.82543,0.66322
5984.89669,0.66414
5982.96794,0.66353
5981.03920,0.66215
5979.11045,0.66175
5977.18171,0.66320
5975.25296,0.66488
5973.32422,0.66498
5971.39547,0.66376
5969.46673,0.66219
5967.53798,0.66115
5965.60924,0.66121
5963.68049,0.66153
5961.75174,0.66142
5959.82300,0.66126
5957.89425,0.66118
5955.96551,0.66057
5954.03676,0.65915
5952.10802,0.65846
5950.17927,0.65988
5948.25053,0.66175
5946.32178,0.66242
5944.39304,0.66252
5942.46429,0.66257
5940.53555,0.66264
5938.60680,0.66294
5936.67806,0.66326
5934.74931,0.66351
5932.82057,0.66428
5930.89182,0.66559
5928.96307,0.66612
5927.03433,0.66518
5925.10558,0.66413
5923.17684,0.66399
5921.24809,0.66420
5919.31935,0.66413
5917.39060,0.66395
5915.46186,0.66391
5913.53311,0.66372
5911.60437,0.66318
5909.67562,0.66291
5907.74688,0.66341
5905.81813,0.66351
5903.88939,0.66228
5901.96064,0.66107
5900.03189,0.66097
5898.10315,0.66063
5896.17440,0.65925
5894.24566,0.65870
5892.31691,0.65981
5890.38817,0.66065
5888.45942,0.66022
5886.53068,0.65925
5884.60193,0.65832
5882.67319,0.65730
5880.74444,0.65621
5878.81570,0.65652
5876.88695,0.65782
5874.95821,0.65714
5873.02946,0.65521
5871.10072,0.65471
5869.17197,0.65549
5867.24322,0.65626
5865.31448,0.65577
5863.38573,0.65438
5861.45699,0.65401
5859.52824,0.65467
5857.59950,0.65516
5855.67075,0.65537
5853.74201,0.65618
5851.81326,0.65788
5849.88452,0.65886
5847.95577,0.65811
5846.02703,0.65706
5844.09828,0.65695
5842.16954,0.65741
5840.24079,0.65760
5838.31205,0.65694
5836.38330,0.65579
5834.45455,0.65507
5832.52581,0.65473
5830.59706,0.65380
5828.66832,0.65231
5826.73957,0.65187
5824.81083,0.65323
5822.88208,0.65441
5820.95334,0.65417
5819.02459,0.65382
5817.09585,0.65369
5815.16710,0.65303
5813.23836,0.65208
5811.30961,0.65143
5809.38087,0.65101
5807.45212,0.65057
5805.52337,0.65023
5803.59463,0.64991
5801.66588,0.64979
5799.73714,0.65045
5797.80839,0.65127
5795.87965,0.65159
5793.95090,0.65197
5792.02216,0.65269
5790.09341,0.65272
5788.16467,0.65141
5786.23592,0.64986
5784.30718,0.64892
5782.37843,0.64875
5780.44969,0.64941
5778.52094,0.65019
5776.59220,0.65129
5774.66345,0.65322
5772.73470,0.65447
5770.80596,0.65393
5768.87721,0.65279
5766.94847,0.65257
5765.01972,0.65358
5763.09098,0.65477
5761.16223,0.65489
5759.23349,0.65381
5757.30474,0.65257
5755.37600,0.65241
5753.44725,0.65332
5751.51851,0.65451
5749.58976,0.65626
5747.66102,0.65794
5745.73227,0.65747
5743.80352,0.65560
5741.87478,0.65449
5739.94603,0.65403
5738.01729,0.65382
5736.08854,0.65461
5734.15980,0.65627
5732.23105,0.65723
5730.30231,0.65660
5728.37356,0.65487
5726.44482,0.65286
5724.51607,0.65150
5722.58733,0.65154
5720.65858,0.65284
5718.72984,0.65429
5716.80109,0.65510
5714.87235,0.65509
5712.94360,0.65448
5711.01485,0.65368
5709.08611,0.65267
5707.15736,0.65195
5705.22862,0.65186
5703.29987,0.65177
5701.37113,0.65172
5699.44238,0.65214
5697.51364,0.65267
5695.58489,0.65271
5693.65615,0.65229
5691.72740,0.65165
5689.79866,0.65106
5687.86991,0.65108
5685.94117,0.65166
5684.01242,0.65242
5682.08368,0.65298
5680.15493,0.65259
5678.22618,0.65166
5676.29744,0.65154
5674.36869,0.65217
5672.43995,0.65235
5670.51120,0.65173
5668.58246,0.65082
5666.65371,0.64989
5664.72497,0.64933
5662.79622,0.64964
5660.86748,0.65017
5658.93873,0.65035
5657.00999,0.65096
5655.08124,0.65174
5653.15250,0.65128
5651.22375,0.64995
5649.29500,0.64937
5647.36626,0.64954
5645.43751,0.64969
5643.50877,0.65001
5641.58002,0.65059
5639.65128,0.65098
5637.72253,0.65139
5635.79379,0.65221
5633.86504,0.65302
5631.93630,0.65322
5630.00755,0.65258
5628.07881,0.65148
5626.15006,0.65082
5624.22132,0.65067
5622.29257,0.65054
5620.36383,0.65067
5618.43508,0.65078
5616.50633,0.65026
5614.57759,0.64997
5612.64884,0.65071
5610.72010,0.65113
5608.79135,0.65062
5606.86261,0.65046
5604.93386,0.65088
5603.00512,0.65116
5601.07637,0.65140
5599.14763,0.65175
5597.21888,0.65171
5595.29014,0.65079
5593.36139,0.64980
5591.43265,0.64986
5589.50390,0.65077
5587.57516,0.65145
5585.64641,0.65140
5583.71766,0.65128
5581.78892,0.65182
5579.86017,0.65253
5577.93143,0.65228
5576.00268,0.65133
5574.07394,0.65107
5572.14519,0.65174
5570.21645,0.65258
5568.28770,0.65292
5566.35896,0.65245
5564.43021,0.65177
5562.50147,0.65172
5560.57272,0.65234
5558.64398,0.65326
5556.71523,0.65428
5554.78648,0.65538
5552.85774,0.65595
5550.92899,0.65525
5549.00025,0.65411
5547.07150,0.65392
5545.14276,0.65469
5543.21401,0.65533
5541.28527,0.65532
5539.35652,0.65532
5537.42778,0.65540
5535.49903,0.65528
5533.57029,0.65532
5531.64154,0.65557
5529.71280,0.65588
5527.78405,0.65603
5525.85531,0.65589
5523.92656,0.65607
5521.99781,0.65684
5520.06907,0.65728
5518.14032,0.65705
5516.21158,0.65694
5514.28283,0.65720
5512.35409,0.65729
5510.42534,0.65687
5508.49660,0.65653
5506.56785,0.65734
5504.63911,0.65891
5502.71036,0.65933
5500.78162,0.65847
5498.85287,0.65812
5496.92413,0.65890
5494.99538,0.65978
5493.06664,0.65972
5491.13789,0.65891
5489.20914,0.65831
5487.28040,0.65834
5485.35165,0.65921
5483.42291,0.66066
5481.49416,0.66142
5479.56542,0.66110
5477.63667,0.66087
5475.70793,0.66122
5473.77918,0.66096
5471.85044,0.65968
5469.92169,0.65910
5467.99295,0.66016
5466.06420,0.66149
5464.13546,0.66201
5462.20671,0.66240
5460.27796,0.66311
5458.34922,0.66339
5456.42047,0.66283
5454.49173,0.66225
5452.56298,0.66254
5450.63424,0.66355
5448.70549,0.66461
5446.77675,0.66546
5444.84800,0.66644
5442.91926,0.66734
5440.99051,0.66725
5439.06177,0.66689
5437.13302,0.66746
5435.20428,0.66777
5433.27553,0.66760
5431.34679,0.66890
5429.41804,0.67073
5427.48929,0.67059
5425.56055,0.66967
5423.63180,0.66981
5421.70306,0.67019
5419.77431,0.67053
5417.84557,0.67142
5415.91682,0.67214
5413.98808,0.67204
5412.05933,0.67167
5410.13059,0.67171
5408.20184,0.67236
5406.27310,0.67347
5404.34435,0.67479
5402.41561,0.67574
5400.48686,0.67579
5398.55811,0.67525
5396.62937,0.67430
5394.70062,0.67326
5392.77188,0.67316
5390.84313,0.67393
5388.91439,0.67439
5386.98564,0.67437
5385.05690,0.67470
5383.12815,0.67547
5381.19941,0.67610
5379.27066,0.67623
5377.34192,0.67573
5375.41317,0.67503
5373.48443,0.67467
5371.55568,0.67473
5369.62694,0.67514
5367.69819,0.67560
5365.76944,0.67556
5363.84070,0.67492
5361.91195,0.67419
5359.98321,0.67393
5358.05446,0.67430
5356.12572,0.67490
5354.19697,0.67519
5352.26823,0.67520
5350.33948,0.67516
5348.41074,0.67483
5346.48199,0.67381
5344.55325,0.67263
5342.62450,0.67203
5340.69576,0.67164
5338.76701,0.67123
5336.83827,0.67103
5334.90952,0.67088
5332.98077,0.67036
5331.05203,0.66906
5329.12328,0.66732
5327.19454,0.66610
5325.26579,0.66526
5323.33705,0.66398
5321.40830,0.66275
5319.47956,0.66202
5317.55081,0.66090
5315.62207,0.65898
5313.69332,0.65677
5311.76458,0.65479
5309.83583,0.65316
5307.90709,0.65161
5305.97834,0.64995
5304.04959,0.64825
5302.12085,0.64630
5300.19210,0.64376
5298.26336,0.64063
5296.33461,0.63756
5294.40587,0.63499
5292.47712,0.63256
5290.54838,0.62999
5288.61963,0.62741
5286.69089,0.62486
5284.76214,0.62211
5282.83340,0.61881
5280.90465,0.61505
5278.97591,0.61140
5277.04716,0.60796
5275.11842,0.60443
5273.18967,0.60075
5271.26092,0.59695
5269.33218,0.59323
5267.40343,0.58942
5265.47469,0.58488
5263.54594,0.58016
5261.61720,0.57645
5259.68845,0.57328
5257.75971,0.56966
5255.83096,0.56576
5253.90222,0.56228
5251.97347,0.55922
5250.04473,0.55573
5248.11598,0.55144
5246.18724,0.54747
5244.25849,0.54489
5242.32975,0.54305
5240.40100,0.54071
5238.47225,0.53784
5236.54351,0.53512
5234.61476,0.53319
5232.68602,0.53214
5230.75727,0.53073
5228.82853,0.52810
5226.89978,0.52516
5224.97104,0.52264
5223.04229,0.52057
5221.11355,0.51929
5219.18480,0.51886
5217.25606,0.51845
5215.32731,0.51680
5213.39857,0.51423
5211.46982,0.51265
5209.54107,0.51230
5207.61233,0.51151
5205.68358,0.50982
5203.75484,0.50841
5201.82609,0.50803
5199.89735,0.50829
5197.96860,0.50846
5196.03986,0.50841
5194.11111,0.50837
5192.18237,0.50843
5190.25362,0.50848
5188.32488,0.50869
5186.39613,0.50915
5184.46739,0.50937
5182.53864,0.50900
5180.60990,0.50861
5178.68115,0.50911
5176.75240,0.51046
5174.82366,0.51153
5172.89491,0.51178
5170.96617,0.51172
5169.03742,0.51203
5167.10868,0.51267
5165.17993,0.51321
5163.25119,0.51407
5161.32244,0.51540
5159.39370,0.51627
5157.46495,0.51660
5155.53621,0.51717
5153.60746,0.51821
5151.67872,0.51926
5149.74997,0.51984
5147.82123,0.52027
5145.89248,0.52100
5143.96373,0.52211
5142.03499,0.52353
5140.10624,0.52505
5138.17750,0.52646
5136.24875,0.52776
5134.32001,0.52918
5132.39126,0.53038
5130.46252,0.53074
5128.53377,0.53096
5126.60503,0.53209
5124.67628,0.53388
5122.74754,0.53535
5120.81879,0.53623
5118.89005,0.53726
5116.96130,0.53873
5115.03255,0.53983
5113.10381,0.54025
5111.17506,0.54095
5109.24632,0.54232
5107.31757,0.54356
5105.38883,0.54435
5103.46008,0.54504
5101.53134,0.54614
5099.60259,0.54771
5097.67385,0.54899
5095.74510,0.54978
5093.81636,0.55052
5091.88761,0.55111
5089.95887,0.55149
5088.03012,0.55235
5086.10138,0.55381
5084.17263,0.55532
5082.24388,0.55657
5080.31514,0.55723
5078.38639,0.55755
5076.45765,0.55843
5074.52890,0.55978
5072.60016,0.56118
5070.67141,0.56280
5068.74267,0.56420
5066.81392,0.56465
5064.88518,0.56476
5062.95643,0.56555
5061.02769,0.56699
5059.09894,0.56819
5057.17020,0.56848
5055.24145,0.56835
5053.31270,0.56896
5051.38396,0.57027
5049.45521,0.57118
5047.52647,0.57180
5045.59772,0.57283
5043.66898,0.57380
5041.74023,0.57456
5039.81149,0.57566
5037.88274,0.57669
5035.95400,0.57707
5034.02525,0.57742
5032.09651,0.57816
5030.16776,0.57868
5028.23902,0.57880
5026.31027,0.57901
5024.38153,0.57937
5022.45278,0.57976
5020.52403,0.58021
5018.59529,0.58082
5016.66654,0.58185
5014.73780,0.58294
5012.80905,0.58332
5010.88031,0.58311
5008.95156,0.58286
5007.02282,0.58278
5005.09407,0.58284
5003.16533,0.58266
5001.23658,0.58193
4999.30784,0.58107
4997.37909,0.58052
4995.45035,0.58035
4993.52160,0.58041
4991.59286,0.58046
4989.66411,0.58047
4987.73536,0.58062
4985.80662,0.58090
4983.87787,0.58074
4981.94913,0.57980
4980.02038,0.57846
4978.09164,0.57718
4976.16289,0.57639
4974.23415,0.57600
4972.30540,0.57497
4970.37666,0.57331
4968.44791,0.57205
4966.51917,0.57114
4964.59042,0.57003
4962.66168,0.56859
4960.73293,0.56723
4958.80418,0.56631
4956.87544,0.56546
4954.94669,0.56407
4953.01795,0.56192
4951.08920,0.55943
4949.16046,0.55731
4947.23171,0.55569
4945.30297,0.55448
4943.37422,0.55353
4941.44548,0.55210
4939.51673,0.54994
4937.58799,0.54798
4935.65924,0.54640
4933.73050,0.54469
4931.80175,0.54276
4929.87301,0.54062
4927.94426,0.53856
4926.01551,0.53651
4924.08677,0.53411
4922.15802,0.53162
4920.22928,0.52920
4918.30053,0.52704
4916.37179,0.52552
4914.44304,0.52415
4912.51430,0.52251
4910.58555,0.52067
4908.65681,0.51843
4906.72806,0.51624
4904.79932,0.51450
4902.87057,0.51259
4900.94183,0.51068
4899.01308,0.50929
4897.08434,0.50783
4895.15559,0.50590
4893.22684,0.50372
4891.29810,0.50125
4889.36935,0.49894
4887.44061,0.49735
4885.51186,0.49592
4883.58312,0.49417
4881.65437,0.49275
4879.72563,0.49150
4877.79688,0.48957
4875.86814,0.48730
4873.93939,0.48536
4872.01065,0.48362
4870.08190,0.48205
4868.15316,0.48073
4866.22441,0.47944
4864.29566,0.47777
4862.36692,0.47588
4860.43817,0.47430
4858.50943,0.47298
4856.58068,0.47165
4854.65194,0.47019
4852.72319,0.46876
4850.79445,0.46762
4848.86570,0.46657
4846.93696,0.46520
4845.00821,0.46347
4843.07947,0.46157
4841.15072,0.45985
4839.22198,0.45854
4837.29323,0.45766
4835.36449,0.45705
4833.43574,0.45646
4831.50699,0.45560
4829.57825,0.45434
4827.64950,0.45281
4825.72076,0.45121
4823.79201,0.44961
4821.86327,0.44807
4819.93452,0.44675
4818.00578,0.44577
4816.07703,0.44490
4814.14829,0.44407
4812.21954,0.44375
4810.29080,0.44384
4808.36205,0.44363
4806.43331,0.44294
4804.50456,0.44202
4802.57582,0.44117
4800.64707,0.44060
4798.71832,0.44000
4796.78958,0.43892
4794.86083,0.43773
4792.93209,0.43718
4791.00334,0.43720
4789.07460,0.43724
4787.14585,0.43706
4785.21711,0.43658
4783.28836,0.43597
4781.35962,0.43571
4779.43087,0.43565
4777.50213,0.43516
4775.57338,0.43446
4773.64464,0.43411
4771.71589,0.43381
4769.78714,0.43322
4767.85840,0.43268
4765.92965,0.43259
4764.00091,0.43306
4762.07216,0.43374
4760.14342,0.43413
4758.21467,0.43417
4756.28593,0.43387
4754.35718,0.43337
4752.42844,0.43328
4750.49969,0.43362
4748.57095,0.43380
4746.64220,0.43369
4744.71346,0.43353
4742.78471,0.43340
4740.85597,0.43331
4738.92722,0.43325
4736.99847,0.43302
4735.06973,0.43284
4733.14098,0.43312
4731.21224,0.43368
4729.28349,0.43402
4727.35475,0.43399
4725.42600,0.43391
4723.49726,0.43418
4721.56851,0.43481
4719.63977,0.43533
4717.71102,0.43562
4715.78228,0.43583
4713.85353,0.43625
4711.92479,0.43706
4709.99604,0.43779
4708.06729,0.43802
4706.13855,0.43794
4704.20980,0.43787
4702.28106,0.43822
4700.35231,0.43901
4698.42357,0.43962
4696.49482,0.43964
4694.56608,0.43936
4692.63733,0.43934
4690.70859,0.43982
4688.77984,0.44065
4686.85110,0.44126
4684.92235,0.44127
4682.99361,0.44126
4681.06486,0.44177
4679.13612,0.44225
4677.20737,0.44245
4675.27862,0.44276
4673.34988,0.44317
4671.42113,0.44353
4669.49239,0.44408
4667.56364,0.44512
4665.63490,0.44649
4663.70615,0.44756
4661.77741,0.44812
4659.84866,0.44863
4657.91992,0.44951
4655.99117,0.45084
4654.06243,0.45228
4652.13368,0.45341
4650.20494,0.45401
4648.27619,0.45423
4646.34745,0.45469
4644.41870,0.45556
4642.48995,0.45630
4640.56121,0.45670
4638.63246,0.45707
4636.70372,0.45773
4634.77497,0.45873
4632.84623,0.45987
4630.91748,0.46087
4628.98874,0.46190
4627.05999,0.46329
4625.13125,0.46475
4623.20250,0.46594
4621.27376,0.46696
4619.34501,0.46800
4617.41627,0.46916
4615.48752,0.47028
4613.55877,0.47115
4611.63003,0.47206
4609.70128,0.47345
4607.77254,0.47504
4605.84379,0.47637
4603.91505,0.47761
4601.98630,0.47864
4600.05756,0.47936
4598.12881,0.48020
4596.20007,0.48120
4594.27132,0.48227
4592.34258,0.48368
4590.41383,0.48499
4588.48509,0.48570
4586.55634,0.48611
4584.62760,0.48646
4582.69885,0.48684
4580.77010,0.48728
4578.84136,0.48777
4576.91261,0.48843
4574.98387,0.48944
4573.05512,0.49091
4571.12638,0.49233
4569.19763,0.49311
4567.26889,0.49355
4565.34014,0.49426
4563.41140,0.49506
4561.48265,0.49541
4559.55391,0.49545
4557.62516,0.49560
4555.69642,0.49588
4553.76767,0.49632
4551.83893,0.49700
4549.91018,0.49769
4547.98143,0.49823
4546.05269,0.49875
4544.12394,0.49935
4542.19520,0.50004
4540.26645,0.50072
4538.33771,0.50119
4536.40896,0.50139
4534.48022,0.50168
4532.55147,0.50236
4530.62273,0.50310
4528.69398,0.50359
4526.76524,0.50398
4524.83649,0.50414
4522.90775,0.50395
4520.97900,0.50381
4519.05025,0.50394
4517.12151,0.50425
4515.19276,0.50462
4513.26402,0.50502
4511.33527,0.50525
4509.40653,0.50511
4507.47778,0.50472
4505.54904,0.50413
4503.62029,0.50355
4501.69155,0.50322
4499.76280,0.50264
4497.83406,0.50166
4495.90531,0.50087
4493.97657,0.50018
4492.04782,0.49925
4490.11908,0.49807
4488.19033,0.49671
4486.26158,0.49540
4484.33284,0.49425
4482.40409,0.49308
4480.47535,0.49160
4478.54660,0.48957
4476.61786,0.48736
4474.68911,0.48550
4472.76037,0.48395
4470.83162,0.48235
4468.90288,0.48033
4466.97413,0.47795
4465.04539,0.47560
4463.11664,0.47338
4461.18790,0.47102
4459.25915,0.46860
4457.33041,0.46624
4455.40166,0.46371
4453.47291,0.46101
4451.54417,0.45855
4449.61542,0.45647
4447.68668,0.45459
4445.75793,0.45257
4443.82919,0.45018
4441.90044,0.44759
4439.97170,0.44491
4438.04295,0.44223
4436.11421,0.43991
4434.18546,0.43758
4432.25672,0.43470
4430.32797,0.43154
4428.39923,0.42859
4426.47048,0.42593
4424.54173,0.42332
4422.61299,0.42050
4420.68424,0.41764
4418.75550,0.41513
4416.82675,0.41279
4414.89801,0.41031
4412.96926,0.40782
4411.04052,0.40548
4409.11177,0.40361
4407.18303,0.40271
4405.25428,0.40244
4403.32554,0.40191
4401.39679,0.40097
4399.46805,0.40004
4397.53930,0.39933
4395.61056,0.39909
4393.68181,0.39941
4391.75306,0.39988
4389.82432,0.40026
4387.89557,0.40080
4385.96683,0.40162
4384.03808,0.40238
4382.10934,0.40287
4380.18059,0.40341
4378.25185,0.40438
4376.32310,0.40573
4374.39436,0.40718
4372.46561,0.40841
4370.53687,0.40925
4368.60812,0.41001
4366.67938,0.41100
4364.75063,0.41197
4362.82189,0.41277
4360.89314,0.41352
4358.96439,0.41406
4357.03565,0.41404
4355.10690,0.41370
4353.17816,0.41348
4351.24941,0.41319
4349.32067,0.41279
4347.39192,0.41261
4345.46318,0.41261
4343.53443,0.41238
4341.60569,0.41195
4339.67694,0.41168
4337.74820,0.41157
4335.81945,0.41144
4333.89071,0.41125
4331.96196,0.41075
4330.03321,0.40974
4328.10447,0.40851
4326.17572,0.40744
4324.24698,0.40676
4322.31823,0.40640
4320.38949,0.40595
4318.46074,0.40518
4316.53200,0.40413
4314.60325,0.40301
4312.67451,0.40203
4310.74576,0.40119
4308.81702,0.40037
4306.88827,0.39940
4304.95953,0.39819
4303.03078,0.39708
4301.10204,0.39633
4299.17329,0.39581
4297.24454,0.39524
4295.31580,0.39452
4293.38705,0.39388
4291.45831,0.39319
4289.52956,0.39234
4287.60082,0.39166
4285.67207,0.39104
4283.74333,0.39045
4281.81458,0.39030
4279.88584,0.39032
4277.95709,0.39013
4276.02835,0.39015
4274.09960,0.39066
4272.17086,0.39133
4270.24211,0.39168
4268.31336,0.39171
4266.38462,0.39194
4264.45587,0.39266
4262.52713,0.39334
4260.59838,0.39343
4258.66964,0.39338
4256.74089,0.39382
4254.81215,0.39459
4252.88340,0.39528
4250.95466,0.39576
4249.02591,0.39594
4247.09717,0.39612
4245.16842,0.39664
4243.23968,0.39726
4241.31093,0.39757
4239.38219,0.39761
4237.45344,0.39761
4235.52469,0.39753
4233.59595,0.39731
4231.66720,0.39722
4229.73846,0.39740
4227.80971,0.39771
4225.88097,0.39788
4223.95222,0.39782
4222.02348,0.39776
4220.09473,0.39782
4218.16599,0.39789
4216.23724,0.39767
4214.30850,0.39726
4212.37975,0.39721
4210.45101,0.39759
4208.52226,0.39786
4206.59352,0.39773
4204.66477,0.39746
4202.73602,0.39746
4200.80728,0.39785
4198.87853,0.39829
4196.94979,0.39865
4195.02104,0.39896
4193.09230,0.39885
4191.16355,0.39843
4189.23481,0.39853
4187.30606,0.39927
4185.37732,0.39990
4183.44857,0.40022
4181.51983,0.40033
4179.59108,0.40027
4177.66234,0.40046
4175.73359,0.40115
4173.80484,0.40201
4171.87610,0.40276
4169.94735,0.40341
4168.01861,0.40394
4166.08986,0.40426
4164.16112,0.40441
4162.23237,0.40442
4160.30363,0.40447
4158.37488,0.40465
4156.44614,0.40447
4154.51739,0.40386
4152.58865,0.40344
4150.65990,0.40334
4148.73116,0.40304
4146.80241,0.40236
4144.87367,0.40158
4142.94492,0.40064
4141.01617,0.39957
4139.08743,0.39859
4137.15868,0.39757
4135.22994,0.39664
4133.30119,0.39583
4131.37245,0.39479
4129.44370,0.39349
4127.51496,0.39228
4125.58621,0.39123
4123.65747,0.39005
4121.72872,0.38861
4119.79998,0.38703
4117.87123,0.38549
4115.94249,0.38405
4114.01374,0.38261
4112.08500,0.38098
4110.15625,0.37907
4108.22750,0.37704
4106.29876,0.37533
4104.37001,0.37405
4102.44127,0.37257
4100.51252,0.37048
4098.58378,0.36812
4096.65503,0.36594
4094.72629,0.36419
4092.79754,0.36260
4090.86880,0.36075
4088.94005,0.35864
4087.01131,0.35645
4085.08256,0.35442
4083.15382,0.35268
4081.22507,0.35086
4079.29632,0.34884
4077.36758,0.34697
4075.43883,0.34522
4073.51009,0.34321
4071.58134,0.34089
4069.65260,0.33858
4067.72385,0.33646
4065.79511,0.33433
4063.86636,0.33226
4061.93762,0.33052
4060.00887,0.32905
4058.08013,0.32753
4056.15138,0.32568
4054.22264,0.32366
4052.29389,0.32204
4050.36515,0.32086
4048.43640,0.31954
4046.50765,0.31793
4044.57891,0.31632
4042.65016,0.31464
4040.72142,0.31295
4038.79267,0.31163
4036.86393,0.31063
4034.93518,0.30982
4033.00644,0.30917
4031.07769,0.30845
4029.14895,0.30756
4027.22020,0.30665
4025.29146,0.30574
4023.36271,0.30476
4021.43397,0.30401
4019.50522,0.30370
4017.57648,0.30361
4015.64773,0.30345
4013.71898,0.30319
4011.79024,0.30310
4009.86149,0.30332
4007.93275,0.30369
4006.00400,0.30391
4004.07526,0.30385
4002.14651,0.30385
4000.21777,0.30431
3998.28902,0.30507
3996.36028,0.30572
3994.43153,0.30627
3992.50279,0.30692
3990.57404,0.30760
3988.64530,0.30822
3986.71655,0.30896
3984.78780,0.30967
3982.85906,0.31005
3980.93031,0.31020
3979.00157,0.31045
3977.07282,0.31101
3975.14408,0.31185
3973.21533,0.31256
3971.28659,0.31299
3969.35784,0.31355
3967.42910,0.31447
3965.50035,0.31547
3963.57161,0.31629
3961.64286,0.31699
3959.71412,0.31784
3957.78537,0.31900
3955.85663,0.32023
3953.92788,0.32107
3951.99913,0.32152
3950.07039,0.32221
3948.14164,0.32344
3946.21290,0.32457
3944.28415,0.32520
3942.35541,0.32585
3940.42666,0.32692
3938.49792,0.32809
3936.56917,0.32928
3934.64043,0.33073
3932.71168,0.33225
3930.78294,0.33344
3928.85419,0.33444
3926.92545,0.33544
3924.99670,0.33641
3923.06795,0.33735
3921.13921,0.33824
3919.21046,0.33905
3917.28172,0.33976
3915.35297,0.34032
3913.42423,0.34084
3911.49548,0.34154
3909.56674,0.34236
3907.63799,0.34314
3905.70925,0.34408
3903.78050,0.34528
3901.85176,0.34629
3899.92301,0.34696
3897.99427,0.34763
3896.06552,0.34854
3894.13678,0.34946
3892.20803,0.35018
3890.27928,0.35080
3888.35054,0.35142
3886.42179,0.35202
3884.49305,0.35256
3882.56430,0.35303
3880.63556,0.35352
3878.70681,0.35403
3876.77807,0.35459
3874.84932,0.35527
3872.92058,0.35603
3870.99183,0.35693
3869.06309,0.35802
3867.13434,0.35908
3865.20560,0.36002
3863.27685,0.36072
3861.34811,0.36115
3859.41936,0.36176
3857.49061,0.36278
3855.56187,0.36404
3853.63312,0.36549
3851.70438,0.36678
3849.77563,0.36746
3847.84689,0.36785
3845.91814,0.36833
3843.98940,0.36907
3842.06065,0.36997
3840.13191,0.37080
3838.20316,0.37140
3836.27442,0.37164
3834.34567,0.37157
3832.41693,0.37156
3830.48818,0.37177
3828.55943,0.37212
3826.63069,0.37239
3824.70194,0.37264
3822.77320,0.37295
3820.84445,0.37294
3818.91571,0.37279
3816.98696,0.37315
3815.05822,0.37346
3813.12947,0.37323
3811.20073,0.37307
3809.27198,0.37314
3807.34324,0.37304
3805.41449,0.37275
3803.48575,0.37264
3801.55700,0.37272
3799.62826,0.37259
3797.69951,0.37227
3795.77076,0.37206
3793.84202,0.37214
3791.91327,0.37239
3789.98453,0.37244
3788.05578,0.37232
3786.12704,0.37209
3784.19829,0.37168
3782.26955,0.37128
3780.34080,0.37112
3778.41206,0.37105
3776.48331,0.37076
3774.55457,0.37033
3772.62582,0.37008
3770.69708,0.36998
3768.76833,0.36957
3766.83959,0.36887
3764.91084,0.36833
3762.98209,0.36799
3761.05335,0.36753
3759.12460,0.36683
3757.19586,0.36627
3755.26711,0.36586
3753.33837,0.36530
3751.40962,0.36437
3749.48088,0.36322
3747.55213,0.36239
3745.62339,0.36159
3743.69464,0.36063
3741.76590,0.35995
3739.83715,0.35928
3737.90841,0.35819
3735.97966,0.35664
3734.05091,0.35483
3732.12217,0.35303
3730.19342,0.35142
3728.26468,0.34985
3726.33593,0.34812
3724.40719,0.34640
3722.47844,0.34495
3720.54970,0.34342
3718.62095,0.34154
3716.69221,0.33959
3714.76346,0.33774
3712.83472,0.33569
3710.90597,0.33317
3708.97723,0.33042
3707.04848,0.32778
3705.11974,0.32515
3703.19099,0.32229
3701.26224,0.31915
3699.33350,0.31593
3697.40475,0.31251
3695.47601,0.30884
3693.54726,0.30519
3691.61852,0.30135
3689.68977,0.29668
3687.76103,0.29133
3685.83228,0.28631
3683.90354,0.28172
3681.97479,0.27685
3680.04605,0.27153
3678.11730,0.26609
3676.18856,0.25990
3674.25981,0.25307
3672.33107,0.24705
3670.40232,0.24114
3668.47357,0.23466
3666.54483,0.22851
3664.61608,0.22274
3662.68734,0.21708
3660.75859,0.21146
3658.82985,0.20584
3656.90110,0.20008
3654.97236,0.19470
3653.04361,0.19035
3651.11487,0.18599
3649.18612,0.18083
3647.25738,0.17581
3645.32863,0.17149
3643.39989,0.16762
3641.47114,0.16378
3639.54239,0.15982
3637.61365,0.15598
3635.68490,0.15228
3633.75616,0.14878
3631.82741,0.14566
3629.89867,0.14233
3627.96992,0.13831
3626.04118,0.13460
3624.11243,0.13160
3622.18369,0.12916
3620.25494,0.12684
3618.32620,0.12397
3616.39745,0.12098
3614.46871,0.11829
3612.53996,0.11545
3610.61122,0.11249
3608.68247,0.10982
3606.75372,0.10741
3604.82498,0.10501
3602.89623,0.10262
3600.96749,0.10043
3599.03874,0.09831
3597.11000,0.09603
3595.18125,0.09365
3593.25251,0.09140
3591.32376,0.08953
3589.39502,0.08793
3587.46627,0.08629
3585.53753,0.08459
3583.60878,0.08300
3581.68004,0.08172
3579.75129,0.08063
3577.82254,0.07932
3575.89380,0.07775
3573.96505,0.07627
3572.03631,0.07499
3570.10756,0.07394
3568.17882,0.07296
3566.25007,0.07176
3564.32133,0.07055
3562.39258,0.06957
3560.46384,0.06844
3558.53509,0.06719
3556.60635,0.06644
3554.67760,0.06608
3552.74886,0.06538
3550.82011,0.06445
3548.89137,0.06365
3546.96262,0.06296
3545.03387,0.06233
3543.10513,0.06184
3541.17638,0.06133
3539.24764,0.06049
3537.31889,0.05949
3535.39015,0.05866
3533.46140,0.05814
3531.53266,0.05792
3529.60391,0.05760
3527.67517,0.05683
3525.74642,0.05598
3523.81768,0.05551
3521.88893,0.05536
3519.96019,0.05513
3518.03144,0.05464
3516.10270,0.05415
3514.17395,0.05373
3512.24520,0.05330
3510.31646,0.05291
3508.38771,0.05246
3506.45897,0.05207
3504.53022,0.05184
3502.60148,0.05152
3500.67273,0.05101
3498.74399,0.05050
3496.81524,0.05038
3494.88650,0.05063
3492.95775,0.05062
3491.02901,0.05014
3489.10026,0.04964
3487.17152,0.04922
3485.24277,0.04862
3483.31402,0.04809
3481.38528,0.04805
3479.45653,0.04821
3477.52779,0.04804
3475.59904,0.04759
3473.67030,0.04736
3471.74155,0.04748
3469.81281,0.04752
3467.88406,0.04720
3465.95532,0.04676
3464.02657,0.04635
3462.09783,0.04588
3460.16908,0.04553
3458.24034,0.04573
3456.31159,0.04621
3454.38285,0.04615
3452.45410,0.04559
3450.52535,0.04524
3448.59661,0.04515
3446.66786,0.04512
3444.73912,0.04533
3442.81037,0.04562
3440.88163,0.04577
3438.95288,0.04601
3437.02414,0.04618
3435.09539,0.04590
3433.16665,0.04544
3431.23790,0.04538
3429.30916,0.04577
3427.38041,0.04612
3425.45167,0.04616
3423.52292,0.04601
3421.59418,0.04590
3419.66543,0.04592
3417.73668,0.04603
3415.80794,0.04622
3413.87919,0.04638
3411.95045,0.04621
3410.02170,0.04574
3408.09296,0.04543
3406.16421,0.04556
3404.23547,0.04593
3402.30672,0.04635
3400.37798,0.04671
3398.44923,0.04677
3396.52049,0.04659
3394.59174,0.04664
3392.66300,0.04678
3390.73425,0.04646
3388.80550,0.04612
3386.87676,0.04642
3384.94801,0.04685
3383.01927,0.04694
3381.09052,0.04689
3379.16178,0.04672
3377.23303,0.04625
3375.30429,0.04593
3373.37554,0.04624
3371.44680,0.04690
3369.51805,0.04737
3367.58931,0.04755
3365.66056,0.04758
3363.73182,0.04774
3361.80307,0.04813
3359.87433,0.04858
3357.94558,0.04882
3356.01683,0.04872
3354.08809,0.04861
3352.15934,0.04863
3350.23060,0.04854
3348.30185,0.04848
3346.37311,0.04888
3344.44436,0.04971
3342.51562,0.05038
3340.58687,0.05068
3338.65813,0.05105
3336.72938,0.05158
3334.80064,0.05190
3332.87189,0.05184
3330.94315,0.05174
3329.01440,0.05199
3327.08566,0.05233
3325.15691,0.05256
3323.22816,0.05288
3321.29942,0.05316
3319.37067,0.05322
3317.44193,0.05319
3315.51318,0.05319
3313.58444,0.05339
3311.65569,0.05393
3309.72695,0.05452
3307.79820,0.05468
3305.86946,0.05452
3303.94071,0.05462
3302.01197,0.05514
3300.08322,0.05561
3298.15448,0.05573
3296.22573,0.05569
3294.29698,0.05587
3292.36824,0.05628
3290.43949,0.05670
3288.51075,0.05701
3286.58200,0.05720
3284.65326,0.05722
3282.72451,0.05726
3280.79577,0.05759
3278.86702,0.05816
3276.93828,0.05885
3275.00953,0.05943
3273.08079,0.05970
3271.15204,0.05990
3269.22330,0.06038
3267.29455,0.06098
3265.36581,0.06129
3263.43706,0.06127
3261.50831,0.06135
3259.57957,0.06183
3257.65082,0.06257
3255.72208,0.06325
3253.79333,0.06370
3251.86459,0.06384
3249.93584,0.06386
3248.00710,0.06408
3246.07835,0.06458
3244.14961,0.06534
3242.22086,0.06622
3240.29212,0.06701
3238.36337,0.06789
3236.43463,0.06877
3234.50588,0.06907
3232.57713,0.06892
3230.64839,0.06895
3228.71964,0.06941
3226.79090,0.07000
3224.86215,0.07050
3222.93341,0.07105
3221.00466,0.07180
3219.07592,0.07248
3217.14717,0.07283
3215.21843,0.07321
3213.28968,0.07398
3211.36094,0.07477
3209.43219,0.07520
3207.50345,0.07575
3205.57470,0.07655
3203.64596,0.07711
3201.71721,0.07754
3199.78846,0.07818
3197.85972,0.07886
3195.93097,0.07940
3194.00223,0.07998
3192.07348,0.08072
3190.14474,0.08139
3188.21599,0.08189
3186.28725,0.08252
3184.35850,0.08341
3182.42976,0.08428
3180.50101,0.08498
3178.57227,0.08559
3176.64352,0.08613
3174.71478,0.08680
3172.78603,0.08758
3170.85729,0.08803
3168.92854,0.08828
3166.99979,0.08881
3165.07105,0.08949
3163.14230,0.09015
3161.21356,0.09102
3159.28481,0.09192
3157.35607,0.09255
3155.42732,0.09324
3153.49858,0.09409
3151.56983,0.09467
3149.64109,0.09488
3147.71234,0.09521
3145.78360,0.09611
3143.85485,0.09741
3141.92611,0.09837
3139.99736,0.09881
3138.06861,0.09933
3136.13987,0.10014
3134.21112,0.10087
3132.28238,0.10141
3130.35363,0.10198
3128.42489,0.10265
3126.49614,0.10333
3124.56740,0.10409
3122.63865,0.10498
3120.70991,0.10575
3118.78116,0.10627
3116.85242,0.10675
3114.92367,0.10736
3112.99493,0.10813
3111.06618,0.10901
3109.13744,0.10979
3107.20869,0.11046
3105.27994,0.11109
3103.35120,0.11162
3101.42245,0.11202
3099.49371,0.11247
3097.56496,0.11317
3095.63622,0.11387
3093.70747,0.11434
3091.77873,0.11482
3089.84998,0.11538
3087.92124,0.11593
3085.99249,0.11642
3084.06375,0.11670
3082.13500,0.11694
3080.20626,0.11746
3078.27751,0.11808
3076.34877,0.11861
3074.42002,0.11918
3072.49127,0.11987
3070.56253,0.12044
3068.63378,0.12082
3066.70504,0.12117
3064.77629,0.12152
3062.84755,0.12182
3060.91880,0.12226
3058.99006,0.12304
3057.06131,0.12393
3055.13257,0.12467
3053.20382,0.12537
3051.27508,0.12614
3049.34633,0.12684
3047.41759,0.12728
3045.48884,0.12746
3043.56009,0.12760
3041.63135,0.12788
3039.70260,0.12807
3037.77386,0.12802
3035.84511,0.12808
3033.91637,0.12843
3031.98762,0.12868
3030.05888,0.12858
3028.13013,0.12850
3026.20139,0.12866
3024.27264,0.12876
3022.34390,0.12863
3020.41515,0.12828
3018.48641,0.12765
3016.55766,0.12695
3014.62892,0.12630
3012.70017,0.12550
3010.77142,0.12449
3008.84268,0.12334
3006.91393,0.12230
3004.98519,0.12148
3003.05644,0.12071
3001.12770,0.11994
2999.19895,0.11931
2997.27021,0.11874
2995.34146,0.11803
2993.41272,0.11697
2991.48397,0.11553
2989.55523,0.11396
2987.62648,0.11241
2985.69774,0.11067
2983.76899,0.10854
2981.84025,0.10623
2979.91150,0.10395
2977.98275,0.10160
2976.05401,0.09912
2974.12526,0.09662
2972.19652,0.09431
2970.26777,0.09227
2968.33903,0.09046
2966.41028,0.08887
2964.48154,0.08749
2962.55279,0.08636
2960.62405,0.08541
2958.69530,0.08445
2956.76656,0.08348
2954.83781,0.08238
2952.90907,0.08110
2950.98032,0.07976
2949.05157,0.07841
2947.12283,0.07720
2945.19408,0.07626
2943.26534,0.07566
2941.33659,0.07525
2939.40785,0.07489
2937.47910,0.07463
2935.55036,0.07441
2933.62161,0.07404
2931.69287,0.07365
2929.76412,0.07358
2927.83538,0.07379
2925.90663,0.07392
2923.97789,0.07380
2922.04914,0.07358
2920.12040,0.07349
2918.19165,0.07352
2916.26290,0.07360
2914.33416,0.07362
2912.40541,0.07357
2910.47667,0.07366
2908.54792,0.07389
2906.61918,0.07405
2904.69043,0.07413
2902.76169,0.07419
2900.83294,0.07426
2898.90420,0.07445
2896.97545,0.07482
2895.04671,0.07529
2893.11796,0.07582
2891.18922,0.07628
2889.26047,0.07663
2887.33172,0.07710
2885.40298,0.07772
2883.47423,0.07825
2881.54549,0.07869
2879.61674,0.07932
2877.68800,0.08014
2875.75925,0.08085
2873.83051,0.08123
2871.90176,0.08132
2869.97302,0.08148
2868.04427,0.08202
2866.11553,0.08288
2864.18678,0.08387
2862.25804,0.08483
2860.32929,0.08581
2858.40055,0.08683
2856.47180,0.08783
2854.54305,0.08879
2852.61431,0.08972
2850.68556,0.09057
2848.75682,0.09147
2846.82807,0.09270
2844.89933,0.09428
2842.97058,0.09604
2841.04184,0.09776
2839.11309,0.09924
2837.18435,0.10066
2835.25560,0.10238
2833.32686,0.10442
2831.39811,0.10650
2829.46937,0.10863
2827.54062,0.11089
2825.61188,0.11305
2823.68313,0.11501
2821.75438,0.11711
2819.82564,0.11933
2817.89689,0.12130
2815.96815,0.12301
2814.03940,0.12465
2812.11066,0.12638
2810.18191,0.12819
2808.25317,0.12979
2806.32442,0.13108
2804.39568,0.13235
2802.46693,0.13370
2800.53819,0.13487
2798.60944,0.13580
2796.68070,0.13675
2794.75195,0.13782
2792.82320,0.13876
2790.89446,0.13945
2788.96571,0.14011
2787.03697,0.14092
2785.10822,0.14171
2783.17948,0.14220
2781.25073,0.14249
2779.32199,0.14290
2777.39324,0.14342
2775.46450,0.14383
2773.53575,0.14413
2771.60701,0.14443
2769.67826,0.14479
2767.74952,0.14524
2765.82077,0.14557
2763.89203,0.14574
2761.96328,0.14607
2760.03453,0.14657
2758.10579,0.14685
2756.17704,0.14685
2754.24830,0.14686
2752.31955,0.14707
2750.39081,0.14724
2748.46206,0.14724
2746.53332,0.14730
2744.60457,0.14748
2742.67583,0.14765
2740.74708,0.14773
2738.81834,0.14779
2736.88959,0.14792
2734.96085,0.14819
2733.03210,0.14857
2731.10336,0.14892
2729.17461,0.14921
2727.24586,0.14961
2725.31712,0.15017
2723.38837,0.15089
2721.45963,0.15163
2719.53088,0.15221
2717.60214,0.15275
2715.67339,0.15327
2713.74465,0.15370
2711.81590,0.15418
2709.88716,0.15494
2707.95841,0.15587
2706.02967,0.15679
2704.10092,0.15766
2702.17218,0.15854
2700.24343,0.15925
2698.31468,0.15969
2696.38594,0.16019
2694.45719,0.16102
2692.52845,0.16212
2690.59970,0.16308
2688.67096,0.16366
2686.74221,0.16411
2684.81347,0.16470
2682.88472,0.16533
2680.95598,0.16589
2679.02723,0.16650
2677.09849,0.16713
2675.16974,0.16762
2673.24100,0.16806
2671.31225,0.16863
2669.38351,0.16929
2667.45476,0.16976
2665.52601,0.17001
2663.59727,0.17031
2661.66852,0.17074
2659.73978,0.17125
2657.81103,0.17179
2655.88229,0.17224
2653.95354,0.17254
2652.02480,0.17289
2650.09605,0.17344
2648.16731,0.17409
2646.23856,0.17470
2644.30982,0.17519
2642.38107,0.17560
2640.45233,0.17606
2638.52358,0.17665
2636.59484,0.17736
2634.66609,0.17803
2632.73734,0.17865
2630.80860,0.17936
2628.87985,0.18014
2626.95111,0.18084
2625.02236,0.18138
2623.09362,0.18176
2621.16487,0.18218
2619.23613,0.18269
2617.30738,0.18320
2615.37864,0.18370
2613.44989,0.18413
2611.52115,0.18451
2609.59240,0.18504
2607.66366,0.18574
2605.73491,0.18643
2603.80616,0.18695
2601.87742,0.18737
2599.94867,0.18784
2598.01993,0.18832
2596.09118,0.18873
2594.16244,0.18923
2592.23369,0.18975
2590.30495,0.19011
2588.37620,0.19050
2586.44746,0.19108
2584.51871,0.19172
2582.58997,0.19220
2580.66122,0.19251
2578.73248,0.19278
2576.80373,0.19305
2574.87499,0.19327
2572.94624,0.19344
2571.01749,0.19362
2569.08875,0.19384
2567.16000,0.19415
2565.23126,0.19446
2563.30251,0.19463
2561.37377,0.19470
2559.44502,0.19476
2557.51628,0.19487
2555.58753,0.19503
2553.65879,0.19510
2551.73004,0.19500
2549.80130,0.19484
2547.87255,0.19492
2545.94381,0.19525
2544.01506,0.19549
2542.08631,0.19570
2540.15757,0.19608
2538.22882,0.19651
2536.30008,0.19680
2534.37133,0.19720
2532.44259,0.19796
2530.51384,0.19883
2528.58510,0.19945
2526.65635,0.19988
2524.72761,0.20033
2522.79886,0.20082
2520.87012,0.20140
2518.94137,0.20205
2517.01263,0.20265
2515.08388,0.20320
2513.15514,0.20380
2511.22639,0.20453
2509.29764,0.20541
2507.36890,0.20638
2505.44015,0.20734
2503.51141,0.20818
2501.58266,0.20903
2499.65392,0.20991
2497.72517,0.21076
2495.79643,0.21167
2493.86768,0.21260
2491.93894,0.21342
2490.01019,0.21420
2488.08145,0.21505
2486.15270,0.21595
2484.22396,0.21691
2482.29521,0.21776
2480.36647,0.21834
2478.43772,0.21892
2476.50897,0.21978
2474.58023,0.22073
2472.65148,0.22143
2470.72274,0.22185
2468.79399,0.22226
2466.86525,0.22295
2464.93650,0.22384
2463.00776,0.22469
2461.07901,0.22548
2459.15027,0.22626
2457.22152,0.22702
2455.29278,0.22773
2453.36403,0.22839
2451.43529,0.22910
2449.50654,0.22997
2447.57779,0.23093
2445.64905,0.23187
2443.72030,0.23265
2441.79156,0.23337
2439.86281,0.23433
2437.93407,0.23535
2436.00532,0.23619
2434.07658,0.23708
2432.14783,0.23808
2430.21909,0.23905
2428.29034,0.24011
2426.36160,0.24131
2424.43285,0.24242
2422.50411,0.24341
2420.57536,0.24448
2418.64662,0.24568
2416.71787,0.24689
2414.78912,0.24791
2412.86038,0.24868
2410.93163,0.24944
2409.00289,0.25047
2407.07414,0.25168
2405.14540,0.25271
2403.21665,0.25351
2401.28791,0.25437
2399.35916,0.25529
2397.43042,0.25613
2395.50167,0.25698
2393.57293,0.25789
2391.64418,0.25875
2389.71544,0.25964
2387.78669,0.26055
2385.85795,0.26137
2383.92920,0.26228
2382.00045,0.26336
2380.07171,0.26430
2378.14296,0.26509
2376.21422,0.26599
2374.28547,0.26700
2372.35673,0.26796
2370.42798,0.26881
2368.49924,0.26960
2366.57049,0.27036
2364.64175,0.27103
2362.71300,0.27164
2360.78426,0.27223
2358.85551,0.27266
2356.92677,0.27292
2354.99802,0.27333
2353.06927,0.27394
2351.14053,0.27444
2349.21178,0.27491
2347.28304,0.27557
2345.35429,0.27632
2343.42555,0.27703
2341.49680,0.27763
2339.56806,0.27794
2337.63931,0.27805
2335.71057,0.27830
2333.78182,0.27880
2331.85308,0.27936
2329.92433,0.27985
2327.99559,0.28016
2326.06684,0.28023
2324.13810,0.28019
2322.20935,0.28030
2320.28060,0.28058
2318.35186,0.28094
2316.42311,0.28138
2314.49437,0.28167
2312.56562,0.28167
2310.63688,0.28156
2308.70813,0.28143
2306.77939,0.28132
2304.85064,0.28125
2302.92190,0.28121
2300.99315,0.28107
2299.06441,0.28085
2297.13566,0.28065
2295.20692,0.28048
2293.27817,0.28030
2291.34943,0.28008
2289.42068,0.27984
2287.49193,0.27975
2285.56319,0.27989
2283.63444,0.27996
2281.70570,0.27972
2279.77695,0.27942
2277.84821,0.27925
2275.91946,0.27895
2273.99072,0.27844
2272.06197,0.27788
2270.13323,0.27729
2268.20448,0.27663
2266.27574,0.27605
2264.34699,0.27563
2262.41825,0.27513
2260.48950,0.27455
2258.56075,0.27407
2256.63201,0.27363
2254.70326,0.27321
2252.77452,0.27293
2250.84577,0.27275
2248.91703,0.27252
2246.98828,0.27217
2245.05954,0.27182
2243.13079,0.27167
2241.20205,0.27170
2239.27330,0.27162
2237.34456,0.27123
2235.41581,0.27076
2233.48707,0.27047
2231.55832,0.27028
2229.62958,0.27014
2227.70083,0.27008
2225.77208,0.26999
2223.84334,0.26990
2221.91459,0.26996
2219.98585,0.27006
2218.05710,0.26996
2216.12836,0.26974
2214.19961,0.26958
2212.27087,0.26948
2210.34212,0.26941
2208.41338,0.26918
2206.48463,0.26873
2204.55589,0.26815
2202.62714,0.26743
2200.69840,0.26670
2198.76965,0.26616
2196.84090,0.26561
2194.91216,0.26484
2192.98341,0.26388
2191.05467,0.26287
2189.12592,0.26183
2187.19718,0.26079
2185.26843,0.25973
2183.33969,0.25863
2181.41094,0.25752
2179.48220,0.25644
2177.55345,0.25537
2175.62471,0.25420
2173.69596,0.25295
2171.76722,0.25185
2169.83847,0.25093
2167.90973,0.25006
2165.98098,0.24913
2164.05223,0.24822
2162.12349,0.24743
2160.19474,0.24676
2158.26600,0.24629
2156.33725,0.24593
2154.40851,0.24535
2152.47976,0.24465
2150.55102,0.24410
2148.62227,0.24366
2146.69353,0.24315
2144.76478,0.24263
2142.83604,0.24227
2140.90729,0.24205
2138.97855,0.24189
2137.04980,0.24175
2135.12106,0.24158
2133.19231,0.24149
2131.26356,0.24167
2129.33482,0.24194
2127.40607,0.24209
2125.47733,0.24224
2123.54858,0.24256
2121.61984,0.24292
2119.69109,0.24319
2117.76235,0.24344
2115.83360,0.24368
2113.90486,0.24387
2111.97611,0.24418
2110.04737,0.24462
2108.11862,0.24509
2106.18988,0.24552
2104.26113,0.24584
2102.33238,0.24599
2100.40364,0.24612
2098.47489,0.24641
2096.54615,0.24679
2094.61740,0.24700
2092.68866,0.24704
2090.75991,0.24713
2088.83117,0.24730
2086.90242,0.24731
2084.97368,0.24698
2083.04493,0.24651
2081.11619,0.24613
2079.18744,0.24577
2077.25870,0.24541
2075.32995,0.24513
2073.40121,0.24480
2071.47246,0.24439
2069.54371,0.24406
2067.61497,0.24372
2065.68622,0.24329
2063.75748,0.24289
2061.82873,0.24262
2059.89999,0.24250
2057.97124,0.24252
2056.04250,0.24258
2054.11375,0.24261
2052.18501,0.24263
2050.25626,0.24274
2048.32752,0.24307
2046.39877,0.24361
2044.47003,0.24429
2042.54128,0.24498
2040.61254,0.24569
2038.68379,0.24646
2036.75504,0.24725
2034.82630,0.24817
2032.89755,0.24927
2030.96881,0.25038
2029.04006,0.25151
2027.11132,0.25268
2025.18257,0.25382
2023.25383,0.25495
2021.32508,0.25608
2019.39634,0.25718
2017.46759,0.25830
2015.53885,0.25934
2013.61010,0.26024
2011.68136,0.26098
2009.75261,0.26151
2007.82386,0.26207
2005.89512,0.26283
2003.96637,0.26356
2002.03763,0.26415
2000.10888,0.26478
1998.18014,0.26553
1996.25139,0.26624
1994.32265,0.26684
1992.39390,0.26742
1990.46516,0.26793
1988.53641,0.26835
1986.60767,0.26891
1984.67892,0.26960
1982.75018,0.27011
1980.82143,0.27043
1978.89269,0.27077
1976.96394,0.27118
1975.03519,0.27161
1973.10645,0.27214
1971.17770,0.27280
1969.24896,0.27349
1967.32021,0.27403
1965.39147,0.27442
1963.46272,0.27490
1961.53398,0.27574
1959.60523,0.27679
1957.67649,0.27781
1955.74774,0.27873
1953.81900,0.27967
1951.89025,0.28073
1949.96151,0.28182
1948.03276,0.28276
1946.10402,0.28366
1944.17527,0.28476
1942.24652,0.28590
1940.31778,0.28689
1938.38903,0.28778
1936.46029,0.28861
1934.53154,0.28936
1932.60280,0.29006
1930.67405,0.29064
1928.74531,0.29104
1926.81656,0.29134
1924.88782,0.29157
1922.95907,0.29171
1921.03033,0.29184
1919.10158,0.29197
1917.17284,0.29198
1915.24409,0.29186
1913.31534,0.29179
1911.38660,0.29183
1909.45785,0.29182
1907.52911,0.29166
1905.60036,0.29135
1903.67162,0.29105
1901.74287,0.29084
1899.81413,0.29051
1897.88538,0.29000
1895.95664,0.28958
1894.02789,0.28936
1892.09915,0.28920
1890.17040,0.28901
1888.24166,0.28885
1886.31291,0.28868
1884.38417,0.28853
1882.45542,0.28844
1880.52667,0.28829
1878.59793,0.28811
1876.66918,0.28811
1874.74044,0.28820
1872.81169,0.28816
1870.88295,0.28811
1868.95420,0.28802
1867.02546,0.28773
1865.09671,0.28743
1863.16797,0.28724
1861.23922,0.28693
1859.31048,0.28644
1857.38173,0.28598
1855.45299,0.28567
1853.52424,0.28534
1851.59549,0.28479
1849.66675,0.28412
1847.73800,0.28351
1845.80926,0.28291
1843.88051,0.28211
1841.95177,0.28122
1840.02302,0.28049
1838.09428,0.27984
1836.16553,0.27910
1834.23679,0.27820
1832.30804,0.27721
1830.37930,0.27620
1828.45055,0.27520
1826.52181,0.27413
1824.59306,0.27285
1822.66432,0.27142
1820.73557,0.26995
1818.80682,0.26842
1816.87808,0.26679
1814.94933,0.26513
1813.02059,0.26341
1811.09184,0.26152
1809.16310,0.25961
1807.23435,0.25775
1805.30561,0.25572
1803.37686,0.25351
1801.44812,0.25116
1799.51937,0.24859
1797.59063,0.24583
1795.66188,0.24307
1793.73314,0.24023
1791.80439,0.23690
1789.87565,0.23344
1787.94690,0.23002
1786.01815,0.22612
1784.08941,0.22165
1782.16066,0.21702
1780.23192,0.21212
1778.30317,0.20683
1776.37443,0.20139
1774.44568,0.19542
1772.51694,0.18810
1770.58819,0.17995
1768.65945,0.17181
1766.73070,0.16347
1764.80196,0.15529
1762.87321,0.14697
1760.94447,0.13830
1759.01572,0.13037
1757.08697,0.12323
1755.15823,0.11692
1753.22948,0.11164
1751.30074,0.10676
1749.37199,0.10238
1747.44325,0.09900
1745.51450,0.09640
1743.58576,0.09432
1741.65701,0.09264
1739.72827,0.09134
1737.79952,0.09067
1735.87078,0.09056
1733.94203,0.09081
1732.01329,0.09158
1730.08454,0.09292
1728.15580,0.09462
1726.22705,0.09647
1724.29830,0.09844
1722.36956,0.10037
1720.44081,0.10243
1718.51207,0.10513
1716.58332,0.10825
1714.65458,0.11105
1712.72583,0.11357
1710.79709,0.11592
1708.86834,0.11797
1706.93960,0.11985
1705.01085,0.12165
1703.08211,0.12326
1701.15336,0.12441
1699.22462,0.12484
1697.29587,0.12484
1695.36713,0.12456
1693.43838,0.12402
1691.50963,0.12320
1689.58089,0.12183
1687.65214,0.12017
1685.72340,0.11831
1683.79465,0.11568
1681.86591,0.11258
1679.93716,0.10969
1678.00842,0.10713
1676.07967,0.10454
1674.15093,0.10174
1672.22218,0.09922
1670.29344,0.09685
1668.36469,0.09438
1666.43595,0.09250
1664.50720,0.09127
1662.57845,0.09014
1660.64971,0.08908
1658.72096,0.08841
1656.79222,0.08818
1654.86347,0.08835
1652.93473,0.08869
1651.00598,0.08869
1649.07724,0.08840
1647.14849,0.08782
1645.21975,0.08695
1643.29100,0.08628
1641.36226,0.08593
1639.43351,0.08585
1637.50477,0.08602
1635.57602,0.08635
1633.64728,0.08668
1631.71853,0.08707
1629.78978,0.08747
1627.86104,0.08768
1625.93229,0.08770
1624.00355,0.08753
1622.07480,0.08703
1620.14606,0.08641
1618.21731,0.08575
1616.28857,0.08482
1614.35982,0.08381
1612.43108,0.08301
1610.50233,0.08224
1608.57359,0.08149
1606.64484,0.08091
1604.71610,0.08062
1602.78735,0.08075
1600.85861,0.08119
1598.92986,0.08160
1597.00111,0.08177
1595.07237,0.08182
1593.14362,0.08207
1591.21488,0.08286
1589.28613,0.08427
1587.35739,0.08612
1585.42864,0.08834
1583.49990,0.09109
1581.57115,0.09460
1579.64241,0.09861
1577.71366,0.10312
1575.78492,0.10838
1573.85617,0.11336
1571.92743,0.11774
1569.99868,0.12223
1568.06993,0.12646
1566.14119,0.12990
1564.21244,0.13274
1562.28370,0.13504
1560.35495,0.13691
1558.42621,0.13841
1556.49746,0.13914
1554.56872,0.13922
1552.63997,0.13885
1550.71123,0.13837
1548.78248,0.13791
1546.85374,0.13725
1544.92499,0.13621
1542.99625,0.13466
1541.06750,0.13225
1539.13876,0.12871
1537.21001,0.12526
1535.28126,0.12176
1533.35252,0.11686
1531.42377,0.11093
1529.49503,0.10497
1527.56628,0.09848
1525.63754,0.09133
1523.70879,0.08419
1521.78005,0.07686
1519.85130,0.06998
1517.92256,0.06475
1515.99381,0.06104
1514.06507,0.05885
1512.13632,0.05810
1510.20758,0.05839
1508.27883,0.05954
1506.35008,0.06147
1504.42134,0.06373
1502.49259,0.06598
1500.56385,0.06842
1498.63510,0.07104
1496.70636,0.07365
1494.77761,0.07584
1492.84887,0.07747
1490.92012,0.07859
1488.99138,0.07898
1487.06263,0.07864
1485.13389,0.07789
1483.20514,0.07673
1481.27640,0.07518
1479.34765,0.07348
1477.41891,0.07150
1475.49016,0.06907
1473.56141,0.06621
1471.63267,0.06323
1469.70392,0.06091
1467.77518,0.05949
1465.84643,0.05877
1463.91769,0.05851
1461.98894,0.05843
1460.06020,0.05838
1458.13145,0.05829
1456.20271,0.05792
1454.27396,0.05754
1452.34522,0.05758
1450.41647,0.05800
1448.48773,0.05864
1446.55898,0.05940
1444.63024,0.05993
1442.70149,0.05982
1440.77274,0.05916
1438.84400,0.05839
1436.91525,0.05758
1434.98651,0.05678
1433.05776,0.05621
1431.12902,0.05575
1429.20027,0.05539
1427.27153,0.05539
1425.34278,0.05588
1423.41404,0.05663
1421.48529,0.05746
1419.55655,0.05850
1417.62780,0.05970
1415.69906,0.06077
1413.77031,0.06170
1411.84156,0.06248
1409.91282,0.06304
1407.98407,0.06335
1406.05533,0.06345
1404.12658,0.06353
1402.19784,0.06356
1400.26909,0.06339
1398.34035,0.06295
1396.41160,0.06235
1394.48286,0.06164
1392.55411,0.06075
1390.62537,0.05967
1388.69662,0.05840
1386.76788,0.05705
1384.83913,0.05575
1382.91039,0.05450
1380.98164,0.05348
1379.05289,0.05295
1377.12415,0.05285
1375.19540,0.05295
1373.26666,0.05324
1371.33791,0.05377
1369.40917,0.05446
1367.48042,0.05511
1365.55168,0.05562
1363.62293,0.05608
1361.69419,0.05666
1359.76544,0.05726
1357.83670,0.05762
1355.90795,0.05783
1353.97921,0.05819
1352.05046,0.05856
1350.12172,0.05862
1348.19297,0.05834
1346.26422,0.05801
1344.33548,0.05776
1342.40673,0.05747
1340.47799,0.05713
1338.54924,0.05682
1336.62050,0.05655
1334.69175,0.05650
1332.76301,0.05668
1330.83426,0.05680
1328.90552,0.05667
1326.97677,0.05636
1325.04803,0.05601
1323.11928,0.05560
1321.19054,0.05521
1319.26179,0.05510
1317.33304,0.05532
1315.40430,0.05572
1313.47555,0.05623
1311.54681,0.05681
1309.61806,0.05734
1307.68932,0.05770
1305.76057,0.05789
1303.83183,0.05791
1301.90308,0.05778
1299.97434,0.05752
1298.04559,0.05718
1296.11685,0.05680
1294.18810,0.05639
1292.25936,0.05577
1290.33061,0.05488
1288.40187,0.05389
1286.47312,0.05290
1284.54437,0.05205
1282.61563,0.05160
1280.68688,0.05145
1278.75814,0.05121
1276.82939,0.05082
1274.90065,0.05058
1272.97190,0.05058
1271.04316,0.05063
1269.11441,0.05073
1267.18567,0.05099
1265.25692,0.05141
1263.32818,0.05197
1261.39943,0.05256
1259.47069,0.05311
1257.54194,0.05365
1255.61320,0.05414
1253.68445,0.05452
1251.75570,0.05482
1249.82696,0.05500
1247.89821,0.05501
1245.96947,0.05498
1244.04072,0.05496
1242.11198,0.05491
1240.18323,0.05478
1238.25449,0.05455
1236.32574,0.05425
1234.39700,0.05398
1232.46825,0.05383
1230.53951,0.05381
1228.61076,0.05379
1226.68202,0.05384
1224.75327,0.05397
1222.82452,0.05421
1220.89578,0.05459
1218.96703,0.05488
1217.03829,0.05491
1215.10954,0.05486
1213.18080,0.05481
1211.25205,0.05469
1209.32331,0.05458
1207.39456,0.05463
1205.46582,0.05470
1203.53707,0.05462
1201.60833,0.05459
1199.67958,0.05474
1197.75084,0.05487
1195.82209,0.05483
1193.89335,0.05448
1191.96460,0.05389
1190.03585,0.05330
1188.10711,0.05260
1186.17836,0.05158
1184.24962,0.05043
1182.32087,0.04935
1180.39213,0.04822
1178.46338,0.04715
1176.53464,0.04635
1174.60589,0.04576
1172.67715,0.04554
1170.74840,0.04594
1168.81966,0.04701
1166.89091,0.04857
1164.96217,0.05014
1163.03342,0.05121
1161.10467,0.05174
1159.17593,0.05187
1157.24718,0.05167
1155.31844,0.05120
1153.38969,0.05058
1151.46095,0.05008
1149.53220,0.04953
1147.60346,0.04864
1145.67471,0.04776
1143.74597,0.04716
1141.81722,0.04654
1139.88848,0.04570
1137.95973,0.04475
1136.03099,0.04375
1134.10224,0.04271
1132.17350,0.04201
1130.24475,0.04196
1128.31600,0.04237
1126.38726,0.04289
1124.45851,0.04338
1122.52977,0.04378
1120.60102,0.04411
1118.67228,0.04449
1116.74353,0.04511
1114.81479,0.04614
1112.88604,0.04737
1110.95730,0.04840
1109.02855,0.04914
1107.09981,0.04971
1105.17106,0.05013
1103.24232,0.05016
1101.31357,0.04973
1099.38483,0.04921
1097.45608,0.04893
1095.52733,0.04879
1093.59859,0.04857
1091.66984,0.04833
1089.74110,0.04840
1087.81235,0.04883
1085.88361,0.04945
1083.95486,0.05025
1082.02612,0.05132
1080.09737,0.05259
1078.16863,0.05422
1076.23988,0.05630
1074.31114,0.05844
1072.38239,0.06035
1070.45365,0.06221
1068.52490,0.06438
1066.59615,0.06715
1064.66741,0.07043
1062.73866,0.07377
1060.80992,0.07670
1058.88117,0.07876
1056.95243,0.07962
1055.02368,0.07964
1053.09494,0.07928
1051.16619,0.07833
1049.23745,0.07683
1047.30870,0.07544
1045.37996,0.07442
1043.45121,0.07384
1041.52247,0.07432
1039.59372,0.07601
1037.66498,0.07824
1035.73623,0.08037
1033.80748,0.08213
1031.87874,0.08357
1029.94999,0.08473
1028.02125,0.08544
1026.09250,0.08576
1024.16376,0.08593
1022.23501,0.08605
1020.30627,0.08630
1018.37752,0.08685
1016.44878,0.08750
1014.52003,0.08804
1012.59129,0.08845
1010.66254,0.08882
1008.73380,0.08920
1006.80505,0.08962
1004.87631,0.09013
1002.94756,0.09092
1001.01881,0.09196
999.09007,0.09299
997.16132,0.09389
995.23258,0.09481
993.30383,0.09581
991.37509,0.09699
989.44634,0.09853
987.51760,0.10056
985.58885,0.10305
983.66011,0.10578
981.73136,0.10855
979.80262,0.11118
977.87387,0.11309
975.94513,0.11418
974.01638,0.11490
972.08763,0.11511
970.15889,0.11484
968.23014,0.11470
966.30140,0.11487
964.37265,0.11528
962.44391,0.11618
960.51516,0.11752
958.58642,0.11901
956.65767,0.12058
954.72893,0.12200
952.80018,0.12305
950.87144,0.12380
948.94269,0.12435
947.01395,0.12469
945.08520,0.12502
943.15646,0.12555
941.22771,0.12618
939.29896,0.12675
937.37022,0.12750
935.44147,0.12846
933.51273,0.12942
931.58398,0.13051
929.65524,0.13176
927.72649,0.13273
925.79775,0.13317
923.86900,0.13297
921.94026,0.13212
920.01151,0.13122
918.08277,0.13054
916.15402,0.12940
914.22528,0.12754
912.29653,0.12543
910.36779,0.12312
908.43904,0.12054
906.51029,0.11778
904.58155,0.11510
902.65280,0.11285
900.72406,0.11128
898.79531,0.11079
896.86657,0.11141
894.93782,0.11235
893.00908,0.11331
891.08033,0.11461
889.15159,0.11614
887.22284,0.11760
885.29410,0.11877
883.36535,0.11931
881.43661,0.11922
879.50786,0.11893
877.57911,0.11864
875.65037,0.11840
873.72162,0.11819
871.79288,0.11807
869.86413,0.11798
867.93539,0.11763
866.00664,0.11711
864.07790,0.11702
862.14915,0.11744
860.22041,0.11805
858.29166,0.11873
856.36292,0.11958
854.43417,0.12081
852.50543,0.12247
850.57668,0.12421
848.64794,0.12558
846.71919,0.12633
844.79044,0.12675
842.86170,0.12702
840.93295,0.12685
839.00421,0.12623
837.07546,0.12522
835.14672,0.12392
833.21797,0.12257
831.28923,0.12104
829.36048,0.11943
827.43174,0.11814
825.50299,0.11679
823.57425,0.11507
821.64550,0.11347
819.71676,0.11203
817.78801,0.11031
815.85926,0.10844
813.93052,0.10692
812.00177,0.10593
810.07303,0.10549
808.14428,0.10559
806.21554,0.10640
804.28679,0.10766
802.35805,0.10853
800.42930,0.10894
798.50056,0.10958
796.57181,0.11039
794.64307,0.11073
792.71432,0.11050
790.78558,0.11006
788.85683,0.10948
786.92809,0.10865
784.99934,0.10763
783.07059,0.10658
781.14185,0.10558
779.21310,0.10467
777.28436,0.10387
775.35561,0.10308
773.42687,0.10230
771.49812,0.10166
769.56938,0.10078
767.64063,0.09974
765.71189,0.09922
763.78314,0.09904
761.85440,0.09850
759.92565,0.09753
757.99691,0.09661
756.06816,0.09617
754.13942,0.09624
752.21067,0.09614
750.28192,0.09540
748.35318,0.09461
746.42443,0.09422
744.49569,0.09385
742.56694,0.09341
740.63820,0.09332
738.70945,0.09341
736.78071,0.09303
734.85196,0.09235
732.92322,0.09182
730.99447,0.09109
729.06573,0.08995
727.13698,0.08896
725.20824,0.08815
723.27949,0.08716
721.35074,0.08617
719.42200,0.08570
717.49325,0.08582
715.56451,0.08576
713.63576,0.08521
711.70702,0.08488
709.77827,0.08478
707.84953,0.08446
705.92078,0.08408
703.99204,0.08358
702.06329,0.08279
700.13455,0.08183
698.20580,0.08083
696.27706,0.08026
694.34831,0.08019
692.41957,0.08018
690.49082,0.08002
688.56207,0.07965
686.63333,0.07929
684.70458,0.07887
682.77584,0.07783
680.84709,0.07660
678.91835,0.07599
676.98960,0.07569
675.06086,0.07513
673.13211,0.07461
671.20337,0.07445
669.27462,0.07423
667.34588,0.07396
665.41713,0.07444
663.48839,0.07554
661.55964,0.07657
659.63090,0.07723
657.70215,0.07709
655.77340,0.07668
653.84466,0.07710
651.91591,0.07782
649.98717,0.07784
648.05842,0.07729
646.12968,0.07645
644.20093,0.07548
642.27219,0.07526
640.34344,0.07587
638.41470,0.07608
636.48595,0.07567
634.55721,0.07519
632.62846,0.07496
630.69972,0.07520
628.77097,0.07536
626.84222,0.07493
624.91348,0.07452
622.98473,0.07406
621.05599,0.07363
619.12724,0.07436
617.19850,0.07543
615.26975,0.07541
613.34101,0.07543
611.41226,0.07620
609.48352,0.07664
607.55477,0.07655
605.62603,0.07675
603.69728,0.07731
601.76854,0.07780
599.83979,0.07869
