7497.03301,0.82995
7495.10426,0.82703
7493.17552,0.82846
7491.24677,0.83417
7489.31803,0.83498
7487.38928,0.82952
7485.46054,0.82795
7483.53179,0.83278
7481.60305,0.83635
7479.67430,0.83466
7477.74556,0.83315
7475.81681,0.83674
7473.88807,0.83961
7471.95932,0.83541
7470.03057,0.82826
7468.10183,0.82514
7466.17308,0.82681
7464.24434,0.82648
7462.31559,0.81954
7460.38685,0.81164
7458.45810,0.80821
7456.52936,0.80954
7454.60061,0.81452
7452.67187,0.81809
7450.74312,0.81729
7448.81438,0.81758
7446.88563,0.81943
7444.95689,0.81476
7443.02814,0.80468
7441.09940,0.79886
7439.17065,0.79971
7437.24190,0.80232
7435.31316,0.80414
7433.38441,0.80764
7431.45567,0.81229
7429.52692,0.81395
7427.59818,0.81384
7425.66943,0.81487
7423.74069,0.81622
7421.81194,0.81698
7419.88320,0.81670
7417.95445,0.81306
7416.02571,0.80666
7414.09696,0.80398
7412.16822,0.80489
7410.23947,0.80234
7408.31073,0.79796
7406.38198,0.79780
7404.45323,0.79899
7402.52449,0.79633
7400.59574,0.79498
7398.66700,0.79977
7396.73825,0.80416
7394.80951,0.80367
7392.88076,0.80076
7390.95202,0.79608
7389.02327,0.78989
7387.09453,0.78632
7385.16578,0.78908
7383.23704,0.79492
7381.30829,0.79846
7379.37955,0.80046
7377.45080,0.80136
7375.52205,0.79707
7373.59331,0.78954
7371.66456,0.78647
7369.73582,0.78853
7367.80707,0.79203
7365.87833,0.79438
7363.94958,0.79247
7362.02084,0.78832
7360.09209,0.78584
7358.16335,0.78348
7356.23460,0.78248
7354.30586,0.78499
7352.37711,0.78791
7350.44837,0.78876
7348.51962,0.78490
7346.59088,0.77730
7344.66213,0.77377
7342.73338,0.77573
7340.80464,0.77762
7338.87589,0.77854
7336.94715,0.78158
7335.01840,0.78644
7333.08966,0.78813
7331.16091,0.78358
7329.23217,0.77722
7327.30342,0.77467
7325.37468,0.77510
7323.44593,0.77473
7321.51719,0.77302
7319.58844,0.77244
7317.65970,0.77337
7315.73095,0.77242
7313.80221,0.77028
7311.87346,0.77013
7309.94471,0.77022
7308.01597,0.76936
7306.08722,0.76964
7304.15848,0.77180
7302.22973,0.77507
7300.30099,0.77636
7298.37224,0.77249
7296.44350,0.76730
7294.51475,0.76662
7292.58601,0.76844
7290.65726,0.76693
7288.72852,0.76342
7286.79977,0.76408
7284.87103,0.76658
7282.94228,0.76582
7281.01353,0.76602
7279.08479,0.76962
7277.15604,0.77150
7275.22730,0.77022
7273.29855,0.76995
7271.36981,0.77033
7269.44106,0.76683
7267.51232,0.76247
7265.58357,0.76359
7263.65483,0.76698
7261.72608,0.76682
7259.79734,0.76600
7257.86859,0.76756
7255.93985,0.76804
7254.01110,0.76682
7252.08236,0.76551
7250.15361,0.76321
7248.22486,0.76289
7246.29612,0.76618
7244.36737,0.76722
7242.43863,0.76552
7240.50988,0.76644
7238.58114,0.76796
7236.65239,0.76676
7234.72365,0.76486
7232.79490,0.76487
7230.86616,0.76664
7228.93741,0.76723
7227.00867,0.76624
7225.07992,0.76586
7223.15118,0.76624
7221.22243,0.76629
7219.29369,0.76501
7217.36494,0.76258
7215.43619,0.75977
7213.50745,0.75859
7211.57870,0.76091
7209.64996,0.76276
7207.72121,0.76134
7205.79247,0.76154
7203.86372,0.76418
7201.93498,0.76412
7200.00623,0.76092
7198.07749,0.75784
7196.14874,0.75724
7194.22000,0.75712
7192.29125,0.75372
7190.36251,0.75028
7188.43376,0.75134
7186.50501,0.75298
7184.57627,0.74983
7182.64752,0.74636
7180.71878,0.74916
7178.79003,0.75333
7176.86129,0.75260
7174.93254,0.75114
7173.00380,0.75265
7171.07505,0.75290
7169.14631,0.74992
7167.21756,0.74729
7165.28882,0.74617
7163.36007,0.74488
7161.43133,0.74142
7159.50258,0.73668
7157.57384,0.73483
7155.64509,0.73652
7153.71634,0.73880
7151.78760,0.73878
7149.85885,0.73653
7147.93011,0.73564
7146.00136,0.73665
7144.07262,0.73669
7142.14387,0.73563
7140.21513,0.73424
7138.28638,0.73213
7136.35764,0.72942
7134.42889,0.72538
7132.50015,0.72131
7130.57140,0.72038
7128.64266,0.72017
7126.71391,0.71750
7124.78516,0.71486
7122.85642,0.71441
7120.92767,0.71468
7118.99893,0.71407
7117.07018,0.71274
7115.14144,0.71214
7113.21269,0.71235
7111.28395,0.71090
7109.35520,0.70713
7107.42646,0.70320
7105.49771,0.70095
7103.56897,0.70111
7101.64022,0.70269
7099.71148,0.70501
7097.78273,0.70771
7095.85399,0.70778
7093.92524,0.70272
7091.99649,0.69587
7090.06775,0.69228
7088.13900,0.69155
7086.21026,0.69078
7084.28151,0.68925
7082.35277,0.68722
7080.42402,0.68462
7078.49528,0.68045
7076.56653,0.67489
7074.63779,0.67075
7072.70904,0.66908
7070.78030,0.66868
7068.85155,0.66945
7066.92281,0.67018
7064.99406,0.67030
7063.06532,0.67120
7061.13657,0.67065
7059.20782,0.66680
7057.27908,0.66262
7055.35033,0.66037
7053.42159,0.65822
7051.49284,0.65532
7049.56410,0.65361
7047.63535,0.65066
7045.70661,0.64411
7043.77786,0.63846
7041.84912,0.63694
7039.92037,0.63790
7037.99163,0.63857
7036.06288,0.63723
7034.13414,0.63506
7032.20539,0.63394
7030.27664,0.63266
7028.34790,0.63046
7026.41915,0.62916
7024.49041,0.62906
7022.56166,0.62880
7020.63292,0.62697
7018.70417,0.62385
7016.77543,0.62114
7014.84668,0.61876
7012.91794,0.61652
7010.98919,0.61488
7009.06045,0.61333
7007.13170,0.61255
7005.20296,0.61379
7003.27421,0.61395
7001.34547,0.60976
6999.41672,0.60593
6997.48797,0.60735
6995.55923,0.61061
6993.63048,0.61125
6991.70174,0.60818
6989.77299,0.60423
6987.84425,0.60494
6985.91550,0.60852
6983.98676,0.60901
6982.05801,0.60643
6980.12927,0.60259
6978.20052,0.59899
6976.27178,0.59711
6974.34303,0.59713
6972.41429,0.59846
6970.48554,0.59838
6968.55680,0.59492
6966.62805,0.59010
6964.69930,0.58830
6962.77056,0.59164
6960.84181,0.59617
6958.91307,0.59725
6956.98432,0.59457
6955.05558,0.59122
6953.12683,0.59059
6951.19809,0.59240
6949.26934,0.59445
6947.34060,0.59404
6945.41185,0.58953
6943.48311,0.58657
6941.55436,0.59055
6939.62562,0.59561
6937.69687,0.59526
6935.76812,0.59170
6933.83938,0.58821
6931.91063,0.58684
6929.98189,0.58888
6928.05314,0.59177
6926.12440,0.59236
6924.19565,0.59031
6922.26691,0.58787
6920.33816,0.58734
6918.40942,0.58837
6916.48067,0.59103
6914.55193,0.59411
6912.62318,0.59263
6910.69444,0.58738
6908.76569,0.58456
6906.83695,0.58513
6904.90820,0.58591
6902.97945,0.58560
6901.05071,0.58559
6899.12196,0.58753
6897.19322,0.59068
6895.26447,0.59154
6893.33573,0.58862
6891.40698,0.58572
6889.47824,0.58495
6887.54949,0.58451
6885.62075,0.58491
6883.69200,0.58721
6881.76326,0.58855
6879.83451,0.58670
6877.90577,0.58460
6875.97702,0.58481
6874.04828,0.58515
6872.11953,0.58424
6870.19078,0.58366
6868.26204,0.58393
6866.33329,0.58432
6864.40455,0.58429
6862.47580,0.58376
6860.54706,0.58342
6858.61831,0.58388
6856.68957,0.58522
6854.76082,0.58644
6852.83208,0.58616
6850.90333,0.58527
6848.97459,0.58526
6847.04584,0.58558
6845.11710,0.58502
6843.18835,0.58251
6841.25960,0.57945
6839.33086,0.57998
6837.40211,0.58316
6835.47337,0.58395
6833.54462,0.58248
6831.61588,0.58119
6829.68713,0.58041
6827.75839,0.58007
6825.82964,0.58046
6823.90090,0.58250
6821.97215,0.58457
6820.04341,0.58461
6818.11466,0.58528
6816.18592,0.58698
6814.25717,0.58702
6812.32843,0.58597
6810.39968,0.58490
6808.47093,0.58318
6806.54219,0.58113
6804.61344,0.58082
6802.68470,0.58237
6800.75595,0.58311
6798.82721,0.58221
6796.89846,0.58185
6794.96972,0.58364
6793.04097,0.58604
6791.11223,0.58752
6789.18348,0.58848
6787.25474,0.58852
6785.32599,0.58742
6783.39725,0.58626
6781.46850,0.58632
6779.53975,0.58778
6777.61101,0.58887
6775.68226,0.58853
6773.75352,0.58751
6771.82477,0.58615
6769.89603,0.58479
6767.96728,0.58388
6766.03854,0.58353
6764.10979,0.58466
6762.18105,0.58707
6760.25230,0.58768
6758.32356,0.58557
6756.39481,0.58346
6754.46607,0.58292
6752.53732,0.58346
6750.60858,0.58513
6748.67983,0.58798
6746.75108,0.59029
6744.82234,0.59014
6742.89359,0.58800
6740.96485,0.58600
6739.03610,0.58555
6737.10736,0.58642
6735.17861,0.58794
6733.24987,0.59023
6731.32112,0.59316
6729.39238,0.59480
6727.46363,0.59363
6725.53489,0.59112
6723.60614,0.58957
6721.67740,0.58874
6719.74865,0.58755
6717.81991,0.58702
6715.89116,0.58854
6713.96241,0.59121
6712.03367,0.59268
6710.10492,0.59189
6708.17618,0.59018
6706.24743,0.58942
6704.31869,0.59047
6702.38994,0.59285
6700.46120,0.59517
6698.53245,0.59653
6696.60371,0.59614
6694.67496,0.59342
6692.74622,0.59040
6690.81747,0.58985
6688.88873,0.59048
6686.95998,0.58966
6685.03123,0.58886
6683.10249,0.59062
6681.17374,0.59347
6679.24500,0.59479
6677.31625,0.59448
6675.38751,0.59419
6673.45876,0.59540
6671.53002,0.59693
6669.60127,0.59770
6667.67253,0.59842
6665.74378,0.59792
6663.81504,0.59592
6661.88629,0.59458
6659.95755,0.59501
6658.02880,0.59747
6656.10006,0.60040
6654.17131,0.60143
6652.24256,0.59995
6650.31382,0.59716
6648.38507,0.59614
6646.45633,0.59809
6644.52758,0.59995
6642.59884,0.59986
6640.67009,0.60043
6638.74135,0.60272
6636.81260,0.60361
6634.88386,0.60253
6632.95511,0.60176
6631.02637,0.60161
6629.09762,0.60237
6627.16888,0.60414
6625.24013,0.60445
6623.31139,0.60259
6621.38264,0.60123
6619.45389,0.60072
6617.52515,0.60005
6615.59640,0.60076
6613.66766,0.60301
6611.73891,0.60372
6609.81017,0.60249
6607.88142,0.60271
6605.95268,0.60513
6604.02393,0.60697
6602.09519,0.60764
6600.16644,0.60810
6598.23770,0.60841
6596.30895,0.60864
6594.38021,0.60815
6592.45146,0.60706
6590.52271,0.60758
6588.59397,0.61030
6586.66522,0.61186
6584.73648,0.61004
6582.80773,0.60846
6580.87899,0.60990
6578.95024,0.61123
6577.02150,0.60959
6575.09275,0.60652
6573.16401,0.60527
6571.23526,0.60739
6569.30652,0.61136
6567.37777,0.61385
6565.44903,0.61414
6563.52028,0.61431
6561.59154,0.61441
6559.66279,0.61391
6557.73404,0.61430
6555.80530,0.61500
6553.87655,0.61343
6551.94781,0.61124
6550.01906,0.61334
6548.09032,0.61842
6546.16157,0.61963
6544.23283,0.61635
6542.30408,0.61344
6540.37534,0.61195
6538.44659,0.61125
6536.51785,0.61247
6534.58910,0.61480
6532.66036,0.61598
6530.73161,0.61547
6528.80287,0.61494
6526.87412,0.61636
6524.94537,0.61850
6523.01663,0.61855
6521.08788,0.61637
6519.15914,0.61381
6517.23039,0.61224
6515.30165,0.61196
6513.37290,0.61269
6511.44416,0.61391
6509.51541,0.61574
6507.58667,0.61802
6505.65792,0.61931
6503.72918,0.61947
6501.80043,0.61929
6499.87169,0.61792
6497.94294,0.61518
6496.01419,0.61270
6494.08545,0.61202
6492.15670,0.61304
6490.22796,0.61454
6488.29921,0.61645
6486.37047,0.61886
6484.44172,0.62059
6482.51298,0.62051
6480.58423,0.61865
6478.65549,0.61690
6476.72674,0.61737
6474.79800,0.61944
6472.86925,0.62065
6470.94051,0.61995
6469.01176,0.61879
6467.08302,0.61822
6465.15427,0.61777
6463.22552,0.61776
6461.29678,0.61912
6459.36803,0.62111
6457.43929,0.62276
6455.51054,0.62461
6453.58180,0.62610
6451.65305,0.62578
6449.72431,0.62432
6447.79556,0.62282
6445.86682,0.62195
6443.93807,0.62250
6442.00933,0.62364
6440.08058,0.62396
6438.15184,0.62338
6436.22309,0.62245
6434.29434,0.62131
6432.36560,0.62034
6430.43685,0.62062
6428.50811,0.62216
6426.57936,0.62378
6424.65062,0.62469
6422.72187,0.62440
6420.79313,0.62361
6418.86438,0.62338
6416.93564,0.62370
6415.00689,0.62456
6413.07815,0.62498
6411.14940,0.62430
6409.22066,0.62439
6407.29191,0.62624
6405.36317,0.62830
6403.43442,0.62900
6401.50567,0.62814
6399.57693,0.62674
6397.64818,0.62635
6395.71944,0.62705
6393.79069,0.62739
6391.86195,0.62628
6389.93320,0.62440
6388.00446,0.62425
6386.07571,0.62589
6384.14697,0.62663
6382.21822,0.62683
6380.28948,0.62743
6378.36073,0.62802
6376.43199,0.62889
6374.50324,0.62829
6372.57450,0.62631
6370.64575,0.62638
6368.71700,0.62792
6366.78826,0.62827
6364.85951,0.62774
6362.93077,0.62711
6361.00202,0.62678
6359.07328,0.62798
6357.14453,0.63040
6355.21579,0.63212
6353.28704,0.63250
6351.35830,0.63178
6349.42955,0.63027
6347.50081,0.62919
6345.57206,0.62879
6343.64332,0.62810
6341.71457,0.62779
6339.78582,0.62909
6337.85708,0.63117
6335.92833,0.63208
6333.99959,0.63130
6332.07084,0.63091
6330.14210,0.63225
6328.21335,0.63377
6326.28461,0.63424
6324.35586,0.63450
6322.42712,0.63477
6320.49837,0.63440
6318.56963,0.63347
6316.64088,0.63302
6314.71214,0.63463
6312.78339,0.63658
6310.85465,0.63589
6308.92590,0.63435
6306.99715,0.63412
6305.06841,0.63415
6303.13966,0.63359
6301.21092,0.63305
6299.28217,0.63315
6297.35343,0.63377
6295.42468,0.63489
6293.49594,0.63597
6291.56719,0.63624
6289.63845,0.63650
6287.70970,0.63761
6285.78096,0.63820
6283.85221,0.63721
6281.92347,0.63640
6279.99472,0.63711
6278.06598,0.63890
6276.13723,0.64076
6274.20848,0.64125
6272.27974,0.64097
6270.35099,0.64155
6268.42225,0.64223
6266.49350,0.64276
6264.56476,0.64407
6262.63601,0.64461
6260.70727,0.64373
6258.77852,0.64356
6256.84978,0.64432
6254.92103,0.64531
6252.99229,0.64643
6251.06354,0.64724
6249.13480,0.64813
6247.20605,0.64952
6245.27730,0.65066
6243.34856,0.65032
6241.41981,0.64889
6239.49107,0.64842
6237.56232,0.64941
6235.63358,0.65079
6233.70483,0.65257
6231.77609,0.65434
6229.84734,0.65413
6227.91860,0.65259
6225.98985,0.65237
6224.06111,0.65349
6222.13236,0.65517
6220.20362,0.65735
6218.27487,0.65917
6216.34613,0.66012
6214.41738,0.66079
6212.48863,0.66110
6210.55989,0.66102
6208.63114,0.66137
6206.70240,0.66241
6204.77365,0.66358
6202.84491,0.66413
6200.91616,0.66378
6198.98742,0.66313
6197.05867,0.66329
6195.12993,0.66424
6193.20118,0.66447
6191.27244,0.66365
6189.34369,0.66319
6187.41495,0.66437
6185.48620,0.66729
6183.55746,0.67033
6181.62871,0.67117
6179.69996,0.66933
6177.77122,0.66735
6175.84247,0.66809
6173.91373,0.67078
6171.98498,0.67273
6170.05624,0.67339
6168.12749,0.67280
6166.19875,0.67124
6164.27000,0.67097
6162.34126,0.67216
6160.41251,0.67338
6158.48377,0.67459
6156.55502,0.67467
6154.62628,0.67343
6152.69753,0.67276
6150.76878,0.67293
6148.84004,0.67373
6146.91129,0.67532
6144.98255,0.67713
6143.05380,0.67906
6141.12506,0.68059
6139.19631,0.68063
6137.26757,0.68001
6135.33882,0.67929
6133.41008,0.67812
6131.48133,0.67776
6129.55259,0.67872
6127.62384,0.67976
6125.69510,0.68011
6123.76635,0.68004
6121.83761,0.67992
6119.90886,0.67984
6117.98011,0.68057
6116.05137,0.68246
6114.12262,0.68370
6112.19388,0.68322
6110.26513,0.68228
6108.33639,0.68190
6106.40764,0.68269
6104.47890,0.68427
6102.55015,0.68411
6100.62141,0.68229
6098.69266,0.68183
6096.76392,0.68300
6094.83517,0.68414
6092.90643,0.68464
6090.97768,0.68446
6089.04893,0.68387
6087.12019,0.68399
6085.19144,0.68526
6083.26270,0.68606
6081.33395,0.68549
6079.40521,0.68515
6077.47646,0.68548
6075.54772,0.68486
6073.61897,0.68311
6071.69023,0.68199
6069.76148,0.68226
6067.83274,0.68314
6065.90399,0.68414
6063.97525,0.68445
6062.04650,0.68384
6060.11776,0.68395
6058.18901,0.68494
6056.26026,0.68552
6054.33152,0.68544
6052.40277,0.68405
6050.47403,0.68072
6048.54528,0.67693
6046.61654,0.67547
6044.68779,0.67686
6042.75905,0.67884
6040.83030,0.68044
6038.90156,0.68155
6036.97281,0.68041
6035.04407,0.67732
6033.11532,0.67589
6031.18658,0.67650
6029.25783,0.67587
6027.32909,0.67405
6025.40034,0.67333
6023.47159,0.67307
6021.54285,0.67272
6019.61410,0.67341
6017.68536,0.67393
6015.75661,0.67284
6013.82787,0.67089
6011.89912,0.66877
6009.97038,0.66704
6008.04163,0.66587
6006.11289,0.66510
6004.18414,0.66527
6002.25540,0.66588
6000.32665,0.66562
5998.39791,0.66477
5996.46916,0.66414
5994.54041,0.66363
5992.61167,0.66343
5990.68292,0.66355
5988.75418,0.66312
5986.82543,0.66222
5984.89669,0.66164
5982.96794,0.66139
5981.03920,0.66150
5979.11045,0.66259
5977.18171,0.66391
5975.25296,0.66366
5973.32422,0.66218
5971.39547,0.66134
5969.46673,0.66198
5967.53798,0.66326
5965.60924,0.66373
5963.68049,0.66385
5961.75174,0.66389
5959.82300,0.66238
5957.89425,0.66010
5955.96551,0.65945
5954.03676,0.66110
5952.10802,0.66306
5950.17927,0.66279
5948.25053,0.66110
5946.32178,0.66085
5944.39304,0.66241
5942.46429,0.66378
5940.53555,0.66448
5938.60680,0.66597
5936.67806,0.66781
5934.74931,0.66831
5932.82057,0.66783
5930.89182,0.66728
5928.96307,0.66660
5927.03433,0.66606
5925.10558,0.66625
5923.17684,0.66651
5921.24809,0.66529
5919.31935,0.66298
5917.39060,0.66154
5915.46186,0.66104
5913.53311,0.66026
5911.60437,0.65943
5909.67562,0.65994
5907.74688,0.66204
5905.81813,0.66367
5903.88939,0.66294
5901.96064,0.66089
5900.03189,0.65954
5898.10315,0.65912
5896.17440,0.65920
5894.24566,0.65935
5892.31691,0.65922
5890.38817,0.65897
5888.45942,0.65792
5886.53068,0.65635
5884.60193,0.65582
5882.67319,0.65585
5880.74444,0.65611
5878.81570,0.65760
5876.88695,0.65923
5874.95821,0.65931
5873.02946,0.65851
5871.10072,0.65754
5869.17197,0.65645
5867.24322,0.65609
5865.31448,0.65643
5863.38573,0.65596
5861.45699,0.65466
5859.52824,0.65440
5857.59950,0.65552
5855.67075,0.65709
5853.74201,0.65855
5851.81326,0.65849
5849.88452,0.65702
5847.95577,0.65629
5846.02703,0.65618
5844.09828,0.65570
5842.16954,0.65535
5840.24079,0.65552
5838.31205,0.65592
5836.38330,0.65607
5834.45455,0.65552
5832.52581,0.65466
5830.59706,0.65467
5828.66832,0.65559
5826.73957,0.65600
5824.81083,0.65551
5822.88208,0.65496
5820.95334,0.65469
5819.02459,0.65490
5817.09585,0.65519
5815.16710,0.65459
5813.23836,0.65371
5811.30961,0.65305
5809.38087,0.65223
5807.45212,0.65172
5805.52337,0.65189
5803.59463,0.65239
5801.66588,0.65265
5799.73714,0.65228
5797.80839,0.65195
5795.87965,0.65277
5793.95090,0.65398
5792.02216,0.65396
5790.09341,0.65314
5788.16467,0.65235
5786.23592,0.65200
5784.30718,0.65241
5782.37843,0.65291
5780.44969,0.65343
5778.52094,0.65421
5776.59220,0.65441
5774.66345,0.65458
5772.73470,0.65562
5770.80596,0.65616
5768.87721,0.65565
5766.94847,0.65562
5765.01972,0.65601
5763.09098,0.65601
5761.16223,0.65610
5759.23349,0.65705
5757.30474,0.65815
5755.37600,0.65745
5753.44725,0.65559
5751.51851,0.65472
5749.58976,0.65459
5747.66102,0.65460
5745.73227,0.65538
5743.80352,0.65639
5741.87478,0.65640
5739.94603,0.65599
5738.01729,0.65603
5736.08854,0.65606
5734.15980,0.65542
5732.23105,0.65464
5730.30231,0.65502
5728.37356,0.65585
5726.44482,0.65568
5724.51607,0.65496
5722.58733,0.65458
5720.65858,0.65473
5718.72984,0.65537
5716.80109,0.65607
5714.87235,0.65600
5712.94360,0.65504
5711.01485,0.65414
5709.08611,0.65411
5707.15736,0.65508
5705.22862,0.65614
5703.29987,0.65598
5701.37113,0.65482
5699.44238,0.65435
5697.51364,0.65441
5695.58489,0.65323
5693.65615,0.65189
5691.72740,0.65237
5689.79866,0.65338
5687.86991,0.65341
5685.94117,0.65295
5684.01242,0.65253
5682.08368,0.65232
5680.15493,0.65269
5678.22618,0.65354
5676.29744,0.65398
5674.36869,0.65336
5672.43995,0.65250
5670.51120,0.65233
5668.58246,0.65235
5666.65371,0.65188
5664.72497,0.65083
5662.79622,0.64992
5660.86748,0.65046
5658.93873,0.65207
5657.00999,0.65278
5655.08124,0.65230
5653.15250,0.65202
5651.22375,0.65224
5649.29500,0.65204
5647.36626,0.65159
5645.43751,0.65200
5643.50877,0.65304
5641.58002,0.65350
5639.65128,0.65308
5637.72253,0.65235
5635.79379,0.65164
5633.86504,0.65096
5631.93630,0.65074
5630.00755,0.65115
5628.07881,0.65166
5626.15006,0.65232
5624.22132,0.65304
5622.29257,0.65284
5620.36383,0.65167
5618.43508,0.65055
5616.50633,0.65041
5614.57759,0.65093
5612.64884,0.65087
5610.72010,0.65032
5608.79135,0.65079
5606.86261,0.65201
5604.93386,0.65203
5603.00512,0.65110
5601.07637,0.65091
5599.14763,0.65110
5597.21888,0.65084
5595.29014,0.65082
5593.36139,0.65173
5591.43265,0.65279
5589.50390,0.65293
5587.57516,0.65269
5585.64641,0.65253
5583.71766,0.65196
5581.78892,0.65160
5579.86017,0.65184
5577.93143,0.65188
5576.00268,0.65169
5574.07394,0.65157
5572.14519,0.65157
5570.21645,0.65201
5568.28770,0.65275
5566.35896,0.65314
5564.43021,0.65317
5562.50147,0.65343
5560.57272,0.65398
5558.64398,0.65450
5556.71523,0.65482
5554.78648,0.65460
5552.85774,0.65402
5550.92899,0.65399
5549.00025,0.65467
5547.07150,0.65535
5545.14276,0.65571
5543.21401,0.65608
5541.28527,0.65638
5539.35652,0.65631
5537.42778,0.65627
5535.49903,0.65632
5533.57029,0.65653
5531.64154,0.65751
5529.71280,0.65849
5527.78405,0.65834
5525.85531,0.65787
5523.92656,0.65799
5521.99781,0.65787
5520.06907,0.65729
5518.14032,0.65722
5516.21158,0.65751
5514.28283,0.65767
5512.35409,0.65808
5510.42534,0.65822
5508.49660,0.65743
5506.56785,0.65719
5504.63911,0.65873
5502.71036,0.66054
5500.78162,0.66093
5498.85287,0.66015
5496.92413,0.65966
5494.99538,0.66002
5493.06664,0.65991
5491.13789,0.65896
5489.20914,0.65867
5487.28040,0.65914
5485.35165,0.65933
5483.42291,0.65942
5481.49416,0.65946
5479.56542,0.65901
5477.63667,0.65846
5475.70793,0.65860
5473.77918,0.65961
5471.85044,0.66093
5469.92169,0.66188
5467.99295,0.66224
5466.06420,0.66246
5464.13546,0.66239
5462.20671,0.66178
5460.27796,0.66161
5458.34922,0.66209
5456.42047,0.66263
5454.49173,0.66310
5452.56298,0.66329
5450.63424,0.66323
5448.70549,0.66362
5446.77675,0.66495
5444.84800,0.66643
5442.91926,0.66704
5440.99051,0.66713
5439.06177,0.66754
5437.13302,0.66834
5435.20428,0.66907
5433.27553,0.66966
5431.34679,0.67054
5429.41804,0.67118
5427.48929,0.67070
5425.56055,0.66981
5423.63180,0.66972
5421.70306,0.67021
5419.77431,0.67079
5417.84557,0.67170
5415.91682,0.67277
5413.98808,0.67331
5412.05933,0.67342
5410.13059,0.67358
5408.20184,0.67390
5406.27310,0.67441
5404.34435,0.67509
5402.41561,0.67563
5400.48686,0.67540
5398.55811,0.67480
5396.62937,0.67539
5394.70062,0.67666
5392.77188,0.67675
5390.84313,0.67595
5388.91439,0.67577
5386.98564,0.67665
5385.05690,0.67719
5383.12815,0.67640
5381.19941,0.67584
5379.27066,0.67658
5377.34192,0.67760
5375.41317,0.67790
5373.48443,0.67760
5371.55568,0.67744
5369.62694,0.67785
5367.69819,0.67824
5365.76944,0.67747
5363.84070,0.67588
5361.91195,0.67482
5359.98321,0.67452
5358.05446,0.67482
5356.12572,0.67552
5354.19697,0.67600
5352.26823,0.67568
5350.33948,0.67472
5348.41074,0.67427
5346.48199,0.67456
5344.55325,0.67468
5342.62450,0.67444
5340.69576,0.67420
5338.76701,0.67373
5336.83827,0.67287
5334.90952,0.67206
5332.98077,0.67135
5331.05203,0.67034
5329.12328,0.66904
5327.19454,0.66795
5325.26579,0.66695
5323.33705,0.66548
5321.40830,0.66400
5319.47956,0.66332
5317.55081,0.66307
5315.62207,0.66235
5313.69332,0.66096
5311.76458,0.65916
5309.83583,0.65712
5307.90709,0.65525
5305.97834,0.65358
5304.04959,0.65138
5302.12085,0.64878
5300.19210,0.64673
5298.26336,0.64498
5296.33461,0.64246
5294.40587,0.63948
5292.47712,0.63690
5290.54838,0.63418
5288.61963,0.63104
5286.69089,0.62821
5284.76214,0.62538
5282.83340,0.62198
5280.90465,0.61859
5278.97591,0.61560
5277.04716,0.61228
5275.11842,0.60809
5273.18967,0.60375
5271.26092,0.59997
5269.33218,0.59649
5267.40343,0.59325
5265.47469,0.59014
5263.54594,0.58688
5261.61720,0.58312
5259.68845,0.57836
5257.75971,0.57336
5255.83096,0.56958
5253.90222,0.56666
5251.97347,0.56344
5250.04473,0.55977
5248.11598,0.55599
5246.18724,0.55267
5244.25849,0.55035
5242.32975,0.54854
5240.40100,0.54618
5238.47225,0.54313
5236.54351,0.53993
5234.61476,0.53733
5232.68602,0.53554
5230.75727,0.53397
5228.82853,0.53194
5226.89978,0.52920
5224.97104,0.52644
5223.04229,0.52488
5221.11355,0.52432
5219.18480,0.52352
5217.25606,0.52222
5215.32731,0.52087
5213.39857,0.51971
5211.46982,0.51902
5209.54107,0.51867
5207.61233,0.51824
5205.68358,0.51787
5203.75484,0.51774
5201.82609,0.51753
5199.89735,0.51666
5197.96860,0.51524
5196.03986,0.51422
5194.11111,0.51395
5192.18237,0.51391
5190.25362,0.51365
5188.32488,0.51341
5186.39613,0.51369
5184.46739,0.51399
5182.53864,0.51401
5180.60990,0.51453
5178.68115,0.51536
5176.75240,0.51547
5174.82366,0.51532
5172.89491,0.51609
5170.96617,0.51743
5169.03742,0.51835
5167.10868,0.51882
5165.17993,0.51881
5163.25119,0.51847
5161.32244,0.51873
5159.39370,0.51999
5157.46495,0.52172
5155.53621,0.52303
5153.60746,0.52356
5151.67872,0.52405
5149.74997,0.52527
5147.82123,0.52682
5145.89248,0.52785
5143.96373,0.52831
5142.03499,0.52895
5140.10624,0.53037
5138.17750,0.53221
5136.24875,0.53374
5134.32001,0.53484
5132.39126,0.53547
5130.46252,0.53582
5128.53377,0.53624
5126.60503,0.53682
5124.67628,0.53808
5122.74754,0.53988
5120.81879,0.54145
5118.89005,0.54285
5116.96130,0.54413
5115.03255,0.54504
5113.10381,0.54589
5111.17506,0.54694
5109.24632,0.54816
5107.31757,0.54933
5105.38883,0.54998
5103.46008,0.55019
5101.53134,0.55063
5099.60259,0.55142
5097.67385,0.55199
5095.74510,0.55251
5093.81636,0.55367
5091.88761,0.55493
5089.95887,0.55583
5088.03012,0.55709
5086.10138,0.55895
5084.17263,0.56056
5082.24388,0.56113
5080.31514,0.56150
5078.38639,0.56276
5076.45765,0.56451
5074.52890,0.56608
5072.60016,0.56709
5070.67141,0.56745
5068.74267,0.56768
5066.81392,0.56828
5064.88518,0.56928
5062.95643,0.57028
5061.02769,0.57084
5059.09894,0.57118
5057.17020,0.57195
5055.24145,0.57305
5053.31270,0.57395
5051.38396,0.57505
5049.45521,0.57674
5047.52647,0.57807
5045.59772,0.57813
5043.66898,0.57761
5041.74023,0.57808
5039.81149,0.57978
5037.88274,0.58105
5035.95400,0.58108
5034.02525,0.58111
5032.09651,0.58173
5030.16776,0.58208
5028.23902,0.58199
5026.31027,0.58235
5024.38153,0.58325
5022.45278,0.58407
5020.52403,0.58490
5018.59529,0.58585
5016.66654,0.58650
5014.73780,0.58652
5012.80905,0.58606
5010.88031,0.58568
5008.95156,0.58587
5007.02282,0.58670
5005.09407,0.58738
5003.16533,0.58706
5001.23658,0.58615
4999.30784,0.58538
4997.37909,0.58529
4995.45035,0.58590
4993.52160,0.58623
4991.59286,0.58581
4989.66411,0.58501
4987.73536,0.58421
4985.80662,0.58354
4983.87787,0.58279
4981.94913,0.58196
4980.02038,0.58131
4978.09164,0.58072
4976.16289,0.57964
4974.23415,0.57806
4972.30540,0.57648
4970.37666,0.57498
4968.44791,0.57344
4966.51917,0.57201
4964.59042,0.57090
4962.66168,0.57019
4960.73293,0.56982
4958.80418,0.56938
4956.87544,0.56803
4954.94669,0.56581
4953.01795,0.56389
4951.08920,0.56269
4949.16046,0.56166
4947.23171,0.56016
4945.30297,0.55795
4943.37422,0.55553
4941.44548,0.55339
4939.51673,0.55143
4937.58799,0.54957
4935.65924,0.54775
4933.73050,0.54571
4931.80175,0.54350
4929.87301,0.54131
4927.94426,0.53893
4926.01551,0.53652
4924.08677,0.53469
4922.15802,0.53352
4920.22928,0.53227
4918.30053,0.53038
4916.37179,0.52811
4914.44304,0.52582
4912.51430,0.52357
4910.58555,0.52155
4908.65681,0.51974
4906.72806,0.51771
4904.79932,0.51546
4902.87057,0.51331
4900.94183,0.51132
4899.01308,0.50972
4897.08434,0.50851
4895.15559,0.50728
4893.22684,0.50573
4891.29810,0.50376
4889.36935,0.50159
4887.44061,0.49949
4885.51186,0.49747
4883.58312,0.49550
4881.65437,0.49350
4879.72563,0.49131
4877.79688,0.48938
4875.86814,0.48791
4873.93939,0.48623
4872.01065,0.48442
4870.08190,0.48291
4868.15316,0.48123
4866.22441,0.47934
4864.29566,0.47783
4862.36692,0.47672
4860.43817,0.47567
4858.50943,0.47447
4856.58068,0.47295
4854.65194,0.47101
4852.72319,0.46903
4850.79445,0.46756
4848.86570,0.46657
4846.93696,0.46564
4845.00821,0.46437
4843.07947,0.46276
4841.15072,0.46124
4839.22198,0.45995
4837.29323,0.45856
4835.36449,0.45710
4833.43574,0.45571
4831.50699,0.45443
4829.57825,0.45348
4827.64950,0.45280
4825.72076,0.45211
4823.79201,0.45128
4821.86327,0.44990
4819.93452,0.44813
4818.00578,0.44690
4816.07703,0.44633
4814.14829,0.44569
4812.21954,0.44475
4810.29080,0.44386
4808.36205,0.44323
4806.43331,0.44283
4804.50456,0.44234
4802.57582,0.44148
4800.64707,0.44058
4798.71832,0.44006
4796.78958,0.43977
4794.86083,0.43947
4792.93209,0.43908
4791.00334,0.43833
4789.07460,0.43732
4787.14585,0.43682
4785.21711,0.43693
4783.28836,0.43681
4781.35962,0.43619
4779.43087,0.43557
4777.50213,0.43529
4775.57338,0.43526
4773.64464,0.43505
4771.71589,0.43487
4769.78714,0.43514
4767.85840,0.43549
4765.92965,0.43537
4764.00091,0.43486
4762.07216,0.43443
4760.14342,0.43420
4758.21467,0.43374
4756.28593,0.43307
4754.35718,0.43273
4752.42844,0.43280
4750.49969,0.43294
4748.57095,0.43299
4746.64220,0.43299
4744.71346,0.43324
4742.78471,0.43390
4740.85597,0.43446
4738.92722,0.43469
4736.99847,0.43489
4735.06973,0.43493
4733.14098,0.43470
4731.21224,0.43451
4729.28349,0.43455
4727.35475,0.43491
4725.42600,0.43521
4723.49726,0.43512
4721.56851,0.43525
4719.63977,0.43572
4717.71102,0.43615
4715.78228,0.43666
4713.85353,0.43723
4711.92479,0.43783
4709.99604,0.43846
4708.06729,0.43877
4706.13855,0.43867
4704.20980,0.43851
4702.28106,0.43859
4700.35231,0.43882
4698.42357,0.43899
4696.49482,0.43920
4694.56608,0.43948
4692.63733,0.43956
4690.70859,0.43949
4688.77984,0.43969
4686.85110,0.44037
4684.92235,0.44117
4682.99361,0.44162
4681.06486,0.44191
4679.13612,0.44212
4677.20737,0.44224
4675.27862,0.44273
4673.34988,0.44386
4671.42113,0.44528
4669.49239,0.44649
4667.56364,0.44719
4665.63490,0.44752
4663.70615,0.44785
4661.77741,0.44838
4659.84866,0.44935
4657.91992,0.45062
4655.99117,0.45153
4654.06243,0.45220
4652.13368,0.45322
4650.20494,0.45422
4648.27619,0.45478
4646.34745,0.45538
4644.41870,0.45631
4642.48995,0.45709
4640.56121,0.45747
4638.63246,0.45769
4636.70372,0.45808
4634.77497,0.45883
4632.84623,0.45992
4630.91748,0.46133
4628.98874,0.46294
4627.05999,0.46442
4625.13125,0.46536
4623.20250,0.46572
4621.27376,0.46653
4619.34501,0.46834
4617.41627,0.47010
4615.48752,0.47111
4613.55877,0.47190
4611.63003,0.47291
4609.70128,0.47400
4607.77254,0.47508
4605.84379,0.47616
4603.91505,0.47721
4601.98630,0.47823
4600.05756,0.47928
4598.12881,0.48042
4596.20007,0.48165
4594.27132,0.48278
4592.34258,0.48367
4590.41383,0.48442
4588.48509,0.48514
4586.55634,0.48591
4584.62760,0.48704
4582.69885,0.48833
4580.77010,0.48918
4578.84136,0.48986
4576.91261,0.49083
4574.98387,0.49178
4573.05512,0.49249
4571.12638,0.49317
4569.19763,0.49414
4567.26889,0.49534
4565.34014,0.49607
4563.41140,0.49620
4561.48265,0.49641
4559.55391,0.49702
4557.62516,0.49780
4555.69642,0.49835
4553.76767,0.49881
4551.83893,0.49955
4549.91018,0.50015
4547.98143,0.50038
4546.05269,0.50077
4544.12394,0.50131
4542.19520,0.50140
4540.26645,0.50135
4538.33771,0.50182
4536.40896,0.50258
4534.48022,0.50321
4532.55147,0.50366
4530.62273,0.50405
4528.69398,0.50457
4526.76524,0.50516
4524.83649,0.50572
4522.90775,0.50593
4520.97900,0.50580
4519.05025,0.50596
4517.12151,0.50620
4515.19276,0.50597
4513.26402,0.50572
4511.33527,0.50556
4509.40653,0.50497
4507.47778,0.50416
4505.54904,0.50367
4503.62029,0.50331
4501.69155,0.50275
4499.76280,0.50227
4497.83406,0.50194
4495.90531,0.50145
4493.97657,0.50082
4492.04782,0.50013
4490.11908,0.49941
4488.19033,0.49842
4486.26158,0.49683
4484.33284,0.49506
4482.40409,0.49358
4480.47535,0.49230
4478.54660,0.49093
4476.61786,0.48929
4474.68911,0.48743
4472.76037,0.48538
4470.83162,0.48306
4468.90288,0.48059
4466.97413,0.47837
4465.04539,0.47635
4463.11664,0.47406
4461.18790,0.47137
4459.25915,0.46868
4457.33041,0.46637
4455.40166,0.46439
4453.47291,0.46234
4451.54417,0.45995
4449.61542,0.45727
4447.68668,0.45463
4445.75793,0.45230
4443.82919,0.45035
4441.90044,0.44845
4439.97170,0.44612
4438.04295,0.44342
4436.11421,0.44087
4434.18546,0.43849
4432.25672,0.43564
4430.32797,0.43218
4428.39923,0.42872
4426.47048,0.42573
4424.54173,0.42326
4422.61299,0.42098
4420.68424,0.41841
4418.75550,0.41558
4416.82675,0.41289
4414.89801,0.41066
4412.96926,0.40875
4411.04052,0.40677
4409.11177,0.40505
4407.18303,0.40392
4405.25428,0.40305
4403.32554,0.40230
4401.39679,0.40169
4399.46805,0.40112
4397.53930,0.40060
4395.61056,0.40022
4393.68181,0.40007
4391.75306,0.40013
4389.82432,0.40041
4387.89557,0.40097
4385.96683,0.40178
4384.03808,0.40264
4382.10934,0.40325
4380.18059,0.40387
4378.25185,0.40499
4376.32310,0.40633
4374.39436,0.40735
4372.46561,0.40805
4370.53687,0.40883
4368.60812,0.41013
4366.67938,0.41150
4364.75063,0.41218
4362.82189,0.41263
4360.89314,0.41343
4358.96439,0.41420
4357.03565,0.41448
4355.10690,0.41443
4353.17816,0.41440
4351.24941,0.41441
4349.32067,0.41435
4347.39192,0.41415
4345.46318,0.41371
4343.53443,0.41327
4341.60569,0.41288
4339.67694,0.41219
4337.74820,0.41133
4335.81945,0.41077
4333.89071,0.41060
4331.96196,0.41046
4330.03321,0.41011
4328.10447,0.40975
4326.17572,0.40946
4324.24698,0.40900
4322.31823,0.40815
4320.38949,0.40696
4318.46074,0.40572
4316.53200,0.40461
4314.60325,0.40393
4312.67451,0.40362
4310.74576,0.40285
4308.81702,0.40137
4306.88827,0.40011
4304.95953,0.39946
4303.03078,0.39889
4301.10204,0.39789
4299.17329,0.39664
4297.24454,0.39577
4295.31580,0.39533
4293.38705,0.39490
4291.45831,0.39433
4289.52956,0.39378
4287.60082,0.39313
4285.67207,0.39233
4283.74333,0.39169
4281.81458,0.39131
4279.88584,0.39104
4277.95709,0.39095
4276.02835,0.39115
4274.09960,0.39150
4272.17086,0.39186
4270.24211,0.39208
4268.31336,0.39221
4266.38462,0.39245
4264.45587,0.39286
4262.52713,0.39336
4260.59838,0.39389
4258.66964,0.39436
4256.74089,0.39473
4254.81215,0.39499
4252.88340,0.39525
4250.95466,0.39562
4249.02591,0.39611
4247.09717,0.39659
4245.16842,0.39687
4243.23968,0.39707
4241.31093,0.39747
4239.38219,0.39789
4237.45344,0.39809
4235.52469,0.39824
4233.59595,0.39842
4231.66720,0.39848
4229.73846,0.39850
4227.80971,0.39870
4225.88097,0.39903
4223.95222,0.39904
4222.02348,0.39858
4220.09473,0.39815
4218.16599,0.39806
4216.23724,0.39805
4214.30850,0.39803
4212.37975,0.39809
4210.45101,0.39830
4208.52226,0.39862
4206.59352,0.39876
4204.66477,0.39873
4202.73602,0.39900
4200.80728,0.39937
4198.87853,0.39939
4196.94979,0.39930
4195.02104,0.39942
4193.09230,0.39971
4191.16355,0.39998
4189.23481,0.40020
4187.30606,0.40047
4185.37732,0.40081
4183.44857,0.40123
4181.51983,0.40175
4179.59108,0.40219
4177.66234,0.40248
4175.73359,0.40279
4173.80484,0.40315
4171.87610,0.40363
4169.94735,0.40438
4168.01861,0.40526
4166.08986,0.40585
4164.16112,0.40599
4162.23237,0.40593
4160.30363,0.40603
4158.37488,0.40612
4156.44614,0.40583
4154.51739,0.40540
4152.58865,0.40510
4150.65990,0.40470
4148.73116,0.40419
4146.80241,0.40350
4144.87367,0.40248
4142.94492,0.40129
4141.01617,0.40035
4139.08743,0.39985
4137.15868,0.39941
4135.22994,0.39856
4133.30119,0.39730
4131.37245,0.39588
4129.44370,0.39450
4127.51496,0.39322
4125.58621,0.39201
4123.65747,0.39071
4121.72872,0.38932
4119.79998,0.38786
4117.87123,0.38629
4115.94249,0.38483
4114.01374,0.38375
4112.08500,0.38280
4110.15625,0.38130
4108.22750,0.37913
4106.29876,0.37691
4104.37001,0.37501
4102.44127,0.37319
4100.51252,0.37129
4098.58378,0.36941
4096.65503,0.36746
4094.72629,0.36531
4092.79754,0.36322
4090.86880,0.36146
4088.94005,0.35979
4087.01131,0.35790
4085.08256,0.35591
4083.15382,0.35405
4081.22507,0.35214
4079.29632,0.35004
4077.36758,0.34802
4075.43883,0.34627
4073.51009,0.34445
4071.58134,0.34229
4069.65260,0.34008
4067.72385,0.33821
4065.79511,0.33653
4063.86636,0.33472
4061.93762,0.33272
4060.00887,0.33050
4058.08013,0.32824
4056.15138,0.32622
4054.22264,0.32448
4052.29389,0.32294
4050.36515,0.32150
4048.43640,0.32001
4046.50765,0.31847
4044.57891,0.31720
4042.65016,0.31607
4040.72142,0.31461
4038.79267,0.31293
4036.86393,0.31132
4034.93518,0.31003
4033.00644,0.30938
4031.07769,0.30915
4029.14895,0.30874
4027.22020,0.30800
4025.29146,0.30713
4023.36271,0.30637
4021.43397,0.30571
4019.50522,0.30516
4017.57648,0.30480
4015.64773,0.30446
4013.71898,0.30401
4011.79024,0.30378
4009.86149,0.30401
4007.93275,0.30444
4006.00400,0.30487
4004.07526,0.30534
4002.14651,0.30572
4000.21777,0.30596
3998.28902,0.30630
3996.36028,0.30670
3994.43153,0.30707
3992.50279,0.30779
3990.57404,0.30897
3988.64530,0.30981
3986.71655,0.31003
3984.78780,0.31020
3982.85906,0.31055
3980.93031,0.31088
3979.00157,0.31114
3977.07282,0.31141
3975.14408,0.31191
3973.21533,0.31290
3971.28659,0.31402
3969.35784,0.31485
3967.42910,0.31565
3965.50035,0.31666
3963.57161,0.31761
3961.64286,0.31832
3959.71412,0.31899
3957.78537,0.31971
3955.85663,0.32052
3953.92788,0.32156
3951.99913,0.32258
3950.07039,0.32343
3948.14164,0.32432
3946.21290,0.32536
3944.28415,0.32647
3942.35541,0.32757
3940.42666,0.32857
3938.49792,0.32945
3936.56917,0.33021
3934.64043,0.33101
3932.71168,0.33202
3930.78294,0.33321
3928.85419,0.33453
3926.92545,0.33579
3924.99670,0.33668
3923.06795,0.33745
3921.13921,0.33835
3919.21046,0.33909
3917.28172,0.33978
3915.35297,0.34077
3913.42423,0.34174
3911.49548,0.34243
3909.56674,0.34330
3907.63799,0.34460
3905.70925,0.34578
3903.78050,0.34663
3901.85176,0.34755
3899.92301,0.34842
3897.99427,0.34894
3896.06552,0.34933
3894.13678,0.34983
3892.20803,0.35048
3890.27928,0.35138
3888.35054,0.35241
3886.42179,0.35330
3884.49305,0.35402
3882.56430,0.35450
3880.63556,0.35471
3878.70681,0.35499
3876.77807,0.35578
3874.84932,0.35703
3872.92058,0.35832
3870.99183,0.35935
3869.06309,0.36015
3867.13434,0.36089
3865.20560,0.36176
3863.27685,0.36251
3861.34811,0.36306
3859.41936,0.36374
3857.49061,0.36466
3855.56187,0.36586
3853.63312,0.36716
3851.70438,0.36786
3849.77563,0.36826
3847.84689,0.36904
3845.91814,0.37005
3843.98940,0.37090
3842.06065,0.37162
3840.13191,0.37220
3838.20316,0.37248
3836.27442,0.37276
3834.34567,0.37328
3832.41693,0.37374
3830.48818,0.37394
3828.55943,0.37409
3826.63069,0.37421
3824.70194,0.37423
3822.77320,0.37430
3820.84445,0.37444
3818.91571,0.37452
3816.98696,0.37449
3815.05822,0.37448
3813.12947,0.37464
3811.20073,0.37479
3809.27198,0.37476
3807.34324,0.37467
3805.41449,0.37455
3803.48575,0.37439
3801.55700,0.37424
3799.62826,0.37420
3797.69951,0.37427
3795.77076,0.37432
3793.84202,0.37426
3791.91327,0.37420
3789.98453,0.37428
3788.05578,0.37429
3786.12704,0.37388
3784.19829,0.37326
3782.26955,0.37307
3780.34080,0.37335
3778.41206,0.37336
3776.48331,0.37265
3774.55457,0.37189
3772.62582,0.37183
3770.69708,0.37209
3768.76833,0.37186
3766.83959,0.37126
3764.91084,0.37068
3762.98209,0.37012
3761.05335,0.36956
3759.12460,0.36889
3757.19586,0.36814
3755.26711,0.36757
3753.33837,0.36712
3751.40962,0.36668
3749.48088,0.36611
3747.55213,0.36538
3745.62339,0.36451
3743.69464,0.36336
3741.76590,0.36217
3739.83715,0.36114
3737.90841,0.35998
3735.97966,0.35861
3734.05091,0.35727
3732.12217,0.35583
3730.19342,0.35423
3728.26468,0.35268
3726.33593,0.35116
3724.40719,0.34966
3722.47844,0.34808
3720.54970,0.34624
3718.62095,0.34429
3716.69221,0.34225
3714.76346,0.34000
3712.83472,0.33778
3710.90597,0.33564
3708.97723,0.33326
3707.04848,0.33063
3705.11974,0.32771
3703.19099,0.32461
3701.26224,0.32169
3699.33350,0.31891
3697.40475,0.31562
3695.47601,0.31179
3693.54726,0.30800
3691.61852,0.30426
3689.68977,0.29998
3687.76103,0.29500
3685.83228,0.28983
3683.90354,0.28472
3681.97479,0.27955
3680.04605,0.27427
3678.11730,0.26889
3676.18856,0.26278
3674.25981,0.25612
3672.33107,0.25019
3670.40232,0.24429
3668.47357,0.23789
3666.54483,0.23184
3664.61608,0.22598
3662.68734,0.22012
3660.75859,0.21463
3658.82985,0.20945
3656.90110,0.20403
3654.97236,0.19866
3653.04361,0.19404
3651.11487,0.18946
3649.18612,0.18421
3647.25738,0.17913
3645.32863,0.17485
3643.39989,0.17089
3641.47114,0.16685
3639.54239,0.16283
3637.61365,0.15903
3635.68490,0.15550
3633.75616,0.15221
3631.82741,0.14914
3629.89867,0.14567
3627.96992,0.14155
3626.04118,0.13790
3624.11243,0.13504
3622.18369,0.13247
3620.25494,0.12955
3618.32620,0.12607
3616.39745,0.12288
3614.46871,0.12018
3612.53996,0.11741
3610.61122,0.11457
3608.68247,0.11179
3606.75372,0.10902
3604.82498,0.10624
3602.89623,0.10359
3600.96749,0.10132
3599.03874,0.09924
3597.11000,0.09697
3595.18125,0.09468
3593.25251,0.09249
3591.32376,0.09034
3589.39502,0.08832
3587.46627,0.08660
3585.53753,0.08524
3583.60878,0.08390
3581.68004,0.08233
3579.75129,0.08078
3577.82254,0.07943
3575.89380,0.07813
3573.96505,0.07672
3572.03631,0.07534
3570.10756,0.07421
3568.17882,0.07329
3566.25007,0.07226
3564.32133,0.07093
3562.39258,0.06950
3560.46384,0.06843
3558.53509,0.06787
3556.60635,0.06738
3554.67760,0.06670
3552.74886,0.06593
3550.82011,0.06516
3548.89137,0.06435
3546.96262,0.06354
3545.03387,0.06279
3543.10513,0.06199
3541.17638,0.06111
3539.24764,0.06038
3537.31889,0.05987
3535.39015,0.05930
3533.46140,0.05868
3531.53266,0.05825
3529.60391,0.05784
3527.67517,0.05723
3525.74642,0.05658
3523.81768,0.05593
3521.88893,0.05520
3519.96019,0.05465
3518.03144,0.05453
3516.10270,0.05470
3514.17395,0.05483
3512.24520,0.05461
3510.31646,0.05394
3508.38771,0.05309
3506.45897,0.05234
3504.53022,0.05176
3502.60148,0.05131
3500.67273,0.05092
3498.74399,0.05057
3496.81524,0.05030
3494.88650,0.05006
3492.95775,0.04971
3491.02901,0.04925
3489.10026,0.04893
3487.17152,0.04892
3485.24277,0.04888
3483.31402,0.04849
3481.38528,0.04796
3479.45653,0.04759
3477.52779,0.04752
3475.59904,0.04765
3473.67030,0.04758
3471.74155,0.04735
3469.81281,0.04733
3467.88406,0.04750
3465.95532,0.04764
3464.02657,0.04765
3462.09783,0.04735
3460.16908,0.04677
3458.24034,0.04629
3456.31159,0.04617
3454.38285,0.04632
3452.45410,0.04645
3450.52535,0.04641
3448.59661,0.04640
3446.66786,0.04644
3444.73912,0.04635
3442.81037,0.04638
3440.88163,0.04661
3438.95288,0.04670
3437.02414,0.04642
3435.09539,0.04577
3433.16665,0.04520
3431.23790,0.04534
3429.30916,0.04593
3427.38041,0.04628
3425.45167,0.04636
3423.52292,0.04633
3421.59418,0.04623
3419.66543,0.04606
3417.73668,0.04587
3415.80794,0.04584
3413.87919,0.04603
3411.95045,0.04614
3410.02170,0.04607
3408.09296,0.04589
3406.16421,0.04575
3404.23547,0.04591
3402.30672,0.04627
3400.37798,0.04650
3398.44923,0.04675
3396.52049,0.04706
3394.59174,0.04704
3392.66300,0.04671
3390.73425,0.04653
3388.80550,0.04673
3386.87676,0.04683
3384.94801,0.04661
3383.01927,0.04653
3381.09052,0.04669
3379.16178,0.04668
3377.23303,0.04652
3375.30429,0.04653
3373.37554,0.04681
3371.44680,0.04725
3369.51805,0.04761
3367.58931,0.04776
3365.66056,0.04789
3363.73182,0.04798
3361.80307,0.04788
3359.87433,0.04785
3357.94558,0.04798
3356.01683,0.04796
3354.08809,0.04792
3352.15934,0.04825
3350.23060,0.04885
3348.30185,0.04931
3346.37311,0.04944
3344.44436,0.04944
3342.51562,0.04964
3340.58687,0.04996
3338.65813,0.05031
3336.72938,0.05080
3334.80064,0.05119
3332.87189,0.05139
3330.94315,0.05154
3329.01440,0.05170
3327.08566,0.05192
3325.15691,0.05216
3323.22816,0.05237
3321.29942,0.05273
3319.37067,0.05345
3317.44193,0.05415
3315.51318,0.05429
3313.58444,0.05420
3311.65569,0.05443
3309.72695,0.05483
3307.79820,0.05518
3305.86946,0.05527
3303.94071,0.05515
3302.01197,0.05536
3300.08322,0.05600
3298.15448,0.05655
3296.22573,0.05675
3294.29698,0.05664
3292.36824,0.05645
3290.43949,0.05661
3288.51075,0.05708
3286.58200,0.05737
3284.65326,0.05765
3282.72451,0.05817
3280.79577,0.05849
3278.86702,0.05856
3276.93828,0.05872
3275.00953,0.05907
3273.08079,0.05962
3271.15204,0.06011
3269.22330,0.06049
3267.29455,0.06093
3265.36581,0.06127
3263.43706,0.06153
3261.50831,0.06190
3259.57957,0.06240
3257.65082,0.06309
3255.72208,0.06384
3253.79333,0.06429
3251.86459,0.06465
3249.93584,0.06508
3248.00710,0.06523
3246.07835,0.06519
3244.14961,0.06550
3242.22086,0.06627
3240.29212,0.06707
3238.36337,0.06765
3236.43463,0.06824
3234.50588,0.06883
3232.57713,0.06909
3230.64839,0.06917
3228.71964,0.06952
3226.79090,0.07019
3224.86215,0.07104
3222.93341,0.07193
3221.00466,0.07280
3219.07592,0.07344
3217.14717,0.07367
3215.21843,0.07395
3213.28968,0.07460
3211.36094,0.07528
3209.43219,0.07581
3207.50345,0.07636
3205.57470,0.07698
3203.64596,0.07764
3201.71721,0.07835
3199.78846,0.07915
3197.85972,0.07994
3195.93097,0.08064
3194.00223,0.08111
3192.07348,0.08133
3190.14474,0.08155
3188.21599,0.08205
3186.28725,0.08293
3184.35850,0.08409
3182.42976,0.08506
3180.50101,0.08566
3178.57227,0.08615
3176.64352,0.08664
3174.71478,0.08724
3172.78603,0.08802
3170.85729,0.08868
3168.92854,0.08915
3166.99979,0.08992
3165.07105,0.09092
3163.14230,0.09149
3161.21356,0.09177
3159.28481,0.09230
3157.35607,0.09302
3155.42732,0.09378
3153.49858,0.09457
3151.56983,0.09518
3149.64109,0.09569
3147.71234,0.09658
3145.78360,0.09766
3143.85485,0.09839
3141.92611,0.09896
3139.99736,0.09978
3138.06861,0.10078
3136.13987,0.10152
3134.21112,0.10200
3132.28238,0.10254
3130.35363,0.10305
3128.42489,0.10345
3126.49614,0.10400
3124.56740,0.10486
3122.63865,0.10579
3120.70991,0.10658
3118.78116,0.10741
3116.85242,0.10819
3114.92367,0.10869
3112.99493,0.10920
3111.06618,0.10988
3109.13744,0.11054
3107.20869,0.11114
3105.27994,0.11179
3103.35120,0.11244
3101.42245,0.11293
3099.49371,0.11331
3097.56496,0.11393
3095.63622,0.11480
3093.70747,0.11545
3091.77873,0.11583
3089.84998,0.11626
3087.92124,0.11685
3085.99249,0.11728
3084.06375,0.11754
3082.13500,0.11800
3080.20626,0.11880
3078.27751,0.11959
3076.34877,0.12004
3074.42002,0.12035
3072.49127,0.12078
3070.56253,0.12124
3068.63378,0.12165
3066.70504,0.12208
3064.77629,0.12244
3062.84755,0.12285
3060.91880,0.12348
3058.99006,0.12422
3057.06131,0.12495
3055.13257,0.12561
3053.20382,0.12621
3051.27508,0.12674
3049.34633,0.12705
3047.41759,0.12730
3045.48884,0.12772
3043.56009,0.12823
3041.63135,0.12861
3039.70260,0.12874
3037.77386,0.12880
3035.84511,0.12902
3033.91637,0.12926
3031.98762,0.12932
3030.05888,0.12932
3028.13013,0.12938
3026.20139,0.12948
3024.27264,0.12957
3022.34390,0.12941
3020.41515,0.12883
3018.48641,0.12805
3016.55766,0.12739
3014.62892,0.12692
3012.70017,0.12645
3010.77142,0.12573
3008.84268,0.12462
3006.91393,0.12327
3004.98519,0.12214
3003.05644,0.12128
3001.12770,0.12044
2999.19895,0.11962
2997.27021,0.11881
2995.34146,0.11796
2993.41272,0.11723
2991.48397,0.11647
2989.55523,0.11528
2987.62648,0.11360
2985.69774,0.11173
2983.76899,0.10976
2981.84025,0.10762
2979.91150,0.10524
2977.98275,0.10250
2976.05401,0.09957
2974.12526,0.09677
2972.19652,0.09431
2970.26777,0.09230
2968.33903,0.09055
2966.41028,0.08890
2964.48154,0.08763
2962.55279,0.08674
2960.62405,0.08584
2958.69530,0.08485
2956.76656,0.08391
2954.83781,0.08286
2952.90907,0.08146
2950.98032,0.07997
2949.05157,0.07874
2947.12283,0.07781
2945.19408,0.07700
2943.26534,0.07613
2941.33659,0.07520
2939.40785,0.07448
2937.47910,0.07415
2935.55036,0.07429
2933.62161,0.07459
2931.69287,0.07451
2929.76412,0.07404
2927.83538,0.07358
2925.90663,0.07338
2923.97789,0.07344
2922.04914,0.07353
2920.12040,0.07353
2918.19165,0.07343
2916.26290,0.07323
2914.33416,0.07310
2912.40541,0.07330
2910.47667,0.07371
2908.54792,0.07399
2906.61918,0.07415
2904.69043,0.07437
2902.76169,0.07462
2900.83294,0.07478
2898.90420,0.07479
2896.97545,0.07485
2895.04671,0.07530
2893.11796,0.07605
2891.18922,0.07676
2889.26047,0.07735
2887.33172,0.07777
2885.40298,0.07810
2883.47423,0.07847
2881.54549,0.07881
2879.61674,0.07908
2877.68800,0.07955
2875.75925,0.08017
2873.83051,0.08061
2871.90176,0.08105
2869.97302,0.08174
2868.04427,0.08245
2866.11553,0.08319
2864.18678,0.08401
2862.25804,0.08479
2860.32929,0.08560
2858.40055,0.08659
2856.47180,0.08767
2854.54305,0.08861
2852.61431,0.08941
2850.68556,0.09038
2848.75682,0.09168
2846.82807,0.09324
2844.89933,0.09487
2842.97058,0.09643
2841.04184,0.09793
2839.11309,0.09930
2837.18435,0.10073
2835.25560,0.10253
2833.32686,0.10476
2831.39811,0.10712
2829.46937,0.10927
2827.54062,0.11123
2825.61188,0.11328
2823.68313,0.11542
2821.75438,0.11739
2819.82564,0.11923
2817.89689,0.12116
2815.96815,0.12311
2814.03940,0.12489
2812.11066,0.12645
2810.18191,0.12790
2808.25317,0.12938
2806.32442,0.13084
2804.39568,0.13220
2802.46693,0.13357
2800.53819,0.13496
2798.60944,0.13622
2796.68070,0.13724
2794.75195,0.13812
2792.82320,0.13902
2790.89446,0.13994
2788.96571,0.14077
2787.03697,0.14143
2785.10822,0.14191
2783.17948,0.14240
2781.25073,0.14299
2779.32199,0.14364
2777.39324,0.14422
2775.46450,0.14463
2773.53575,0.14501
2771.60701,0.14541
2769.67826,0.14577
2767.74952,0.14611
2765.82077,0.14642
2763.89203,0.14667
2761.96328,0.14679
2760.03453,0.14689
2758.10579,0.14710
2756.17704,0.14727
2754.24830,0.14733
2752.31955,0.14743
2750.39081,0.14758
2748.46206,0.14776
2746.53332,0.14788
2744.60457,0.14799
2742.67583,0.14819
2740.74708,0.14828
2738.81834,0.14821
2736.88959,0.14836
2734.96085,0.14873
2733.03210,0.14902
2731.10336,0.14923
2729.17461,0.14955
2727.24586,0.15010
2725.31712,0.15077
2723.38837,0.15138
2721.45963,0.15186
2719.53088,0.15219
2717.60214,0.15250
2715.67339,0.15296
2713.74465,0.15371
2711.81590,0.15463
2709.88716,0.15547
2707.95841,0.15625
2706.02967,0.15705
2704.10092,0.15773
2702.17218,0.15840
2700.24343,0.15932
2698.31468,0.16032
2696.38594,0.16103
2694.45719,0.16165
2692.52845,0.16240
2690.59970,0.16311
2688.67096,0.16362
2686.74221,0.16413
2684.81347,0.16481
2682.88472,0.16565
2680.95598,0.16646
2679.02723,0.16726
2677.09849,0.16803
2675.16974,0.16856
2673.24100,0.16886
2671.31225,0.16915
2669.38351,0.16958
2667.45476,0.17012
2665.52601,0.17055
2663.59727,0.17088
2661.66852,0.17125
2659.73978,0.17179
2657.81103,0.17236
2655.88229,0.17270
2653.95354,0.17294
2652.02480,0.17342
2650.09605,0.17406
2648.16731,0.17463
2646.23856,0.17506
2644.30982,0.17536
2642.38107,0.17575
2640.45233,0.17642
2638.52358,0.17724
2636.59484,0.17806
2634.66609,0.17886
2632.73734,0.17943
2630.80860,0.17983
2628.87985,0.18042
2626.95111,0.18126
2625.02236,0.18209
2623.09362,0.18267
2621.16487,0.18313
2619.23613,0.18365
2617.30738,0.18409
2615.37864,0.18451
2613.44989,0.18499
2611.52115,0.18547
2609.59240,0.18601
2607.66366,0.18663
2605.73491,0.18715
2603.80616,0.18760
2601.87742,0.18800
2599.94867,0.18829
2598.01993,0.18863
2596.09118,0.18923
2594.16244,0.18992
2592.23369,0.19053
2590.30495,0.19109
2588.37620,0.19154
2586.44746,0.19197
2584.51871,0.19254
2582.58997,0.19314
2580.66122,0.19350
2578.73248,0.19371
2576.80373,0.19398
2574.87499,0.19425
2572.94624,0.19453
2571.01749,0.19490
2569.08875,0.19518
2567.16000,0.19529
2565.23126,0.19534
2563.30251,0.19535
2561.37377,0.19539
2559.44502,0.19549
2557.51628,0.19559
2555.58753,0.19568
2553.65879,0.19588
2551.73004,0.19614
2549.80130,0.19627
2547.87255,0.19623
2545.94381,0.19617
2544.01506,0.19625
2542.08631,0.19654
2540.15757,0.19694
2538.22882,0.19744
2536.30008,0.19812
2534.37133,0.19875
2532.44259,0.19913
2530.51384,0.19949
2528.58510,0.19997
2526.65635,0.20042
2524.72761,0.20086
2522.79886,0.20137
2520.87012,0.20202
2518.94137,0.20276
2517.01263,0.20331
2515.08388,0.20361
2513.15514,0.20408
2511.22639,0.20491
2509.29764,0.20586
2507.36890,0.20676
2505.44015,0.20773
2503.51141,0.20879
2501.58266,0.20975
2499.65392,0.21064
2497.72517,0.21160
2495.79643,0.21249
2493.86768,0.21327
2491.93894,0.21410
2490.01019,0.21495
2488.08145,0.21573
2486.15270,0.21642
2484.22396,0.21712
2482.29521,0.21787
2480.36647,0.21865
2478.43772,0.21947
2476.50897,0.22028
2474.58023,0.22113
2472.65148,0.22199
2470.72274,0.22268
2468.79399,0.22325
2466.86525,0.22394
2464.93650,0.22459
2463.00776,0.22504
2461.07901,0.22555
2459.15027,0.22635
2457.22152,0.22737
2455.29278,0.22837
2453.36403,0.22920
2451.43529,0.22991
2449.50654,0.23064
2447.57779,0.23154
2445.64905,0.23254
2443.72030,0.23354
2441.79156,0.23456
2439.86281,0.23551
2437.93407,0.23634
2436.00532,0.23712
2434.07658,0.23795
2432.14783,0.23890
2430.21909,0.23994
2428.29034,0.24098
2426.36160,0.24203
2424.43285,0.24317
2422.50411,0.24433
2420.57536,0.24547
2418.64662,0.24650
2416.71787,0.24740
2414.78912,0.24842
2412.86038,0.24961
2410.93163,0.25063
2409.00289,0.25138
2407.07414,0.25220
2405.14540,0.25330
2403.21665,0.25443
2401.28791,0.25533
2399.35916,0.25618
2397.43042,0.25719
2395.50167,0.25824
2393.57293,0.25922
2391.64418,0.26012
2389.71544,0.26095
2387.78669,0.26182
2385.85795,0.26271
2383.92920,0.26346
2382.00045,0.26419
2380.07171,0.26515
2378.14296,0.26620
2376.21422,0.26708
2374.28547,0.26794
2372.35673,0.26893
2370.42798,0.26978
2368.49924,0.27042
2366.57049,0.27102
2364.64175,0.27153
2362.71300,0.27198
2360.78426,0.27265
2358.85551,0.27341
2356.92677,0.27393
2354.99802,0.27433
2353.06927,0.27481
2351.14053,0.27546
2349.21178,0.27616
2347.28304,0.27683
2345.35429,0.27745
2343.42555,0.27799
2341.49680,0.27841
2339.56806,0.27873
2337.63931,0.27895
2335.71057,0.27924
2333.78182,0.27978
2331.85308,0.28041
2329.92433,0.28089
2327.99559,0.28118
2326.06684,0.28135
2324.13810,0.28155
2322.20935,0.28182
2320.28060,0.28189
2318.35186,0.28181
2316.42311,0.28198
2314.49437,0.28241
2312.56562,0.28274
2310.63688,0.28279
2308.70813,0.28261
2306.77939,0.28242
2304.85064,0.28235
2302.92190,0.28222
2300.99315,0.28199
2299.06441,0.28191
2297.13566,0.28197
2295.20692,0.28190
2293.27817,0.28180
2291.34943,0.28180
2289.42068,0.28170
2287.49193,0.28157
2285.56319,0.28150
2283.63444,0.28131
2281.70570,0.28097
2279.77695,0.28078
2277.84821,0.28081
2275.91946,0.28070
2273.99072,0.28017
2272.06197,0.27934
2270.13323,0.27857
2268.20448,0.27809
2266.27574,0.27772
2264.34699,0.27718
2262.41825,0.27648
2260.48950,0.27582
2258.56075,0.27540
2256.63201,0.27510
2254.70326,0.27470
2252.77452,0.27427
2250.84577,0.27397
2248.91703,0.27378
2246.98828,0.27366
2245.05954,0.27349
2243.13079,0.27318
2241.20205,0.27296
2239.27330,0.27290
2237.34456,0.27279
2235.41581,0.27254
2233.48707,0.27223
2231.55832,0.27189
2229.62958,0.27162
2227.70083,0.27149
2225.77208,0.27140
2223.84334,0.27134
2221.91459,0.27144
2219.98585,0.27169
2218.05710,0.27183
2216.12836,0.27177
2214.19961,0.27153
2212.27087,0.27124
2210.34212,0.27106
2208.41338,0.27090
2206.48463,0.27055
2204.55589,0.27013
2202.62714,0.26962
2200.69840,0.26890
2198.76965,0.26805
2196.84090,0.26730
2194.91216,0.26668
2192.98341,0.26592
2191.05467,0.26485
2189.12592,0.26366
2187.19718,0.26253
2185.26843,0.26144
2183.33969,0.26037
2181.41094,0.25928
2179.48220,0.25806
2177.55345,0.25682
2175.62471,0.25576
2173.69596,0.25485
2171.76722,0.25386
2169.83847,0.25274
2167.90973,0.25159
2165.98098,0.25057
2164.05223,0.24985
2162.12349,0.24934
2160.19474,0.24877
2158.26600,0.24808
2156.33725,0.24737
2154.40851,0.24678
2152.47976,0.24630
2150.55102,0.24587
2148.62227,0.24542
2146.69353,0.24488
2144.76478,0.24433
2142.83604,0.24389
2140.90729,0.24354
2138.97855,0.24318
2137.04980,0.24293
2135.12106,0.24292
2133.19231,0.24309
2131.26356,0.24338
2129.33482,0.24370
2127.40607,0.24391
2125.47733,0.24399
2123.54858,0.24416
2121.61984,0.24456
2119.69109,0.24494
2117.76235,0.24510
2115.83360,0.24532
2113.90486,0.24571
2111.97611,0.24609
2110.04737,0.24648
2108.11862,0.24691
2106.18988,0.24733
2104.26113,0.24759
2102.33238,0.24763
2100.40364,0.24769
2098.47489,0.24791
2096.54615,0.24814
2094.61740,0.24829
2092.68866,0.24848
2090.75991,0.24873
2088.83117,0.24889
2086.90242,0.24884
2084.97368,0.24870
2083.04493,0.24857
2081.11619,0.24836
2079.18744,0.24797
2077.25870,0.24750
2075.32995,0.24705
2073.40121,0.24656
2071.47246,0.24604
2069.54371,0.24557
2067.61497,0.24514
2065.68622,0.24480
2063.75748,0.24462
2061.82873,0.24443
2059.89999,0.24428
2057.97124,0.24436
2056.04250,0.24443
2054.11375,0.24435
2052.18501,0.24442
2050.25626,0.24474
2048.32752,0.24517
2046.39877,0.24567
2044.47003,0.24624
2042.54128,0.24679
2040.61254,0.24734
2038.68379,0.24808
2036.75504,0.24910
2034.82630,0.25016
2032.89755,0.25112
2030.96881,0.25215
2029.04006,0.25335
2027.11132,0.25461
2025.18257,0.25579
2023.25383,0.25688
2021.32508,0.25791
2019.39634,0.25891
2017.46759,0.25997
2015.53885,0.26104
2013.61010,0.26196
2011.68136,0.26272
2009.75261,0.26349
2007.82386,0.26432
2005.89512,0.26508
2003.96637,0.26571
2002.03763,0.26627
2000.10888,0.26679
1998.18014,0.26729
1996.25139,0.26779
1994.32265,0.26841
1992.39390,0.26915
1990.46516,0.26971
1988.53641,0.27011
1986.60767,0.27062
1984.67892,0.27114
1982.75018,0.27155
1980.82143,0.27203
1978.89269,0.27262
1976.96394,0.27307
1975.03519,0.27338
1973.10645,0.27366
1971.17770,0.27407
1969.24896,0.27467
1967.32021,0.27538
1965.39147,0.27619
1963.46272,0.27719
1961.53398,0.27818
1959.60523,0.27891
1957.67649,0.27952
1955.74774,0.28028
1953.81900,0.28136
1951.89025,0.28262
1949.96151,0.28379
1948.03276,0.28487
1946.10402,0.28580
1944.17527,0.28666
1942.24652,0.28770
1940.31778,0.28876
1938.38903,0.28954
1936.46029,0.29017
1934.53154,0.29082
1932.60280,0.29145
1930.67405,0.29203
1928.74531,0.29256
1926.81656,0.29293
1924.88782,0.29318
1922.95907,0.29340
1921.03033,0.29357
1919.10158,0.29369
1917.17284,0.29377
1915.24409,0.29379
1913.31534,0.29384
1911.38660,0.29380
1909.45785,0.29352
1907.52911,0.29320
1905.60036,0.29302
1903.67162,0.29288
1901.74287,0.29263
1899.81413,0.29218
1897.88538,0.29164
1895.95664,0.29122
1894.02789,0.29099
1892.09915,0.29087
1890.17040,0.29070
1888.24166,0.29040
1886.31291,0.29011
1884.38417,0.28994
1882.45542,0.28976
1880.52667,0.28967
1878.59793,0.28979
1876.66918,0.28985
1874.74044,0.28967
1872.81169,0.28944
1870.88295,0.28939
1868.95420,0.28938
1867.02546,0.28928
1865.09671,0.28911
1863.16797,0.28885
1861.23922,0.28848
1859.31048,0.28807
1857.38173,0.28774
1855.45299,0.28747
1853.52424,0.28717
1851.59549,0.28672
1849.66675,0.28601
1847.73800,0.28522
1845.80926,0.28452
1843.88051,0.28379
1841.95177,0.28289
1840.02302,0.28200
1838.09428,0.28119
1836.16553,0.28040
1834.23679,0.27955
1832.30804,0.27861
1830.37930,0.27754
1828.45055,0.27634
1826.52181,0.27517
1824.59306,0.27398
1822.66432,0.27266
1820.73557,0.27124
1818.80682,0.26970
1816.87808,0.26803
1814.94933,0.26633
1813.02059,0.26470
1811.09184,0.26295
1809.16310,0.26102
1807.23435,0.25908
1805.30561,0.25716
1803.37686,0.25509
1801.44812,0.25267
1799.51937,0.24990
1797.59063,0.24705
1795.66188,0.24433
1793.73314,0.24159
1791.80439,0.23839
1789.87565,0.23484
1787.94690,0.23118
1786.01815,0.22714
1784.08941,0.22268
1782.16066,0.21807
1780.23192,0.21314
1778.30317,0.20769
1776.37443,0.20192
1774.44568,0.19565
1772.51694,0.18830
1770.58819,0.18019
1768.65945,0.17200
1766.73070,0.16367
1764.80196,0.15551
1762.87321,0.14719
1760.94447,0.13851
1759.01572,0.13060
1757.08697,0.12352
1755.15823,0.11719
1753.22948,0.11185
1751.30074,0.10710
1749.37199,0.10292
1747.44325,0.09957
1745.51450,0.09686
1743.58576,0.09468
1741.65701,0.09291
1739.72827,0.09141
1737.79952,0.09045
1735.87078,0.09036
1733.94203,0.09109
1732.01329,0.09216
1730.08454,0.09331
1728.15580,0.09471
1726.22705,0.09645
1724.29830,0.09849
1722.36956,0.10071
1720.44081,0.10297
1718.51207,0.10546
1716.58332,0.10830
1714.65458,0.11114
1712.72583,0.11378
1710.79709,0.11625
1708.86834,0.11866
1706.93960,0.12107
1705.01085,0.12314
1703.08211,0.12451
1701.15336,0.12539
1699.22462,0.12585
1697.29587,0.12577
1695.36713,0.12529
1693.43838,0.12462
1691.50963,0.12383
1689.58089,0.12269
1687.65214,0.12119
1685.72340,0.11926
1683.79465,0.11642
1681.86591,0.11323
1679.93716,0.11036
1678.00842,0.10765
1676.07967,0.10471
1674.15093,0.10163
1672.22218,0.09913
1670.29344,0.09707
1668.36469,0.09498
1666.43595,0.09316
1664.50720,0.09168
1662.57845,0.09043
1660.64971,0.08957
1658.72096,0.08912
1656.79222,0.08901
1654.86347,0.08916
1652.93473,0.08936
1651.00598,0.08921
1649.07724,0.08882
1647.14849,0.08822
1645.21975,0.08753
1643.29100,0.08701
1641.36226,0.08664
1639.43351,0.08656
1637.50477,0.08686
1635.57602,0.08724
1633.64728,0.08756
1631.71853,0.08800
1629.78978,0.08837
1627.86104,0.08843
1625.93229,0.08836
1624.00355,0.08814
1622.07480,0.08764
1620.14606,0.08703
1618.21731,0.08632
1616.28857,0.08537
1614.35982,0.08440
1612.43108,0.08354
1610.50233,0.08260
1608.57359,0.08164
1606.64484,0.08098
1604.71610,0.08081
1602.78735,0.08099
1600.85861,0.08124
1598.92986,0.08156
1597.00111,0.08195
1595.07237,0.08224
1593.14362,0.08245
1591.21488,0.08301
1589.28613,0.08424
1587.35739,0.08602
1585.42864,0.08839
1583.49990,0.09145
1581.57115,0.09508
1579.64241,0.09902
1577.71366,0.10350
1575.78492,0.10884
1573.85617,0.11402
1571.92743,0.11871
1569.99868,0.12345
1568.06993,0.12764
1566.14119,0.13090
1564.21244,0.13367
1562.28370,0.13608
1560.35495,0.13825
1558.42621,0.13977
1556.49746,0.14008
1554.56872,0.13993
1552.63997,0.13959
1550.71123,0.13907
1548.78248,0.13840
1546.85374,0.13753
1544.92499,0.13651
1542.99625,0.13526
1541.06750,0.13312
1539.13876,0.12954
1537.21001,0.12578
1535.28126,0.12199
1533.35252,0.11709
1531.42377,0.11131
1529.49503,0.10528
1527.56628,0.09860
1525.63754,0.09142
1523.70879,0.08437
1521.78005,0.07691
1519.85130,0.06979
1517.92256,0.06469
1515.99381,0.06127
1514.06507,0.05916
1512.13632,0.05826
1510.20758,0.05828
1508.27883,0.05923
1506.35008,0.06129
1504.42134,0.06371
1502.49259,0.06601
1500.56385,0.06853
1498.63510,0.07133
1496.70636,0.07405
1494.77761,0.07620
1492.84887,0.07767
1490.92012,0.07857
1488.99138,0.07882
1487.06263,0.07844
1485.13389,0.07769
1483.20514,0.07663
1481.27640,0.07520
1479.34765,0.07353
1477.41891,0.07155
1475.49016,0.06914
1473.56141,0.06625
1471.63267,0.06333
1469.70392,0.06121
1467.77518,0.05996
1465.84643,0.05924
1463.91769,0.05874
1461.98894,0.05843
1460.06020,0.05841
1458.13145,0.05843
1456.20271,0.05809
1454.27396,0.05770
1452.34522,0.05771
1450.41647,0.05810
1448.48773,0.05881
1446.55898,0.05956
1444.63024,0.05998
1442.70149,0.05996
1440.77274,0.05958
1438.84400,0.05887
1436.91525,0.05775
1434.98651,0.05645
1433.05776,0.05556
1431.12902,0.05523
1429.20027,0.05527
1427.27153,0.05556
1425.34278,0.05608
1423.41404,0.05669
1421.48529,0.05742
1419.55655,0.05841
1417.62780,0.05960
1415.69906,0.06077
1413.77031,0.06180
1411.84156,0.06256
1409.91282,0.06295
1407.98407,0.06310
1406.05533,0.06327
1404.12658,0.06339
1402.19784,0.06333
1400.26909,0.06328
1398.34035,0.06322
1396.41160,0.06271
1394.48286,0.06170
1392.55411,0.06062
1390.62537,0.05963
1388.69662,0.05851
1386.76788,0.05719
1384.83913,0.05581
1382.91039,0.05454
1380.98164,0.05352
1379.05289,0.05304
1377.12415,0.05301
1375.19540,0.05314
1373.26666,0.05346
1371.33791,0.05392
1369.40917,0.05435
1367.48042,0.05478
1365.55168,0.05536
1363.62293,0.05605
1361.69419,0.05663
1359.76544,0.05705
1357.83670,0.05750
1355.90795,0.05798
1353.97921,0.05843
1352.05046,0.05884
1350.12172,0.05912
1348.19297,0.05905
1346.26422,0.05851
1344.33548,0.05785
1342.40673,0.05745
1340.47799,0.05725
1338.54924,0.05705
1336.62050,0.05693
1334.69175,0.05686
1332.76301,0.05675
1330.83426,0.05665
1328.90552,0.05652
1326.97677,0.05620
1325.04803,0.05573
1323.11928,0.05535
1321.19054,0.05521
1319.26179,0.05527
1317.33304,0.05553
1315.40430,0.05596
1313.47555,0.05632
1311.54681,0.05667
1309.61806,0.05718
1307.68932,0.05768
1305.76057,0.05799
1303.83183,0.05808
1301.90308,0.05789
1299.97434,0.05766
1298.04559,0.05747
1296.11685,0.05698
1294.18810,0.05612
1292.25936,0.05524
1290.33061,0.05452
1288.40187,0.05378
1286.47312,0.05287
1284.54437,0.05190
1282.61563,0.05121
1280.68688,0.05093
1278.75814,0.05082
1276.82939,0.05068
1274.90065,0.05047
1272.97190,0.05028
1271.04316,0.05028
1269.11441,0.05049
1267.18567,0.05086
1265.25692,0.05154
1263.32818,0.05241
1261.39943,0.05306
1259.47069,0.05336
1257.54194,0.05357
1255.61320,0.05388
1253.68445,0.05431
1251.75570,0.05463
1249.82696,0.05466
1247.89821,0.05449
1245.96947,0.05441
1244.04072,0.05452
1242.11198,0.05455
1240.18323,0.05431
1238.25449,0.05393
1236.32574,0.05371
1234.39700,0.05376
1232.46825,0.05386
1230.53951,0.05387
1228.61076,0.05385
1226.68202,0.05399
1224.75327,0.05429
1222.82452,0.05451
1220.89578,0.05466
1218.96703,0.05481
1217.03829,0.05483
1215.10954,0.05472
1213.18080,0.05463
1211.25205,0.05462
1209.32331,0.05460
1207.39456,0.05462
1205.46582,0.05470
1203.53707,0.05472
1201.60833,0.05473
1199.67958,0.05483
1197.75084,0.05498
1195.82209,0.05505
1193.89335,0.05485
1191.96460,0.05419
1190.03585,0.05324
1188.10711,0.05227
1186.17836,0.05128
1184.24962,0.05027
1182.32087,0.04929
1180.39213,0.04845
1178.46338,0.04768
1176.53464,0.04671
1174.60589,0.04575
1172.67715,0.04552
1170.74840,0.04615
1168.81966,0.04736
1166.89091,0.04895
1164.96217,0.05050
1163.03342,0.05152
1161.10467,0.05190
1159.17593,0.05189
1157.24718,0.05169
1155.31844,0.05151
1153.38969,0.05127
1151.46095,0.05062
1149.53220,0.04964
1147.60346,0.04873
1145.67471,0.04794
1143.74597,0.04704
1141.81722,0.04599
1139.88848,0.04510
1137.95973,0.04440
1136.03099,0.04371
1134.10224,0.04306
1132.17350,0.04270
1130.24475,0.04263
1128.31600,0.04268
1126.38726,0.04298
1124.45851,0.04362
1122.52977,0.04421
1120.60102,0.04456
1118.67228,0.04476
1116.74353,0.04509
1114.81479,0.04589
1112.88604,0.04704
1110.95730,0.04814
1109.02855,0.04905
1107.09981,0.04963
1105.17106,0.04988
1103.24232,0.05021
1101.31357,0.05059
1099.38483,0.05044
1097.45608,0.04986
1095.52733,0.04938
1093.59859,0.04899
1091.66984,0.04869
1089.74110,0.04877
1087.81235,0.04924
1085.88361,0.04982
1083.95486,0.05047
1082.02612,0.05143
1080.09737,0.05290
1078.16863,0.05462
1076.23988,0.05626
1074.31114,0.05788
1072.38239,0.05975
1070.45365,0.06192
1068.52490,0.06435
1066.59615,0.06714
1064.66741,0.07047
1062.73866,0.07401
1060.80992,0.07691
1058.88117,0.07868
1056.95243,0.07933
1055.02368,0.07913
1053.09494,0.07863
1051.16619,0.07798
1049.23745,0.07684
1047.30870,0.07529
1045.37996,0.07420
1043.45121,0.07417
1041.52247,0.07502
1039.59372,0.07652
1037.66498,0.07859
1035.73623,0.08078
1033.80748,0.08251
1031.87874,0.08371
1029.94999,0.08472
1028.02125,0.08556
1026.09250,0.08603
1024.16376,0.08619
1022.23501,0.08634
1020.30627,0.08669
1018.37752,0.08730
1016.44878,0.08792
1014.52003,0.08832
1012.59129,0.08868
1010.66254,0.08921
1008.73380,0.08972
1006.80505,0.08994
1004.87631,0.09015
1002.94756,0.09083
1001.01881,0.09190
999.09007,0.09293
997.16132,0.09381
995.23258,0.09463
993.30383,0.09563
991.37509,0.09699
989.44634,0.09870
987.51760,0.10069
985.58885,0.10307
983.66011,0.10581
981.73136,0.10854
979.80262,0.11081
977.87387,0.11241
975.94513,0.11342
974.01638,0.11413
972.08763,0.11452
970.15889,0.11445
968.23014,0.11440
966.30140,0.11491
964.37265,0.11585
962.44391,0.11690
960.51516,0.11809
958.58642,0.11930
956.65767,0.12041
954.72893,0.12158
952.80018,0.12278
950.87144,0.12376
948.94269,0.12455
947.01395,0.12526
945.08520,0.12580
943.15646,0.12618
941.22771,0.12653
939.29896,0.12707
937.37022,0.12792
935.44147,0.12902
933.51273,0.13028
931.58398,0.13143
929.65524,0.13211
927.72649,0.13247
925.79775,0.13273
923.86900,0.13290
921.94026,0.13284
920.01151,0.13217
918.08277,0.13076
916.15402,0.12902
914.22528,0.12725
912.29653,0.12529
910.36779,0.12299
908.43904,0.12051
906.51029,0.11807
904.58155,0.11571
902.65280,0.11364
900.72406,0.11222
898.79531,0.11147
896.86657,0.11150
894.93782,0.11234
893.00908,0.11354
891.08033,0.11486
889.15159,0.11640
887.22284,0.11780
885.29410,0.11866
883.36535,0.11911
881.43661,0.11947
879.50786,0.11947
877.57911,0.11889
875.65037,0.11821
873.72162,0.11796
871.79288,0.11794
869.86413,0.11767
867.93539,0.11730
866.00664,0.11723
864.07790,0.11742
862.14915,0.11783
860.22041,0.11850
858.29166,0.11920
856.36292,0.11981
854.43417,0.12068
852.50543,0.12204
850.57668,0.12376
848.64794,0.12549
846.71919,0.12688
844.79044,0.12784
842.86170,0.12824
840.93295,0.12792
839.00421,0.12700
837.07546,0.12563
835.14672,0.12404
833.21797,0.12255
831.28923,0.12133
829.36048,0.12029
827.43174,0.11900
825.50299,0.11729
823.57425,0.11538
821.64550,0.11359
819.71676,0.11210
817.78801,0.11064
815.85926,0.10887
813.93052,0.10721
812.00177,0.10624
810.07303,0.10608
808.14428,0.10649
806.21554,0.10715
804.28679,0.10788
802.35805,0.10860
800.42930,0.10924
798.50056,0.10973
796.57181,0.11012
794.64307,0.11063
792.71432,0.11094
790.78558,0.11081
788.85683,0.11050
786.92809,0.10982
784.99934,0.10870
783.07059,0.10765
781.14185,0.10671
779.21310,0.10558
777.28436,0.10440
775.35561,0.10355
773.42687,0.10305
771.49812,0.10242
769.56938,0.10148
767.64063,0.10064
765.71189,0.10028
763.78314,0.10025
761.85440,0.09995
759.92565,0.09894
757.99691,0.09772
756.06816,0.09696
754.13942,0.09641
752.21067,0.09570
750.28192,0.09523
748.35318,0.09507
746.42443,0.09488
744.49569,0.09479
742.56694,0.09482
740.63820,0.09469
738.70945,0.09444
736.78071,0.09408
734.85196,0.09351
732.92322,0.09266
730.99447,0.09162
729.06573,0.09081
727.13698,0.09029
725.20824,0.08956
723.27949,0.08852
721.35074,0.08761
719.42200,0.08707
717.49325,0.08682
715.56451,0.08666
713.63576,0.08641
711.70702,0.08585
709.77827,0.08487
707.84953,0.08378
705.92078,0.08314
703.99204,0.08282
702.06329,0.08243
700.13455,0.08212
698.20580,0.08195
696.27706,0.08174
694.34831,0.08121
692.41957,0.08018
690.49082,0.07926
688.56207,0.07906
686.63333,0.07894
684.70458,0.07822
682.77584,0.07727
680.84709,0.07646
678.91835,0.07584
676.98960,0.07546
675.06086,0.07523
673.13211,0.07487
671.20337,0.07459
669.27462,0.07481
667.34588,0.07506
665.41713,0.07517
663.48839,0.07567
661.55964,0.07637
659.63090,0.07691
657.70215,0.07710
655.77340,0.07705
653.84466,0.07705
651.91591,0.07707
649.98717,0.07718
648.05842,0.07741
646.12968,0.07757
644.20093,0.07761
642.27219,0.07746
640.34344,0.07695
638.41470,0.07580
636.48595,0.07418
634.55721,0.07335
632.62846,0.07385
630.69972,0.07461
628.77097,0.07502
626.84222,0.07511
624.91348,0.07461
622.98473,0.07367
621.05599,0.07355
619.12724,0.07497
617.19850,0.07631
615.26975,0.07665
613.34101,0.07696
611.41226,0.07765
609.48352,0.07837
607.55477,0.07828
605.62603,0.07775
603.69728,0.07853
601.76854,0.08032
599.83979,0.08120
