7497.01799,0.12120
7495.08925,0.12584
7493.16050,0.13020
7491.23176,0.13089
7489.30302,0.13136
7487.37428,0.13224
7485.44554,0.13412
7483.51680,0.13917
7481.58806,0.14195
7479.65931,0.13628
7477.73057,0.12581
7475.80183,0.11803
7473.87309,0.11464
7471.94435,0.11319
7470.01561,0.11577
7468.08686,0.12372
7466.15812,0.12996
7464.22938,0.12987
7462.30064,0.12700
7460.37190,0.12458
7458.44316,0.12298
7456.51442,0.12240
7454.58567,0.12038
7452.65693,0.11679
7450.72819,0.11838
7448.79945,0.12431
7446.87071,0.12557
7444.94197,0.12257
7443.01323,0.12092
7441.08448,0.12045
7439.15574,0.12126
7437.22700,0.12589
7435.29826,0.13091
7433.36952,0.13005
7431.44078,0.12632
7429.51204,0.12509
7427.58329,0.12344
7425.65455,0.12107
7423.72581,0.12084
7421.79707,0.11905
7419.86833,0.11505
7417.93959,0.11516
7416.01085,0.11958
7414.08210,0.12300
7412.15336,0.12471
7410.22462,0.12752
7408.29588,0.12969
7406.36714,0.12660
7404.43840,0.11862
7402.50966,0.11249
7400.58091,0.11156
7398.65217,0.11245
7396.72343,0.11348
7394.79469,0.11661
7392.86595,0.12086
7390.93721,0.12365
7389.00847,0.12481
7387.07972,0.12421
7385.15098,0.12113
7383.22224,0.11731
7381.29350,0.11649
7379.36476,0.12016
7377.43602,0.12291
7375.50728,0.11992
7373.57853,0.11479
7371.64979,0.11243
7369.72105,0.11418
7367.79231,0.11939
7365.86357,0.12350
7363.93483,0.12311
7362.00609,0.12174
7360.07734,0.12166
7358.14860,0.12178
7356.21986,0.12257
7354.29112,0.12287
7352.36238,0.12258
7350.43364,0.12370
7348.50490,0.12428
7346.57615,0.12222
7344.64741,0.12014
7342.71867,0.11901
7340.78993,0.11744
7338.86119,0.11506
7336.93245,0.11304
7335.00371,0.11411
7333.07496,0.11684
7331.14622,0.11598
7329.21748,0.11090
7327.28874,0.10341
7325.36000,0.09939
7323.43126,0.10183
7321.50252,0.10395
7319.57377,0.10247
7317.64503,0.10061
7315.71629,0.09908
7313.78755,0.09904
7311.85881,0.10207
7309.93007,0.10619
7308.00133,0.10773
7306.07258,0.10773
7304.14384,0.10736
7302.21510,0.10530
7300.28636,0.10308
7298.35762,0.10048
7296.42888,0.09700
7294.50014,0.09789
7292.57139,0.10075
7290.64265,0.09731
7288.71391,0.09203
7286.78517,0.09336
7284.85643,0.09784
7282.92769,0.09933
7280.99894,0.09719
7279.07020,0.09381
7277.14146,0.09295
7275.21272,0.09436
7273.28398,0.09302
7271.35524,0.08959
7269.42650,0.08765
7267.49775,0.08688
7265.56901,0.08777
7263.64027,0.08988
7261.71153,0.09125
7259.78279,0.09270
7257.85405,0.09390
7255.92531,0.09479
7253.99656,0.09819
7252.06782,0.10297
7250.13908,0.10351
7248.21034,0.09935
7246.28160,0.09396
7244.35286,0.08824
7242.42412,0.08402
7240.49537,0.08279
7238.56663,0.07993
7236.63789,0.07650
7234.70915,0.07837
7232.78041,0.08368
7230.85167,0.08720
7228.92293,0.08906
7226.99418,0.09169
7225.06544,0.09528
7223.13670,0.09545
7221.20796,0.09011
7219.27922,0.08494
7217.35048,0.08421
7215.42174,0.08474
7213.49299,0.08547
7211.56425,0.08757
7209.63551,0.08718
7207.70677,0.08201
7205.77803,0.07805
7203.84929,0.08072
7201.92055,0.08513
7199.99180,0.08566
7198.06306,0.08504
7196.13432,0.08424
7194.20558,0.08159
7192.27684,0.08160
7190.34810,0.08721
7188.41936,0.09158
7186.49061,0.08967
7184.56187,0.08569
7182.63313,0.08424
7180.70439,0.08531
7178.77565,0.08639
7176.84691,0.08545
7174.91817,0.08380
7172.98942,0.08362
7171.06068,0.08491
7169.13194,0.08518
7167.20320,0.08289
7165.27446,0.08148
7163.34572,0.08621
7161.41698,0.09432
7159.48823,0.09699
7157.55949,0.09283
7155.63075,0.08703
7153.70201,0.08216
7151.77327,0.08004
7149.84453,0.08134
7147.91579,0.08370
7145.98704,0.08523
7144.05830,0.08624
7142.12956,0.08693
7140.20082,0.08659
7138.27208,0.08467
7136.34334,0.08313
7134.41460,0.08451
7132.48585,0.08719
7130.55711,0.08802
7128.62837,0.08647
7126.69963,0.08348
7124.77089,0.08152
7122.84215,0.08185
7120.91341,0.08202
7118.98466,0.08119
7117.05592,0.08184
7115.12718,0.08147
7113.19844,0.07795
7111.26970,0.07733
7109.34096,0.08113
7107.41222,0.08291
7105.48347,0.08194
7103.55473,0.08069
7101.62599,0.07814
7099.69725,0.07475
7097.76851,0.07384
7095.83977,0.07605
7093.91103,0.07802
7091.98228,0.07742
7090.05354,0.07634
7088.12480,0.07751
7086.19606,0.07980
7084.26732,0.08013
7082.33858,0.07972
7080.40983,0.08083
7078.48109,0.08103
7076.55235,0.07888
7074.62361,0.07690
7072.69487,0.07720
7070.76613,0.07950
7068.83739,0.07996
7066.90864,0.07740
7064.97990,0.07627
7063.05116,0.07692
7061.12242,0.07581
7059.19368,0.07350
7057.26494,0.07185
7055.33620,0.07204
7053.40745,0.07424
7051.47871,0.07541
7049.54997,0.07341
7047.62123,0.07122
7045.69249,0.07140
7043.76375,0.07296
7041.83501,0.07460
7039.90626,0.07564
7037.97752,0.07620
7036.04878,0.07707
7034.12004,0.07834
7032.19130,0.08186
7030.26256,0.08735
7028.33382,0.08893
7026.40507,0.08525
7024.47633,0.08252
7022.54759,0.08345
7020.61885,0.08495
7018.69011,0.08552
7016.76137,0.08557
7014.83263,0.08397
7012.90388,0.08216
7010.97514,0.08282
7009.04640,0.08415
7007.11766,0.08360
7005.18892,0.08168
7003.26018,0.08052
7001.33144,0.08177
6999.40269,0.08296
6997.47395,0.08205
6995.54521,0.08125
6993.61647,0.08144
6991.68773,0.08074
6989.75899,0.08015
6987.83025,0.08073
6985.90150,0.08065
6983.97276,0.07937
6982.04402,0.07884
6980.11528,0.08006
6978.18654,0.08002
6976.25780,0.07690
6974.32906,0.07459
6972.40031,0.07551
6970.47157,0.07956
6968.54283,0.08461
6966.61409,0.08491
6964.68535,0.08032
6962.75661,0.07745
6960.82787,0.07854
6958.89912,0.08036
6956.97038,0.08094
6955.04164,0.08258
6953.11290,0.08364
6951.18416,0.08088
6949.25542,0.07910
6947.32668,0.08133
6945.39793,0.08389
6943.46919,0.08472
6941.54045,0.08301
6939.61171,0.08044
6937.68297,0.07985
6935.75423,0.08026
6933.82549,0.08151
6931.89674,0.08392
6929.96800,0.08517
6928.03926,0.08464
6926.11052,0.08381
6924.18178,0.08453
6922.25304,0.08647
6920.32430,0.08664
6918.39555,0.08362
6916.46681,0.07923
6914.53807,0.07659
6912.60933,0.07702
6910.68059,0.07934
6908.75185,0.08145
6906.82311,0.08182
6904.89436,0.08200
6902.96562,0.08258
6901.03688,0.08296
6899.10814,0.08315
6897.17940,0.08214
6895.25066,0.08158
6893.32192,0.08311
6891.39317,0.08468
6889.46443,0.08622
6887.53569,0.08863
6885.60695,0.09021
6883.67821,0.08855
6881.74947,0.08434
6879.82072,0.08063
6877.89198,0.07912
6875.96324,0.08001
6874.03450,0.08191
6872.10576,0.08369
6870.17702,0.08588
6868.24828,0.08710
6866.31953,0.08611
6864.39079,0.08567
6862.46205,0.08757
6860.53331,0.08839
6858.60457,0.08567
6856.67583,0.08289
6854.74709,0.08315
6852.81834,0.08343
6850.88960,0.08107
6848.96086,0.07976
6847.03212,0.08165
6845.10338,0.08333
6843.17464,0.08364
6841.24590,0.08376
6839.31715,0.08348
6837.38841,0.08332
6835.45967,0.08350
6833.53093,0.08230
6831.60219,0.07999
6829.67345,0.07828
6827.74471,0.07761
6825.81596,0.07884
6823.88722,0.08208
6821.95848,0.08504
6820.02974,0.08532
6818.10100,0.08202
6816.17226,0.07729
6814.24352,0.07472
6812.31477,0.07574
6810.38603,0.07954
6808.45729,0.08315
6806.52855,0.08269
6804.59981,0.08008
6802.67107,0.07982
6800.74233,0.08116
6798.81358,0.08196
6796.88484,0.08260
6794.95610,0.08287
6793.02736,0.08128
6791.09862,0.07834
6789.16988,0.07606
6787.24114,0.07509
6785.31239,0.07602
6783.38365,0.07871
6781.45491,0.08067
6779.52617,0.07953
6777.59743,0.07704
6775.66869,0.07690
6773.73995,0.07886
6771.81120,0.08032
6769.88246,0.08072
6767.95372,0.07894
6766.02498,0.07408
6764.09624,0.06976
6762.16750,0.07005
6760.23876,0.07338
6758.31001,0.07518
6756.38127,0.07437
6754.45253,0.07444
6752.52379,0.07622
6750.59505,0.07658
6748.66631,0.07567
6746.73757,0.07544
6744.80882,0.07566
6742.88008,0.07576
6740.95134,0.07566
6739.02260,0.07570
6737.09386,0.07604
6735.16512,0.07500
6733.23638,0.07323
6731.30763,0.07557
6729.37889,0.08041
6727.45015,0.08101
6725.52141,0.07801
6723.59267,0.07626
6721.66393,0.07687
6719.73519,0.07709
6717.80644,0.07471
6715.87770,0.07234
6713.94896,0.07301
6712.02022,0.07530
6710.09148,0.07597
6708.16274,0.07414
6706.23400,0.07163
6704.30525,0.07115
6702.37651,0.07218
6700.44777,0.07165
6698.51903,0.07044
6696.59029,0.07110
6694.66155,0.07281
6692.73281,0.07373
6690.80406,0.07394
6688.87532,0.07435
6686.94658,0.07429
6685.01784,0.07300
6683.08910,0.07199
6681.16036,0.07309
6679.23161,0.07383
6677.30287,0.07139
6675.37413,0.06946
6673.44539,0.07034
6671.51665,0.06985
6669.58791,0.06753
6667.65917,0.06819
6665.73042,0.07217
6663.80168,0.07377
6661.87294,0.07203
6659.94420,0.07141
6658.01546,0.07208
6656.08672,0.07134
6654.15798,0.06930
6652.22923,0.06835
6650.30049,0.06848
6648.37175,0.06694
6646.44301,0.06517
6644.51427,0.06641
6642.58553,0.06984
6640.65679,0.07231
6638.72804,0.07230
6636.79930,0.07144
6634.87056,0.07054
6632.94182,0.06866
6631.01308,0.06596
6629.08434,0.06352
6627.15560,0.06358
6625.22685,0.06518
6623.29811,0.06476
6621.36937,0.06323
6619.44063,0.06288
6617.51189,0.06251
6615.58315,0.06265
6613.65441,0.06437
6611.72566,0.06520
6609.79692,0.06472
6607.86818,0.06516
6605.93944,0.06635
6604.01070,0.06685
6602.08196,0.06679
6600.15322,0.06700
6598.22447,0.06669
6596.29573,0.06596
6594.36699,0.06664
6592.43825,0.06761
6590.50951,0.06697
6588.58077,0.06637
6586.65203,0.06665
6584.72328,0.06653
6582.79454,0.06631
6580.86580,0.06664
6578.93706,0.06691
6577.00832,0.06683
6575.07958,0.06697
6573.15084,0.06761
6571.22209,0.06802
6569.29335,0.06857
6567.36461,0.06903
6565.43587,0.06702
6563.50713,0.06349
6561.57839,0.06230
6559.64965,0.06321
6557.72090,0.06324
6555.79216,0.06187
6553.86342,0.06047
6551.93468,0.05974
6550.00594,0.06019
6548.07720,0.06128
6546.14846,0.06145
6544.21971,0.06107
6542.29097,0.06114
6540.36223,0.06075
6538.43349,0.05937
6536.50475,0.05863
6534.57601,0.06021
6532.64727,0.06367
6530.71852,0.06752
6528.78978,0.06987
6526.86104,0.06873
6524.93230,0.06542
6523.00356,0.06386
6521.07482,0.06431
6519.14608,0.06371
6517.21733,0.06118
6515.28859,0.05880
6513.35985,0.05852
6511.43111,0.06037
6509.50237,0.06222
6507.57363,0.06230
6505.64489,0.06208
6503.71614,0.06351
6501.78740,0.06553
6499.85866,0.06586
6497.92992,0.06388
6496.00118,0.06156
6494.07244,0.06042
6492.14370,0.06018
6490.21495,0.06075
6488.28621,0.06147
6486.35747,0.06066
6484.42873,0.05942
6482.49999,0.06045
6480.57125,0.06295
6478.64250,0.06371
6476.71376,0.06346
6474.78502,0.06407
6472.85628,0.06333
6470.92754,0.06076
6468.99880,0.06009
6467.07006,0.06142
6465.14131,0.06248
6463.21257,0.06375
6461.28383,0.06530
6459.35509,0.06594
6457.42635,0.06541
6455.49761,0.06466
6453.56887,0.06500
6451.64012,0.06584
6449.71138,0.06655
6447.78264,0.06755
6445.85390,0.06820
6443.92516,0.06951
6441.99642,0.07325
6440.06768,0.07612
6438.13893,0.07454
6436.21019,0.07147
6434.28145,0.07038
6432.35271,0.06984
6430.42397,0.06980
6428.49523,0.07187
6426.56649,0.07298
6424.63774,0.07202
6422.70900,0.07296
6420.78026,0.07502
6418.85152,0.07477
6416.92278,0.07330
6414.99404,0.07203
6413.06530,0.07062
6411.13655,0.07019
6409.20781,0.07137
6407.27907,0.07236
6405.35033,0.07254
6403.42159,0.07367
6401.49285,0.07574
6399.56411,0.07689
6397.63536,0.07590
6395.70662,0.07379
6393.77788,0.07233
6391.84914,0.07141
6389.92040,0.07060
6387.99166,0.07029
6386.06292,0.07054
6384.13417,0.07121
6382.20543,0.07113
6380.27669,0.06960
6378.34795,0.06853
6376.41921,0.06849
6374.49047,0.06767
6372.56173,0.06664
6370.63298,0.06672
6368.70424,0.06660
6366.77550,0.06584
6364.84676,0.06560
6362.91802,0.06477
6360.98928,0.06334
6359.06054,0.06314
6357.13179,0.06368
6355.20305,0.06456
6353.27431,0.06547
6351.34557,0.06496
6349.41683,0.06380
6347.48809,0.06306
6345.55935,0.06215
6343.63060,0.06161
6341.70186,0.06303
6339.77312,0.06580
6337.84438,0.06760
6335.91564,0.06774
6333.98690,0.06732
6332.05816,0.06694
6330.12941,0.06586
6328.20067,0.06425
6326.27193,0.06439
6324.34319,0.06604
6322.41445,0.06696
6320.48571,0.06763
6318.55697,0.06889
6316.62822,0.07054
6314.69948,0.07213
6312.77074,0.07264
6310.84200,0.07255
6308.91326,0.07283
6306.98452,0.07254
6305.05578,0.07138
6303.12703,0.07125
6301.19829,0.07242
6299.26955,0.07219
6297.34081,0.06983
6295.41207,0.06869
6293.48333,0.07039
6291.55459,0.07183
6289.62584,0.07159
6287.69710,0.07198
6285.76836,0.07256
6283.83962,0.07184
6281.91088,0.07079
6279.98214,0.07009
6278.05339,0.07028
6276.12465,0.07109
6274.19591,0.07093
6272.26717,0.07080
6270.33843,0.07213
6268.40969,0.07258
6266.48095,0.07036
6264.55220,0.06803
6262.62346,0.06815
6260.69472,0.07008
6258.76598,0.07182
6256.83724,0.07239
6254.90850,0.07181
6252.97976,0.07002
6251.05101,0.06784
6249.12227,0.06701
6247.19353,0.06750
6245.26479,0.06837
6243.33605,0.06886
6241.40731,0.06817
6239.47857,0.06759
6237.54982,0.06864
6235.62108,0.06984
6233.69234,0.07008
6231.76360,0.06949
6229.83486,0.06784
6227.90612,0.06605
6225.97738,0.06611
6224.04863,0.06802
6222.11989,0.07033
6220.19115,0.07243
6218.26241,0.07367
6216.33367,0.07258
6214.40493,0.06960
6212.47619,0.06719
6210.54744,0.06698
6208.61870,0.06866
6206.68996,0.07064
6204.76122,0.07136
6202.83248,0.07127
6200.90374,0.07184
6198.97500,0.07315
6197.04625,0.07392
6195.11751,0.07376
6193.18877,0.07331
6191.26003,0.07258
6189.33129,0.07146
6187.40255,0.07118
6185.47381,0.07164
6183.54506,0.07141
6181.61632,0.07173
6179.68758,0.07399
6177.75884,0.07671
6175.83010,0.07892
6173.90136,0.07990
6171.97262,0.07892
6170.04387,0.07694
6168.11513,0.07575
6166.18639,0.07573
6164.25765,0.07596
6162.32891,0.07704
6160.40017,0.07918
6158.47143,0.08059
6156.54268,0.08106
6154.61394,0.08160
6152.68520,0.08253
6150.75646,0.08313
6148.82772,0.08308
6146.89898,0.08280
6144.97024,0.08232
6143.04149,0.08239
6141.11275,0.08352
6139.18401,0.08430
6137.25527,0.08394
6135.32653,0.08372
6133.39779,0.08529
6131.46905,0.08741
6129.54030,0.08706
6127.61156,0.08453
6125.68282,0.08285
6123.75408,0.08262
6121.82534,0.08272
6119.89660,0.08313
6117.96786,0.08434
6116.03911,0.08563
6114.11037,0.08584
6112.18163,0.08537
6110.25289,0.08516
6108.32415,0.08508
6106.39541,0.08547
6104.46667,0.08676
6102.53792,0.08744
6100.60918,0.08653
6098.68044,0.08530
6096.75170,0.08478
6094.82296,0.08537
6092.89422,0.08665
6090.96548,0.08724
6089.03673,0.08705
6087.10799,0.08673
6085.17925,0.08658
6083.25051,0.08644
6081.32177,0.08610
6079.39303,0.08633
6077.46428,0.08712
6075.53554,0.08739
6073.60680,0.08713
6071.67806,0.08679
6069.74932,0.08616
6067.82058,0.08481
6065.89184,0.08334
6063.96309,0.08312
6062.03435,0.08457
6060.10561,0.08682
6058.17687,0.08825
6056.24813,0.08773
6054.31939,0.08599
6052.39065,0.08449
6050.46190,0.08347
6048.53316,0.08302
6046.60442,0.08402
6044.67568,0.08578
6042.74694,0.08615
6040.81820,0.08544
6038.88946,0.08527
6036.96071,0.08571
6035.03197,0.08613
6033.10323,0.08586
6031.17449,0.08482
6029.24575,0.08433
6027.31701,0.08519
6025.38827,0.08638
6023.45952,0.08624
6021.53078,0.08507
6019.60204,0.08477
6017.67330,0.08475
6015.74456,0.08366
6013.81582,0.08316
6011.88708,0.08404
6009.95833,0.08449
6008.02959,0.08363
6006.10085,0.08231
6004.17211,0.08196
6002.24337,0.08256
6000.31463,0.08245
5998.38589,0.08150
5996.45714,0.08067
5994.52840,0.07981
5992.59966,0.07937
5990.67092,0.07987
5988.74218,0.08070
5986.81344,0.08148
5984.88470,0.08180
5982.95595,0.08142
5981.02721,0.08076
5979.09847,0.07989
5977.16973,0.07926
5975.24099,0.07934
5973.31225,0.07947
5971.38351,0.07950
5969.45476,0.07962
5967.52602,0.07934
5965.59728,0.07889
5963.66854,0.07876
5961.73980,0.07813
5959.81106,0.07695
5957.88232,0.07595
5955.95357,0.07501
5954.02483,0.07466
5952.09609,0.07561
5950.16735,0.07662
5948.23861,0.07642
5946.30987,0.07537
5944.38113,0.07429
5942.45238,0.07343
5940.52364,0.07306
5938.59490,0.07319
5936.66616,0.07278
5934.73742,0.07180
5932.80868,0.07176
5930.87994,0.07219
5928.95119,0.07131
5927.02245,0.06909
5925.09371,0.06721
5923.16497,0.06675
5921.23623,0.06648
5919.30749,0.06518
5917.37875,0.06358
5915.45000,0.06250
5913.52126,0.06207
5911.59252,0.06239
5909.66378,0.06339
5907.73504,0.06431
5905.80630,0.06446
5903.87756,0.06393
5901.94881,0.06322
5900.02007,0.06262
5898.09133,0.06200
5896.16259,0.06106
5894.23385,0.06023
5892.30511,0.06021
5890.37637,0.06058
5888.44762,0.06052
5886.51888,0.05949
5884.59014,0.05761
5882.66140,0.05619
5880.73266,0.05584
5878.80392,0.05611
5876.87517,0.05655
5874.94643,0.05665
5873.01769,0.05643
5871.08895,0.05605
5869.16021,0.05553
5867.23147,0.05561
5865.30273,0.05618
5863.37398,0.05609
5861.44524,0.05545
5859.51650,0.05513
5857.58776,0.05513
5855.65902,0.05450
5853.73028,0.05309
5851.80154,0.05248
5849.87279,0.05324
5847.94405,0.05440
5846.01531,0.05531
5844.08657,0.05595
5842.15783,0.05650
5840.22909,0.05725
5838.30035,0.05783
5836.37160,0.05752
5834.44286,0.05630
5832.51412,0.05477
5830.58538,0.05401
5828.65664,0.05498
5826.72790,0.05624
5824.79916,0.05594
5822.87041,0.05474
5820.94167,0.05387
5819.01293,0.05424
5817.08419,0.05578
5815.15545,0.05646
5813.22671,0.05564
5811.29797,0.05449
5809.36922,0.05358
5807.44048,0.05354
5805.51174,0.05431
5803.58300,0.05451
5801.65426,0.05409
5799.72552,0.05479
5797.79678,0.05682
5795.86803,0.05764
5793.93929,0.05631
5792.01055,0.05471
5790.08181,0.05399
5788.15307,0.05383
5786.22433,0.05415
5784.29559,0.05492
5782.36684,0.05544
5780.43810,0.05556
5778.50936,0.05583
5776.58062,0.05594
5774.65188,0.05532
5772.72314,0.05414
5770.79440,0.05350
5768.86565,0.05404
5766.93691,0.05484
5765.00817,0.05542
5763.07943,0.05615
5761.15069,0.05682
5759.22195,0.05706
5757.29321,0.05672
5755.36446,0.05581
5753.43572,0.05512
5751.50698,0.05543
5749.57824,0.05629
5747.64950,0.05677
5745.72076,0.05645
5743.79202,0.05575
5741.86327,0.05584
5739.93453,0.05708
5738.00579,0.05776
5736.07705,0.05702
5734.14831,0.05607
5732.21957,0.05532
5730.29083,0.05441
5728.36208,0.05349
5726.43334,0.05305
5724.50460,0.05339
5722.57586,0.05394
5720.64712,0.05458
5718.71838,0.05548
5716.78964,0.05604
5714.86089,0.05603
5712.93215,0.05589
5711.00341,0.05564
5709.07467,0.05480
5707.14593,0.05372
5705.21719,0.05348
5703.28845,0.05383
5701.35970,0.05361
5699.43096,0.05298
5697.50222,0.05282
5695.57348,0.05343
5693.64474,0.05471
5691.71600,0.05607
5689.78726,0.05669
5687.85851,0.05606
5685.92977,0.05505
5684.00103,0.05529
5682.07229,0.05654
5680.14355,0.05754
5678.21481,0.05829
5676.28606,0.05860
5674.35732,0.05812
5672.42858,0.05786
5670.49984,0.05799
5668.57110,0.05755
5666.64236,0.05711
5664.71362,0.05746
5662.78487,0.05807
5660.85613,0.05855
5658.92739,0.05838
5656.99865,0.05740
5655.06991,0.05679
5653.14117,0.05675
5651.21243,0.05643
5649.28368,0.05604
5647.35494,0.05630
5645.42620,0.05695
5643.49746,0.05706
5641.56872,0.05658
5639.63998,0.05658
5637.71124,0.05743
5635.78249,0.05822
5633.85375,0.05838
5631.92501,0.05824
5629.99627,0.05801
5628.06753,0.05789
5626.13879,0.05809
5624.21005,0.05848
5622.28130,0.05897
5620.35256,0.05927
5618.42382,0.05945
5616.49508,0.05987
5614.56634,0.05981
5612.63760,0.05881
5610.70886,0.05763
5608.78011,0.05683
5606.85137,0.05670
5604.92263,0.05777
5602.99389,0.05929
5601.06515,0.05960
5599.13641,0.05919
5597.20767,0.05948
5595.27892,0.06031
5593.35018,0.06081
5591.42144,0.06074
5589.49270,0.06023
5587.56396,0.05937
5585.63522,0.05896
5583.70648,0.05929
5581.77773,0.05927
5579.84899,0.05875
5577.92025,0.05845
5575.99151,0.05847
5574.06277,0.05885
5572.13403,0.05931
5570.20529,0.05940
5568.27654,0.05932
5566.34780,0.05945
5564.41906,0.05996
5562.49032,0.06042
5560.56158,0.06033
5558.63284,0.05988
5556.70410,0.05930
5554.77535,0.05927
5552.84661,0.06029
5550.91787,0.06140
5548.98913,0.06170
5547.06039,0.06090
5545.13165,0.05958
5543.20291,0.05908
5541.27416,0.05940
5539.34542,0.05981
5537.41668,0.06032
5535.48794,0.06077
5533.55920,0.06094
5531.63046,0.06116
5529.70172,0.06155
5527.77297,0.06196
5525.84423,0.06232
5523.91549,0.06232
5521.98675,0.06207
5520.05801,0.06171
5518.12927,0.06099
5516.20053,0.06033
5514.27178,0.06027
5512.34304,0.06064
5510.41430,0.06123
5508.48556,0.06211
5506.55682,0.06286
5504.62808,0.06305
5502.69934,0.06300
5500.77059,0.06273
5498.84185,0.06185
5496.91311,0.06052
5494.98437,0.05932
5493.05563,0.05926
5491.12689,0.06062
5489.19815,0.06198
5487.26940,0.06224
5485.34066,0.06223
5483.41192,0.06215
5481.48318,0.06147
5479.55444,0.06118
5477.62570,0.06122
5475.69695,0.06073
5473.76821,0.06078
5471.83947,0.06146
5469.91073,0.06178
5467.98199,0.06205
5466.05325,0.06280
5464.12451,0.06313
5462.19576,0.06219
5460.26702,0.06131
5458.33828,0.06185
5456.40954,0.06292
5454.48080,0.06319
5452.55206,0.06259
5450.62332,0.06218
5448.69457,0.06244
5446.76583,0.06278
5444.83709,0.06286
5442.90835,0.06309
5440.97961,0.06365
5439.05087,0.06427
5437.12213,0.06440
5435.19338,0.06387
5433.26464,0.06363
5431.33590,0.06392
5429.40716,0.06369
5427.47842,0.06305
5425.54968,0.06234
5423.62094,0.06133
5421.69219,0.06046
5419.76345,0.06026
5417.83471,0.06068
5415.90597,0.06123
5413.97723,0.06134
5412.04849,0.06142
5410.11975,0.06226
5408.19100,0.06342
5406.26226,0.06404
5404.33352,0.06430
5402.40478,0.06469
5400.47604,0.06476
5398.54730,0.06402
5396.61856,0.06367
5394.68981,0.06441
5392.76107,0.06497
5390.83233,0.06509
5388.90359,0.06537
5386.97485,0.06559
5385.04611,0.06581
5383.11737,0.06612
5381.18862,0.06602
5379.25988,0.06563
5377.33114,0.06530
5375.40240,0.06490
5373.47366,0.06454
5371.54492,0.06469
5369.61618,0.06542
5367.68743,0.06623
5365.75869,0.06659
5363.82995,0.06644
5361.90121,0.06599
5359.97247,0.06578
5358.04373,0.06580
5356.11499,0.06529
5354.18624,0.06444
5352.25750,0.06425
5350.32876,0.06480
5348.40002,0.06546
5346.47128,0.06602
5344.54254,0.06644
5342.61380,0.06643
5340.68505,0.06612
5338.75631,0.06606
5336.82757,0.06606
5334.89883,0.06581
5332.97009,0.06578
5331.04135,0.06594
5329.11261,0.06590
5327.18386,0.06590
5325.25512,0.06596
5323.32638,0.06582
5321.39764,0.06574
5319.46890,0.06596
5317.54016,0.06590
5315.61142,0.06525
5313.68267,0.06467
5311.75393,0.06442
5309.82519,0.06432
5307.89645,0.06450
5305.96771,0.06479
5304.03897,0.06481
5302.11023,0.06439
5300.18148,0.06364
5298.25274,0.06310
5296.32400,0.06300
5294.39526,0.06321
5292.46652,0.06350
5290.53778,0.06284
5288.60904,0.06096
5286.68029,0.05989
5284.75155,0.06088
5282.82281,0.06223
5280.89407,0.06241
5278.96533,0.06209
5277.03659,0.06203
5275.10784,0.06202
5273.17910,0.06197
5271.25036,0.06198
5269.32162,0.06176
5267.39288,0.06107
5265.46414,0.06054
5263.53540,0.06059
5261.60665,0.06066
5259.67791,0.06046
5257.74917,0.06018
5255.82043,0.05975
5253.89169,0.05917
5251.96295,0.05878
5250.03421,0.05885
5248.10546,0.05923
5246.17672,0.05965
5244.24798,0.05995
5242.31924,0.06033
5240.39050,0.06086
5238.46176,0.06069
5236.53302,0.05939
5234.60427,0.05819
5232.67553,0.05811
5230.74679,0.05836
5228.81805,0.05796
5226.88931,0.05748
5224.96057,0.05774
5223.03183,0.05813
5221.10308,0.05792
5219.17434,0.05760
5217.24560,0.05755
5215.31686,0.05735
5213.38812,0.05684
5211.45938,0.05660
5209.53064,0.05678
5207.60189,0.05695
5205.67315,0.05713
5203.74441,0.05751
5201.81567,0.05796
5199.88693,0.05820
5197.95819,0.05799
5196.02945,0.05761
5194.10070,0.05783
5192.17196,0.05834
5190.24322,0.05810
5188.31448,0.05740
5186.38574,0.05702
5184.45700,0.05697
5182.52826,0.05734
5180.59951,0.05777
5178.67077,0.05779
5176.74203,0.05763
5174.81329,0.05746
5172.88455,0.05743
5170.95581,0.05769
5169.02707,0.05786
5167.09832,0.05785
5165.16958,0.05815
5163.24084,0.05860
5161.31210,0.05831
5159.38336,0.05720
5157.45462,0.05610
5155.52588,0.05547
5153.59713,0.05551
5151.66839,0.05612
5149.73965,0.05654
5147.81091,0.05657
5145.88217,0.05659
5143.95343,0.05676
5142.02469,0.05731
5140.09594,0.05780
5138.16720,0.05734
5136.23846,0.05622
5134.30972,0.05551
5132.38098,0.05572
5130.45224,0.05619
5128.52350,0.05594
5126.59475,0.05519
5124.66601,0.05517
5122.73727,0.05607
5120.80853,0.05690
5118.87979,0.05708
5116.95105,0.05683
5115.02231,0.05681
5113.09356,0.05681
5111.16482,0.05610
5109.23608,0.05553
5107.30734,0.05600
5105.37860,0.05656
5103.44986,0.05672
5101.52112,0.05719
5099.59237,0.05774
5097.66363,0.05782
5095.73489,0.05806
5093.80615,0.05857
5091.87741,0.05856
5089.94867,0.05795
5088.01993,0.05721
5086.09118,0.05652
5084.16244,0.05634
5082.23370,0.05685
5080.30496,0.05727
5078.37622,0.05691
5076.44748,0.05645
5074.51873,0.05668
5072.58999,0.05737
5070.66125,0.05799
5068.73251,0.05818
5066.80377,0.05786
5064.87503,0.05783
5062.94629,0.05841
5061.01754,0.05878
5059.08880,0.05868
5057.16006,0.05843
5055.23132,0.05798
5053.30258,0.05757
5051.37384,0.05760
5049.44510,0.05789
5047.51635,0.05810
5045.58761,0.05817
5043.65887,0.05816
5041.73013,0.05796
5039.80139,0.05736
5037.87265,0.05675
5035.94391,0.05670
5034.01516,0.05699
5032.08642,0.05729
5030.15768,0.05767
5028.22894,0.05801
5026.30020,0.05818
5024.37146,0.05819
5022.44272,0.05796
5020.51397,0.05776
5018.58523,0.05809
5016.65649,0.05833
5014.72775,0.05776
5012.79901,0.05700
5010.87027,0.05686
5008.94153,0.05746
5007.01278,0.05804
5005.08404,0.05778
5003.15530,0.05722
5001.22656,0.05725
4999.29782,0.05768
4997.36908,0.05785
4995.44034,0.05767
4993.51159,0.05738
4991.58285,0.05712
4989.65411,0.05730
4987.72537,0.05793
4985.79663,0.05813
4983.86789,0.05766
4981.93915,0.05731
4980.01040,0.05719
4978.08166,0.05699
4976.15292,0.05693
4974.22418,0.05705
4972.29544,0.05705
4970.36670,0.05696
4968.43796,0.05698
4966.50921,0.05721
4964.58047,0.05735
4962.65173,0.05700
4960.72299,0.05667
4958.79425,0.05667
4956.86551,0.05645
4954.93677,0.05614
4953.00802,0.05601
4951.07928,0.05603
4949.15054,0.05642
4947.22180,0.05677
4945.29306,0.05658
4943.36432,0.05656
4941.43558,0.05722
4939.50683,0.05765
4937.57809,0.05731
4935.64935,0.05680
4933.72061,0.05658
4931.79187,0.05667
4929.86313,0.05688
4927.93439,0.05690
4926.00564,0.05672
4924.07690,0.05651
4922.14816,0.05629
4920.21942,0.05599
4918.29068,0.05578
4916.36194,0.05599
4914.43320,0.05651
4912.50445,0.05662
4910.57571,0.05623
4908.64697,0.05609
4906.71823,0.05638
4904.78949,0.05664
4902.86075,0.05696
4900.93201,0.05746
4899.00326,0.05750
4897.07452,0.05679
4895.14578,0.05592
4893.21704,0.05539
4891.28830,0.05542
4889.35956,0.05580
4887.43081,0.05614
4885.50207,0.05642
4883.57333,0.05672
4881.64459,0.05702
4879.71585,0.05741
4877.78711,0.05776
4875.85837,0.05755
4873.92962,0.05718
4872.00088,0.05761
4870.07214,0.05829
4868.14340,0.05836
4866.21466,0.05808
4864.28592,0.05792
4862.35718,0.05783
4860.42843,0.05750
4858.49969,0.05710
4856.57095,0.05711
4854.64221,0.05749
4852.71347,0.05777
4850.78473,0.05762
4848.85599,0.05716
4846.92724,0.05693
4844.99850,0.05725
4843.06976,0.05773
4841.14102,0.05770
4839.21228,0.05718
4837.28354,0.05691
4835.35480,0.05706
4833.42605,0.05714
4831.49731,0.05701
4829.56857,0.05704
4827.63983,0.05727
4825.71109,0.05756
4823.78235,0.05813
4821.85361,0.05847
4819.92486,0.05788
4817.99612,0.05724
4816.06738,0.05742
4814.13864,0.05793
4812.20990,0.05800
4810.28116,0.05769
4808.35242,0.05762
4806.42367,0.05795
4804.49493,0.05820
4802.56619,0.05813
4800.63745,0.05780
4798.70871,0.05711
4796.77997,0.05661
4794.85123,0.05693
4792.92248,0.05740
4790.99374,0.05748
4789.06500,0.05741
4787.13626,0.05741
4785.20752,0.05749
4783.27878,0.05746
4781.35004,0.05733
4779.42129,0.05753
4777.49255,0.05795
4775.56381,0.05799
4773.63507,0.05786
4771.70633,0.05794
4769.77759,0.05793
4767.84885,0.05769
4765.92010,0.05734
4763.99136,0.05731
4762.06262,0.05789
4760.13388,0.05830
4758.20514,0.05803
4756.27640,0.05757
4754.34766,0.05725
4752.41891,0.05735
4750.49017,0.05793
4748.56143,0.05831
4746.63269,0.05823
4744.70395,0.05820
4742.77521,0.05825
4740.84647,0.05803
4738.91772,0.05770
4736.98898,0.05765
4735.06024,0.05774
4733.13150,0.05758
4731.20276,0.05733
4729.27402,0.05738
4727.34528,0.05774
4725.41653,0.05823
4723.48779,0.05823
4721.55905,0.05783
4719.63031,0.05800
4717.70157,0.05841
4715.77283,0.05822
4713.84409,0.05787
4711.91534,0.05785
4709.98660,0.05796
4708.05786,0.05762
4706.12912,0.05684
4704.20038,0.05657
4702.27164,0.05696
4700.34290,0.05732
4698.41415,0.05744
4696.48541,0.05743
4694.55667,0.05724
4692.62793,0.05712
4690.69919,0.05745
4688.77045,0.05785
4686.84170,0.05777
4684.91296,0.05740
4682.98422,0.05732
4681.05548,0.05766
4679.12674,0.05799
4677.19800,0.05806
4675.26926,0.05809
4673.34051,0.05823
4671.41177,0.05825
4669.48303,0.05768
4667.55429,0.05681
4665.62555,0.05671
4663.69681,0.05718
4661.76807,0.05714
4659.83932,0.05691
4657.91058,0.05693
4655.98184,0.05706
4654.05310,0.05760
4652.12436,0.05817
4650.19562,0.05802
4648.26688,0.05764
4646.33813,0.05780
4644.40939,0.05811
4642.48065,0.05813
4640.55191,0.05816
4638.62317,0.05814
4636.69443,0.05764
4634.76569,0.05700
4632.83694,0.05691
4630.90820,0.05707
4628.97946,0.05677
4627.05072,0.05630
4625.12198,0.05636
4623.19324,0.05697
4621.26450,0.05746
4619.33575,0.05742
4617.40701,0.05723
4615.47827,0.05723
4613.54953,0.05732
4611.62079,0.05722
4609.69205,0.05706
4607.76331,0.05711
4605.83456,0.05726
4603.90582,0.05729
4601.97708,0.05712
4600.04834,0.05688
4598.11960,0.05691
4596.19086,0.05725
4594.26212,0.05769
4592.33337,0.05797
4590.40463,0.05793
4588.47589,0.05762
4586.54715,0.05745
4584.61841,0.05781
4582.68967,0.05813
4580.76093,0.05786
4578.83218,0.05743
4576.90344,0.05719
4574.97470,0.05714
4573.04596,0.05728
4571.11722,0.05736
4569.18848,0.05735
4567.25974,0.05728
4565.33099,0.05685
4563.40225,0.05635
4561.47351,0.05661
4559.54477,0.05749
4557.61603,0.05817
4555.68729,0.05837
4553.75855,0.05802
4551.82980,0.05735
4549.90106,0.05710
4547.97232,0.05749
4546.04358,0.05804
4544.11484,0.05831
4542.18610,0.05811
4540.25736,0.05771
4538.32861,0.05757
4536.39987,0.05752
4534.47113,0.05740
4532.54239,0.05740
4530.61365,0.05736
4528.68491,0.05720
4526.75617,0.05702
4524.82742,0.05715
4522.89868,0.05764
4520.96994,0.05801
4519.04120,0.05794
4517.11246,0.05747
4515.18372,0.05693
4513.25498,0.05680
4511.32623,0.05694
4509.39749,0.05710
4507.46875,0.05739
4505.54001,0.05783
4503.61127,0.05809
4501.68253,0.05796
4499.75379,0.05774
4497.82504,0.05751
4495.89630,0.05714
4493.96756,0.05703
4492.03882,0.05757
4490.11008,0.05822
4488.18134,0.05824
4486.25259,0.05779
4484.32385,0.05756
4482.39511,0.05762
4480.46637,0.05769
4478.53763,0.05784
4476.60889,0.05808
4474.68015,0.05824
4472.75140,0.05812
4470.82266,0.05772
4468.89392,0.05751
4466.96518,0.05782
4465.03644,0.05819
4463.10770,0.05828
4461.17896,0.05830
4459.25021,0.05836
4457.32147,0.05823
4455.39273,0.05795
4453.46399,0.05796
4451.53525,0.05814
4449.60651,0.05820
4447.67777,0.05832
4445.74902,0.05845
4443.82028,0.05821
4441.89154,0.05771
4439.96280,0.05756
4438.03406,0.05770
4436.10532,0.05761
4434.17658,0.05747
4432.24783,0.05747
4430.31909,0.05750
4428.39035,0.05752
4426.46161,0.05751
4424.53287,0.05735
4422.60413,0.05705
4420.67539,0.05692
4418.74664,0.05713
4416.81790,0.05750
4414.88916,0.05786
4412.96042,0.05791
4411.03168,0.05764
4409.10294,0.05753
4407.17420,0.05752
4405.24545,0.05720
4403.31671,0.05666
4401.38797,0.05631
4399.45923,0.05640
4397.53049,0.05676
4395.60175,0.05704
4393.67301,0.05719
4391.74426,0.05743
4389.81552,0.05772
4387.88678,0.05790
4385.95804,0.05803
4384.02930,0.05794
4382.10056,0.05763
4380.17182,0.05753
4378.24307,0.05750
4376.31433,0.05727
4374.38559,0.05722
4372.45685,0.05745
4370.52811,0.05763
4368.59937,0.05773
4366.67063,0.05784
4364.74188,0.05794
4362.81314,0.05790
4360.88440,0.05768
4358.95566,0.05753
4357.02692,0.05756
4355.09818,0.05759
4353.16944,0.05777
4351.24069,0.05812
4349.31195,0.05819
4347.38321,0.05784
4345.45447,0.05752
4343.52573,0.05747
4341.59699,0.05764
4339.66825,0.05793
4337.73950,0.05812
4335.81076,0.05820
4333.88202,0.05822
4331.95328,0.05820
4330.02454,0.05821
4328.09580,0.05827
4326.16706,0.05834
4324.23831,0.05840
4322.30957,0.05816
4320.38083,0.05745
4318.45209,0.05697
4316.52335,0.05738
4314.59461,0.05814
4312.66587,0.05847
4310.73712,0.05827
4308.80838,0.05785
4306.87964,0.05759
4304.95090,0.05769
4303.02216,0.05799
4301.09342,0.05799
4299.16468,0.05770
4297.23593,0.05765
4295.30719,0.05789
4293.37845,0.05812
4291.44971,0.05820
4289.52097,0.05812
4287.59223,0.05802
4285.66348,0.05788
4283.73474,0.05769
4281.80600,0.05767
4279.87726,0.05778
4277.94852,0.05798
4276.01978,0.05835
4274.09104,0.05850
4272.16229,0.05818
4270.23355,0.05775
4268.30481,0.05750
4266.37607,0.05756
4264.44733,0.05772
4262.51859,0.05771
4260.58985,0.05764
4258.66110,0.05768
4256.73236,0.05782
4254.80362,0.05784
4252.87488,0.05778
4250.94614,0.05784
4249.01740,0.05797
4247.08866,0.05816
4245.15991,0.05821
4243.23117,0.05793
4241.30243,0.05764
4239.37369,0.05756
4237.44495,0.05753
4235.51621,0.05762
4233.58747,0.05794
4231.65872,0.05823
4229.72998,0.05816
4227.80124,0.05769
4225.87250,0.05729
4223.94376,0.05728
4222.01502,0.05739
4220.08628,0.05758
4218.15753,0.05787
4216.22879,0.05796
4214.30005,0.05798
4212.37131,0.05823
4210.44257,0.05832
4208.51383,0.05814
4206.58509,0.05829
4204.65634,0.05878
4202.72760,0.05892
4200.79886,0.05855
4198.87012,0.05823
4196.94138,0.05816
4195.01264,0.05812
4193.08390,0.05813
4191.15515,0.05813
4189.22641,0.05788
4187.29767,0.05758
4185.36893,0.05762
4183.44019,0.05802
4181.51145,0.05830
4179.58271,0.05822
4177.65396,0.05815
4175.72522,0.05814
4173.79648,0.05811
4171.86774,0.05812
4169.93900,0.05793
4168.01026,0.05753
4166.08152,0.05739
4164.15277,0.05756
4162.22403,0.05753
4160.29529,0.05730
4158.36655,0.05737
4156.43781,0.05774
4154.50907,0.05806
4152.58033,0.05819
4150.65158,0.05817
4148.72284,0.05806
4146.79410,0.05799
4144.86536,0.05798
4142.93662,0.05776
4141.00788,0.05737
4139.07914,0.05731
4137.15039,0.05746
4135.22165,0.05744
4133.29291,0.05749
4131.36417,0.05792
4129.43543,0.05827
4127.50669,0.05821
4125.57795,0.05806
4123.64920,0.05802
4121.72046,0.05807
4119.79172,0.05805
4117.86298,0.05798
4115.93424,0.05802
4114.00550,0.05812
4112.07676,0.05818
4110.14801,0.05827
4108.21927,0.05839
4106.29053,0.05853
4104.36179,0.05868
4102.43305,0.05883
4100.50431,0.05884
4098.57557,0.05870
4096.64682,0.05851
4094.71808,0.05822
4092.78934,0.05804
4090.86060,0.05815
4088.93186,0.05825
4087.00312,0.05830
4085.07437,0.05829
4083.14563,0.05804
4081.21689,0.05794
4079.28815,0.05817
4077.35941,0.05812
4075.43067,0.05773
4073.50193,0.05762
4071.57318,0.05791
4069.64444,0.05823
4067.71570,0.05833
4065.78696,0.05822
4063.85822,0.05812
4061.92948,0.05817
4060.00074,0.05817
4058.07199,0.05809
4056.14325,0.05824
4054.21451,0.05846
4052.28577,0.05833
4050.35703,0.05800
4048.42829,0.05780
4046.49955,0.05782
4044.57080,0.05796
4042.64206,0.05787
4040.71332,0.05761
4038.78458,0.05772
4036.85584,0.05817
4034.92710,0.05838
4032.99836,0.05821
4031.06961,0.05807
4029.14087,0.05817
4027.21213,0.05834
4025.28339,0.05848
4023.35465,0.05862
4021.42591,0.05865
4019.49717,0.05849
4017.56842,0.05815
4015.63968,0.05785
4013.71094,0.05795
4011.78220,0.05838
4009.85346,0.05864
4007.92472,0.05848
4005.99598,0.05817
4004.06723,0.05808
4002.13849,0.05806
4000.20975,0.05791
3998.28101,0.05789
3996.35227,0.05815
3994.42353,0.05839
3992.49479,0.05843
3990.56604,0.05825
3988.63730,0.05786
3986.70856,0.05772
3984.77982,0.05804
3982.85108,0.05846
3980.92234,0.05864
3978.99360,0.05855
3977.06485,0.05825
3975.13611,0.05794
3973.20737,0.05785
3971.27863,0.05795
3969.34989,0.05816
3967.42115,0.05842
3965.49241,0.05842
3963.56366,0.05818
3961.63492,0.05819
3959.70618,0.05844
3957.77744,0.05853
3955.84870,0.05843
3953.91996,0.05827
3951.99122,0.05807
3950.06247,0.05795
3948.13373,0.05783
3946.20499,0.05758
3944.27625,0.05742
3942.34751,0.05757
3940.41877,0.05784
3938.49003,0.05800
3936.56128,0.05806
3934.63254,0.05804
3932.70380,0.05806
3930.77506,0.05815
3928.84632,0.05806
3926.91758,0.05804
3924.98884,0.05840
3923.06009,0.05863
3921.13135,0.05847
3919.20261,0.05833
3917.27387,0.05830
3915.34513,0.05821
3913.41639,0.05825
3911.48765,0.05839
3909.55890,0.05842
3907.63016,0.05839
3905.70142,0.05839
3903.77268,0.05823
3901.84394,0.05796
3899.91520,0.05795
3897.98646,0.05816
3896.05771,0.05830
3894.12897,0.05840
3892.20023,0.05844
3890.27149,0.05846
3888.34275,0.05861
3886.41401,0.05861
3884.48526,0.05833
3882.55652,0.05817
3880.62778,0.05817
3878.69904,0.05815
3876.77030,0.05828
3874.84156,0.05857
3872.91282,0.05871
3870.98407,0.05853
3869.05533,0.05835
3867.12659,0.05838
3865.19785,0.05844
3863.26911,0.05842
3861.34037,0.05845
3859.41163,0.05845
3857.48288,0.05835
3855.55414,0.05835
3853.62540,0.05857
3851.69666,0.05863
3849.76792,0.05834
3847.83918,0.05805
3845.91044,0.05797
3843.98169,0.05805
3842.05295,0.05827
3840.12421,0.05853
3838.19547,0.05860
3836.26673,0.05849
3834.33799,0.05829
3832.40925,0.05803
3830.48050,0.05794
3828.55176,0.05809
3826.62302,0.05831
3824.69428,0.05843
3822.76554,0.05842
3820.83680,0.05840
3818.90806,0.05822
3816.97931,0.05776
3815.05057,0.05750
3813.12183,0.05765
3811.19309,0.05787
3809.26435,0.05808
3807.33561,0.05822
3805.40687,0.05816
3803.47812,0.05794
3801.54938,0.05789
3799.62064,0.05807
3797.69190,0.05815
3795.76316,0.05812
3793.83442,0.05811
3791.90568,0.05813
3789.97693,0.05812
3788.04819,0.05811
3786.11945,0.05823
3784.19071,0.05843
3782.26197,0.05855
3780.33323,0.05869
3778.40449,0.05884
3776.47574,0.05874
3774.54700,0.05829
3772.61826,0.05782
3770.68952,0.05777
3768.76078,0.05800
3766.83204,0.05805
3764.90330,0.05794
3762.97455,0.05799
3761.04581,0.05813
3759.11707,0.05813
3757.18833,0.05812
3755.25959,0.05820
3753.33085,0.05828
3751.40211,0.05848
3749.47336,0.05871
3747.54462,0.05860
3745.61588,0.05824
3743.68714,0.05818
3741.75840,0.05844
3739.82966,0.05848
3737.90092,0.05833
3735.97217,0.05816
3734.04343,0.05806
3732.11469,0.05813
3730.18595,0.05811
3728.25721,0.05794
3726.32847,0.05796
3724.39973,0.05818
3722.47098,0.05830
3720.54224,0.05813
3718.61350,0.05777
3716.68476,0.05753
3714.75602,0.05754
3712.82728,0.05771
3710.89854,0.05802
3708.96979,0.05822
3707.04105,0.05815
3705.11231,0.05792
3703.18357,0.05755
3701.25483,0.05727
3699.32609,0.05730
3697.39735,0.05739
3695.46860,0.05734
3693.53986,0.05734
3691.61112,0.05741
3689.68238,0.05732
3687.75364,0.05722
3685.82490,0.05745
3683.89615,0.05786
3681.96741,0.05803
3680.03867,0.05783
3678.10993,0.05752
3676.18119,0.05736
3674.25245,0.05760
3672.32371,0.05786
3670.39496,0.05760
3668.46622,0.05722
3666.53748,0.05730
3664.60874,0.05748
3662.68000,0.05742
3660.75126,0.05723
3658.82252,0.05721
3656.89377,0.05753
3654.96503,0.05792
3653.03629,0.05799
3651.10755,0.05775
3649.17881,0.05743
3647.25007,0.05727
3645.32133,0.05727
3643.39258,0.05722
3641.46384,0.05713
3639.53510,0.05730
3637.60636,0.05764
3635.67762,0.05775
3633.74888,0.05761
3631.82014,0.05745
3629.89139,0.05730
3627.96265,0.05716
3626.03391,0.05706
3624.10517,0.05702
3622.17643,0.05712
3620.24769,0.05736
3618.31895,0.05749
3616.39020,0.05725
3614.46146,0.05672
3612.53272,0.05636
3610.60398,0.05647
3608.67524,0.05666
3606.74650,0.05682
3604.81776,0.05731
3602.88901,0.05771
3600.96027,0.05745
3599.03153,0.05680
3597.10279,0.05645
3595.17405,0.05663
3593.24531,0.05688
3591.31657,0.05668
3589.38782,0.05640
3587.45908,0.05651
3585.53034,0.05680
3583.60160,0.05687
3581.67286,0.05669
3579.74412,0.05653
3577.81538,0.05660
3575.88663,0.05678
3573.95789,0.05704
3572.02915,0.05719
3570.10041,0.05701
3568.17167,0.05662
3566.24293,0.05630
3564.31419,0.05620
3562.38544,0.05614
3560.45670,0.05601
3558.52796,0.05608
3556.59922,0.05629
3554.67048,0.05642
3552.74174,0.05646
3550.81300,0.05640
3548.88425,0.05637
3546.95551,0.05650
3545.02677,0.05666
3543.09803,0.05675
3541.16929,0.05675
3539.24055,0.05667
3537.31181,0.05652
3535.38306,0.05625
3533.45432,0.05589
3531.52558,0.05551
3529.59684,0.05545
3527.66810,0.05576
3525.73936,0.05594
3523.81062,0.05578
3521.88187,0.05552
3519.95313,0.05545
3518.02439,0.05565
3516.09565,0.05593
3514.16691,0.05599
3512.23817,0.05572
3510.30943,0.05539
3508.38068,0.05514
3506.45194,0.05476
3504.52320,0.05453
3502.59446,0.05481
3500.66572,0.05515
3498.73698,0.05526
3496.80824,0.05533
3494.87949,0.05533
3492.95075,0.05525
3491.02201,0.05519
3489.09327,0.05502
3487.16453,0.05490
3485.23579,0.05504
3483.30704,0.05510
3481.37830,0.05496
3479.44956,0.05496
3477.52082,0.05496
3475.59208,0.05477
3473.66334,0.05479
3471.73460,0.05525
3469.80585,0.05559
3467.87711,0.05542
3465.94837,0.05518
3464.01963,0.05515
3462.09089,0.05509
3460.16215,0.05477
3458.23341,0.05432
3456.30466,0.05407
3454.37592,0.05421
3452.44718,0.05445
3450.51844,0.05449
3448.58970,0.05438
3446.66096,0.05428
3444.73222,0.05423
3442.80347,0.05425
3440.87473,0.05428
3438.94599,0.05415
3437.01725,0.05395
3435.08851,0.05391
3433.15977,0.05395
3431.23103,0.05394
3429.30228,0.05399
3427.37354,0.05410
3425.44480,0.05425
3423.51606,0.05422
3421.58732,0.05374
3419.65858,0.05312
3417.72984,0.05292
3415.80109,0.05306
3413.87235,0.05305
3411.94361,0.05286
3410.01487,0.05296
3408.08613,0.05327
3406.15739,0.05319
3404.22865,0.05279
3402.29990,0.05249
3400.37116,0.05236
3398.44242,0.05233
3396.51368,0.05227
3394.58494,0.05200
3392.65620,0.05149
3390.72746,0.05115
3388.79871,0.05124
3386.86997,0.05127
3384.94123,0.05096
3383.01249,0.05069
3381.08375,0.05066
3379.15501,0.05071
3377.22627,0.05076
3375.29752,0.05058
3373.36878,0.05024
3371.44004,0.05026
3369.51130,0.05050
3367.58256,0.05044
3365.65382,0.05023
3363.72508,0.05019
3361.79633,0.05014
3359.86759,0.05000
3357.93885,0.04978
3356.01011,0.04924
3354.08137,0.04859
3352.15263,0.04819
3350.22389,0.04787
3348.29514,0.04772
3346.36640,0.04790
3344.43766,0.04785
3342.50892,0.04731
3340.58018,0.04670
3338.65144,0.04631
3336.72270,0.04611
3334.79395,0.04609
3332.86521,0.04620
3330.93647,0.04606
3329.00773,0.04560
3327.07899,0.04529
3325.15025,0.04532
3323.22151,0.04563
3321.29276,0.04609
3319.36402,0.04650
3317.43528,0.04706
3315.50654,0.04794
3313.57780,0.04891
3311.64906,0.05008
3309.72032,0.05210
3307.79157,0.05483
3305.86283,0.05754
3303.93409,0.05999
3302.00535,0.06232
3300.07661,0.06451
3298.14787,0.06617
3296.21913,0.06734
3294.29038,0.06853
3292.36164,0.06947
3290.43290,0.06977
3288.50416,0.06975
3286.57542,0.06969
3284.64668,0.06964
3282.71793,0.06947
3280.78919,0.06913
3278.86045,0.06892
3276.93171,0.06876
3275.00297,0.06836
3273.07423,0.06785
3271.14549,0.06744
3269.21674,0.06721
3267.28800,0.06726
3265.35926,0.06723
3263.43052,0.06682
3261.50178,0.06645
3259.57304,0.06624
3257.64430,0.06578
3255.71555,0.06528
3253.78681,0.06524
3251.85807,0.06546
3249.92933,0.06561
3248.00059,0.06568
3246.07185,0.06564
3244.14311,0.06539
3242.21436,0.06509
3240.28562,0.06483
3238.35688,0.06458
3236.42814,0.06463
3234.49940,0.06475
3232.57066,0.06450
3230.64192,0.06417
3228.71317,0.06411
3226.78443,0.06410
3224.85569,0.06402
3222.92695,0.06392
3220.99821,0.06341
3219.06947,0.06260
3217.14073,0.06216
3215.21198,0.06197
3213.28324,0.06181
3211.35450,0.06202
3209.42576,0.06246
3207.49702,0.06253
3205.56828,0.06220
3203.63954,0.06183
3201.71079,0.06167
3199.78205,0.06202
3197.85331,0.06259
3195.92457,0.06281
3193.99583,0.06273
3192.06709,0.06247
3190.13835,0.06212
3188.20960,0.06195
3186.28086,0.06204
3184.35212,0.06202
3182.42338,0.06180
3180.49464,0.06167
3178.56590,0.06171
3176.63716,0.06184
3174.70841,0.06221
3172.77967,0.06251
3170.85093,0.06218
3168.92219,0.06153
3166.99345,0.06137
3165.06471,0.06168
3163.13597,0.06185
3161.20722,0.06161
3159.27848,0.06117
3157.34974,0.06089
3155.42100,0.06102
3153.49226,0.06128
3151.56352,0.06134
3149.63478,0.06143
3147.70603,0.06148
3145.77729,0.06121
3143.84855,0.06081
3141.91981,0.06046
3139.99107,0.06031
3138.06233,0.06053
3136.13359,0.06100
3134.20484,0.06115
3132.27610,0.06065
3130.34736,0.06003
3128.41862,0.05985
3126.48988,0.05982
3124.56114,0.05968
3122.63240,0.05971
3120.70365,0.05970
3118.77491,0.05943
3116.84617,0.05915
3114.91743,0.05907
3112.98869,0.05928
3111.05995,0.05971
3109.13121,0.05995
3107.20246,0.05981
3105.27372,0.05941
3103.34498,0.05894
3101.41624,0.05868
3099.48750,0.05866
3097.55876,0.05861
3095.63002,0.05868
3093.70127,0.05897
3091.77253,0.05912
3089.84379,0.05903
3087.91505,0.05892
3085.98631,0.05891
3084.05757,0.05909
3082.12882,0.05934
3080.20008,0.05946
3078.27134,0.05947
3076.34260,0.05940
3074.41386,0.05937
3072.48512,0.05957
3070.55638,0.05969
3068.62763,0.05944
3066.69889,0.05928
3064.77015,0.05954
3062.84141,0.05978
3060.91267,0.05985
3058.98393,0.06004
3057.05519,0.06033
3055.12644,0.06043
3053.19770,0.06036
3051.26896,0.06027
3049.34022,0.06029
3047.41148,0.06052
3045.48274,0.06077
3043.55400,0.06066
3041.62525,0.06038
3039.69651,0.06035
3037.76777,0.06042
3035.83903,0.06031
3033.91029,0.06010
3031.98155,0.05997
3030.05281,0.05993
3028.12406,0.05994
3026.19532,0.05991
3024.26658,0.05983
3022.33784,0.05978
3020.40910,0.05977
3018.48036,0.05972
3016.55162,0.05948
3014.62287,0.05913
3012.69413,0.05878
3010.76539,0.05865
3008.83665,0.05882
3006.90791,0.05892
3004.97917,0.05876
3003.05043,0.05846
3001.12168,0.05809
2999.19294,0.05787
2997.26420,0.05788
2995.33546,0.05790
2993.40672,0.05788
2991.47798,0.05776
2989.54924,0.05731
2987.62049,0.05673
2985.69175,0.05645
2983.76301,0.05649
2981.83427,0.05643
2979.90553,0.05619
2977.97679,0.05610
2976.04805,0.05613
2974.11930,0.05585
2972.19056,0.05523
2970.26182,0.05475
2968.33308,0.05460
2966.40434,0.05462
2964.47560,0.05472
2962.54686,0.05492
2960.61811,0.05493
2958.68937,0.05474
2956.76063,0.05461
2954.83189,0.05450
2952.90315,0.05437
2950.97441,0.05422
2949.04567,0.05399
2947.11692,0.05394
2945.18818,0.05443
2943.25944,0.05517
2941.33070,0.05566
2939.40196,0.05605
2937.47322,0.05676
2935.54448,0.05781
2933.61573,0.05901
2931.68699,0.06025
2929.75825,0.06148
2927.82951,0.06276
2925.90077,0.06412
2923.97203,0.06539
2922.04329,0.06614
2920.11454,0.06624
2918.18580,0.06617
2916.25706,0.06605
2914.32832,0.06566
2912.39958,0.06523
2910.47084,0.06496
2908.54210,0.06478
2906.61335,0.06463
2904.68461,0.06455
2902.75587,0.06460
2900.82713,0.06462
2898.89839,0.06436
2896.96965,0.06396
2895.04091,0.06371
2893.11216,0.06337
2891.18342,0.06274
2889.25468,0.06206
2887.32594,0.06152
2885.39720,0.06103
2883.46846,0.06056
2881.53971,0.06035
2879.61097,0.06057
2877.68223,0.06109
2875.75349,0.06162
2873.82475,0.06190
2871.89601,0.06199
2869.96727,0.06209
2868.03852,0.06240
2866.10978,0.06290
2864.18104,0.06334
2862.25230,0.06391
2860.32356,0.06484
2858.39482,0.06595
2856.46608,0.06704
2854.53733,0.06805
2852.60859,0.06881
2850.67985,0.06901
2848.75111,0.06870
2846.82237,0.06830
2844.89363,0.06800
2842.96489,0.06763
2841.03614,0.06716
2839.10740,0.06672
2837.17866,0.06623
2835.24992,0.06560
2833.32118,0.06522
2831.39244,0.06518
2829.46370,0.06509
2827.53495,0.06495
2825.60621,0.06486
2823.67747,0.06458
2821.74873,0.06425
2819.81999,0.06421
2817.89125,0.06419
2815.96251,0.06394
2814.03376,0.06373
2812.10502,0.06373
2810.17628,0.06369
2808.24754,0.06355
2806.31880,0.06356
2804.39006,0.06361
2802.46132,0.06332
2800.53257,0.06296
2798.60383,0.06297
2796.67509,0.06317
2794.74635,0.06321
2792.81761,0.06317
2790.88887,0.06325
2788.96013,0.06330
2787.03138,0.06319
2785.10264,0.06308
2783.17390,0.06309
2781.24516,0.06301
2779.31642,0.06283
2777.38768,0.06274
2775.45894,0.06275
2773.53019,0.06276
2771.60145,0.06276
2769.67271,0.06279
2767.74397,0.06280
2765.81523,0.06274
2763.88649,0.06265
2761.95775,0.06256
2760.02900,0.06260
2758.10026,0.06281
2756.17152,0.06293
2754.24278,0.06281
2752.31404,0.06261
2750.38530,0.06250
2748.45656,0.06251
2746.52781,0.06247
2744.59907,0.06235
2742.67033,0.06225
2740.74159,0.06225
2738.81285,0.06234
2736.88411,0.06242
2734.95537,0.06251
2733.02662,0.06262
2731.09788,0.06264
2729.16914,0.06252
2727.24040,0.06238
2725.31166,0.06226
2723.38292,0.06209
2721.45418,0.06198
2719.52543,0.06215
2717.59669,0.06243
2715.66795,0.06247
2713.73921,0.06235
2711.81047,0.06233
2709.88173,0.06236
2707.95299,0.06224
2706.02424,0.06204
2704.09550,0.06200
2702.16676,0.06216
2700.23802,0.06226
2698.30928,0.06224
2696.38054,0.06217
2694.45180,0.06207
2692.52305,0.06196
2690.59431,0.06185
2688.66557,0.06177
2686.73683,0.06184
2684.80809,0.06201
2682.87935,0.06212
2680.95060,0.06212
2679.02186,0.06203
2677.09312,0.06191
2675.16438,0.06189
2673.23564,0.06197
2671.30690,0.06201
2669.37816,0.06191
2667.44941,0.06179
2665.52067,0.06182
2663.59193,0.06190
2661.66319,0.06182
2659.73445,0.06174
2657.80571,0.06186
2655.87697,0.06196
2653.94822,0.06197
2652.01948,0.06197
2650.09074,0.06181
2648.16200,0.06162
2646.23326,0.06164
2644.30452,0.06166
2642.37578,0.06155
2640.44703,0.06148
2638.51829,0.06150
2636.58955,0.06147
2634.66081,0.06137
2632.73207,0.06127
2630.80333,0.06121
2628.87459,0.06116
2626.94584,0.06123
2625.01710,0.06141
2623.08836,0.06147
2621.15962,0.06135
2619.23088,0.06130
2617.30214,0.06140
2615.37340,0.06144
2613.44465,0.06132
2611.51591,0.06122
2609.58717,0.06138
2607.65843,0.06163
2605.72969,0.06167
2603.80095,0.06161
2601.87221,0.06157
2599.94346,0.06142
2598.01472,0.06119
2596.08598,0.06107
2594.15724,0.06110
2592.22850,0.06129
2590.29976,0.06152
2588.37102,0.06163
2586.44227,0.06154
2584.51353,0.06135
2582.58479,0.06123
2580.65605,0.06117
2578.72731,0.06106
2576.79857,0.06110
2574.86983,0.06139
2572.94108,0.06157
2571.01234,0.06144
2569.08360,0.06123
2567.15486,0.06123
2565.22612,0.06139
2563.29738,0.06138
2561.36864,0.06122
2559.43989,0.06120
2557.51115,0.06127
2555.58241,0.06116
2553.65367,0.06101
2551.72493,0.06102
2549.79619,0.06115
2547.86745,0.06128
2545.93870,0.06128
2544.00996,0.06115
2542.08122,0.06105
2540.15248,0.06113
2538.22374,0.06127
2536.29500,0.06123
2534.36626,0.06105
2532.43751,0.06101
2530.50877,0.06106
2528.58003,0.06111
2526.65129,0.06112
2524.72255,0.06106
2522.79381,0.06100
2520.86507,0.06098
2518.93632,0.06098
2517.00758,0.06099
2515.07884,0.06093
2513.15010,0.06085
2511.22136,0.06088
2509.29262,0.06099
2507.36388,0.06094
2505.43513,0.06070
2503.50639,0.06054
2501.57765,0.06056
2499.64891,0.06061
2497.72017,0.06059
2495.79143,0.06065
2493.86269,0.06088
2491.93394,0.06109
2490.00520,0.06109
2488.07646,0.06100
2486.14772,0.06100
2484.21898,0.06106
2482.29024,0.06104
2480.36149,0.06094
2478.43275,0.06087
2476.50401,0.06076
2474.57527,0.06073
2472.64653,0.06087
2470.71779,0.06095
2468.78905,0.06086
2466.86030,0.06077
2464.93156,0.06070
2463.00282,0.06069
2461.07408,0.06080
2459.14534,0.06085
2457.21660,0.06082
2455.28786,0.06081
2453.35911,0.06074
2451.43037,0.06062
2449.50163,0.06055
2447.57289,0.06063
2445.64415,0.06081
2443.71541,0.06094
2441.78667,0.06099
2439.85792,0.06095
2437.92918,0.06089
2436.00044,0.06087
2434.07170,0.06086
2432.14296,0.06073
2430.21422,0.06055
2428.28548,0.06052
2426.35673,0.06063
2424.42799,0.06068
2422.49925,0.06059
2420.57051,0.06049
2418.64177,0.06045
2416.71303,0.06046
2414.78429,0.06051
2412.85554,0.06056
2410.92680,0.06049
2408.99806,0.06031
2407.06932,0.06030
2405.14058,0.06054
2403.21184,0.06070
2401.28310,0.06063
2399.35435,0.06048
2397.42561,0.06041
2395.49687,0.06030
2393.56813,0.06012
2391.63939,0.06001
2389.71065,0.06006
2387.78191,0.06026
2385.85316,0.06052
2383.92442,0.06068
2381.99568,0.06065
2380.06694,0.06048
2378.13820,0.06033
2376.20946,0.06028
2374.28072,0.06022
2372.35197,0.06007
2370.42323,0.05995
2368.49449,0.05992
2366.56575,0.05995
2364.63701,0.05996
2362.70827,0.05993
2360.77953,0.05996
2358.85078,0.06013
2356.92204,0.06026
2354.99330,0.06029
2353.06456,0.06036
2351.13582,0.06046
2349.20708,0.06046
2347.27834,0.06034
2345.34959,0.06016
2343.42085,0.06001
2341.49211,0.05999
2339.56337,0.06015
2337.63463,0.06037
2335.70589,0.06046
2333.77715,0.06031
2331.84840,0.06004
2329.91966,0.05997
2327.99092,0.06015
2326.06218,0.06017
2324.13344,0.05998
2322.20470,0.05992
2320.27596,0.06000
2318.34721,0.06003
2316.41847,0.06002
2314.48973,0.06005
2312.56099,0.05997
2310.63225,0.05975
2308.70351,0.05962
2306.77477,0.05964
2304.84602,0.05975
2302.91728,0.06001
2300.98854,0.06023
2299.05980,0.06011
2297.13106,0.05985
2295.20232,0.05982
2293.27357,0.06001
2291.34483,0.06017
2289.41609,0.06014
2287.48735,0.06001
2285.55861,0.05996
2283.62987,0.05997
2281.70113,0.05994
2279.77238,0.05990
2277.84364,0.05982
2275.91490,0.05971
2273.98616,0.05966
2272.05742,0.05970
2270.12868,0.05974
2268.19994,0.05979
2266.27119,0.05987
2264.34245,0.05994
2262.41371,0.05992
2260.48497,0.05988
2258.55623,0.05991
2256.62749,0.05993
2254.69875,0.05983
2252.77000,0.05973
2250.84126,0.05972
2248.91252,0.05978
2246.98378,0.05983
2245.05504,0.05982
2243.12630,0.05985
2241.19756,0.05993
2239.26881,0.05986
2237.34007,0.05975
2235.41133,0.05979
2233.48259,0.05991
2231.55385,0.06000
2229.62511,0.05993
2227.69637,0.05962
2225.76762,0.05931
2223.83888,0.05922
2221.91014,0.05926
2219.98140,0.05932
2218.05266,0.05932
2216.12392,0.05928
2214.19518,0.05925
2212.26643,0.05914
2210.33769,0.05902
2208.40895,0.05911
2206.48021,0.05930
2204.55147,0.05938
2202.62273,0.05940
2200.69399,0.05934
2198.76524,0.05918
2196.83650,0.05911
2194.90776,0.05917
2192.97902,0.05924
2191.05028,0.05926
2189.12154,0.05927
2187.19280,0.05926
2185.26405,0.05930
2183.33531,0.05937
2181.40657,0.05934
2179.47783,0.05927
2177.54909,0.05932
2175.62035,0.05947
2173.69161,0.05942
2171.76286,0.05917
2169.83412,0.05903
2167.90538,0.05908
2165.97664,0.05910
2164.04790,0.05900
2162.11916,0.05895
2160.19042,0.05904
2158.26167,0.05921
2156.33293,0.05935
2154.40419,0.05938
2152.47545,0.05929
2150.54671,0.05909
2148.61797,0.05883
2146.68923,0.05872
2144.76048,0.05874
2142.83174,0.05865
2140.90300,0.05850
2138.97426,0.05845
2137.04552,0.05850
2135.11678,0.05862
2133.18804,0.05879
2131.25929,0.05899
2129.33055,0.05913
2127.40181,0.05921
2125.47307,0.05930
2123.54433,0.05933
2121.61559,0.05912
2119.68685,0.05877
2117.75810,0.05860
2115.82936,0.05871
2113.90062,0.05884
2111.97188,0.05886
2110.04314,0.05883
2108.11440,0.05875
2106.18566,0.05858
2104.25691,0.05849
2102.32817,0.05860
2100.39943,0.05878
2098.47069,0.05891
2096.54195,0.05886
2094.61321,0.05869
2092.68446,0.05854
2090.75572,0.05847
2088.82698,0.05847
2086.89824,0.05846
2084.96950,0.05857
2083.04076,0.05881
2081.11202,0.05889
2079.18327,0.05873
2077.25453,0.05846
2075.32579,0.05825
2073.39705,0.05824
2071.46831,0.05829
2069.53957,0.05825
2067.61083,0.05821
2065.68208,0.05826
2063.75334,0.05832
2061.82460,0.05828
2059.89586,0.05819
2057.96712,0.05822
2056.03838,0.05830
2054.10964,0.05827
2052.18089,0.05825
2050.25215,0.05831
2048.32341,0.05824
2046.39467,0.05804
2044.46593,0.05793
2042.53719,0.05794
2040.60845,0.05802
2038.67970,0.05809
2036.75096,0.05812
2034.82222,0.05809
2032.89348,0.05793
2030.96474,0.05773
2029.03600,0.05771
2027.10726,0.05785
2025.17851,0.05797
2023.24977,0.05803
2021.32103,0.05808
2019.39229,0.05808
2017.46355,0.05803
2015.53481,0.05799
2013.60607,0.05795
2011.67732,0.05785
2009.74858,0.05769
2007.81984,0.05755
2005.89110,0.05746
2003.96236,0.05747
2002.03362,0.05758
2000.10488,0.05764
1998.17613,0.05759
1996.24739,0.05753
1994.31865,0.05751
1992.38991,0.05753
1990.46117,0.05757
1988.53243,0.05756
1986.60369,0.05746
1984.67494,0.05731
1982.74620,0.05725
1980.81746,0.05720
1978.88872,0.05710
1976.95998,0.05707
1975.03124,0.05712
1973.10250,0.05717
1971.17375,0.05726
1969.24501,0.05735
1967.31627,0.05729
1965.38753,0.05709
1963.45879,0.05693
1961.53005,0.05692
1959.60131,0.05704
1957.67256,0.05714
1955.74382,0.05708
1953.81508,0.05701
1951.88634,0.05705
1949.95760,0.05710
1948.02886,0.05713
1946.10012,0.05714
1944.17137,0.05704
1942.24263,0.05690
1940.31389,0.05680
1938.38515,0.05675
1936.45641,0.05682
1934.52767,0.05686
1932.59893,0.05677
1930.67018,0.05674
1928.74144,0.05681
1926.81270,0.05675
1924.88396,0.05659
1922.95522,0.05648
1921.02648,0.05639
1919.09774,0.05637
1917.16899,0.05647
1915.24025,0.05643
1913.31151,0.05623
1911.38277,0.05612
1909.45403,0.05615
1907.52529,0.05611
1905.59655,0.05592
1903.66780,0.05571
1901.73906,0.05570
1899.81032,0.05586
1897.88158,0.05594
1895.95284,0.05581
1894.02410,0.05563
1892.09535,0.05553
1890.16661,0.05552
1888.23787,0.05558
1886.30913,0.05552
1884.38039,0.05533
1882.45165,0.05521
1880.52291,0.05526
1878.59416,0.05530
1876.66542,0.05518
1874.73668,0.05506
1872.80794,0.05511
1870.87920,0.05514
1868.95046,0.05504
1867.02172,0.05492
1865.09297,0.05488
1863.16423,0.05486
1861.23549,0.05480
1859.30675,0.05472
1857.37801,0.05471
1855.44927,0.05469
1853.52053,0.05468
1851.59178,0.05475
1849.66304,0.05474
1847.73430,0.05442
1845.80556,0.05404
1843.87682,0.05399
1841.94808,0.05404
1840.01934,0.05390
1838.09059,0.05371
1836.16185,0.05362
1834.23311,0.05360
1832.30437,0.05356
1830.37563,0.05352
1828.44689,0.05356
1826.51815,0.05367
1824.58940,0.05364
1822.66066,0.05341
1820.73192,0.05312
1818.80318,0.05293
1816.87444,0.05286
1814.94570,0.05286
1813.01696,0.05286
1811.08821,0.05284
1809.15947,0.05276
1807.23073,0.05260
1805.30199,0.05251
1803.37325,0.05257
1801.44451,0.05261
1799.51577,0.05246
1797.58702,0.05218
1795.65828,0.05201
1793.72954,0.05199
1791.80080,0.05190
1789.87206,0.05164
1787.94332,0.05138
1786.01458,0.05128
1784.08583,0.05134
1782.15709,0.05128
1780.22835,0.05092
1778.29961,0.05048
1776.37087,0.05024
1774.44213,0.05003
1772.51339,0.04975
1770.58464,0.04959
1768.65590,0.04955
1766.72716,0.04942
1764.79842,0.04923
1762.86968,0.04911
1760.94094,0.04907
1759.01220,0.04910
1757.08345,0.04920
1755.15471,0.04936
1753.22597,0.04947
1751.29723,0.04951
1749.36849,0.04956
1747.43975,0.04963
1745.51101,0.04965
1743.58226,0.04963
1741.65352,0.04947
1739.72478,0.04909
1737.79604,0.04875
1735.86730,0.04856
1733.93856,0.04816
1732.00982,0.04758
1730.08107,0.04716
1728.15233,0.04689
1726.22359,0.04672
1724.29485,0.04662
1722.36611,0.04644
1720.43737,0.04615
1718.50863,0.04568
1716.57988,0.04506
1714.65114,0.04443
1712.72240,0.04387
1710.79366,0.04345
1708.86492,0.04313
1706.93618,0.04270
1705.00744,0.04221
1703.07869,0.04182
1701.14995,0.04142
1699.22121,0.04095
1697.29247,0.04042
1695.36373,0.03960
1693.43499,0.03873
1691.50624,0.03808
1689.57750,0.03748
1687.64876,0.03687
1685.72002,0.03627
1683.79128,0.03560
1681.86254,0.03492
1679.93380,0.03437
1678.00505,0.03397
1676.07631,0.03362
1674.14757,0.03332
1672.21883,0.03311
1670.29009,0.03296
1668.36135,0.03298
1666.43261,0.03355
1664.50386,0.03477
1662.57512,0.03658
1660.64638,0.03879
1658.71764,0.04145
1656.78890,0.04481
1654.86016,0.04942
1652.93142,0.05619
1651.00267,0.06354
1649.07393,0.07080
1647.14519,0.08031
1645.21645,0.09195
1643.28771,0.10310
1641.35897,0.11336
1639.43023,0.12262
1637.50148,0.13041
1635.57274,0.13660
1633.64400,0.13970
1631.71526,0.13855
1629.78652,0.13344
1627.85778,0.12575
1625.92904,0.11787
1624.00029,0.11086
1622.07155,0.10487
1620.14281,0.10027
1618.21407,0.09641
1616.28533,0.09247
1614.35659,0.08906
1612.42785,0.08651
1610.49910,0.08430
1608.57036,0.08234
1606.64162,0.08057
1604.71288,0.07871
1602.78414,0.07687
1600.85540,0.07524
1598.92666,0.07363
1596.99791,0.07190
1595.06917,0.07015
1593.14043,0.06842
1591.21169,0.06670
1589.28295,0.06495
1587.35421,0.06324
1585.42547,0.06168
1583.49672,0.06032
1581.56798,0.05889
1579.63924,0.05738
1577.71050,0.05580
1575.78176,0.05404
1573.85302,0.05245
1571.92428,0.05116
1569.99553,0.04985
1568.06679,0.04863
1566.13805,0.04774
1564.20931,0.04711
1562.28057,0.04676
1560.35183,0.04676
1558.42309,0.04703
1556.49434,0.04764
1554.56560,0.04892
1552.63686,0.05106
1550.70812,0.05412
1548.77938,0.05831
1546.85064,0.06360
1544.92190,0.06983
1542.99315,0.07670
1541.06441,0.08405
1539.13567,0.09125
1537.20693,0.09641
1535.27819,0.09949
1533.34945,0.10110
1531.42071,0.10134
1529.49196,0.10048
1527.56322,0.09865
1525.63448,0.09615
1523.70574,0.09367
1521.77700,0.09136
1519.84826,0.08922
1517.91952,0.08737
1515.99077,0.08578
1514.06203,0.08452
1512.13329,0.08339
1510.20455,0.08223
1508.27581,0.08102
1506.34707,0.07961
1504.41833,0.07827
1502.48958,0.07728
1500.56084,0.07645
1498.63210,0.07562
1496.70336,0.07468
1494.77462,0.07379
1492.84588,0.07302
1490.91713,0.07218
1488.98839,0.07118
1487.05965,0.07008
1485.13091,0.06890
1483.20217,0.06791
1481.27343,0.06749
1479.34469,0.06791
1477.41594,0.06926
1475.48720,0.07128
1473.55846,0.07315
1471.62972,0.07376
1469.70098,0.07331
1467.77224,0.07306
1465.84350,0.07363
1463.91475,0.07474
1461.98601,0.07541
1460.05727,0.07538
1458.12853,0.07490
1456.19979,0.07413
1454.27105,0.07336
1452.34231,0.07279
1450.41356,0.07220
1448.48482,0.07148
1446.55608,0.07084
1444.62734,0.07051
1442.69860,0.07046
1440.76986,0.07044
1438.84112,0.07036
1436.91237,0.07028
1434.98363,0.07016
1433.05489,0.07004
1431.12615,0.06995
1429.19741,0.06964
1427.26867,0.06914
1425.33993,0.06892
1423.41118,0.06925
1421.48244,0.07029
1419.55370,0.07230
1417.62496,0.07485
1415.69622,0.07673
1413.76748,0.07731
1411.83874,0.07666
1409.90999,0.07536
1407.98125,0.07401
1406.05251,0.07284
1404.12377,0.07201
1402.19503,0.07151
1400.26629,0.07106
1398.33755,0.07044
1396.40880,0.06974
1394.48006,0.06912
1392.55132,0.06873
1390.62258,0.06858
1388.69384,0.06855
1386.76510,0.06850
1384.83636,0.06826
1382.90761,0.06795
1380.97887,0.06785
1379.05013,0.06799
1377.12139,0.06818
1375.19265,0.06838
1373.26391,0.06889
1371.33517,0.06980
1369.40642,0.07071
1367.47768,0.07132
1365.54894,0.07170
1363.62020,0.07194
1361.69146,0.07208
1359.76272,0.07205
1357.83398,0.07188
1355.90523,0.07175
1353.97649,0.07164
1352.04775,0.07148
1350.11901,0.07128
1348.19027,0.07108
1346.26153,0.07089
1344.33279,0.07060
1342.40404,0.07027
1340.47530,0.07005
1338.54656,0.06985
1336.61782,0.06947
1334.68908,0.06900
1332.76034,0.06867
1330.83160,0.06856
1328.90285,0.06852
1326.97411,0.06841
1325.04537,0.06828
1323.11663,0.06820
1321.18789,0.06799
1319.25915,0.06759
1317.33041,0.06716
1315.40166,0.06677
1313.47292,0.06654
1311.54418,0.06656
1309.61544,0.06657
1307.68670,0.06637
1305.75796,0.06617
1303.82922,0.06618
1301.90047,0.06623
1299.97173,0.06605
1298.04299,0.06566
1296.11425,0.06530
1294.18551,0.06505
1292.25677,0.06473
1290.32802,0.06425
1288.39928,0.06377
1286.47054,0.06338
1284.54180,0.06312
1282.61306,0.06303
1280.68432,0.06330
1278.75558,0.06420
1276.82683,0.06575
1274.89809,0.06758
1272.96935,0.06925
1271.04061,0.07045
1269.11187,0.07123
1267.18313,0.07188
1265.25439,0.07242
1263.32564,0.07280
1261.39690,0.07308
1259.46816,0.07327
1257.53942,0.07333
1255.61068,0.07326
1253.68194,0.07308
1251.75320,0.07283
1249.82445,0.07265
1247.89571,0.07254
1245.96697,0.07232
1244.03823,0.07202
1242.10949,0.07181
1240.18075,0.07163
1238.25201,0.07135
1236.32326,0.07109
1234.39452,0.07096
1232.46578,0.07091
1230.53704,0.07089
1228.60830,0.07082
1226.67956,0.07070
1224.75082,0.07070
1222.82207,0.07084
1220.89333,0.07077
1218.96459,0.07029
1217.03585,0.06962
1215.10711,0.06900
1213.17837,0.06841
1211.24963,0.06780
1209.32088,0.06719
1207.39214,0.06671
1205.46340,0.06664
1203.53466,0.06739
1201.60592,0.06915
1199.67718,0.07160
1197.74844,0.07389
1195.81969,0.07503
1193.89095,0.07494
1191.96221,0.07441
1190.03347,0.07399
1188.10473,0.07360
1186.17599,0.07314
1184.24725,0.07277
1182.31850,0.07283
1180.38976,0.07335
1178.46102,0.07396
1176.53228,0.07436
1174.60354,0.07448
1172.67480,0.07441
1170.74606,0.07433
1168.81731,0.07423
1166.88857,0.07392
1164.95983,0.07345
1163.03109,0.07309
1161.10235,0.07288
1159.17361,0.07260
1157.24487,0.07209
1155.31612,0.07153
1153.38738,0.07128
1151.45864,0.07131
1149.52990,0.07133
1147.60116,0.07134
1145.67242,0.07146
1143.74368,0.07167
1141.81493,0.07193
1139.88619,0.07208
1137.95745,0.07209
1136.02871,0.07214
1134.09997,0.07208
1132.17123,0.07187
1130.24249,0.07168
1128.31374,0.07141
1126.38500,0.07110
1124.45626,0.07098
1122.52752,0.07106
1120.59878,0.07118
1118.67004,0.07114
1116.74130,0.07092
1114.81255,0.07061
1112.88381,0.07023
1110.95507,0.06989
1109.02633,0.06968
1107.09759,0.06967
1105.16885,0.06999
1103.24011,0.07039
1101.31136,0.07033
1099.38262,0.06992
1097.45388,0.06963
1095.52514,0.06957
1093.59640,0.06961
1091.66766,0.06962
1089.73891,0.06951
1087.81017,0.06924
1085.88143,0.06916
1083.95269,0.06936
1082.02395,0.06929
1080.09521,0.06879
1078.16647,0.06825
1076.23772,0.06807
1074.30898,0.06827
1072.38024,0.06856
1070.45150,0.06882
1068.52276,0.06884
1066.59402,0.06841
1064.66528,0.06786
1062.73653,0.06776
1060.80779,0.06807
1058.87905,0.06836
1056.95031,0.06850
1055.02157,0.06858
1053.09283,0.06840
1051.16409,0.06804
1049.23534,0.06786
1047.30660,0.06782
1045.37786,0.06775
1043.44912,0.06774
1041.52038,0.06781
1039.59164,0.06786
1037.66290,0.06783
1035.73415,0.06780
1033.80541,0.06792
1031.87667,0.06810
1029.94793,0.06818
1028.01919,0.06823
1026.09045,0.06820
1024.16171,0.06799
1022.23296,0.06785
1020.30422,0.06802
1018.37548,0.06839
1016.44674,0.06854
1014.51800,0.06841
1012.58926,0.06836
1010.66052,0.06833
1008.73177,0.06797
1006.80303,0.06756
1004.87429,0.06749
1002.94555,0.06761
1001.01681,0.06747
999.08807,0.06713
997.15933,0.06698
995.23058,0.06709
993.30184,0.06729
991.37310,0.06738
989.44436,0.06725
987.51562,0.06700
985.58688,0.06669
983.65814,0.06643
981.72939,0.06632
979.80065,0.06632
977.87191,0.06629
975.94317,0.06609
974.01443,0.06578
972.08569,0.06566
970.15695,0.06579
968.22820,0.06594
966.29946,0.06607
964.37072,0.06608
962.44198,0.06579
960.51324,0.06553
958.58450,0.06556
956.65576,0.06554
954.72701,0.06533
952.79827,0.06497
950.86953,0.06455
948.94079,0.06434
947.01205,0.06436
945.08331,0.06437
943.15457,0.06435
941.22582,0.06440
939.29708,0.06481
937.36834,0.06569
935.43960,0.06658
933.51086,0.06703
931.58212,0.06719
929.65338,0.06730
927.72463,0.06737
925.79589,0.06729
923.86715,0.06711
921.93841,0.06689
920.00967,0.06661
918.08093,0.06639
916.15219,0.06639
914.22344,0.06652
912.29470,0.06651
910.36596,0.06638
908.43722,0.06629
906.50848,0.06615
904.57974,0.06580
902.65100,0.06549
900.72225,0.06559
898.79351,0.06586
896.86477,0.06584
894.93603,0.06570
893.00729,0.06576
891.07855,0.06583
889.14980,0.06557
887.22106,0.06521
885.29232,0.06511
883.36358,0.06503
881.43484,0.06492
879.50610,0.06500
877.57736,0.06515
875.64861,0.06523
873.71987,0.06530
871.79113,0.06525
869.86239,0.06483
867.93365,0.06417
866.00491,0.06379
864.07617,0.06404
862.14742,0.06451
860.21868,0.06451
858.28994,0.06418
856.36120,0.06395
854.43246,0.06381
852.50372,0.06362
850.57498,0.06329
848.64623,0.06313
846.71749,0.06340
844.78875,0.06385
842.86001,0.06410
840.93127,0.06392
839.00253,0.06342
837.07379,0.06295
835.14504,0.06286
833.21630,0.06320
831.28756,0.06353
829.35882,0.06333
827.43008,0.06267
825.50134,0.06204
823.57260,0.06160
821.64385,0.06145
819.71511,0.06168
817.78637,0.06195
815.85763,0.06194
813.92889,0.06187
812.00015,0.06199
810.07141,0.06201
808.14266,0.06169
806.21392,0.06133
804.28518,0.06095
802.35644,0.06046
800.42770,0.06012
798.49896,0.06032
796.57022,0.06083
794.64147,0.06094
792.71273,0.06048
790.78399,0.06004
788.85525,0.05988
786.92651,0.05976
784.99777,0.05964
783.06903,0.05952
781.14028,0.05929
779.21154,0.05893
777.28280,0.05845
775.35406,0.05803
773.42532,0.05781
771.49658,0.05760
769.56784,0.05741
767.63909,0.05726
765.71035,0.05717
763.78161,0.05739
761.85287,0.05777
759.92413,0.05786
757.99539,0.05763
756.06665,0.05749
754.13790,0.05743
752.20916,0.05713
750.28042,0.05665
748.35168,0.05608
746.42294,0.05543
744.49420,0.05489
742.56546,0.05455
740.63671,0.05429
738.70797,0.05419
736.77923,0.05424
734.85049,0.05412
732.92175,0.05392
730.99301,0.05431
729.06427,0.05546
727.13552,0.05659
725.20678,0.05722
723.27804,0.05754
721.34930,0.05760
719.42056,0.05722
717.49182,0.05642
715.56308,0.05569
713.63433,0.05560
711.70559,0.05576
709.77685,0.05541
707.84811,0.05477
705.91937,0.05427
703.99063,0.05405
702.06189,0.05420
700.13314,0.05464
698.20440,0.05534
696.27566,0.05635
694.34692,0.05730
692.41818,0.05828
690.48944,0.05988
688.56069,0.06196
686.63195,0.06382
684.70321,0.06500
682.77447,0.06567
680.84573,0.06618
678.91699,0.06682
676.98825,0.06796
675.05950,0.06912
673.13076,0.06938
671.20202,0.06917
669.27328,0.06945
667.34454,0.06987
665.41580,0.06957
663.48706,0.06901
661.55831,0.06888
659.62957,0.06906
657.70083,0.06931
655.77209,0.06934
653.84335,0.06899
651.91461,0.06870
649.98587,0.06857
648.05712,0.06821
646.12838,0.06778
644.19964,0.06735
642.27090,0.06671
640.34216,0.06609
638.41342,0.06558
636.48468,0.06515
634.55593,0.06525
632.62719,0.06568
630.69845,0.06577
628.76971,0.06587
626.84097,0.06603
624.91223,0.06582
622.98349,0.06570
621.05474,0.06585
619.12600,0.06576
617.19726,0.06469
615.26852,0.06300
613.33978,0.06242
611.41104,0.06278
609.48230,0.06303
607.55355,0.06321
605.62481,0.06321
603.69607,0.06281
601.76733,0.06185
599.83859,0.06089
