7497.01799,0.59071
7495.08925,0.58858
7493.16050,0.58909
7491.23176,0.59106
7489.30302,0.59577
7487.37428,0.59524
7485.44554,0.58705
7483.51680,0.58371
7481.58806,0.58743
7479.65931,0.58821
7477.73057,0.58487
7475.80183,0.58376
7473.87309,0.58714
7471.94435,0.59182
7470.01561,0.59302
7468.08686,0.59178
7466.15812,0.59226
7464.22938,0.59203
7462.30064,0.58874
7460.37190,0.58399
7458.44316,0.57831
7456.51442,0.57670
7454.58567,0.58307
7452.65693,0.59013
7450.72819,0.59157
7448.79945,0.59166
7446.87071,0.59475
7444.94197,0.59668
7443.01323,0.59246
7441.08448,0.58721
7439.15574,0.58743
7437.22700,0.58897
7435.29826,0.58588
7433.36952,0.58084
7431.44078,0.57913
7429.51204,0.57985
7427.58329,0.58007
7425.65455,0.58108
7423.72581,0.58169
7421.79707,0.57976
7419.86833,0.57901
7417.93959,0.57887
7416.01085,0.57614
7414.08210,0.57534
7412.15336,0.57786
7410.22462,0.57980
7408.29588,0.58209
7406.36714,0.58417
7404.43840,0.58201
7402.50966,0.57868
7400.58091,0.58057
7398.65217,0.58563
7396.72343,0.58656
7394.79469,0.58298
7392.86595,0.58063
7390.93721,0.57977
7389.00847,0.57605
7387.07972,0.57141
7385.15098,0.57153
7383.22224,0.57564
7381.29350,0.57839
7379.36476,0.57798
7377.43602,0.57588
7375.50728,0.57403
7373.57853,0.57406
7371.64979,0.57435
7369.72105,0.57247
7367.79231,0.56989
7365.86357,0.56804
7363.93483,0.56615
7362.00609,0.56474
7360.07734,0.56387
7358.14860,0.56215
7356.21986,0.56146
7354.29112,0.56288
7352.36238,0.56225
7350.43364,0.55817
7348.50490,0.55312
7346.57615,0.54852
7344.64741,0.54649
7342.71867,0.54805
7340.78993,0.55077
7338.86119,0.55245
7336.93245,0.55163
7335.00371,0.54839
7333.07496,0.54606
7331.14622,0.54295
7329.21748,0.53597
7327.28874,0.53070
7325.36000,0.52983
7323.43126,0.53112
7321.50252,0.53415
7319.57377,0.53436
7317.64503,0.53068
7315.71629,0.52901
7313.78755,0.52767
7311.85881,0.52183
7309.93007,0.51491
7308.00133,0.51225
7306.07258,0.51567
7304.14384,0.52093
7302.21510,0.51934
7300.28636,0.51164
7298.35762,0.50678
7296.42888,0.50492
7294.50014,0.50256
7292.57139,0.50337
7290.64265,0.50769
7288.71391,0.50832
7286.78517,0.50261
7284.85643,0.49733
7282.92769,0.49752
7280.99894,0.49832
7279.07020,0.49612
7277.14146,0.49356
7275.21272,0.48951
7273.28398,0.48290
7271.35524,0.47894
7269.42650,0.47893
7267.49775,0.47839
7265.56901,0.47450
7263.64027,0.46673
7261.71153,0.45867
7259.78279,0.45610
7257.85405,0.45661
7255.92531,0.45466
7253.99656,0.45146
7252.06782,0.44952
7250.13908,0.44843
7248.21034,0.44598
7246.28160,0.44097
7244.35286,0.43550
7242.42412,0.43238
7240.49537,0.43371
7238.56663,0.43738
7236.63789,0.43609
7234.70915,0.42728
7232.78041,0.41903
7230.85167,0.41966
7228.92293,0.42488
7226.99418,0.42607
7225.06544,0.42364
7223.13670,0.42208
7221.20796,0.42267
7219.27922,0.42364
7217.35048,0.42281
7215.42174,0.42038
7213.49299,0.41856
7211.56425,0.41870
7209.63551,0.41779
7207.70677,0.41317
7205.77803,0.40939
7203.84929,0.41061
7201.92055,0.41353
7199.99180,0.41421
7198.06306,0.41250
7196.13432,0.41034
7194.20558,0.41007
7192.27684,0.41234
7190.34810,0.41601
7188.41936,0.41876
7186.49061,0.41975
7184.56187,0.41958
7182.63313,0.41874
7180.70439,0.42029
7178.77565,0.42500
7176.84691,0.42759
7174.91817,0.42648
7172.98942,0.42559
7171.06068,0.42702
7169.13194,0.42941
7167.20320,0.42998
7165.27446,0.42684
7163.34572,0.42232
7161.41698,0.42115
7159.48823,0.42310
7157.55949,0.42341
7155.63075,0.42132
7153.70201,0.41980
7151.77327,0.41992
7149.84453,0.42020
7147.91579,0.41680
7145.98704,0.40979
7144.05830,0.40664
7142.12956,0.40979
7140.20082,0.41399
7138.27208,0.41543
7136.34334,0.41313
7134.41460,0.40901
7132.48585,0.40820
7130.55711,0.41226
7128.62837,0.41472
7126.69963,0.41111
7124.77089,0.40633
7122.84215,0.40445
7120.91341,0.40328
7118.98466,0.40267
7117.05592,0.40564
7115.12718,0.40953
7113.19844,0.40939
7111.26970,0.40723
7109.34096,0.40563
7107.41222,0.40353
7105.48347,0.40146
7103.55473,0.40079
7101.62599,0.40137
7099.69725,0.40201
7097.76851,0.40089
7095.83977,0.39950
7093.91103,0.40111
7091.98228,0.40273
7090.05354,0.40028
7088.12480,0.39718
7086.19606,0.39788
7084.26732,0.40082
7082.33858,0.40175
7080.40983,0.40147
7078.48109,0.40397
7076.55235,0.40646
7074.62361,0.40449
7072.69487,0.40101
7070.76613,0.39902
7068.83739,0.39693
7066.90864,0.39577
7064.97990,0.39819
7063.05116,0.40185
7061.12242,0.40306
7059.19368,0.40219
7057.26494,0.40187
7055.33620,0.40213
7053.40745,0.40117
7051.47871,0.40012
7049.54997,0.40034
7047.62123,0.40078
7045.69249,0.40089
7043.76375,0.40176
7041.83501,0.40394
7039.90626,0.40416
7037.97752,0.40098
7036.04878,0.39897
7034.12004,0.40017
7032.19130,0.40230
7030.26256,0.40281
7028.33382,0.40066
7026.40507,0.39897
7024.47633,0.40063
7022.54759,0.40410
7020.61885,0.40770
7018.69011,0.40967
7016.76137,0.40603
7014.83263,0.39844
7012.90388,0.39510
7010.97514,0.39822
7009.04640,0.40169
7007.11766,0.40141
7005.18892,0.39925
7003.26018,0.39920
7001.33144,0.40094
6999.40269,0.40035
6997.47395,0.39811
6995.54521,0.39834
6993.61647,0.40160
6991.68773,0.40624
6989.75899,0.40940
6987.83025,0.40885
6985.90150,0.40711
6983.97276,0.40780
6982.04402,0.41040
6980.11528,0.41299
6978.18654,0.41484
6976.25780,0.41476
6974.32906,0.41316
6972.40031,0.41179
6970.47157,0.40930
6968.54283,0.40521
6966.61409,0.40343
6964.68535,0.40639
6962.75661,0.41149
6960.82787,0.41444
6958.89912,0.41401
6956.97038,0.41246
6955.04164,0.41133
6953.11290,0.41026
6951.18416,0.41086
6949.25542,0.41383
6947.32668,0.41552
6945.39793,0.41398
6943.46919,0.41247
6941.54045,0.41358
6939.61171,0.41616
6937.68297,0.41802
6935.75423,0.41748
6933.82549,0.41504
6931.89674,0.41329
6929.96800,0.41322
6928.03926,0.41468
6926.11052,0.41725
6924.18178,0.42001
6922.25304,0.42209
6920.32430,0.42243
6918.39555,0.42132
6916.46681,0.42056
6914.53807,0.42123
6912.60933,0.42334
6910.68059,0.42722
6908.75185,0.43205
6906.82311,0.43406
6904.89436,0.43172
6902.96562,0.42782
6901.03688,0.42442
6899.10814,0.42191
6897.17940,0.42077
6895.25066,0.42137
6893.32192,0.42329
6891.39317,0.42505
6889.46443,0.42572
6887.53569,0.42654
6885.60695,0.42827
6883.67821,0.42964
6881.74947,0.42955
6879.82072,0.42836
6877.89198,0.42784
6875.96324,0.42912
6874.03450,0.43054
6872.10576,0.43030
6870.17702,0.43057
6868.24828,0.43223
6866.31953,0.43135
6864.39079,0.42840
6862.46205,0.42746
6860.53331,0.42760
6858.60457,0.42709
6856.67583,0.42759
6854.74709,0.42994
6852.81834,0.43169
6850.88960,0.43105
6848.96086,0.42897
6847.03212,0.42736
6845.10338,0.42704
6843.17464,0.42698
6841.24590,0.42635
6839.31715,0.42610
6837.38841,0.42644
6835.45967,0.42613
6833.53093,0.42626
6831.60219,0.42774
6829.67345,0.42764
6827.74471,0.42667
6825.81596,0.42844
6823.88722,0.43085
6821.95848,0.43070
6820.02974,0.42958
6818.10100,0.42913
6816.17226,0.42840
6814.24352,0.42642
6812.31477,0.42422
6810.38603,0.42447
6808.45729,0.42735
6806.52855,0.42961
6804.59981,0.42892
6802.67107,0.42591
6800.74233,0.42346
6798.81358,0.42372
6796.88484,0.42630
6794.95610,0.42887
6793.02736,0.42826
6791.09862,0.42414
6789.16988,0.41897
6787.24114,0.41528
6785.31239,0.41439
6783.38365,0.41481
6781.45491,0.41445
6779.52617,0.41361
6777.59743,0.41245
6775.66869,0.40916
6773.73995,0.40460
6771.81120,0.40317
6769.88246,0.40546
6767.95372,0.40682
6766.02498,0.40450
6764.09624,0.40115
6762.16750,0.40011
6760.23876,0.40096
6758.31001,0.40090
6756.38127,0.39929
6754.45253,0.39810
6752.52379,0.39721
6750.59505,0.39529
6748.66631,0.39287
6746.73757,0.39174
6744.80882,0.39318
6742.88008,0.39506
6740.95134,0.39457
6739.02260,0.39308
6737.09386,0.39319
6735.16512,0.39412
6733.23638,0.39265
6731.30763,0.38891
6729.37889,0.38658
6727.45015,0.38713
6725.52141,0.38895
6723.59267,0.38955
6721.66393,0.38885
6719.73519,0.38906
6717.80644,0.38864
6715.87770,0.38539
6713.94896,0.38189
6712.02022,0.37974
6710.09148,0.37822
6708.16274,0.37722
6706.23400,0.37686
6704.30525,0.37766
6702.37651,0.37865
6700.44777,0.37866
6698.51903,0.37879
6696.59029,0.37839
6694.66155,0.37625
6692.73281,0.37363
6690.80406,0.37118
6688.87532,0.36947
6686.94658,0.36947
6685.01784,0.37023
6683.08910,0.37064
6681.16036,0.37043
6679.23161,0.36889
6677.30287,0.36707
6675.37413,0.36696
6673.44539,0.36644
6671.51665,0.36311
6669.58791,0.35995
6667.65917,0.35929
6665.73042,0.35903
6663.80168,0.35765
6661.87294,0.35534
6659.94420,0.35295
6658.01546,0.35126
6656.08672,0.34799
6654.15798,0.34245
6652.22923,0.33848
6650.30049,0.33667
6648.37175,0.33525
6646.44301,0.33494
6644.51427,0.33533
6642.58553,0.33374
6640.65679,0.32968
6638.72804,0.32518
6636.79930,0.32094
6634.87056,0.31749
6632.94182,0.31552
6631.01308,0.31312
6629.08434,0.30878
6627.15560,0.30398
6625.22685,0.30114
6623.29811,0.30061
6621.36937,0.29991
6619.44063,0.29705
6617.51189,0.29366
6615.58315,0.29299
6613.65441,0.29420
6611.72566,0.29401
6609.79692,0.29201
6607.86818,0.28990
6605.93944,0.28963
6604.01070,0.29119
6602.08196,0.29239
6600.15322,0.29260
6598.22447,0.29315
6596.29573,0.29376
6594.36699,0.29363
6592.43825,0.29464
6590.50951,0.29656
6588.58077,0.29665
6586.65203,0.29551
6584.72328,0.29375
6582.79454,0.29149
6580.86580,0.29137
6578.93706,0.29327
6577.00832,0.29395
6575.07958,0.29234
6573.15084,0.29038
6571.22209,0.28992
6569.29335,0.29039
6567.36461,0.29052
6565.43587,0.28957
6563.50713,0.28768
6561.57839,0.28682
6559.64965,0.28709
6557.72090,0.28543
6555.79216,0.28112
6553.86342,0.27674
6551.93468,0.27410
6550.00594,0.27242
6548.07720,0.27016
6546.14846,0.26698
6544.21971,0.26399
6542.29097,0.26215
6540.36223,0.26017
6538.43349,0.25709
6536.50475,0.25411
6534.57601,0.25222
6532.64727,0.25124
6530.71852,0.24957
6528.78978,0.24661
6526.86104,0.24423
6524.93230,0.24295
6523.00356,0.24122
6521.07482,0.23787
6519.14608,0.23433
6517.21733,0.23325
6515.28859,0.23336
6513.35985,0.23226
6511.43111,0.23133
6509.50237,0.23187
6507.57363,0.23273
6505.64489,0.23290
6503.71614,0.23234
6501.78740,0.23131
6499.85866,0.23073
6497.92992,0.23121
6496.00118,0.23160
6494.07244,0.23176
6492.14370,0.23287
6490.21495,0.23427
6488.28621,0.23517
6486.35747,0.23597
6484.42873,0.23675
6482.49999,0.23742
6480.57125,0.23864
6478.64250,0.24169
6476.71376,0.24529
6474.78502,0.24765
6472.85628,0.25049
6470.92754,0.25457
6468.99880,0.25970
6467.07006,0.26716
6465.14131,0.27600
6463.21257,0.28431
6461.28383,0.29197
6459.35509,0.29931
6457.42635,0.30716
6455.49761,0.31610
6453.56887,0.32504
6451.64012,0.33306
6449.71138,0.34065
6447.78264,0.34768
6445.85390,0.35298
6443.92516,0.35617
6441.99642,0.35845
6440.06768,0.36126
6438.13893,0.36451
6436.21019,0.36748
6434.28145,0.37017
6432.35271,0.37236
6430.42397,0.37374
6428.49523,0.37481
6426.56649,0.37567
6424.63774,0.37613
6422.70900,0.37685
6420.78026,0.37788
6418.85152,0.37853
6416.92278,0.37863
6414.99404,0.37833
6413.06530,0.37822
6411.13655,0.37837
6409.20781,0.37718
6407.27907,0.37407
6405.35033,0.37107
6403.42159,0.36984
6401.49285,0.36953
6399.56411,0.36850
6397.63536,0.36618
6395.70662,0.36263
6393.77788,0.35811
6391.84914,0.35348
6389.92040,0.35029
6387.99166,0.34884
6386.06292,0.34677
6384.13417,0.34305
6382.20543,0.33903
6380.27669,0.33592
6378.34795,0.33491
6376.41921,0.33479
6374.49047,0.33262
6372.56173,0.32925
6370.63298,0.32663
6368.70424,0.32441
6366.77550,0.32252
6364.84676,0.32158
6362.91802,0.32081
6360.98928,0.31849
6359.06054,0.31539
6357.13179,0.31361
6355.20305,0.31318
6353.27431,0.31303
6351.34557,0.31191
6349.41683,0.30957
6347.48809,0.30921
6345.55935,0.31342
6343.63060,0.31892
6341.70186,0.32170
6339.77312,0.32305
6337.84438,0.32450
6335.91564,0.32514
6333.98690,0.32577
6332.05816,0.32785
6330.12941,0.33112
6328.20067,0.33505
6326.27193,0.33957
6324.34319,0.34414
6322.41445,0.34803
6320.48571,0.35113
6318.55697,0.35417
6316.62822,0.35845
6314.69948,0.36305
6312.77074,0.36600
6310.84200,0.36867
6308.91326,0.37234
6306.98452,0.37518
6305.05578,0.37649
6303.12703,0.37791
6301.19829,0.37978
6299.26955,0.38112
6297.34081,0.38213
6295.41207,0.38264
6293.48333,0.38216
6291.55459,0.38156
6289.62584,0.38074
6287.69710,0.37840
6285.76836,0.37505
6283.83962,0.37221
6281.91088,0.36977
6279.98214,0.36745
6278.05339,0.36585
6276.12465,0.36454
6274.19591,0.36273
6272.26717,0.36019
6270.33843,0.35673
6268.40969,0.35348
6266.48095,0.35143
6264.55220,0.34965
6262.62346,0.34816
6260.69472,0.34796
6258.76598,0.34811
6256.83724,0.34671
6254.90850,0.34332
6252.97976,0.33956
6251.05101,0.33782
6249.12227,0.33863
6247.19353,0.34026
6245.26479,0.34124
6243.33605,0.34138
6241.40731,0.34076
6239.47857,0.34037
6237.54982,0.34128
6235.62108,0.34225
6233.69234,0.34152
6231.76360,0.33982
6229.83486,0.33982
6227.90612,0.34243
6225.97738,0.34509
6224.04863,0.34635
6222.11989,0.34802
6220.19115,0.35101
6218.26241,0.35390
6216.33367,0.35578
6214.40493,0.35766
6212.47619,0.36067
6210.54744,0.36457
6208.61870,0.36901
6206.68996,0.37325
6204.76122,0.37618
6202.83248,0.37759
6200.90374,0.37838
6198.97500,0.38007
6197.04625,0.38217
6195.11751,0.38349
6193.18877,0.38517
6191.26003,0.38805
6189.33129,0.39156
6187.40255,0.39495
6185.47381,0.39755
6183.54506,0.39964
6181.61632,0.40167
6179.68758,0.40398
6177.75884,0.40786
6175.83010,0.41311
6173.90136,0.41759
6171.97262,0.42097
6170.04387,0.42521
6168.11513,0.43121
6166.18639,0.43717
6164.25765,0.44154
6162.32891,0.44569
6160.40017,0.45013
6158.47143,0.45388
6156.54268,0.45742
6154.61394,0.46049
6152.68520,0.46233
6150.75646,0.46428
6148.82772,0.46740
6146.89898,0.47076
6144.97024,0.47342
6143.04149,0.47549
6141.11275,0.47743
6139.18401,0.47906
6137.25527,0.48011
6135.32653,0.48112
6133.39779,0.48312
6131.46905,0.48620
6129.54030,0.48923
6127.61156,0.49069
6125.68282,0.48985
6123.75408,0.48827
6121.82534,0.48922
6119.89660,0.49273
6117.96786,0.49519
6116.03911,0.49569
6114.11037,0.49601
6112.18163,0.49655
6110.25289,0.49726
6108.32415,0.49808
6106.39541,0.49854
6104.46667,0.49970
6102.53792,0.50210
6100.60918,0.50361
6098.68044,0.50336
6096.75170,0.50273
6094.82296,0.50262
6092.89422,0.50289
6090.96548,0.50343
6089.03673,0.50420
6087.10799,0.50452
6085.17925,0.50467
6083.25051,0.50515
6081.32177,0.50461
6079.39303,0.50253
6077.46428,0.50043
6075.53554,0.49968
6073.60680,0.49975
6071.67806,0.49978
6069.74932,0.49990
6067.82058,0.49954
6065.89184,0.49812
6063.96309,0.49642
6062.03435,0.49558
6060.10561,0.49600
6058.17687,0.49714
6056.24813,0.49812
6054.31939,0.49886
6052.39065,0.49899
6050.46190,0.49737
6048.53316,0.49525
6046.60442,0.49473
6044.67568,0.49501
6042.74694,0.49450
6040.81820,0.49365
6038.88946,0.49406
6036.96071,0.49539
6035.03197,0.49609
6033.10323,0.49589
6031.17449,0.49497
6029.24575,0.49353
6027.31701,0.49246
6025.38827,0.49190
6023.45952,0.49036
6021.53078,0.48776
6019.60204,0.48565
6017.67330,0.48451
6015.74456,0.48447
6013.81582,0.48497
6011.88708,0.48495
6009.95833,0.48468
6008.02959,0.48430
6006.10085,0.48283
6004.17211,0.47980
6002.24337,0.47678
6000.31463,0.47606
5998.38589,0.47708
5996.45714,0.47690
5994.52840,0.47453
5992.59966,0.47162
5990.67092,0.46942
5988.74218,0.46802
5986.81344,0.46723
5984.88470,0.46646
5982.95595,0.46494
5981.02721,0.46286
5979.09847,0.46063
5977.16973,0.45825
5975.24099,0.45632
5973.31225,0.45452
5971.38351,0.45178
5969.45476,0.44907
5967.52602,0.44716
5965.59728,0.44508
5963.66854,0.44247
5961.73980,0.43942
5959.81106,0.43608
5957.88232,0.43308
5955.95357,0.43021
5954.02483,0.42754
5952.09609,0.42567
5950.16735,0.42310
5948.23861,0.41823
5946.30987,0.41204
5944.38113,0.40611
5942.45238,0.40121
5940.52364,0.39685
5938.59490,0.39180
5936.66616,0.38648
5934.73742,0.38154
5932.80868,0.37613
5930.87994,0.36994
5928.95119,0.36298
5927.02245,0.35502
5925.09371,0.34682
5923.16497,0.33876
5921.23623,0.33064
5919.30749,0.32279
5917.37875,0.31500
5915.45000,0.30665
5913.52126,0.29768
5911.59252,0.28793
5909.66378,0.27719
5907.73504,0.26613
5905.80630,0.25572
5903.87756,0.24656
5901.94881,0.23806
5900.02007,0.22867
5898.09133,0.21818
5896.16259,0.20810
5894.23385,0.19921
5892.30511,0.19049
5890.37637,0.18091
5888.44762,0.17104
5886.51888,0.16166
5884.59014,0.15268
5882.66140,0.14387
5880.73266,0.13541
5878.80392,0.12820
5876.87517,0.12276
5874.94643,0.11814
5873.01769,0.11242
5871.08895,0.10504
5869.16021,0.09839
5867.23147,0.09359
5865.30273,0.08826
5863.37398,0.08218
5861.44524,0.07728
5859.51650,0.07317
5857.58776,0.06897
5855.65902,0.06478
5853.73028,0.05999
5851.80154,0.05416
5849.87279,0.04801
5847.94405,0.04309
5846.01531,0.04063
5844.08657,0.03979
5842.15783,0.03854
5840.22909,0.03692
5838.30035,0.03615
5836.37160,0.03602
5834.44286,0.03585
5832.51412,0.03583
5830.58538,0.03598
5828.65664,0.03604
5826.72790,0.03578
5824.79916,0.03503
5822.87041,0.03438
5820.94167,0.03465
5819.01293,0.03587
5817.08419,0.03745
5815.15545,0.03910
5813.22671,0.04122
5811.29797,0.04354
5809.36922,0.04513
5807.44048,0.04620
5805.51174,0.04780
5803.58300,0.05022
5801.65426,0.05307
5799.72552,0.05598
5797.79678,0.05822
5795.86803,0.05930
5793.93929,0.06011
5792.01055,0.06172
5790.08181,0.06394
5788.15307,0.06621
5786.22433,0.06874
5784.29559,0.07161
5782.36684,0.07458
5780.43810,0.07748
5778.50936,0.08001
5776.58062,0.08232
5774.65188,0.08443
5772.72314,0.08606
5770.79440,0.08781
5768.86565,0.08989
5766.93691,0.09146
5765.00817,0.09226
5763.07943,0.09272
5761.15069,0.09286
5759.22195,0.09225
5757.29321,0.09082
5755.36446,0.08945
5753.43572,0.08844
5751.50698,0.08687
5749.57824,0.08486
5747.64950,0.08326
5745.72076,0.08174
5743.79202,0.07971
5741.86327,0.07714
5739.93453,0.07434
5738.00579,0.07178
5736.07705,0.06930
5734.14831,0.06682
5732.21957,0.06521
5730.29083,0.06451
5728.36208,0.06315
5726.43334,0.06044
5724.50460,0.05811
5722.57586,0.05723
5720.64712,0.05648
5718.71838,0.05486
5716.78964,0.05337
5714.86089,0.05322
5712.93215,0.05397
5711.00341,0.05432
5709.07467,0.05390
5707.14593,0.05340
5705.21719,0.05365
5703.28845,0.05459
5701.35970,0.05571
5699.43096,0.05683
5697.50222,0.05771
5695.57348,0.05848
5693.64474,0.05978
5691.71600,0.06157
5689.78726,0.06346
5687.85851,0.06551
5685.92977,0.06782
5684.00103,0.07041
5682.07229,0.07323
5680.14355,0.07630
5678.21481,0.07976
5676.28606,0.08277
5674.35732,0.08489
5672.42858,0.08751
5670.49984,0.09109
5668.57110,0.09491
5666.64236,0.09881
5664.71362,0.10243
5662.78487,0.10540
5660.85613,0.10813
5658.92739,0.11100
5656.99865,0.11381
5655.06991,0.11660
5653.14117,0.11990
5651.21243,0.12367
5649.28368,0.12704
5647.35494,0.12979
5645.42620,0.13253
5643.49746,0.13566
5641.56872,0.13945
5639.63998,0.14353
5637.71124,0.14679
5635.78249,0.14921
5633.85375,0.15200
5631.92501,0.15503
5629.99627,0.15741
5628.06753,0.15958
5626.13879,0.16204
5624.21005,0.16447
5622.28130,0.16646
5620.35256,0.16791
5618.42382,0.16944
5616.49508,0.17130
5614.56634,0.17271
5612.63760,0.17322
5610.70886,0.17337
5608.78011,0.17380
5606.85137,0.17473
5604.92263,0.17619
5602.99389,0.17768
5601.06515,0.17821
5599.13641,0.17809
5597.20767,0.17860
5595.27892,0.17969
5593.35018,0.18084
5591.42144,0.18197
5589.49270,0.18264
5587.56396,0.18285
5585.63522,0.18316
5583.70648,0.18398
5581.77773,0.18571
5579.84899,0.18804
5577.92025,0.18974
5575.99151,0.19038
5574.06277,0.19096
5572.13403,0.19219
5570.20529,0.19403
5568.27654,0.19560
5566.34780,0.19601
5564.41906,0.19610
5562.49032,0.19661
5560.56158,0.19703
5558.63284,0.19746
5556.70410,0.19874
5554.77535,0.20079
5552.84661,0.20190
5550.91787,0.20164
5548.98913,0.20187
5547.06039,0.20311
5545.13165,0.20394
5543.20291,0.20421
5541.27416,0.20505
5539.34542,0.20666
5537.41668,0.20838
5535.48794,0.20955
5533.55920,0.20997
5531.63046,0.21009
5529.70172,0.21038
5527.77297,0.21067
5525.84423,0.21072
5523.91549,0.21131
5521.98675,0.21322
5520.05801,0.21543
5518.12927,0.21694
5516.20053,0.21825
5514.27178,0.21960
5512.34304,0.22065
5510.41430,0.22156
5508.48556,0.22232
5506.55682,0.22282
5504.62808,0.22351
5502.69934,0.22457
5500.77059,0.22576
5498.84185,0.22679
5496.91311,0.22723
5494.98437,0.22707
5493.05563,0.22738
5491.12689,0.22893
5489.19815,0.23091
5487.26940,0.23251
5485.34066,0.23385
5483.41192,0.23500
5481.48318,0.23616
5479.55444,0.23764
5477.62570,0.23868
5475.69695,0.23906
5473.76821,0.24004
5471.83947,0.24135
5469.91073,0.24187
5467.98199,0.24200
5466.05325,0.24220
5464.12451,0.24211
5462.19576,0.24169
5460.26702,0.24190
5458.33828,0.24293
5456.40954,0.24431
5454.48080,0.24608
5452.55206,0.24737
5450.62332,0.24758
5448.69457,0.24745
5446.76583,0.24742
5444.83709,0.24776
5442.90835,0.24877
5440.97961,0.25059
5439.05087,0.25283
5437.12213,0.25405
5435.19338,0.25446
5433.26464,0.25548
5431.33590,0.25587
5429.40716,0.25520
5427.47842,0.25574
5425.54968,0.25735
5423.62094,0.25840
5421.69219,0.25909
5419.76345,0.25979
5417.83471,0.25969
5415.90597,0.25835
5413.97723,0.25738
5412.04849,0.25857
5410.11975,0.26115
5408.19100,0.26369
5406.26226,0.26637
5404.33352,0.26964
5402.40478,0.27300
5400.47604,0.27575
5398.54730,0.27755
5396.61856,0.27849
5394.68981,0.27937
5392.76107,0.28152
5390.83233,0.28502
5388.90359,0.28789
5386.97485,0.28951
5385.04611,0.29179
5383.11737,0.29525
5381.18862,0.29774
5379.25988,0.29780
5377.33114,0.29690
5375.40240,0.29777
5373.47366,0.30047
5371.54492,0.30299
5369.61618,0.30473
5367.68743,0.30590
5365.75869,0.30622
5363.82995,0.30638
5361.90121,0.30756
5359.97247,0.30936
5358.04373,0.31058
5356.11499,0.31051
5354.18624,0.31004
5352.25750,0.31076
5350.32876,0.31157
5348.40002,0.31070
5346.47128,0.30897
5344.54254,0.30832
5342.61380,0.30901
5340.68505,0.30872
5338.75631,0.30724
5336.82757,0.30741
5334.89883,0.30888
5332.97009,0.30951
5331.04135,0.30905
5329.11261,0.30750
5327.18386,0.30584
5325.25512,0.30537
5323.32638,0.30523
5321.39764,0.30436
5319.46890,0.30267
5317.54016,0.30031
5315.61142,0.29777
5313.68267,0.29533
5311.75393,0.29260
5309.82519,0.28870
5307.89645,0.28357
5305.96771,0.27878
5304.03897,0.27466
5302.11023,0.26957
5300.18148,0.26332
5298.25274,0.25768
5296.32400,0.25309
5294.39526,0.24804
5292.46652,0.24196
5290.53778,0.23616
5288.60904,0.23172
5286.68029,0.22812
5284.75155,0.22489
5282.82281,0.22211
5280.89407,0.21951
5278.96533,0.21696
5277.03659,0.21459
5275.10784,0.21256
5273.17910,0.21057
5271.25036,0.20784
5269.32162,0.20423
5267.39288,0.20017
5265.46414,0.19621
5263.53540,0.19340
5261.60665,0.19218
5259.67791,0.19101
5257.74917,0.18823
5255.82043,0.18464
5253.89169,0.18193
5251.96295,0.17963
5250.03421,0.17630
5248.10546,0.17263
5246.17672,0.17009
5244.24798,0.16840
5242.31924,0.16636
5240.39050,0.16330
5238.46176,0.15994
5236.53302,0.15732
5234.60427,0.15485
5232.67553,0.15152
5230.74679,0.14786
5228.81805,0.14469
5226.88931,0.14194
5224.96057,0.13958
5223.03183,0.13736
5221.10308,0.13462
5219.17434,0.13157
5217.24560,0.12879
5215.31686,0.12634
5213.38812,0.12365
5211.45938,0.12013
5209.53064,0.11616
5207.60189,0.11237
5205.67315,0.10905
5203.74441,0.10613
5201.81567,0.10320
5199.88693,0.10008
5197.95819,0.09695
5196.02945,0.09405
5194.10070,0.09149
5192.17196,0.08918
5190.24322,0.08702
5188.31448,0.08489
5186.38574,0.08271
5184.45700,0.08049
5182.52826,0.07830
5180.59951,0.07632
5178.67077,0.07466
5176.74203,0.07334
5174.81329,0.07208
5172.88455,0.07039
5170.95581,0.06838
5169.02707,0.06678
5167.09832,0.06556
5165.16958,0.06432
5163.24084,0.06310
5161.31210,0.06188
5159.38336,0.06049
5157.45462,0.05926
5155.52588,0.05823
5153.59713,0.05718
5151.66839,0.05639
5149.73965,0.05584
5147.81091,0.05529
5145.88217,0.05483
5143.95343,0.05415
5142.02469,0.05325
5140.09594,0.05287
5138.16720,0.05304
5136.23846,0.05264
5134.30972,0.05158
5132.38098,0.05124
5130.45224,0.05190
5128.52350,0.05226
5126.59475,0.05216
5124.66601,0.05233
5122.73727,0.05246
5120.80853,0.05255
5118.87979,0.05327
5116.95105,0.05426
5115.02231,0.05487
5113.09356,0.05536
5111.16482,0.05609
5109.23608,0.05676
5107.30734,0.05715
5105.37860,0.05777
5103.44986,0.05887
5101.52112,0.05999
5099.59237,0.06083
5097.66363,0.06171
5095.73489,0.06296
5093.80615,0.06420
5091.87741,0.06510
5089.94867,0.06606
5088.01993,0.06739
5086.09118,0.06871
5084.16244,0.06952
5082.23370,0.07005
5080.30496,0.07110
5078.37622,0.07269
5076.44748,0.07434
5074.51873,0.07571
5072.58999,0.07637
5070.66125,0.07676
5068.73251,0.07773
5066.80377,0.07908
5064.87503,0.08038
5062.94629,0.08151
5061.01754,0.08253
5059.08880,0.08383
5057.16006,0.08531
5055.23132,0.08647
5053.30258,0.08737
5051.37384,0.08836
5049.44510,0.08958
5047.51635,0.09079
5045.58761,0.09166
5043.65887,0.09238
5041.73013,0.09335
5039.80139,0.09434
5037.87265,0.09491
5035.94391,0.09544
5034.01516,0.09618
5032.08642,0.09661
5030.15768,0.09674
5028.22894,0.09687
5026.30020,0.09700
5024.37146,0.09732
5022.44272,0.09786
5020.51397,0.09823
5018.58523,0.09813
5016.65649,0.09724
5014.72775,0.09582
5012.79901,0.09453
5010.87027,0.09336
5008.94153,0.09198
5007.01278,0.09050
5005.08404,0.08886
5003.15530,0.08653
5001.22656,0.08323
4999.29782,0.07940
4997.36908,0.07576
4995.44034,0.07251
4993.51159,0.06919
4991.58285,0.06549
4989.65411,0.06149
4987.72537,0.05717
4985.79663,0.05302
4983.86789,0.04949
4981.93915,0.04617
4980.01040,0.04279
4978.08166,0.03944
4976.15292,0.03630
4974.22418,0.03366
4972.29544,0.03154
4970.36670,0.03003
4968.43796,0.02943
4966.50921,0.02950
4964.58047,0.02946
4962.65173,0.02918
4960.72299,0.02934
4958.79425,0.02995
4956.86551,0.03038
4954.93677,0.03045
4953.00802,0.03019
4951.07928,0.02984
4949.15054,0.03016
4947.22180,0.03126
4945.29306,0.03248
4943.36432,0.03307
4941.43558,0.03246
4939.50683,0.03100
4937.57809,0.02997
4935.64935,0.03021
4933.72061,0.03119
4931.79187,0.03172
4929.86313,0.03121
4927.93439,0.03023
4926.00564,0.02960
4924.07690,0.02906
4922.14816,0.02811
4920.21942,0.02689
4918.29068,0.02575
4916.36194,0.02469
4914.43320,0.02315
4912.50445,0.02104
4910.57571,0.01894
4908.64697,0.01705
4906.71823,0.01514
4904.78949,0.01333
4902.86075,0.01216
4900.93201,0.01120
4899.00326,0.00963
4897.07452,0.00785
4895.14578,0.00658
4893.21704,0.00591
4891.28830,0.00545
4889.35956,0.00485
4887.43081,0.00432
4885.50207,0.00402
4883.57333,0.00369
4881.64459,0.00301
4879.71585,0.00213
4877.78711,0.00144
4875.85837,0.00127
4873.92962,0.00155
4872.00088,0.00180
4870.07214,0.00180
4868.14340,0.00197
4866.21466,0.00231
4864.28592,0.00252
4862.35718,0.00265
4860.42843,0.00298
4858.49969,0.00367
4856.57095,0.00511
4854.64221,0.00720
4852.71347,0.00899
4850.78473,0.01027
4848.85599,0.01206
4846.92724,0.01491
4844.99850,0.01803
4843.06976,0.02104
4841.14102,0.02461
4839.21228,0.02860
4837.28354,0.03231
4835.35480,0.03613
4833.42605,0.04071
4831.49731,0.04560
4829.56857,0.04984
4827.63983,0.05309
4825.71109,0.05570
4823.78235,0.05832
4821.85361,0.06110
4819.92486,0.06360
4817.99612,0.06568
4816.06738,0.06745
4814.13864,0.06880
4812.20990,0.06953
4810.28116,0.06951
4808.35242,0.06912
4806.42367,0.06878
4804.49493,0.06834
4802.56619,0.06763
4800.63745,0.06675
4798.70871,0.06578
4796.77997,0.06474
4794.85123,0.06381
4792.92248,0.06332
4790.99374,0.06320
4789.06500,0.06319
4787.13626,0.06330
4785.20752,0.06347
4783.27878,0.06332
4781.35004,0.06285
4779.42129,0.06262
4777.49255,0.06265
4775.56381,0.06226
4773.63507,0.06153
4771.70633,0.06100
4769.77759,0.06050
4767.84885,0.05986
4765.92010,0.05945
4763.99136,0.05916
4762.06262,0.05821
4760.13388,0.05664
4758.20514,0.05503
4756.27640,0.05358
4754.34766,0.05216
4752.41891,0.05064
4750.49017,0.04926
4748.56143,0.04813
4746.63269,0.04703
4744.70395,0.04609
4742.77521,0.04537
4740.84647,0.04422
4738.91772,0.04255
4736.98898,0.04093
4735.06024,0.03942
4733.13150,0.03790
4731.20276,0.03659
4729.27402,0.03547
4727.34528,0.03419
4725.41653,0.03260
4723.48779,0.03071
4721.55905,0.02848
4719.63031,0.02617
4717.70157,0.02421
4715.77283,0.02281
4713.84409,0.02177
4711.91534,0.02074
4709.98660,0.01943
4708.05786,0.01784
4706.12912,0.01637
4704.20038,0.01516
4702.27164,0.01414
4700.34290,0.01340
4698.41415,0.01300
4696.48541,0.01281
4694.55667,0.01250
4692.62793,0.01186
4690.69919,0.01127
4688.77045,0.01113
4686.84170,0.01115
4684.91296,0.01087
4682.98422,0.01046
4681.05548,0.01032
4679.12674,0.01057
4677.19800,0.01074
4675.26926,0.01058
4673.34051,0.01041
4671.41177,0.01028
4669.48303,0.01019
4667.55429,0.01023
4665.62555,0.01034
4663.69681,0.01057
4661.76807,0.01080
4659.83932,0.01084
4657.91058,0.01068
4655.98184,0.01021
4654.05310,0.00961
4652.12436,0.00954
4650.19562,0.00996
4648.26688,0.01015
4646.33813,0.00982
4644.40939,0.00932
4642.48065,0.00889
4640.55191,0.00853
4638.62317,0.00814
4636.69443,0.00765
4634.76569,0.00728
4632.83694,0.00708
4630.90820,0.00675
4628.97946,0.00632
4627.05072,0.00599
4625.12198,0.00566
4623.19324,0.00519
4621.26450,0.00468
4619.33575,0.00437
4617.40701,0.00438
4615.47827,0.00447
4613.54953,0.00427
4611.62079,0.00370
4609.69205,0.00297
4607.76331,0.00251
4605.83456,0.00254
4603.90582,0.00266
4601.97708,0.00241
4600.04834,0.00187
4598.11960,0.00162
4596.19086,0.00172
4594.26212,0.00158
4592.33337,0.00128
4590.40463,0.00131
4588.47589,0.00150
4586.54715,0.00168
4584.61841,0.00160
4582.68967,0.00127
4580.76093,0.00106
4578.83218,0.00136
4576.90344,0.00181
4574.97470,0.00200
4573.04596,0.00184
4571.11722,0.00159
4569.18848,0.00155
4567.25974,0.00169
4565.33099,0.00160
4563.40225,0.00138
4561.47351,0.00126
4559.54477,0.00133
4557.61603,0.00146
4555.68729,0.00167
4553.75855,0.00202
4551.82980,0.00229
4549.90106,0.00220
4547.97232,0.00198
4546.04358,0.00200
4544.11484,0.00217
4542.18610,0.00240
4540.25736,0.00262
4538.32861,0.00253
4536.39987,0.00231
4534.47113,0.00232
4532.54239,0.00246
4530.61365,0.00260
4528.68491,0.00281
4526.75617,0.00308
4524.82742,0.00318
4522.89868,0.00298
4520.96994,0.00279
4519.04120,0.00309
4517.11246,0.00384
4515.18372,0.00449
4513.25498,0.00483
4511.32623,0.00520
4509.39749,0.00573
4507.46875,0.00603
4505.54001,0.00598
4503.61127,0.00587
4501.68253,0.00602
4499.75379,0.00648
4497.82504,0.00685
4495.89630,0.00684
4493.96756,0.00680
4492.03882,0.00688
4490.11008,0.00705
4488.18134,0.00724
4486.25259,0.00721
4484.32385,0.00700
4482.39511,0.00670
4480.46637,0.00628
4478.53763,0.00614
4476.60889,0.00647
4474.68015,0.00683
4472.75140,0.00700
4470.82266,0.00703
4468.89392,0.00676
4466.96518,0.00622
4465.03644,0.00588
4463.10770,0.00590
4461.17896,0.00580
4459.25021,0.00546
4457.32147,0.00535
4455.39273,0.00538
4453.46399,0.00508
4451.53525,0.00445
4449.60651,0.00385
4447.67777,0.00345
4445.74902,0.00322
4443.82028,0.00329
4441.89154,0.00346
4439.96280,0.00328
4438.03406,0.00283
4436.10532,0.00236
4434.17658,0.00203
4432.24783,0.00187
4430.31909,0.00160
4428.39035,0.00133
4426.46161,0.00134
4424.53287,0.00134
4422.60413,0.00104
4420.67539,0.00082
4418.74664,0.00093
4416.81790,0.00107
4414.88916,0.00084
4412.96042,0.00039
4411.03168,-0.00008
4409.10294,-0.00011
4407.17420,0.00045
4405.24545,0.00100
4403.31671,0.00081
4401.38797,0.00033
4399.45923,0.00035
4397.53049,0.00089
4395.60175,0.00090
4393.67301,0.00043
4391.74426,0.00015
4389.81552,0.00044
4387.88678,0.00035
4385.95804,0.00038
4384.02930,0.00040
4382.10056,0.00049
4380.17182,0.00060
4378.24307,0.00084
4376.31433,0.00098
4374.38559,0.00098
4372.45685,0.00064
4370.52811,0.00044
4368.59937,0.00059
4366.67063,0.00060
4364.74188,0.00050
4362.81314,0.00057
4360.88440,0.00075
4358.95566,0.00053
4357.02692,0.00014
4355.09818,0.00014
4353.16944,0.00034
4351.24069,0.00045
4349.31195,0.00006
4347.38321,0.00046
4345.45447,0.00076
4343.52573,0.00076
4341.59699,0.00067
4339.66825,0.00061
4337.73950,0.00048
4335.81076,0.00024
4333.88202,-0.00001
4331.95328,0.00002
4330.02454,0.00009
4328.09580,0.00045
4326.16706,0.00030
4324.23831,0.00018
4322.30957,0.00053
4320.38083,0.00071
4318.45209,0.00037
4316.52335,0.00004
4314.59461,-0.00009
4312.66587,0.00048
4310.73712,0.00094
4308.80838,0.00107
4306.87964,0.00096
4304.95090,0.00083
4303.02216,0.00073
4301.09342,0.00058
4299.16468,0.00051
4297.23593,0.00051
4295.30719,0.00057
4293.37845,0.00063
4291.44971,0.00076
4289.52097,0.00086
4287.59223,0.00051
4285.66348,0.00028
4283.73474,0.00039
4281.80600,0.00059
4279.87726,0.00056
4277.94852,0.00046
4276.01978,0.00052
4274.09104,0.00077
4272.16229,0.00079
4270.23355,0.00048
4268.30481,0.00027
4266.37607,0.00046
4264.44733,0.00062
4262.51859,0.00062
4260.58985,0.00044
4258.66110,0.00019
4256.73236,0.00007
4254.80362,0.00023
4252.87488,0.00004
4250.94614,0.00021
4249.01740,0.00045
4247.08866,0.00056
4245.15991,0.00040
4243.23117,0.00040
4241.30243,0.00064
4239.37369,0.00079
4237.44495,0.00075
4235.51621,0.00069
4233.58747,0.00066
4231.65872,0.00055
4229.72998,0.00045
4227.80124,0.00063
4225.87250,0.00091
4223.94376,0.00087
4222.01502,0.00039
4220.08628,0.00020
4218.15753,0.00031
4216.22879,0.00031
4214.30005,0.00039
4212.37131,0.00042
4210.44257,0.00033
4208.51383,0.00042
4206.58509,0.00077
4204.65634,0.00099
4202.72760,0.00074
4200.79886,0.00042
4198.87012,0.00031
4196.94138,0.00052
4195.01264,0.00069
4193.08390,0.00066
4191.15515,0.00062
4189.22641,0.00048
4187.29767,0.00039
4185.36893,0.00044
4183.44019,0.00045
4181.51145,0.00046
4179.58271,0.00030
4177.65396,0.00020
4175.72522,0.00030
4173.79648,0.00049
4171.86774,0.00076
4169.93900,0.00071
4168.01026,0.00032
4166.08152,0.00011
4164.15277,0.00024
4162.22403,0.00032
4160.29529,0.00029
4158.36655,0.00027
4156.43781,0.00027
4154.50907,0.00042
4152.58033,0.00066
4150.65158,0.00056
4148.72284,0.00022
4146.79410,0.00023
4144.86536,0.00046
4142.93662,0.00065
4141.00788,0.00046
4139.07914,0.00028
4137.15039,0.00050
4135.22165,0.00070
4133.29291,0.00065
4131.36417,0.00051
4129.43543,0.00045
4127.50669,0.00049
4125.57795,0.00048
4123.64920,0.00050
4121.72046,0.00045
4119.79172,0.00046
4117.86298,0.00055
4115.93424,0.00049
4114.00550,0.00036
4112.07676,0.00033
4110.14801,0.00025
4108.21927,0.00044
4106.29053,0.00072
4104.36179,0.00077
4102.43305,0.00080
4100.50431,0.00075
4098.57557,0.00051
4096.64682,0.00051
4094.71808,0.00071
4092.78934,0.00082
4090.86060,0.00076
4088.93186,0.00059
4087.00312,0.00028
4085.07437,0.00027
4083.14563,0.00056
4081.21689,0.00074
4079.28815,0.00058
4077.35941,0.00035
4075.43067,0.00037
4073.50193,0.00033
4071.57318,0.00001
4069.64444,0.00012
4067.71570,0.00060
4065.78696,0.00096
4063.85822,0.00106
4061.92948,0.00072
4060.00074,0.00012
4058.07199,-0.00006
4056.14325,0.00040
4054.21451,0.00101
4052.28577,0.00107
4050.35703,0.00059
4048.42829,0.00020
4046.49955,0.00013
4044.57080,0.00019
4042.64206,0.00036
4040.71332,0.00047
4038.78458,0.00073
4036.85584,0.00082
4034.92710,0.00051
4032.99836,0.00022
4031.06961,0.00027
4029.14087,0.00036
4027.21213,0.00048
4025.28339,0.00059
4023.35465,0.00056
4021.42591,0.00054
4019.49717,0.00063
4017.56842,0.00057
4015.63968,0.00039
4013.71094,0.00030
4011.78220,0.00033
4009.85346,0.00003
4007.92472,0.00021
4005.99598,0.00053
4004.06723,0.00050
4002.13849,0.00018
4000.20975,0.00044
3998.28101,0.00067
3996.35227,0.00071
3994.42353,0.00036
3992.49479,0.00037
3990.56604,0.00049
3988.63730,0.00086
3986.70856,0.00073
3984.77982,0.00039
3982.85108,0.00029
3980.92234,0.00044
3978.99360,0.00043
3977.06485,0.00033
3975.13611,0.00041
3973.20737,0.00058
3971.27863,0.00064
3969.34989,0.00049
3967.42115,0.00023
3965.49241,0.00006
3963.56366,0.00021
3961.63492,0.00059
3959.70618,0.00091
3957.77744,0.00088
3955.84870,0.00047
3953.91996,0.00028
3951.99122,0.00036
3950.06247,0.00063
3948.13373,0.00087
3946.20499,0.00081
3944.27625,0.00042
3942.34751,0.00034
3940.41877,0.00074
3938.49003,0.00103
3936.56128,0.00105
3934.63254,0.00095
3932.70380,0.00068
3930.77506,0.00075
3928.84632,0.00100
3926.91758,0.00099
3924.98884,0.00096
3923.06009,0.00113
3921.13135,0.00111
3919.20261,0.00106
3917.27387,0.00132
3915.34513,0.00154
3913.41639,0.00144
3911.48765,0.00129
3909.55890,0.00132
3907.63016,0.00156
3905.70142,0.00172
3903.77268,0.00159
3901.84394,0.00159
3899.91520,0.00211
3897.98646,0.00274
3896.05771,0.00305
3894.12897,0.00309
3892.20023,0.00303
3890.27149,0.00283
3888.34275,0.00250
3886.41401,0.00228
3884.48526,0.00244
3882.55652,0.00278
3880.62778,0.00309
3878.69904,0.00339
3876.77030,0.00361
3874.84156,0.00374
3872.91282,0.00376
3870.98407,0.00366
3869.05533,0.00360
3867.12659,0.00360
3865.19785,0.00362
3863.26911,0.00383
3861.34037,0.00404
3859.41163,0.00401
3857.48288,0.00378
3855.55414,0.00350
3853.62540,0.00327
3851.69666,0.00300
3849.76792,0.00280
3847.83918,0.00274
3845.91044,0.00261
3843.98169,0.00233
3842.05295,0.00214
3840.12421,0.00223
3838.19547,0.00253
3836.26673,0.00283
3834.33799,0.00303
3832.40925,0.00322
3830.48050,0.00330
3828.55176,0.00315
3826.62302,0.00306
3824.69428,0.00310
3822.76554,0.00302
3820.83680,0.00293
3818.90806,0.00285
3816.97931,0.00279
3815.05057,0.00299
3813.12183,0.00335
3811.19309,0.00369
3809.26435,0.00396
3807.33561,0.00404
3805.40687,0.00393
3803.47812,0.00365
3801.54938,0.00348
3799.62064,0.00371
3797.69190,0.00393
3795.76316,0.00391
3793.83442,0.00394
3791.90568,0.00409
3789.97693,0.00422
3788.04819,0.00447
3786.11945,0.00471
3784.19071,0.00463
3782.26197,0.00446
3780.33323,0.00455
3778.40449,0.00489
3776.47574,0.00530
3774.54700,0.00553
3772.61826,0.00545
3770.68952,0.00515
3768.76078,0.00497
3766.83204,0.00501
3764.90330,0.00505
3762.97455,0.00500
3761.04581,0.00492
3759.11707,0.00474
3757.18833,0.00459
3755.25959,0.00466
3753.33085,0.00471
3751.40211,0.00452
3749.47336,0.00424
3747.54462,0.00397
3745.61588,0.00374
3743.68714,0.00368
3741.75840,0.00367
3739.82966,0.00345
3737.90092,0.00314
3735.97217,0.00307
3734.04343,0.00334
3732.11469,0.00360
3730.18595,0.00361
3728.25721,0.00355
3726.32847,0.00350
3724.39973,0.00332
3722.47098,0.00306
3720.54224,0.00297
3718.61350,0.00301
3716.68476,0.00294
3714.75602,0.00270
3712.82728,0.00233
3710.89854,0.00206
3708.96979,0.00203
3707.04105,0.00210
3705.11231,0.00214
3703.18357,0.00197
3701.25483,0.00163
3699.32609,0.00139
3697.39735,0.00117
3695.46860,0.00089
3693.53986,0.00075
3691.61112,0.00092
3689.68238,0.00112
3687.75364,0.00107
3685.82490,0.00089
3683.89615,0.00060
3681.96741,0.00022
3680.03867,0.00007
3678.10993,0.00019
3676.18119,0.00026
3674.25245,0.00015
3672.32371,0.00001
3670.39496,-0.00003
3668.46622,0.00022
3666.53748,0.00041
3664.60874,0.00029
3662.68000,0.00023
3660.75126,0.00022
3658.82252,0.00008
3656.89377,0.00040
3654.96503,0.00041
3653.03629,0.00020
3651.10755,0.00029
3649.17881,0.00059
3647.25007,0.00068
3645.32133,0.00064
3643.39258,0.00040
3641.46384,0.00026
3639.53510,0.00033
3637.60636,0.00034
3635.67762,0.00026
3633.74888,0.00034
3631.82014,0.00042
3629.89139,0.00031
3627.96265,0.00023
3626.03391,0.00042
3624.10517,0.00056
3622.17643,0.00064
3620.24769,0.00061
3618.31895,0.00054
3616.39020,0.00031
3614.46146,0.00023
3612.53272,0.00039
3610.60398,0.00054
3608.67524,0.00046
3606.74650,0.00017
3604.81776,-0.00004
3602.88901,0.00021
3600.96027,0.00060
3599.03153,0.00080
3597.10279,0.00055
3595.17405,0.00021
3593.24531,0.00034
3591.31657,0.00063
3589.38782,0.00074
3587.45908,0.00056
3585.53034,0.00032
3583.60160,0.00050
3581.67286,0.00034
3579.74412,0.00042
3577.81538,0.00041
3575.88663,0.00025
3573.95789,0.00015
3572.02915,0.00028
3570.10041,0.00040
3568.17167,0.00037
3566.24293,0.00030
3564.31419,0.00034
3562.38544,0.00035
3560.45670,0.00037
3558.52796,0.00004
3556.59922,0.00020
3554.67048,0.00053
3552.74174,0.00028
3550.81300,0.00009
3548.88425,0.00017
3546.95551,0.00007
3545.02677,0.00012
3543.09803,0.00044
3541.16929,0.00067
3539.24055,0.00048
3537.31181,0.00024
3535.38306,0.00039
3533.45432,0.00064
3531.52558,0.00063
3529.59684,0.00053
3527.66810,0.00045
3525.73936,0.00045
3523.81062,0.00024
3521.88187,0.00014
3519.95313,0.00026
3518.02439,0.00080
3516.09565,0.00083
3514.16691,0.00028
3512.23817,-0.00011
3510.30943,-0.00011
3508.38068,0.00011
3506.45194,0.00051
3504.52320,0.00088
3502.59446,0.00099
3500.66572,0.00083
3498.73698,0.00080
3496.80824,0.00083
3494.87949,0.00094
3492.95075,0.00111
3491.02201,0.00105
3489.09327,0.00067
3487.16453,0.00042
3485.23579,0.00046
3483.30704,0.00038
3481.37830,0.00035
3479.44956,0.00038
3477.52082,0.00033
3475.59208,0.00026
3473.66334,0.00011
3471.73460,0.00013
3469.80585,0.00036
3467.87711,0.00064
3465.94837,0.00082
3464.01963,0.00080
3462.09089,0.00064
3460.16215,0.00049
3458.23341,0.00025
3456.30466,0.00036
3454.37592,0.00054
3452.44718,0.00052
3450.51844,0.00038
3448.58970,0.00041
3446.66096,0.00039
3444.73222,0.00033
3442.80347,0.00023
3440.87473,0.00045
3438.94599,0.00084
3437.01725,0.00107
3435.08851,0.00084
3433.15977,0.00040
3431.23103,0.00026
3429.30228,0.00050
3427.37354,0.00070
3425.44480,0.00088
3423.51606,0.00097
3421.58732,0.00064
3419.65858,0.00013
3417.72984,0.00048
3415.80109,0.00079
3413.87235,0.00069
3411.94361,0.00025
3410.01487,-0.00011
3408.08613,-0.00002
3406.15739,0.00027
3404.22865,0.00027
3402.29990,0.00034
3400.37116,0.00073
3398.44242,0.00096
3396.51368,0.00058
3394.58494,0.00018
3392.65620,0.00031
3390.72746,0.00048
3388.79871,0.00035
3386.86997,0.00043
3384.94123,0.00057
3383.01249,0.00056
3381.08375,0.00039
3379.15501,0.00069
3377.22627,0.00089
3375.29752,0.00081
3373.36878,0.00057
3371.44004,0.00043
3369.51130,0.00046
3367.58256,0.00051
3365.65382,0.00058
3363.72508,0.00062
3361.79633,0.00043
3359.86759,0.00028
3357.93885,0.00051
3356.01011,0.00054
3354.08137,0.00024
3352.15263,0.00009
3350.22389,0.00031
3348.29514,0.00069
3346.36640,0.00087
3344.43766,0.00080
3342.50892,0.00069
3340.58018,0.00067
3338.65144,0.00061
3336.72270,0.00044
3334.79395,0.00038
3332.86521,0.00046
3330.93647,0.00047
3329.00773,0.00053
3327.07899,0.00035
3325.15025,-0.00002
3323.22151,0.00021
3321.29276,0.00052
3319.36402,0.00058
3317.43528,0.00082
3315.50654,0.00086
3313.57780,0.00051
3311.64906,0.00037
3309.72032,0.00031
3307.79157,0.00013
3305.86283,0.00048
3303.93409,0.00067
3302.00535,0.00053
3300.07661,0.00053
3298.14787,0.00061
3296.21913,0.00066
3294.29038,0.00099
3292.36164,0.00081
3290.43290,0.00027
3288.50416,0.00019
3286.57542,0.00025
3284.64668,0.00028
3282.71793,0.00051
3280.78919,0.00060
3278.86045,0.00075
3276.93171,0.00074
3275.00297,0.00069
3273.07423,0.00081
3271.14549,0.00080
3269.21674,0.00057
3267.28800,0.00062
3265.35926,0.00053
3263.43052,0.00037
3261.50178,0.00047
3259.57304,0.00057
3257.64430,0.00084
3255.71555,0.00081
3253.78681,0.00057
3251.85807,0.00050
3249.92933,0.00063
3248.00059,0.00066
3246.07185,0.00026
3244.14311,0.00018
3242.21436,0.00040
3240.28562,0.00054
3238.35688,0.00045
3236.42814,0.00022
3234.49940,-0.00034
3232.57066,-0.00003
3230.64192,0.00068
3228.71317,0.00122
3226.78443,0.00141
3224.85569,0.00104
3222.92695,0.00042
3220.99821,0.00023
3219.06947,0.00044
3217.14073,0.00066
3215.21198,0.00076
3213.28324,0.00111
3211.35450,0.00141
3209.42576,0.00123
3207.49702,0.00090
3205.56828,0.00090
3203.63954,0.00056
3201.71079,0.00001
3199.78205,-0.00011
3197.85331,0.00053
3195.92457,0.00092
3193.99583,0.00051
3192.06709,0.00017
3190.13835,0.00042
3188.20960,0.00068
3186.28086,0.00064
3184.35212,0.00039
3182.42338,0.00009
3180.49464,0.00016
3178.56590,0.00050
3176.63716,0.00052
3174.70841,0.00057
3172.77967,0.00075
3170.85093,0.00082
3168.92219,0.00060
3166.99345,0.00086
3165.06471,0.00099
3163.13597,0.00070
3161.20722,0.00034
3159.27848,0.00016
3157.34974,0.00027
3155.42100,0.00045
3153.49226,0.00039
3151.56352,0.00034
3149.63478,0.00021
3147.70603,0.00026
3145.77729,0.00051
3143.84855,0.00077
3141.91981,0.00084
3139.99107,0.00064
3138.06233,0.00024
3136.13359,0.00030
3134.20484,0.00054
3132.27610,0.00044
3130.34736,0.00025
3128.41862,0.00013
3126.48988,0.00014
3124.56114,0.00015
3122.63240,0.00011
3120.70365,0.00027
3118.77491,0.00050
3116.84617,0.00058
3114.91743,0.00033
3112.98869,0.00022
3111.05995,0.00043
3109.13121,0.00058
3107.20246,0.00043
3105.27372,0.00027
3103.34498,0.00026
3101.41624,0.00027
3099.48750,0.00027
3097.55876,0.00022
3095.63002,0.00020
3093.70127,0.00026
3091.77253,0.00023
3089.84379,0.00025
3087.91505,0.00051
3085.98631,0.00073
3084.05757,0.00051
3082.12882,0.00006
3080.20008,0.00008
3078.27134,0.00051
3076.34260,0.00054
3074.41386,0.00034
3072.48512,0.00020
3070.55638,0.00011
3068.62763,0.00014
3066.69889,0.00028
3064.77015,0.00053
3062.84141,0.00066
3060.91267,0.00047
3058.98393,0.00026
3057.05519,0.00019
3055.12644,0.00021
3053.19770,0.00018
3051.26896,0.00024
3049.34022,0.00028
3047.41148,0.00025
3045.48274,0.00021
3043.55400,0.00024
3041.62525,0.00018
3039.69651,0.00022
3037.76777,0.00042
3035.83903,0.00065
3033.91029,0.00062
3031.98155,0.00058
3030.05281,0.00062
3028.12406,0.00058
3026.19532,0.00041
3024.26658,0.00028
3022.33784,0.00016
3020.40910,0.00029
3018.48036,0.00035
3016.55162,0.00024
3014.62287,0.00006
3012.69413,0.00016
3010.76539,0.00023
3008.83665,0.00018
3006.90791,0.00021
3004.97917,0.00035
3003.05043,0.00053
3001.12168,0.00059
2999.19294,0.00045
2997.26420,0.00041
2995.33546,0.00039
2993.40672,0.00031
2991.47798,0.00043
2989.54924,0.00036
2987.62049,0.00028
2985.69175,0.00040
2983.76301,0.00058
2981.83427,0.00059
2979.90553,0.00037
2977.97679,0.00020
2976.04805,0.00013
2974.11930,0.00025
2972.19056,0.00024
2970.26182,0.00019
2968.33308,0.00006
2966.40434,0.00016
2964.47560,0.00039
2962.54686,0.00044
2960.61811,0.00024
2958.68937,0.00026
2956.76063,0.00034
2954.83189,0.00035
2952.90315,0.00033
2950.97441,0.00042
2949.04567,0.00053
2947.11692,0.00054
2945.18818,0.00046
2943.25944,0.00063
2941.33070,0.00066
2939.40196,0.00047
2937.47322,0.00027
2935.54448,0.00032
2933.61573,0.00044
2931.68699,0.00040
2929.75825,0.00039
2927.82951,0.00031
2925.90077,0.00029
2923.97203,0.00049
2922.04329,0.00048
2920.11454,0.00033
2918.18580,0.00014
2916.25706,0.00006
2914.32832,0.00009
2912.39958,0.00040
2910.47084,0.00058
2908.54210,0.00050
2906.61335,0.00052
2904.68461,0.00054
2902.75587,0.00051
2900.82713,0.00058
2898.89839,0.00040
2896.96965,0.00015
2895.04091,-0.00002
2893.11216,-0.00001
2891.18342,0.00015
2889.25468,0.00057
2887.32594,0.00058
2885.39720,0.00037
2883.46846,0.00030
2881.53971,0.00038
2879.61097,0.00038
2877.68223,0.00031
2875.75349,0.00025
2873.82475,0.00047
2871.89601,0.00038
2869.96727,0.00038
2868.03852,0.00035
2866.10978,0.00021
2864.18104,0.00021
2862.25230,0.00039
2860.32356,0.00044
2858.39482,0.00027
2856.46608,0.00012
2854.53733,0.00009
2852.60859,0.00007
2850.67985,0.00022
2848.75111,0.00026
2846.82237,0.00021
2844.89363,0.00002
2842.96489,0.00023
2841.03614,0.00036
2839.10740,0.00046
2837.17866,0.00045
2835.24992,0.00030
2833.32118,0.00003
2831.39244,0.00043
2829.46370,0.00042
2827.53495,0.00036
2825.60621,0.00047
2823.67747,0.00056
2821.74873,0.00046
2819.81999,0.00027
2817.89125,0.00009
2815.96251,0.00003
2814.03376,0.00016
2812.10502,0.00043
2810.17628,0.00054
2808.24754,0.00047
2806.31880,0.00027
2804.39006,0.00018
2802.46132,0.00016
2800.53257,0.00026
2798.60383,0.00040
2796.67509,0.00035
2794.74635,0.00022
2792.81761,0.00040
2790.88887,0.00058
2788.96013,0.00053
2787.03138,0.00046
2785.10264,0.00043
2783.17390,0.00026
2781.24516,0.00012
2779.31642,0.00022
2777.38768,0.00030
2775.45894,0.00024
2773.53019,0.00023
2771.60145,0.00018
2769.67271,0.00020
2767.74397,0.00032
2765.81523,0.00033
2763.88649,0.00022
2761.95775,0.00014
2760.02900,0.00023
2758.10026,0.00034
2756.17152,0.00019
2754.24278,0.00010
2752.31404,0.00022
2750.38530,0.00045
2748.45656,0.00057
2746.52781,0.00042
2744.59907,0.00011
2742.67033,0.00030
2740.74159,0.00041
2738.81285,0.00022
2736.88411,0.00013
2734.95537,0.00022
2733.02662,0.00022
2731.09788,0.00006
2729.16914,0.00011
2727.24040,0.00028
2725.31166,0.00032
2723.38292,0.00025
2721.45418,0.00015
2719.52543,0.00022
2717.59669,0.00036
2715.66795,0.00044
2713.73921,0.00041
2711.81047,0.00030
2709.88173,0.00024
2707.95299,0.00027
2706.02424,0.00028
2704.09550,0.00036
2702.16676,0.00030
2700.23802,0.00023
2698.30928,0.00028
2696.38054,0.00031
2694.45180,0.00029
2692.52305,0.00020
2690.59431,0.00020
2688.66557,0.00043
2686.73683,0.00044
2684.80809,0.00025
2682.87935,0.00011
2680.95060,0.00016
2679.02186,0.00035
2677.09312,0.00046
2675.16438,0.00043
2673.23564,0.00025
2671.30690,0.00010
2669.37816,0.00026
2667.44941,0.00030
2665.52067,0.00024
2663.59193,0.00015
2661.66319,0.00018
2659.73445,0.00033
2657.80571,0.00039
2655.87697,0.00029
2653.94822,0.00020
2652.01948,0.00029
2650.09074,0.00035
2648.16200,0.00030
2646.23326,0.00023
2644.30452,0.00012
2642.37578,0.00011
2640.44703,0.00020
2638.51829,0.00029
2636.58955,0.00037
2634.66081,0.00031
2632.73207,0.00022
2630.80333,0.00018
2628.87459,0.00012
2626.94584,0.00010
2625.01710,0.00014
2623.08836,0.00022
2621.15962,0.00028
2619.23088,0.00016
2617.30214,-0.00011
2615.37340,0.00002
2613.44465,0.00016
2611.51591,0.00030
2609.58717,0.00021
2607.65843,0.00029
2605.72969,0.00027
2603.80095,0.00016
2601.87221,-0.00000
2599.94346,0.00020
2598.01472,0.00022
2596.08598,0.00016
2594.15724,0.00027
2592.22850,0.00037
2590.29976,0.00037
2588.37102,0.00031
2586.44227,0.00033
2584.51353,0.00043
2582.58479,0.00036
2580.65605,0.00020
2578.72731,0.00021
2576.79857,0.00034
2574.86983,0.00038
2572.94108,0.00039
2571.01234,0.00023
2569.08360,0.00009
2567.15486,0.00029
2565.22612,0.00048
2563.29738,0.00039
2561.36864,0.00032
2559.43989,0.00031
2557.51115,0.00034
2555.58241,0.00028
2553.65367,0.00013
2551.72493,0.00015
2549.79619,0.00025
2547.86745,0.00014
2545.93870,0.00024
2544.00996,0.00037
2542.08122,0.00037
2540.15248,0.00038
2538.22374,0.00044
2536.29500,0.00046
2534.36626,0.00039
2532.43751,0.00023
2530.50877,0.00003
2528.58003,0.00004
2526.65129,0.00009
2524.72255,0.00004
2522.79381,0.00014
2520.86507,0.00017
2518.93632,0.00009
2517.00758,0.00007
2515.07884,0.00020
2513.15010,0.00019
2511.22136,0.00020
2509.29262,0.00027
2507.36388,0.00029
2505.43513,0.00022
2503.50639,0.00016
2501.57765,0.00017
2499.64891,0.00025
2497.72017,0.00039
2495.79143,0.00047
2493.86269,0.00035
2491.93394,0.00023
2490.00520,-0.00001
2488.07646,0.00015
2486.14772,0.00046
2484.21898,0.00058
2482.29024,0.00038
2480.36149,0.00009
2478.43275,0.00011
2476.50401,0.00031
2474.57527,0.00022
2472.64653,0.00020
2470.71779,0.00034
2468.78905,0.00040
2466.86030,0.00035
2464.93156,0.00032
2463.00282,0.00034
2461.07408,0.00029
2459.14534,0.00022
2457.21660,0.00031
2455.28786,0.00042
2453.35911,0.00052
2451.43037,0.00049
2449.50163,0.00024
2447.57289,0.00006
2445.64415,0.00026
2443.71541,0.00018
2441.78667,0.00014
2439.85792,0.00020
2437.92918,0.00024
2436.00044,0.00026
2434.07170,0.00025
2432.14296,0.00018
2430.21422,0.00015
2428.28548,0.00007
2426.35673,0.00010
2424.42799,0.00025
2422.49925,0.00038
2420.57051,0.00035
2418.64177,0.00033
2416.71303,0.00030
2414.78429,0.00022
2412.85554,0.00012
2410.92680,0.00016
2408.99806,0.00027
2407.06932,0.00038
2405.14058,0.00038
2403.21184,0.00027
2401.28310,0.00017
2399.35435,0.00017
2397.42561,0.00033
2395.49687,0.00048
2393.56813,0.00036
2391.63939,0.00014
2389.71065,0.00006
2387.78191,0.00012
2385.85316,0.00018
2383.92442,0.00031
2381.99568,0.00034
2380.06694,0.00025
2378.13820,0.00019
2376.20946,0.00027
2374.28072,0.00025
2372.35197,0.00031
2370.42323,0.00051
2368.49449,0.00048
2366.56575,0.00022
2364.63701,0.00003
2362.70827,0.00015
2360.77953,0.00042
2358.85078,0.00036
2356.92204,0.00008
2354.99330,-0.00001
2353.06456,0.00017
2351.13582,0.00022
2349.20708,0.00015
2347.27834,0.00005
2345.34959,0.00013
2343.42085,0.00031
2341.49211,0.00037
2339.56337,0.00025
2337.63463,0.00009
2335.70589,0.00007
2333.77715,0.00019
2331.84840,0.00029
2329.91966,0.00042
2327.99092,0.00049
2326.06218,0.00044
2324.13344,0.00038
2322.20470,0.00032
2320.27596,0.00015
2318.34721,0.00002
2316.41847,0.00014
2314.48973,0.00029
2312.56099,0.00029
2310.63225,0.00029
2308.70351,0.00031
2306.77477,0.00031
2304.84602,0.00021
2302.91728,0.00021
2300.98854,0.00016
2299.05980,0.00013
2297.13106,0.00028
2295.20232,0.00056
2293.27357,0.00075
2291.34483,0.00068
2289.41609,0.00043
2287.48735,0.00028
2285.55861,0.00030
2283.62987,0.00037
2281.70113,0.00031
2279.77238,0.00030
2277.84364,0.00023
2275.91490,0.00011
2273.98616,0.00023
2272.05742,0.00038
2270.12868,0.00034
2268.19994,0.00025
2266.27119,0.00028
2264.34245,0.00034
2262.41371,0.00021
2260.48497,0.00023
2258.55623,0.00028
2256.62749,0.00025
2254.69875,0.00018
2252.77000,0.00023
2250.84126,0.00009
2248.91252,0.00013
2246.98378,0.00029
2245.05504,0.00035
2243.12630,0.00033
2241.19756,0.00021
2239.26881,0.00010
2237.34007,0.00013
2235.41133,0.00023
2233.48259,0.00028
2231.55385,0.00029
2229.62511,0.00034
2227.69637,0.00032
2225.76762,0.00025
2223.83888,0.00026
2221.91014,0.00030
2219.98140,0.00027
2218.05266,0.00024
2216.12392,0.00027
2214.19518,0.00031
2212.26643,0.00036
2210.33769,0.00041
2208.40895,0.00025
2206.48021,0.00016
2204.55147,0.00017
2202.62273,0.00031
2200.69399,0.00042
2198.76524,0.00039
2196.83650,0.00029
2194.90776,0.00030
2192.97902,0.00032
2191.05028,0.00033
2189.12154,0.00026
2187.19280,0.00016
2185.26405,0.00009
2183.33531,0.00011
2181.40657,0.00023
2179.47783,0.00028
2177.54909,0.00020
2175.62035,0.00008
2173.69161,0.00002
2171.76286,0.00009
2169.83412,0.00023
2167.90538,0.00027
2165.97664,0.00019
2164.04790,0.00018
2162.11916,0.00020
2160.19042,0.00030
2158.26167,0.00033
2156.33293,0.00021
2154.40419,0.00018
2152.47545,-0.00001
2150.54671,0.00008
2148.61797,0.00029
2146.68923,0.00026
2144.76048,0.00018
2142.83174,0.00022
2140.90300,0.00027
2138.97426,0.00019
2137.04552,0.00013
2135.11678,0.00022
2133.18804,0.00031
2131.25929,0.00023
2129.33055,0.00013
2127.40181,0.00018
2125.47307,0.00029
2123.54433,0.00022
2121.61559,0.00013
2119.68685,0.00014
2117.75810,0.00021
2115.82936,0.00026
2113.90062,0.00022
2111.97188,0.00022
2110.04314,0.00026
2108.11440,0.00025
2106.18566,0.00028
2104.25691,0.00027
2102.32817,0.00015
2100.39943,0.00005
2098.47069,0.00020
2096.54195,0.00025
2094.61321,0.00031
2092.68446,0.00041
2090.75572,0.00048
2088.82698,0.00048
2086.89824,0.00039
2084.96950,0.00026
2083.04076,0.00019
2081.11202,0.00026
2079.18327,0.00029
2077.25453,0.00012
2075.32579,0.00021
2073.39705,0.00023
2071.46831,0.00031
2069.53957,0.00032
2067.61083,0.00029
2065.68208,0.00022
2063.75334,0.00015
2061.82460,0.00013
2059.89586,0.00015
2057.96712,0.00016
2056.03838,0.00030
2054.10964,0.00038
2052.18089,0.00023
2050.25215,0.00009
2048.32341,-0.00007
2046.39467,0.00004
2044.46593,0.00007
2042.53719,0.00016
2040.60845,0.00022
2038.67970,0.00020
2036.75096,0.00023
2034.82222,0.00034
2032.89348,0.00040
2030.96474,0.00044
2029.03600,0.00041
2027.10726,0.00032
2025.17851,0.00021
2023.24977,0.00013
2021.32103,0.00019
2019.39229,0.00022
2017.46355,0.00025
2015.53481,0.00027
2013.60607,0.00035
2011.67732,0.00032
2009.74858,0.00021
2007.81984,0.00013
2005.89110,0.00006
2003.96236,-0.00008
2002.03362,0.00013
2000.10488,0.00022
1998.17613,0.00020
1996.24739,0.00016
1994.31865,0.00013
1992.38991,0.00008
1990.46117,0.00001
1988.53243,-0.00000
1986.60369,0.00020
1984.67494,0.00041
1982.74620,0.00041
1980.81746,0.00030
1978.88872,0.00014
1976.95998,-0.00002
1975.03124,0.00016
1973.10250,0.00030
1971.17375,0.00030
1969.24501,0.00025
1967.31627,0.00026
1965.38753,0.00018
1963.45879,0.00012
1961.53005,0.00012
1959.60131,0.00012
1957.67256,0.00012
1955.74382,0.00012
1953.81508,0.00017
1951.88634,0.00025
1949.95760,0.00022
1948.02886,0.00018
1946.10012,0.00020
1944.17137,0.00026
1942.24263,0.00019
1940.31389,0.00017
1938.38515,0.00023
1936.45641,0.00033
1934.52767,0.00030
1932.59893,0.00022
1930.67018,0.00017
1928.74144,0.00008
1926.81270,-0.00004
1924.88396,0.00021
1922.95522,0.00041
1921.02648,0.00051
1919.09774,0.00048
1917.16899,0.00027
1915.24025,0.00006
1913.31151,0.00024
1911.38277,0.00033
1909.45403,0.00037
1907.52529,0.00029
1905.59655,0.00025
1903.66780,0.00030
1901.73906,0.00028
1899.81032,0.00022
1897.88158,0.00025
1895.95284,0.00036
1894.02410,0.00034
1892.09535,0.00013
1890.16661,0.00017
1888.23787,0.00015
1886.30913,0.00016
1884.38039,0.00018
1882.45165,0.00027
1880.52291,0.00026
1878.59416,0.00025
1876.66542,0.00027
1874.73668,0.00041
1872.80794,0.00047
1870.87920,0.00037
1868.95046,0.00017
1867.02172,0.00026
1865.09297,0.00017
1863.16423,0.00019
1861.23549,0.00033
1859.30675,0.00036
1857.37801,0.00029
1855.44927,0.00024
1853.52053,0.00012
1851.59178,0.00011
1849.66304,0.00017
1847.73430,0.00023
1845.80556,0.00030
1843.87682,0.00035
1841.94808,0.00027
1840.01934,0.00018
1838.09059,0.00021
1836.16185,0.00031
1834.23311,0.00027
1832.30437,0.00020
1830.37563,0.00019
1828.44689,0.00031
1826.51815,0.00020
1824.58940,0.00016
1822.66066,0.00022
1820.73192,0.00030
1818.80318,0.00038
1816.87444,0.00055
1814.94570,0.00066
1813.01696,0.00057
1811.08821,0.00037
1809.15947,0.00034
1807.23073,0.00047
1805.30199,0.00047
1803.37325,0.00021
1801.44451,-0.00000
1799.51577,0.00004
1797.58702,0.00019
1795.65828,0.00023
1793.72954,0.00022
1791.80080,0.00009
1789.87206,0.00012
1787.94332,0.00021
1786.01458,0.00029
1784.08583,0.00034
1782.15709,0.00033
1780.22835,0.00027
1778.29961,0.00021
1776.37087,0.00012
1774.44213,0.00033
1772.51339,0.00035
1770.58464,0.00027
1768.65590,0.00020
1766.72716,0.00015
1764.79842,0.00006
1762.86968,0.00010
1760.94094,0.00028
1759.01220,0.00034
1757.08345,0.00026
1755.15471,0.00023
1753.22597,0.00011
1751.29723,0.00024
1749.36849,0.00027
1747.43975,0.00019
1745.51101,0.00024
1743.58226,0.00028
1741.65352,0.00036
1739.72478,0.00035
1737.79604,0.00019
1735.86730,0.00020
1733.93856,0.00023
1732.00982,0.00024
1730.08107,0.00030
1728.15233,0.00030
1726.22359,0.00027
1724.29485,0.00034
1722.36611,0.00039
1720.43737,0.00028
1718.50863,0.00019
1716.57988,0.00028
1714.65114,0.00028
1712.72240,0.00015
1710.79366,0.00008
1708.86492,0.00011
1706.93618,0.00016
1705.00744,0.00023
1703.07869,0.00030
1701.14995,0.00037
1699.22121,0.00051
1697.29247,0.00059
1695.36373,0.00047
1693.43499,0.00026
1691.50624,0.00011
1689.57750,0.00008
1687.64876,0.00015
1685.72002,0.00034
1683.79128,0.00055
1681.86254,0.00066
1679.93380,0.00055
1678.00505,0.00028
1676.07631,0.00013
1674.14757,0.00020
1672.21883,0.00019
1670.29009,0.00030
1668.36135,0.00033
1666.43261,0.00019
1664.50386,0.00007
1662.57512,0.00016
1660.64638,0.00029
1658.71764,0.00026
1656.78890,0.00005
1654.86016,0.00004
1652.93142,0.00026
1651.00267,0.00041
1649.07393,0.00042
1647.14519,0.00045
1645.21645,0.00041
1643.28771,0.00021
1641.35897,0.00017
1639.43023,0.00032
1637.50148,0.00034
1635.57274,0.00028
1633.64400,0.00021
1631.71526,0.00013
1629.78652,0.00005
1627.85778,0.00020
1625.92904,0.00036
1624.00029,0.00021
1622.07155,0.00005
1620.14281,0.00028
1618.21407,0.00051
1616.28533,0.00053
1614.35659,0.00044
1612.42785,0.00039
1610.49910,0.00040
1608.57036,0.00037
1606.64162,0.00037
1604.71288,0.00031
1602.78414,0.00020
1600.85540,0.00015
1598.92666,0.00015
1596.99791,0.00019
1595.06917,0.00022
1593.14043,0.00023
1591.21169,0.00017
1589.28295,0.00010
1587.35421,0.00014
1585.42547,0.00022
1583.49672,0.00032
1581.56798,0.00038
1579.63924,0.00034
1577.71050,0.00035
1575.78176,0.00039
1573.85302,0.00030
1571.92428,0.00019
1569.99553,0.00023
1568.06679,0.00029
1566.13805,0.00040
1564.20931,0.00052
1562.28057,0.00058
1560.35183,0.00060
1558.42309,0.00053
1556.49434,0.00028
1554.56560,0.00009
1552.63686,0.00002
1550.70812,0.00008
1548.77938,0.00013
1546.85064,0.00020
1544.92190,0.00017
1542.99315,0.00008
1541.06441,0.00001
1539.13567,0.00044
1537.20693,0.00036
1535.27819,0.00013
1533.34945,0.00004
1531.42071,0.00006
1529.49196,0.00013
1527.56322,0.00035
1525.63448,0.00051
1523.70574,0.00039
1521.77700,0.00011
1519.84826,0.00009
1517.91952,0.00025
1515.99077,0.00025
1514.06203,0.00014
1512.13329,0.00030
1510.20455,0.00044
1508.27581,0.00032
1506.34707,0.00023
1504.41833,0.00027
1502.48958,0.00024
1500.56084,0.00019
1498.63210,0.00008
1496.70336,0.00000
1494.77462,0.00012
1492.84588,0.00022
1490.91713,0.00019
1488.98839,0.00029
1487.05965,0.00043
1485.13091,0.00045
1483.20217,0.00042
1481.27343,0.00038
1479.34469,0.00036
1477.41594,0.00035
1475.48720,0.00016
1473.55846,-0.00001
1471.62972,0.00013
1469.70098,0.00029
1467.77224,0.00020
1465.84350,0.00017
1463.91475,0.00013
1461.98601,0.00003
1460.05727,-0.00001
1458.12853,0.00003
1456.19979,0.00020
1454.27105,0.00025
1452.34231,0.00016
1450.41356,0.00008
1448.48482,0.00013
1446.55608,0.00023
1444.62734,0.00007
1442.69860,0.00015
1440.76986,0.00028
1438.84112,0.00028
1436.91237,0.00007
1434.98363,0.00016
1433.05489,0.00017
1431.12615,0.00018
1429.19741,0.00022
1427.26867,0.00021
1425.33993,0.00013
1423.41118,0.00014
1421.48244,0.00026
1419.55370,0.00037
1417.62496,0.00033
1415.69622,0.00027
1413.76748,0.00026
1411.83874,0.00031
1409.90999,0.00034
1407.98125,0.00033
1406.05251,0.00030
1404.12377,0.00032
1402.19503,0.00035
1400.26629,0.00031
1398.33755,0.00018
1396.40880,0.00010
1394.48006,0.00017
1392.55132,0.00027
1390.62258,0.00029
1388.69384,0.00024
1386.76510,0.00016
1384.83636,0.00021
1382.90761,0.00028
1380.97887,0.00041
1379.05013,0.00048
1377.12139,0.00039
1375.19265,0.00032
1373.26391,0.00034
1371.33517,0.00030
1369.40642,0.00023
1367.47768,0.00014
1365.54894,0.00014
1363.62020,0.00023
1361.69146,0.00019
1359.76272,0.00013
1357.83398,0.00013
1355.90523,0.00008
1353.97649,0.00019
1352.04775,0.00031
1350.11901,0.00033
1348.19027,0.00027
1346.26153,0.00023
1344.33279,0.00015
1342.40404,0.00012
1340.47530,0.00016
1338.54656,0.00026
1336.61782,0.00030
1334.68908,0.00022
1332.76034,0.00015
1330.83160,0.00012
1328.90285,0.00011
1326.97411,0.00026
1325.04537,0.00040
1323.11663,0.00037
1321.18789,0.00026
1319.25915,0.00027
1317.33041,0.00022
1315.40166,0.00011
1313.47292,0.00017
1311.54418,0.00026
1309.61544,0.00033
1307.68670,0.00037
1305.75796,0.00028
1303.82922,0.00015
1301.90047,0.00013
1299.97173,0.00023
1298.04299,0.00020
1296.11425,0.00017
1294.18551,0.00020
1292.25677,0.00024
1290.32802,0.00021
1288.39928,0.00024
1286.47054,0.00035
1284.54180,0.00041
1282.61306,0.00038
1280.68432,0.00027
1278.75558,0.00014
1276.82683,0.00017
1274.89809,0.00035
1272.96935,0.00044
1271.04061,0.00029
1269.11187,0.00011
1267.18313,0.00008
1265.25439,0.00015
1263.32564,0.00027
1261.39690,0.00047
1259.46816,0.00062
1257.53942,0.00055
1255.61068,0.00036
1253.68194,0.00024
1251.75320,0.00020
1249.82445,0.00028
1247.89571,0.00039
1245.96697,0.00038
1244.03823,0.00022
1242.10949,0.00012
1240.18075,0.00015
1238.25201,0.00021
1236.32326,0.00024
1234.39452,0.00031
1232.46578,0.00039
1230.53704,0.00035
1228.60830,0.00025
1226.67956,0.00033
1224.75082,0.00036
1222.82207,0.00036
1220.89333,0.00028
1218.96459,0.00029
1217.03585,0.00042
1215.10711,0.00044
1213.17837,0.00037
1211.24963,0.00042
1209.32088,0.00049
1207.39214,0.00042
1205.46340,0.00037
1203.53466,0.00052
1201.60592,0.00060
1199.67718,0.00056
1197.74844,0.00048
1195.81969,0.00047
1193.89095,0.00041
1191.96221,0.00027
1190.03347,0.00009
1188.10473,0.00016
1186.17599,0.00036
1184.24725,0.00042
1182.31850,0.00044
1180.38976,0.00044
1178.46102,0.00042
1176.53228,0.00047
1174.60354,0.00058
1172.67480,0.00063
1170.74606,0.00049
1168.81731,0.00025
1166.88857,0.00004
1164.95983,0.00008
1163.03109,0.00026
1161.10235,0.00041
1159.17361,0.00040
1157.24487,0.00032
1155.31612,0.00017
1153.38738,0.00007
1151.45864,0.00027
1149.52990,0.00032
1147.60116,0.00025
1145.67242,0.00027
1143.74368,0.00030
1141.81493,0.00039
1139.88619,0.00035
1137.95745,0.00034
1136.02871,0.00034
1134.09997,0.00040
1132.17123,0.00041
1130.24249,0.00044
1128.31374,0.00042
1126.38500,0.00023
1124.45626,0.00018
1122.52752,0.00041
1120.59878,0.00042
1118.67004,0.00054
1116.74130,0.00064
1114.81255,0.00064
1112.88381,0.00069
1110.95507,0.00069
1109.02633,0.00033
1107.09759,0.00023
1105.16885,0.00021
1103.24011,0.00028
1101.31136,0.00029
1099.38262,0.00022
1097.45388,0.00022
1095.52514,0.00041
1093.59640,0.00039
1091.66766,0.00019
1089.73891,0.00030
1087.81017,0.00033
1085.88143,0.00013
1083.95269,0.00030
1082.02395,0.00060
1080.09521,0.00077
1078.16647,0.00080
1076.23772,0.00070
1074.30898,0.00052
1072.38024,0.00036
1070.45150,0.00018
1068.52276,0.00011
1066.59402,0.00031
1064.66528,0.00059
1062.73653,0.00076
1060.80779,0.00082
1058.87905,0.00070
1056.95031,0.00067
1055.02157,0.00073
1053.09283,0.00065
1051.16409,0.00040
1049.23534,0.00030
1047.30660,0.00048
1045.37786,0.00059
1043.44912,0.00042
1041.52038,0.00018
1039.59164,0.00009
1037.66290,0.00025
1035.73415,0.00041
1033.80541,0.00061
1031.87667,0.00062
1029.94793,0.00044
1028.01919,0.00036
1026.09045,0.00047
1024.16171,0.00054
1022.23296,0.00051
1020.30422,0.00054
1018.37548,0.00058
1016.44674,0.00041
1014.51800,0.00047
1012.58926,0.00067
1010.66052,0.00062
1008.73177,0.00020
1006.80303,0.00030
1004.87429,0.00048
1002.94555,0.00054
1001.01681,0.00045
999.08807,0.00038
997.15933,0.00031
995.23058,0.00015
993.30184,0.00021
991.37310,0.00033
989.44436,0.00016
987.51562,0.00021
985.58688,0.00043
983.65814,0.00062
981.72939,0.00063
979.80065,0.00035
977.87191,0.00012
975.94317,0.00025
974.01443,0.00020
972.08569,0.00028
970.15695,0.00039
968.22820,0.00037
966.29946,0.00031
964.37072,0.00027
962.44198,0.00028
960.51324,0.00040
958.58450,0.00051
956.65576,0.00049
954.72701,0.00036
952.79827,0.00021
950.86953,0.00039
948.94079,0.00051
947.01205,0.00027
945.08331,0.00011
943.15457,0.00031
941.22582,0.00052
939.29708,0.00053
937.36834,0.00043
935.43960,0.00029
933.51086,0.00026
931.58212,0.00034
929.65338,0.00049
927.72463,0.00062
925.79589,0.00078
923.86715,0.00094
921.93841,0.00096
920.00967,0.00082
918.08093,0.00073
916.15219,0.00072
914.22344,0.00055
912.29470,0.00023
910.36596,0.00008
908.43722,0.00035
906.50848,0.00060
904.57974,0.00052
902.65100,0.00056
900.72225,0.00047
898.79351,0.00053
896.86477,0.00064
894.93603,0.00059
893.00729,0.00042
891.07855,0.00034
889.14980,0.00032
887.22106,0.00027
885.29232,0.00038
883.36358,0.00063
881.43484,0.00067
879.50610,0.00050
877.57736,0.00034
875.64861,0.00046
873.71987,0.00075
871.79113,0.00091
869.86239,0.00090
867.93365,0.00090
866.00491,0.00059
864.07617,0.00018
862.14742,0.00017
860.21868,0.00058
858.28994,0.00059
856.36120,0.00041
854.43246,0.00021
852.50372,0.00036
850.57498,0.00073
848.64623,0.00100
846.71749,0.00083
844.78875,0.00065
842.86001,0.00064
840.93127,0.00065
839.00253,0.00065
837.07379,0.00060
835.14504,0.00031
833.21630,0.00018
831.28756,0.00031
829.35882,0.00053
827.43008,0.00074
825.50134,0.00072
823.57260,0.00029
821.64385,0.00009
819.71511,0.00034
817.78637,0.00060
815.85763,0.00073
813.92889,0.00091
812.00015,0.00091
810.07141,0.00090
808.14266,0.00092
806.21392,0.00093
804.28518,0.00095
802.35644,0.00092
800.42770,0.00076
798.49896,0.00075
796.57022,0.00080
794.64147,0.00077
792.71273,0.00076
790.78399,0.00086
788.85525,0.00084
786.92651,0.00081
784.99777,0.00083
783.06903,0.00080
781.14028,0.00078
779.21154,0.00088
777.28280,0.00084
775.35406,0.00084
773.42532,0.00087
771.49658,0.00067
769.56784,0.00054
767.63909,0.00061
765.71035,0.00035
763.78161,0.00021
761.85287,0.00033
759.92413,0.00041
757.99539,0.00049
756.06665,0.00074
754.13790,0.00078
752.20916,0.00056
750.28042,0.00024
748.35168,0.00011
746.42294,0.00009
744.49420,0.00007
742.56546,0.00027
740.63671,0.00079
738.70797,0.00094
736.77923,0.00097
734.85049,0.00095
732.92175,0.00060
730.99301,0.00033
729.06427,0.00050
727.13552,0.00067
725.20678,0.00088
723.27804,0.00103
721.34930,0.00103
719.42056,0.00092
717.49182,0.00086
715.56308,0.00086
713.63433,0.00089
711.70559,0.00080
709.77685,0.00054
707.84811,0.00015
705.91937,0.00047
703.99063,0.00044
702.06189,0.00044
700.13314,0.00047
698.20440,0.00044
696.27566,0.00058
694.34692,0.00090
692.41818,0.00087
690.48944,0.00063
688.56069,0.00075
686.63195,0.00103
684.70321,0.00095
682.77447,0.00082
680.84573,0.00104
678.91699,0.00159
676.98825,0.00159
675.05950,0.00109
673.13076,0.00066
671.20202,0.00061
669.27328,0.00058
667.34454,0.00073
665.41580,0.00085
663.48706,0.00074
661.55831,0.00067
659.62957,0.00098
657.70083,0.00112
655.77209,0.00105
653.84335,0.00111
651.91461,0.00148
649.98587,0.00193
648.05712,0.00185
646.12838,0.00111
644.19964,0.00063
642.27090,0.00073
640.34216,0.00135
638.41342,0.00194
636.48468,0.00211
634.55593,0.00173
632.62719,0.00132
630.69845,0.00117
628.76971,0.00120
626.84097,0.00124
624.91223,0.00174
622.98349,0.00195
621.05474,0.00244
619.12600,0.00246
617.19726,0.00125
615.26852,0.00077
613.33978,0.00201
611.41104,0.00223
609.48230,0.00193
607.55355,0.00128
605.62481,0.00126
603.69607,0.00177
601.76733,0.00192
599.83859,0.00130
