7497.01799,0.02385
7495.08925,0.02633
7493.16050,0.02692
7491.23176,0.02513
7489.30302,0.02126
7487.37428,0.01904
7485.44554,0.01965
7483.51680,0.02042
7481.58806,0.02135
7479.65931,0.02483
7477.73057,0.02861
7475.80183,0.03032
7473.87309,0.02688
7471.94435,0.02231
7470.01561,0.02232
7468.08686,0.02677
7466.15812,0.03090
7464.22938,0.03194
7462.30064,0.03135
7460.37190,0.03115
7458.44316,0.03039
7456.51442,0.02764
7454.58567,0.02176
7452.65693,0.01734
7450.72819,0.01523
7448.79945,0.01785
7446.87071,0.02172
7444.94197,0.02304
7443.01323,0.02436
7441.08448,0.02758
7439.15574,0.02649
7437.22700,0.02441
7435.29826,0.02583
7433.36952,0.02616
7431.44078,0.02616
7429.51204,0.02726
7427.58329,0.02643
7425.65455,0.02566
7423.72581,0.02543
7421.79707,0.02400
7419.86833,0.02361
7417.93959,0.02589
7416.01085,0.02579
7414.08210,0.02226
7412.15336,0.02078
7410.22462,0.02114
7408.29588,0.01928
7406.36714,0.01721
7404.43840,0.01744
7402.50966,0.02073
7400.58091,0.02436
7398.65217,0.02608
7396.72343,0.02597
7394.79469,0.02560
7392.86595,0.02380
7390.93721,0.02313
7389.00847,0.02513
7387.07972,0.02861
7385.15098,0.03026
7383.22224,0.03053
7381.29350,0.03186
7379.36476,0.03245
7377.43602,0.02969
7375.50728,0.02524
7373.57853,0.02212
7371.64979,0.02365
7369.72105,0.02501
7367.79231,0.02500
7365.86357,0.02554
7363.93483,0.02772
7362.00609,0.03093
7360.07734,0.03378
7358.14860,0.03388
7356.21986,0.03297
7354.29112,0.03168
7352.36238,0.02811
7350.43364,0.02415
7348.50490,0.02481
7346.57615,0.02909
7344.64741,0.03177
7342.71867,0.02944
7340.78993,0.02404
7338.86119,0.02214
7336.93245,0.02603
7335.00371,0.02846
7333.07496,0.02638
7331.14622,0.02588
7329.21748,0.03156
7327.28874,0.03708
7325.36000,0.03557
7323.43126,0.03155
7321.50252,0.03111
7319.57377,0.02921
7317.64503,0.02489
7315.71629,0.02305
7313.78755,0.02286
7311.85881,0.02322
7309.93007,0.02599
7308.00133,0.02622
7306.07258,0.02295
7304.14384,0.02220
7302.21510,0.02406
7300.28636,0.02509
7298.35762,0.02650
7296.42888,0.02791
7294.50014,0.02822
7292.57139,0.02786
7290.64265,0.02665
7288.71391,0.02515
7286.78517,0.02570
7284.85643,0.02812
7282.92769,0.03139
7280.99894,0.03264
7279.07020,0.03222
7277.14146,0.03287
7275.21272,0.03390
7273.28398,0.03334
7271.35524,0.03247
7269.42650,0.03246
7267.49775,0.03138
7265.56901,0.02569
7263.64027,0.01930
7261.71153,0.01817
7259.78279,0.01960
7257.85405,0.01924
7255.92531,0.01797
7253.99656,0.01694
7252.06782,0.01938
7250.13908,0.02250
7248.21034,0.02187
7246.28160,0.01950
7244.35286,0.01988
7242.42412,0.02327
7240.49537,0.02726
7238.56663,0.02961
7236.63789,0.03123
7234.70915,0.03088
7232.78041,0.02830
7230.85167,0.02855
7228.92293,0.03136
7226.99418,0.02920
7225.06544,0.02369
7223.13670,0.02474
7221.20796,0.03222
7219.27922,0.03547
7217.35048,0.03295
7215.42174,0.02985
7213.49299,0.02665
7211.56425,0.02430
7209.63551,0.02329
7207.70677,0.02173
7205.77803,0.02313
7203.84929,0.02813
7201.92055,0.03141
7199.99180,0.03006
7198.06306,0.02789
7196.13432,0.02766
7194.20558,0.02551
7192.27684,0.01663
7190.34810,0.01031
7188.41936,0.01071
7186.49061,0.01351
7184.56187,0.01717
7182.63313,0.02373
7180.70439,0.02848
7178.77565,0.02849
7176.84691,0.02522
7174.91817,0.02237
7172.98942,0.02114
7171.06068,0.01998
7169.13194,0.02171
7167.20320,0.02696
7165.27446,0.03054
7163.34572,0.03223
7161.41698,0.03387
7159.48823,0.03397
7157.55949,0.03143
7155.63075,0.02883
7153.70201,0.02819
7151.77327,0.02831
7149.84453,0.02909
7147.91579,0.03153
7145.98704,0.03312
7144.05830,0.03240
7142.12956,0.02946
7140.20082,0.02695
7138.27208,0.02635
7136.34334,0.02588
7134.41460,0.02514
7132.48585,0.02429
7130.55711,0.02328
7128.62837,0.02310
7126.69963,0.02340
7124.77089,0.02391
7122.84215,0.02450
7120.91341,0.02646
7118.98466,0.03115
7117.05592,0.03531
7115.12718,0.03514
7113.19844,0.03250
7111.26970,0.03009
7109.34096,0.02607
7107.41222,0.02092
7105.48347,0.02044
7103.55473,0.02339
7101.62599,0.02431
7099.69725,0.02402
7097.76851,0.02275
7095.83977,0.01919
7093.91103,0.01783
7091.98228,0.02019
7090.05354,0.02301
7088.12480,0.02496
7086.19606,0.02636
7084.26732,0.02537
7082.33858,0.02087
7080.40983,0.01695
7078.48109,0.01914
7076.55235,0.02434
7074.62361,0.02537
7072.69487,0.02125
7070.76613,0.01833
7068.83739,0.02107
7066.90864,0.02522
7064.97990,0.02546
7063.05116,0.02453
7061.12242,0.02574
7059.19368,0.02713
7057.26494,0.02823
7055.33620,0.02895
7053.40745,0.02727
7051.47871,0.02441
7049.54997,0.02193
7047.62123,0.02167
7045.69249,0.02433
7043.76375,0.02731
7041.83501,0.02907
7039.90626,0.03030
7037.97752,0.03096
7036.04878,0.03151
7034.12004,0.03144
7032.19130,0.02779
7030.26256,0.02284
7028.33382,0.02319
7026.40507,0.02513
7024.47633,0.02208
7022.54759,0.01779
7020.61885,0.01695
7018.69011,0.01793
7016.76137,0.02010
7014.83263,0.02430
7012.90388,0.02791
7010.97514,0.02782
7009.04640,0.02467
7007.11766,0.02147
7005.18892,0.02194
7003.26018,0.02620
7001.33144,0.03051
6999.40269,0.03026
6997.47395,0.02734
6995.54521,0.02524
6993.61647,0.02430
6991.68773,0.02489
6989.75899,0.02617
6987.83025,0.02524
6985.90150,0.02305
6983.97276,0.02280
6982.04402,0.02452
6980.11528,0.02367
6978.18654,0.02191
6976.25780,0.02340
6974.32906,0.02422
6972.40031,0.02122
6970.47157,0.01922
6968.54283,0.02029
6966.61409,0.02243
6964.68535,0.02576
6962.75661,0.02990
6960.82787,0.03129
6958.89912,0.02820
6956.97038,0.02388
6955.04164,0.02069
6953.11290,0.01876
6951.18416,0.02045
6949.25542,0.02358
6947.32668,0.02404
6945.39793,0.02324
6943.46919,0.02412
6941.54045,0.02628
6939.61171,0.02770
6937.68297,0.02881
6935.75423,0.02976
6933.82549,0.02782
6931.89674,0.02500
6929.96800,0.02416
6928.03926,0.02614
6926.11052,0.02795
6924.18178,0.02696
6922.25304,0.02449
6920.32430,0.02262
6918.39555,0.02155
6916.46681,0.02225
6914.53807,0.02457
6912.60933,0.02633
6910.68059,0.02525
6908.75185,0.02218
6906.82311,0.01975
6904.89436,0.01963
6902.96562,0.02076
6901.03688,0.02106
6899.10814,0.02036
6897.17940,0.02028
6895.25066,0.02267
6893.32192,0.02644
6891.39317,0.02755
6889.46443,0.02662
6887.53569,0.02492
6885.60695,0.02217
6883.67821,0.02174
6881.74947,0.02402
6879.82072,0.02464
6877.89198,0.02304
6875.96324,0.02081
6874.03450,0.01975
6872.10576,0.02045
6870.17702,0.02276
6868.24828,0.02593
6866.31953,0.02690
6864.39079,0.02505
6862.46205,0.02438
6860.53331,0.02446
6858.60457,0.02266
6856.67583,0.02063
6854.74709,0.02021
6852.81834,0.01940
6850.88960,0.01708
6848.96086,0.01628
6847.03212,0.01764
6845.10338,0.01737
6843.17464,0.01559
6841.24590,0.01505
6839.31715,0.01902
6837.38841,0.02420
6835.45967,0.02549
6833.53093,0.02425
6831.60219,0.02446
6829.67345,0.02529
6827.74471,0.02539
6825.81596,0.02526
6823.88722,0.02487
6821.95848,0.02540
6820.02974,0.02859
6818.10100,0.03120
6816.17226,0.02844
6814.24352,0.02302
6812.31477,0.02119
6810.38603,0.02226
6808.45729,0.02404
6806.52855,0.02422
6804.59981,0.02150
6802.67107,0.01862
6800.74233,0.01777
6798.81358,0.01768
6796.88484,0.01884
6794.95610,0.02039
6793.02736,0.02118
6791.09862,0.02126
6789.16988,0.02038
6787.24114,0.01860
6785.31239,0.01882
6783.38365,0.02143
6781.45491,0.02431
6779.52617,0.02553
6777.59743,0.02395
6775.66869,0.02182
6773.73995,0.02093
6771.81120,0.01921
6769.88246,0.01862
6767.95372,0.02103
6766.02498,0.02342
6764.09624,0.02523
6762.16750,0.02664
6760.23876,0.02472
6758.31001,0.02126
6756.38127,0.02104
6754.45253,0.02384
6752.52379,0.02636
6750.59505,0.02627
6748.66631,0.02258
6746.73757,0.01860
6744.80882,0.01762
6742.88008,0.01872
6740.95134,0.01987
6739.02260,0.02089
6737.09386,0.02276
6735.16512,0.02501
6733.23638,0.02598
6731.30763,0.02619
6729.37889,0.02526
6727.45015,0.02343
6725.52141,0.02236
6723.59267,0.02240
6721.66393,0.02162
6719.73519,0.02035
6717.80644,0.01958
6715.87770,0.01913
6713.94896,0.01870
6712.02022,0.01825
6710.09148,0.01852
6708.16274,0.01986
6706.23400,0.02116
6704.30525,0.02250
6702.37651,0.02369
6700.44777,0.02319
6698.51903,0.02095
6696.59029,0.01932
6694.66155,0.02016
6692.73281,0.02256
6690.80406,0.02425
6688.87532,0.02527
6686.94658,0.02634
6685.01784,0.02719
6683.08910,0.02611
6681.16036,0.02306
6679.23161,0.02094
6677.30287,0.02258
6675.37413,0.02528
6673.44539,0.02554
6671.51665,0.02391
6669.58791,0.02333
6667.65917,0.02387
6665.73042,0.02332
6663.80168,0.02179
6661.87294,0.02160
6659.94420,0.02309
6658.01546,0.02418
6656.08672,0.02315
6654.15798,0.02272
6652.22923,0.02459
6650.30049,0.02581
6648.37175,0.02619
6646.44301,0.02731
6644.51427,0.02697
6642.58553,0.02418
6640.65679,0.02119
6638.72804,0.02052
6636.79930,0.02256
6634.87056,0.02458
6632.94182,0.02329
6631.01308,0.02198
6629.08434,0.02490
6627.15560,0.02831
6625.22685,0.02720
6623.29811,0.02240
6621.36937,0.01879
6619.44063,0.01932
6617.51189,0.02090
6615.58315,0.02182
6613.65441,0.02273
6611.72566,0.02259
6609.79692,0.02132
6607.86818,0.02030
6605.93944,0.02068
6604.01070,0.02320
6602.08196,0.02509
6600.15322,0.02419
6598.22447,0.02240
6596.29573,0.02150
6594.36699,0.02187
6592.43825,0.02408
6590.50951,0.02608
6588.58077,0.02599
6586.65203,0.02432
6584.72328,0.02183
6582.79454,0.01926
6580.86580,0.01801
6578.93706,0.01885
6577.00832,0.02257
6575.07958,0.02748
6573.15084,0.02895
6571.22209,0.02589
6569.29335,0.02317
6567.36461,0.02349
6565.43587,0.02511
6563.50713,0.02559
6561.57839,0.02364
6559.64965,0.02077
6557.72090,0.01871
6555.79216,0.01718
6553.86342,0.01918
6551.93468,0.02493
6550.00594,0.02836
6548.07720,0.02629
6546.14846,0.02243
6544.21971,0.01995
6542.29097,0.01892
6540.36223,0.01863
6538.43349,0.01894
6536.50475,0.02017
6534.57601,0.02277
6532.64727,0.02442
6530.71852,0.02372
6528.78978,0.02390
6526.86104,0.02617
6524.93230,0.02749
6523.00356,0.02631
6521.07482,0.02426
6519.14608,0.02339
6517.21733,0.02330
6515.28859,0.02261
6513.35985,0.02120
6511.43111,0.01887
6509.50237,0.01743
6507.57363,0.01951
6505.64489,0.02269
6503.71614,0.02423
6501.78740,0.02385
6499.85866,0.02224
6497.92992,0.02201
6496.00118,0.02374
6494.07244,0.02435
6492.14370,0.02330
6490.21495,0.02264
6488.28621,0.02181
6486.35747,0.02031
6484.42873,0.02059
6482.49999,0.02223
6480.57125,0.02314
6478.64250,0.02447
6476.71376,0.02719
6474.78502,0.02879
6472.85628,0.02774
6470.92754,0.02637
6468.99880,0.02621
6467.07006,0.02465
6465.14131,0.02114
6463.21257,0.01987
6461.28383,0.02278
6459.35509,0.02542
6457.42635,0.02524
6455.49761,0.02414
6453.56887,0.02442
6451.64012,0.02606
6449.71138,0.02672
6447.78264,0.02539
6445.85390,0.02352
6443.92516,0.02261
6441.99642,0.02351
6440.06768,0.02439
6438.13893,0.02307
6436.21019,0.02125
6434.28145,0.02112
6432.35271,0.02222
6430.42397,0.02391
6428.49523,0.02469
6426.56649,0.02386
6424.63774,0.02259
6422.70900,0.02133
6420.78026,0.02018
6418.85152,0.01969
6416.92278,0.01976
6414.99404,0.02061
6413.06530,0.02205
6411.13655,0.02410
6409.20781,0.02578
6407.27907,0.02605
6405.35033,0.02557
6403.42159,0.02435
6401.49285,0.02232
6399.56411,0.02099
6397.63536,0.02051
6395.70662,0.02075
6393.77788,0.02241
6391.84914,0.02383
6389.92040,0.02305
6387.99166,0.02278
6386.06292,0.02431
6384.13417,0.02449
6382.20543,0.02218
6380.27669,0.02094
6378.34795,0.02154
6376.41921,0.02204
6374.49047,0.02359
6372.56173,0.02649
6370.63298,0.02765
6368.70424,0.02649
6366.77550,0.02476
6364.84676,0.02276
6362.91802,0.02052
6360.98928,0.02038
6359.06054,0.02278
6357.13179,0.02539
6355.20305,0.02690
6353.27431,0.02792
6351.34557,0.02768
6349.41683,0.02567
6347.48809,0.02399
6345.55935,0.02408
6343.63060,0.02401
6341.70186,0.02297
6339.77312,0.02251
6337.84438,0.02262
6335.91564,0.02227
6333.98690,0.02289
6332.05816,0.02367
6330.12941,0.02188
6328.20067,0.01986
6326.27193,0.02130
6324.34319,0.02457
6322.41445,0.02636
6320.48571,0.02600
6318.55697,0.02444
6316.62822,0.02267
6314.69948,0.02168
6312.77074,0.02164
6310.84200,0.02250
6308.91326,0.02356
6306.98452,0.02369
6305.05578,0.02293
6303.12703,0.02260
6301.19829,0.02262
6299.26955,0.02364
6297.34081,0.02531
6295.41207,0.02556
6293.48333,0.02472
6291.55459,0.02431
6289.62584,0.02344
6287.69710,0.02251
6285.76836,0.02227
6283.83962,0.02166
6281.91088,0.02144
6279.98214,0.02196
6278.05339,0.02141
6276.12465,0.02081
6274.19591,0.02145
6272.26717,0.02179
6270.33843,0.02185
6268.40969,0.02190
6266.48095,0.02048
6264.55220,0.01914
6262.62346,0.02007
6260.69472,0.02167
6258.76598,0.02286
6256.83724,0.02486
6254.90850,0.02667
6252.97976,0.02661
6251.05101,0.02485
6249.12227,0.02270
6247.19353,0.02094
6245.26479,0.02072
6243.33605,0.02177
6241.40731,0.02261
6239.47857,0.02292
6237.54982,0.02375
6235.62108,0.02517
6233.69234,0.02642
6231.76360,0.02684
6229.83486,0.02596
6227.90612,0.02441
6225.97738,0.02429
6224.04863,0.02606
6222.11989,0.02641
6220.19115,0.02361
6218.26241,0.02132
6216.33367,0.02204
6214.40493,0.02367
6212.47619,0.02370
6210.54744,0.02321
6208.61870,0.02407
6206.68996,0.02481
6204.76122,0.02358
6202.83248,0.02223
6200.90374,0.02113
6198.97500,0.01921
6197.04625,0.01812
6195.11751,0.02062
6193.18877,0.02451
6191.26003,0.02496
6189.33129,0.02162
6187.40255,0.01846
6185.47381,0.01799
6183.54506,0.02026
6181.61632,0.02265
6179.68758,0.02323
6177.75884,0.02322
6175.83010,0.02377
6173.90136,0.02380
6171.97262,0.02312
6170.04387,0.02272
6168.11513,0.02237
6166.18639,0.02215
6164.25765,0.02357
6162.32891,0.02571
6160.40017,0.02554
6158.47143,0.02255
6156.54268,0.01921
6154.61394,0.01723
6152.68520,0.01727
6150.75646,0.01913
6148.82772,0.02135
6146.89898,0.02236
6144.97024,0.02214
6143.04149,0.02105
6141.11275,0.02052
6139.18401,0.02101
6137.25527,0.02088
6135.32653,0.01956
6133.39779,0.01855
6131.46905,0.01868
6129.54030,0.01932
6127.61156,0.01913
6125.68282,0.01875
6123.75408,0.02076
6121.82534,0.02505
6119.89660,0.02742
6117.96786,0.02630
6116.03911,0.02408
6114.11037,0.02217
6112.18163,0.02091
6110.25289,0.02170
6108.32415,0.02461
6106.39541,0.02614
6104.46667,0.02422
6102.53792,0.02211
6100.60918,0.02202
6098.68044,0.02216
6096.75170,0.02165
6094.82296,0.02214
6092.89422,0.02308
6090.96548,0.02269
6089.03673,0.02135
6087.10799,0.02067
6085.17925,0.02194
6083.25051,0.02371
6081.32177,0.02383
6079.39303,0.02313
6077.46428,0.02214
6075.53554,0.02158
6073.60680,0.02258
6071.67806,0.02318
6069.74932,0.02184
6067.82058,0.02091
6065.89184,0.02143
6063.96309,0.02130
6062.03435,0.02017
6060.10561,0.02025
6058.17687,0.02205
6056.24813,0.02392
6054.31939,0.02465
6052.39065,0.02434
6050.46190,0.02367
6048.53316,0.02327
6046.60442,0.02276
6044.67568,0.02233
6042.74694,0.02240
6040.81820,0.02245
6038.88946,0.02227
6036.96071,0.02223
6035.03197,0.02245
6033.10323,0.02267
6031.17449,0.02230
6029.24575,0.02186
6027.31701,0.02210
6025.38827,0.02231
6023.45952,0.02191
6021.53078,0.02212
6019.60204,0.02292
6017.67330,0.02262
6015.74456,0.02106
6013.81582,0.01962
6011.88708,0.01948
6009.95833,0.02124
6008.02959,0.02400
6006.10085,0.02619
6004.17211,0.02726
6002.24337,0.02654
6000.31463,0.02457
5998.38589,0.02382
5996.45714,0.02416
5994.52840,0.02374
5992.59966,0.02227
5990.67092,0.02073
5988.74218,0.02045
5986.81344,0.02126
5984.88470,0.02212
5982.95595,0.02295
5981.02721,0.02325
5979.09847,0.02223
5977.16973,0.02078
5975.24099,0.02079
5973.31225,0.02229
5971.38351,0.02372
5969.45476,0.02447
5967.52602,0.02455
5965.59728,0.02320
5963.66854,0.02132
5961.73980,0.02056
5959.81106,0.02077
5957.88232,0.02154
5955.95357,0.02236
5954.02483,0.02284
5952.09609,0.02326
5950.16735,0.02348
5948.23861,0.02377
5946.30987,0.02390
5944.38113,0.02296
5942.45238,0.02210
5940.52364,0.02253
5938.59490,0.02262
5936.66616,0.02185
5934.73742,0.02138
5932.80868,0.02147
5930.87994,0.02198
5928.95119,0.02280
5927.02245,0.02385
5925.09371,0.02483
5923.16497,0.02500
5921.23623,0.02489
5919.30749,0.02543
5917.37875,0.02590
5915.45000,0.02506
5913.52126,0.02445
5911.59252,0.02489
5909.66378,0.02441
5907.73504,0.02312
5905.80630,0.02266
5903.87756,0.02271
5901.94881,0.02261
5900.02007,0.02223
5898.09133,0.02201
5896.16259,0.02235
5894.23385,0.02324
5892.30511,0.02430
5890.37637,0.02494
5888.44762,0.02413
5886.51888,0.02214
5884.59014,0.02092
5882.66140,0.02105
5880.73266,0.02156
5878.80392,0.02192
5876.87517,0.02148
5874.94643,0.02016
5873.01769,0.01944
5871.08895,0.02034
5869.16021,0.02160
5867.23147,0.02227
5865.30273,0.02274
5863.37398,0.02270
5861.44524,0.02159
5859.51650,0.02033
5857.58776,0.02054
5855.65902,0.02178
5853.73028,0.02230
5851.80154,0.02236
5849.87279,0.02294
5847.94405,0.02345
5846.01531,0.02325
5844.08657,0.02266
5842.15783,0.02204
5840.22909,0.02231
5838.30035,0.02356
5836.37160,0.02393
5834.44286,0.02334
5832.51412,0.02340
5830.58538,0.02330
5828.65664,0.02244
5826.72790,0.02230
5824.79916,0.02275
5822.87041,0.02292
5820.94167,0.02352
5819.01293,0.02414
5817.08419,0.02344
5815.15545,0.02244
5813.22671,0.02306
5811.29797,0.02446
5809.36922,0.02488
5807.44048,0.02424
5805.51174,0.02330
5803.58300,0.02262
5801.65426,0.02236
5799.72552,0.02226
5797.79678,0.02264
5795.86803,0.02346
5793.93929,0.02358
5792.01055,0.02324
5790.08181,0.02336
5788.15307,0.02363
5786.22433,0.02384
5784.29559,0.02371
5782.36684,0.02298
5780.43810,0.02254
5778.50936,0.02313
5776.58062,0.02339
5774.65188,0.02254
5772.72314,0.02251
5770.79440,0.02369
5768.86565,0.02350
5766.93691,0.02195
5765.00817,0.02194
5763.07943,0.02356
5761.15069,0.02374
5759.22195,0.02193
5757.29321,0.02104
5755.36446,0.02208
5753.43572,0.02252
5751.50698,0.02120
5749.57824,0.02015
5747.64950,0.02090
5745.72076,0.02279
5743.79202,0.02453
5741.86327,0.02482
5739.93453,0.02363
5738.00579,0.02308
5736.07705,0.02390
5734.14831,0.02428
5732.21957,0.02393
5730.29083,0.02360
5728.36208,0.02259
5726.43334,0.02091
5724.50460,0.01985
5722.57586,0.01991
5720.64712,0.02056
5718.71838,0.02132
5716.78964,0.02184
5714.86089,0.02246
5712.93215,0.02346
5711.00341,0.02355
5709.07467,0.02282
5707.14593,0.02279
5705.21719,0.02293
5703.28845,0.02229
5701.35970,0.02177
5699.43096,0.02224
5697.50222,0.02323
5695.57348,0.02386
5693.64474,0.02345
5691.71600,0.02188
5689.78726,0.02090
5687.85851,0.02226
5685.92977,0.02402
5684.00103,0.02342
5682.07229,0.02148
5680.14355,0.02034
5678.21481,0.02067
5676.28606,0.02249
5674.35732,0.02408
5672.42858,0.02419
5670.49984,0.02447
5668.57110,0.02542
5666.64236,0.02568
5664.71362,0.02494
5662.78487,0.02359
5660.85613,0.02248
5658.92739,0.02232
5656.99865,0.02289
5655.06991,0.02375
5653.14117,0.02439
5651.21243,0.02454
5649.28368,0.02422
5647.35494,0.02382
5645.42620,0.02358
5643.49746,0.02267
5641.56872,0.02113
5639.63998,0.02021
5637.71124,0.02044
5635.78249,0.02132
5633.85375,0.02206
5631.92501,0.02246
5629.99627,0.02259
5628.06753,0.02225
5626.13879,0.02172
5624.21005,0.02129
5622.28130,0.02098
5620.35256,0.02126
5618.42382,0.02205
5616.49508,0.02233
5614.56634,0.02235
5612.63760,0.02331
5610.70886,0.02424
5608.78011,0.02371
5606.85137,0.02319
5604.92263,0.02368
5602.99389,0.02365
5601.06515,0.02261
5599.13641,0.02187
5597.20767,0.02232
5595.27892,0.02301
5593.35018,0.02272
5591.42144,0.02197
5589.49270,0.02188
5587.56396,0.02253
5585.63522,0.02317
5583.70648,0.02305
5581.77773,0.02243
5579.84899,0.02194
5577.92025,0.02153
5575.99151,0.02134
5574.06277,0.02139
5572.13403,0.02082
5570.20529,0.02024
5568.27654,0.02101
5566.34780,0.02238
5564.41906,0.02307
5562.49032,0.02354
5560.56158,0.02408
5558.63284,0.02335
5556.70410,0.02147
5554.77535,0.02092
5552.84661,0.02191
5550.91787,0.02232
5548.98913,0.02189
5547.06039,0.02165
5545.13165,0.02167
5543.20291,0.02175
5541.27416,0.02190
5539.34542,0.02238
5537.41668,0.02356
5535.48794,0.02448
5533.55920,0.02418
5531.63046,0.02396
5529.70172,0.02482
5527.77297,0.02527
5525.84423,0.02419
5523.91549,0.02300
5521.98675,0.02294
5520.05801,0.02289
5518.12927,0.02173
5516.20053,0.02056
5514.27178,0.02097
5512.34304,0.02260
5510.41430,0.02339
5508.48556,0.02311
5506.55682,0.02335
5504.62808,0.02404
5502.69934,0.02417
5500.77059,0.02353
5498.84185,0.02250
5496.91311,0.02154
5494.98437,0.02065
5493.05563,0.02053
5491.12689,0.02136
5489.19815,0.02189
5487.26940,0.02217
5485.34066,0.02260
5483.41192,0.02232
5481.48318,0.02132
5479.55444,0.02074
5477.62570,0.02087
5475.69695,0.02103
5473.76821,0.02141
5471.83947,0.02247
5469.91073,0.02341
5467.98199,0.02318
5466.05325,0.02257
5464.12451,0.02287
5462.19576,0.02354
5460.26702,0.02382
5458.33828,0.02380
5456.40954,0.02338
5454.48080,0.02262
5452.55206,0.02192
5450.62332,0.02179
5448.69457,0.02259
5446.76583,0.02355
5444.83709,0.02331
5442.90835,0.02232
5440.97961,0.02208
5439.05087,0.02286
5437.12213,0.02332
5435.19338,0.02324
5433.26464,0.02359
5431.33590,0.02389
5429.40716,0.02323
5427.47842,0.02231
5425.54968,0.02201
5423.62094,0.02247
5421.69219,0.02358
5419.76345,0.02459
5417.83471,0.02440
5415.90597,0.02307
5413.97723,0.02172
5412.04849,0.02134
5410.11975,0.02193
5408.19100,0.02233
5406.26226,0.02204
5404.33352,0.02185
5402.40478,0.02202
5400.47604,0.02224
5398.54730,0.02247
5396.61856,0.02306
5394.68981,0.02390
5392.76107,0.02385
5390.83233,0.02262
5388.90359,0.02166
5386.97485,0.02160
5385.04611,0.02165
5383.11737,0.02148
5381.18862,0.02170
5379.25988,0.02250
5377.33114,0.02315
5375.40240,0.02321
5373.47366,0.02305
5371.54492,0.02294
5369.61618,0.02267
5367.68743,0.02237
5365.75869,0.02242
5363.82995,0.02241
5361.90121,0.02224
5359.97247,0.02237
5358.04373,0.02210
5356.11499,0.02116
5354.18624,0.02129
5352.25750,0.02306
5350.32876,0.02462
5348.40002,0.02463
5346.47128,0.02387
5344.54254,0.02350
5342.61380,0.02381
5340.68505,0.02409
5338.75631,0.02362
5336.82757,0.02302
5334.89883,0.02341
5332.97009,0.02443
5331.04135,0.02528
5329.11261,0.02556
5327.18386,0.02483
5325.25512,0.02346
5323.32638,0.02273
5321.39764,0.02285
5319.46890,0.02301
5317.54016,0.02298
5315.61142,0.02290
5313.68267,0.02263
5311.75393,0.02230
5309.82519,0.02247
5307.89645,0.02287
5305.96771,0.02259
5304.03897,0.02196
5302.11023,0.02186
5300.18148,0.02229
5298.25274,0.02329
5296.32400,0.02442
5294.39526,0.02439
5292.46652,0.02333
5290.53778,0.02265
5288.60904,0.02264
5286.68029,0.02297
5284.75155,0.02347
5282.82281,0.02350
5280.89407,0.02281
5278.96533,0.02228
5277.03659,0.02252
5275.10784,0.02298
5273.17910,0.02312
5271.25036,0.02323
5269.32162,0.02333
5267.39288,0.02299
5265.46414,0.02242
5263.53540,0.02212
5261.60665,0.02189
5259.67791,0.02164
5257.74917,0.02243
5255.82043,0.02419
5253.89169,0.02518
5251.96295,0.02520
5250.03421,0.02490
5248.10546,0.02424
5246.17672,0.02378
5244.24798,0.02378
5242.31924,0.02390
5240.39050,0.02374
5238.46176,0.02269
5236.53302,0.02156
5234.60427,0.02167
5232.67553,0.02247
5230.74679,0.02291
5228.81805,0.02264
5226.88931,0.02200
5224.96057,0.02191
5223.03183,0.02208
5221.10308,0.02169
5219.17434,0.02154
5217.24560,0.02216
5215.31686,0.02280
5213.38812,0.02287
5211.45938,0.02268
5209.53064,0.02284
5207.60189,0.02321
5205.67315,0.02319
5203.74441,0.02292
5201.81567,0.02293
5199.88693,0.02319
5197.95819,0.02341
5196.02945,0.02362
5194.10070,0.02376
5192.17196,0.02371
5190.24322,0.02391
5188.31448,0.02465
5186.38574,0.02517
5184.45700,0.02479
5182.52826,0.02385
5180.59951,0.02290
5178.67077,0.02223
5176.74203,0.02227
5174.81329,0.02308
5172.88455,0.02384
5170.95581,0.02384
5169.02707,0.02358
5167.09832,0.02336
5165.16958,0.02267
5163.24084,0.02184
5161.31210,0.02171
5159.38336,0.02218
5157.45462,0.02260
5155.52588,0.02265
5153.59713,0.02248
5151.66839,0.02252
5149.73965,0.02299
5147.81091,0.02347
5145.88217,0.02340
5143.95343,0.02307
5142.02469,0.02312
5140.09594,0.02341
5138.16720,0.02328
5136.23846,0.02255
5134.30972,0.02184
5132.38098,0.02178
5130.45224,0.02234
5128.52350,0.02319
5126.59475,0.02347
5124.66601,0.02299
5122.73727,0.02276
5120.80853,0.02317
5118.87979,0.02373
5116.95105,0.02401
5115.02231,0.02414
5113.09356,0.02430
5111.16482,0.02408
5109.23608,0.02350
5107.30734,0.02316
5105.37860,0.02318
5103.44986,0.02309
5101.52112,0.02260
5099.59237,0.02226
5097.66363,0.02295
5095.73489,0.02420
5093.80615,0.02461
5091.87741,0.02404
5089.94867,0.02330
5088.01993,0.02265
5086.09118,0.02199
5084.16244,0.02195
5082.23370,0.02269
5080.30496,0.02337
5078.37622,0.02372
5076.44748,0.02368
5074.51873,0.02289
5072.58999,0.02212
5070.66125,0.02213
5068.73251,0.02231
5066.80377,0.02217
5064.87503,0.02216
5062.94629,0.02240
5061.01754,0.02251
5059.08880,0.02236
5057.16006,0.02209
5055.23132,0.02162
5053.30258,0.02103
5051.37384,0.02117
5049.44510,0.02213
5047.51635,0.02269
5045.58761,0.02272
5043.65887,0.02276
5041.73013,0.02285
5039.80139,0.02319
5037.87265,0.02383
5035.94391,0.02426
5034.01516,0.02421
5032.08642,0.02416
5030.15768,0.02455
5028.22894,0.02462
5026.30020,0.02367
5024.37146,0.02293
5022.44272,0.02352
5020.51397,0.02444
5018.58523,0.02478
5016.65649,0.02480
5014.72775,0.02451
5012.79901,0.02385
5010.87027,0.02347
5008.94153,0.02362
5007.01278,0.02388
5005.08404,0.02411
5003.15530,0.02401
5001.22656,0.02357
4999.29782,0.02332
4997.36908,0.02318
4995.44034,0.02295
4993.51159,0.02283
4991.58285,0.02288
4989.65411,0.02287
4987.72537,0.02263
4985.79663,0.02255
4983.86789,0.02279
4981.93915,0.02322
4980.01040,0.02367
4978.08166,0.02368
4976.15292,0.02320
4974.22418,0.02292
4972.29544,0.02304
4970.36670,0.02337
4968.43796,0.02387
4966.50921,0.02400
4964.58047,0.02353
4962.65173,0.02303
4960.72299,0.02302
4958.79425,0.02369
4956.86551,0.02444
4954.93677,0.02443
4953.00802,0.02419
4951.07928,0.02425
4949.15054,0.02409
4947.22180,0.02366
4945.29306,0.02349
4943.36432,0.02350
4941.43558,0.02320
4939.50683,0.02283
4937.57809,0.02288
4935.64935,0.02321
4933.72061,0.02360
4931.79187,0.02373
4929.86313,0.02313
4927.93439,0.02241
4926.00564,0.02230
4924.07690,0.02236
4922.14816,0.02255
4920.21942,0.02323
4918.29068,0.02388
4916.36194,0.02399
4914.43320,0.02400
4912.50445,0.02416
4910.57571,0.02399
4908.64697,0.02341
4906.71823,0.02298
4904.78949,0.02286
4902.86075,0.02287
4900.93201,0.02300
4899.00326,0.02340
4897.07452,0.02387
4895.14578,0.02377
4893.21704,0.02318
4891.28830,0.02295
4889.35956,0.02305
4887.43081,0.02305
4885.50207,0.02324
4883.57333,0.02385
4881.64459,0.02411
4879.71585,0.02338
4877.78711,0.02246
4875.85837,0.02209
4873.92962,0.02183
4872.00088,0.02178
4870.07214,0.02233
4868.14340,0.02273
4866.21466,0.02255
4864.28592,0.02268
4862.35718,0.02333
4860.42843,0.02367
4858.49969,0.02365
4856.57095,0.02369
4854.64221,0.02375
4852.71347,0.02357
4850.78473,0.02324
4848.85599,0.02317
4846.92724,0.02350
4844.99850,0.02372
4843.06976,0.02353
4841.14102,0.02345
4839.21228,0.02374
4837.28354,0.02399
4835.35480,0.02394
4833.42605,0.02359
4831.49731,0.02312
4829.56857,0.02306
4827.63983,0.02365
4825.71109,0.02425
4823.78235,0.02409
4821.85361,0.02359
4819.92486,0.02359
4817.99612,0.02404
4816.06738,0.02434
4814.13864,0.02426
4812.20990,0.02404
4810.28116,0.02389
4808.35242,0.02356
4806.42367,0.02312
4804.49493,0.02296
4802.56619,0.02286
4800.63745,0.02249
4798.70871,0.02243
4796.77997,0.02312
4794.85123,0.02374
4792.92248,0.02360
4790.99374,0.02312
4789.06500,0.02287
4787.13626,0.02301
4785.20752,0.02345
4783.27878,0.02363
4781.35004,0.02331
4779.42129,0.02282
4777.49255,0.02252
4775.56381,0.02301
4773.63507,0.02406
4771.70633,0.02442
4769.77759,0.02383
4767.84885,0.02321
4765.92010,0.02322
4763.99136,0.02343
4762.06262,0.02330
4760.13388,0.02310
4758.20514,0.02294
4756.27640,0.02279
4754.34766,0.02266
4752.41891,0.02260
4750.49017,0.02298
4748.56143,0.02347
4746.63269,0.02348
4744.70395,0.02346
4742.77521,0.02370
4740.84647,0.02382
4738.91772,0.02363
4736.98898,0.02316
4735.06024,0.02272
4733.13150,0.02267
4731.20276,0.02298
4729.27402,0.02334
4727.34528,0.02345
4725.41653,0.02352
4723.48779,0.02365
4721.55905,0.02353
4719.63031,0.02335
4717.70157,0.02358
4715.77283,0.02401
4713.84409,0.02423
4711.91534,0.02420
4709.98660,0.02416
4708.05786,0.02401
4706.12912,0.02366
4704.20038,0.02365
4702.27164,0.02409
4700.34290,0.02412
4698.41415,0.02358
4696.48541,0.02324
4694.55667,0.02309
4692.62793,0.02277
4690.69919,0.02279
4688.77045,0.02325
4686.84170,0.02349
4684.91296,0.02324
4682.98422,0.02288
4681.05548,0.02282
4679.12674,0.02322
4677.19800,0.02379
4675.26926,0.02378
4673.34051,0.02340
4671.41177,0.02357
4669.48303,0.02397
4667.55429,0.02382
4665.62555,0.02339
4663.69681,0.02325
4661.76807,0.02337
4659.83932,0.02373
4657.91058,0.02430
4655.98184,0.02455
4654.05310,0.02415
4652.12436,0.02373
4650.19562,0.02374
4648.26688,0.02387
4646.33813,0.02374
4644.40939,0.02345
4642.48065,0.02334
4640.55191,0.02327
4638.62317,0.02313
4636.69443,0.02322
4634.76569,0.02336
4632.83694,0.02337
4630.90820,0.02334
4628.97946,0.02319
4627.05072,0.02307
4625.12198,0.02332
4623.19324,0.02365
4621.26450,0.02356
4619.33575,0.02329
4617.40701,0.02326
4615.47827,0.02341
4613.54953,0.02361
4611.62079,0.02379
4609.69205,0.02382
4607.76331,0.02373
4605.83456,0.02364
4603.90582,0.02354
4601.97708,0.02348
4600.04834,0.02358
4598.11960,0.02365
4596.19086,0.02348
4594.26212,0.02348
4592.33337,0.02384
4590.40463,0.02376
4588.47589,0.02311
4586.54715,0.02282
4584.61841,0.02316
4582.68967,0.02342
4580.76093,0.02316
4578.83218,0.02299
4576.90344,0.02346
4574.97470,0.02395
4573.04596,0.02359
4571.11722,0.02287
4569.18848,0.02290
4567.25974,0.02350
4565.33099,0.02377
4563.40225,0.02381
4561.47351,0.02383
4559.54477,0.02382
4557.61603,0.02402
4555.68729,0.02420
4553.75855,0.02397
4551.82980,0.02362
4549.90106,0.02344
4547.97232,0.02342
4546.04358,0.02351
4544.11484,0.02348
4542.18610,0.02324
4540.25736,0.02322
4538.32861,0.02359
4536.39987,0.02382
4534.47113,0.02376
4532.54239,0.02375
4530.61365,0.02360
4528.68491,0.02308
4526.75617,0.02271
4524.82742,0.02288
4522.89868,0.02309
4520.96994,0.02307
4519.04120,0.02315
4517.11246,0.02336
4515.18372,0.02361
4513.25498,0.02379
4511.32623,0.02389
4509.39749,0.02396
4507.46875,0.02401
4505.54001,0.02417
4503.61127,0.02441
4501.68253,0.02437
4499.75379,0.02395
4497.82504,0.02343
4495.89630,0.02297
4493.96756,0.02275
4492.03882,0.02283
4490.11008,0.02308
4488.18134,0.02341
4486.25259,0.02357
4484.32385,0.02352
4482.39511,0.02358
4480.46637,0.02373
4478.53763,0.02361
4476.60889,0.02308
4474.68015,0.02239
4472.75140,0.02208
4470.82266,0.02250
4468.89392,0.02324
4466.96518,0.02364
4465.03644,0.02359
4463.10770,0.02339
4461.17896,0.02316
4459.25021,0.02303
4457.32147,0.02318
4455.39273,0.02334
4453.46399,0.02335
4451.53525,0.02349
4449.60651,0.02358
4447.67777,0.02331
4445.74902,0.02292
4443.82028,0.02280
4441.89154,0.02285
4439.96280,0.02288
4438.03406,0.02313
4436.10532,0.02354
4434.17658,0.02351
4432.24783,0.02324
4430.31909,0.02346
4428.39035,0.02396
4426.46161,0.02407
4424.53287,0.02374
4422.60413,0.02348
4420.67539,0.02345
4418.74664,0.02333
4416.81790,0.02315
4414.88916,0.02317
4412.96042,0.02335
4411.03168,0.02356
4409.10294,0.02365
4407.17420,0.02355
4405.24545,0.02332
4403.31671,0.02311
4401.38797,0.02305
4399.45923,0.02321
4397.53049,0.02349
4395.60175,0.02356
4393.67301,0.02348
4391.74426,0.02343
4389.81552,0.02339
4387.88678,0.02341
4385.95804,0.02362
4384.02930,0.02388
4382.10056,0.02396
4380.17182,0.02403
4378.24307,0.02409
4376.31433,0.02371
4374.38559,0.02303
4372.45685,0.02279
4370.52811,0.02301
4368.59937,0.02303
4366.67063,0.02272
4364.74188,0.02243
4362.81314,0.02253
4360.88440,0.02313
4358.95566,0.02378
4357.02692,0.02400
4355.09818,0.02388
4353.16944,0.02367
4351.24069,0.02355
4349.31195,0.02367
4347.38321,0.02378
4345.45447,0.02351
4343.52573,0.02290
4341.59699,0.02241
4339.66825,0.02252
4337.73950,0.02296
4335.81076,0.02318
4333.88202,0.02334
4331.95328,0.02345
4330.02454,0.02330
4328.09580,0.02328
4326.16706,0.02343
4324.23831,0.02337
4322.30957,0.02331
4320.38083,0.02355
4318.45209,0.02377
4316.52335,0.02370
4314.59461,0.02359
4312.66587,0.02356
4310.73712,0.02341
4308.80838,0.02322
4306.87964,0.02326
4304.95090,0.02363
4303.02216,0.02400
4301.09342,0.02404
4299.16468,0.02400
4297.23593,0.02395
4295.30719,0.02385
4293.37845,0.02379
4291.44971,0.02352
4289.52097,0.02307
4287.59223,0.02306
4285.66348,0.02346
4283.73474,0.02345
4281.80600,0.02324
4279.87726,0.02352
4277.94852,0.02404
4276.01978,0.02433
4274.09104,0.02430
4272.16229,0.02421
4270.23355,0.02420
4268.30481,0.02396
4266.37607,0.02373
4264.44733,0.02388
4262.51859,0.02405
4260.58985,0.02396
4258.66110,0.02383
4256.73236,0.02385
4254.80362,0.02385
4252.87488,0.02355
4250.94614,0.02318
4249.01740,0.02307
4247.08866,0.02322
4245.15991,0.02368
4243.23117,0.02428
4241.30243,0.02442
4239.37369,0.02401
4237.44495,0.02359
4235.51621,0.02349
4233.58747,0.02350
4231.65872,0.02348
4229.72998,0.02356
4227.80124,0.02383
4225.87250,0.02414
4223.94376,0.02415
4222.01502,0.02404
4220.08628,0.02411
4218.15753,0.02405
4216.22879,0.02387
4214.30005,0.02382
4212.37131,0.02387
4210.44257,0.02395
4208.51383,0.02375
4206.58509,0.02331
4204.65634,0.02317
4202.72760,0.02333
4200.79886,0.02333
4198.87012,0.02321
4196.94138,0.02336
4195.01264,0.02352
4193.08390,0.02337
4191.15515,0.02342
4189.22641,0.02393
4187.29767,0.02419
4185.36893,0.02399
4183.44019,0.02383
4181.51145,0.02369
4179.58271,0.02340
4177.65396,0.02311
4175.72522,0.02300
4173.79648,0.02306
4171.86774,0.02320
4169.93900,0.02336
4168.01026,0.02351
4166.08152,0.02351
4164.15277,0.02344
4162.22403,0.02353
4160.29529,0.02370
4158.36655,0.02383
4156.43781,0.02385
4154.50907,0.02381
4152.58033,0.02391
4150.65158,0.02412
4148.72284,0.02422
4146.79410,0.02416
4144.86536,0.02409
4142.93662,0.02402
4141.00788,0.02376
4139.07914,0.02345
4137.15039,0.02341
4135.22165,0.02361
4133.29291,0.02394
4131.36417,0.02419
4129.43543,0.02411
4127.50669,0.02394
4125.57795,0.02392
4123.64920,0.02393
4121.72046,0.02380
4119.79172,0.02355
4117.86298,0.02361
4115.93424,0.02394
4114.00550,0.02396
4112.07676,0.02379
4110.14801,0.02391
4108.21927,0.02428
4106.29053,0.02452
4104.36179,0.02436
4102.43305,0.02408
4100.50431,0.02418
4098.57557,0.02441
4096.64682,0.02418
4094.71808,0.02375
4092.78934,0.02365
4090.86060,0.02369
4088.93186,0.02367
4087.00312,0.02352
4085.07437,0.02330
4083.14563,0.02327
4081.21689,0.02329
4079.28815,0.02305
4077.35941,0.02292
4075.43067,0.02336
4073.50193,0.02390
4071.57318,0.02382
4069.64444,0.02346
4067.71570,0.02345
4065.78696,0.02348
4063.85822,0.02337
4061.92948,0.02342
4060.00074,0.02354
4058.07199,0.02360
4056.14325,0.02378
4054.21451,0.02394
4052.28577,0.02404
4050.35703,0.02432
4048.42829,0.02441
4046.49955,0.02394
4044.57080,0.02351
4042.64206,0.02351
4040.71332,0.02365
4038.78458,0.02371
4036.85584,0.02358
4034.92710,0.02335
4032.99836,0.02329
4031.06961,0.02337
4029.14087,0.02341
4027.21213,0.02358
4025.28339,0.02402
4023.35465,0.02429
4021.42591,0.02405
4019.49717,0.02372
4017.56842,0.02382
4015.63968,0.02411
4013.71094,0.02416
4011.78220,0.02398
4009.85346,0.02377
4007.92472,0.02367
4005.99598,0.02376
4004.06723,0.02390
4002.13849,0.02400
4000.20975,0.02402
3998.28101,0.02387
3996.35227,0.02363
3994.42353,0.02360
3992.49479,0.02379
3990.56604,0.02388
3988.63730,0.02390
3986.70856,0.02395
3984.77982,0.02399
3982.85108,0.02397
3980.92234,0.02390
3978.99360,0.02370
3977.06485,0.02350
3975.13611,0.02358
3973.20737,0.02389
3971.27863,0.02402
3969.34989,0.02400
3967.42115,0.02411
3965.49241,0.02416
3963.56366,0.02390
3961.63492,0.02367
3959.70618,0.02379
3957.77744,0.02406
3955.84870,0.02417
3953.91996,0.02417
3951.99122,0.02418
3950.06247,0.02421
3948.13373,0.02414
3946.20499,0.02397
3944.27625,0.02376
3942.34751,0.02357
3940.41877,0.02362
3938.49003,0.02383
3936.56128,0.02391
3934.63254,0.02395
3932.70380,0.02399
3930.77506,0.02393
3928.84632,0.02390
3926.91758,0.02399
3924.98884,0.02419
3923.06009,0.02446
3921.13135,0.02447
3919.20261,0.02403
3917.27387,0.02366
3915.34513,0.02389
3913.41639,0.02428
3911.48765,0.02427
3909.55890,0.02387
3907.63016,0.02342
3905.70142,0.02327
3903.77268,0.02355
3901.84394,0.02392
3899.91520,0.02386
3897.98646,0.02349
3896.05771,0.02325
3894.12897,0.02322
3892.20023,0.02325
3890.27149,0.02329
3888.34275,0.02360
3886.41401,0.02398
3884.48526,0.02401
3882.55652,0.02398
3880.62778,0.02423
3878.69904,0.02446
3876.77030,0.02432
3874.84156,0.02386
3872.91282,0.02356
3870.98407,0.02370
3869.05533,0.02383
3867.12659,0.02374
3865.19785,0.02371
3863.26911,0.02382
3861.34037,0.02397
3859.41163,0.02412
3857.48288,0.02418
3855.55414,0.02404
3853.62540,0.02398
3851.69666,0.02429
3849.76792,0.02455
3847.83918,0.02445
3845.91044,0.02419
3843.98169,0.02410
3842.05295,0.02422
3840.12421,0.02420
3838.19547,0.02403
3836.26673,0.02418
3834.33799,0.02447
3832.40925,0.02432
3830.48050,0.02385
3828.55176,0.02345
3826.62302,0.02333
3824.69428,0.02357
3822.76554,0.02391
3820.83680,0.02397
3818.90806,0.02399
3816.97931,0.02424
3815.05057,0.02440
3813.12183,0.02423
3811.19309,0.02388
3809.26435,0.02357
3807.33561,0.02349
3805.40687,0.02379
3803.47812,0.02410
3801.54938,0.02388
3799.62064,0.02352
3797.69190,0.02344
3795.76316,0.02339
3793.83442,0.02337
3791.90568,0.02354
3789.97693,0.02369
3788.04819,0.02382
3786.11945,0.02422
3784.19071,0.02461
3782.26197,0.02442
3780.33323,0.02391
3778.40449,0.02359
3776.47574,0.02354
3774.54700,0.02357
3772.61826,0.02369
3770.68952,0.02391
3768.76078,0.02409
3766.83204,0.02419
3764.90330,0.02427
3762.97455,0.02417
3761.04581,0.02387
3759.11707,0.02372
3757.18833,0.02395
3755.25959,0.02439
3753.33085,0.02467
3751.40211,0.02462
3749.47336,0.02444
3747.54462,0.02439
3745.61588,0.02429
3743.68714,0.02408
3741.75840,0.02408
3739.82966,0.02411
3737.90092,0.02405
3735.97217,0.02403
3734.04343,0.02386
3732.11469,0.02349
3730.18595,0.02348
3728.25721,0.02388
3726.32847,0.02403
3724.39973,0.02383
3722.47098,0.02380
3720.54224,0.02394
3718.61350,0.02400
3716.68476,0.02396
3714.75602,0.02390
3712.82728,0.02392
3710.89854,0.02402
3708.96979,0.02404
3707.04105,0.02376
3705.11231,0.02335
3703.18357,0.02311
3701.25483,0.02300
3699.32609,0.02309
3697.39735,0.02348
3695.46860,0.02379
3693.53986,0.02373
3691.61112,0.02354
3689.68238,0.02355
3687.75364,0.02362
3685.82490,0.02349
3683.89615,0.02328
3681.96741,0.02320
3680.03867,0.02334
3678.10993,0.02373
3676.18119,0.02405
3674.25245,0.02404
3672.32371,0.02409
3670.39496,0.02422
3668.46622,0.02409
3666.53748,0.02391
3664.60874,0.02393
3662.68000,0.02399
3660.75126,0.02370
3658.82252,0.02316
3656.89377,0.02284
3654.96503,0.02288
3653.03629,0.02305
3651.10755,0.02327
3649.17881,0.02336
3647.25007,0.02309
3645.32133,0.02281
3643.39258,0.02269
3641.46384,0.02272
3639.53510,0.02293
3637.60636,0.02321
3635.67762,0.02324
3633.74888,0.02308
3631.82014,0.02331
3629.89139,0.02372
3627.96265,0.02367
3626.03391,0.02352
3624.10517,0.02346
3622.17643,0.02325
3620.24769,0.02309
3618.31895,0.02320
3616.39020,0.02331
3614.46146,0.02321
3612.53272,0.02307
3610.60398,0.02292
3608.67524,0.02269
3606.74650,0.02261
3604.81776,0.02274
3602.88901,0.02277
3600.96027,0.02265
3599.03153,0.02266
3597.10279,0.02277
3595.17405,0.02278
3593.24531,0.02278
3591.31657,0.02295
3589.38782,0.02303
3587.45908,0.02289
3585.53034,0.02294
3583.60160,0.02322
3581.67286,0.02343
3579.74412,0.02331
3577.81538,0.02289
3575.88663,0.02264
3573.95789,0.02287
3572.02915,0.02311
3570.10041,0.02291
3568.17167,0.02251
3566.24293,0.02233
3564.31419,0.02230
3562.38544,0.02219
3560.45670,0.02225
3558.52796,0.02248
3556.59922,0.02255
3554.67048,0.02254
3552.74174,0.02255
3550.81300,0.02256
3548.88425,0.02268
3546.95551,0.02267
3545.02677,0.02235
3543.09803,0.02205
3541.16929,0.02202
3539.24055,0.02212
3537.31181,0.02208
3535.38306,0.02183
3533.45432,0.02163
3531.52558,0.02158
3529.59684,0.02160
3527.66810,0.02187
3525.73936,0.02232
3523.81062,0.02238
3521.88187,0.02206
3519.95313,0.02186
3518.02439,0.02195
3516.09565,0.02206
3514.16691,0.02194
3512.23817,0.02171
3510.30943,0.02168
3508.38068,0.02172
3506.45194,0.02181
3504.52320,0.02206
3502.59446,0.02220
3500.66572,0.02211
3498.73698,0.02204
3496.80824,0.02209
3494.87949,0.02218
3492.95075,0.02218
3491.02201,0.02204
3489.09327,0.02179
3487.16453,0.02170
3485.23579,0.02196
3483.30704,0.02234
3481.37830,0.02259
3479.44956,0.02251
3477.52082,0.02209
3475.59208,0.02200
3473.66334,0.02238
3471.73460,0.02244
3469.80585,0.02203
3467.87711,0.02178
3465.94837,0.02182
3464.01963,0.02179
3462.09089,0.02165
3460.16215,0.02152
3458.23341,0.02142
3456.30466,0.02147
3454.37592,0.02163
3452.44718,0.02183
3450.51844,0.02201
3448.58970,0.02203
3446.66096,0.02177
3444.73222,0.02143
3442.80347,0.02151
3440.87473,0.02195
3438.94599,0.02205
3437.01725,0.02165
3435.08851,0.02129
3433.15977,0.02126
3431.23103,0.02139
3429.30228,0.02151
3427.37354,0.02163
3425.44480,0.02180
3423.51606,0.02201
3421.58732,0.02209
3419.65858,0.02204
3417.72984,0.02193
3415.80109,0.02197
3413.87235,0.02230
3411.94361,0.02256
3410.01487,0.02235
3408.08613,0.02203
3406.15739,0.02210
3404.22865,0.02224
3402.29990,0.02196
3400.37116,0.02136
3398.44242,0.02099
3396.51368,0.02124
3394.58494,0.02192
3392.65620,0.02239
3390.72746,0.02230
3388.79871,0.02189
3386.86997,0.02138
3384.94123,0.02076
3383.01249,0.02032
3381.08375,0.02050
3379.15501,0.02108
3377.22627,0.02150
3375.29752,0.02159
3373.36878,0.02148
3371.44004,0.02127
3369.51130,0.02101
3367.58256,0.02073
3365.65382,0.02067
3363.72508,0.02101
3361.79633,0.02140
3359.86759,0.02133
3357.93885,0.02091
3356.01011,0.02103
3354.08137,0.02192
3352.15263,0.02260
3350.22389,0.02243
3348.29514,0.02182
3346.36640,0.02138
3344.43766,0.02126
3342.50892,0.02115
3340.58018,0.02102
3338.65144,0.02127
3336.72270,0.02172
3334.79395,0.02184
3332.86521,0.02157
3330.93647,0.02140
3329.00773,0.02160
3327.07899,0.02177
3325.15025,0.02159
3323.22151,0.02132
3321.29276,0.02129
3319.36402,0.02161
3317.43528,0.02197
3315.50654,0.02196
3313.57780,0.02190
3311.64906,0.02204
3309.72032,0.02203
3307.79157,0.02169
3305.86283,0.02138
3303.93409,0.02143
3302.00535,0.02169
3300.07661,0.02177
3298.14787,0.02167
3296.21913,0.02167
3294.29038,0.02170
3292.36164,0.02155
3290.43290,0.02131
3288.50416,0.02100
3286.57542,0.02072
3284.64668,0.02078
3282.71793,0.02114
3280.78919,0.02119
3278.86045,0.02067
3276.93171,0.02033
3275.00297,0.02083
3273.07423,0.02144
3271.14549,0.02129
3269.21674,0.02092
3267.28800,0.02111
3265.35926,0.02165
3263.43052,0.02201
3261.50178,0.02207
3259.57304,0.02201
3257.64430,0.02189
3255.71555,0.02147
3253.78681,0.02103
3251.85807,0.02121
3249.92933,0.02152
3248.00059,0.02135
3246.07185,0.02108
3244.14311,0.02116
3242.21436,0.02154
3240.28562,0.02193
3238.35688,0.02204
3236.42814,0.02161
3234.49940,0.02099
3232.57066,0.02080
3230.64192,0.02099
3228.71317,0.02131
3226.78443,0.02156
3224.85569,0.02176
3222.92695,0.02209
3220.99821,0.02209
3219.06947,0.02173
3217.14073,0.02181
3215.21198,0.02227
3213.28324,0.02241
3211.35450,0.02229
3209.42576,0.02199
3207.49702,0.02160
3205.56828,0.02164
3203.63954,0.02200
3201.71079,0.02220
3199.78205,0.02215
3197.85331,0.02199
3195.92457,0.02208
3193.99583,0.02242
3192.06709,0.02282
3190.13835,0.02328
3188.20960,0.02333
3186.28086,0.02277
3184.35212,0.02228
3182.42338,0.02213
3180.49464,0.02190
3178.56590,0.02172
3176.63716,0.02192
3174.70841,0.02194
3172.77967,0.02151
3170.85093,0.02131
3168.92219,0.02170
3166.99345,0.02208
3165.06471,0.02200
3163.13597,0.02179
3161.20722,0.02183
3159.27848,0.02200
3157.34974,0.02219
3155.42100,0.02240
3153.49226,0.02256
3151.56352,0.02277
3149.63478,0.02294
3147.70603,0.02272
3145.77729,0.02211
3143.84855,0.02161
3141.91981,0.02157
3139.99107,0.02179
3138.06233,0.02178
3136.13359,0.02168
3134.20484,0.02188
3132.27610,0.02219
3130.34736,0.02238
3128.41862,0.02242
3126.48988,0.02236
3124.56114,0.02228
3122.63240,0.02221
3120.70365,0.02226
3118.77491,0.02235
3116.84617,0.02222
3114.91743,0.02201
3112.98869,0.02211
3111.05995,0.02236
3109.13121,0.02232
3107.20246,0.02210
3105.27372,0.02213
3103.34498,0.02222
3101.41624,0.02216
3099.48750,0.02204
3097.55876,0.02191
3095.63002,0.02183
3093.70127,0.02185
3091.77253,0.02199
3089.84379,0.02217
3087.91505,0.02200
3085.98631,0.02152
3084.05757,0.02130
3082.12882,0.02157
3080.20008,0.02198
3078.27134,0.02212
3076.34260,0.02205
3074.41386,0.02211
3072.48512,0.02225
3070.55638,0.02222
3068.62763,0.02198
3066.69889,0.02190
3064.77015,0.02213
3062.84141,0.02225
3060.91267,0.02212
3058.98393,0.02216
3057.05519,0.02233
3055.12644,0.02219
3053.19770,0.02189
3051.26896,0.02187
3049.34022,0.02209
3047.41148,0.02221
3045.48274,0.02222
3043.55400,0.02231
3041.62525,0.02243
3039.69651,0.02242
3037.76777,0.02219
3035.83903,0.02197
3033.91029,0.02204
3031.98155,0.02222
3030.05281,0.02229
3028.12406,0.02232
3026.19532,0.02232
3024.26658,0.02208
3022.33784,0.02174
3020.40910,0.02162
3018.48036,0.02166
3016.55162,0.02168
3014.62287,0.02183
3012.69413,0.02207
3010.76539,0.02212
3008.83665,0.02197
3006.90791,0.02188
3004.97917,0.02195
3003.05043,0.02207
3001.12168,0.02206
2999.19294,0.02189
2997.26420,0.02173
2995.33546,0.02158
2993.40672,0.02138
2991.47798,0.02129
2989.54924,0.02139
2987.62049,0.02159
2985.69175,0.02176
2983.76301,0.02163
2981.83427,0.02114
2979.90553,0.02071
2977.97679,0.02068
2976.04805,0.02087
2974.11930,0.02104
2972.19056,0.02114
2970.26182,0.02122
2968.33308,0.02130
2966.40434,0.02124
2964.47560,0.02101
2962.54686,0.02096
2960.61811,0.02119
2958.68937,0.02122
2956.76063,0.02092
2954.83189,0.02067
2952.90315,0.02068
2950.97441,0.02097
2949.04567,0.02128
2947.11692,0.02122
2945.18818,0.02101
2943.25944,0.02101
2941.33070,0.02108
2939.40196,0.02102
2937.47322,0.02096
2935.54448,0.02100
2933.61573,0.02105
2931.68699,0.02089
2929.75825,0.02074
2927.82951,0.02089
2925.90077,0.02116
2923.97203,0.02130
2922.04329,0.02145
2920.11454,0.02163
2918.18580,0.02179
2916.25706,0.02184
2914.32832,0.02172
2912.39958,0.02149
2910.47084,0.02141
2908.54210,0.02148
2906.61335,0.02150
2904.68461,0.02146
2902.75587,0.02139
2900.82713,0.02131
2898.89839,0.02134
2896.96965,0.02158
2895.04091,0.02188
2893.11216,0.02200
2891.18342,0.02189
2889.25468,0.02181
2887.32594,0.02191
2885.39720,0.02188
2883.46846,0.02169
2881.53971,0.02162
2879.61097,0.02172
2877.68223,0.02195
2875.75349,0.02213
2873.82475,0.02209
2871.89601,0.02188
2869.96727,0.02168
2868.03852,0.02167
2866.10978,0.02191
2864.18104,0.02204
2862.25230,0.02186
2860.32356,0.02167
2858.39482,0.02171
2856.46608,0.02182
2854.53733,0.02191
2852.60859,0.02209
2850.67985,0.02236
2848.75111,0.02246
2846.82237,0.02236
2844.89363,0.02226
2842.96489,0.02236
2841.03614,0.02259
2839.10740,0.02275
2837.17866,0.02276
2835.24992,0.02270
2833.32118,0.02267
2831.39244,0.02269
2829.46370,0.02273
2827.53495,0.02271
2825.60621,0.02261
2823.67747,0.02263
2821.74873,0.02276
2819.81999,0.02284
2817.89125,0.02295
2815.96251,0.02304
2814.03376,0.02290
2812.10502,0.02272
2810.17628,0.02267
2808.24754,0.02266
2806.31880,0.02260
2804.39006,0.02244
2802.46132,0.02226
2800.53257,0.02235
2798.60383,0.02260
2796.67509,0.02277
2794.74635,0.02281
2792.81761,0.02287
2790.88887,0.02301
2788.96013,0.02301
2787.03138,0.02278
2785.10264,0.02269
2783.17390,0.02277
2781.24516,0.02277
2779.31642,0.02278
2777.38768,0.02288
2775.45894,0.02279
2773.53019,0.02244
2771.60145,0.02212
2769.67271,0.02207
2767.74397,0.02229
2765.81523,0.02265
2763.88649,0.02293
2761.95775,0.02289
2760.02900,0.02264
2758.10026,0.02253
2756.17152,0.02257
2754.24278,0.02262
2752.31404,0.02273
2750.38530,0.02289
2748.45656,0.02296
2746.52781,0.02286
2744.59907,0.02260
2742.67033,0.02242
2740.74159,0.02254
2738.81285,0.02275
2736.88411,0.02280
2734.95537,0.02272
2733.02662,0.02263
2731.09788,0.02261
2729.16914,0.02263
2727.24040,0.02268
2725.31166,0.02274
2723.38292,0.02276
2721.45418,0.02291
2719.52543,0.02329
2717.59669,0.02347
2715.66795,0.02318
2713.73921,0.02275
2711.81047,0.02261
2709.88173,0.02267
2707.95299,0.02262
2706.02424,0.02244
2704.09550,0.02228
2702.16676,0.02218
2700.23802,0.02229
2698.30928,0.02263
2696.38054,0.02285
2694.45180,0.02272
2692.52305,0.02254
2690.59431,0.02261
2688.66557,0.02291
2686.73683,0.02316
2684.80809,0.02328
2682.87935,0.02322
2680.95060,0.02296
2679.02186,0.02271
2677.09312,0.02268
2675.16438,0.02283
2673.23564,0.02293
2671.30690,0.02289
2669.37816,0.02289
2667.44941,0.02306
2665.52067,0.02314
2663.59193,0.02300
2661.66319,0.02286
2659.73445,0.02285
2657.80571,0.02287
2655.87697,0.02287
2653.94822,0.02286
2652.01948,0.02284
2650.09074,0.02286
2648.16200,0.02287
2646.23326,0.02285
2644.30452,0.02288
2642.37578,0.02297
2640.44703,0.02291
2638.51829,0.02270
2636.58955,0.02266
2634.66081,0.02279
2632.73207,0.02286
2630.80333,0.02286
2628.87459,0.02283
2626.94584,0.02282
2625.01710,0.02288
2623.08836,0.02296
2621.15962,0.02297
2619.23088,0.02284
2617.30214,0.02260
2615.37340,0.02251
2613.44465,0.02261
2611.51591,0.02278
2609.58717,0.02299
2607.65843,0.02322
2605.72969,0.02335
2603.80095,0.02329
2601.87221,0.02308
2599.94346,0.02287
2598.01472,0.02279
2596.08598,0.02284
2594.15724,0.02293
2592.22850,0.02289
2590.29976,0.02276
2588.37102,0.02267
2586.44227,0.02259
2584.51353,0.02249
2582.58479,0.02254
2580.65605,0.02264
2578.72731,0.02268
2576.79857,0.02271
2574.86983,0.02275
2572.94108,0.02276
2571.01234,0.02276
2569.08360,0.02279
2567.15486,0.02288
2565.22612,0.02296
2563.29738,0.02298
2561.36864,0.02289
2559.43989,0.02272
2557.51115,0.02259
2555.58241,0.02263
2553.65367,0.02278
2551.72493,0.02280
2549.79619,0.02279
2547.86745,0.02293
2545.93870,0.02301
2544.00996,0.02287
2542.08122,0.02274
2540.15248,0.02276
2538.22374,0.02278
2536.29500,0.02279
2534.36626,0.02283
2532.43751,0.02297
2530.50877,0.02319
2528.58003,0.02325
2526.65129,0.02313
2524.72255,0.02307
2522.79381,0.02303
2520.86507,0.02294
2518.93632,0.02287
2517.00758,0.02289
2515.07884,0.02288
2513.15010,0.02270
2511.22136,0.02263
2509.29262,0.02288
2507.36388,0.02314
2505.43513,0.02310
2503.50639,0.02292
2501.57765,0.02281
2499.64891,0.02285
2497.72017,0.02297
2495.79143,0.02305
2493.86269,0.02311
2491.93394,0.02308
2490.00520,0.02294
2488.07646,0.02288
2486.14772,0.02296
2484.21898,0.02304
2482.29024,0.02302
2480.36149,0.02289
2478.43275,0.02277
2476.50401,0.02288
2474.57527,0.02310
2472.64653,0.02309
2470.71779,0.02296
2468.78905,0.02298
2466.86030,0.02306
2464.93156,0.02301
2463.00282,0.02281
2461.07408,0.02264
2459.14534,0.02262
2457.21660,0.02271
2455.28786,0.02286
2453.35911,0.02296
2451.43037,0.02288
2449.50163,0.02273
2447.57289,0.02267
2445.64415,0.02283
2443.71541,0.02312
2441.78667,0.02331
2439.85792,0.02335
2437.92918,0.02327
2436.00044,0.02302
2434.07170,0.02272
2432.14296,0.02251
2430.21422,0.02246
2428.28548,0.02245
2426.35673,0.02244
2424.42799,0.02254
2422.49925,0.02267
2420.57051,0.02270
2418.64177,0.02273
2416.71303,0.02284
2414.78429,0.02297
2412.85554,0.02293
2410.92680,0.02275
2408.99806,0.02264
2407.06932,0.02261
2405.14058,0.02270
2403.21184,0.02290
2401.28310,0.02304
2399.35435,0.02307
2397.42561,0.02302
2395.49687,0.02296
2393.56813,0.02297
2391.63939,0.02302
2389.71065,0.02301
2387.78191,0.02293
2385.85316,0.02294
2383.92442,0.02307
2381.99568,0.02314
2380.06694,0.02298
2378.13820,0.02271
2376.20946,0.02267
2374.28072,0.02287
2372.35197,0.02306
2370.42323,0.02316
2368.49449,0.02313
2366.56575,0.02303
2364.63701,0.02302
2362.70827,0.02306
2360.77953,0.02308
2358.85078,0.02317
2356.92204,0.02323
2354.99330,0.02319
2353.06456,0.02324
2351.13582,0.02330
2349.20708,0.02322
2347.27834,0.02304
2345.34959,0.02286
2343.42085,0.02269
2341.49211,0.02258
2339.56337,0.02258
2337.63463,0.02261
2335.70589,0.02252
2333.77715,0.02252
2331.84840,0.02261
2329.91966,0.02252
2327.99092,0.02235
2326.06218,0.02247
2324.13344,0.02283
2322.20470,0.02304
2320.27596,0.02298
2318.34721,0.02288
2316.41847,0.02290
2314.48973,0.02297
2312.56099,0.02302
2310.63225,0.02309
2308.70351,0.02310
2306.77477,0.02299
2304.84602,0.02296
2302.91728,0.02306
2300.98854,0.02308
2299.05980,0.02302
2297.13106,0.02294
2295.20232,0.02279
2293.27357,0.02273
2291.34483,0.02289
2289.41609,0.02295
2287.48735,0.02273
2285.55861,0.02259
2283.62987,0.02271
2281.70113,0.02276
2279.77238,0.02258
2277.84364,0.02242
2275.91490,0.02241
2273.98616,0.02249
2272.05742,0.02263
2270.12868,0.02280
2268.19994,0.02291
2266.27119,0.02295
2264.34245,0.02288
2262.41371,0.02265
2260.48497,0.02243
2258.55623,0.02235
2256.62749,0.02235
2254.69875,0.02226
2252.77000,0.02216
2250.84126,0.02228
2248.91252,0.02247
2246.98378,0.02248
2245.05504,0.02242
2243.12630,0.02244
2241.19756,0.02254
2239.26881,0.02273
2237.34007,0.02294
2235.41133,0.02302
2233.48259,0.02293
2231.55385,0.02269
2229.62511,0.02248
2227.69637,0.02251
2225.76762,0.02270
2223.83888,0.02277
2221.91014,0.02266
2219.98140,0.02263
2218.05266,0.02284
2216.12392,0.02299
2214.19518,0.02286
2212.26643,0.02271
2210.33769,0.02269
2208.40895,0.02271
2206.48021,0.02277
2204.55147,0.02288
2202.62273,0.02299
2200.69399,0.02304
2198.76524,0.02304
2196.83650,0.02298
2194.90776,0.02288
2192.97902,0.02285
2191.05028,0.02288
2189.12154,0.02286
2187.19280,0.02276
2185.26405,0.02260
2183.33531,0.02247
2181.40657,0.02247
2179.47783,0.02256
2177.54909,0.02268
2175.62035,0.02272
2173.69161,0.02266
2171.76286,0.02262
2169.83412,0.02268
2167.90538,0.02265
2165.97664,0.02250
2164.04790,0.02250
2162.11916,0.02263
2160.19042,0.02272
2158.26167,0.02272
2156.33293,0.02270
2154.40419,0.02274
2152.47545,0.02275
2150.54671,0.02271
2148.61797,0.02273
2146.68923,0.02277
2144.76048,0.02274
2142.83174,0.02267
2140.90300,0.02261
2138.97426,0.02263
2137.04552,0.02280
2135.11678,0.02294
2133.18804,0.02285
2131.25929,0.02271
2129.33055,0.02267
2127.40181,0.02263
2125.47307,0.02256
2123.54433,0.02248
2121.61559,0.02242
2119.68685,0.02239
2117.75810,0.02244
2115.82936,0.02256
2113.90062,0.02264
2111.97188,0.02265
2110.04314,0.02271
2108.11440,0.02280
2106.18566,0.02286
2104.25691,0.02287
2102.32817,0.02283
2100.39943,0.02278
2098.47069,0.02283
2096.54195,0.02291
2094.61321,0.02283
2092.68446,0.02269
2090.75572,0.02274
2088.82698,0.02281
2086.89824,0.02266
2084.96950,0.02255
2083.04076,0.02265
2081.11202,0.02268
2079.18327,0.02257
2077.25453,0.02254
2075.32579,0.02262
2073.39705,0.02262
2071.46831,0.02252
2069.53957,0.02248
2067.61083,0.02249
2065.68208,0.02248
2063.75334,0.02254
2061.82460,0.02265
2059.89586,0.02262
2057.96712,0.02248
2056.03838,0.02247
2054.10964,0.02255
2052.18089,0.02262
2050.25215,0.02274
2048.32341,0.02280
2046.39467,0.02267
2044.46593,0.02252
2042.53719,0.02247
2040.60845,0.02241
2038.67970,0.02230
2036.75096,0.02228
2034.82222,0.02243
2032.89348,0.02259
2030.96474,0.02251
2029.03600,0.02239
2027.10726,0.02244
2025.17851,0.02257
2023.24977,0.02269
2021.32103,0.02269
2019.39229,0.02256
2017.46355,0.02239
2015.53481,0.02227
2013.60607,0.02234
2011.67732,0.02266
2009.74858,0.02301
2007.81984,0.02310
2005.89110,0.02293
2003.96236,0.02268
2002.03362,0.02258
2000.10488,0.02267
1998.17613,0.02271
1996.24739,0.02255
1994.31865,0.02239
1992.38991,0.02241
1990.46117,0.02262
1988.53243,0.02290
1986.60369,0.02309
1984.67494,0.02311
1982.74620,0.02304
1980.81746,0.02296
1978.88872,0.02283
1976.95998,0.02265
1975.03124,0.02256
1973.10250,0.02261
1971.17375,0.02268
1969.24501,0.02261
1967.31627,0.02246
1965.38753,0.02226
1963.45879,0.02211
1961.53005,0.02219
1959.60131,0.02244
1957.67256,0.02259
1955.74382,0.02255
1953.81508,0.02236
1951.88634,0.02224
1949.95760,0.02230
1948.02886,0.02239
1946.10012,0.02245
1944.17137,0.02257
1942.24263,0.02268
1940.31389,0.02268
1938.38515,0.02261
1936.45641,0.02254
1934.52767,0.02246
1932.59893,0.02233
1930.67018,0.02227
1928.74144,0.02232
1926.81270,0.02240
1924.88396,0.02243
1922.95522,0.02246
1921.02648,0.02248
1919.09774,0.02247
1917.16899,0.02246
1915.24025,0.02250
1913.31151,0.02251
1911.38277,0.02248
1909.45403,0.02243
1907.52529,0.02241
1905.59655,0.02251
1903.66780,0.02256
1901.73906,0.02233
1899.81032,0.02201
1897.88158,0.02195
1895.95284,0.02211
1894.02410,0.02229
1892.09535,0.02249
1890.16661,0.02263
1888.23787,0.02252
1886.30913,0.02224
1884.38039,0.02211
1882.45165,0.02220
1880.52291,0.02231
1878.59416,0.02233
1876.66542,0.02228
1874.73668,0.02228
1872.80794,0.02239
1870.87920,0.02246
1868.95046,0.02235
1867.02172,0.02218
1865.09297,0.02205
1863.16423,0.02196
1861.23549,0.02196
1859.30675,0.02212
1857.37801,0.02228
1855.44927,0.02222
1853.52053,0.02205
1851.59178,0.02196
1849.66304,0.02189
1847.73430,0.02186
1845.80556,0.02194
1843.87682,0.02204
1841.94808,0.02208
1840.01934,0.02203
1838.09059,0.02187
1836.16185,0.02173
1834.23311,0.02171
1832.30437,0.02171
1830.37563,0.02156
1828.44689,0.02148
1826.51815,0.02165
1824.58940,0.02178
1822.66066,0.02176
1820.73192,0.02176
1818.80318,0.02179
1816.87444,0.02182
1814.94570,0.02183
1813.01696,0.02177
1811.08821,0.02169
1809.15947,0.02164
1807.23073,0.02156
1805.30199,0.02145
1803.37325,0.02137
1801.44451,0.02129
1799.51577,0.02125
1797.58702,0.02125
1795.65828,0.02123
1793.72954,0.02120
1791.80080,0.02115
1789.87206,0.02112
1787.94332,0.02109
1786.01458,0.02098
1784.08583,0.02093
1782.15709,0.02097
1780.22835,0.02091
1778.29961,0.02078
1776.37087,0.02080
1774.44213,0.02084
1772.51339,0.02072
1770.58464,0.02063
1768.65590,0.02055
1766.72716,0.02025
1764.79842,0.01983
1762.86968,0.01944
1760.94094,0.01916
1759.01220,0.01914
1757.08345,0.01917
1755.15471,0.01906
1753.22597,0.01899
1751.29723,0.01898
1749.36849,0.01891
1747.43975,0.01894
1745.51101,0.01914
1743.58226,0.01937
1741.65352,0.01970
1739.72478,0.02025
1737.79604,0.02077
1735.86730,0.02112
1733.93856,0.02125
1732.00982,0.02120
1730.08107,0.02129
1728.15233,0.02153
1726.22359,0.02167
1724.29485,0.02176
1722.36611,0.02195
1720.43737,0.02208
1718.50863,0.02202
1716.57988,0.02197
1714.65114,0.02203
1712.72240,0.02206
1710.79366,0.02212
1708.86492,0.02229
1706.93618,0.02233
1705.00744,0.02203
1703.07869,0.02168
1701.14995,0.02137
1699.22121,0.02099
1697.29247,0.02079
1695.36373,0.02077
1693.43499,0.02078
1691.50624,0.02079
1689.57750,0.02075
1687.64876,0.02077
1685.72002,0.02081
1683.79128,0.02069
1681.86254,0.02052
1679.93380,0.02043
1678.00505,0.02033
1676.07631,0.02017
1674.14757,0.02008
1672.21883,0.02014
1670.29009,0.02019
1668.36135,0.02015
1666.43261,0.02012
1664.50386,0.02008
1662.57512,0.02003
1660.64638,0.02011
1658.71764,0.02032
1656.78890,0.02050
1654.86016,0.02044
1652.93142,0.02008
1651.00267,0.01986
1649.07393,0.01987
1647.14519,0.01992
1645.21645,0.02001
1643.28771,0.02021
1641.35897,0.02041
1639.43023,0.02039
1637.50148,0.02011
1635.57274,0.01991
1633.64400,0.01996
1631.71526,0.01988
1629.78652,0.01961
1627.85778,0.01960
1625.92904,0.01988
1624.00029,0.02013
1622.07155,0.02033
1620.14281,0.02041
1618.21407,0.02033
1616.28533,0.02038
1614.35659,0.02061
1612.42785,0.02068
1610.49910,0.02060
1608.57036,0.02047
1606.64162,0.02034
1604.71288,0.02033
1602.78414,0.02050
1600.85540,0.02063
1598.92666,0.02062
1596.99791,0.02049
1595.06917,0.02028
1593.14043,0.02016
1591.21169,0.02027
1589.28295,0.02044
1587.35421,0.02049
1585.42547,0.02039
1583.49672,0.02023
1581.56798,0.02006
1579.63924,0.01998
1577.71050,0.02001
1575.78176,0.02004
1573.85302,0.02008
1571.92428,0.02009
1569.99553,0.01997
1568.06679,0.01969
1566.13805,0.01948
1564.20931,0.01945
1562.28057,0.01952
1560.35183,0.01956
1558.42309,0.01957
1556.49434,0.01958
1554.56560,0.01955
1552.63686,0.01955
1550.70812,0.01958
1548.77938,0.01963
1546.85064,0.01984
1544.92190,0.02027
1542.99315,0.02065
1541.06441,0.02053
1539.13567,0.02014
1537.20693,0.02002
1535.27819,0.02005
1533.34945,0.02007
1531.42071,0.02014
1529.49196,0.02023
1527.56322,0.02020
1525.63448,0.02006
1523.70574,0.01991
1521.77700,0.01984
1519.84826,0.01995
1517.91952,0.02003
1515.99077,0.01993
1514.06203,0.01991
1512.13329,0.02014
1510.20455,0.02038
1508.27581,0.02040
1506.34707,0.02017
1504.41833,0.01997
1502.48958,0.01994
1500.56084,0.02006
1498.63210,0.02025
1496.70336,0.02044
1494.77462,0.02054
1492.84588,0.02044
1490.91713,0.02017
1488.98839,0.01997
1487.05965,0.01999
1485.13091,0.02011
1483.20217,0.02016
1481.27343,0.02011
1479.34469,0.02008
1477.41594,0.02004
1475.48720,0.01990
1473.55846,0.01970
1471.62972,0.01962
1469.70098,0.01974
1467.77224,0.01990
1465.84350,0.01995
1463.91475,0.01985
1461.98601,0.01975
1460.05727,0.01986
1458.12853,0.02011
1456.19979,0.02027
1454.27105,0.02028
1452.34231,0.02018
1450.41356,0.02007
1448.48482,0.02009
1446.55608,0.02024
1444.62734,0.02036
1442.69860,0.02036
1440.76986,0.02040
1438.84112,0.02062
1436.91237,0.02077
1434.98363,0.02062
1433.05489,0.02042
1431.12615,0.02035
1429.19741,0.02031
1427.26867,0.02022
1425.33993,0.02014
1423.41118,0.02006
1421.48244,0.01998
1419.55370,0.01999
1417.62496,0.01995
1415.69622,0.01988
1413.76748,0.01988
1411.83874,0.01977
1409.90999,0.01966
1407.98125,0.01977
1406.05251,0.01994
1404.12377,0.01988
1402.19503,0.01969
1400.26629,0.01964
1398.33755,0.01973
1396.40880,0.01974
1394.48006,0.01958
1392.55132,0.01936
1390.62258,0.01922
1388.69384,0.01917
1386.76510,0.01911
1384.83636,0.01915
1382.90761,0.01933
1380.97887,0.01943
1379.05013,0.01958
1377.12139,0.01987
1375.19265,0.01993
1373.26391,0.01974
1371.33517,0.01964
1369.40642,0.01971
1367.47768,0.01978
1365.54894,0.01967
1363.62020,0.01944
1361.69146,0.01932
1359.76272,0.01944
1357.83398,0.01958
1355.90523,0.01951
1353.97649,0.01938
1352.04775,0.01939
1350.11901,0.01943
1348.19027,0.01939
1346.26153,0.01933
1344.33279,0.01926
1342.40404,0.01912
1340.47530,0.01896
1338.54656,0.01889
1336.61782,0.01894
1334.68908,0.01903
1332.76034,0.01915
1330.83160,0.01911
1328.90285,0.01884
1326.97411,0.01871
1325.04537,0.01876
1323.11663,0.01859
1321.18789,0.01826
1319.25915,0.01821
1317.33041,0.01846
1315.40166,0.01863
1313.47292,0.01857
1311.54418,0.01839
1309.61544,0.01827
1307.68670,0.01824
1305.75796,0.01815
1303.82922,0.01807
1301.90047,0.01836
1299.97173,0.01883
1298.04299,0.01898
1296.11425,0.01889
1294.18551,0.01888
1292.25677,0.01908
1290.32802,0.01938
1288.39928,0.01965
1286.47054,0.01979
1284.54180,0.01981
1282.61306,0.01981
1280.68432,0.01988
1278.75558,0.02004
1276.82683,0.02029
1274.89809,0.02055
1272.96935,0.02062
1271.04061,0.02057
1269.11187,0.02062
1267.18313,0.02079
1265.25439,0.02096
1263.32564,0.02113
1261.39690,0.02133
1259.46816,0.02152
1257.53942,0.02164
1255.61068,0.02163
1253.68194,0.02150
1251.75320,0.02140
1249.82445,0.02144
1247.89571,0.02167
1245.96697,0.02186
1244.03823,0.02172
1242.10949,0.02146
1240.18075,0.02137
1238.25201,0.02136
1236.32326,0.02135
1234.39452,0.02134
1232.46578,0.02126
1230.53704,0.02111
1228.60830,0.02096
1226.67956,0.02087
1224.75082,0.02082
1222.82207,0.02085
1220.89333,0.02092
1218.96459,0.02087
1217.03585,0.02062
1215.10711,0.02036
1213.17837,0.02038
1211.24963,0.02064
1209.32088,0.02084
1207.39214,0.02088
1205.46340,0.02087
1203.53466,0.02081
1201.60592,0.02061
1199.67718,0.02031
1197.74844,0.01991
1195.81969,0.01958
1193.89095,0.01964
1191.96221,0.01992
1190.03347,0.02008
1188.10473,0.02006
1186.17599,0.01997
1184.24725,0.01991
1182.31850,0.01988
1180.38976,0.01977
1178.46102,0.01968
1176.53228,0.01967
1174.60354,0.01953
1172.67480,0.01937
1170.74606,0.01942
1168.81731,0.01941
1166.88857,0.01927
1164.95983,0.01925
1163.03109,0.01919
1161.10235,0.01898
1159.17361,0.01897
1157.24487,0.01915
1155.31612,0.01919
1153.38738,0.01916
1151.45864,0.01924
1149.52990,0.01923
1147.60116,0.01906
1145.67242,0.01897
1143.74368,0.01912
1141.81493,0.01923
1139.88619,0.01914
1137.95745,0.01908
1136.02871,0.01912
1134.09997,0.01904
1132.17123,0.01896
1130.24249,0.01915
1128.31374,0.01948
1126.38500,0.01963
1124.45626,0.01967
1122.52752,0.01983
1120.59878,0.02010
1118.67004,0.02034
1116.74130,0.02035
1114.81255,0.02011
1112.88381,0.01997
1110.95507,0.02004
1109.02633,0.02010
1107.09759,0.02002
1105.16885,0.01964
1103.24011,0.01905
1101.31136,0.01878
1099.38262,0.01915
1097.45388,0.01971
1095.52514,0.01989
1093.59640,0.01973
1091.66766,0.01944
1089.73891,0.01916
1087.81017,0.01904
1085.88143,0.01899
1083.95269,0.01911
1082.02395,0.01955
1080.09521,0.02014
1078.16647,0.02068
1076.23772,0.02104
1074.30898,0.02122
1072.38024,0.02143
1070.45150,0.02163
1068.52276,0.02166
1066.59402,0.02157
1064.66528,0.02141
1062.73653,0.02132
1060.80779,0.02125
1058.87905,0.02130
1056.95031,0.02165
1055.02157,0.02190
1053.09283,0.02160
1051.16409,0.02090
1049.23534,0.02024
1047.30660,0.01991
1045.37786,0.02003
1043.44912,0.02055
1041.52038,0.02105
1039.59164,0.02102
1037.66290,0.02068
1035.73415,0.02046
1033.80541,0.02042
1031.87667,0.02053
1029.94793,0.02077
1028.01919,0.02101
1026.09045,0.02120
1024.16171,0.02129
1022.23296,0.02119
1020.30422,0.02093
1018.37548,0.02071
1016.44674,0.02060
1014.51800,0.02057
1012.58926,0.02082
1010.66052,0.02134
1008.73177,0.02183
1006.80303,0.02218
1004.87429,0.02243
1002.94555,0.02260
1001.01681,0.02267
999.08807,0.02258
997.15933,0.02255
995.23058,0.02251
993.30184,0.02216
991.37310,0.02182
989.44436,0.02192
987.51562,0.02231
985.58688,0.02263
983.65814,0.02259
981.72939,0.02220
979.80065,0.02194
977.87191,0.02186
975.94317,0.02159
974.01443,0.02140
972.08569,0.02167
970.15695,0.02205
968.22820,0.02213
966.29946,0.02200
964.37072,0.02194
962.44198,0.02193
960.51324,0.02177
958.58450,0.02151
956.65576,0.02129
954.72701,0.02123
952.79827,0.02123
950.86953,0.02108
948.94079,0.02080
947.01205,0.02060
945.08331,0.02067
943.15457,0.02091
941.22582,0.02103
939.29708,0.02101
937.36834,0.02112
935.43960,0.02143
933.51086,0.02152
931.58212,0.02119
929.65338,0.02096
927.72463,0.02124
925.79589,0.02155
923.86715,0.02136
921.93841,0.02095
920.00967,0.02085
918.08093,0.02101
916.15219,0.02092
914.22344,0.02046
912.29470,0.02024
910.36596,0.02051
908.43722,0.02080
906.50848,0.02073
904.57974,0.02046
902.65100,0.02041
900.72225,0.02057
898.79351,0.02070
896.86477,0.02073
894.93603,0.02062
893.00729,0.02051
891.07855,0.02058
889.14980,0.02068
887.22106,0.02053
885.29232,0.02019
883.36358,0.02011
881.43484,0.02021
879.50610,0.02029
877.57736,0.02052
875.64861,0.02071
873.71987,0.02063
871.79113,0.02042
869.86239,0.02042
867.93365,0.02064
866.00491,0.02065
864.07617,0.02035
862.14742,0.02006
860.21868,0.02003
858.28994,0.02027
856.36120,0.02053
854.43246,0.02064
852.50372,0.02047
850.57498,0.02004
848.64623,0.01986
846.71749,0.02007
844.78875,0.02013
842.86001,0.02001
840.93127,0.02007
839.00253,0.02020
837.07379,0.02028
835.14504,0.02038
833.21630,0.02055
831.28756,0.02071
829.35882,0.02090
827.43008,0.02104
825.50134,0.02075
823.57260,0.02026
821.64385,0.02012
819.71511,0.02025
817.78637,0.02064
815.85763,0.02114
813.92889,0.02106
812.00015,0.02062
810.07141,0.02052
808.14266,0.02053
806.21392,0.02037
804.28518,0.02014
802.35644,0.01981
800.42770,0.01954
798.49896,0.01969
796.57022,0.01998
794.64147,0.01995
792.71273,0.01972
790.78399,0.01973
788.85525,0.02010
786.92651,0.02039
784.99777,0.02038
783.06903,0.02049
781.14028,0.02054
779.21154,0.02024
777.28280,0.01993
775.35406,0.01972
773.42532,0.01960
771.49658,0.01965
769.56784,0.01969
767.63909,0.01974
765.71035,0.01983
763.78161,0.01990
761.85287,0.01998
759.92413,0.02020
757.99539,0.02031
756.06665,0.01986
754.13790,0.01903
752.20916,0.01856
750.28042,0.01865
748.35168,0.01890
746.42294,0.01912
744.49420,0.01964
742.56546,0.02023
740.63671,0.02005
738.70797,0.01938
736.77923,0.01899
734.85049,0.01893
732.92175,0.01895
730.99301,0.01919
729.06427,0.01965
727.13552,0.01981
725.20678,0.01953
723.27804,0.01942
721.34930,0.01971
719.42056,0.01996
717.49182,0.02006
715.56308,0.02006
713.63433,0.01990
711.70559,0.01994
709.77685,0.02036
707.84811,0.02069
705.91937,0.02060
703.99063,0.02040
702.06189,0.02030
700.13314,0.02001
698.20440,0.01952
696.27566,0.01926
694.34692,0.01935
692.41818,0.01952
690.48944,0.01953
688.56069,0.01936
686.63195,0.01925
684.70321,0.01939
682.77447,0.01954
680.84573,0.01956
678.91699,0.01978
676.98825,0.02022
675.05950,0.02036
673.13076,0.02012
671.20202,0.01969
669.27328,0.01913
667.34454,0.01897
665.41580,0.01930
663.48706,0.01929
661.55831,0.01866
659.62957,0.01806
657.70083,0.01795
655.77209,0.01814
653.84335,0.01820
651.91461,0.01835
649.98587,0.01894
648.05712,0.01931
646.12838,0.01837
644.19964,0.01678
642.27090,0.01641
640.34216,0.01757
638.41342,0.01903
636.48468,0.01989
634.55593,0.01952
632.62719,0.01775
630.69845,0.01633
628.76971,0.01680
626.84097,0.01766
624.91223,0.01769
622.98349,0.01759
621.05474,0.01794
619.12600,0.01879
617.19726,0.01942
615.26852,0.01902
613.33978,0.01816
611.41104,0.01739
609.48230,0.01681
607.55355,0.01671
605.62481,0.01707
603.69607,0.01700
601.76733,0.01644
599.83859,0.01625
