7497.01799,0.12410
7495.08925,0.12535
7493.16050,0.12514
7491.23176,0.12767
7489.30302,0.12889
7487.37428,0.12832
7485.44554,0.13040
7483.51680,0.13530
7481.58806,0.13777
7479.65931,0.13622
7477.73057,0.13477
7475.80183,0.13489
7473.87309,0.13315
7471.94435,0.12797
7470.01561,0.12173
7468.08686,0.11998
7466.15812,0.12353
7464.22938,0.12692
7462.30064,0.12857
7460.37190,0.12996
7458.44316,0.12871
7456.51442,0.12394
7454.58567,0.12001
7452.65693,0.12010
7450.72819,0.12190
7448.79945,0.12204
7446.87071,0.12008
7444.94197,0.11840
7443.01323,0.11986
7441.08448,0.12267
7439.15574,0.12162
7437.22700,0.11847
7435.29826,0.11824
7433.36952,0.11958
7431.44078,0.11931
7429.51204,0.11972
7427.58329,0.12339
7425.65455,0.12654
7423.72581,0.12541
7421.79707,0.12374
7419.86833,0.12401
7417.93959,0.12303
7416.01085,0.11947
7414.08210,0.11482
7412.15336,0.11292
7410.22462,0.11749
7408.29588,0.12400
7406.36714,0.12625
7404.43840,0.12483
7402.50966,0.12277
7400.58091,0.12206
7398.65217,0.12152
7396.72343,0.12029
7394.79469,0.12132
7392.86595,0.12317
7390.93721,0.12142
7389.00847,0.12005
7387.07972,0.12352
7385.15098,0.12604
7383.22224,0.12432
7381.29350,0.12356
7379.36476,0.12359
7377.43602,0.12077
7375.50728,0.11903
7373.57853,0.12151
7371.64979,0.12422
7369.72105,0.12478
7367.79231,0.12380
7365.86357,0.12291
7363.93483,0.12394
7362.00609,0.12437
7360.07734,0.12380
7358.14860,0.12424
7356.21986,0.12370
7354.29112,0.12181
7352.36238,0.11949
7350.43364,0.11684
7348.50490,0.11594
7346.57615,0.11682
7344.64741,0.11707
7342.71867,0.11551
7340.78993,0.11340
7338.86119,0.11309
7336.93245,0.11458
7335.00371,0.11421
7333.07496,0.11046
7331.14622,0.10683
7329.21748,0.10513
7327.28874,0.10416
7325.36000,0.10454
7323.43126,0.10621
7321.50252,0.10652
7319.57377,0.10602
7317.64503,0.10774
7315.71629,0.11044
7313.78755,0.11134
7311.85881,0.10797
7309.93007,0.10051
7308.00133,0.09482
7306.07258,0.09560
7304.14384,0.10032
7302.21510,0.10442
7300.28636,0.10641
7298.35762,0.10735
7296.42888,0.10879
7294.50014,0.11014
7292.57139,0.10734
7290.64265,0.10135
7288.71391,0.10075
7286.78517,0.10650
7284.85643,0.10794
7282.92769,0.10206
7280.99894,0.09568
7279.07020,0.09225
7277.14146,0.09119
7275.21272,0.09257
7273.28398,0.09638
7271.35524,0.09933
7269.42650,0.09668
7267.49775,0.09065
7265.56901,0.08791
7263.64027,0.08860
7261.71153,0.08850
7259.78279,0.08852
7257.85405,0.09158
7255.92531,0.09512
7253.99656,0.09373
7252.06782,0.08781
7250.13908,0.08454
7248.21034,0.08758
7246.28160,0.09106
7244.35286,0.09086
7242.42412,0.08871
7240.49537,0.08729
7238.56663,0.08925
7236.63789,0.09278
7234.70915,0.09299
7232.78041,0.09205
7230.85167,0.09255
7228.92293,0.09093
7226.99418,0.08606
7225.06544,0.08107
7223.13670,0.07915
7221.20796,0.08138
7219.27922,0.08465
7217.35048,0.08617
7215.42174,0.08748
7213.49299,0.08849
7211.56425,0.08710
7209.63551,0.08560
7207.70677,0.08460
7205.77803,0.08376
7203.84929,0.08770
7201.92055,0.09475
7199.99180,0.09491
7198.06306,0.08920
7196.13432,0.08667
7194.20558,0.08729
7192.27684,0.08735
7190.34810,0.08893
7188.41936,0.09158
7186.49061,0.09042
7184.56187,0.08637
7182.63313,0.08481
7180.70439,0.08651
7178.77565,0.08868
7176.84691,0.08816
7174.91817,0.08515
7172.98942,0.08376
7171.06068,0.08387
7169.13194,0.08262
7167.20320,0.08225
7165.27446,0.08584
7163.34572,0.09175
7161.41698,0.09424
7159.48823,0.09009
7157.55949,0.08319
7155.63075,0.07998
7153.70201,0.08191
7151.77327,0.08473
7149.84453,0.08478
7147.91579,0.08129
7145.98704,0.07652
7144.05830,0.07620
7142.12956,0.07999
7140.20082,0.08177
7138.27208,0.08149
7136.34334,0.08291
7134.41460,0.08524
7132.48585,0.08535
7130.55711,0.08319
7128.62837,0.08096
7126.69963,0.07934
7124.77089,0.07898
7122.84215,0.08114
7120.91341,0.08473
7118.98466,0.08454
7117.05592,0.07798
7115.12718,0.07200
7113.19844,0.07308
7111.26970,0.07751
7109.34096,0.07949
7107.41222,0.07851
7105.48347,0.07731
7103.55473,0.07619
7101.62599,0.07483
7099.69725,0.07630
7097.76851,0.08011
7095.83977,0.08051
7093.91103,0.07968
7091.98228,0.08085
7090.05354,0.08002
7088.12480,0.07634
7086.19606,0.07398
7084.26732,0.07594
7082.33858,0.07993
7080.40983,0.07984
7078.48109,0.07606
7076.55235,0.07475
7074.62361,0.07739
7072.69487,0.07973
7070.76613,0.08111
7068.83739,0.08197
7066.90864,0.07923
7064.97990,0.07550
7063.05116,0.07645
7061.12242,0.07937
7059.19368,0.07941
7057.26494,0.07873
7055.33620,0.07973
7053.40745,0.08096
7051.47871,0.08168
7049.54997,0.08136
7047.62123,0.08169
7045.69249,0.08419
7043.76375,0.08507
7041.83501,0.08127
7039.90626,0.07609
7037.97752,0.07591
7036.04878,0.08156
7034.12004,0.08588
7032.19130,0.08471
7030.26256,0.08135
7028.33382,0.07891
7026.40507,0.07654
7024.47633,0.07486
7022.54759,0.07594
7020.61885,0.07712
7018.69011,0.07645
7016.76137,0.07627
7014.83263,0.07697
7012.90388,0.07858
7010.97514,0.08094
7009.04640,0.08171
7007.11766,0.08058
7005.18892,0.07944
7003.26018,0.07846
7001.33144,0.07867
6999.40269,0.08038
6997.47395,0.08043
6995.54521,0.07931
6993.61647,0.08067
6991.68773,0.08186
6989.75899,0.08076
6987.83025,0.08099
6985.90150,0.08140
6983.97276,0.07765
6982.04402,0.07427
6980.11528,0.07686
6978.18654,0.08214
6976.25780,0.08471
6974.32906,0.08356
6972.40031,0.08175
6970.47157,0.08188
6968.54283,0.08224
6966.61409,0.08177
6964.68535,0.08083
6962.75661,0.07916
6960.82787,0.07715
6958.89912,0.07567
6956.97038,0.07531
6955.04164,0.07772
6953.11290,0.08252
6951.18416,0.08442
6949.25542,0.08187
6947.32668,0.08048
6945.39793,0.08208
6943.46919,0.08364
6941.54045,0.08320
6939.61171,0.08113
6937.68297,0.07984
6935.75423,0.08171
6933.82549,0.08436
6931.89674,0.08328
6929.96800,0.08014
6928.03926,0.07908
6926.11052,0.07981
6924.18178,0.08134
6922.25304,0.08146
6920.32430,0.07889
6918.39555,0.07829
6916.46681,0.08115
6914.53807,0.08292
6912.60933,0.08272
6910.68059,0.08174
6908.75185,0.08012
6906.82311,0.07990
6904.89436,0.08155
6902.96562,0.08276
6901.03688,0.08290
6899.10814,0.08286
6897.17940,0.08189
6895.25066,0.07794
6893.32192,0.07364
6891.39317,0.07491
6889.46443,0.07990
6887.53569,0.08228
6885.60695,0.08181
6883.67821,0.08102
6881.74947,0.08167
6879.82072,0.08297
6877.89198,0.08178
6875.96324,0.08041
6874.03450,0.08312
6872.10576,0.08672
6870.17702,0.08668
6868.24828,0.08249
6866.31953,0.07702
6864.39079,0.07617
6862.46205,0.08095
6860.53331,0.08477
6858.60457,0.08491
6856.67583,0.08461
6854.74709,0.08390
6852.81834,0.08116
6850.88960,0.07977
6848.96086,0.08230
6847.03212,0.08614
6845.10338,0.08811
6843.17464,0.08739
6841.24590,0.08560
6839.31715,0.08414
6837.38841,0.08236
6835.45967,0.08131
6833.53093,0.08348
6831.60219,0.08782
6829.67345,0.08915
6827.74471,0.08594
6825.81596,0.08124
6823.88722,0.07786
6821.95848,0.07827
6820.02974,0.08229
6818.10100,0.08607
6816.17226,0.08649
6814.24352,0.08334
6812.31477,0.07956
6810.38603,0.07839
6808.45729,0.08071
6806.52855,0.08357
6804.59981,0.08307
6802.67107,0.08056
6800.74233,0.08045
6798.81358,0.08322
6796.88484,0.08555
6794.95610,0.08346
6793.02736,0.07956
6791.09862,0.07917
6789.16988,0.08020
6787.24114,0.07965
6785.31239,0.07941
6783.38365,0.07931
6781.45491,0.07821
6779.52617,0.07987
6777.59743,0.08408
6775.66869,0.08336
6773.73995,0.07860
6771.81120,0.07617
6769.88246,0.07503
6767.95372,0.07502
6766.02498,0.07811
6764.09624,0.08051
6762.16750,0.07966
6760.23876,0.07738
6758.31001,0.07497
6756.38127,0.07330
6754.45253,0.07302
6752.52379,0.07364
6750.59505,0.07426
6748.66631,0.07401
6746.73757,0.07357
6744.80882,0.07415
6742.88008,0.07502
6740.95134,0.07544
6739.02260,0.07595
6737.09386,0.07687
6735.16512,0.07786
6733.23638,0.07877
6731.30763,0.08011
6729.37889,0.08239
6727.45015,0.08508
6725.52141,0.08664
6723.59267,0.08520
6721.66393,0.08077
6719.73519,0.07653
6717.80644,0.07585
6715.87770,0.07823
6713.94896,0.07932
6712.02022,0.07707
6710.09148,0.07458
6708.16274,0.07503
6706.23400,0.07744
6704.30525,0.07975
6702.37651,0.08139
6700.44777,0.08129
6698.51903,0.07939
6696.59029,0.07766
6694.66155,0.07615
6692.73281,0.07451
6690.80406,0.07324
6688.87532,0.07236
6686.94658,0.07206
6685.01784,0.07190
6683.08910,0.07130
6681.16036,0.07104
6679.23161,0.07154
6677.30287,0.07145
6675.37413,0.06933
6673.44539,0.06693
6671.51665,0.06740
6669.58791,0.07042
6667.65917,0.07254
6665.73042,0.07287
6663.80168,0.07330
6661.87294,0.07448
6659.94420,0.07520
6658.01546,0.07449
6656.08672,0.07324
6654.15798,0.07268
6652.22923,0.07117
6650.30049,0.06854
6648.37175,0.06783
6646.44301,0.06843
6644.51427,0.06718
6642.58553,0.06600
6640.65679,0.06761
6638.72804,0.06905
6636.79930,0.06829
6634.87056,0.06759
6632.94182,0.06699
6631.01308,0.06521
6629.08434,0.06346
6627.15560,0.06295
6625.22685,0.06248
6623.29811,0.06211
6621.36937,0.06352
6619.44063,0.06596
6617.51189,0.06737
6615.58315,0.06628
6613.65441,0.06334
6611.72566,0.06255
6609.79692,0.06452
6607.86818,0.06513
6605.93944,0.06301
6604.01070,0.06133
6602.08196,0.06130
6600.15322,0.06048
6598.22447,0.05910
6596.29573,0.05982
6594.36699,0.06168
6592.43825,0.06233
6590.50951,0.06231
6588.58077,0.06216
6586.65203,0.06206
6584.72328,0.06326
6582.79454,0.06394
6580.86580,0.06230
6578.93706,0.06085
6577.00832,0.06124
6575.07958,0.06199
6573.15084,0.06238
6571.22209,0.06353
6569.29335,0.06531
6567.36461,0.06612
6565.43587,0.06632
6563.50713,0.06673
6561.57839,0.06640
6559.64965,0.06504
6557.72090,0.06504
6555.79216,0.06730
6553.86342,0.06859
6551.93468,0.06675
6550.00594,0.06395
6548.07720,0.06343
6546.14846,0.06504
6544.21971,0.06524
6542.29097,0.06372
6540.36223,0.06275
6538.43349,0.06226
6536.50475,0.06181
6534.57601,0.06224
6532.64727,0.06346
6530.71852,0.06527
6528.78978,0.06664
6526.86104,0.06527
6524.93230,0.06104
6523.00356,0.05773
6521.07482,0.05773
6519.14608,0.05968
6517.21733,0.06091
6515.28859,0.06031
6513.35985,0.05949
6511.43111,0.05960
6509.50237,0.05991
6507.57363,0.06079
6505.64489,0.06218
6503.71614,0.06169
6501.78740,0.05961
6499.85866,0.05969
6497.92992,0.06182
6496.00118,0.06259
6494.07244,0.06160
6492.14370,0.06000
6490.21495,0.05837
6488.28621,0.05858
6486.35747,0.06101
6484.42873,0.06299
6482.49999,0.06338
6480.57125,0.06388
6478.64250,0.06471
6476.71376,0.06409
6474.78502,0.06176
6472.85628,0.05982
6470.92754,0.05906
6468.99880,0.05876
6467.07006,0.06006
6465.14131,0.06364
6463.21257,0.06681
6461.28383,0.06766
6459.35509,0.06691
6457.42635,0.06649
6455.49761,0.06739
6453.56887,0.06819
6451.64012,0.06805
6449.71138,0.06796
6447.78264,0.06882
6445.85390,0.07056
6443.92516,0.07209
6441.99642,0.07318
6440.06768,0.07394
6438.13893,0.07439
6436.21019,0.07487
6434.28145,0.07410
6432.35271,0.07223
6430.42397,0.07215
6428.49523,0.07354
6426.56649,0.07352
6424.63774,0.07271
6422.70900,0.07326
6420.78026,0.07394
6418.85152,0.07402
6416.92278,0.07451
6414.99404,0.07499
6413.06530,0.07437
6411.13655,0.07189
6409.20781,0.07029
6407.27907,0.07311
6405.35033,0.07676
6403.42159,0.07791
6401.49285,0.07775
6399.56411,0.07677
6397.63536,0.07514
6395.70662,0.07336
6393.77788,0.07233
6391.84914,0.07263
6389.92040,0.07221
6387.99166,0.07018
6386.06292,0.06839
6384.13417,0.06802
6382.20543,0.06903
6380.27669,0.07103
6378.34795,0.07166
6376.41921,0.06888
6374.49047,0.06526
6372.56173,0.06438
6370.63298,0.06544
6368.70424,0.06644
6366.77550,0.06750
6364.84676,0.06874
6362.91802,0.06852
6360.98928,0.06630
6359.06054,0.06464
6357.13179,0.06520
6355.20305,0.06628
6353.27431,0.06665
6351.34557,0.06722
6349.41683,0.06791
6347.48809,0.06771
6345.55935,0.06862
6343.63060,0.07152
6341.70186,0.07247
6339.77312,0.06962
6337.84438,0.06690
6335.91564,0.06737
6333.98690,0.06855
6332.05816,0.06819
6330.12941,0.06830
6328.20067,0.07001
6326.27193,0.07185
6324.34319,0.07224
6322.41445,0.07137
6320.48571,0.07108
6318.55697,0.07177
6316.62822,0.07218
6314.69948,0.07225
6312.77074,0.07296
6310.84200,0.07432
6308.91326,0.07561
6306.98452,0.07616
6305.05578,0.07537
6303.12703,0.07380
6301.19829,0.07285
6299.26955,0.07296
6297.34081,0.07326
6295.41207,0.07309
6293.48333,0.07247
6291.55459,0.07168
6289.62584,0.07133
6287.69710,0.07067
6285.76836,0.06917
6283.83962,0.06894
6281.91088,0.07103
6279.98214,0.07245
6278.05339,0.07102
6276.12465,0.06969
6274.19591,0.07023
6272.26717,0.07003
6270.33843,0.06852
6268.40969,0.06794
6266.48095,0.06802
6264.55220,0.06766
6262.62346,0.06836
6260.69472,0.07019
6258.76598,0.07102
6256.83724,0.07046
6254.90850,0.06964
6252.97976,0.06972
6251.05101,0.06993
6249.12227,0.06917
6247.19353,0.06857
6245.26479,0.06955
6243.33605,0.07116
6241.40731,0.07095
6239.47857,0.06948
6237.54982,0.06959
6235.62108,0.07073
6233.69234,0.07045
6231.76360,0.06962
6229.83486,0.06992
6227.90612,0.06974
6225.97738,0.06844
6224.04863,0.06772
6222.11989,0.06789
6220.19115,0.06821
6218.26241,0.06875
6216.33367,0.06933
6214.40493,0.06888
6212.47619,0.06778
6210.54744,0.06789
6208.61870,0.07043
6206.68996,0.07432
6204.76122,0.07594
6202.83248,0.07385
6200.90374,0.07046
6198.97500,0.06856
6197.04625,0.06876
6195.11751,0.06961
6193.18877,0.07039
6191.26003,0.07139
6189.33129,0.07221
6187.40255,0.07281
6185.47381,0.07398
6183.54506,0.07562
6181.61632,0.07650
6179.68758,0.07555
6177.75884,0.07332
6175.83010,0.07310
6173.90136,0.07606
6171.97262,0.07832
6170.04387,0.07821
6168.11513,0.07873
6166.18639,0.08007
6164.25765,0.07998
6162.32891,0.07904
6160.40017,0.07940
6158.47143,0.08122
6156.54268,0.08272
6154.61394,0.08289
6152.68520,0.08223
6150.75646,0.08181
6148.82772,0.08249
6146.89898,0.08325
6144.97024,0.08333
6143.04149,0.08349
6141.11275,0.08419
6139.18401,0.08548
6137.25527,0.08618
6135.32653,0.08539
6133.39779,0.08456
6131.46905,0.08419
6129.54030,0.08381
6127.61156,0.08439
6125.68282,0.08538
6123.75408,0.08477
6121.82534,0.08484
6119.89660,0.08742
6117.96786,0.08841
6116.03911,0.08636
6114.11037,0.08511
6112.18163,0.08586
6110.25289,0.08702
6108.32415,0.08754
6106.39541,0.08650
6104.46667,0.08478
6102.53792,0.08486
6100.60918,0.08634
6098.68044,0.08685
6096.75170,0.08635
6094.82296,0.08575
6092.89422,0.08513
6090.96548,0.08489
6089.03673,0.08592
6087.10799,0.08842
6085.17925,0.09017
6083.25051,0.08931
6081.32177,0.08792
6079.39303,0.08788
6077.46428,0.08817
6075.53554,0.08810
6073.60680,0.08726
6071.67806,0.08566
6069.74932,0.08420
6067.82058,0.08321
6065.89184,0.08261
6063.96309,0.08243
6062.03435,0.08263
6060.10561,0.08268
6058.17687,0.08164
6056.24813,0.08103
6054.31939,0.08320
6052.39065,0.08664
6050.46190,0.08846
6048.53316,0.08820
6046.60442,0.08647
6044.67568,0.08471
6042.74694,0.08488
6040.81820,0.08649
6038.88946,0.08718
6036.96071,0.08669
6035.03197,0.08633
6033.10323,0.08628
6031.17449,0.08625
6029.24575,0.08644
6027.31701,0.08720
6025.38827,0.08811
6023.45952,0.08778
6021.53078,0.08592
6019.60204,0.08455
6017.67330,0.08489
6015.74456,0.08517
6013.81582,0.08475
6011.88708,0.08510
6009.95833,0.08534
6008.02959,0.08431
6006.10085,0.08319
6004.17211,0.08262
6002.24337,0.08213
6000.31463,0.08079
5998.38589,0.07908
5996.45714,0.07897
5994.52840,0.08006
5992.59966,0.08070
5990.67092,0.08084
5988.74218,0.08058
5986.81344,0.08021
5984.88470,0.08084
5982.95595,0.08216
5981.02721,0.08213
5979.09847,0.08079
5977.16973,0.07988
5975.24099,0.07987
5973.31225,0.08061
5971.38351,0.08176
5969.45476,0.08225
5967.52602,0.08184
5965.59728,0.08067
5963.66854,0.07936
5961.73980,0.07889
5959.81106,0.07888
5957.88232,0.07843
5955.95357,0.07729
5954.02483,0.07567
5952.09609,0.07466
5950.16735,0.07499
5948.23861,0.07590
5946.30987,0.07627
5944.38113,0.07623
5942.45238,0.07591
5940.52364,0.07462
5938.59490,0.07300
5936.66616,0.07282
5934.73742,0.07359
5932.80868,0.07313
5930.87994,0.07223
5928.95119,0.07242
5927.02245,0.07150
5925.09371,0.06913
5923.16497,0.06773
5921.23623,0.06712
5919.30749,0.06634
5917.37875,0.06605
5915.45000,0.06633
5913.52126,0.06600
5911.59252,0.06513
5909.66378,0.06504
5907.73504,0.06534
5905.80630,0.06451
5903.87756,0.06242
5901.94881,0.06036
5900.02007,0.05947
5898.09133,0.05987
5896.16259,0.06029
5894.23385,0.05977
5892.30511,0.05901
5890.37637,0.05841
5888.44762,0.05755
5886.51888,0.05712
5884.59014,0.05719
5882.66140,0.05708
5880.73266,0.05717
5878.80392,0.05759
5876.87517,0.05768
5874.94643,0.05697
5873.01769,0.05572
5871.08895,0.05536
5869.16021,0.05610
5867.23147,0.05668
5865.30273,0.05649
5863.37398,0.05550
5861.44524,0.05421
5859.51650,0.05335
5857.58776,0.05314
5855.65902,0.05431
5853.73028,0.05649
5851.80154,0.05720
5849.87279,0.05580
5847.94405,0.05443
5846.01531,0.05400
5844.08657,0.05376
5842.15783,0.05363
5840.22909,0.05408
5838.30035,0.05440
5836.37160,0.05428
5834.44286,0.05473
5832.51412,0.05513
5830.58538,0.05448
5828.65664,0.05395
5826.72790,0.05421
5824.79916,0.05444
5822.87041,0.05387
5820.94167,0.05280
5819.01293,0.05248
5817.08419,0.05341
5815.15545,0.05460
5813.22671,0.05547
5811.29797,0.05624
5809.36922,0.05626
5807.44048,0.05514
5805.51174,0.05455
5803.58300,0.05541
5801.65426,0.05626
5799.72552,0.05585
5797.79678,0.05502
5795.86803,0.05457
5793.93929,0.05397
5792.01055,0.05340
5790.08181,0.05348
5788.15307,0.05361
5786.22433,0.05345
5784.29559,0.05354
5782.36684,0.05416
5780.43810,0.05511
5778.50936,0.05569
5776.58062,0.05600
5774.65188,0.05697
5772.72314,0.05758
5770.79440,0.05670
5768.86565,0.05579
5766.93691,0.05615
5765.00817,0.05733
5763.07943,0.05812
5761.15069,0.05830
5759.22195,0.05878
5757.29321,0.05876
5755.36446,0.05724
5753.43572,0.05604
5751.50698,0.05628
5749.57824,0.05662
5747.64950,0.05656
5745.72076,0.05642
5743.79202,0.05578
5741.86327,0.05468
5739.93453,0.05411
5738.00579,0.05470
5736.07705,0.05581
5734.14831,0.05628
5732.21957,0.05593
5730.29083,0.05558
5728.36208,0.05574
5726.43334,0.05577
5724.50460,0.05527
5722.57586,0.05545
5720.64712,0.05647
5718.71838,0.05707
5716.78964,0.05700
5714.86089,0.05646
5712.93215,0.05570
5711.00341,0.05573
5709.07467,0.05671
5707.14593,0.05701
5705.21719,0.05635
5703.28845,0.05642
5701.35970,0.05749
5699.43096,0.05803
5697.50222,0.05729
5695.57348,0.05603
5693.64474,0.05545
5691.71600,0.05638
5689.78726,0.05783
5687.85851,0.05803
5685.92977,0.05715
5684.00103,0.05587
5682.07229,0.05445
5680.14355,0.05417
5678.21481,0.05520
5676.28606,0.05559
5674.35732,0.05466
5672.42858,0.05373
5670.49984,0.05385
5668.57110,0.05500
5666.64236,0.05647
5664.71362,0.05720
5662.78487,0.05701
5660.85613,0.05686
5658.92739,0.05706
5656.99865,0.05720
5655.06991,0.05769
5653.14117,0.05806
5651.21243,0.05747
5649.28368,0.05681
5647.35494,0.05700
5645.42620,0.05769
5643.49746,0.05816
5641.56872,0.05817
5639.63998,0.05833
5637.71124,0.05890
5635.78249,0.05935
5633.85375,0.05974
5631.92501,0.06049
5629.99627,0.06083
5628.06753,0.05995
5626.13879,0.05864
5624.21005,0.05818
5622.28130,0.05874
5620.35256,0.05948
5618.42382,0.05987
5616.49508,0.05969
5614.56634,0.05889
5612.63760,0.05849
5610.70886,0.05883
5608.78011,0.05901
5606.85137,0.05941
5604.92263,0.06065
5602.99389,0.06146
5601.06515,0.06087
5599.13641,0.05954
5597.20767,0.05863
5595.27892,0.05880
5593.35018,0.05923
5591.42144,0.05895
5589.49270,0.05836
5587.56396,0.05790
5585.63522,0.05817
5583.70648,0.05925
5581.77773,0.05999
5579.84899,0.06054
5577.92025,0.06149
5575.99151,0.06170
5574.06277,0.06105
5572.13403,0.06066
5570.20529,0.06030
5568.27654,0.05976
5566.34780,0.05966
5564.41906,0.05974
5562.49032,0.05966
5560.56158,0.05951
5558.63284,0.05939
5556.70410,0.05960
5554.77535,0.06013
5552.84661,0.06036
5550.91787,0.06007
5548.98913,0.05966
5547.06039,0.05956
5545.13165,0.05954
5543.20291,0.05944
5541.27416,0.05972
5539.34542,0.06025
5537.41668,0.05990
5535.48794,0.05910
5533.55920,0.05919
5531.63046,0.05972
5529.70172,0.06011
5527.77297,0.06062
5525.84423,0.06116
5523.91549,0.06143
5521.98675,0.06110
5520.05801,0.06054
5518.12927,0.06040
5516.20053,0.06029
5514.27178,0.05998
5512.34304,0.05971
5510.41430,0.05973
5508.48556,0.06052
5506.55682,0.06136
5504.62808,0.06118
5502.69934,0.06078
5500.77059,0.06091
5498.84185,0.06074
5496.91311,0.06011
5494.98437,0.06003
5493.05563,0.06074
5491.12689,0.06173
5489.19815,0.06264
5487.26940,0.06305
5485.34066,0.06280
5483.41192,0.06243
5481.48318,0.06226
5479.55444,0.06205
5477.62570,0.06177
5475.69695,0.06153
5473.76821,0.06140
5471.83947,0.06145
5469.91073,0.06182
5467.98199,0.06278
5466.05325,0.06391
5464.12451,0.06453
5462.19576,0.06467
5460.26702,0.06420
5458.33828,0.06350
5456.40954,0.06350
5454.48080,0.06373
5452.55206,0.06312
5450.62332,0.06211
5448.69457,0.06147
5446.76583,0.06100
5444.83709,0.06074
5442.90835,0.06086
5440.97961,0.06099
5439.05087,0.06176
5437.12213,0.06292
5435.19338,0.06298
5433.26464,0.06269
5431.33590,0.06300
5429.40716,0.06293
5427.47842,0.06293
5425.54968,0.06396
5423.62094,0.06450
5421.69219,0.06371
5419.76345,0.06287
5417.83471,0.06268
5415.90597,0.06300
5413.97723,0.06344
5412.04849,0.06348
5410.11975,0.06321
5408.19100,0.06268
5406.26226,0.06208
5404.33352,0.06218
5402.40478,0.06297
5400.47604,0.06380
5398.54730,0.06435
5396.61856,0.06493
5394.68981,0.06565
5392.76107,0.06599
5390.83233,0.06587
5388.90359,0.06560
5386.97485,0.06524
5385.04611,0.06529
5383.11737,0.06594
5381.18862,0.06644
5379.25988,0.06621
5377.33114,0.06553
5375.40240,0.06509
5373.47366,0.06529
5371.54492,0.06561
5369.61618,0.06573
5367.68743,0.06581
5365.75869,0.06560
5363.82995,0.06518
5361.90121,0.06526
5359.97247,0.06567
5358.04373,0.06591
5356.11499,0.06579
5354.18624,0.06505
5352.25750,0.06476
5350.32876,0.06603
5348.40002,0.06736
5346.47128,0.06760
5344.54254,0.06748
5342.61380,0.06744
5340.68505,0.06779
5338.75631,0.06830
5336.82757,0.06785
5334.89883,0.06689
5332.97009,0.06682
5331.04135,0.06721
5329.11261,0.06693
5327.18386,0.06591
5325.25512,0.06514
5323.32638,0.06518
5321.39764,0.06531
5319.46890,0.06504
5317.54016,0.06471
5315.61142,0.06476
5313.68267,0.06507
5311.75393,0.06510
5309.82519,0.06519
5307.89645,0.06541
5305.96771,0.06505
5304.03897,0.06426
5302.11023,0.06384
5300.18148,0.06390
5298.25274,0.06403
5296.32400,0.06394
5294.39526,0.06351
5292.46652,0.06293
5290.53778,0.06271
5288.60904,0.06342
5286.68029,0.06449
5284.75155,0.06443
5282.82281,0.06332
5280.89407,0.06224
5278.96533,0.06164
5277.03659,0.06137
5275.10784,0.06099
5273.17910,0.06089
5271.25036,0.06139
5269.32162,0.06161
5267.39288,0.06104
5265.46414,0.06044
5263.53540,0.06036
5261.60665,0.06032
5259.67791,0.06015
5257.74917,0.05983
5255.82043,0.05938
5253.89169,0.05945
5251.96295,0.05988
5250.03421,0.05978
5248.10546,0.05937
5246.17672,0.05931
5244.24798,0.05917
5242.31924,0.05887
5240.39050,0.05918
5238.46176,0.05988
5236.53302,0.06044
5234.60427,0.06084
5232.67553,0.06066
5230.74679,0.05992
5228.81805,0.05937
5226.88931,0.05921
5224.96057,0.05925
5223.03183,0.05912
5221.10308,0.05837
5219.17434,0.05753
5217.24560,0.05759
5215.31686,0.05822
5213.38812,0.05844
5211.45938,0.05818
5209.53064,0.05765
5207.60189,0.05668
5205.67315,0.05593
5203.74441,0.05620
5201.81567,0.05719
5199.88693,0.05823
5197.95819,0.05870
5196.02945,0.05855
5194.10070,0.05814
5192.17196,0.05771
5190.24322,0.05749
5188.31448,0.05748
5186.38574,0.05750
5184.45700,0.05756
5182.52826,0.05777
5180.59951,0.05798
5178.67077,0.05803
5176.74203,0.05804
5174.81329,0.05812
5172.88455,0.05821
5170.95581,0.05817
5169.02707,0.05806
5167.09832,0.05782
5165.16958,0.05757
5163.24084,0.05777
5161.31210,0.05823
5159.38336,0.05817
5157.45462,0.05744
5155.52588,0.05674
5153.59713,0.05657
5151.66839,0.05685
5149.73965,0.05737
5147.81091,0.05761
5145.88217,0.05734
5143.95343,0.05732
5142.02469,0.05774
5140.09594,0.05763
5138.16720,0.05686
5136.23846,0.05627
5134.30972,0.05591
5132.38098,0.05548
5130.45224,0.05573
5128.52350,0.05707
5126.59475,0.05841
5124.66601,0.05853
5122.73727,0.05749
5120.80853,0.05624
5118.87979,0.05533
5116.95105,0.05500
5115.02231,0.05560
5113.09356,0.05676
5111.16482,0.05757
5109.23608,0.05787
5107.30734,0.05778
5105.37860,0.05746
5103.44986,0.05745
5101.52112,0.05784
5099.59237,0.05823
5097.66363,0.05840
5095.73489,0.05851
5093.80615,0.05854
5091.87741,0.05796
5089.94867,0.05701
5088.01993,0.05692
5086.09118,0.05770
5084.16244,0.05812
5082.23370,0.05779
5080.30496,0.05760
5078.37622,0.05786
5076.44748,0.05815
5074.51873,0.05827
5072.58999,0.05821
5070.66125,0.05774
5068.73251,0.05680
5066.80377,0.05587
5064.87503,0.05551
5062.94629,0.05584
5061.01754,0.05695
5059.08880,0.05838
5057.16006,0.05901
5055.23132,0.05838
5053.30258,0.05747
5051.37384,0.05766
5049.44510,0.05847
5047.51635,0.05861
5045.58761,0.05836
5043.65887,0.05870
5041.73013,0.05960
5039.80139,0.05989
5037.87265,0.05897
5035.94391,0.05793
5034.01516,0.05780
5032.08642,0.05832
5030.15768,0.05877
5028.22894,0.05846
5026.30020,0.05744
5024.37146,0.05669
5022.44272,0.05684
5020.51397,0.05749
5018.58523,0.05801
5016.65649,0.05826
5014.72775,0.05845
5012.79901,0.05864
5010.87027,0.05853
5008.94153,0.05799
5007.01278,0.05738
5005.08404,0.05683
5003.15530,0.05647
5001.22656,0.05672
4999.29782,0.05741
4997.36908,0.05804
4995.44034,0.05832
4993.51159,0.05800
4991.58285,0.05724
4989.65411,0.05642
4987.72537,0.05590
4985.79663,0.05604
4983.86789,0.05664
4981.93915,0.05739
4980.01040,0.05818
4978.08166,0.05849
4976.15292,0.05808
4974.22418,0.05758
4972.29544,0.05755
4970.36670,0.05799
4968.43796,0.05845
4966.50921,0.05809
4964.58047,0.05704
4962.65173,0.05664
4960.72299,0.05716
4958.79425,0.05738
4956.86551,0.05722
4954.93677,0.05747
4953.00802,0.05765
4951.07928,0.05747
4949.15054,0.05748
4947.22180,0.05741
4945.29306,0.05708
4943.36432,0.05695
4941.43558,0.05713
4939.50683,0.05736
4937.57809,0.05743
4935.64935,0.05719
4933.72061,0.05688
4931.79187,0.05692
4929.86313,0.05746
4927.93439,0.05808
4926.00564,0.05810
4924.07690,0.05732
4922.14816,0.05677
4920.21942,0.05708
4918.29068,0.05738
4916.36194,0.05731
4914.43320,0.05730
4912.50445,0.05730
4910.57571,0.05714
4908.64697,0.05672
4906.71823,0.05630
4904.78949,0.05645
4902.86075,0.05704
4900.93201,0.05742
4899.00326,0.05731
4897.07452,0.05728
4895.14578,0.05768
4893.21704,0.05777
4891.28830,0.05733
4889.35956,0.05689
4887.43081,0.05670
4885.50207,0.05695
4883.57333,0.05718
4881.64459,0.05671
4879.71585,0.05620
4877.78711,0.05644
4875.85837,0.05684
4873.92962,0.05704
4872.00088,0.05730
4870.07214,0.05739
4868.14340,0.05722
4866.21466,0.05725
4864.28592,0.05759
4862.35718,0.05782
4860.42843,0.05769
4858.49969,0.05733
4856.57095,0.05681
4854.64221,0.05633
4852.71347,0.05621
4850.78473,0.05656
4848.85599,0.05697
4846.92724,0.05723
4844.99850,0.05742
4843.06976,0.05757
4841.14102,0.05777
4839.21228,0.05792
4837.28354,0.05781
4835.35480,0.05766
4833.42605,0.05791
4831.49731,0.05826
4829.56857,0.05788
4827.63983,0.05705
4825.71109,0.05680
4823.78235,0.05724
4821.85361,0.05776
4819.92486,0.05812
4817.99612,0.05834
4816.06738,0.05828
4814.13864,0.05811
4812.20990,0.05813
4810.28116,0.05820
4808.35242,0.05835
4806.42367,0.05872
4804.49493,0.05897
4802.56619,0.05861
4800.63745,0.05767
4798.70871,0.05715
4796.77997,0.05752
4794.85123,0.05792
4792.92248,0.05782
4790.99374,0.05761
4789.06500,0.05758
4787.13626,0.05775
4785.20752,0.05782
4783.27878,0.05763
4781.35004,0.05754
4779.42129,0.05770
4777.49255,0.05800
4775.56381,0.05826
4773.63507,0.05828
4771.70633,0.05834
4769.77759,0.05868
4767.84885,0.05879
4765.92010,0.05835
4763.99136,0.05789
4762.06262,0.05776
4760.13388,0.05762
4758.20514,0.05735
4756.27640,0.05711
4754.34766,0.05705
4752.41891,0.05716
4750.49017,0.05715
4748.56143,0.05725
4746.63269,0.05785
4744.70395,0.05835
4742.77521,0.05833
4740.84647,0.05823
4738.91772,0.05836
4736.98898,0.05838
4735.06024,0.05804
4733.13150,0.05770
4731.20276,0.05764
4729.27402,0.05765
4727.34528,0.05744
4725.41653,0.05724
4723.48779,0.05743
4721.55905,0.05757
4719.63031,0.05744
4717.70157,0.05777
4715.77283,0.05843
4713.84409,0.05840
4711.91534,0.05770
4709.98660,0.05723
4708.05786,0.05741
4706.12912,0.05784
4704.20038,0.05799
4702.27164,0.05796
4700.34290,0.05800
4698.41415,0.05791
4696.48541,0.05772
4694.55667,0.05758
4692.62793,0.05728
4690.69919,0.05686
4688.77045,0.05671
4686.84170,0.05684
4684.91296,0.05734
4682.98422,0.05820
4681.05548,0.05850
4679.12674,0.05796
4677.19800,0.05749
4675.26926,0.05757
4673.34051,0.05790
4671.41177,0.05800
4669.48303,0.05783
4667.55429,0.05763
4665.62555,0.05735
4663.69681,0.05721
4661.76807,0.05769
4659.83932,0.05832
4657.91058,0.05846
4655.98184,0.05828
4654.05310,0.05806
4652.12436,0.05786
4650.19562,0.05771
4648.26688,0.05749
4646.33813,0.05722
4644.40939,0.05717
4642.48065,0.05731
4640.55191,0.05740
4638.62317,0.05760
4636.69443,0.05783
4634.76569,0.05759
4632.83694,0.05722
4630.90820,0.05735
4628.97946,0.05769
4627.05072,0.05801
4625.12198,0.05835
4623.19324,0.05840
4621.26450,0.05812
4619.33575,0.05786
4617.40701,0.05781
4615.47827,0.05777
4613.54953,0.05768
4611.62079,0.05804
4609.69205,0.05846
4607.76331,0.05810
4605.83456,0.05743
4603.90582,0.05723
4601.97708,0.05743
4600.04834,0.05745
4598.11960,0.05715
4596.19086,0.05692
4594.26212,0.05702
4592.33337,0.05744
4590.40463,0.05814
4588.47589,0.05874
4586.54715,0.05886
4584.61841,0.05868
4582.68967,0.05850
4580.76093,0.05843
4578.83218,0.05829
4576.90344,0.05802
4574.97470,0.05780
4573.04596,0.05752
4571.11722,0.05735
4569.18848,0.05765
4567.25974,0.05815
4565.33099,0.05843
4563.40225,0.05847
4561.47351,0.05829
4559.54477,0.05817
4557.61603,0.05825
4555.68729,0.05826
4553.75855,0.05827
4551.82980,0.05838
4549.90106,0.05839
4547.97232,0.05817
4546.04358,0.05787
4544.11484,0.05776
4542.18610,0.05779
4540.25736,0.05770
4538.32861,0.05734
4536.39987,0.05691
4534.47113,0.05671
4532.54239,0.05659
4530.61365,0.05664
4528.68491,0.05692
4526.75617,0.05717
4524.82742,0.05738
4522.89868,0.05775
4520.96994,0.05814
4519.04120,0.05822
4517.11246,0.05820
4515.18372,0.05839
4513.25498,0.05858
4511.32623,0.05861
4509.39749,0.05849
4507.46875,0.05818
4505.54001,0.05786
4503.61127,0.05789
4501.68253,0.05808
4499.75379,0.05830
4497.82504,0.05856
4495.89630,0.05838
4493.96756,0.05772
4492.03882,0.05742
4490.11008,0.05784
4488.18134,0.05851
4486.25259,0.05888
4484.32385,0.05877
4482.39511,0.05827
4480.46637,0.05785
4478.53763,0.05783
4476.60889,0.05771
4474.68015,0.05726
4472.75140,0.05714
4470.82266,0.05757
4468.89392,0.05809
4466.96518,0.05823
4465.03644,0.05798
4463.10770,0.05801
4461.17896,0.05839
4459.25021,0.05823
4457.32147,0.05765
4455.39273,0.05757
4453.46399,0.05789
4451.53525,0.05780
4449.60651,0.05727
4447.67777,0.05691
4445.74902,0.05695
4443.82028,0.05708
4441.89154,0.05700
4439.96280,0.05702
4438.03406,0.05729
4436.10532,0.05752
4434.17658,0.05766
4432.24783,0.05793
4430.31909,0.05808
4428.39035,0.05781
4426.46161,0.05757
4424.53287,0.05785
4422.60413,0.05821
4420.67539,0.05827
4418.74664,0.05817
4416.81790,0.05801
4414.88916,0.05767
4412.96042,0.05728
4411.03168,0.05714
4409.10294,0.05741
4407.17420,0.05788
4405.24545,0.05804
4403.31671,0.05769
4401.38797,0.05719
4399.45923,0.05709
4397.53049,0.05753
4395.60175,0.05789
4393.67301,0.05784
4391.74426,0.05764
4389.81552,0.05736
4387.88678,0.05710
4385.95804,0.05722
4384.02930,0.05752
4382.10056,0.05747
4380.17182,0.05723
4378.24307,0.05736
4376.31433,0.05787
4374.38559,0.05827
4372.45685,0.05822
4370.52811,0.05811
4368.59937,0.05810
4366.67063,0.05791
4364.74188,0.05763
4362.81314,0.05755
4360.88440,0.05777
4358.95566,0.05806
4357.02692,0.05820
4355.09818,0.05836
4353.16944,0.05839
4351.24069,0.05804
4349.31195,0.05767
4347.38321,0.05757
4345.45447,0.05758
4343.52573,0.05753
4341.59699,0.05750
4339.66825,0.05762
4337.73950,0.05783
4335.81076,0.05801
4333.88202,0.05816
4331.95328,0.05823
4330.02454,0.05815
4328.09580,0.05795
4326.16706,0.05791
4324.23831,0.05810
4322.30957,0.05826
4320.38083,0.05837
4318.45209,0.05848
4316.52335,0.05861
4314.59461,0.05885
4312.66587,0.05903
4310.73712,0.05892
4308.80838,0.05840
4306.87964,0.05774
4304.95090,0.05764
4303.02216,0.05811
4301.09342,0.05825
4299.16468,0.05799
4297.23593,0.05787
4295.30719,0.05786
4293.37845,0.05786
4291.44971,0.05795
4289.52097,0.05796
4287.59223,0.05777
4285.66348,0.05759
4283.73474,0.05774
4281.80600,0.05818
4279.87726,0.05844
4277.94852,0.05841
4276.01978,0.05824
4274.09104,0.05800
4272.16229,0.05792
4270.23355,0.05825
4268.30481,0.05869
4266.37607,0.05879
4264.44733,0.05855
4262.51859,0.05820
4260.58985,0.05791
4258.66110,0.05779
4256.73236,0.05783
4254.80362,0.05798
4252.87488,0.05818
4250.94614,0.05823
4249.01740,0.05807
4247.08866,0.05798
4245.15991,0.05815
4243.23117,0.05826
4241.30243,0.05811
4239.37369,0.05805
4237.44495,0.05829
4235.51621,0.05865
4233.58747,0.05889
4231.65872,0.05884
4229.72998,0.05839
4227.80124,0.05781
4225.87250,0.05762
4223.94376,0.05784
4222.01502,0.05808
4220.08628,0.05832
4218.15753,0.05860
4216.22879,0.05862
4214.30005,0.05839
4212.37131,0.05827
4210.44257,0.05839
4208.51383,0.05867
4206.58509,0.05886
4204.65634,0.05889
4202.72760,0.05893
4200.79886,0.05883
4198.87012,0.05837
4196.94138,0.05788
4195.01264,0.05780
4193.08390,0.05812
4191.15515,0.05852
4189.22641,0.05888
4187.29767,0.05909
4185.36893,0.05906
4183.44019,0.05903
4181.51145,0.05925
4179.58271,0.05939
4177.65396,0.05907
4175.72522,0.05855
4173.79648,0.05827
4171.86774,0.05826
4169.93900,0.05828
4168.01026,0.05834
4166.08152,0.05865
4164.15277,0.05906
4162.22403,0.05915
4160.29529,0.05874
4158.36655,0.05838
4156.43781,0.05844
4154.50907,0.05851
4152.58033,0.05851
4150.65158,0.05863
4148.72284,0.05871
4146.79410,0.05866
4144.86536,0.05863
4142.93662,0.05866
4141.00788,0.05863
4139.07914,0.05863
4137.15039,0.05876
4135.22165,0.05894
4133.29291,0.05884
4131.36417,0.05838
4129.43543,0.05823
4127.50669,0.05867
4125.57795,0.05897
4123.64920,0.05879
4121.72046,0.05861
4119.79172,0.05864
4117.86298,0.05877
4115.93424,0.05885
4114.00550,0.05872
4112.07676,0.05843
4110.14801,0.05829
4108.21927,0.05855
4106.29053,0.05885
4104.36179,0.05878
4102.43305,0.05857
4100.50431,0.05842
4098.57557,0.05828
4096.64682,0.05818
4094.71808,0.05818
4092.78934,0.05835
4090.86060,0.05861
4088.93186,0.05870
4087.00312,0.05854
4085.07437,0.05840
4083.14563,0.05849
4081.21689,0.05852
4079.28815,0.05820
4077.35941,0.05787
4075.43067,0.05791
4073.50193,0.05812
4071.57318,0.05835
4069.64444,0.05866
4067.71570,0.05881
4065.78696,0.05870
4063.85822,0.05858
4061.92948,0.05862
4060.00074,0.05865
4058.07199,0.05851
4056.14325,0.05844
4054.21451,0.05855
4052.28577,0.05859
4050.35703,0.05855
4048.42829,0.05860
4046.49955,0.05861
4044.57080,0.05840
4042.64206,0.05818
4040.71332,0.05817
4038.78458,0.05832
4036.85584,0.05857
4034.92710,0.05887
4032.99836,0.05896
4031.06961,0.05890
4029.14087,0.05872
4027.21213,0.05829
4025.28339,0.05795
4023.35465,0.05803
4021.42591,0.05825
4019.49717,0.05853
4017.56842,0.05899
4015.63968,0.05931
4013.71094,0.05932
4011.78220,0.05929
4009.85346,0.05930
4007.92472,0.05924
4005.99598,0.05905
4004.06723,0.05904
4002.13849,0.05938
4000.20975,0.05957
3998.28101,0.05929
3996.35227,0.05885
3994.42353,0.05850
3992.49479,0.05827
3990.56604,0.05820
3988.63730,0.05841
3986.70856,0.05870
3984.77982,0.05880
3982.85108,0.05868
3980.92234,0.05845
3978.99360,0.05827
3977.06485,0.05829
3975.13611,0.05856
3973.20737,0.05881
3971.27863,0.05880
3969.34989,0.05853
3967.42115,0.05829
3965.49241,0.05835
3963.56366,0.05861
3961.63492,0.05892
3959.70618,0.05915
3957.77744,0.05908
3955.84870,0.05872
3953.91996,0.05844
3951.99122,0.05843
3950.06247,0.05849
3948.13373,0.05848
3946.20499,0.05849
3944.27625,0.05873
3942.34751,0.05904
3940.41877,0.05926
3938.49003,0.05939
3936.56128,0.05933
3934.63254,0.05909
3932.70380,0.05891
3930.77506,0.05885
3928.84632,0.05872
3926.91758,0.05843
3924.98884,0.05813
3923.06009,0.05807
3921.13135,0.05815
3919.20261,0.05826
3917.27387,0.05840
3915.34513,0.05840
3913.41639,0.05839
3911.48765,0.05862
3909.55890,0.05873
3907.63016,0.05863
3905.70142,0.05863
3903.77268,0.05862
3901.84394,0.05843
3899.91520,0.05850
3897.98646,0.05886
3896.05771,0.05893
3894.12897,0.05875
3892.20023,0.05877
3890.27149,0.05897
3888.34275,0.05901
3886.41401,0.05887
3884.48526,0.05870
3882.55652,0.05852
3880.62778,0.05836
3878.69904,0.05847
3876.77030,0.05875
3874.84156,0.05878
3872.91282,0.05860
3870.98407,0.05863
3869.05533,0.05876
3867.12659,0.05883
3865.19785,0.05899
3863.26911,0.05907
3861.34037,0.05868
3859.41163,0.05813
3857.48288,0.05797
3855.55414,0.05811
3853.62540,0.05842
3851.69666,0.05887
3849.76792,0.05907
3847.83918,0.05901
3845.91044,0.05899
3843.98169,0.05908
3842.05295,0.05928
3840.12421,0.05948
3838.19547,0.05939
3836.26673,0.05905
3834.33799,0.05889
3832.40925,0.05893
3830.48050,0.05884
3828.55176,0.05844
3826.62302,0.05797
3824.69428,0.05786
3822.76554,0.05799
3820.83680,0.05802
3818.90806,0.05804
3816.97931,0.05832
3815.05057,0.05872
3813.12183,0.05900
3811.19309,0.05901
3809.26435,0.05882
3807.33561,0.05871
3805.40687,0.05890
3803.47812,0.05914
3801.54938,0.05902
3799.62064,0.05858
3797.69190,0.05833
3795.76316,0.05842
3793.83442,0.05866
3791.90568,0.05882
3789.97693,0.05871
3788.04819,0.05848
3786.11945,0.05839
3784.19071,0.05849
3782.26197,0.05865
3780.33323,0.05869
3778.40449,0.05868
3776.47574,0.05879
3774.54700,0.05876
3772.61826,0.05858
3770.68952,0.05864
3768.76078,0.05895
3766.83204,0.05904
3764.90330,0.05888
3762.97455,0.05863
3761.04581,0.05839
3759.11707,0.05843
3757.18833,0.05865
3755.25959,0.05860
3753.33085,0.05853
3751.40211,0.05878
3749.47336,0.05887
3747.54462,0.05861
3745.61588,0.05836
3743.68714,0.05832
3741.75840,0.05836
3739.82966,0.05829
3737.90092,0.05815
3735.97217,0.05814
3734.04343,0.05816
3732.11469,0.05809
3730.18595,0.05807
3728.25721,0.05806
3726.32847,0.05787
3724.39973,0.05771
3722.47098,0.05782
3720.54224,0.05805
3718.61350,0.05828
3716.68476,0.05844
3714.75602,0.05849
3712.82728,0.05845
3710.89854,0.05832
3708.96979,0.05830
3707.04105,0.05857
3705.11231,0.05889
3703.18357,0.05890
3701.25483,0.05864
3699.32609,0.05843
3697.39735,0.05825
3695.46860,0.05791
3693.53986,0.05754
3691.61112,0.05743
3689.68238,0.05766
3687.75364,0.05806
3685.82490,0.05827
3683.89615,0.05816
3681.96741,0.05800
3680.03867,0.05803
3678.10993,0.05817
3676.18119,0.05812
3674.25245,0.05791
3672.32371,0.05799
3670.39496,0.05830
3668.46622,0.05839
3666.53748,0.05824
3664.60874,0.05817
3662.68000,0.05817
3660.75126,0.05816
3658.82252,0.05816
3656.89377,0.05811
3654.96503,0.05796
3653.03629,0.05778
3651.10755,0.05759
3649.17881,0.05751
3647.25007,0.05766
3645.32133,0.05786
3643.39258,0.05778
3641.46384,0.05744
3639.53510,0.05732
3637.60636,0.05751
3635.67762,0.05766
3633.74888,0.05780
3631.82014,0.05799
3629.89139,0.05794
3627.96265,0.05759
3626.03391,0.05743
3624.10517,0.05760
3622.17643,0.05788
3620.24769,0.05811
3618.31895,0.05813
3616.39020,0.05786
3614.46146,0.05737
3612.53272,0.05695
3610.60398,0.05683
3608.67524,0.05708
3606.74650,0.05736
3604.81776,0.05746
3602.88901,0.05769
3600.96027,0.05795
3599.03153,0.05775
3597.10279,0.05729
3595.17405,0.05703
3593.24531,0.05716
3591.31657,0.05743
3589.38782,0.05742
3587.45908,0.05719
3585.53034,0.05717
3583.60160,0.05736
3581.67286,0.05738
3579.74412,0.05729
3577.81538,0.05709
3575.88663,0.05673
3573.95789,0.05671
3572.02915,0.05712
3570.10041,0.05738
3568.17167,0.05726
3566.24293,0.05694
3564.31419,0.05679
3562.38544,0.05685
3560.45670,0.05681
3558.52796,0.05669
3556.59922,0.05678
3554.67048,0.05707
3552.74174,0.05728
3550.81300,0.05723
3548.88425,0.05708
3546.95551,0.05708
3545.02677,0.05694
3543.09803,0.05653
3541.16929,0.05624
3539.24055,0.05624
3537.31181,0.05646
3535.38306,0.05680
3533.45432,0.05695
3531.52558,0.05671
3529.59684,0.05640
3527.66810,0.05622
3525.73936,0.05609
3523.81062,0.05609
3521.88187,0.05606
3519.95313,0.05586
3518.02439,0.05569
3516.09565,0.05570
3514.16691,0.05581
3512.23817,0.05583
3510.30943,0.05567
3508.38068,0.05567
3506.45194,0.05595
3504.52320,0.05598
3502.59446,0.05559
3500.66572,0.05527
3498.73698,0.05525
3496.80824,0.05548
3494.87949,0.05587
3492.95075,0.05622
3491.02201,0.05629
3489.09327,0.05609
3487.16453,0.05602
3485.23579,0.05614
3483.30704,0.05610
3481.37830,0.05580
3479.44956,0.05545
3477.52082,0.05527
3475.59208,0.05531
3473.66334,0.05542
3471.73460,0.05530
3469.80585,0.05502
3467.87711,0.05500
3465.94837,0.05524
3464.01963,0.05529
3462.09089,0.05505
3460.16215,0.05490
3458.23341,0.05480
3456.30466,0.05446
3454.37592,0.05426
3452.44718,0.05453
3450.51844,0.05497
3448.58970,0.05516
3446.66096,0.05505
3444.73222,0.05477
3442.80347,0.05437
3440.87473,0.05388
3438.94599,0.05352
3437.01725,0.05358
3435.08851,0.05395
3433.15977,0.05425
3431.23103,0.05423
3429.30228,0.05401
3427.37354,0.05398
3425.44480,0.05414
3423.51606,0.05409
3421.58732,0.05380
3419.65858,0.05364
3417.72984,0.05359
3415.80109,0.05364
3413.87235,0.05389
3411.94361,0.05386
3410.01487,0.05338
3408.08613,0.05285
3406.15739,0.05244
3404.22865,0.05225
3402.29990,0.05235
3400.37116,0.05270
3398.44242,0.05295
3396.51368,0.05264
3394.58494,0.05195
3392.65620,0.05149
3390.72746,0.05150
3388.79871,0.05171
3386.86997,0.05180
3384.94123,0.05161
3383.01249,0.05121
3381.08375,0.05086
3379.15501,0.05062
3377.22627,0.05050
3375.29752,0.05056
3373.36878,0.05063
3371.44004,0.05076
3369.51130,0.05085
3367.58256,0.05047
3365.65382,0.05001
3363.72508,0.04998
3361.79633,0.04976
3359.86759,0.04916
3357.93885,0.04893
3356.01011,0.04910
3354.08137,0.04910
3352.15263,0.04877
3350.22389,0.04817
3348.29514,0.04752
3346.36640,0.04706
3344.43766,0.04676
3342.50892,0.04669
3340.58018,0.04683
3338.65144,0.04675
3336.72270,0.04620
3334.79395,0.04561
3332.86521,0.04536
3330.93647,0.04532
3329.00773,0.04533
3327.07899,0.04524
3325.15025,0.04513
3323.22151,0.04536
3321.29276,0.04600
3319.36402,0.04667
3317.43528,0.04706
3315.50654,0.04776
3313.57780,0.04939
3311.64906,0.05146
3309.72032,0.05353
3307.79157,0.05568
3305.86283,0.05776
3303.93409,0.05977
3302.00535,0.06193
3300.07661,0.06414
3298.14787,0.06629
3296.21913,0.06832
3294.29038,0.06977
3292.36164,0.07029
3290.43290,0.07022
3288.50416,0.07021
3286.57542,0.07022
3284.64668,0.06984
3282.71793,0.06928
3280.78919,0.06898
3278.86045,0.06896
3276.93171,0.06885
3275.00297,0.06838
3273.07423,0.06769
3271.14549,0.06715
3269.21674,0.06715
3267.28800,0.06736
3265.35926,0.06732
3263.43052,0.06734
3261.50178,0.06743
3259.57304,0.06715
3257.64430,0.06667
3255.71555,0.06622
3253.78681,0.06587
3251.85807,0.06580
3249.92933,0.06578
3248.00059,0.06555
3246.07185,0.06539
3244.14311,0.06552
3242.21436,0.06548
3240.28562,0.06499
3238.35688,0.06458
3236.42814,0.06459
3234.49940,0.06477
3232.57066,0.06489
3230.64192,0.06485
3228.71317,0.06458
3226.78443,0.06418
3224.85569,0.06383
3222.92695,0.06366
3220.99821,0.06350
3219.06947,0.06313
3217.14073,0.06280
3215.21198,0.06271
3213.28324,0.06278
3211.35450,0.06313
3209.42576,0.06356
3207.49702,0.06371
3205.56828,0.06355
3203.63954,0.06318
3201.71079,0.06291
3199.78205,0.06292
3197.85331,0.06296
3195.92457,0.06305
3193.99583,0.06323
3192.06709,0.06301
3190.13835,0.06256
3188.20960,0.06255
3186.28086,0.06276
3184.35212,0.06275
3182.42338,0.06264
3180.49464,0.06237
3178.56590,0.06182
3176.63716,0.06138
3174.70841,0.06145
3172.77967,0.06178
3170.85093,0.06200
3168.92219,0.06202
3166.99345,0.06200
3165.06471,0.06207
3163.13597,0.06222
3161.20722,0.06231
3159.27848,0.06214
3157.34974,0.06156
3155.42100,0.06088
3153.49226,0.06057
3151.56352,0.06075
3149.63478,0.06113
3147.70603,0.06128
3145.77729,0.06121
3143.84855,0.06116
3141.91981,0.06092
3139.99107,0.06055
3138.06233,0.06053
3136.13359,0.06072
3134.20484,0.06066
3132.27610,0.06048
3130.34736,0.06038
3128.41862,0.06031
3126.48988,0.06033
3124.56114,0.06037
3122.63240,0.06019
3120.70365,0.05994
3118.77491,0.06000
3116.84617,0.06023
3114.91743,0.06029
3112.98869,0.06027
3111.05995,0.06027
3109.13121,0.06006
3107.20246,0.05970
3105.27372,0.05961
3103.34498,0.05985
3101.41624,0.05990
3099.48750,0.05972
3097.55876,0.05977
3095.63002,0.05986
3093.70127,0.05984
3091.77253,0.05987
3089.84379,0.05982
3087.91505,0.05955
3085.98631,0.05927
3084.05757,0.05919
3082.12882,0.05941
3080.20008,0.05982
3078.27134,0.06009
3076.34260,0.06009
3074.41386,0.05995
3072.48512,0.05977
3070.55638,0.05969
3068.62763,0.05979
3066.69889,0.05997
3064.77015,0.06013
3062.84141,0.06025
3060.91267,0.06032
3058.98393,0.06052
3057.05519,0.06090
3055.12644,0.06115
3053.19770,0.06113
3051.26896,0.06107
3049.34022,0.06105
3047.41148,0.06103
3045.48274,0.06106
3043.55400,0.06105
3041.62525,0.06080
3039.69651,0.06049
3037.76777,0.06045
3035.83903,0.06061
3033.91029,0.06069
3031.98155,0.06062
3030.05281,0.06038
3028.12406,0.06017
3026.19532,0.06018
3024.26658,0.06015
3022.33784,0.05980
3020.40910,0.05945
3018.48036,0.05944
3016.55162,0.05953
3014.62287,0.05942
3012.69413,0.05917
3010.76539,0.05895
3008.83665,0.05881
3006.90791,0.05885
3004.97917,0.05905
3003.05043,0.05912
3001.12168,0.05891
2999.19294,0.05854
2997.26420,0.05818
2995.33546,0.05792
2993.40672,0.05768
2991.47798,0.05746
2989.54924,0.05730
2987.62049,0.05710
2985.69175,0.05692
2983.76301,0.05681
2981.83427,0.05666
2979.90553,0.05633
2977.97679,0.05578
2976.04805,0.05539
2974.11930,0.05544
2972.19056,0.05563
2970.26182,0.05552
2968.33308,0.05526
2966.40434,0.05519
2964.47560,0.05513
2962.54686,0.05503
2960.61811,0.05511
2958.68937,0.05525
2956.76063,0.05531
2954.83189,0.05529
2952.90315,0.05509
2950.97441,0.05483
2949.04567,0.05480
2947.11692,0.05507
2945.18818,0.05548
2943.25944,0.05594
2941.33070,0.05637
2939.40196,0.05682
2937.47322,0.05749
2935.54448,0.05848
2933.61573,0.05966
2931.68699,0.06099
2929.75825,0.06239
2927.82951,0.06352
2925.90077,0.06433
2923.97203,0.06507
2922.04329,0.06585
2920.11454,0.06653
2918.18580,0.06685
2916.25706,0.06678
2914.32832,0.06638
2912.39958,0.06572
2910.47084,0.06523
2908.54210,0.06519
2906.61335,0.06517
2904.68461,0.06495
2902.75587,0.06469
2900.82713,0.06454
2898.89839,0.06439
2896.96965,0.06405
2895.04091,0.06368
2893.11216,0.06332
2891.18342,0.06283
2889.25468,0.06230
2887.32594,0.06199
2885.39720,0.06180
2883.46846,0.06158
2881.53971,0.06150
2879.61097,0.06167
2877.68223,0.06188
2875.75349,0.06203
2873.82475,0.06217
2871.89601,0.06231
2869.96727,0.06251
2868.03852,0.06299
2866.10978,0.06378
2864.18104,0.06457
2862.25230,0.06523
2860.32356,0.06600
2858.39482,0.06695
2856.46608,0.06796
2854.53733,0.06884
2852.60859,0.06939
2850.67985,0.06958
2848.75111,0.06958
2846.82237,0.06938
2844.89363,0.06890
2842.96489,0.06815
2841.03614,0.06738
2839.10740,0.06685
2837.17866,0.06644
2835.24992,0.06613
2833.32118,0.06601
2831.39244,0.06593
2829.46370,0.06572
2827.53495,0.06542
2825.60621,0.06517
2823.67747,0.06504
2821.74873,0.06507
2819.81999,0.06518
2817.89125,0.06518
2815.96251,0.06500
2814.03376,0.06478
2812.10502,0.06453
2810.17628,0.06430
2808.24754,0.06425
2806.31880,0.06440
2804.39006,0.06460
2802.46132,0.06473
2800.53257,0.06468
2798.60383,0.06438
2796.67509,0.06395
2794.74635,0.06364
2792.81761,0.06359
2790.88887,0.06370
2788.96013,0.06378
2787.03138,0.06380
2785.10264,0.06377
2783.17390,0.06364
2781.24516,0.06340
2779.31642,0.06318
2777.38768,0.06306
2775.45894,0.06304
2773.53019,0.06315
2771.60145,0.06324
2769.67271,0.06328
2767.74397,0.06328
2765.81523,0.06310
2763.88649,0.06281
2761.95775,0.06266
2760.02900,0.06272
2758.10026,0.06289
2756.17152,0.06296
2754.24278,0.06284
2752.31404,0.06264
2750.38530,0.06255
2748.45656,0.06268
2746.52781,0.06291
2744.59907,0.06311
2742.67033,0.06324
2740.74159,0.06324
2738.81285,0.06304
2736.88411,0.06293
2734.95537,0.06311
2733.02662,0.06329
2731.09788,0.06313
2729.16914,0.06281
2727.24040,0.06265
2725.31166,0.06264
2723.38292,0.06279
2721.45418,0.06303
2719.52543,0.06311
2717.59669,0.06293
2715.66795,0.06275
2713.73921,0.06277
2711.81047,0.06285
2709.88173,0.06283
2707.95299,0.06280
2706.02424,0.06277
2704.09550,0.06267
2702.16676,0.06257
2700.23802,0.06249
2698.30928,0.06243
2696.38054,0.06241
2694.45180,0.06233
2692.52305,0.06220
2690.59431,0.06232
2688.66557,0.06268
2686.73683,0.06278
2684.80809,0.06240
2682.87935,0.06197
2680.95060,0.06195
2679.02186,0.06229
2677.09312,0.06251
2675.16438,0.06233
2673.23564,0.06195
2671.30690,0.06179
2669.37816,0.06188
2667.44941,0.06202
2665.52067,0.06213
2663.59193,0.06225
2661.66319,0.06227
2659.73445,0.06224
2657.80571,0.06242
2655.87697,0.06262
2653.94822,0.06253
2652.01948,0.06223
2650.09074,0.06197
2648.16200,0.06189
2646.23326,0.06205
2644.30452,0.06236
2642.37578,0.06253
2640.44703,0.06241
2638.51829,0.06219
2636.58955,0.06206
2634.66081,0.06192
2632.73207,0.06180
2630.80333,0.06180
2628.87459,0.06180
2626.94584,0.06160
2625.01710,0.06139
2623.08836,0.06152
2621.15962,0.06187
2619.23088,0.06212
2617.30214,0.06220
2615.37340,0.06201
2613.44465,0.06161
2611.51591,0.06135
2609.58717,0.06140
2607.65843,0.06160
2605.72969,0.06181
2603.80095,0.06189
2601.87221,0.06171
2599.94346,0.06146
2598.01472,0.06132
2596.08598,0.06131
2594.15724,0.06146
2592.22850,0.06168
2590.29976,0.06173
2588.37102,0.06168
2586.44227,0.06174
2584.51353,0.06180
2582.58479,0.06168
2580.65605,0.06154
2578.72731,0.06157
2576.79857,0.06169
2574.86983,0.06175
2572.94108,0.06169
2571.01234,0.06160
2569.08360,0.06149
2567.15486,0.06131
2565.22612,0.06121
2563.29738,0.06136
2561.36864,0.06171
2559.43989,0.06199
2557.51115,0.06193
2555.58241,0.06161
2553.65367,0.06138
2551.72493,0.06135
2549.79619,0.06141
2547.86745,0.06145
2545.93870,0.06146
2544.00996,0.06151
2542.08122,0.06155
2540.15248,0.06143
2538.22374,0.06126
2536.29500,0.06125
2534.36626,0.06141
2532.43751,0.06166
2530.50877,0.06185
2528.58003,0.06172
2526.65129,0.06137
2524.72255,0.06115
2522.79381,0.06113
2520.86507,0.06111
2518.93632,0.06103
2517.00758,0.06101
2515.07884,0.06108
2513.15010,0.06111
2511.22136,0.06096
2509.29262,0.06083
2507.36388,0.06099
2505.43513,0.06126
2503.50639,0.06131
2501.57765,0.06121
2499.64891,0.06112
2497.72017,0.06118
2495.79143,0.06130
2493.86269,0.06127
2491.93394,0.06109
2490.00520,0.06091
2488.07646,0.06078
2486.14772,0.06080
2484.21898,0.06098
2482.29024,0.06127
2480.36149,0.06160
2478.43275,0.06182
2476.50401,0.06173
2474.57527,0.06133
2472.64653,0.06102
2470.71779,0.06104
2468.78905,0.06127
2466.86030,0.06157
2464.93156,0.06177
2463.00282,0.06164
2461.07408,0.06124
2459.14534,0.06103
2457.21660,0.06121
2455.28786,0.06141
2453.35911,0.06137
2451.43037,0.06119
2449.50163,0.06102
2447.57289,0.06091
2445.64415,0.06090
2443.71541,0.06102
2441.78667,0.06124
2439.85792,0.06139
2437.92918,0.06134
2436.00044,0.06121
2434.07170,0.06117
2432.14296,0.06126
2430.21422,0.06138
2428.28548,0.06131
2426.35673,0.06114
2424.42799,0.06111
2422.49925,0.06107
2420.57051,0.06093
2418.64177,0.06088
2416.71303,0.06091
2414.78429,0.06087
2412.85554,0.06082
2410.92680,0.06085
2408.99806,0.06087
2407.06932,0.06090
2405.14058,0.06097
2403.21184,0.06101
2401.28310,0.06101
2399.35435,0.06104
2397.42561,0.06104
2395.49687,0.06098
2393.56813,0.06095
2391.63939,0.06096
2389.71065,0.06097
2387.78191,0.06091
2385.85316,0.06083
2383.92442,0.06082
2381.99568,0.06086
2380.06694,0.06083
2378.13820,0.06079
2376.20946,0.06086
2374.28072,0.06101
2372.35197,0.06104
2370.42323,0.06085
2368.49449,0.06067
2366.56575,0.06068
2364.63701,0.06066
2362.70827,0.06054
2360.77953,0.06068
2358.85078,0.06106
2356.92204,0.06121
2354.99330,0.06099
2353.06456,0.06068
2351.13582,0.06047
2349.20708,0.06038
2347.27834,0.06034
2345.34959,0.06036
2343.42085,0.06053
2341.49211,0.06086
2339.56337,0.06103
2337.63463,0.06080
2335.70589,0.06047
2333.77715,0.06035
2331.84840,0.06036
2329.91966,0.06030
2327.99092,0.06030
2326.06218,0.06037
2324.13344,0.06036
2322.20470,0.06040
2320.27596,0.06051
2318.34721,0.06043
2316.41847,0.06030
2314.48973,0.06037
2312.56099,0.06050
2310.63225,0.06045
2308.70351,0.06021
2306.77477,0.05999
2304.84602,0.05989
2302.91728,0.05983
2300.98854,0.05990
2299.05980,0.06019
2297.13106,0.06042
2295.20232,0.06035
2293.27357,0.06018
2291.34483,0.06018
2289.41609,0.06028
2287.48735,0.06033
2285.55861,0.06029
2283.62987,0.06024
2281.70113,0.06020
2279.77238,0.06013
2277.84364,0.06000
2275.91490,0.05999
2273.98616,0.06012
2272.05742,0.06014
2270.12868,0.06007
2268.19994,0.06009
2266.27119,0.06017
2264.34245,0.06024
2262.41371,0.06035
2260.48497,0.06048
2258.55623,0.06050
2256.62749,0.06041
2254.69875,0.06030
2252.77000,0.06009
2250.84126,0.05979
2248.91252,0.05967
2246.98378,0.05983
2245.05504,0.05998
2243.12630,0.05996
2241.19756,0.05993
2239.26881,0.05998
2237.34007,0.06002
2235.41133,0.06010
2233.48259,0.06021
2231.55385,0.06023
2229.62511,0.06021
2227.69637,0.06026
2225.76762,0.06023
2223.83888,0.06000
2221.91014,0.05981
2219.98140,0.05985
2218.05266,0.05992
2216.12392,0.05983
2214.19518,0.05967
2212.26643,0.05965
2210.33769,0.05974
2208.40895,0.05977
2206.48021,0.05965
2204.55147,0.05943
2202.62273,0.05931
2200.69399,0.05947
2198.76524,0.05975
2196.83650,0.05988
2194.90776,0.05991
2192.97902,0.05985
2191.05028,0.05969
2189.12154,0.05968
2187.19280,0.05989
2185.26405,0.05999
2183.33531,0.05992
2181.40657,0.05981
2179.47783,0.05965
2177.54909,0.05951
2175.62035,0.05953
2173.69161,0.05959
2171.76286,0.05962
2169.83412,0.05961
2167.90538,0.05952
2165.97664,0.05936
2164.04790,0.05924
2162.11916,0.05925
2160.19042,0.05938
2158.26167,0.05948
2156.33293,0.05949
2154.40419,0.05949
2152.47545,0.05946
2150.54671,0.05939
2148.61797,0.05929
2146.68923,0.05922
2144.76048,0.05927
2142.83174,0.05931
2140.90300,0.05923
2138.97426,0.05919
2137.04552,0.05925
2135.11678,0.05928
2133.18804,0.05928
2131.25929,0.05927
2129.33055,0.05925
2127.40181,0.05934
2125.47307,0.05943
2123.54433,0.05933
2121.61559,0.05914
2119.68685,0.05903
2117.75810,0.05903
2115.82936,0.05914
2113.90062,0.05921
2111.97188,0.05918
2110.04314,0.05920
2108.11440,0.05924
2106.18566,0.05920
2104.25691,0.05911
2102.32817,0.05905
2100.39943,0.05904
2098.47069,0.05895
2096.54195,0.05878
2094.61321,0.05867
2092.68446,0.05866
2090.75572,0.05865
2088.82698,0.05868
2086.89824,0.05876
2084.96950,0.05874
2083.04076,0.05864
2081.11202,0.05865
2079.18327,0.05866
2077.25453,0.05856
2075.32579,0.05847
2073.39705,0.05846
2071.46831,0.05846
2069.53957,0.05855
2067.61083,0.05881
2065.68208,0.05903
2063.75334,0.05889
2061.82460,0.05853
2059.89586,0.05835
2057.96712,0.05843
2056.03838,0.05863
2054.10964,0.05874
2052.18089,0.05861
2050.25215,0.05834
2048.32341,0.05825
2046.39467,0.05837
2044.46593,0.05859
2042.53719,0.05883
2040.60845,0.05891
2038.67970,0.05886
2036.75096,0.05884
2034.82222,0.05874
2032.89348,0.05848
2030.96474,0.05823
2029.03600,0.05816
2027.10726,0.05817
2025.17851,0.05820
2023.24977,0.05825
2021.32103,0.05824
2019.39229,0.05818
2017.46355,0.05820
2015.53481,0.05819
2013.60607,0.05806
2011.67732,0.05803
2009.74858,0.05820
2007.81984,0.05836
2005.89110,0.05831
2003.96236,0.05823
2002.03362,0.05826
2000.10488,0.05823
1998.17613,0.05813
1996.24739,0.05805
1994.31865,0.05795
1992.38991,0.05784
1990.46117,0.05783
1988.53243,0.05788
1986.60369,0.05787
1984.67494,0.05775
1982.74620,0.05763
1980.81746,0.05764
1978.88872,0.05778
1976.95998,0.05785
1975.03124,0.05776
1973.10250,0.05755
1971.17375,0.05726
1969.24501,0.05708
1967.31627,0.05715
1965.38753,0.05731
1963.45879,0.05741
1961.53005,0.05743
1959.60131,0.05739
1957.67256,0.05739
1955.74382,0.05739
1953.81508,0.05733
1951.88634,0.05728
1949.95760,0.05734
1948.02886,0.05753
1946.10012,0.05761
1944.17137,0.05744
1942.24263,0.05732
1940.31389,0.05736
1938.38515,0.05723
1936.45641,0.05686
1934.52767,0.05656
1932.59893,0.05662
1930.67018,0.05693
1928.74144,0.05714
1926.81270,0.05706
1924.88396,0.05680
1922.95522,0.05658
1921.02648,0.05650
1919.09774,0.05653
1917.16899,0.05663
1915.24025,0.05676
1913.31151,0.05676
1911.38277,0.05663
1909.45403,0.05648
1907.52529,0.05642
1905.59655,0.05650
1903.66780,0.05650
1901.73906,0.05630
1899.81032,0.05613
1897.88158,0.05610
1895.95284,0.05603
1894.02410,0.05586
1892.09535,0.05576
1890.16661,0.05575
1888.23787,0.05572
1886.30913,0.05569
1884.38039,0.05568
1882.45165,0.05565
1880.52291,0.05558
1878.59416,0.05553
1876.66542,0.05557
1874.73668,0.05564
1872.80794,0.05563
1870.87920,0.05551
1868.95046,0.05536
1867.02172,0.05533
1865.09297,0.05540
1863.16423,0.05541
1861.23549,0.05532
1859.30675,0.05517
1857.37801,0.05510
1855.44927,0.05511
1853.52053,0.05500
1851.59178,0.05484
1849.66304,0.05483
1847.73430,0.05480
1845.80556,0.05464
1843.87682,0.05451
1841.94808,0.05438
1840.01934,0.05418
1838.09059,0.05411
1836.16185,0.05421
1834.23311,0.05425
1832.30437,0.05421
1830.37563,0.05418
1828.44689,0.05411
1826.51815,0.05398
1824.58940,0.05379
1822.66066,0.05367
1820.73192,0.05360
1818.80318,0.05341
1816.87444,0.05326
1814.94570,0.05341
1813.01696,0.05358
1811.08821,0.05337
1809.15947,0.05297
1807.23073,0.05273
1805.30199,0.05270
1803.37325,0.05269
1801.44451,0.05256
1799.51577,0.05236
1797.58702,0.05227
1795.65828,0.05225
1793.72954,0.05209
1791.80080,0.05179
1789.87206,0.05157
1787.94332,0.05156
1786.01458,0.05160
1784.08583,0.05145
1782.15709,0.05114
1780.22835,0.05081
1778.29961,0.05055
1776.37087,0.05042
1774.44213,0.05039
1772.51339,0.05031
1770.58464,0.05005
1768.65590,0.04978
1766.72716,0.04956
1764.79842,0.04942
1762.86968,0.04938
1760.94094,0.04947
1759.01220,0.04961
1757.08345,0.04962
1755.15471,0.04954
1753.22597,0.04948
1751.29723,0.04955
1749.36849,0.04978
1747.43975,0.05003
1745.51101,0.05011
1743.58226,0.05004
1741.65352,0.04987
1739.72478,0.04957
1737.79604,0.04916
1735.86730,0.04861
1733.93856,0.04796
1732.00982,0.04752
1730.08107,0.04728
1728.15233,0.04698
1726.22359,0.04663
1724.29485,0.04616
1722.36611,0.04572
1720.43737,0.04553
1718.50863,0.04535
1716.57988,0.04491
1714.65114,0.04437
1712.72240,0.04400
1710.79366,0.04374
1708.86492,0.04336
1706.93618,0.04291
1705.00744,0.04245
1703.07869,0.04199
1701.14995,0.04145
1699.22121,0.04078
1697.29247,0.04004
1695.36373,0.03931
1693.43499,0.03877
1691.50624,0.03840
1689.57750,0.03792
1687.64876,0.03736
1685.72002,0.03664
1683.79128,0.03561
1681.86254,0.03486
1679.93380,0.03454
1678.00505,0.03420
1676.07631,0.03381
1674.14757,0.03354
1672.21883,0.03336
1670.29009,0.03325
1668.36135,0.03339
1666.43261,0.03401
1664.50386,0.03510
1662.57512,0.03665
1660.64638,0.03871
1658.71764,0.04144
1656.78890,0.04483
1654.86016,0.04930
1652.93142,0.05617
1651.00267,0.06395
1649.07393,0.07157
1647.14519,0.08124
1645.21645,0.09275
1643.28771,0.10362
1641.35897,0.11374
1639.43023,0.12310
1637.50148,0.13116
1635.57274,0.13762
1633.64400,0.14071
1631.71526,0.13934
1629.78652,0.13413
1627.85778,0.12654
1625.92904,0.11871
1624.00029,0.11166
1622.07155,0.10574
1620.14281,0.10117
1618.21407,0.09709
1616.28533,0.09293
1614.35659,0.08947
1612.42785,0.08688
1610.49910,0.08470
1608.57036,0.08292
1606.64162,0.08140
1604.71288,0.07979
1602.78414,0.07788
1600.85540,0.07580
1598.92666,0.07388
1596.99791,0.07229
1595.06917,0.07079
1593.14043,0.06915
1591.21169,0.06737
1589.28295,0.06554
1587.35421,0.06378
1585.42547,0.06210
1583.49672,0.06059
1581.56798,0.05926
1579.63924,0.05791
1577.71050,0.05626
1575.78176,0.05442
1573.85302,0.05289
1571.92428,0.05157
1569.99553,0.05017
1568.06679,0.04896
1566.13805,0.04820
1564.20931,0.04778
1562.28057,0.04762
1560.35183,0.04756
1558.42309,0.04765
1556.49434,0.04839
1554.56560,0.04968
1552.63686,0.05159
1550.70812,0.05457
1548.77938,0.05880
1546.85064,0.06412
1544.92190,0.07047
1542.99315,0.07746
1541.06441,0.08481
1539.13567,0.09202
1537.20693,0.09728
1535.27819,0.10052
1533.34945,0.10217
1531.42071,0.10207
1529.49196,0.10073
1527.56322,0.09877
1525.63448,0.09659
1523.70574,0.09438
1521.77700,0.09202
1519.84826,0.08974
1517.91952,0.08785
1515.99077,0.08617
1514.06203,0.08482
1512.13329,0.08381
1510.20455,0.08278
1508.27581,0.08157
1506.34707,0.08021
1504.41833,0.07904
1502.48958,0.07811
1500.56084,0.07729
1498.63210,0.07643
1496.70336,0.07542
1494.77462,0.07449
1492.84588,0.07370
1490.91713,0.07274
1488.98839,0.07163
1487.05965,0.07059
1485.13091,0.06955
1483.20217,0.06854
1481.27343,0.06794
1479.34469,0.06817
1477.41594,0.06940
1475.48720,0.07144
1473.55846,0.07355
1471.62972,0.07454
1469.70098,0.07406
1467.77224,0.07333
1465.84350,0.07373
1463.91475,0.07510
1461.98601,0.07607
1460.05727,0.07610
1458.12853,0.07534
1456.19979,0.07424
1454.27105,0.07354
1452.34231,0.07315
1450.41356,0.07276
1448.48482,0.07234
1446.55608,0.07179
1444.62734,0.07113
1442.69860,0.07064
1440.76986,0.07051
1438.84112,0.07064
1436.91237,0.07077
1434.98363,0.07076
1433.05489,0.07068
1431.12615,0.07051
1429.19741,0.07020
1427.26867,0.06990
1425.33993,0.06983
1423.41118,0.07015
1421.48244,0.07102
1419.55370,0.07278
1417.62496,0.07520
1415.69622,0.07705
1413.76748,0.07752
1411.83874,0.07676
1409.90999,0.07555
1407.98125,0.07448
1406.05251,0.07358
1404.12377,0.07272
1402.19503,0.07194
1400.26629,0.07127
1398.33755,0.07054
1396.40880,0.06984
1394.48006,0.06933
1392.55132,0.06896
1390.62258,0.06867
1388.69384,0.06849
1386.76510,0.06841
1384.83636,0.06840
1382.90761,0.06836
1380.97887,0.06828
1379.05013,0.06822
1377.12139,0.06834
1375.19265,0.06882
1373.26391,0.06962
1371.33517,0.07047
1369.40642,0.07114
1367.47768,0.07164
1365.54894,0.07205
1363.62020,0.07229
1361.69146,0.07224
1359.76272,0.07206
1357.83398,0.07198
1355.90523,0.07195
1353.97649,0.07182
1352.04775,0.07163
1350.11901,0.07140
1348.19027,0.07118
1346.26153,0.07109
1344.33279,0.07105
1342.40404,0.07099
1340.47530,0.07091
1338.54656,0.07071
1336.61782,0.07035
1334.68908,0.07000
1332.76034,0.06973
1330.83160,0.06951
1328.90285,0.06931
1326.97411,0.06909
1325.04537,0.06888
1323.11663,0.06881
1321.18789,0.06868
1319.25915,0.06821
1317.33041,0.06763
1315.40166,0.06732
1313.47292,0.06725
1311.54418,0.06720
1309.61544,0.06707
1307.68670,0.06679
1305.75796,0.06644
1303.82922,0.06623
1301.90047,0.06611
1299.97173,0.06601
1298.04299,0.06592
1296.11425,0.06576
1294.18551,0.06538
1292.25677,0.06495
1290.32802,0.06467
1288.39928,0.06438
1286.47054,0.06397
1284.54180,0.06368
1282.61306,0.06368
1280.68432,0.06403
1278.75558,0.06494
1276.82683,0.06650
1274.89809,0.06842
1272.96935,0.07007
1271.04061,0.07106
1269.11187,0.07167
1267.18313,0.07233
1265.25439,0.07296
1263.32564,0.07329
1261.39690,0.07345
1259.46816,0.07354
1257.53942,0.07340
1255.61068,0.07308
1253.68194,0.07295
1251.75320,0.07300
1249.82445,0.07297
1247.89571,0.07281
1245.96697,0.07270
1244.03823,0.07273
1242.10949,0.07269
1240.18075,0.07229
1238.25201,0.07185
1236.32326,0.07179
1234.39452,0.07187
1232.46578,0.07172
1230.53704,0.07149
1228.60830,0.07139
1226.67956,0.07131
1224.75082,0.07122
1222.82207,0.07124
1220.89333,0.07124
1218.96459,0.07110
1217.03585,0.07075
1215.10711,0.07008
1213.17837,0.06931
1211.24963,0.06863
1209.32088,0.06782
1207.39214,0.06704
1205.46340,0.06682
1203.53466,0.06745
1201.60592,0.06918
1199.67718,0.07169
1197.74844,0.07401
1195.81969,0.07551
1193.89095,0.07604
1191.96221,0.07565
1190.03347,0.07477
1188.10473,0.07405
1186.17599,0.07378
1184.24725,0.07371
1182.31850,0.07370
1180.38976,0.07396
1178.46102,0.07444
1176.53228,0.07484
1174.60354,0.07498
1172.67480,0.07478
1170.74606,0.07432
1168.81731,0.07390
1166.88857,0.07374
1164.95983,0.07363
1163.03109,0.07331
1161.10235,0.07282
1159.17361,0.07242
1157.24487,0.07234
1155.31612,0.07241
1153.38738,0.07227
1151.45864,0.07203
1149.52990,0.07199
1147.60116,0.07217
1145.67242,0.07232
1143.74368,0.07239
1141.81493,0.07260
1139.88619,0.07299
1137.95745,0.07319
1136.02871,0.07295
1134.09997,0.07257
1132.17123,0.07234
1130.24249,0.07221
1128.31374,0.07200
1126.38500,0.07164
1124.45626,0.07131
1122.52752,0.07127
1120.59878,0.07140
1118.67004,0.07136
1116.74130,0.07114
1114.81255,0.07088
1112.88381,0.07067
1110.95507,0.07066
1109.02633,0.07076
1107.09759,0.07075
1105.16885,0.07055
1103.24011,0.07013
1101.31136,0.06976
1099.38262,0.06983
1097.45388,0.07014
1095.52514,0.07017
1093.59640,0.06997
1091.66766,0.06974
1089.73891,0.06944
1087.81017,0.06898
1085.88143,0.06863
1083.95269,0.06862
1082.02395,0.06872
1080.09521,0.06878
1078.16647,0.06886
1076.23772,0.06891
1074.30898,0.06885
1072.38024,0.06866
1070.45150,0.06860
1068.52276,0.06873
1066.59402,0.06872
1064.66528,0.06864
1062.73653,0.06863
1060.80779,0.06843
1058.87905,0.06818
1056.95031,0.06824
1055.02157,0.06835
1053.09283,0.06833
1051.16409,0.06837
1049.23534,0.06845
1047.30660,0.06851
1045.37786,0.06861
1043.44912,0.06853
1041.52038,0.06823
1039.59164,0.06813
1037.66290,0.06836
1035.73415,0.06857
1033.80541,0.06867
1031.87667,0.06880
1029.94793,0.06877
1028.01919,0.06854
1026.09045,0.06829
1024.16171,0.06807
1022.23296,0.06802
1020.30422,0.06830
1018.37548,0.06866
1016.44674,0.06888
1014.51800,0.06884
1012.58926,0.06865
1010.66052,0.06864
1008.73177,0.06871
1006.80303,0.06840
1004.87429,0.06782
1002.94555,0.06753
1001.01681,0.06778
999.08807,0.06818
997.15933,0.06820
995.23058,0.06798
993.30184,0.06785
991.37310,0.06770
989.44436,0.06730
987.51562,0.06678
985.58688,0.06650
983.65814,0.06656
981.72939,0.06676
979.80065,0.06690
977.87191,0.06693
975.94317,0.06681
974.01443,0.06658
972.08569,0.06635
970.15695,0.06626
968.22820,0.06622
966.29946,0.06608
964.37072,0.06576
962.44198,0.06544
960.51324,0.06544
958.58450,0.06575
956.65576,0.06592
954.72701,0.06572
952.79827,0.06535
950.86953,0.06502
948.94079,0.06477
947.01205,0.06453
945.08331,0.06432
943.15457,0.06438
941.22582,0.06480
939.29708,0.06541
937.36834,0.06614
935.43960,0.06708
933.51086,0.06796
931.58212,0.06837
929.65338,0.06835
927.72463,0.06804
925.79589,0.06775
923.86715,0.06789
921.93841,0.06822
920.00967,0.06808
918.08093,0.06750
916.15219,0.06697
914.22344,0.06677
912.29470,0.06678
910.36596,0.06645
908.43722,0.06573
906.50848,0.06537
904.57974,0.06570
902.65100,0.06624
900.72225,0.06649
898.79351,0.06630
896.86477,0.06596
894.93603,0.06581
893.00729,0.06588
891.07855,0.06605
889.14980,0.06624
887.22106,0.06628
885.29232,0.06613
883.36358,0.06594
881.43484,0.06567
879.50610,0.06534
877.57736,0.06517
875.64861,0.06530
873.71987,0.06546
871.79113,0.06521
869.86239,0.06477
867.93365,0.06451
866.00491,0.06432
864.07617,0.06424
862.14742,0.06438
860.21868,0.06444
858.28994,0.06437
856.36120,0.06437
854.43246,0.06444
852.50372,0.06450
850.57498,0.06443
848.64623,0.06410
846.71749,0.06362
844.78875,0.06328
842.86001,0.06315
840.93127,0.06293
839.00253,0.06261
837.07379,0.06265
835.14504,0.06313
833.21630,0.06347
831.28756,0.06331
829.35882,0.06278
827.43008,0.06241
825.50134,0.06250
823.57260,0.06259
821.64385,0.06247
819.71511,0.06251
817.78637,0.06261
815.85763,0.06248
813.92889,0.06209
812.00015,0.06159
810.07141,0.06130
808.14266,0.06125
806.21392,0.06111
804.28518,0.06095
802.35644,0.06114
800.42770,0.06148
798.49896,0.06156
796.57022,0.06147
794.64147,0.06148
792.71273,0.06147
790.78399,0.06120
788.85525,0.06082
786.92651,0.06045
784.99777,0.06005
783.06903,0.05984
781.14028,0.05992
779.21154,0.05984
777.28280,0.05938
775.35406,0.05881
773.42532,0.05827
771.49658,0.05794
769.56784,0.05788
767.63909,0.05769
765.71035,0.05732
763.78161,0.05726
761.85287,0.05751
759.92413,0.05759
757.99539,0.05735
756.06665,0.05719
754.13790,0.05728
752.20916,0.05717
750.28042,0.05645
748.35168,0.05552
746.42294,0.05504
744.49420,0.05494
742.56546,0.05465
740.63671,0.05396
738.70797,0.05325
736.77923,0.05301
734.85049,0.05329
732.92175,0.05390
730.99301,0.05479
729.06427,0.05587
727.13552,0.05664
725.20678,0.05692
723.27804,0.05713
721.34930,0.05718
719.42056,0.05684
717.49182,0.05639
715.56308,0.05606
713.63433,0.05569
711.70559,0.05531
709.77685,0.05516
707.84811,0.05533
705.91937,0.05567
703.99063,0.05580
702.06189,0.05552
700.13314,0.05538
698.20440,0.05570
696.27566,0.05606
694.34692,0.05668
692.41818,0.05794
690.48944,0.05934
688.56069,0.06064
686.63195,0.06225
684.70321,0.06417
682.77447,0.06571
680.84573,0.06633
678.91699,0.06665
676.98825,0.06738
675.05950,0.06787
673.13076,0.06777
671.20202,0.06809
669.27328,0.06898
667.34454,0.06929
665.41580,0.06904
663.48706,0.06902
661.55831,0.06913
659.62957,0.06897
657.70083,0.06831
655.77209,0.06749
653.84335,0.06717
651.91461,0.06747
649.98587,0.06788
648.05712,0.06768
646.12838,0.06684
644.19964,0.06604
642.27090,0.06574
640.34216,0.06599
638.41342,0.06629
636.48468,0.06635
634.55593,0.06641
632.62719,0.06620
630.69845,0.06541
628.76971,0.06477
626.84097,0.06473
624.91223,0.06489
622.98349,0.06500
621.05474,0.06511
619.12600,0.06509
617.19726,0.06502
615.26852,0.06482
613.33978,0.06372
611.41104,0.06225
609.48230,0.06164
607.55355,0.06183
605.62481,0.06229
603.69607,0.06248
601.76733,0.06198
599.83859,0.06088
