7497.01799,0.58692
7495.08925,0.58795
7493.16050,0.58947
7491.23176,0.59029
7489.30302,0.58911
7487.37428,0.58741
7485.44554,0.58612
7483.51680,0.58245
7481.58806,0.57781
7479.65931,0.57775
7477.73057,0.58176
7475.80183,0.58546
7473.87309,0.58613
7471.94435,0.58545
7470.01561,0.58465
7468.08686,0.58225
7466.15812,0.58316
7464.22938,0.58795
7462.30064,0.58813
7460.37190,0.58509
7458.44316,0.58359
7456.51442,0.58219
7454.58567,0.58189
7452.65693,0.58222
7450.72819,0.57973
7448.79945,0.57519
7446.87071,0.57225
7444.94197,0.57384
7443.01323,0.57909
7441.08448,0.58378
7439.15574,0.58581
7437.22700,0.58720
7435.29826,0.58904
7433.36952,0.58771
7431.44078,0.58253
7429.51204,0.57864
7427.58329,0.57809
7425.65455,0.57912
7423.72581,0.58039
7421.79707,0.57988
7419.86833,0.57643
7417.93959,0.57293
7416.01085,0.57216
7414.08210,0.57393
7412.15336,0.57699
7410.22462,0.57826
7408.29588,0.57666
7406.36714,0.57689
7404.43840,0.58168
7402.50966,0.58619
7400.58091,0.58546
7398.65217,0.58202
7396.72343,0.57913
7394.79469,0.57683
7392.86595,0.57739
7390.93721,0.58017
7389.00847,0.57905
7387.07972,0.57482
7385.15098,0.57326
7383.22224,0.57384
7381.29350,0.57641
7379.36476,0.58077
7377.43602,0.58052
7375.50728,0.57668
7373.57853,0.57439
7371.64979,0.57093
7369.72105,0.56779
7367.79231,0.56928
7365.86357,0.57182
7363.93483,0.57197
7362.00609,0.57044
7360.07734,0.56867
7358.14860,0.56781
7356.21986,0.56640
7354.29112,0.56384
7352.36238,0.56247
7350.43364,0.56144
7348.50490,0.55893
7346.57615,0.55648
7344.64741,0.55457
7342.71867,0.55389
7340.78993,0.55599
7338.86119,0.55734
7336.93245,0.55461
7335.00371,0.55147
7333.07496,0.55053
7331.14622,0.54902
7329.21748,0.54583
7327.28874,0.54256
7325.36000,0.53988
7323.43126,0.53861
7321.50252,0.53767
7319.57377,0.53485
7317.64503,0.53020
7315.71629,0.52592
7313.78755,0.52534
7311.85881,0.52689
7309.93007,0.52600
7308.00133,0.52256
7306.07258,0.51897
7304.14384,0.51706
7302.21510,0.51579
7300.28636,0.51342
7298.35762,0.51118
7296.42888,0.51005
7294.50014,0.50731
7292.57139,0.50029
7290.64265,0.49430
7288.71391,0.49481
7286.78517,0.49667
7284.85643,0.49451
7282.92769,0.49162
7280.99894,0.49295
7279.07020,0.49528
7277.14146,0.49117
7275.21272,0.48480
7273.28398,0.48245
7271.35524,0.47870
7269.42650,0.47233
7267.49775,0.46878
7265.56901,0.46747
7263.64027,0.46697
7261.71153,0.46653
7259.78279,0.46353
7257.85405,0.45846
7255.92531,0.45431
7253.99656,0.45222
7252.06782,0.45112
7250.13908,0.44855
7248.21034,0.44385
7246.28160,0.44031
7244.35286,0.43888
7242.42412,0.43527
7240.49537,0.42982
7238.56663,0.42773
7236.63789,0.42692
7234.70915,0.42292
7232.78041,0.41956
7230.85167,0.41958
7228.92293,0.42005
7226.99418,0.41917
7225.06544,0.41711
7223.13670,0.41556
7221.20796,0.41486
7219.27922,0.41518
7217.35048,0.41655
7215.42174,0.41683
7213.49299,0.41672
7211.56425,0.41530
7209.63551,0.41158
7207.70677,0.40991
7205.77803,0.40991
7203.84929,0.40917
7201.92055,0.41072
7199.99180,0.41399
7198.06306,0.41579
7196.13432,0.41811
7194.20558,0.42091
7192.27684,0.41993
7190.34810,0.41730
7188.41936,0.41752
7186.49061,0.41806
7184.56187,0.41662
7182.63313,0.41673
7180.70439,0.41885
7178.77565,0.41963
7176.84691,0.41955
7174.91817,0.42019
7172.98942,0.42036
7171.06068,0.42019
7169.13194,0.42252
7167.20320,0.42712
7165.27446,0.43004
7163.34572,0.42993
7161.41698,0.42812
7159.48823,0.42683
7157.55949,0.42671
7155.63075,0.42631
7153.70201,0.42609
7151.77327,0.42577
7149.84453,0.42364
7147.91579,0.42177
7145.98704,0.42195
7144.05830,0.42100
7142.12956,0.41641
7140.20082,0.40991
7138.27208,0.40447
7136.34334,0.40209
7134.41460,0.40251
7132.48585,0.40459
7130.55711,0.40755
7128.62837,0.40904
7126.69963,0.40783
7124.77089,0.40631
7122.84215,0.40491
7120.91341,0.40185
7118.98466,0.39939
7117.05592,0.40081
7115.12718,0.40457
7113.19844,0.40728
7111.26970,0.40778
7109.34096,0.40725
7107.41222,0.40573
7105.48347,0.40234
7103.55473,0.39960
7101.62599,0.39929
7099.69725,0.39951
7097.76851,0.39933
7095.83977,0.39950
7093.91103,0.40169
7091.98228,0.40542
7090.05354,0.40617
7088.12480,0.40267
7086.19606,0.39806
7084.26732,0.39555
7082.33858,0.39730
7080.40983,0.39929
7078.48109,0.39749
7076.55235,0.39588
7074.62361,0.39692
7072.69487,0.39874
7070.76613,0.40038
7068.83739,0.40124
7066.90864,0.40058
7064.97990,0.39951
7063.05116,0.40055
7061.12242,0.40225
7059.19368,0.40199
7057.26494,0.40081
7055.33620,0.39936
7053.40745,0.39798
7051.47871,0.39834
7049.54997,0.40092
7047.62123,0.40323
7045.69249,0.40331
7043.76375,0.40231
7041.83501,0.40132
7039.90626,0.40185
7037.97752,0.40327
7036.04878,0.40264
7034.12004,0.40186
7032.19130,0.40312
7030.26256,0.40479
7028.33382,0.40632
7026.40507,0.40767
7024.47633,0.40770
7022.54759,0.40685
7020.61885,0.40567
7018.69011,0.40252
7016.76137,0.39906
7014.83263,0.39873
7012.90388,0.40009
7010.97514,0.40153
7009.04640,0.40268
7007.11766,0.40140
7005.18892,0.39862
7003.26018,0.39827
7001.33144,0.40061
6999.40269,0.40216
6997.47395,0.40192
6995.54521,0.40314
6993.61647,0.40637
6991.68773,0.40721
6989.75899,0.40479
6987.83025,0.40255
6985.90150,0.40124
6983.97276,0.40074
6982.04402,0.40348
6980.11528,0.40800
6978.18654,0.40879
6976.25780,0.40637
6974.32906,0.40559
6972.40031,0.40691
6970.47157,0.40832
6968.54283,0.40971
6966.61409,0.41127
6964.68535,0.41159
6962.75661,0.41014
6960.82787,0.40923
6958.89912,0.41028
6956.97038,0.41172
6955.04164,0.41305
6953.11290,0.41547
6951.18416,0.41710
6949.25542,0.41585
6947.32668,0.41430
6945.39793,0.41443
6943.46919,0.41483
6941.54045,0.41434
6939.61171,0.41391
6937.68297,0.41451
6935.75423,0.41421
6933.82549,0.41254
6931.89674,0.41304
6929.96800,0.41688
6928.03926,0.42127
6926.11052,0.42371
6924.18178,0.42468
6922.25304,0.42468
6920.32430,0.42251
6918.39555,0.41974
6916.46681,0.41846
6914.53807,0.41727
6912.60933,0.41596
6910.68059,0.41655
6908.75185,0.41887
6906.82311,0.42159
6904.89436,0.42466
6902.96562,0.42767
6901.03688,0.42973
6899.10814,0.43045
6897.17940,0.42872
6895.25066,0.42440
6893.32192,0.42081
6891.39317,0.42154
6889.46443,0.42542
6887.53569,0.42755
6885.60695,0.42614
6883.67821,0.42495
6881.74947,0.42662
6879.82072,0.42835
6877.89198,0.42791
6875.96324,0.42815
6874.03450,0.42987
6872.10576,0.42892
6870.17702,0.42571
6868.24828,0.42417
6866.31953,0.42285
6864.39079,0.42090
6862.46205,0.42269
6860.53331,0.42687
6858.60457,0.42662
6856.67583,0.42297
6854.74709,0.42083
6852.81834,0.42012
6850.88960,0.42109
6848.96086,0.42438
6847.03212,0.42796
6845.10338,0.43056
6843.17464,0.43221
6841.24590,0.43242
6839.31715,0.43064
6837.38841,0.42819
6835.45967,0.42757
6833.53093,0.42883
6831.60219,0.42941
6829.67345,0.42824
6827.74471,0.42702
6825.81596,0.42652
6823.88722,0.42604
6821.95848,0.42656
6820.02974,0.42877
6818.10100,0.43108
6816.17226,0.43199
6814.24352,0.43136
6812.31477,0.43025
6810.38603,0.42924
6808.45729,0.42772
6806.52855,0.42602
6804.59981,0.42481
6802.67107,0.42345
6800.74233,0.42216
6798.81358,0.42189
6796.88484,0.42156
6794.95610,0.42029
6793.02736,0.41881
6791.09862,0.41877
6789.16988,0.42094
6787.24114,0.42186
6785.31239,0.41921
6783.38365,0.41535
6781.45491,0.41159
6779.52617,0.40887
6777.59743,0.40899
6775.66869,0.41039
6773.73995,0.41015
6771.81120,0.40826
6769.88246,0.40545
6767.95372,0.40229
6766.02498,0.39937
6764.09624,0.39638
6762.16750,0.39446
6760.23876,0.39479
6758.31001,0.39602
6756.38127,0.39543
6754.45253,0.39255
6752.52379,0.39134
6750.59505,0.39319
6748.66631,0.39421
6746.73757,0.39297
6744.80882,0.39155
6742.88008,0.39078
6740.95134,0.38946
6739.02260,0.38780
6737.09386,0.38713
6735.16512,0.38745
6733.23638,0.38837
6731.30763,0.38920
6729.37889,0.38836
6727.45015,0.38539
6725.52141,0.38254
6723.59267,0.38276
6721.66393,0.38586
6719.73519,0.38767
6717.80644,0.38632
6715.87770,0.38495
6713.94896,0.38364
6712.02022,0.38115
6710.09148,0.38021
6708.16274,0.38049
6706.23400,0.37919
6704.30525,0.37683
6702.37651,0.37456
6700.44777,0.37353
6698.51903,0.37382
6696.59029,0.37220
6694.66155,0.36825
6692.73281,0.36689
6690.80406,0.36971
6688.87532,0.37182
6686.94658,0.37002
6685.01784,0.36695
6683.08910,0.36525
6681.16036,0.36376
6679.23161,0.36180
6677.30287,0.36166
6675.37413,0.36276
6673.44539,0.36196
6671.51665,0.36068
6669.58791,0.36090
6667.65917,0.36045
6665.73042,0.35766
6663.80168,0.35390
6661.87294,0.35109
6659.94420,0.34921
6658.01546,0.34749
6656.08672,0.34642
6654.15798,0.34642
6652.22923,0.34636
6650.30049,0.34394
6648.37175,0.33758
6646.44301,0.32957
6644.51427,0.32521
6642.58553,0.32520
6640.65679,0.32383
6638.72804,0.31857
6636.79930,0.31385
6634.87056,0.31286
6632.94182,0.31294
6631.01308,0.31091
6629.08434,0.30745
6627.15560,0.30383
6625.22685,0.30038
6623.29811,0.29771
6621.36937,0.29596
6619.44063,0.29468
6617.51189,0.29308
6615.58315,0.29152
6613.65441,0.29110
6611.72566,0.29133
6609.79692,0.29169
6607.86818,0.29234
6605.93944,0.29309
6604.01070,0.29294
6602.08196,0.29111
6600.15322,0.28917
6598.22447,0.28918
6596.29573,0.29118
6594.36699,0.29439
6592.43825,0.29738
6590.50951,0.29833
6588.58077,0.29851
6586.65203,0.29952
6584.72328,0.29901
6582.79454,0.29618
6580.86580,0.29341
6578.93706,0.29182
6577.00832,0.29210
6575.07958,0.29324
6573.15084,0.29163
6571.22209,0.28752
6569.29335,0.28451
6567.36461,0.28319
6565.43587,0.28259
6563.50713,0.28266
6561.57839,0.28368
6559.64965,0.28477
6557.72090,0.28308
6555.79216,0.27922
6553.86342,0.27674
6551.93468,0.27531
6550.00594,0.27292
6548.07720,0.27007
6546.14846,0.26828
6544.21971,0.26783
6542.29097,0.26644
6540.36223,0.26278
6538.43349,0.25910
6536.50475,0.25626
6534.57601,0.25313
6532.64727,0.25108
6530.71852,0.24989
6528.78978,0.24576
6526.86104,0.23960
6524.93230,0.23578
6523.00356,0.23436
6521.07482,0.23383
6519.14608,0.23384
6517.21733,0.23258
6515.28859,0.22972
6513.35985,0.22843
6511.43111,0.22975
6509.50237,0.23096
6507.57363,0.23121
6505.64489,0.23173
6503.71614,0.23207
6501.78740,0.23184
6499.85866,0.23218
6497.92992,0.23234
6496.00118,0.23099
6494.07244,0.22947
6492.14370,0.22935
6490.21495,0.23048
6488.28621,0.23214
6486.35747,0.23331
6484.42873,0.23423
6482.49999,0.23603
6480.57125,0.23796
6478.64250,0.23998
6476.71376,0.24444
6474.78502,0.25085
6472.85628,0.25601
6470.92754,0.25972
6468.99880,0.26451
6467.07006,0.27094
6465.14131,0.27765
6463.21257,0.28471
6461.28383,0.29195
6459.35509,0.29828
6457.42635,0.30430
6455.49761,0.31120
6453.56887,0.31928
6451.64012,0.32769
6449.71138,0.33568
6447.78264,0.34372
6445.85390,0.35152
6443.92516,0.35785
6441.99642,0.36279
6440.06768,0.36603
6438.13893,0.36670
6436.21019,0.36746
6434.28145,0.37115
6432.35271,0.37502
6430.42397,0.37622
6428.49523,0.37659
6426.56649,0.37801
6424.63774,0.37921
6422.70900,0.37864
6420.78026,0.37744
6418.85152,0.37724
6416.92278,0.37679
6414.99404,0.37556
6413.06530,0.37659
6411.13655,0.37915
6409.20781,0.37869
6407.27907,0.37523
6405.35033,0.37177
6403.42159,0.37030
6401.49285,0.36992
6399.56411,0.36803
6397.63536,0.36460
6395.70662,0.36058
6393.77788,0.35650
6391.84914,0.35309
6389.92040,0.35009
6387.99166,0.34753
6386.06292,0.34562
6384.13417,0.34331
6382.20543,0.34020
6380.27669,0.33707
6378.34795,0.33410
6376.41921,0.33067
6374.49047,0.32727
6372.56173,0.32488
6370.63298,0.32279
6368.70424,0.32123
6366.77550,0.32096
6364.84676,0.32036
6362.91802,0.31834
6360.98928,0.31579
6359.06054,0.31405
6357.13179,0.31368
6355.20305,0.31361
6353.27431,0.31338
6351.34557,0.31336
6349.41683,0.31314
6347.48809,0.31225
6345.55935,0.31152
6343.63060,0.31236
6341.70186,0.31465
6339.77312,0.31751
6337.84438,0.32061
6335.91564,0.32322
6333.98690,0.32602
6332.05816,0.33051
6330.12941,0.33550
6328.20067,0.33880
6326.27193,0.34037
6324.34319,0.34253
6322.41445,0.34774
6320.48571,0.35453
6318.55697,0.35906
6316.62822,0.36059
6314.69948,0.36171
6312.77074,0.36423
6310.84200,0.36719
6308.91326,0.36972
6306.98452,0.37225
6305.05578,0.37409
6303.12703,0.37497
6301.19829,0.37677
6299.26955,0.37927
6297.34081,0.37985
6295.41207,0.37883
6293.48333,0.37860
6291.55459,0.37948
6289.62584,0.37991
6287.69710,0.37892
6285.76836,0.37672
6283.83962,0.37401
6281.91088,0.37164
6279.98214,0.36930
6278.05339,0.36646
6276.12465,0.36388
6274.19591,0.36152
6272.26717,0.35880
6270.33843,0.35644
6268.40969,0.35453
6266.48095,0.35193
6264.55220,0.34820
6262.62346,0.34469
6260.69472,0.34295
6258.76598,0.34211
6256.83724,0.34079
6254.90850,0.33955
6252.97976,0.33879
6251.05101,0.33919
6249.12227,0.34118
6247.19353,0.34268
6245.26479,0.34252
6243.33605,0.34154
6241.40731,0.34036
6239.47857,0.33984
6237.54982,0.34042
6235.62108,0.34146
6233.69234,0.34258
6231.76360,0.34327
6229.83486,0.34288
6227.90612,0.34224
6225.97738,0.34202
6224.04863,0.34315
6222.11989,0.34654
6220.19115,0.34997
6218.26241,0.35225
6216.33367,0.35495
6214.40493,0.35844
6212.47619,0.36257
6210.54744,0.36732
6208.61870,0.37162
6206.68996,0.37412
6204.76122,0.37529
6202.83248,0.37695
6200.90374,0.37965
6198.97500,0.38180
6197.04625,0.38210
6195.11751,0.38186
6193.18877,0.38325
6191.26003,0.38617
6189.33129,0.38827
6187.40255,0.38932
6185.47381,0.39180
6183.54506,0.39584
6181.61632,0.39998
6179.68758,0.40437
6177.75884,0.40921
6175.83010,0.41378
6173.90136,0.41853
6171.97262,0.42434
6170.04387,0.42989
6168.11513,0.43375
6166.18639,0.43644
6164.25765,0.43995
6162.32891,0.44450
6160.40017,0.44756
6158.47143,0.44970
6156.54268,0.45341
6154.61394,0.45743
6152.68520,0.46003
6150.75646,0.46202
6148.82772,0.46430
6146.89898,0.46726
6144.97024,0.46995
6143.04149,0.47100
6141.11275,0.47223
6139.18401,0.47553
6137.25527,0.47971
6135.32653,0.48326
6133.39779,0.48559
6131.46905,0.48697
6129.54030,0.48821
6127.61156,0.48912
6125.68282,0.48998
6123.75408,0.49161
6121.82534,0.49307
6119.89660,0.49354
6117.96786,0.49361
6116.03911,0.49385
6114.11037,0.49487
6112.18163,0.49620
6110.25289,0.49667
6108.32415,0.49647
6106.39541,0.49704
6104.46667,0.49913
6102.53792,0.50087
6100.60918,0.50078
6098.68044,0.50010
6096.75170,0.50000
6094.82296,0.50094
6092.89422,0.50227
6090.96548,0.50218
6089.03673,0.50100
6087.10799,0.50108
6085.17925,0.50227
6083.25051,0.50238
6081.32177,0.50109
6079.39303,0.50009
6077.46428,0.50021
6075.53554,0.49983
6073.60680,0.49841
6071.67806,0.49792
6069.74932,0.49879
6067.82058,0.49938
6065.89184,0.49841
6063.96309,0.49652
6062.03435,0.49589
6060.10561,0.49676
6058.17687,0.49769
6056.24813,0.49830
6054.31939,0.49812
6052.39065,0.49671
6050.46190,0.49539
6048.53316,0.49465
6046.60442,0.49402
6044.67568,0.49433
6042.74694,0.49559
6040.81820,0.49634
6038.88946,0.49588
6036.96071,0.49443
6035.03197,0.49271
6033.10323,0.49096
6031.17449,0.48923
6029.24575,0.48879
6027.31701,0.48923
6025.38827,0.48847
6023.45952,0.48715
6021.53078,0.48692
6019.60204,0.48698
6017.67330,0.48611
6015.74456,0.48543
6013.81582,0.48575
6011.88708,0.48545
6009.95833,0.48361
6008.02959,0.48155
6006.10085,0.48056
6004.17211,0.47984
6002.24337,0.47810
6000.31463,0.47597
5998.38589,0.47391
5996.45714,0.47162
5994.52840,0.46965
5992.59966,0.46897
5990.67092,0.46947
5988.74218,0.46933
5986.81344,0.46764
5984.88470,0.46581
5982.95595,0.46371
5981.02721,0.46061
5979.09847,0.45812
5977.16973,0.45649
5975.24099,0.45430
5973.31225,0.45206
5971.38351,0.45027
5969.45476,0.44803
5967.52602,0.44582
5965.59728,0.44477
5963.66854,0.44390
5961.73980,0.44106
5959.81106,0.43616
5957.88232,0.43150
5955.95357,0.42852
5954.02483,0.42633
5952.09609,0.42309
5950.16735,0.41834
5948.23861,0.41406
5946.30987,0.41086
5944.38113,0.40657
5942.45238,0.40113
5940.52364,0.39640
5938.59490,0.39230
5936.66616,0.38734
5934.73742,0.38101
5932.80868,0.37452
5930.87994,0.36858
5928.95119,0.36180
5927.02245,0.35390
5925.09371,0.34590
5923.16497,0.33733
5921.23623,0.32823
5919.30749,0.32015
5917.37875,0.31250
5915.45000,0.30347
5913.52126,0.29415
5911.59252,0.28608
5909.66378,0.27766
5907.73504,0.26732
5905.80630,0.25665
5903.87756,0.24770
5901.94881,0.23936
5900.02007,0.22921
5898.09133,0.21713
5896.16259,0.20518
5894.23385,0.19510
5892.30511,0.18642
5890.37637,0.17772
5888.44762,0.16893
5886.51888,0.16075
5884.59014,0.15293
5882.66140,0.14471
5880.73266,0.13638
5878.80392,0.12864
5876.87517,0.12172
5874.94643,0.11570
5873.01769,0.10988
5871.08895,0.10352
5869.16021,0.09756
5867.23147,0.09269
5865.30273,0.08756
5863.37398,0.08163
5861.44524,0.07606
5859.51650,0.07112
5857.58776,0.06657
5855.65902,0.06245
5853.73028,0.05858
5851.80154,0.05530
5849.87279,0.05273
5847.94405,0.05028
5846.01531,0.04731
5844.08657,0.04376
5842.15783,0.04055
5840.22909,0.03834
5838.30035,0.03683
5836.37160,0.03571
5834.44286,0.03473
5832.51412,0.03393
5830.58538,0.03380
5828.65664,0.03376
5826.72790,0.03312
5824.79916,0.03310
5822.87041,0.03459
5820.94167,0.03653
5819.01293,0.03804
5817.08419,0.03919
5815.15545,0.04078
5813.22671,0.04301
5811.29797,0.04468
5809.36922,0.04571
5807.44048,0.04716
5805.51174,0.04898
5803.58300,0.05082
5801.65426,0.05285
5799.72552,0.05437
5797.79678,0.05516
5795.86803,0.05665
5793.93929,0.05943
5792.01055,0.06253
5790.08181,0.06538
5788.15307,0.06807
5786.22433,0.07039
5784.29559,0.07245
5782.36684,0.07492
5780.43810,0.07764
5778.50936,0.07998
5776.58062,0.08228
5774.65188,0.08473
5772.72314,0.08624
5770.79440,0.08671
5768.86565,0.08761
5766.93691,0.08930
5765.00817,0.09078
5763.07943,0.09115
5761.15069,0.09068
5759.22195,0.09060
5757.29321,0.09104
5755.36446,0.09103
5753.43572,0.09007
5751.50698,0.08863
5749.57824,0.08725
5747.64950,0.08536
5745.72076,0.08250
5743.79202,0.07939
5741.86327,0.07648
5739.93453,0.07382
5738.00579,0.07202
5736.07705,0.07091
5734.14831,0.06951
5732.21957,0.06731
5730.29083,0.06462
5728.36208,0.06227
5726.43334,0.06016
5724.50460,0.05800
5722.57586,0.05628
5720.64712,0.05514
5718.71838,0.05460
5716.78964,0.05497
5714.86089,0.05573
5712.93215,0.05590
5711.00341,0.05533
5709.07467,0.05472
5707.14593,0.05462
5705.21719,0.05522
5703.28845,0.05641
5701.35970,0.05779
5699.43096,0.05909
5697.50222,0.06009
5695.57348,0.06065
5693.64474,0.06142
5691.71600,0.06312
5689.78726,0.06520
5687.85851,0.06690
5685.92977,0.06874
5684.00103,0.07090
5682.07229,0.07306
5680.14355,0.07585
5678.21481,0.07943
5676.28606,0.08291
5674.35732,0.08613
5672.42858,0.08905
5670.49984,0.09120
5668.57110,0.09341
5666.64236,0.09662
5664.71362,0.10017
5662.78487,0.10351
5660.85613,0.10709
5658.92739,0.11124
5656.99865,0.11512
5655.06991,0.11804
5653.14117,0.12088
5651.21243,0.12411
5649.28368,0.12720
5647.35494,0.12994
5645.42620,0.13260
5643.49746,0.13555
5641.56872,0.13887
5639.63998,0.14248
5637.71124,0.14589
5635.78249,0.14862
5633.85375,0.15097
5631.92501,0.15366
5629.99627,0.15707
5628.06753,0.16048
5626.13879,0.16312
5624.21005,0.16493
5622.28130,0.16628
5620.35256,0.16777
5618.42382,0.16945
5616.49508,0.17117
5614.56634,0.17284
5612.63760,0.17407
5610.70886,0.17490
5608.78011,0.17594
5606.85137,0.17727
5604.92263,0.17822
5602.99389,0.17864
5601.06515,0.17877
5599.13641,0.17879
5597.20767,0.17923
5595.27892,0.18021
5593.35018,0.18107
5591.42144,0.18153
5589.49270,0.18190
5587.56396,0.18251
5585.63522,0.18337
5583.70648,0.18412
5581.77773,0.18499
5579.84899,0.18660
5577.92025,0.18836
5575.99151,0.18952
5574.06277,0.19034
5572.13403,0.19137
5570.20529,0.19282
5568.27654,0.19455
5566.34780,0.19619
5564.41906,0.19701
5562.49032,0.19669
5560.56158,0.19633
5558.63284,0.19684
5556.70410,0.19782
5554.77535,0.19848
5552.84661,0.19880
5550.91787,0.19963
5548.98913,0.20136
5547.06039,0.20270
5545.13165,0.20295
5543.20291,0.20337
5541.27416,0.20451
5539.34542,0.20567
5537.41668,0.20678
5535.48794,0.20838
5533.55920,0.21016
5531.63046,0.21132
5529.70172,0.21208
5527.77297,0.21290
5525.84423,0.21302
5523.91549,0.21224
5521.98675,0.21239
5520.05801,0.21430
5518.12927,0.21627
5516.20053,0.21768
5514.27178,0.21917
5512.34304,0.22051
5510.41430,0.22131
5508.48556,0.22177
5506.55682,0.22235
5504.62808,0.22343
5502.69934,0.22494
5500.77059,0.22617
5498.84185,0.22670
5496.91311,0.22677
5494.98437,0.22654
5493.05563,0.22680
5491.12689,0.22818
5489.19815,0.22981
5487.26940,0.23113
5485.34066,0.23240
5483.41192,0.23323
5481.48318,0.23347
5479.55444,0.23410
5477.62570,0.23560
5475.69695,0.23763
5473.76821,0.23962
5471.83947,0.24100
5469.91073,0.24211
5467.98199,0.24331
5466.05325,0.24401
5464.12451,0.24407
5462.19576,0.24389
5460.26702,0.24394
5458.33828,0.24451
5456.40954,0.24500
5454.48080,0.24520
5452.55206,0.24566
5450.62332,0.24632
5448.69457,0.24707
5446.76583,0.24822
5444.83709,0.24958
5442.90835,0.25057
5440.97961,0.25162
5439.05087,0.25319
5437.12213,0.25429
5435.19338,0.25473
5433.26464,0.25554
5431.33590,0.25644
5429.40716,0.25714
5427.47842,0.25832
5425.54968,0.25951
5423.62094,0.25981
5421.69219,0.25972
5419.76345,0.26005
5417.83471,0.26032
5415.90597,0.25998
5413.97723,0.26005
5412.04849,0.26145
5410.11975,0.26343
5408.19100,0.26491
5406.26226,0.26600
5404.33352,0.26774
5402.40478,0.27067
5400.47604,0.27400
5398.54730,0.27652
5396.61856,0.27816
5394.68981,0.27990
5392.76107,0.28239
5390.83233,0.28552
5388.90359,0.28858
5386.97485,0.29116
5385.04611,0.29347
5383.11737,0.29521
5381.18862,0.29611
5379.25988,0.29660
5377.33114,0.29735
5375.40240,0.29886
5373.47366,0.30070
5371.54492,0.30223
5369.61618,0.30371
5367.68743,0.30534
5365.75869,0.30672
5363.82995,0.30769
5361.90121,0.30861
5359.97247,0.30983
5358.04373,0.31067
5356.11499,0.31040
5354.18624,0.30994
5352.25750,0.31053
5350.32876,0.31183
5348.40002,0.31266
5346.47128,0.31244
5344.54254,0.31222
5342.61380,0.31291
5340.68505,0.31281
5338.75631,0.31118
5336.82757,0.31020
5334.89883,0.31039
5332.97009,0.31012
5331.04135,0.30914
5329.11261,0.30784
5327.18386,0.30655
5325.25512,0.30586
5323.32638,0.30520
5321.39764,0.30364
5319.46890,0.30147
5317.54016,0.29920
5315.61142,0.29673
5313.68267,0.29357
5311.75393,0.29000
5309.82519,0.28666
5307.89645,0.28312
5305.96771,0.27883
5304.03897,0.27387
5302.11023,0.26850
5300.18148,0.26278
5298.25274,0.25661
5296.32400,0.25068
5294.39526,0.24572
5292.46652,0.24121
5290.53778,0.23672
5288.60904,0.23268
5286.68029,0.22907
5284.75155,0.22575
5282.82281,0.22262
5280.89407,0.21953
5278.96533,0.21683
5277.03659,0.21445
5275.10784,0.21196
5273.17910,0.20954
5271.25036,0.20724
5269.32162,0.20483
5267.39288,0.20230
5265.46414,0.19960
5263.53540,0.19654
5261.60665,0.19340
5259.67791,0.19070
5257.74917,0.18806
5255.82043,0.18521
5253.89169,0.18258
5251.96295,0.17994
5250.03421,0.17683
5248.10546,0.17374
5246.17672,0.17083
5244.24798,0.16767
5242.31924,0.16449
5240.39050,0.16161
5238.46176,0.15901
5236.53302,0.15691
5234.60427,0.15484
5232.67553,0.15195
5230.74679,0.14837
5228.81805,0.14495
5226.88931,0.14199
5224.96057,0.13920
5223.03183,0.13650
5221.10308,0.13378
5219.17434,0.13083
5217.24560,0.12794
5215.31686,0.12519
5213.38812,0.12212
5211.45938,0.11869
5209.53064,0.11536
5207.60189,0.11246
5205.67315,0.10980
5203.74441,0.10707
5201.81567,0.10439
5199.88693,0.10167
5197.95819,0.09845
5196.02945,0.09509
5194.10070,0.09255
5192.17196,0.09043
5190.24322,0.08794
5188.31448,0.08557
5186.38574,0.08369
5184.45700,0.08159
5182.52826,0.07910
5180.59951,0.07704
5178.67077,0.07560
5176.74203,0.07411
5174.81329,0.07211
5172.88455,0.07002
5170.95581,0.06856
5169.02707,0.06764
5167.09832,0.06666
5165.16958,0.06524
5163.24084,0.06356
5161.31210,0.06190
5159.38336,0.06046
5157.45462,0.05975
5155.52588,0.05959
5153.59713,0.05918
5151.66839,0.05810
5149.73965,0.05633
5147.81091,0.05440
5145.88217,0.05292
5143.95343,0.05210
5142.02469,0.05203
5140.09594,0.05235
5138.16720,0.05236
5136.23846,0.05195
5134.30972,0.05187
5132.38098,0.05251
5130.45224,0.05311
5128.52350,0.05301
5126.59475,0.05249
5124.66601,0.05199
5122.73727,0.05173
5120.80853,0.05203
5118.87979,0.05331
5116.95105,0.05486
5115.02231,0.05567
5113.09356,0.05609
5111.16482,0.05662
5109.23608,0.05691
5107.30734,0.05703
5105.37860,0.05752
5103.44986,0.05831
5101.52112,0.05914
5099.59237,0.06037
5097.66363,0.06188
5095.73489,0.06295
5093.80615,0.06367
5091.87741,0.06469
5089.94867,0.06609
5088.01993,0.06745
5086.09118,0.06860
5084.16244,0.06959
5082.23370,0.07056
5080.30496,0.07159
5078.37622,0.07263
5076.44748,0.07371
5074.51873,0.07499
5072.58999,0.07628
5070.66125,0.07728
5068.73251,0.07809
5066.80377,0.07879
5064.87503,0.07947
5062.94629,0.08067
5061.01754,0.08235
5059.08880,0.08378
5057.16006,0.08475
5055.23132,0.08563
5053.30258,0.08663
5051.37384,0.08786
5049.44510,0.08930
5047.51635,0.09053
5045.58761,0.09143
5043.65887,0.09243
5041.73013,0.09362
5039.80139,0.09432
5037.87265,0.09426
5035.94391,0.09426
5034.01516,0.09484
5032.08642,0.09556
5030.15768,0.09631
5028.22894,0.09718
5026.30020,0.09779
5024.37146,0.09778
5022.44272,0.09730
5020.51397,0.09699
5018.58523,0.09716
5016.65649,0.09703
5014.72775,0.09614
5012.79901,0.09497
5010.87027,0.09372
5008.94153,0.09229
5007.01278,0.09078
5005.08404,0.08891
5003.15530,0.08630
5001.22656,0.08347
4999.29782,0.08072
4997.36908,0.07746
4995.44034,0.07343
4993.51159,0.06912
4991.58285,0.06502
4989.65411,0.06090
4987.72537,0.05656
4985.79663,0.05248
4983.86789,0.04868
4981.93915,0.04487
4980.01040,0.04143
4978.08166,0.03851
4976.15292,0.03586
4974.22418,0.03356
4972.29544,0.03175
4970.36670,0.03053
4968.43796,0.03016
4966.50921,0.03013
4964.58047,0.02974
4962.65173,0.02926
4960.72299,0.02904
4958.79425,0.02932
4956.86551,0.03015
4954.93677,0.03103
4953.00802,0.03138
4951.07928,0.03121
4949.15054,0.03111
4947.22180,0.03151
4945.29306,0.03210
4943.36432,0.03217
4941.43558,0.03153
4939.50683,0.03089
4937.57809,0.03092
4935.64935,0.03119
4933.72061,0.03090
4931.79187,0.03043
4929.86313,0.03040
4927.93439,0.03053
4926.00564,0.03042
4924.07690,0.02988
4922.14816,0.02887
4920.21942,0.02769
4918.29068,0.02663
4916.36194,0.02548
4914.43320,0.02376
4912.50445,0.02174
4910.57571,0.01994
4908.64697,0.01804
4906.71823,0.01570
4904.78949,0.01324
4902.86075,0.01118
4900.93201,0.00975
4899.00326,0.00880
4897.07452,0.00795
4895.14578,0.00695
4893.21704,0.00580
4891.28830,0.00467
4889.35956,0.00397
4887.43081,0.00377
4885.50207,0.00372
4883.57333,0.00375
4881.64459,0.00370
4879.71585,0.00326
4877.78711,0.00229
4875.85837,0.00139
4873.92962,0.00110
4872.00088,0.00110
4870.07214,0.00109
4868.14340,0.00130
4866.21466,0.00169
4864.28592,0.00210
4862.35718,0.00263
4860.42843,0.00329
4858.49969,0.00398
4856.57095,0.00505
4854.64221,0.00645
4852.71347,0.00788
4850.78473,0.00971
4848.85599,0.01229
4846.92724,0.01509
4844.99850,0.01767
4843.06976,0.02037
4841.14102,0.02378
4839.21228,0.02798
4837.28354,0.03247
4835.35480,0.03681
4833.42605,0.04113
4831.49731,0.04546
4829.56857,0.04931
4827.63983,0.05236
4825.71109,0.05506
4823.78235,0.05816
4821.85361,0.06152
4819.92486,0.06420
4817.99612,0.06596
4816.06738,0.06743
4814.13864,0.06871
4812.20990,0.06930
4810.28116,0.06928
4808.35242,0.06915
4806.42367,0.06887
4804.49493,0.06817
4802.56619,0.06725
4800.63745,0.06627
4798.70871,0.06515
4796.77997,0.06402
4794.85123,0.06340
4792.92248,0.06339
4790.99374,0.06331
4789.06500,0.06296
4787.13626,0.06274
4785.20752,0.06266
4783.27878,0.06272
4781.35004,0.06304
4779.42129,0.06319
4777.49255,0.06264
4775.56381,0.06169
4773.63507,0.06102
4771.70633,0.06077
4769.77759,0.06076
4767.84885,0.06042
4765.92010,0.05933
4763.99136,0.05791
4762.06262,0.05669
4760.13388,0.05562
4758.20514,0.05458
4756.27640,0.05365
4754.34766,0.05285
4752.41891,0.05193
4750.49017,0.05068
4748.56143,0.04929
4746.63269,0.04770
4744.70395,0.04565
4742.77521,0.04367
4740.84647,0.04227
4738.91772,0.04127
4736.98898,0.04039
4735.06024,0.03934
4733.13150,0.03822
4731.20276,0.03705
4729.27402,0.03535
4727.34528,0.03333
4725.41653,0.03168
4723.48779,0.03033
4721.55905,0.02893
4719.63031,0.02748
4717.70157,0.02588
4715.77283,0.02395
4713.84409,0.02179
4711.91534,0.01984
4709.98660,0.01840
4708.05786,0.01735
4706.12912,0.01660
4704.20038,0.01594
4702.27164,0.01499
4700.34290,0.01397
4698.41415,0.01344
4696.48541,0.01332
4694.55667,0.01293
4692.62793,0.01217
4690.69919,0.01170
4688.77045,0.01155
4686.84170,0.01115
4684.91296,0.01049
4682.98422,0.01007
4681.05548,0.01033
4679.12674,0.01100
4677.19800,0.01133
4675.26926,0.01121
4673.34051,0.01111
4671.41177,0.01112
4669.48303,0.01106
4667.55429,0.01089
4665.62555,0.01058
4663.69681,0.01026
4661.76807,0.01018
4659.83932,0.01050
4657.91058,0.01112
4655.98184,0.01149
4654.05310,0.01129
4652.12436,0.01081
4650.19562,0.01016
4648.26688,0.00935
4646.33813,0.00876
4644.40939,0.00855
4642.48065,0.00838
4640.55191,0.00795
4638.62317,0.00740
4636.69443,0.00733
4634.76569,0.00757
4632.83694,0.00745
4630.90820,0.00694
4628.97946,0.00639
4627.05072,0.00588
4625.12198,0.00540
4623.19324,0.00518
4621.26450,0.00533
4619.33575,0.00530
4617.40701,0.00491
4615.47827,0.00460
4613.54953,0.00429
4611.62079,0.00378
4609.69205,0.00329
4607.76331,0.00290
4605.83456,0.00244
4603.90582,0.00210
4601.97708,0.00190
4600.04834,0.00170
4598.11960,0.00153
4596.19086,0.00153
4594.26212,0.00178
4592.33337,0.00188
4590.40463,0.00158
4588.47589,0.00123
4586.54715,0.00100
4584.61841,0.00075
4582.68967,0.00064
4580.76093,0.00075
4578.83218,0.00103
4576.90344,0.00120
4574.97470,0.00109
4573.04596,0.00089
4571.11722,0.00096
4569.18848,0.00133
4567.25974,0.00165
4565.33099,0.00163
4563.40225,0.00150
4561.47351,0.00150
4559.54477,0.00163
4557.61603,0.00178
4555.68729,0.00192
4553.75855,0.00214
4551.82980,0.00239
4549.90106,0.00227
4547.97232,0.00168
4546.04358,0.00122
4544.11484,0.00144
4542.18610,0.00187
4540.25736,0.00194
4538.32861,0.00166
4536.39987,0.00155
4534.47113,0.00199
4532.54239,0.00259
4530.61365,0.00278
4528.68491,0.00263
4526.75617,0.00263
4524.82742,0.00300
4522.89868,0.00344
4520.96994,0.00370
4519.04120,0.00370
4517.11246,0.00367
4515.18372,0.00384
4513.25498,0.00426
4511.32623,0.00466
4509.39749,0.00474
4507.46875,0.00480
4505.54001,0.00540
4503.61127,0.00624
4501.68253,0.00674
4499.75379,0.00679
4497.82504,0.00674
4495.89630,0.00687
4493.96756,0.00693
4492.03882,0.00678
4490.11008,0.00675
4488.18134,0.00705
4486.25259,0.00720
4484.32385,0.00678
4482.39511,0.00633
4480.46637,0.00658
4478.53763,0.00722
4476.60889,0.00738
4474.68015,0.00704
4472.75140,0.00662
4470.82266,0.00615
4468.89392,0.00596
4466.96518,0.00624
4465.03644,0.00659
4463.10770,0.00663
4461.17896,0.00628
4459.25021,0.00580
4457.32147,0.00554
4455.39273,0.00539
4453.46399,0.00516
4451.53525,0.00483
4449.60651,0.00449
4447.67777,0.00422
4445.74902,0.00399
4443.82028,0.00371
4441.89154,0.00320
4439.96280,0.00255
4438.03406,0.00210
4436.10532,0.00211
4434.17658,0.00234
4432.24783,0.00237
4430.31909,0.00212
4428.39035,0.00181
4426.46161,0.00145
4424.53287,0.00112
4422.60413,0.00110
4420.67539,0.00146
4418.74664,0.00164
4416.81790,0.00124
4414.88916,0.00087
4412.96042,0.00102
4411.03168,0.00098
4409.10294,0.00046
4407.17420,0.00002
4405.24545,0.00033
4403.31671,0.00058
4401.38797,0.00079
4399.45923,0.00059
4397.53049,0.00076
4395.60175,0.00083
4393.67301,0.00068
4391.74426,0.00032
4389.81552,0.00032
4387.88678,0.00056
4385.95804,0.00076
4384.02930,0.00072
4382.10056,0.00047
4380.17182,0.00024
4378.24307,0.00033
4376.31433,0.00054
4374.38559,0.00066
4372.45685,0.00070
4370.52811,0.00062
4368.59937,0.00031
4366.67063,0.00043
4364.74188,0.00058
4362.81314,0.00060
4360.88440,0.00040
4358.95566,0.00030
4357.02692,0.00051
4355.09818,0.00080
4353.16944,0.00082
4351.24069,0.00060
4349.31195,0.00045
4347.38321,0.00050
4345.45447,0.00029
4343.52573,0.00046
4341.59699,0.00058
4339.66825,0.00030
4337.73950,0.00020
4335.81076,0.00063
4333.88202,0.00084
4331.95328,0.00092
4330.02454,0.00092
4328.09580,0.00083
4326.16706,0.00046
4324.23831,0.00030
4322.30957,0.00025
4320.38083,0.00022
4318.45209,0.00012
4316.52335,0.00037
4314.59461,0.00076
4312.66587,0.00072
4310.73712,0.00034
4308.80838,0.00045
4306.87964,0.00059
4304.95090,0.00069
4303.02216,0.00056
4301.09342,0.00039
4299.16468,0.00032
4297.23593,0.00023
4295.30719,-0.00011
4293.37845,0.00021
4291.44971,0.00072
4289.52097,0.00089
4287.59223,0.00056
4285.66348,0.00039
4283.73474,0.00065
4281.80600,0.00065
4279.87726,0.00041
4277.94852,0.00020
4276.01978,0.00016
4274.09104,0.00034
4272.16229,0.00044
4270.23355,0.00034
4268.30481,0.00017
4266.37607,0.00041
4264.44733,0.00077
4262.51859,0.00082
4260.58985,0.00057
4258.66110,0.00031
4256.73236,0.00026
4254.80362,0.00034
4252.87488,0.00022
4250.94614,0.00045
4249.01740,0.00066
4247.08866,0.00059
4245.15991,0.00033
4243.23117,0.00054
4241.30243,0.00057
4239.37369,0.00054
4237.44495,0.00058
4235.51621,0.00071
4233.58747,0.00062
4231.65872,0.00055
4229.72998,0.00037
4227.80124,0.00036
4225.87250,0.00021
4223.94376,0.00032
4222.01502,0.00047
4220.08628,0.00066
4218.15753,0.00078
4216.22879,0.00071
4214.30005,0.00021
4212.37131,0.00023
4210.44257,0.00013
4208.51383,0.00033
4206.58509,0.00078
4204.65634,0.00096
4202.72760,0.00071
4200.79886,0.00044
4198.87012,0.00034
4196.94138,0.00056
4195.01264,0.00071
4193.08390,0.00066
4191.15515,0.00060
4189.22641,0.00045
4187.29767,0.00042
4185.36893,0.00051
4183.44019,0.00064
4181.51145,0.00054
4179.58271,0.00065
4177.65396,0.00096
4175.72522,0.00081
4173.79648,0.00035
4171.86774,0.00017
4169.93900,0.00024
4168.01026,0.00029
4166.08152,0.00035
4164.15277,0.00014
4162.22403,0.00021
4160.29529,0.00031
4158.36655,0.00036
4156.43781,0.00035
4154.50907,0.00038
4152.58033,0.00039
4150.65158,0.00050
4148.72284,0.00077
4146.79410,0.00077
4144.86536,0.00060
4142.93662,0.00045
4141.00788,0.00047
4139.07914,0.00050
4137.15039,0.00026
4135.22165,0.00013
4133.29291,0.00019
4131.36417,0.00021
4129.43543,0.00025
4127.50669,0.00038
4125.57795,0.00038
4123.64920,0.00028
4121.72046,0.00035
4119.79172,0.00047
4117.86298,0.00057
4115.93424,0.00065
4114.00550,0.00047
4112.07676,0.00037
4110.14801,0.00028
4108.21927,0.00047
4106.29053,0.00054
4104.36179,0.00048
4102.43305,0.00032
4100.50431,0.00033
4098.57557,0.00023
4096.64682,0.00037
4094.71808,0.00068
4092.78934,0.00089
4090.86060,0.00065
4088.93186,0.00022
4087.00312,0.00005
4085.07437,0.00037
4083.14563,0.00057
4081.21689,0.00052
4079.28815,0.00039
4077.35941,0.00029
4075.43067,0.00022
4073.50193,0.00021
4071.57318,0.00031
4069.64444,0.00054
4067.71570,0.00063
4065.78696,0.00058
4063.85822,0.00050
4061.92948,0.00029
4060.00074,0.00005
4058.07199,0.00029
4056.14325,0.00043
4054.21451,0.00041
4052.28577,0.00024
4050.35703,0.00017
4048.42829,0.00027
4046.49955,0.00032
4044.57080,0.00025
4042.64206,0.00058
4040.71332,0.00020
4038.78458,-0.00004
4036.85584,0.00021
4034.92710,0.00059
4032.99836,0.00053
4031.06961,0.00030
4029.14087,0.00003
4027.21213,0.00049
4025.28339,0.00089
4023.35465,0.00083
4021.42591,0.00043
4019.49717,0.00041
4017.56842,0.00050
4015.63968,0.00063
4013.71094,0.00058
4011.78220,0.00051
4009.85346,0.00031
4007.92472,0.00026
4005.99598,0.00056
4004.06723,0.00061
4002.13849,0.00045
4000.20975,0.00045
3998.28101,0.00061
3996.35227,0.00064
3994.42353,0.00032
3992.49479,0.00031
3990.56604,0.00038
3988.63730,0.00052
3986.70856,0.00052
3984.77982,0.00036
3982.85108,0.00029
3980.92234,0.00043
3978.99360,0.00038
3977.06485,0.00034
3975.13611,0.00046
3973.20737,0.00051
3971.27863,0.00032
3969.34989,0.00030
3967.42115,0.00037
3965.49241,0.00058
3963.56366,0.00080
3961.63492,0.00075
3959.70618,0.00078
3957.77744,0.00087
3955.84870,0.00061
3953.91996,0.00023
3951.99122,0.00016
3950.06247,0.00040
3948.13373,0.00058
3946.20499,0.00069
3944.27625,0.00068
3942.34751,0.00072
3940.41877,0.00100
3938.49003,0.00123
3936.56128,0.00106
3934.63254,0.00083
3932.70380,0.00085
3930.77506,0.00086
3928.84632,0.00073
3926.91758,0.00085
3924.98884,0.00108
3923.06009,0.00118
3921.13135,0.00124
3919.20261,0.00131
3917.27387,0.00120
3915.34513,0.00112
3913.41639,0.00122
3911.48765,0.00141
3909.55890,0.00163
3907.63016,0.00194
3905.70142,0.00224
3903.77268,0.00238
3901.84394,0.00236
3899.91520,0.00234
3897.98646,0.00235
3896.05771,0.00247
3894.12897,0.00266
3892.20023,0.00273
3890.27149,0.00255
3888.34275,0.00226
3886.41401,0.00221
3884.48526,0.00258
3882.55652,0.00301
3880.62778,0.00328
3878.69904,0.00347
3876.77030,0.00364
3874.84156,0.00369
3872.91282,0.00369
3870.98407,0.00385
3869.05533,0.00400
3867.12659,0.00386
3865.19785,0.00365
3863.26911,0.00367
3861.34037,0.00380
3859.41163,0.00384
3857.48288,0.00366
3855.55414,0.00319
3853.62540,0.00265
3851.69666,0.00233
3849.76792,0.00217
3847.83918,0.00209
3845.91044,0.00208
3843.98169,0.00218
3842.05295,0.00242
3840.12421,0.00249
3838.19547,0.00238
3836.26673,0.00244
3834.33799,0.00251
3832.40925,0.00239
3830.48050,0.00246
3828.55176,0.00281
3826.62302,0.00306
3824.69428,0.00299
3822.76554,0.00290
3820.83680,0.00298
3818.90806,0.00308
3816.97931,0.00306
3815.05057,0.00296
3813.12183,0.00303
3811.19309,0.00329
3809.26435,0.00347
3807.33561,0.00356
3805.40687,0.00377
3803.47812,0.00399
3801.54938,0.00408
3799.62064,0.00408
3797.69190,0.00420
3795.76316,0.00447
3793.83442,0.00464
3791.90568,0.00457
3789.97693,0.00434
3788.04819,0.00413
3786.11945,0.00427
3784.19071,0.00479
3782.26197,0.00524
3780.33323,0.00538
3778.40449,0.00538
3776.47574,0.00537
3774.54700,0.00530
3772.61826,0.00518
3770.68952,0.00516
3768.76078,0.00527
3766.83204,0.00537
3764.90330,0.00532
3762.97455,0.00532
3761.04581,0.00548
3759.11707,0.00543
3757.18833,0.00492
3755.25959,0.00434
3753.33085,0.00417
3751.40211,0.00437
3749.47336,0.00454
3747.54462,0.00449
3745.61588,0.00445
3743.68714,0.00443
3741.75840,0.00426
3739.82966,0.00409
3737.90092,0.00386
3735.97217,0.00336
3734.04343,0.00297
3732.11469,0.00293
3730.18595,0.00292
3728.25721,0.00285
3726.32847,0.00305
3724.39973,0.00340
3722.47098,0.00340
3720.54224,0.00304
3718.61350,0.00273
3716.68476,0.00267
3714.75602,0.00267
3712.82728,0.00253
3710.89854,0.00225
3708.96979,0.00209
3707.04105,0.00219
3705.11231,0.00217
3703.18357,0.00170
3701.25483,0.00121
3699.32609,0.00113
3697.39735,0.00120
3695.46860,0.00113
3693.53986,0.00090
3691.61112,0.00048
3689.68238,0.00021
3687.75364,0.00028
3685.82490,0.00030
3683.89615,0.00040
3681.96741,0.00062
3680.03867,0.00054
3678.10993,0.00053
3676.18119,0.00057
3674.25245,0.00037
3672.32371,0.00007
3670.39496,-0.00000
3668.46622,0.00041
3666.53748,0.00057
3664.60874,0.00034
3662.68000,0.00024
3660.75126,0.00038
3658.82252,0.00044
3656.89377,0.00050
3654.96503,0.00051
3653.03629,0.00059
3651.10755,0.00050
3649.17881,0.00039
3647.25007,0.00039
3645.32133,0.00024
3643.39258,0.00007
3641.46384,0.00016
3639.53510,0.00027
3637.60636,0.00038
3635.67762,0.00047
3633.74888,0.00045
3631.82014,0.00049
3629.89139,0.00057
3627.96265,0.00052
3626.03391,0.00040
3624.10517,0.00021
3622.17643,0.00008
3620.24769,0.00007
3618.31895,0.00030
3616.39020,0.00015
3614.46146,-0.00015
3612.53272,-0.00017
3610.60398,0.00023
3608.67524,0.00030
3606.74650,0.00021
3604.81776,0.00032
3602.88901,0.00048
3600.96027,0.00069
3599.03153,0.00090
3597.10279,0.00091
3595.17405,0.00061
3593.24531,0.00033
3591.31657,0.00027
3589.38782,0.00024
3587.45908,0.00016
3585.53034,0.00020
3583.60160,0.00040
3581.67286,0.00052
3579.74412,0.00079
3577.81538,0.00090
3575.88663,0.00070
3573.95789,0.00058
3572.02915,0.00081
3570.10041,0.00097
3568.17167,0.00085
3566.24293,0.00053
3564.31419,0.00015
3562.38544,0.00006
3560.45670,0.00015
3558.52796,0.00035
3556.59922,0.00059
3554.67048,0.00073
3552.74174,0.00070
3550.81300,0.00042
3548.88425,0.00005
3546.95551,-0.00003
3545.02677,0.00028
3543.09803,0.00052
3541.16929,0.00033
3539.24055,0.00023
3537.31181,0.00048
3535.38306,0.00056
3533.45432,0.00055
3531.52558,0.00062
3529.59684,0.00045
3527.66810,0.00017
3525.73936,0.00014
3523.81062,0.00036
3521.88187,0.00048
3519.95313,0.00052
3518.02439,0.00040
3516.09565,0.00023
3514.16691,0.00027
3512.23817,0.00057
3510.30943,0.00072
3508.38068,0.00045
3506.45194,0.00018
3504.52320,-0.00013
3502.59446,0.00016
3500.66572,0.00063
3498.73698,0.00085
3496.80824,0.00059
3494.87949,0.00027
3492.95075,0.00041
3491.02201,0.00082
3489.09327,0.00091
3487.16453,0.00076
3485.23579,0.00052
3483.30704,0.00033
3481.37830,0.00046
3479.44956,0.00063
3477.52082,0.00049
3475.59208,0.00011
3473.66334,0.00009
3471.73460,0.00060
3469.80585,0.00057
3467.87711,0.00039
3465.94837,0.00054
3464.01963,0.00058
3462.09089,0.00043
3460.16215,0.00038
3458.23341,0.00034
3456.30466,0.00012
3454.37592,0.00017
3452.44718,0.00034
3450.51844,0.00041
3448.58970,0.00041
3446.66096,0.00028
3444.73222,0.00033
3442.80347,0.00006
3440.87473,0.00082
3438.94599,0.00097
3437.01725,0.00060
3435.08851,0.00040
3433.15977,0.00036
3431.23103,0.00023
3429.30228,0.00017
3427.37354,0.00026
3425.44480,0.00029
3423.51606,0.00023
3421.58732,0.00008
3419.65858,0.00014
3417.72984,0.00039
3415.80109,0.00053
3413.87235,0.00047
3411.94361,0.00036
3410.01487,0.00055
3408.08613,0.00053
3406.15739,0.00020
3404.22865,0.00019
3402.29990,0.00048
3400.37116,0.00032
3398.44242,0.00049
3396.51368,0.00084
3394.58494,0.00100
3392.65620,0.00092
3390.72746,0.00085
3388.79871,0.00073
3386.86997,0.00055
3384.94123,0.00055
3383.01249,0.00062
3381.08375,0.00055
3379.15501,0.00045
3377.22627,0.00038
3375.29752,0.00037
3373.36878,0.00032
3371.44004,0.00047
3369.51130,0.00043
3367.58256,0.00036
3365.65382,0.00039
3363.72508,0.00038
3361.79633,0.00043
3359.86759,0.00066
3357.93885,0.00078
3356.01011,0.00053
3354.08137,0.00021
3352.15263,0.00016
3350.22389,0.00022
3348.29514,0.00038
3346.36640,0.00039
3344.43766,0.00037
3342.50892,0.00033
3340.58018,0.00049
3338.65144,0.00064
3336.72270,0.00082
3334.79395,0.00076
3332.86521,0.00062
3330.93647,0.00054
3329.00773,0.00041
3327.07899,0.00048
3325.15025,0.00098
3323.22151,0.00105
3321.29276,0.00088
3319.36402,0.00069
3317.43528,0.00061
3315.50654,0.00040
3313.57780,0.00033
3311.64906,0.00054
3309.72032,0.00095
3307.79157,0.00112
3305.86283,0.00083
3303.93409,0.00039
3302.00535,0.00023
3300.07661,0.00042
3298.14787,0.00067
3296.21913,0.00072
3294.29038,0.00050
3292.36164,0.00003
3290.43290,-0.00005
3288.50416,0.00039
3286.57542,0.00101
3284.64668,0.00125
3282.71793,0.00101
3280.78919,0.00051
3278.86045,0.00011
3276.93171,0.00024
3275.00297,0.00054
3273.07423,0.00065
3271.14549,0.00082
3269.21674,0.00055
3267.28800,0.00042
3265.35926,0.00097
3263.43052,0.00106
3261.50178,0.00078
3259.57304,0.00052
3257.64430,0.00025
3255.71555,0.00016
3253.78681,0.00024
3251.85807,0.00050
3249.92933,0.00050
3248.00059,0.00042
3246.07185,0.00049
3244.14311,0.00063
3242.21436,0.00055
3240.28562,0.00039
3238.35688,0.00030
3236.42814,0.00035
3234.49940,0.00045
3232.57066,0.00074
3230.64192,0.00072
3228.71317,0.00077
3226.78443,0.00081
3224.85569,0.00053
3222.92695,0.00046
3220.99821,0.00069
3219.06947,0.00066
3217.14073,0.00049
3215.21198,0.00034
3213.28324,0.00079
3211.35450,0.00078
3209.42576,0.00075
3207.49702,0.00078
3205.56828,0.00061
3203.63954,0.00063
3201.71079,0.00076
3199.78205,0.00063
3197.85331,0.00064
3195.92457,0.00067
3193.99583,0.00024
3192.06709,0.00003
3190.13835,0.00058
3188.20960,0.00068
3186.28086,0.00071
3184.35212,0.00059
3182.42338,0.00019
3180.49464,-0.00006
3178.56590,0.00040
3176.63716,0.00070
3174.70841,0.00058
3172.77967,0.00031
3170.85093,0.00021
3168.92219,0.00034
3166.99345,0.00061
3165.06471,0.00055
3163.13597,0.00067
3161.20722,0.00090
3159.27848,0.00082
3157.34974,0.00035
3155.42100,-0.00003
3153.49226,0.00014
3151.56352,0.00011
3149.63478,0.00027
3147.70603,0.00058
3145.77729,0.00078
3143.84855,0.00069
3141.91981,0.00008
3139.99107,0.00033
3138.06233,0.00066
3136.13359,0.00055
3134.20484,0.00043
3132.27610,0.00049
3130.34736,0.00023
3128.41862,0.00019
3126.48988,0.00028
3124.56114,0.00035
3122.63240,0.00038
3120.70365,0.00053
3118.77491,0.00058
3116.84617,0.00040
3114.91743,0.00026
3112.98869,0.00013
3111.05995,0.00014
3109.13121,0.00022
3107.20246,0.00000
3105.27372,0.00011
3103.34498,0.00043
3101.41624,0.00056
3099.48750,0.00047
3097.55876,0.00040
3095.63002,0.00034
3093.70127,0.00036
3091.77253,0.00046
3089.84379,0.00058
3087.91505,0.00057
3085.98631,0.00041
3084.05757,0.00021
3082.12882,0.00036
3080.20008,0.00046
3078.27134,0.00059
3076.34260,0.00022
3074.41386,0.00002
3072.48512,0.00015
3070.55638,0.00031
3068.62763,0.00037
3066.69889,0.00042
3064.77015,0.00036
3062.84141,0.00004
3060.91267,0.00004
3058.98393,0.00029
3057.05519,0.00049
3055.12644,0.00041
3053.19770,0.00036
3051.26896,0.00035
3049.34022,0.00018
3047.41148,0.00016
3045.48274,0.00026
3043.55400,0.00036
3041.62525,0.00024
3039.69651,0.00016
3037.76777,0.00015
3035.83903,0.00024
3033.91029,0.00032
3031.98155,0.00032
3030.05281,0.00040
3028.12406,0.00049
3026.19532,0.00042
3024.26658,0.00035
3022.33784,0.00029
3020.40910,0.00021
3018.48036,0.00009
3016.55162,-0.00006
3014.62287,0.00007
3012.69413,0.00035
3010.76539,0.00039
3008.83665,0.00030
3006.90791,0.00018
3004.97917,0.00008
3003.05043,0.00013
3001.12168,0.00034
2999.19294,0.00045
2997.26420,0.00042
2995.33546,0.00040
2993.40672,0.00036
2991.47798,0.00031
2989.54924,0.00034
2987.62049,0.00032
2985.69175,0.00028
2983.76301,0.00042
2981.83427,0.00050
2979.90553,0.00021
2977.97679,-0.00012
2976.04805,-0.00004
2974.11930,0.00040
2972.19056,0.00061
2970.26182,0.00045
2968.33308,0.00034
2966.40434,0.00042
2964.47560,0.00044
2962.54686,0.00028
2960.61811,0.00022
2958.68937,0.00033
2956.76063,0.00028
2954.83189,0.00006
2952.90315,-0.00007
2950.97441,0.00011
2949.04567,0.00036
2947.11692,0.00041
2945.18818,0.00032
2943.25944,0.00033
2941.33070,0.00038
2939.40196,0.00039
2937.47322,0.00037
2935.54448,0.00029
2933.61573,0.00017
2931.68699,0.00016
2929.75825,0.00018
2927.82951,0.00028
2925.90077,0.00030
2923.97203,0.00026
2922.04329,0.00022
2920.11454,0.00028
2918.18580,0.00048
2916.25706,0.00066
2914.32832,0.00059
2912.39958,0.00038
2910.47084,0.00028
2908.54210,0.00024
2906.61335,0.00032
2904.68461,0.00062
2902.75587,0.00057
2900.82713,0.00033
2898.89839,0.00035
2896.96965,0.00050
2895.04091,0.00043
2893.11216,0.00043
2891.18342,0.00044
2889.25468,0.00039
2887.32594,0.00027
2885.39720,0.00016
2883.46846,0.00020
2881.53971,0.00022
2879.61097,0.00024
2877.68223,0.00024
2875.75349,0.00040
2873.82475,0.00049
2871.89601,0.00033
2869.96727,0.00024
2868.03852,0.00025
2866.10978,0.00029
2864.18104,0.00026
2862.25230,0.00028
2860.32356,0.00032
2858.39482,0.00026
2856.46608,0.00027
2854.53733,0.00041
2852.60859,0.00039
2850.67985,0.00023
2848.75111,0.00019
2846.82237,0.00031
2844.89363,0.00038
2842.96489,0.00031
2841.03614,0.00019
2839.10740,0.00008
2837.17866,0.00014
2835.24992,0.00014
2833.32118,0.00023
2831.39244,0.00045
2829.46370,0.00057
2827.53495,0.00047
2825.60621,0.00027
2823.67747,0.00008
2821.74873,0.00010
2819.81999,0.00030
2817.89125,0.00035
2815.96251,0.00029
2814.03376,0.00033
2812.10502,0.00061
2810.17628,0.00049
2808.24754,0.00024
2806.31880,0.00026
2804.39006,0.00034
2802.46132,0.00017
2800.53257,0.00031
2798.60383,0.00030
2796.67509,0.00035
2794.74635,0.00030
2792.81761,0.00020
2790.88887,0.00015
2788.96013,0.00025
2787.03138,0.00029
2785.10264,0.00023
2783.17390,0.00025
2781.24516,0.00029
2779.31642,0.00026
2777.38768,0.00022
2775.45894,0.00021
2773.53019,0.00026
2771.60145,0.00012
2769.67271,0.00009
2767.74397,0.00019
2765.81523,0.00027
2763.88649,0.00037
2761.95775,0.00042
2760.02900,0.00037
2758.10026,0.00040
2756.17152,0.00049
2754.24278,0.00048
2752.31404,0.00038
2750.38530,0.00021
2748.45656,0.00006
2746.52781,0.00011
2744.59907,0.00023
2742.67033,0.00022
2740.74159,0.00009
2738.81285,0.00005
2736.88411,0.00008
2734.95537,0.00009
2733.02662,0.00015
2731.09788,0.00025
2729.16914,0.00023
2727.24040,0.00015
2725.31166,0.00018
2723.38292,0.00035
2721.45418,0.00038
2719.52543,0.00031
2717.59669,0.00026
2715.66795,0.00022
2713.73921,0.00022
2711.81047,0.00029
2709.88173,0.00035
2707.95299,0.00035
2706.02424,0.00040
2704.09550,0.00046
2702.16676,0.00035
2700.23802,0.00021
2698.30928,0.00007
2696.38054,0.00006
2694.45180,0.00014
2692.52305,0.00010
2690.59431,0.00017
2688.66557,0.00026
2686.73683,0.00009
2684.80809,0.00006
2682.87935,0.00032
2680.95060,0.00058
2679.02186,0.00047
2677.09312,0.00025
2675.16438,0.00021
2673.23564,0.00041
2671.30690,0.00061
2669.37816,0.00056
2667.44941,0.00030
2665.52067,0.00019
2663.59193,0.00030
2661.66319,0.00031
2659.73445,0.00009
2657.80571,0.00021
2655.87697,0.00037
2653.94822,0.00043
2652.01948,0.00037
2650.09074,0.00040
2648.16200,0.00058
2646.23326,0.00066
2644.30452,0.00050
2642.37578,0.00029
2640.44703,0.00022
2638.51829,0.00024
2636.58955,0.00025
2634.66081,0.00026
2632.73207,0.00030
2630.80333,0.00039
2628.87459,0.00036
2626.94584,0.00034
2625.01710,0.00045
2623.08836,0.00057
2621.15962,0.00057
2619.23088,0.00047
2617.30214,0.00034
2615.37340,0.00024
2613.44465,0.00025
2611.51591,0.00028
2609.58717,0.00025
2607.65843,0.00024
2605.72969,0.00018
2603.80095,0.00014
2601.87221,0.00011
2599.94346,0.00014
2598.01472,0.00014
2596.08598,0.00018
2594.15724,0.00020
2592.22850,0.00023
2590.29976,0.00027
2588.37102,0.00026
2586.44227,0.00015
2584.51353,0.00022
2582.58479,0.00028
2580.65605,0.00024
2578.72731,0.00030
2576.79857,0.00044
2574.86983,0.00042
2572.94108,0.00022
2571.01234,0.00004
2569.08360,0.00013
2567.15486,0.00019
2565.22612,0.00025
2563.29738,0.00029
2561.36864,0.00034
2559.43989,0.00027
2557.51115,0.00023
2555.58241,0.00023
2553.65367,0.00017
2551.72493,0.00002
2549.79619,0.00001
2547.86745,0.00013
2545.93870,0.00030
2544.00996,0.00031
2542.08122,0.00024
2540.15248,0.00023
2538.22374,0.00015
2536.29500,0.00007
2534.36626,0.00030
2532.43751,0.00020
2530.50877,0.00004
2528.58003,-0.00000
2526.65129,0.00025
2524.72255,0.00039
2522.79381,0.00045
2520.86507,0.00044
2518.93632,0.00033
2517.00758,0.00014
2515.07884,0.00009
2513.15010,0.00019
2511.22136,0.00019
2509.29262,0.00018
2507.36388,0.00027
2505.43513,0.00046
2503.50639,0.00065
2501.57765,0.00069
2499.64891,0.00049
2497.72017,0.00023
2495.79143,0.00013
2493.86269,0.00017
2491.93394,0.00023
2490.00520,0.00008
2488.07646,0.00017
2486.14772,0.00030
2484.21898,0.00019
2482.29024,0.00013
2480.36149,0.00025
2478.43275,0.00026
2476.50401,0.00021
2474.57527,0.00017
2472.64653,0.00036
2470.71779,0.00051
2468.78905,0.00038
2466.86030,0.00038
2464.93156,0.00049
2463.00282,0.00031
2461.07408,0.00029
2459.14534,0.00032
2457.21660,0.00038
2455.28786,0.00041
2453.35911,0.00033
2451.43037,0.00033
2449.50163,0.00031
2447.57289,0.00020
2445.64415,0.00017
2443.71541,0.00020
2441.78667,0.00020
2439.85792,0.00013
2437.92918,0.00016
2436.00044,0.00028
2434.07170,0.00035
2432.14296,0.00022
2430.21422,0.00031
2428.28548,0.00029
2426.35673,0.00016
2424.42799,0.00011
2422.49925,0.00034
2420.57051,0.00049
2418.64177,0.00047
2416.71303,0.00031
2414.78429,0.00010
2412.85554,0.00007
2410.92680,-0.00002
2408.99806,0.00008
2407.06932,0.00021
2405.14058,0.00023
2403.21184,0.00018
2401.28310,0.00029
2399.35435,0.00038
2397.42561,0.00027
2395.49687,0.00019
2393.56813,0.00024
2391.63939,0.00029
2389.71065,0.00020
2387.78191,0.00015
2385.85316,0.00014
2383.92442,0.00014
2381.99568,0.00023
2380.06694,0.00021
2378.13820,0.00014
2376.20946,0.00032
2374.28072,0.00030
2372.35197,0.00014
2370.42323,0.00020
2368.49449,0.00035
2366.56575,0.00041
2364.63701,0.00041
2362.70827,0.00033
2360.77953,0.00022
2358.85078,0.00013
2356.92204,0.00015
2354.99330,0.00032
2353.06456,0.00042
2351.13582,0.00025
2349.20708,0.00003
2347.27834,0.00006
2345.34959,0.00027
2343.42085,0.00034
2341.49211,0.00025
2339.56337,0.00010
2337.63463,-0.00001
2335.70589,-0.00000
2333.77715,0.00017
2331.84840,0.00026
2329.91966,0.00033
2327.99092,0.00034
2326.06218,0.00025
2324.13344,0.00010
2322.20470,0.00008
2320.27596,0.00021
2318.34721,0.00030
2316.41847,0.00034
2314.48973,0.00040
2312.56099,0.00048
2310.63225,0.00041
2308.70351,0.00032
2306.77477,0.00034
2304.84602,0.00031
2302.91728,0.00034
2300.98854,0.00048
2299.05980,0.00047
2297.13106,0.00034
2295.20232,0.00037
2293.27357,0.00036
2291.34483,0.00021
2289.41609,0.00014
2287.48735,0.00012
2285.55861,0.00004
2283.62987,0.00006
2281.70113,0.00017
2279.77238,0.00028
2277.84364,0.00035
2275.91490,0.00037
2273.98616,0.00029
2272.05742,0.00013
2270.12868,0.00003
2268.19994,0.00002
2266.27119,0.00008
2264.34245,0.00022
2262.41371,0.00030
2260.48497,0.00030
2258.55623,0.00026
2256.62749,0.00023
2254.69875,0.00026
2252.77000,0.00024
2250.84126,0.00013
2248.91252,0.00007
2246.98378,0.00002
2245.05504,0.00016
2243.12630,0.00020
2241.19756,0.00026
2239.26881,0.00026
2237.34007,0.00019
2235.41133,0.00006
2233.48259,0.00002
2231.55385,0.00005
2229.62511,0.00014
2227.69637,0.00026
2225.76762,0.00041
2223.83888,0.00043
2221.91014,0.00030
2219.98140,0.00015
2218.05266,0.00010
2216.12392,0.00019
2214.19518,0.00033
2212.26643,0.00040
2210.33769,0.00040
2208.40895,0.00034
2206.48021,0.00027
2204.55147,0.00030
2202.62273,0.00035
2200.69399,0.00028
2198.76524,0.00021
2196.83650,-0.00007
2194.90776,-0.00002
2192.97902,0.00006
2191.05028,0.00023
2189.12154,0.00018
2187.19280,0.00010
2185.26405,0.00014
2183.33531,0.00011
2181.40657,0.00007
2179.47783,0.00019
2177.54909,0.00032
2175.62035,0.00033
2173.69161,0.00025
2171.76286,0.00019
2169.83412,0.00014
2167.90538,0.00011
2165.97664,0.00017
2164.04790,0.00029
2162.11916,0.00026
2160.19042,0.00021
2158.26167,0.00028
2156.33293,0.00033
2154.40419,0.00024
2152.47545,0.00015
2150.54671,0.00007
2148.61797,0.00021
2146.68923,0.00035
2144.76048,0.00027
2142.83174,0.00014
2140.90300,0.00018
2138.97426,0.00021
2137.04552,0.00021
2135.11678,0.00017
2133.18804,0.00022
2131.25929,0.00028
2129.33055,0.00026
2127.40181,0.00024
2125.47307,0.00027
2123.54433,0.00026
2121.61559,0.00026
2119.68685,0.00031
2117.75810,0.00040
2115.82936,0.00038
2113.90062,0.00032
2111.97188,0.00029
2110.04314,0.00021
2108.11440,0.00014
2106.18566,0.00026
2104.25691,0.00041
2102.32817,0.00034
2100.39943,0.00020
2098.47069,0.00044
2096.54195,0.00047
2094.61321,0.00047
2092.68446,0.00045
2090.75572,0.00030
2088.82698,0.00008
2086.89824,0.00014
2084.96950,0.00021
2083.04076,0.00017
2081.11202,0.00018
2079.18327,0.00026
2077.25453,0.00024
2075.32579,0.00028
2073.39705,0.00033
2071.46831,0.00028
2069.53957,0.00022
2067.61083,0.00021
2065.68208,0.00021
2063.75334,0.00024
2061.82460,0.00031
2059.89586,0.00038
2057.96712,0.00034
2056.03838,0.00023
2054.10964,0.00022
2052.18089,0.00021
2050.25215,0.00016
2048.32341,0.00011
2046.39467,0.00003
2044.46593,0.00001
2042.53719,0.00006
2040.60845,0.00012
2038.67970,0.00012
2036.75096,0.00013
2034.82222,0.00014
2032.89348,0.00018
2030.96474,0.00019
2029.03600,0.00031
2027.10726,0.00038
2025.17851,0.00036
2023.24977,0.00027
2021.32103,0.00024
2019.39229,0.00031
2017.46355,0.00023
2015.53481,0.00005
2013.60607,0.00011
2011.67732,0.00017
2009.74858,0.00014
2007.81984,0.00009
2005.89110,0.00020
2003.96236,0.00008
2002.03362,0.00003
2000.10488,0.00028
1998.17613,0.00042
1996.24739,0.00021
1994.31865,0.00019
1992.38991,0.00029
1990.46117,0.00033
1988.53243,0.00030
1986.60369,0.00019
1984.67494,0.00010
1982.74620,0.00016
1980.81746,0.00022
1978.88872,0.00025
1976.95998,0.00017
1975.03124,0.00027
1973.10250,0.00045
1971.17375,0.00055
1969.24501,0.00047
1967.31627,0.00026
1965.38753,0.00015
1963.45879,0.00013
1961.53005,0.00021
1959.60131,0.00031
1957.67256,0.00024
1955.74382,0.00017
1953.81508,0.00020
1951.88634,0.00024
1949.95760,0.00023
1948.02886,0.00025
1946.10012,0.00028
1944.17137,0.00038
1942.24263,0.00043
1940.31389,0.00039
1938.38515,0.00028
1936.45641,0.00017
1934.52767,0.00008
1932.59893,0.00006
1930.67018,0.00013
1928.74144,0.00023
1926.81270,0.00027
1924.88396,0.00035
1922.95522,0.00039
1921.02648,0.00026
1919.09774,0.00018
1917.16899,0.00015
1915.24025,0.00009
1913.31151,0.00011
1911.38277,0.00012
1909.45403,0.00019
1907.52529,0.00033
1905.59655,0.00032
1903.66780,0.00009
1901.73906,-0.00007
1899.81032,0.00003
1897.88158,0.00018
1895.95284,0.00016
1894.02410,0.00012
1892.09535,0.00020
1890.16661,0.00015
1888.23787,0.00005
1886.30913,0.00011
1884.38039,0.00013
1882.45165,0.00022
1880.52291,0.00049
1878.59416,0.00064
1876.66542,0.00048
1874.73668,0.00025
1872.80794,0.00014
1870.87920,0.00004
1868.95046,0.00002
1867.02172,0.00008
1865.09297,0.00017
1863.16423,0.00024
1861.23549,0.00020
1859.30675,0.00009
1857.37801,0.00012
1855.44927,0.00020
1853.52053,0.00018
1851.59178,0.00012
1849.66304,0.00004
1847.73430,0.00006
1845.80556,0.00025
1843.87682,0.00035
1841.94808,0.00031
1840.01934,0.00026
1838.09059,0.00019
1836.16185,0.00018
1834.23311,0.00022
1832.30437,0.00021
1830.37563,0.00009
1828.44689,0.00008
1826.51815,0.00007
1824.58940,0.00012
1822.66066,0.00023
1820.73192,0.00030
1818.80318,0.00031
1816.87444,0.00027
1814.94570,0.00007
1813.01696,0.00013
1811.08821,0.00023
1809.15947,0.00027
1807.23073,0.00004
1805.30199,0.00005
1803.37325,0.00012
1801.44451,0.00021
1799.51577,0.00027
1797.58702,0.00018
1795.65828,0.00009
1793.72954,0.00003
1791.80080,0.00015
1789.87206,0.00040
1787.94332,0.00030
1786.01458,0.00015
1784.08583,0.00015
1782.15709,0.00021
1780.22835,0.00014
1778.29961,0.00011
1776.37087,0.00011
1774.44213,0.00020
1772.51339,0.00019
1770.58464,0.00017
1768.65590,0.00030
1766.72716,0.00033
1764.79842,0.00009
1762.86968,0.00005
1760.94094,0.00025
1759.01220,0.00036
1757.08345,0.00034
1755.15471,0.00030
1753.22597,0.00029
1751.29723,0.00023
1749.36849,0.00015
1747.43975,0.00022
1745.51101,0.00025
1743.58226,0.00029
1741.65352,0.00023
1739.72478,0.00025
1737.79604,0.00019
1735.86730,0.00019
1733.93856,0.00030
1732.00982,0.00023
1730.08107,-0.00000
1728.15233,0.00003
1726.22359,0.00015
1724.29485,0.00016
1722.36611,0.00021
1720.43737,0.00035
1718.50863,0.00041
1716.57988,0.00029
1714.65114,0.00012
1712.72240,0.00026
1710.79366,0.00029
1708.86492,0.00023
1706.93618,0.00019
1705.00744,0.00024
1703.07869,0.00029
1701.14995,0.00025
1699.22121,0.00022
1697.29247,0.00036
1695.36373,0.00031
1693.43499,0.00021
1691.50624,0.00018
1689.57750,0.00033
1687.64876,0.00026
1685.72002,0.00023
1683.79128,0.00020
1681.86254,0.00016
1679.93380,0.00022
1678.00505,0.00033
1676.07631,0.00025
1674.14757,0.00010
1672.21883,0.00020
1670.29009,0.00038
1668.36135,0.00034
1666.43261,0.00028
1664.50386,0.00020
1662.57512,0.00016
1660.64638,0.00027
1658.71764,0.00031
1656.78890,0.00020
1654.86016,0.00011
1652.93142,0.00025
1651.00267,0.00035
1649.07393,0.00028
1647.14519,0.00025
1645.21645,0.00036
1643.28771,0.00054
1641.35897,0.00060
1639.43023,0.00042
1637.50148,0.00029
1635.57274,0.00042
1633.64400,0.00049
1631.71526,0.00048
1629.78652,0.00043
1627.85778,0.00028
1625.92904,0.00010
1624.00029,0.00006
1622.07155,0.00015
1620.14281,0.00028
1618.21407,0.00041
1616.28533,0.00042
1614.35659,0.00024
1612.42785,0.00012
1610.49910,0.00006
1608.57036,0.00014
1606.64162,0.00016
1604.71288,0.00008
1602.78414,0.00004
1600.85540,0.00011
1598.92666,0.00018
1596.99791,0.00024
1595.06917,0.00016
1593.14043,0.00005
1591.21169,0.00015
1589.28295,0.00036
1587.35421,0.00034
1585.42547,0.00014
1583.49672,0.00013
1581.56798,0.00038
1579.63924,0.00030
1577.71050,0.00011
1575.78176,0.00003
1573.85302,0.00036
1571.92428,0.00042
1569.99553,0.00027
1568.06679,0.00014
1566.13805,0.00016
1564.20931,0.00018
1562.28057,0.00023
1560.35183,0.00036
1558.42309,0.00045
1556.49434,0.00041
1554.56560,0.00030
1552.63686,0.00016
1550.70812,0.00016
1548.77938,0.00032
1546.85064,0.00047
1544.92190,0.00043
1542.99315,0.00031
1541.06441,0.00010
1539.13567,0.00015
1537.20693,0.00020
1535.27819,0.00028
1533.34945,0.00040
1531.42071,0.00038
1529.49196,0.00024
1527.56322,0.00020
1525.63448,0.00025
1523.70574,0.00026
1521.77700,0.00022
1519.84826,0.00025
1517.91952,0.00019
1515.99077,0.00018
1514.06203,0.00014
1512.13329,0.00014
1510.20455,0.00011
1508.27581,0.00020
1506.34707,0.00028
1504.41833,0.00023
1502.48958,0.00021
1500.56084,0.00031
1498.63210,0.00036
1496.70336,0.00031
1494.77462,0.00016
1492.84588,0.00013
1490.91713,0.00024
1488.98839,0.00028
1487.05965,0.00025
1485.13091,0.00030
1483.20217,0.00024
1481.27343,0.00015
1479.34469,0.00016
1477.41594,0.00027
1475.48720,0.00030
1473.55846,0.00018
1471.62972,0.00012
1469.70098,0.00030
1467.77224,0.00030
1465.84350,0.00032
1463.91475,0.00024
1461.98601,0.00018
1460.05727,0.00004
1458.12853,0.00003
1456.19979,0.00023
1454.27105,0.00037
1452.34231,0.00023
1450.41356,0.00006
1448.48482,0.00013
1446.55608,0.00020
1444.62734,0.00014
1442.69860,0.00017
1440.76986,0.00015
1438.84112,0.00015
1436.91237,0.00014
1434.98363,0.00018
1433.05489,0.00018
1431.12615,0.00018
1429.19741,0.00027
1427.26867,0.00033
1425.33993,0.00028
1423.41118,0.00022
1421.48244,0.00019
1419.55370,0.00024
1417.62496,0.00027
1415.69622,0.00031
1413.76748,0.00025
1411.83874,0.00013
1409.90999,0.00008
1407.98125,0.00004
1406.05251,-0.00002
1404.12377,0.00003
1402.19503,0.00024
1400.26629,0.00047
1398.33755,0.00042
1396.40880,0.00033
1394.48006,0.00034
1392.55132,0.00030
1390.62258,0.00029
1388.69384,0.00037
1386.76510,0.00014
1384.83636,0.00021
1382.90761,0.00038
1380.97887,0.00040
1379.05013,0.00018
1377.12139,0.00003
1375.19265,0.00011
1373.26391,0.00028
1371.33517,0.00044
1369.40642,0.00055
1367.47768,0.00051
1365.54894,0.00041
1363.62020,0.00035
1361.69146,0.00034
1359.76272,0.00031
1357.83398,0.00035
1355.90523,0.00040
1353.97649,0.00039
1352.04775,0.00032
1350.11901,0.00025
1348.19027,0.00018
1346.26153,0.00019
1344.33279,0.00027
1342.40404,0.00022
1340.47530,0.00012
1338.54656,0.00012
1336.61782,0.00011
1334.68908,0.00028
1332.76034,0.00038
1330.83160,0.00035
1328.90285,0.00027
1326.97411,0.00023
1325.04537,0.00024
1323.11663,0.00028
1321.18789,0.00032
1319.25915,0.00034
1317.33041,0.00037
1315.40166,0.00038
1313.47292,0.00025
1311.54418,0.00009
1309.61544,0.00016
1307.68670,0.00025
1305.75796,0.00025
1303.82922,0.00022
1301.90047,0.00020
1299.97173,0.00025
1298.04299,0.00017
1296.11425,0.00028
1294.18551,0.00059
1292.25677,0.00072
1290.32802,0.00067
1288.39928,0.00044
1286.47054,0.00025
1284.54180,0.00026
1282.61306,0.00027
1280.68432,0.00043
1278.75558,0.00054
1276.82683,0.00052
1274.89809,0.00048
1272.96935,0.00049
1271.04061,0.00026
1269.11187,0.00012
1267.18313,0.00019
1265.25439,0.00031
1263.32564,0.00035
1261.39690,0.00035
1259.46816,0.00037
1257.53942,0.00024
1255.61068,-0.00007
1253.68194,0.00022
1251.75320,0.00037
1249.82445,0.00039
1247.89571,0.00033
1245.96697,0.00044
1244.03823,0.00052
1242.10949,0.00041
1240.18075,0.00029
1238.25201,0.00036
1236.32326,0.00040
1234.39452,0.00034
1232.46578,0.00031
1230.53704,0.00027
1228.60830,0.00014
1226.67956,-0.00006
1224.75082,-0.00017
1222.82207,0.00006
1220.89333,0.00015
1218.96459,0.00021
1217.03585,0.00024
1215.10711,0.00027
1213.17837,0.00025
1211.24963,0.00017
1209.32088,0.00027
1207.39214,0.00043
1205.46340,0.00059
1203.53466,0.00063
1201.60592,0.00057
1199.67718,0.00040
1197.74844,0.00009
1195.81969,0.00027
1193.89095,0.00051
1191.96221,0.00059
1190.03347,0.00059
1188.10473,0.00059
1186.17599,0.00047
1184.24725,0.00030
1182.31850,0.00018
1180.38976,0.00029
1178.46102,0.00035
1176.53228,0.00028
1174.60354,0.00010
1172.67480,0.00030
1170.74606,0.00055
1168.81731,0.00058
1166.88857,0.00034
1164.95983,0.00031
1163.03109,0.00038
1161.10235,0.00051
1159.17361,0.00046
1157.24487,0.00023
1155.31612,0.00019
1153.38738,0.00049
1151.45864,0.00049
1149.52990,0.00024
1147.60116,0.00011
1145.67242,0.00020
1143.74368,0.00035
1141.81493,0.00045
1139.88619,0.00062
1137.95745,0.00081
1136.02871,0.00067
1134.09997,0.00028
1132.17123,0.00012
1130.24249,0.00034
1128.31374,0.00060
1126.38500,0.00063
1124.45626,0.00044
1122.52752,0.00048
1120.59878,0.00063
1118.67004,0.00046
1116.74130,0.00046
1114.81255,0.00062
1112.88381,0.00062
1110.95507,0.00044
1109.02633,0.00031
1107.09759,0.00049
1105.16885,0.00061
1103.24011,0.00048
1101.31136,0.00005
1099.38262,0.00035
1097.45388,0.00046
1095.52514,0.00033
1093.59640,0.00049
1091.66766,0.00086
1089.73891,0.00092
1087.81017,0.00057
1085.88143,0.00040
1083.95269,0.00060
1082.02395,0.00062
1080.09521,0.00039
1078.16647,0.00048
1076.23772,0.00081
1074.30898,0.00086
1072.38024,0.00069
1070.45150,0.00028
1068.52276,0.00011
1066.59402,0.00052
1064.66528,0.00065
1062.73653,0.00063
1060.80779,0.00069
1058.87905,0.00064
1056.95031,0.00050
1055.02157,0.00044
1053.09283,0.00049
1051.16409,0.00028
1049.23534,0.00029
1047.30660,0.00043
1045.37786,0.00034
1043.44912,0.00022
1041.52038,0.00049
1039.59164,0.00056
1037.66290,0.00017
1035.73415,-0.00015
1033.80541,-0.00007
1031.87667,0.00013
1029.94793,0.00040
1028.01919,0.00060
1026.09045,0.00056
1024.16171,0.00044
1022.23296,0.00040
1020.30422,0.00011
1018.37548,0.00026
1016.44674,0.00049
1014.51800,0.00061
1012.58926,0.00074
1010.66052,0.00088
1008.73177,0.00078
1006.80303,0.00059
1004.87429,0.00049
1002.94555,0.00046
1001.01681,0.00034
999.08807,0.00027
997.15933,0.00032
995.23058,0.00050
993.30184,0.00068
991.37310,0.00080
989.44436,0.00068
987.51562,0.00038
985.58688,0.00017
983.65814,0.00010
981.72939,0.00008
979.80065,0.00024
977.87191,0.00055
975.94317,0.00077
974.01443,0.00070
972.08569,0.00054
970.15695,0.00061
968.22820,0.00079
966.29946,0.00069
964.37072,0.00038
962.44198,0.00013
960.51324,0.00013
958.58450,0.00045
956.65576,0.00074
954.72701,0.00058
952.79827,0.00025
950.86953,0.00013
948.94079,0.00016
947.01205,0.00030
945.08331,0.00064
943.15457,0.00094
941.22582,0.00084
939.29708,0.00043
937.36834,0.00018
935.43960,0.00028
933.51086,0.00053
931.58212,0.00071
929.65338,0.00064
927.72463,0.00032
925.79589,0.00003
923.86715,0.00007
921.93841,0.00050
920.00967,0.00086
918.08093,0.00087
916.15219,0.00072
914.22344,0.00053
912.29470,0.00030
910.36596,0.00029
908.43722,0.00064
906.50848,0.00105
904.57974,0.00102
902.65100,0.00068
900.72225,0.00042
898.79351,0.00042
896.86477,0.00046
894.93603,0.00025
893.00729,-0.00000
891.07855,0.00012
889.14980,0.00056
887.22106,0.00094
885.29232,0.00074
883.36358,0.00071
881.43484,0.00057
879.50610,0.00064
877.57736,0.00070
875.64861,0.00047
873.71987,0.00029
871.79113,0.00030
869.86239,0.00035
867.93365,0.00033
866.00491,0.00030
864.07617,0.00039
862.14742,0.00042
860.21868,0.00042
858.28994,0.00052
856.36120,0.00057
854.43246,0.00051
852.50372,0.00073
850.57498,0.00096
848.64623,0.00109
846.71749,0.00113
844.78875,0.00098
842.86001,0.00056
840.93127,0.00021
839.00253,0.00041
837.07379,0.00089
835.14504,0.00106
833.21630,0.00080
831.28756,0.00019
829.35882,0.00007
827.43008,0.00036
825.50134,0.00067
823.57260,0.00043
821.64385,0.00031
819.71511,0.00006
817.78637,0.00033
815.85763,0.00079
813.92889,0.00091
812.00015,0.00049
810.07141,0.00043
808.14266,0.00059
806.21392,0.00065
804.28518,0.00065
802.35644,0.00070
800.42770,0.00077
798.49896,0.00071
796.57022,0.00071
794.64147,0.00072
792.71273,0.00048
790.78399,0.00039
788.85525,0.00035
786.92651,0.00077
784.99777,0.00055
783.06903,0.00010
781.14028,0.00018
779.21154,0.00060
777.28280,0.00062
775.35406,0.00057
773.42532,0.00067
771.49658,0.00083
769.56784,0.00069
767.63909,0.00061
765.71035,0.00078
763.78161,0.00081
761.85287,0.00049
759.92413,0.00024
757.99539,0.00034
756.06665,0.00070
754.13790,0.00067
752.20916,0.00023
750.28042,0.00046
748.35168,0.00096
746.42294,0.00088
744.49420,0.00050
742.56546,0.00031
740.63671,0.00062
738.70797,0.00086
736.77923,0.00060
734.85049,0.00024
732.92175,0.00020
730.99301,0.00049
729.06427,0.00073
727.13552,0.00054
725.20678,0.00048
723.27804,0.00093
721.34930,0.00135
719.42056,0.00138
717.49182,0.00112
715.56308,0.00074
713.63433,0.00078
711.70559,0.00100
709.77685,0.00112
707.84811,0.00135
705.91937,0.00139
703.99063,0.00109
702.06189,0.00088
700.13314,0.00089
698.20440,0.00083
696.27566,0.00074
694.34692,0.00095
692.41818,0.00108
690.48944,0.00089
688.56069,0.00060
686.63195,0.00075
684.70321,0.00077
682.77447,0.00055
680.84573,0.00060
678.91699,0.00108
676.98825,0.00141
675.05950,0.00139
673.13076,0.00120
671.20202,0.00131
669.27328,0.00148
667.34454,0.00146
665.41580,0.00138
663.48706,0.00109
661.55831,0.00068
659.62957,0.00058
657.70083,0.00054
655.77209,0.00081
653.84335,0.00140
651.91461,0.00188
649.98587,0.00209
648.05712,0.00196
646.12838,0.00129
644.19964,0.00084
642.27090,0.00088
640.34216,0.00081
638.41342,0.00059
636.48468,0.00106
634.55593,0.00169
632.62719,0.00166
630.69845,0.00111
628.76971,0.00082
626.84097,0.00063
624.91223,0.00115
622.98349,0.00205
621.05474,0.00235
619.12600,0.00236
617.19726,0.00263
615.26852,0.00275
613.33978,0.00236
611.41104,0.00184
609.48230,0.00169
607.55355,0.00187
605.62481,0.00244
603.69607,0.00254
601.76733,0.00214
599.83859,0.00216
