7496.62742,-0.00238
7494.69878,0.00675
7492.77014,0.01475
7490.84150,0.01721
7488.91285,0.01619
7486.98421,0.01228
7485.05557,0.00871
7483.12693,0.01185
7481.19829,0.01249
7479.26965,0.00560
7477.34101,0.00542
7475.41237,0.01349
7473.48373,0.01217
7471.55509,0.01179
7469.62644,0.01056
7467.69780,0.01094
7465.76916,0.01374
7463.84052,0.01427
7461.91188,0.01072
7459.98324,0.00760
7458.05460,0.00927
7456.12596,0.01348
7454.19732,0.01414
7452.26868,0.01572
7450.34003,0.00968
7448.41139,-0.00129
7446.48275,-0.00849
7444.55411,0.00459
7442.62547,0.01354
7440.69683,0.01976
7438.76819,0.01553
7436.83955,0.00543
7434.91091,0.00074
7432.98227,0.00752
7431.05363,0.00503
7429.12498,0.00710
7427.19634,0.01236
7425.26770,0.01200
7423.33906,0.00960
7421.41042,0.00793
7419.48178,0.00900
7417.55314,0.01503
7415.62450,0.01472
7413.69586,0.00910
7411.76722,0.00486
7409.83857,0.00838
7407.90993,0.01273
7405.98129,0.01182
7404.05265,0.00894
7402.12401,0.00815
7400.19537,0.00615
7398.26673,0.00870
7396.33809,0.00684
7394.40945,0.00432
7392.48081,0.00134
7390.55217,0.00765
7388.62352,0.00849
7386.69488,0.00693
7384.76624,0.00708
7382.83760,0.00616
7380.90896,0.00348
7378.98032,0.00551
7377.05168,0.00939
7375.12304,0.00757
7373.19440,0.00375
7371.26576,0.00638
7369.33711,0.00754
7367.40847,0.00544
7365.47983,0.01041
7363.55119,0.01245
7361.62255,0.00317
7359.69391,-0.00217
7357.76527,0.00096
7355.83663,0.00808
7353.90799,0.01641
7351.97935,0.01902
7350.05070,0.01531
7348.12206,0.01280
7346.19342,0.01263
7344.26478,0.00956
7342.33614,0.00678
7340.40750,0.00722
7338.47886,0.00736
7336.55022,0.00471
7334.62158,0.00748
7332.69294,0.01437
7330.76430,0.01732
7328.83565,0.01657
7326.90701,0.01386
7324.97837,0.00761
7323.04973,0.00019
7321.12109,0.00014
7319.19245,0.00272
7317.26381,0.00670
7315.33517,0.01327
7313.40653,0.01767
7311.47789,0.01397
7309.54924,0.01171
7307.62060,0.01390
7305.69196,0.01537
7303.76332,0.01145
7301.83468,0.00973
7299.90604,0.00306
7297.97740,0.00040
7296.04876,0.00559
7294.12012,0.01247
7292.19148,0.01152
7290.26284,0.01006
7288.33419,0.00932
7286.40555,0.00643
7284.47691,0.00442
7282.54827,0.00925
7280.61963,0.01154
7278.69099,0.00868
7276.76235,0.00716
7274.83371,0.01074
7272.90507,0.01369
7270.97643,0.01524
7269.04778,0.01316
7267.11914,0.01154
7265.19050,0.00967
7263.26186,0.00544
7261.33322,0.00455
7259.40458,0.00850
7257.47594,0.01012
7255.54730,0.01176
7253.61866,0.01120
7251.69002,0.00701
7249.76137,0.00445
7247.83273,0.01221
7245.90409,0.01211
7243.97545,0.01022
7242.04681,0.00706
7240.11817,0.00435
7238.18953,0.00310
7236.26089,0.00381
7234.33225,0.00472
7232.40361,0.00483
7230.47497,0.00306
7228.54632,0.00340
7226.61768,0.00454
7224.68904,0.00417
7222.76040,0.00251
7220.83176,0.00208
7218.90312,0.00526
7216.97448,0.00771
7215.04584,0.00618
7213.11720,0.00522
7211.18856,0.00671
7209.25991,0.00789
7207.33127,0.00835
7205.40263,0.01106
7203.47399,0.01328
7201.54535,0.01123
7199.61671,0.00854
7197.68807,0.00966
7195.75943,0.00904
7193.83079,0.00713
7191.90215,0.00514
7189.97351,0.00376
7188.04486,0.00448
7186.11622,0.00795
7184.18758,0.00869
7182.25894,0.00540
7180.33030,0.00322
7178.40166,0.00307
7176.47302,0.00426
7174.54438,0.00850
7172.61574,0.00686
7170.68710,0.00475
7168.75845,0.00949
7166.82981,0.01776
7164.90117,0.02022
7162.97253,0.01861
7161.04389,0.01387
7159.11525,0.01017
7157.18661,0.01361
7155.25797,0.01472
7153.32933,0.00981
7151.40069,0.00604
7149.47204,0.00633
7147.54340,0.00818
7145.61476,0.00658
7143.68612,0.00422
7141.75748,-0.00041
7139.82884,0.00242
7137.90020,0.00544
7135.97156,0.00868
7134.04292,0.00525
7132.11428,0.00172
7130.18564,0.00383
7128.25699,0.00867
7126.32835,0.01160
7124.39971,0.00798
7122.47107,0.00445
7120.54243,0.01083
7118.61379,0.00735
7116.68515,0.00423
7114.75651,0.00724
7112.82787,0.00838
7110.89923,0.00433
7108.97058,0.00359
7107.04194,0.00617
7105.11330,0.00359
7103.18466,0.00038
7101.25602,0.00252
7099.32738,0.00358
7097.39874,0.00481
7095.47010,0.00594
7093.54146,0.00754
7091.61282,0.00945
7089.68418,0.01005
7087.75553,0.00792
7085.82689,0.00405
7083.89825,0.00295
7081.96961,0.00569
7080.04097,0.00697
7078.11233,0.00852
7076.18369,0.00830
7074.25505,0.00767
7072.32641,0.00465
7070.39777,0.00086
7068.46912,0.00117
7066.54048,0.00573
7064.61184,0.00746
7062.68320,0.00798
7060.75456,0.00743
7058.82592,0.00525
7056.89728,0.00513
7054.96864,0.01108
7053.04000,0.01366
7051.11136,0.01005
7049.18271,0.00246
7047.25407,0.00182
7045.32543,0.00551
7043.39679,0.00387
7041.46815,0.00830
7039.53951,0.01409
7037.61087,0.01315
7035.68223,0.01177
7033.75359,0.00965
7031.82495,0.00598
7029.89631,0.00435
7027.96766,0.00713
7026.03902,0.00851
7024.11038,0.00530
7022.18174,0.00287
7020.25310,0.00318
7018.32446,0.00553
7016.39582,0.00790
7014.46718,0.00815
7012.53854,0.00854
7010.60990,0.00827
7008.68125,0.00522
7006.75261,0.00205
7004.82397,0.00417
7002.89533,0.00807
7000.96669,0.01261
6999.03805,0.01218
6997.10941,0.00466
6995.18077,0.00249
6993.25213,0.00880
6991.32349,0.00822
6989.39485,0.01123
6987.46620,0.01142
6985.53756,0.00865
6983.60892,0.00744
6981.68028,0.00668
6979.75164,0.00431
6977.82300,0.00384
6975.89436,0.00699
6973.96572,0.00875
6972.03708,0.00694
6970.10844,0.00303
6968.17979,0.00056
6966.25115,0.00334
6964.32251,0.00947
6962.39387,0.01344
6960.46523,0.01165
6958.53659,0.00756
6956.60795,0.00696
6954.67931,0.00786
6952.75067,0.00758
6950.82203,0.00807
6948.89338,0.00740
6946.96474,0.00344
6945.03610,-0.00048
6943.10746,0.00022
6941.17882,0.00106
6939.25018,0.00420
6937.32154,0.00697
6935.39290,0.00812
6933.46426,0.00690
6931.53562,0.00826
6929.60698,0.01065
6927.67833,0.00921
6925.74969,0.00446
6923.82105,0.00041
6921.89241,-0.00051
6919.96377,0.00309
6918.03513,0.00271
6916.10649,0.00526
6914.17785,0.00861
6912.24921,0.00536
6910.32057,-0.00198
6908.39192,0.00703
6906.46328,0.00944
6904.53464,0.00832
6902.60600,0.00566
6900.67736,0.00587
6898.74872,0.00619
6896.82008,0.00390
6894.89144,0.00388
6892.96280,0.00614
6891.03416,0.00781
6889.10552,0.00745
6887.17687,0.00451
6885.24823,0.00594
6883.31959,0.00917
6881.39095,0.00507
6879.46231,0.00177
6877.53367,0.00575
6875.60503,0.01088
6873.67639,0.01336
6871.74775,0.01341
6869.81911,0.01211
6867.89046,0.00967
6865.96182,0.00734
6864.03318,0.00461
6862.10454,0.00215
6860.17590,0.00242
6858.24726,0.00415
6856.31862,0.00477
6854.38998,0.00374
6852.46134,0.00188
6850.53270,0.00067
6848.60405,0.00199
6846.67541,0.00437
6844.74677,0.00383
6842.81813,0.00333
6840.88949,0.00540
6838.96085,0.00576
6837.03221,0.00255
6835.10357,0.00458
6833.17493,0.00584
6831.24629,0.00620
6829.31765,0.00645
6827.38900,0.00636
6825.46036,0.00543
6823.53172,0.00765
6821.60308,0.01149
6819.67444,0.01178
6817.74580,0.00843
6815.81716,0.00424
6813.88852,0.00317
6811.95988,0.00795
6810.03124,0.01389
6808.10259,0.01578
6806.17395,0.01335
6804.24531,0.01097
6802.31667,0.00853
6800.38803,0.00281
6798.45939,-0.00270
6796.53075,-0.00090
6794.60211,0.00328
6792.67347,0.00659
6790.74483,0.00857
6788.81618,0.00665
6786.88754,0.00413
6784.95890,0.00531
6783.03026,0.00287
6781.10162,0.00275
6779.17298,0.00554
6777.24434,0.00896
6775.31570,0.01085
6773.38706,0.01214
6771.45842,0.01144
6769.52978,0.00830
6767.60113,0.00543
6765.67249,0.00409
6763.74385,0.00352
6761.81521,0.00106
6759.88657,-0.00312
6757.95793,0.00248
6756.02929,0.00729
6754.10065,0.01102
6752.17201,0.01005
6750.24337,0.00709
6748.31472,0.00393
6746.38608,0.00231
6744.45744,0.00356
6742.52880,0.00795
6740.60016,0.01040
6738.67152,0.01130
6736.74288,0.01172
6734.81424,0.00883
6732.88560,0.00579
6730.95696,0.00963
6729.02832,0.01190
6727.09967,0.01079
6725.17103,0.00657
6723.24239,0.00246
6721.31375,0.00178
6719.38511,0.00307
6717.45647,0.00383
6715.52783,0.00578
6713.59919,0.00600
6711.67055,0.00330
6709.74191,0.00027
6707.81326,0.00195
6705.88462,0.00527
6703.95598,0.00515
6702.02734,0.00470
6700.09870,0.00598
6698.17006,0.00618
6696.24142,0.00658
6694.31278,0.00508
6692.38414,0.00405
6690.45550,0.00538
6688.52685,0.00513
6686.59821,0.00893
6684.66957,0.00883
6682.74093,0.00654
6680.81229,0.00699
6678.88365,0.00749
6676.95501,0.00814
6675.02637,0.00852
6673.09773,0.00760
6671.16909,0.00536
6669.24045,0.00384
6667.31180,0.00288
6665.38316,0.00170
6663.45452,0.00163
6661.52588,0.00369
6659.59724,0.00374
6657.66860,0.00217
6655.73996,0.00334
6653.81132,0.00733
6651.88268,0.01000
6649.95404,0.01004
6648.02539,0.00601
6646.09675,0.00670
6644.16811,0.00770
6642.23947,0.00943
6640.31083,0.01106
6638.38219,0.01011
6636.45355,0.00666
6634.52491,0.00477
6632.59627,0.00483
6630.66763,0.00532
6628.73899,0.00530
6626.81034,0.00575
6624.88170,0.00631
6622.95306,0.00499
6621.02442,0.00185
6619.09578,0.00276
6617.16714,0.00298
6615.23850,0.00257
6613.30986,0.00237
6611.38122,0.00392
6609.45258,0.00471
6607.52393,0.00445
6605.59529,0.00290
6603.66665,0.00227
6601.73801,0.00253
6599.80937,0.00415
6597.88073,0.00578
6595.95209,0.00548
6594.02345,0.00486
6592.09481,0.00625
6590.16617,0.00585
6588.23752,0.00570
6586.30888,0.00753
6584.38024,0.00678
6582.45160,0.00270
6580.52296,0.00297
6578.59432,0.00456
6576.66568,0.00421
6574.73704,0.00369
6572.80840,0.00556
6570.87976,0.00358
6568.95112,0.00293
6567.02247,0.00459
6565.09383,0.00566
6563.16519,0.00409
6561.23655,0.00538
6559.30791,0.00779
6557.37927,0.00547
6555.45063,0.00317
6553.52199,0.00477
6551.59335,0.00304
6549.66471,0.00388
6547.73606,0.00875
6545.80742,0.00792
6543.87878,0.00487
6541.95014,0.00212
6540.02150,-0.00009
6538.09286,0.00340
6536.16422,0.00828
6534.23558,0.01066
6532.30694,0.00926
6530.37830,0.00755
6528.44966,0.00513
6526.52101,0.00296
6524.59237,0.00135
6522.66373,0.00262
6520.73509,0.00656
6518.80645,0.00671
6516.87781,0.00433
6514.94917,0.00359
6513.02053,0.00297
6511.09189,0.00233
6509.16325,0.00354
6507.23460,0.00592
6505.30596,0.00758
6503.37732,0.00793
6501.44868,0.00666
6499.52004,0.00476
6497.59140,0.00381
6495.66276,0.00481
6493.73412,0.00645
6491.80548,0.00801
6489.87684,0.00754
6487.94819,0.00494
6486.01955,0.00361
6484.09091,0.00550
6482.16227,0.00594
6480.23363,0.00430
6478.30499,0.00422
6476.37635,0.00483
6474.44771,0.00278
6472.51907,0.00114
6470.59043,0.00130
6468.66179,0.00313
6466.73314,0.00708
6464.80450,0.00846
6462.87586,0.00654
6460.94722,0.00503
6459.01858,0.00494
6457.08994,0.00528
6455.16130,0.00542
6453.23266,0.00517
6451.30402,0.00480
6449.37538,0.00528
6447.44673,0.00623
6445.51809,0.00617
6443.58945,0.00481
6441.66081,0.00435
6439.73217,0.00675
6437.80353,0.01026
6435.87489,0.01122
6433.94625,0.00743
6432.01761,0.00256
6430.08897,0.00222
6428.16033,0.00338
6426.23168,0.00262
6424.30304,0.00495
6422.37440,0.00401
6420.44576,0.00221
6418.51712,0.00221
6416.58848,0.00047
6414.65984,0.00280
6412.73120,0.00300
6410.80256,0.00435
6408.87392,0.00546
6406.94527,0.00365
6405.01663,0.00113
6403.08799,0.00170
6401.15935,0.00147
6399.23071,0.00148
6397.30207,0.00391
6395.37343,0.00479
6393.44479,0.00296
6391.51615,0.00143
6389.58751,0.00220
6387.65886,0.00437
6385.73022,0.00244
6383.80158,0.00142
6381.87294,0.00278
6379.94430,0.00392
6378.01566,0.00296
6376.08702,0.00243
6374.15838,0.00276
6372.22974,0.00325
6370.30110,0.00299
6368.37246,0.00424
6366.44381,0.00363
6364.51517,0.00292
6362.58653,0.00295
6360.65789,0.00463
6358.72925,0.00608
6356.80061,0.00627
6354.87197,0.00420
6352.94333,0.00240
6351.01469,0.00307
6349.08605,0.00486
6347.15740,0.00552
6345.22876,0.00614
6343.30012,0.00657
6341.37148,0.00527
6339.44284,0.00278
6337.51420,0.00330
6335.58556,0.00309
6333.65692,0.00332
6331.72828,0.00388
6329.79964,0.00369
6327.87100,0.00420
6325.94235,0.00486
6324.01371,0.00420
6322.08507,0.00257
6320.15643,0.00121
6318.22779,0.00174
6316.29915,0.00227
6314.37051,0.00157
6312.44187,0.00032
6310.51323,0.00090
6308.58459,0.00150
6306.65594,0.00317
6304.72730,0.00384
6302.79866,0.00270
6300.87002,0.00229
6298.94138,0.00235
6297.01274,0.00215
6295.08410,0.00202
6293.15546,0.00110
6291.22682,-0.00072
6289.29818,0.00261
6287.36953,0.00588
6285.44089,0.00371
6283.51225,0.00159
6281.58361,0.00472
6279.65497,0.00599
6277.72633,0.00240
6275.79769,-0.00039
6273.86905,0.00195
6271.94041,0.00545
6270.01177,0.00658
6268.08313,0.00441
6266.15448,0.00165
6264.22584,0.00160
6262.29720,0.00230
6260.36856,0.00195
6258.43992,0.00093
6256.51128,0.00045
6254.58264,0.00094
6252.65400,0.00152
6250.72536,0.00139
6248.79672,0.00127
6246.86807,0.00216
6244.93943,0.00375
6243.01079,0.00429
6241.08215,0.00274
6239.15351,0.00069
6237.22487,0.00100
6235.29623,0.00305
6233.36759,0.00506
6231.43895,0.00372
6229.51031,0.00368
6227.58167,0.00297
6225.65302,0.00192
6223.72438,0.00208
6221.79574,0.00343
6219.86710,0.00521
6217.93846,0.00673
6216.00982,0.00646
6214.08118,0.00464
6212.15254,0.00363
6210.22390,0.00471
6208.29526,0.00486
6206.36661,0.00449
6204.43797,0.00459
6202.50933,0.00557
6200.58069,0.00654
6198.65205,0.00713
6196.72341,0.00564
6194.79477,0.00300
6192.86613,0.00216
6190.93749,0.00205
6189.00885,0.00188
6187.08020,0.00301
6185.15156,0.00410
6183.22292,0.00353
6181.29428,0.00371
6179.36564,0.00500
6177.43700,0.00369
6175.50836,0.00102
6173.57972,0.00023
6171.65108,0.00109
6169.72244,0.00256
6167.79380,0.00280
6165.86515,0.00272
6163.93651,0.00341
6162.00787,0.00380
6160.07923,0.00488
6158.15059,0.00592
6156.22195,0.00530
6154.29331,0.00287
6152.36467,0.00031
6150.43603,-0.00008
6148.50739,0.00209
6146.57874,0.00369
6144.65010,0.00435
6142.72146,0.00415
6140.79282,0.00390
6138.86418,0.00388
6136.93554,0.00338
6135.00690,0.00271
6133.07826,0.00239
6131.14962,0.00134
6129.22098,0.00080
6127.29234,0.00236
6125.36369,0.00514
6123.43505,0.00509
6121.50641,0.00364
6119.57777,0.00298
6117.64913,0.00453
6115.72049,0.00589
6113.79185,0.00487
6111.86321,0.00218
6109.93457,-0.00004
6108.00593,-0.00066
6106.07728,0.00073
6104.14864,0.00209
6102.22000,0.00243
6100.29136,0.00407
6098.36272,0.00662
6096.43408,0.00756
6094.50544,0.00507
6092.57680,-0.00050
6090.64816,0.00313
6088.71952,0.00441
6086.79087,0.00447
6084.86223,0.00421
6082.93359,0.00261
6081.00495,0.00132
6079.07631,0.00197
6077.14767,0.00220
6075.21903,0.00295
6073.29039,0.00327
6071.36175,0.00202
6069.43311,0.00190
6067.50447,0.00344
6065.57582,0.00308
6063.64718,0.00201
6061.71854,0.00119
6059.78990,0.00247
6057.86126,0.00507
6055.93262,0.00624
6054.00398,0.00444
6052.07534,0.00093
6050.14670,-0.00104
6048.21806,-0.00039
6046.28941,0.00104
6044.36077,0.00320
6042.43213,0.00433
6040.50349,0.00454
6038.57485,0.00511
6036.64621,0.00563
6034.71757,0.00474
6032.78893,0.00226
6030.86029,-0.00007
6028.93165,0.00082
6027.00301,0.00275
6025.07436,0.00373
6023.14572,0.00377
6021.21708,0.00485
6019.28844,0.00554
6017.35980,0.00445
6015.43116,0.00292
6013.50252,0.00282
6011.57388,0.00330
6009.64524,0.00402
6007.71660,0.00482
6005.78795,0.00613
6003.85931,0.00710
6001.93067,0.00591
6000.00203,0.00432
5998.07339,0.00439
5996.14475,0.00488
5994.21611,0.00445
5992.28747,0.00234
5990.35883,0.00059
5988.43019,0.00048
5986.50154,0.00129
5984.57290,0.00180
5982.64426,0.00231
5980.71562,0.00157
5978.78698,0.00143
5976.85834,0.00235
5974.92970,0.00224
5973.00106,0.00094
5971.07242,0.00118
5969.14378,0.00189
5967.21514,0.00143
5965.28649,0.00208
5963.35785,0.00215
5961.42921,0.00036
5959.50057,0.00129
5957.57193,0.00270
5955.64329,0.00419
5953.71465,0.00468
5951.78601,0.00399
5949.85737,0.00300
5947.92873,0.00324
5946.00008,0.00329
5944.07144,0.00208
5942.14280,0.00120
5940.21416,0.00296
5938.28552,0.00442
5936.35688,0.00500
5934.42824,0.00348
5932.49960,0.00114
5930.57096,0.00108
5928.64232,0.00269
5926.71368,0.00190
5924.78503,0.00051
5922.85639,0.00081
5920.92775,0.00187
5918.99911,0.00181
5917.07047,0.00142
5915.14183,0.00180
5913.21319,0.00236
5911.28455,0.00228
5909.35591,0.00334
5907.42727,0.00456
5905.49862,0.00381
5903.56998,0.00222
5901.64134,0.00165
5899.71270,0.00133
5897.78406,0.00112
5895.85542,0.00231
5893.92678,0.00388
5891.99814,0.00337
5890.06950,0.00191
5888.14086,0.00108
5886.21221,0.00170
5884.28357,0.00265
5882.35493,0.00330
5880.42629,0.00256
5878.49765,0.00172
5876.56901,0.00113
5874.64037,0.00118
5872.71173,0.00272
5870.78309,0.00449
5868.85445,0.00457
5866.92581,0.00381
5864.99716,0.00323
5863.06852,0.00225
5861.13988,0.00156
5859.21124,0.00211
5857.28260,0.00263
5855.35396,0.00246
5853.42532,0.00184
5851.49668,0.00172
5849.56804,0.00295
5847.63940,0.00479
5845.71075,0.00511
5843.78211,0.00329
5841.85347,0.00133
5839.92483,0.00103
5837.99619,0.00174
5836.06755,0.00212
5834.13891,0.00359
5832.21027,0.00468
5830.28163,0.00342
5828.35299,0.00148
5826.42435,0.00084
5824.49570,0.00156
5822.56706,0.00277
5820.63842,0.00338
5818.70978,0.00430
5816.78114,0.00550
5814.85250,0.00491
5812.92386,0.00312
5810.99522,0.00222
5809.06658,0.00210
5807.13794,0.00202
5805.20929,0.00231
5803.28065,0.00315
5801.35201,0.00381
5799.42337,0.00361
5797.49473,0.00396
5795.56609,0.00545
5793.63745,0.00548
5791.70881,0.00279
5789.78017,0.00077
5787.85153,0.00140
5785.92288,0.00313
5783.99424,0.00417
5782.06560,0.00355
5780.13696,0.00203
5778.20832,0.00281
5776.27968,0.00472
5774.35104,0.00500
5772.42240,0.00405
5770.49376,0.00302
5768.56512,0.00210
5766.63648,0.00187
5764.70783,0.00231
5762.77919,0.00254
5760.85055,0.00175
5758.92191,0.00116
5756.99327,0.00138
5755.06463,0.00113
5753.13599,0.00036
5751.20735,0.00085
5749.27871,0.00184
5747.35007,0.00186
5745.42142,0.00176
5743.49278,0.00184
5741.56414,0.00166
5739.63550,0.00156
5737.70686,0.00159
5735.77822,0.00268
5733.84958,0.00332
5731.92094,0.00262
5729.99230,0.00154
5728.06366,0.00202
5726.13502,0.00305
5724.20637,0.00347
5722.27773,0.00283
5720.34909,0.00228
5718.42045,0.00215
5716.49181,0.00221
5714.56317,0.00180
5712.63453,0.00286
5710.70589,0.00418
5708.77725,0.00447
5706.84861,0.00333
5704.91996,0.00219
5702.99132,0.00202
5701.06268,0.00334
5699.13404,0.00431
5697.20540,0.00348
5695.27676,0.00297
5693.34812,0.00250
5691.41948,0.00200
5689.49084,0.00104
5687.56220,0.00101
5685.63355,0.00265
5683.70491,0.00403
5681.77627,0.00433
5679.84763,0.00387
5677.91899,0.00341
5675.99035,0.00316
5674.06171,0.00339
5672.13307,0.00352
5670.20443,0.00250
5668.27579,0.00159
5666.34715,0.00140
5664.41850,0.00144
5662.48986,0.00309
5660.56122,0.00353
5658.63258,0.00239
5656.70394,0.00221
5654.77530,0.00271
5652.84666,0.00226
5650.91802,0.00135
5648.98938,0.00066
5647.06074,0.00058
5645.13209,0.00084
5643.20345,0.00096
5641.27481,0.00078
5639.34617,0.00132
5637.41753,0.00234
5635.48889,0.00174
5633.56025,0.00036
5631.63161,0.00290
5629.70297,0.00389
5627.77433,0.00346
5625.84569,0.00336
5623.91704,0.00259
5621.98840,0.00037
5620.05976,-0.00062
5618.13112,0.00046
5616.20248,0.00013
5614.27384,0.00054
5612.34520,0.00163
5610.41656,0.00259
5608.48792,0.00361
5606.55928,0.00387
5604.63063,0.00326
5602.70199,0.00260
5600.77335,0.00207
5598.84471,0.00184
5596.91607,0.00218
5594.98743,0.00261
5593.05879,0.00305
5591.13015,0.00332
5589.20151,0.00372
5587.27287,0.00354
5585.34422,0.00212
5583.41558,0.00115
5581.48694,0.00178
5579.55830,0.00148
5577.62966,0.00163
5575.70102,0.00268
5573.77238,0.00312
5571.84374,0.00261
5569.91510,0.00224
5567.98646,0.00182
5566.05782,0.00131
5564.12917,0.00084
5562.20053,0.00025
5560.27189,-0.00039
5558.34325,0.00065
5556.41461,0.00164
5554.48597,0.00138
5552.55733,0.00106
5550.62869,0.00109
5548.70005,0.00106
5546.77141,0.00299
5544.84276,0.00369
5542.91412,0.00338
5540.98548,0.00362
5539.05684,0.00423
5537.12820,0.00385
5535.19956,0.00251
5533.27092,0.00115
5531.34228,0.00045
5529.41364,0.00052
5527.48500,0.00089
5525.55636,0.00085
5523.62771,0.00110
5521.69907,0.00187
5519.77043,0.00270
5517.84179,0.00239
5515.91315,0.00176
5513.98451,0.00127
5512.05587,0.00147
5510.12723,0.00195
5508.19859,0.00215
5506.26995,0.00182
5504.34130,0.00150
5502.41266,0.00136
5500.48402,0.00162
5498.55538,0.00262
5496.62674,0.00380
5494.69810,0.00363
5492.76946,0.00239
5490.84082,0.00141
5488.91218,0.00110
5486.98354,0.00225
5485.05489,0.00287
5483.12625,0.00078
5481.19761,0.00081
5479.26897,0.00102
5477.34033,0.00117
5475.41169,0.00102
5473.48305,0.00140
5471.55441,0.00166
5469.62577,0.00123
5467.69713,0.00079
5465.76849,0.00087
5463.83984,0.00125
5461.91120,0.00159
5459.98256,0.00135
5458.05392,0.00123
5456.12528,0.00202
5454.19664,0.00325
5452.26800,0.00333
5450.33936,0.00226
5448.41072,0.00171
5446.48208,0.00207
5444.55343,0.00159
5442.62479,0.00055
5440.69615,0.00007
5438.76751,0.00065
5436.83887,0.00137
5434.91023,0.00085
5432.98159,0.00092
5431.05295,0.00243
5429.12431,0.00192
5427.19567,0.00035
5425.26703,0.00029
5423.33838,0.00166
5421.40974,0.00187
5419.48110,0.00294
5417.55246,0.00403
5415.62382,0.00358
5413.69518,0.00230
5411.76654,0.00097
5409.83790,0.00005
5407.90926,0.00172
5405.98062,0.00202
5404.05197,0.00229
5402.12333,0.00263
5400.19469,0.00185
5398.26605,0.00066
5396.33741,0.00162
5394.40877,0.00008
5392.48013,0.00060
5390.55149,0.00244
5388.62285,0.00308
5386.69421,0.00215
5384.76556,0.00042
5382.83692,-0.00009
5380.90828,0.00105
5378.97964,0.00179
5377.05100,0.00226
5375.12236,0.00244
5373.19372,0.00213
5371.26508,0.00183
5369.33644,0.00206
5367.40780,0.00220
5365.47916,0.00191
5363.55051,0.00083
5361.62187,0.00080
5359.69323,0.00153
5357.76459,0.00257
5355.83595,0.00261
5353.90731,0.00215
5351.97867,0.00150
5350.05003,0.00120
5348.12139,0.00128
5346.19275,0.00088
5344.26410,0.00034
5342.33546,0.00068
5340.40682,0.00096
5338.47818,0.00115
5336.54954,0.00109
5334.62090,0.00107
5332.69226,0.00041
5330.76362,0.00084
5328.83498,0.00206
5326.90634,0.00263
5324.97770,0.00250
5323.04905,0.00229
5321.12041,0.00266
5319.19177,0.00309
5317.26313,0.00295
5315.33449,0.00248
5313.40585,0.00199
5311.47721,0.00162
5309.54857,0.00130
5307.61993,0.00116
5305.69129,0.00146
5303.76264,0.00275
5301.83400,0.00307
5299.90536,0.00217
5297.97672,0.00294
5296.04808,0.00414
5294.11944,0.00329
5292.19080,0.00148
5290.26216,-0.00016
5288.33352,0.00023
5286.40488,0.00109
5284.47623,0.00146
5282.54759,0.00126
5280.61895,0.00144
5278.69031,0.00209
5276.76167,0.00258
5274.83303,0.00275
5272.90439,0.00265
5270.97575,0.00223
5269.04711,0.00164
5267.11847,0.00116
5265.18983,0.00111
5263.26118,0.00057
5261.33254,0.00096
5259.40390,0.00156
5257.47526,0.00145
5255.54662,0.00075
5253.61798,0.00100
5251.68934,0.00182
5249.76070,0.00178
5247.83206,0.00079
5245.90342,0.00090
5243.97477,0.00101
5242.04613,0.00177
5240.11749,0.00273
5238.18885,0.00297
5236.26021,0.00268
5234.33157,0.00203
5232.40293,0.00109
5230.47429,0.00252
5228.54565,0.00306
5226.61701,0.00324
5224.68837,0.00339
5222.75972,0.00299
5220.83108,0.00215
5218.90244,0.00128
5216.97380,0.00134
5215.04516,0.00234
5213.11652,0.00255
5211.18788,0.00179
5209.25924,0.00131
5207.33060,0.00132
5205.40196,0.00205
5203.47331,0.00321
5201.54467,0.00305
5199.61603,0.00176
5197.68739,0.00124
5195.75875,0.00108
5193.83011,0.00061
5191.90147,0.00088
5189.97283,0.00154
5188.04419,0.00187
5186.11555,0.00211
5184.18690,0.00289
5182.25826,0.00326
5180.32962,0.00186
5178.40098,0.00054
5176.47234,0.00161
5174.54370,0.00159
5172.61506,0.00158
5170.68642,0.00199
5168.75778,0.00204
5166.82914,0.00189
5164.90050,0.00257
5162.97185,0.00270
5161.04321,0.00247
5159.11457,0.00207
5157.18593,0.00184
5155.25729,0.00206
5153.32865,0.00196
5151.40001,0.00114
5149.47137,0.00067
5147.54273,0.00099
5145.61409,0.00135
5143.68544,0.00155
5141.75680,0.00148
5139.82816,0.00140
5137.89952,0.00121
5135.97088,0.00097
5134.04224,0.00117
5132.11360,0.00122
5130.18496,0.00113
5128.25632,0.00122
5126.32768,0.00092
5124.39904,0.00001
5122.47039,-0.00007
5120.54175,0.00058
5118.61311,0.00113
5116.68447,0.00182
5114.75583,0.00250
5112.82719,0.00291
5110.89855,0.00274
5108.96991,0.00236
5107.04127,0.00217
5105.11263,0.00218
5103.18398,0.00267
5101.25534,0.00297
5099.32670,0.00234
5097.39806,0.00145
5095.46942,0.00091
5093.54078,0.00020
5091.61214,-0.00007
5089.68350,0.00060
5087.75486,0.00173
5085.82622,0.00273
5083.89757,0.00302
5081.96893,0.00258
5080.04029,0.00201
5078.11165,0.00111
5076.18301,0.00034
5074.25437,0.00049
5072.32573,0.00176
5070.39709,0.00297
5068.46845,0.00330
5066.53981,0.00289
5064.61117,0.00233
5062.68252,0.00198
5060.75388,0.00197
5058.82524,0.00184
5056.89660,0.00120
5054.96796,0.00051
5053.03932,0.00059
5051.11068,0.00142
5049.18204,0.00254
5047.25340,0.00303
5045.32476,0.00243
5043.39611,0.00157
5041.46747,0.00111
5039.53883,0.00069
5037.61019,0.00058
5035.68155,0.00123
5033.75291,0.00154
5031.82427,0.00059
5029.89563,0.00023
5027.96699,0.00103
5026.03835,0.00108
5024.10971,0.00121
5022.18106,0.00186
5020.25242,0.00241
5018.32378,0.00259
5016.39514,0.00243
5014.46650,0.00213
5012.53786,0.00161
5010.60922,0.00089
5008.68058,0.00053
5006.75194,0.00082
5004.82330,0.00017
5002.89465,0.00071
5000.96601,0.00202
4999.03737,0.00217
4997.10873,0.00179
4995.18009,0.00170
4993.25145,0.00137
4991.32281,0.00139
4989.39417,0.00209
4987.46553,0.00291
4985.53689,0.00302
4983.60824,0.00231
4981.67960,0.00146
4979.75096,0.00095
4977.82232,0.00046
4975.89368,0.00077
4973.96504,0.00128
4972.03640,0.00152
4970.10776,0.00129
4968.17912,0.00154
4966.25048,0.00247
4964.32184,0.00338
4962.39319,0.00320
4960.46455,0.00205
4958.53591,0.00146
4956.60727,0.00175
4954.67863,0.00157
4952.74999,0.00102
4950.82135,0.00075
4948.89271,0.00077
4946.96407,0.00139
4945.03543,0.00211
4943.10678,0.00219
4941.17814,0.00181
4939.24950,0.00113
4937.32086,0.00096
4935.39222,0.00156
4933.46358,0.00181
4931.53494,0.00166
4929.60630,0.00173
4927.67766,0.00154
4925.74902,0.00144
4923.82038,0.00157
4921.89173,0.00187
4919.96309,0.00216
4918.03445,0.00238
4916.10581,0.00257
4914.17717,0.00284
4912.24853,0.00301
4910.31989,0.00270
4908.39125,0.00190
4906.46261,0.00132
4904.53397,0.00126
4902.60532,0.00191
4900.67668,0.00287
4898.74804,0.00336
4896.81940,0.00291
4894.89076,0.00205
4892.96212,0.00110
4891.03348,0.00038
4889.10484,0.00070
4887.17620,0.00171
4885.24756,0.00190
4883.31891,0.00141
4881.39027,0.00084
4879.46163,0.00048
4877.53299,0.00056
4875.60435,0.00091
4873.67571,0.00060
4871.74707,0.00039
4869.81843,0.00121
4867.88979,0.00216
4865.96115,0.00209
4864.03251,0.00144
4862.10386,0.00111
4860.17522,0.00134
4858.24658,0.00143
4856.31794,0.00114
4854.38930,0.00108
4852.46066,0.00105
4850.53202,0.00102
4848.60338,0.00110
4846.67474,0.00091
4844.74610,0.00075
4842.81745,0.00069
4840.88881,0.00104
4838.96017,0.00118
4837.03153,0.00157
4835.10289,0.00232
4833.17425,0.00273
4831.24561,0.00245
4829.31697,0.00190
4827.38833,0.00152
4825.45969,0.00146
4823.53105,0.00146
4821.60240,0.00147
4819.67376,0.00130
4817.74512,0.00134
4815.81648,0.00165
4813.88784,0.00166
4811.95920,0.00169
4810.03056,0.00245
4808.10192,0.00295
4806.17328,0.00265
4804.24464,0.00227
4802.31599,0.00163
4800.38735,0.00072
4798.45871,0.00058
4796.53007,0.00120
4794.60143,0.00151
4792.67279,0.00144
4790.74415,0.00126
4788.81551,0.00100
4786.88687,0.00082
4784.95823,0.00099
4783.02958,0.00150
4781.10094,0.00198
4779.17230,0.00206
4777.24366,0.00203
4775.31502,0.00209
4773.38638,0.00198
4771.45774,0.00211
4769.52910,0.00253
4767.60046,0.00298
4765.67182,0.00313
4763.74318,0.00280
4761.81453,0.00229
4759.88589,0.00192
4757.95725,0.00146
4756.02861,0.00103
4754.09997,0.00103
4752.17133,0.00122
4750.24269,0.00114
4748.31405,0.00116
4746.38541,0.00153
4744.45677,0.00209
4742.52812,0.00243
4740.59948,0.00244
4738.67084,0.00197
4736.74220,0.00125
4734.81356,0.00063
4732.88492,0.00052
4730.95628,0.00076
4729.02764,0.00093
4727.09900,0.00136
4725.17036,0.00195
4723.24172,0.00164
4721.31307,0.00111
4719.38443,0.00138
4717.45579,0.00169
4715.52715,0.00163
4713.59851,0.00150
4711.66987,0.00124
4709.74123,0.00095
4707.81259,0.00078
4705.88395,0.00094
4703.95531,0.00109
4702.02666,0.00104
4700.09802,0.00103
4698.16938,0.00107
4696.24074,0.00095
4694.31210,0.00081
4692.38346,0.00039
4690.45482,0.00065
4688.52618,0.00127
4686.59754,0.00149
4684.66890,0.00126
4682.74025,0.00113
4680.81161,0.00098
4678.88297,0.00089
4676.95433,0.00104
4675.02569,0.00133
4673.09705,0.00154
4671.16841,0.00136
4669.23977,0.00074
4667.31113,0.00053
4665.38249,0.00057
4663.45385,0.00075
4661.52520,0.00101
4659.59656,0.00118
4657.66792,0.00174
4655.73928,0.00206
4653.81064,0.00157
4651.88200,0.00092
4649.95336,0.00080
4648.02472,0.00108
4646.09608,0.00081
4644.16744,0.00062
4642.23879,0.00124
4640.31015,0.00190
4638.38151,0.00169
4636.45287,0.00119
4634.52423,0.00110
4632.59559,0.00121
4630.66695,0.00094
4628.73831,0.00044
4626.80967,0.00039
4624.88103,0.00096
4622.95239,0.00152
4621.02374,0.00199
4619.09510,0.00248
4617.16646,0.00244
4615.23782,0.00164
4613.30918,0.00104
4611.38054,0.00125
4609.45190,0.00172
4607.52326,0.00170
4605.59462,0.00131
4603.66598,0.00116
4601.73733,0.00123
4599.80869,0.00114
4597.88005,0.00101
4595.95141,0.00082
4594.02277,0.00050
4592.09413,0.00045
4590.16549,0.00071
4588.23685,0.00098
4586.30821,0.00140
4584.37957,0.00202
4582.45092,0.00257
4580.52228,0.00266
4578.59364,0.00189
4576.66500,0.00086
4574.73636,0.00037
4572.80772,0.00038
4570.87908,0.00131
4568.95044,0.00175
4567.02180,0.00183
4565.09316,0.00166
4563.16452,0.00111
4561.23587,0.00048
4559.30723,0.00053
4557.37859,0.00130
4555.44995,0.00195
4553.52131,0.00174
4551.59267,0.00119
4549.66403,0.00081
4547.73539,0.00041
4545.80675,0.00037
4543.87811,0.00094
4541.94946,0.00154
4540.02082,0.00168
4538.09218,0.00138
4536.16354,0.00094
4534.23490,0.00072
4532.30626,0.00095
4530.37762,0.00132
4528.44898,0.00163
4526.52034,0.00150
4524.59170,0.00147
4522.66306,0.00179
4520.73441,0.00153
4518.80577,0.00047
4516.87713,-0.00009
4514.94849,0.00033
4513.01985,0.00118
4511.09121,0.00145
4509.16257,0.00131
4507.23393,0.00122
4505.30529,0.00126
4503.37665,0.00137
4501.44800,0.00150
4499.51936,0.00155
4497.59072,0.00138
4495.66208,0.00122
4493.73344,0.00131
4491.80480,0.00119
4489.87616,0.00096
4487.94752,0.00136
4486.01888,0.00204
4484.09024,0.00186
4482.16159,0.00104
4480.23295,0.00066
4478.30431,0.00118
4476.37567,0.00164
4474.44703,0.00149
4472.51839,0.00155
4470.58975,0.00210
4468.66111,0.00207
4466.73247,0.00132
4464.80383,0.00103
4462.87519,0.00157
4460.94654,0.00214
4459.01790,0.00214
4457.08926,0.00162
4455.16062,0.00101
4453.23198,0.00070
4451.30334,0.00076
4449.37470,0.00104
4447.44606,0.00118
4445.51742,0.00107
4443.58878,0.00111
4441.66013,0.00138
4439.73149,0.00161
4437.80285,0.00129
4435.87421,0.00102
4433.94557,0.00108
4432.01693,0.00141
4430.08829,0.00153
4428.15965,0.00138
4426.23101,0.00105
4424.30237,0.00096
4422.37373,0.00118
4420.44508,0.00152
4418.51644,0.00165
4416.58780,0.00155
4414.65916,0.00118
4412.73052,0.00119
4410.80188,0.00187
4408.87324,0.00228
4406.94460,0.00181
4405.01596,0.00104
4403.08732,0.00079
4401.15867,0.00126
4399.23003,0.00169
4397.30139,0.00160
4395.37275,0.00136
4393.44411,0.00126
4391.51547,0.00121
4389.58683,0.00123
4387.65819,0.00124
4385.72955,0.00139
4383.80091,0.00168
4381.87226,0.00207
4379.94362,0.00200
4378.01498,0.00161
4376.08634,0.00147
4374.15770,0.00148
4372.22906,0.00133
4370.30042,0.00096
4368.37178,0.00050
4366.44314,0.00074
4364.51450,0.00095
4362.58586,0.00093
4360.65721,0.00113
4358.72857,0.00129
4356.79993,0.00116
4354.87129,0.00126
4352.94265,0.00149
4351.01401,0.00156
4349.08537,0.00098
4347.15673,0.00087
4345.22809,0.00178
4343.29945,0.00244
4341.37080,0.00201
4339.44216,0.00130
4337.51352,0.00073
4335.58488,0.00040
4333.65624,0.00029
4331.72760,0.00050
4329.79896,0.00063
4327.87032,0.00049
4325.94168,0.00036
4324.01304,0.00056
4322.08440,0.00085
4320.15575,0.00110
4318.22711,0.00127
4316.29847,0.00123
4314.36983,0.00094
4312.44119,0.00090
4310.51255,0.00112
4308.58391,0.00130
4306.65527,0.00141
4304.72663,0.00154
4302.79799,0.00148
4300.86934,0.00114
4298.94070,0.00080
4297.01206,0.00099
4295.08342,0.00136
4293.15478,0.00154
4291.22614,0.00137
4289.29750,0.00102
4287.36886,0.00089
4285.44022,0.00108
4283.51158,0.00136
4281.58293,0.00160
4279.65429,0.00150
4277.72565,0.00130
4275.79701,0.00114
4273.86837,0.00135
4271.93973,0.00196
4270.01109,0.00231
4268.08245,0.00199
4266.15381,0.00103
4264.22517,0.00038
4262.29653,0.00091
4260.36788,0.00170
4258.43924,0.00171
4256.51060,0.00148
4254.58196,0.00177
4252.65332,0.00197
4250.72468,0.00163
4248.79604,0.00133
4246.86740,0.00150
4244.93876,0.00176
4243.01012,0.00211
4241.08147,0.00239
4239.15283,0.00200
4237.22419,0.00138
4235.29555,0.00134
4233.36691,0.00132
4231.43827,0.00115
4229.50963,0.00139
4227.58099,0.00185
4225.65235,0.00193
4223.72371,0.00174
4221.79507,0.00147
4219.86642,0.00124
4217.93778,0.00113
4216.00914,0.00102
4214.08050,0.00075
4212.15186,0.00098
4210.22322,0.00157
4208.29458,0.00162
4206.36594,0.00104
4204.43730,0.00081
4202.50866,0.00117
4200.58001,0.00158
4198.65137,0.00159
4196.72273,0.00153
4194.79409,0.00177
4192.86545,0.00204
4190.93681,0.00194
4189.00817,0.00167
4187.07953,0.00171
4185.15089,0.00198
4183.22225,0.00193
4181.29360,0.00173
4179.36496,0.00175
4177.43632,0.00186
4175.50768,0.00196
4173.57904,0.00201
4171.65040,0.00204
4169.72176,0.00215
4167.79312,0.00211
4165.86448,0.00173
4163.93584,0.00117
4162.00720,0.00099
4160.07855,0.00117
4158.14991,0.00135
4156.22127,0.00140
4154.29263,0.00132
4152.36399,0.00106
4150.43535,0.00075
4148.50671,0.00069
4146.57807,0.00094
4144.64943,0.00117
4142.72079,0.00128
4140.79214,0.00127
4138.86350,0.00155
4136.93486,0.00190
4135.00622,0.00173
4133.07758,0.00115
4131.14894,0.00114
4129.22030,0.00154
4127.29166,0.00166
4125.36302,0.00153
4123.43438,0.00143
4121.50574,0.00134
4119.57709,0.00131
4117.64845,0.00114
4115.71981,0.00080
4113.79117,0.00057
4111.86253,0.00060
4109.93389,0.00100
4108.00525,0.00149
4106.07661,0.00166
4104.14797,0.00150
4102.21933,0.00120
4100.29068,0.00099
4098.36204,0.00112
4096.43340,0.00150
4094.50476,0.00186
4092.57612,0.00203
4090.64748,0.00205
4088.71884,0.00206
4086.79020,0.00191
4084.86156,0.00174
4082.93292,0.00168
4081.00427,0.00175
4079.07563,0.00173
4077.14699,0.00143
4075.21835,0.00095
4073.28971,0.00075
4071.36107,0.00105
4069.43243,0.00174
4067.50379,0.00227
4065.57515,0.00226
4063.64651,0.00187
4061.71787,0.00150
4059.78922,0.00125
4057.86058,0.00108
4055.93194,0.00096
4054.00330,0.00098
4052.07466,0.00120
4050.14602,0.00155
4048.21738,0.00169
4046.28874,0.00144
4044.36010,0.00084
4042.43146,0.00037
4040.50281,0.00037
4038.57417,0.00086
4036.64553,0.00137
4034.71689,0.00160
4032.78825,0.00152
4030.85961,0.00147
4028.93097,0.00155
4027.00233,0.00182
4025.07369,0.00195
4023.14505,0.00172
4021.21641,0.00155
4019.28776,0.00171
4017.35912,0.00157
4015.43048,0.00112
4013.50184,0.00100
4011.57320,0.00123
4009.64456,0.00123
4007.71592,0.00107
4005.78728,0.00123
4003.85864,0.00145
4001.93000,0.00149
4000.00135,0.00156
3998.07271,0.00143
3996.14407,0.00105
3994.21543,0.00087
3992.28679,0.00111
3990.35815,0.00157
3988.42951,0.00180
3986.50087,0.00173
3984.57223,0.00165
3982.64359,0.00147
3980.71494,0.00106
3978.78630,0.00068
3976.85766,0.00050
3974.92902,0.00058
3973.00038,0.00093
3971.07174,0.00141
3969.14310,0.00152
3967.21446,0.00119
3965.28582,0.00109
3963.35718,0.00127
3961.42854,0.00122
3959.49989,0.00113
3957.57125,0.00136
3955.64261,0.00175
3953.71397,0.00200
3951.78533,0.00176
3949.85669,0.00137
3947.92805,0.00145
3945.99941,0.00181
3944.07077,0.00199
3942.14213,0.00195
3940.21348,0.00168
3938.28484,0.00131
3936.35620,0.00120
3934.42756,0.00145
3932.49892,0.00180
3930.57028,0.00186
3928.64164,0.00145
3926.71300,0.00097
3924.78436,0.00102
3922.85572,0.00159
3920.92708,0.00196
3918.99843,0.00185
3917.06979,0.00147
3915.14115,0.00129
3913.21251,0.00130
3911.28387,0.00123
3909.35523,0.00111
3907.42659,0.00114
3905.49795,0.00127
3903.56931,0.00137
3901.64067,0.00125
3899.71202,0.00110
3897.78338,0.00110
3895.85474,0.00123
3893.92610,0.00144
3891.99746,0.00165
3890.06882,0.00170
3888.14018,0.00155
3886.21154,0.00140
3884.28290,0.00142
3882.35426,0.00130
3880.42561,0.00092
3878.49697,0.00086
3876.56833,0.00126
3874.63969,0.00157
3872.71105,0.00161
3870.78241,0.00148
3868.85377,0.00138
3866.92513,0.00125
3864.99649,0.00117
3863.06785,0.00146
3861.13921,0.00174
3859.21056,0.00154
3857.28192,0.00125
3855.35328,0.00133
3853.42464,0.00179
3851.49600,0.00202
3849.56736,0.00183
3847.63872,0.00156
3845.71008,0.00144
3843.78144,0.00133
3841.85280,0.00118
3839.92415,0.00122
3837.99551,0.00141
3836.06687,0.00145
3834.13823,0.00169
3832.20959,0.00206
3830.28095,0.00231
3828.35231,0.00223
3826.42367,0.00195
3824.49503,0.00166
3822.56639,0.00129
3820.63775,0.00110
3818.70910,0.00144
3816.78046,0.00176
3814.85182,0.00177
3812.92318,0.00181
3810.99454,0.00197
3809.06590,0.00182
3807.13726,0.00139
3805.20862,0.00094
3803.27998,0.00101
3801.35134,0.00150
3799.42269,0.00195
3797.49405,0.00187
3795.56541,0.00139
3793.63677,0.00111
3791.70813,0.00112
3789.77949,0.00112
3787.85085,0.00139
3785.92221,0.00192
3783.99357,0.00198
3782.06493,0.00139
3780.13628,0.00098
3778.20764,0.00119
3776.27900,0.00155
3774.35036,0.00150
3772.42172,0.00130
3770.49308,0.00121
3768.56444,0.00133
3766.63580,0.00159
3764.70716,0.00193
3762.77852,0.00223
3760.84988,0.00246
3758.92123,0.00243
3756.99259,0.00212
3755.06395,0.00176
3753.13531,0.00144
3751.20667,0.00106
3749.27803,0.00084
3747.34939,0.00100
3745.42075,0.00135
3743.49211,0.00161
3741.56347,0.00169
3739.63482,0.00165
3737.70618,0.00159
3735.77754,0.00143
3733.84890,0.00107
3731.92026,0.00063
3729.99162,0.00050
3728.06298,0.00079
3726.13434,0.00132
3724.20570,0.00172
3722.27706,0.00190
3720.34842,0.00187
3718.41977,0.00181
3716.49113,0.00168
3714.56249,0.00152
3712.63385,0.00146
3710.70521,0.00154
3708.77657,0.00158
3706.84793,0.00150
3704.91929,0.00149
3702.99065,0.00167
3701.06201,0.00168
3699.13336,0.00144
3697.20472,0.00134
3695.27608,0.00134
3693.34744,0.00111
3691.41880,0.00085
3689.49016,0.00079
3687.56152,0.00107
3685.63288,0.00130
3683.70424,0.00137
3681.77560,0.00161
3679.84695,0.00210
3677.91831,0.00211
3675.98967,0.00152
3674.06103,0.00108
3672.13239,0.00085
3670.20375,0.00064
3668.27511,0.00078
3666.34647,0.00117
3664.41783,0.00140
3662.48919,0.00144
3660.56055,0.00156
3658.63190,0.00170
3656.70326,0.00178
3654.77462,0.00162
3652.84598,0.00142
3650.91734,0.00118
3648.98870,0.00105
3647.06006,0.00106
3645.13142,0.00104
3643.20278,0.00110
3641.27414,0.00153
3639.34549,0.00197
3637.41685,0.00200
3635.48821,0.00170
3633.55957,0.00132
3631.63093,0.00090
3629.70229,0.00064
3627.77365,0.00084
3625.84501,0.00144
3623.91637,0.00170
3621.98773,0.00163
3620.05909,0.00172
3618.13044,0.00187
3616.20180,0.00184
3614.27316,0.00178
3612.34452,0.00173
3610.41588,0.00161
3608.48724,0.00150
3606.55860,0.00160
3604.62996,0.00175
3602.70132,0.00198
3600.77268,0.00235
3598.84403,0.00244
3596.91539,0.00205
3594.98675,0.00158
3593.05811,0.00142
3591.12947,0.00141
3589.20083,0.00128
3587.27219,0.00111
3585.34355,0.00130
3583.41491,0.00173
3581.48627,0.00194
3579.55762,0.00189
3577.62898,0.00172
3575.70034,0.00174
3573.77170,0.00206
3571.84306,0.00232
3569.91442,0.00226
3567.98578,0.00201
3566.05714,0.00163
3564.12850,0.00145
3562.19986,0.00169
3560.27122,0.00186
3558.34257,0.00165
3556.41393,0.00132
3554.48529,0.00110
3552.55665,0.00102
3550.62801,0.00094
3548.69937,0.00091
3546.77073,0.00100
3544.84209,0.00120
3542.91345,0.00138
3540.98481,0.00143
3539.05616,0.00151
3537.12752,0.00166
3535.19888,0.00164
3533.27024,0.00177
3531.34160,0.00207
3529.41296,0.00209
3527.48432,0.00169
3525.55568,0.00129
3523.62704,0.00124
3521.69840,0.00155
3519.76976,0.00193
3517.84111,0.00208
3515.91247,0.00193
3513.98383,0.00172
3512.05519,0.00170
3510.12655,0.00177
3508.19791,0.00168
3506.26927,0.00143
3504.34063,0.00101
3502.41199,0.00071
3500.48335,0.00083
3498.55470,0.00106
3496.62606,0.00124
3494.69742,0.00162
3492.76878,0.00177
3490.84014,0.00150
3488.91150,0.00131
3486.98286,0.00158
3485.05422,0.00199
3483.12558,0.00229
3481.19694,0.00221
3479.26829,0.00169
3477.33965,0.00113
3475.41101,0.00104
3473.48237,0.00141
3471.55373,0.00200
3469.62509,0.00226
3467.69645,0.00211
3465.76781,0.00185
3463.83917,0.00186
3461.91053,0.00192
3459.98189,0.00169
3458.05324,0.00126
3456.12460,0.00093
3454.19596,0.00105
3452.26732,0.00150
3450.33868,0.00172
3448.41004,0.00170
3446.48140,0.00160
3444.55276,0.00128
3442.62412,0.00098
3440.69548,0.00105
3438.76683,0.00126
3436.83819,0.00132
3434.90955,0.00138
3432.98091,0.00174
3431.05227,0.00224
3429.12363,0.00243
3427.19499,0.00206
3425.26635,0.00167
3423.33771,0.00188
3421.40907,0.00214
3419.48043,0.00183
3417.55178,0.00152
3415.62314,0.00181
3413.69450,0.00217
3411.76586,0.00195
3409.83722,0.00158
3407.90858,0.00161
3405.97994,0.00167
3404.05130,0.00123
3402.12266,0.00068
3400.19402,0.00063
3398.26537,0.00083
3396.33673,0.00082
3394.40809,0.00092
3392.47945,0.00113
3390.55081,0.00125
3388.62217,0.00136
3386.69353,0.00137
3384.76489,0.00128
3382.83625,0.00132
3380.90761,0.00144
3378.97896,0.00134
3377.05032,0.00115
3375.12168,0.00137
3373.19304,0.00170
3371.26440,0.00158
3369.33576,0.00117
3367.40712,0.00093
3365.47848,0.00107
3363.54984,0.00125
3361.62120,0.00109
3359.69256,0.00090
3357.76391,0.00081
3355.83527,0.00086
3353.90663,0.00109
3351.97799,0.00141
3350.04935,0.00153
3348.12071,0.00160
3346.19207,0.00194
3344.26343,0.00207
3342.33479,0.00170
3340.40615,0.00156
3338.47750,0.00177
3336.54886,0.00190
3334.62022,0.00172
3332.69158,0.00142
3330.76294,0.00121
3328.83430,0.00138
3326.90566,0.00180
3324.97702,0.00175
3323.04838,0.00133
3321.11974,0.00115
3319.19109,0.00132
3317.26245,0.00159
3315.33381,0.00174
3313.40517,0.00185
3311.47653,0.00171
3309.54789,0.00125
3307.61925,0.00090
3305.69061,0.00092
3303.76197,0.00098
3301.83333,0.00084
3299.90469,0.00089
3297.97604,0.00129
3296.04740,0.00160
3294.11876,0.00169
3292.19012,0.00165
3290.26148,0.00137
3288.33284,0.00129
3286.40420,0.00161
3284.47556,0.00169
3282.54692,0.00131
3280.61828,0.00092
3278.68963,0.00108
3276.76099,0.00121
3274.83235,0.00095
3272.90371,0.00075
3270.97507,0.00091
3269.04643,0.00103
3267.11779,0.00105
3265.18915,0.00120
3263.26051,0.00134
3261.33187,0.00125
3259.40323,0.00126
3257.47458,0.00158
3255.54594,0.00185
3253.61730,0.00183
3251.68866,0.00172
3249.76002,0.00161
3247.83138,0.00165
3245.90274,0.00159
3243.97410,0.00115
3242.04546,0.00077
3240.11682,0.00090
3238.18817,0.00117
3236.25953,0.00118
3234.33089,0.00096
3232.40225,0.00094
3230.47361,0.00127
3228.54497,0.00158
3226.61633,0.00145
3224.68769,0.00118
3222.75905,0.00124
3220.83041,0.00162
3218.90176,0.00197
3216.97312,0.00217
3215.04448,0.00228
3213.11584,0.00208
3211.18720,0.00146
3209.25856,0.00098
3207.32992,0.00086
3205.40128,0.00096
3203.47264,0.00115
3201.54400,0.00128
3199.61536,0.00075
3197.68671,0.00032
3195.75807,0.00066
3193.82943,0.00146
3191.90079,0.00221
3189.97215,0.00254
3188.04351,0.00236
3186.11487,0.00190
3184.18623,0.00147
3182.25759,0.00125
3180.32895,0.00103
3178.40030,0.00069
3176.47166,0.00055
3174.54302,0.00094
3172.61438,0.00119
3170.68574,0.00141
3168.75710,0.00169
3166.82846,0.00159
3164.89982,0.00115
3162.97118,0.00104
3161.04254,0.00143
3159.11390,0.00182
3157.18525,0.00207
3155.25661,0.00231
3153.32797,0.00233
3151.39933,0.00210
3149.47069,0.00177
3147.54205,0.00149
3145.61341,0.00140
3143.68477,0.00172
3141.75613,0.00223
3139.82749,0.00250
3137.89884,0.00246
3135.97020,0.00229
3134.04156,0.00210
3132.11292,0.00189
3130.18428,0.00173
3128.25564,0.00178
3126.32700,0.00176
3124.39836,0.00135
3122.46972,0.00094
3120.54108,0.00091
3118.61243,0.00115
3116.68379,0.00158
3114.75515,0.00188
3112.82651,0.00193
3110.89787,0.00192
3108.96923,0.00182
3107.04059,0.00155
3105.11195,0.00133
3103.18331,0.00121
3101.25467,0.00111
3099.32603,0.00110
3097.39738,0.00142
3095.46874,0.00189
3093.54010,0.00212
3091.61146,0.00205
3089.68282,0.00178
3087.75418,0.00138
3085.82554,0.00138
3083.89690,0.00159
3081.96826,0.00159
3080.03962,0.00148
3078.11097,0.00157
3076.18233,0.00156
3074.25369,0.00153
3072.32505,0.00173
3070.39641,0.00178
3068.46777,0.00136
3066.53913,0.00096
3064.61049,0.00088
3062.68185,0.00089
3060.75321,0.00085
3058.82457,0.00103
3056.89592,0.00145
3054.96728,0.00167
3053.03864,0.00161
3051.11000,0.00161
3049.18136,0.00157
3047.25272,0.00153
3045.32408,0.00160
3043.39544,0.00152
3041.46680,0.00139
3039.53816,0.00166
3037.60951,0.00209
3035.68087,0.00212
3033.75223,0.00191
3031.82359,0.00170
3029.89495,0.00149
3027.96631,0.00143
3026.03767,0.00145
3024.10903,0.00138
3022.18039,0.00139
3020.25175,0.00156
3018.32310,0.00160
3016.39446,0.00151
3014.46582,0.00160
3012.53718,0.00178
3010.60854,0.00190
3008.67990,0.00191
3006.75126,0.00185
3004.82262,0.00187
3002.89398,0.00189
3000.96534,0.00180
2999.03670,0.00157
2997.10805,0.00130
2995.17941,0.00135
2993.25077,0.00165
2991.32213,0.00163
2989.39349,0.00114
2987.46485,0.00071
2985.53621,0.00077
2983.60757,0.00093
2981.67893,0.00093
2979.75029,0.00098
2977.82164,0.00136
2975.89300,0.00169
2973.96436,0.00172
2972.03572,0.00144
2970.10708,0.00112
2968.17844,0.00109
2966.24980,0.00137
2964.32116,0.00165
2962.39252,0.00176
2960.46388,0.00176
2958.53524,0.00162
2956.60659,0.00116
2954.67795,0.00087
2952.74931,0.00097
2950.82067,0.00123
2948.89203,0.00149
2946.96339,0.00175
2945.03475,0.00172
2943.10611,0.00155
2941.17747,0.00161
2939.24883,0.00175
2937.32018,0.00168
2935.39154,0.00159
2933.46290,0.00158
2931.53426,0.00157
2929.60562,0.00150
2927.67698,0.00159
2925.74834,0.00189
2923.81970,0.00206
2921.89106,0.00179
2919.96242,0.00142
2918.03377,0.00143
2916.10513,0.00167
2914.17649,0.00175
2912.24785,0.00177
2910.31921,0.00201
2908.39057,0.00222
2906.46193,0.00200
2904.53329,0.00169
2902.60465,0.00160
2900.67601,0.00146
2898.74737,0.00127
2896.81872,0.00142
2894.89008,0.00191
2892.96144,0.00221
2891.03280,0.00201
2889.10416,0.00162
2887.17552,0.00139
2885.24688,0.00142
2883.31824,0.00153
2881.38960,0.00153
2879.46096,0.00156
2877.53231,0.00179
2875.60367,0.00193
2873.67503,0.00171
2871.74639,0.00135
2869.81775,0.00121
2867.88911,0.00128
2865.96047,0.00136
2864.03183,0.00123
2862.10319,0.00109
2860.17455,0.00118
2858.24591,0.00135
2856.31726,0.00139
2854.38862,0.00136
2852.45998,0.00127
2850.53134,0.00133
2848.60270,0.00142
2846.67406,0.00128
2844.74542,0.00103
2842.81678,0.00097
2840.88814,0.00110
2838.95950,0.00130
2837.03085,0.00155
2835.10221,0.00179
2833.17357,0.00180
2831.24493,0.00163
2829.31629,0.00149
2827.38765,0.00150
2825.45901,0.00159
2823.53037,0.00165
2821.60173,0.00153
2819.67309,0.00130
2817.74444,0.00128
2815.81580,0.00142
2813.88716,0.00144
2811.95852,0.00139
2810.02988,0.00138
2808.10124,0.00149
2806.17260,0.00165
2804.24396,0.00166
2802.31532,0.00159
2800.38668,0.00156
2798.45804,0.00152
2796.52939,0.00155
2794.60075,0.00175
2792.67211,0.00199
2790.74347,0.00183
2788.81483,0.00143
2786.88619,0.00141
2784.95755,0.00166
2783.02891,0.00172
2781.10027,0.00163
2779.17163,0.00149
2777.24298,0.00138
2775.31434,0.00147
2773.38570,0.00168
2771.45706,0.00180
2769.52842,0.00188
2767.59978,0.00197
2765.67114,0.00192
2763.74250,0.00177
2761.81386,0.00167
2759.88522,0.00169
2757.95658,0.00179
2756.02793,0.00188
2754.09929,0.00187
2752.17065,0.00173
2750.24201,0.00152
2748.31337,0.00141
2746.38473,0.00142
2744.45609,0.00137
2742.52745,0.00131
2740.59881,0.00137
2738.67017,0.00146
2736.74152,0.00152
2734.81288,0.00167
2732.88424,0.00194
2730.95560,0.00204
2729.02696,0.00195
2727.09832,0.00197
2725.16968,0.00206
2723.24104,0.00196
2721.31240,0.00169
2719.38376,0.00138
2717.45511,0.00108
2715.52647,0.00100
2713.59783,0.00114
2711.66919,0.00126
2709.74055,0.00152
2707.81191,0.00193
2705.88327,0.00206
2703.95463,0.00179
2702.02599,0.00147
2700.09735,0.00137
2698.16871,0.00146
2696.24006,0.00170
2694.31142,0.00198
2692.38278,0.00203
2690.45414,0.00176
2688.52550,0.00160
2686.59686,0.00181
2684.66822,0.00198
2682.73958,0.00187
2680.81094,0.00168
2678.88230,0.00155
2676.95365,0.00157
2675.02501,0.00161
2673.09637,0.00164
2671.16773,0.00167
2669.23909,0.00155
2667.31045,0.00133
2665.38181,0.00129
2663.45317,0.00150
2661.52453,0.00180
2659.59589,0.00200
2657.66725,0.00188
2655.73860,0.00167
2653.80996,0.00170
2651.88132,0.00171
2649.95268,0.00155
2648.02404,0.00140
2646.09540,0.00127
2644.16676,0.00116
2642.23812,0.00140
2640.30948,0.00167
2638.38084,0.00167
2636.45219,0.00160
2634.52355,0.00165
2632.59491,0.00158
2630.66627,0.00133
2628.73763,0.00105
2626.80899,0.00104
2624.88035,0.00131
2622.95171,0.00159
2621.02307,0.00160
2619.09443,0.00154
2617.16578,0.00167
2615.23714,0.00186
2613.30850,0.00177
2611.37986,0.00161
2609.45122,0.00166
2607.52258,0.00176
2605.59394,0.00169
2603.66530,0.00157
2601.73666,0.00153
2599.80802,0.00146
2597.87938,0.00132
2595.95073,0.00128
2594.02209,0.00132
2592.09345,0.00151
2590.16481,0.00178
2588.23617,0.00193
2586.30753,0.00192
2584.37889,0.00173
2582.45025,0.00137
2580.52161,0.00112
2578.59297,0.00113
2576.66432,0.00120
2574.73568,0.00116
2572.80704,0.00128
2570.87840,0.00174
2568.94976,0.00223
2567.02112,0.00236
2565.09248,0.00219
2563.16384,0.00199
2561.23520,0.00182
2559.30656,0.00177
2557.37792,0.00183
2555.44927,0.00175
2553.52063,0.00156
2551.59199,0.00144
2549.66335,0.00130
2547.73471,0.00122
2545.80607,0.00133
2543.87743,0.00150
2541.94879,0.00160
2540.02015,0.00166
2538.09151,0.00182
2536.16286,0.00196
2534.23422,0.00173
2532.30558,0.00140
2530.37694,0.00158
2528.44830,0.00206
2526.51966,0.00225
2524.59102,0.00199
2522.66238,0.00160
2520.73374,0.00149
2518.80510,0.00164
2516.87645,0.00172
2514.94781,0.00171
2513.01917,0.00165
2511.09053,0.00151
2509.16189,0.00143
2507.23325,0.00155
2505.30461,0.00167
2503.37597,0.00157
2501.44733,0.00148
2499.51869,0.00168
2497.59005,0.00202
2495.66140,0.00220
2493.73276,0.00212
2491.80412,0.00196
2489.87548,0.00195
2487.94684,0.00207
2486.01820,0.00207
2484.08956,0.00194
2482.16092,0.00185
2480.23228,0.00187
2478.30364,0.00190
2476.37499,0.00187
2474.44635,0.00185
2472.51771,0.00188
2470.58907,0.00194
2468.66043,0.00187
2466.73179,0.00173
2464.80315,0.00182
2462.87451,0.00199
2460.94587,0.00191
2459.01723,0.00161
2457.08859,0.00143
2455.15994,0.00155
2453.23130,0.00178
2451.30266,0.00177
2449.37402,0.00161
2447.44538,0.00160
2445.51674,0.00172
2443.58810,0.00179
2441.65946,0.00173
2439.73082,0.00164
2437.80218,0.00167
2435.87353,0.00183
2433.94489,0.00200
2432.01625,0.00206
2430.08761,0.00194
2428.15897,0.00186
2426.23033,0.00185
2424.30169,0.00174
2422.37305,0.00163
2420.44441,0.00170
2418.51577,0.00181
2416.58712,0.00172
2414.65848,0.00149
2412.72984,0.00136
2410.80120,0.00135
2408.87256,0.00137
2406.94392,0.00141
2405.01528,0.00141
2403.08664,0.00148
2401.15800,0.00169
2399.22936,0.00194
2397.30072,0.00203
2395.37207,0.00193
2393.44343,0.00179
2391.51479,0.00176
2389.58615,0.00169
2387.65751,0.00160
2385.72887,0.00163
2383.80023,0.00176
2381.87159,0.00174
2379.94295,0.00159
2378.01431,0.00161
2376.08566,0.00173
2374.15702,0.00164
2372.22838,0.00139
2370.29974,0.00121
2368.37110,0.00110
2366.44246,0.00097
2364.51382,0.00086
2362.58518,0.00094
2360.65654,0.00128
2358.72790,0.00163
2356.79926,0.00176
2354.87061,0.00172
2352.94197,0.00157
2351.01333,0.00144
2349.08469,0.00140
2347.15605,0.00149
2345.22741,0.00159
2343.29877,0.00161
2341.37013,0.00162
2339.44149,0.00159
2337.51285,0.00142
2335.58420,0.00121
2333.65556,0.00111
2331.72692,0.00101
2329.79828,0.00095
2327.86964,0.00104
2325.94100,0.00124
2324.01236,0.00142
2322.08372,0.00155
2320.15508,0.00152
2318.22644,0.00133
2316.29779,0.00127
2314.36915,0.00145
2312.44051,0.00164
2310.51187,0.00170
2308.58323,0.00162
2306.65459,0.00142
2304.72595,0.00131
2302.79731,0.00137
2300.86867,0.00152
2298.94003,0.00164
2297.01139,0.00158
2295.08274,0.00141
2293.15410,0.00136
2291.22546,0.00142
2289.29682,0.00143
2287.36818,0.00132
2285.43954,0.00114
2283.51090,0.00114
2281.58226,0.00145
2279.65362,0.00182
2277.72498,0.00181
2275.79633,0.00151
2273.86769,0.00134
2271.93905,0.00132
2270.01041,0.00127
2268.08177,0.00141
2266.15313,0.00189
2264.22449,0.00223
2262.29585,0.00204
2260.36721,0.00167
2258.43857,0.00147
2256.50993,0.00149
2254.58128,0.00174
2252.65264,0.00206
2250.72400,0.00206
2248.79536,0.00184
2246.86672,0.00179
2244.93808,0.00192
2243.00944,0.00198
2241.08080,0.00200
2239.15216,0.00196
2237.22352,0.00187
2235.29487,0.00182
2233.36623,0.00176
2231.43759,0.00160
2229.50895,0.00151
2227.58031,0.00165
2225.65167,0.00179
2223.72303,0.00176
2221.79439,0.00171
2219.86575,0.00182
2217.93711,0.00202
2216.00846,0.00215
2214.07982,0.00208
2212.15118,0.00194
2210.22254,0.00194
2208.29390,0.00195
2206.36526,0.00183
2204.43662,0.00167
2202.50798,0.00149
2200.57934,0.00130
2198.65070,0.00127
2196.72206,0.00148
2194.79341,0.00168
2192.86477,0.00171
2190.93613,0.00175
2189.00749,0.00181
2187.07885,0.00173
2185.15021,0.00153
2183.22157,0.00132
2181.29293,0.00122
2179.36429,0.00135
2177.43565,0.00151
2175.50700,0.00145
2173.57836,0.00138
2171.64972,0.00158
2169.72108,0.00185
2167.79244,0.00188
2165.86380,0.00181
2163.93516,0.00178
2162.00652,0.00169
2160.07788,0.00156
2158.14924,0.00159
2156.22060,0.00177
2154.29195,0.00190
2152.36331,0.00193
2150.43467,0.00191
2148.50603,0.00191
2146.57739,0.00196
2144.64875,0.00203
2142.72011,0.00211
2140.79147,0.00216
2138.86283,0.00196
2136.93419,0.00155
2135.00554,0.00132
2133.07690,0.00139
2131.14826,0.00157
2129.21962,0.00175
2127.29098,0.00180
2125.36234,0.00171
2123.43370,0.00158
2121.50506,0.00157
2119.57642,0.00164
2117.64778,0.00175
2115.71913,0.00184
2113.79049,0.00179
2111.86185,0.00167
2109.93321,0.00162
2108.00457,0.00158
2106.07593,0.00155
2104.14729,0.00165
2102.21865,0.00182
2100.29001,0.00194
2098.36137,0.00213
2096.43273,0.00241
2094.50408,0.00264
2092.57544,0.00260
2090.64680,0.00231
2088.71816,0.00204
2086.78952,0.00201
2084.86088,0.00217
2082.93224,0.00232
2081.00360,0.00221
2079.07496,0.00190
2077.14632,0.00187
2075.21767,0.00212
2073.28903,0.00209
2071.36039,0.00175
2069.43175,0.00162
2067.50311,0.00187
2065.57447,0.00201
2063.64583,0.00186
2061.71719,0.00175
2059.78855,0.00178
2057.85991,0.00179
2055.93127,0.00178
2054.00262,0.00175
2052.07398,0.00168
2050.14534,0.00158
2048.21670,0.00155
2046.28806,0.00158
2044.35942,0.00166
2042.43078,0.00177
2040.50214,0.00191
2038.57350,0.00203
2036.64486,0.00199
2034.71621,0.00189
2032.78757,0.00189
2030.85893,0.00195
2028.93029,0.00202
2027.00165,0.00208
2025.07301,0.00209
2023.14437,0.00213
2021.21573,0.00216
2019.28709,0.00209
2017.35845,0.00187
2015.42980,0.00156
2013.50116,0.00138
2011.57252,0.00144
2009.64388,0.00159
2007.71524,0.00167
2005.78660,0.00179
2003.85796,0.00193
2001.92932,0.00198
2000.00068,0.00191
1998.07204,0.00177
1996.14340,0.00167
1994.21475,0.00171
1992.28611,0.00185
1990.35747,0.00196
1988.42883,0.00190
1986.50019,0.00169
1984.57155,0.00150
1982.64291,0.00142
1980.71427,0.00141
1978.78563,0.00149
1976.85699,0.00159
1974.92834,0.00163
1972.99970,0.00161
1971.07106,0.00156
1969.14242,0.00156
1967.21378,0.00170
1965.28514,0.00192
1963.35650,0.00205
1961.42786,0.00207
1959.49922,0.00203
1957.57058,0.00196
1955.64194,0.00188
1953.71329,0.00176
1951.78465,0.00165
1949.85601,0.00163
1947.92737,0.00175
1945.99873,0.00194
1944.07009,0.00209
1942.14145,0.00210
1940.21281,0.00199
1938.28417,0.00183
1936.35553,0.00171
1934.42688,0.00174
1932.49824,0.00189
1930.56960,0.00197
1928.64096,0.00192
1926.71232,0.00187
1924.78368,0.00193
1922.85504,0.00194
1920.92640,0.00169
1918.99776,0.00148
1917.06912,0.00156
1915.14047,0.00167
1913.21183,0.00168
1911.28319,0.00169
1909.35455,0.00167
1907.42591,0.00167
1905.49727,0.00166
1903.56863,0.00148
1901.63999,0.00136
1899.71135,0.00141
1897.78271,0.00145
1895.85407,0.00148
1893.92542,0.00152
1891.99678,0.00144
1890.06814,0.00125
1888.13950,0.00115
1886.21086,0.00127
1884.28222,0.00150
1882.35358,0.00170
1880.42494,0.00180
1878.49630,0.00179
1876.56766,0.00174
1874.63901,0.00177
1872.71037,0.00187
1870.78173,0.00195
1868.85309,0.00192
1866.92445,0.00184
1864.99581,0.00175
1863.06717,0.00177
1861.13853,0.00196
1859.20989,0.00208
1857.28125,0.00186
1855.35261,0.00152
1853.42396,0.00130
1851.49532,0.00130
1849.56668,0.00152
1847.63804,0.00169
1845.70940,0.00157
1843.78076,0.00145
1841.85212,0.00166
1839.92348,0.00203
1837.99484,0.00220
1836.06620,0.00205
1834.13755,0.00170
1832.20891,0.00151
1830.28027,0.00155
1828.35163,0.00159
1826.42299,0.00153
1824.49435,0.00162
1822.56571,0.00195
1820.63707,0.00220
1818.70843,0.00218
1816.77979,0.00201
1814.85114,0.00181
1812.92250,0.00169
1810.99386,0.00166
1809.06522,0.00152
1807.13658,0.00133
1805.20794,0.00131
1803.27930,0.00144
1801.35066,0.00159
1799.42202,0.00176
1797.49338,0.00191
1795.56474,0.00191
1793.63609,0.00177
1791.70745,0.00163
1789.77881,0.00151
1787.85017,0.00153
1785.92153,0.00182
1783.99289,0.00208
1782.06425,0.00202
1780.13561,0.00187
1778.20697,0.00172
1776.27833,0.00155
1774.34968,0.00149
1772.42104,0.00152
1770.49240,0.00155
1768.56376,0.00164
1766.63512,0.00179
1764.70648,0.00193
1762.77784,0.00201
1760.84920,0.00210
1758.92056,0.00217
1756.99192,0.00201
1755.06328,0.00176
1753.13463,0.00172
1751.20599,0.00173
1749.27735,0.00163
1747.34871,0.00158
1745.42007,0.00154
1743.49143,0.00145
1741.56279,0.00141
1739.63415,0.00154
1737.70551,0.00165
1735.77687,0.00150
1733.84822,0.00129
1731.91958,0.00144
1729.99094,0.00159
1728.06230,0.00155
1726.13366,0.00150
1724.20502,0.00160
1722.27638,0.00182
1720.34774,0.00202
1718.41910,0.00197
1716.49046,0.00175
1714.56181,0.00171
1712.63317,0.00182
1710.70453,0.00189
1708.77589,0.00190
1706.84725,0.00188
1704.91861,0.00188
1702.98997,0.00180
1701.06133,0.00155
1699.13269,0.00127
1697.20405,0.00117
1695.27541,0.00119
1693.34676,0.00117
1691.41812,0.00115
1689.48948,0.00132
1687.56084,0.00164
1685.63220,0.00184
1683.70356,0.00184
1681.77492,0.00178
1679.84628,0.00171
1677.91764,0.00159
1675.98900,0.00148
1674.06035,0.00152
1672.13171,0.00165
1670.20307,0.00169
1668.27443,0.00166
1666.34579,0.00173
1664.41715,0.00182
1662.48851,0.00172
1660.55987,0.00151
1658.63123,0.00157
1656.70259,0.00189
1654.77395,0.00215
1652.84530,0.00211
1650.91666,0.00192
1648.98802,0.00186
1647.05938,0.00185
1645.13074,0.00184
1643.20210,0.00192
1641.27346,0.00184
1639.34482,0.00164
1637.41618,0.00150
1635.48754,0.00143
1633.55889,0.00146
1631.63025,0.00148
1629.70161,0.00147
1627.77297,0.00151
1625.84433,0.00151
1623.91569,0.00147
1621.98705,0.00148
1620.05841,0.00149
1618.12977,0.00148
1616.20113,0.00144
1614.27248,0.00149
1612.34384,0.00176
1610.41520,0.00201
1608.48656,0.00199
1606.55792,0.00182
1604.62928,0.00162
1602.70064,0.00146
1600.77200,0.00142
1598.84336,0.00162
1596.91472,0.00202
1594.98608,0.00218
1593.05743,0.00203
1591.12879,0.00180
1589.20015,0.00165
1587.27151,0.00164
1585.34287,0.00172
1583.41423,0.00174
1581.48559,0.00177
1579.55695,0.00179
1577.62831,0.00164
1575.69967,0.00133
1573.77102,0.00105
1571.84238,0.00097
1569.91374,0.00129
1567.98510,0.00184
1566.05646,0.00217
1564.12782,0.00210
1562.19918,0.00199
1560.27054,0.00195
1558.34190,0.00178
1556.41326,0.00162
1554.48462,0.00162
1552.55597,0.00168
1550.62733,0.00173
1548.69869,0.00174
1546.77005,0.00165
1544.84141,0.00145
1542.91277,0.00131
1540.98413,0.00136
1539.05549,0.00139
1537.12685,0.00132
1535.19821,0.00140
1533.26956,0.00160
1531.34092,0.00172
1529.41228,0.00174
1527.48364,0.00176
1525.55500,0.00181
1523.62636,0.00184
1521.69772,0.00181
1519.76908,0.00185
1517.84044,0.00201
1515.91180,0.00209
1513.98315,0.00204
1512.05451,0.00190
1510.12587,0.00175
1508.19723,0.00182
1506.26859,0.00198
1504.33995,0.00195
1502.41131,0.00185
1500.48267,0.00175
1498.55403,0.00177
1496.62539,0.00196
1494.69675,0.00205
1492.76810,0.00194
1490.83946,0.00178
1488.91082,0.00166
1486.98218,0.00163
1485.05354,0.00166
1483.12490,0.00170
1481.19626,0.00181
1479.26762,0.00197
1477.33898,0.00191
1475.41034,0.00163
1473.48169,0.00149
1471.55305,0.00159
1469.62441,0.00175
1467.69577,0.00180
1465.76713,0.00173
1463.83849,0.00171
1461.90985,0.00181
1459.98121,0.00181
1458.05257,0.00172
1456.12393,0.00170
1454.19529,0.00177
1452.26664,0.00178
1450.33800,0.00171
1448.40936,0.00167
1446.48072,0.00176
1444.55208,0.00190
1442.62344,0.00195
1440.69480,0.00190
1438.76616,0.00185
1436.83752,0.00183
1434.90888,0.00184
1432.98023,0.00182
1431.05159,0.00169
1429.12295,0.00151
1427.19431,0.00141
1425.26567,0.00149
1423.33703,0.00170
1421.40839,0.00176
1419.47975,0.00170
1417.55111,0.00173
1415.62247,0.00181
1413.69382,0.00185
1411.76518,0.00181
1409.83654,0.00179
1407.90790,0.00184
1405.97926,0.00184
1404.05062,0.00189
1402.12198,0.00190
1400.19334,0.00168
1398.26470,0.00151
1396.33606,0.00153
1394.40742,0.00158
1392.47877,0.00164
1390.55013,0.00162
1388.62149,0.00148
1386.69285,0.00151
1384.76421,0.00185
1382.83557,0.00217
1380.90693,0.00223
1378.97829,0.00215
1377.04965,0.00213
1375.12101,0.00213
1373.19236,0.00206
1371.26372,0.00190
1369.33508,0.00174
1367.40644,0.00180
1365.47780,0.00210
1363.54916,0.00221
1361.62052,0.00223
1359.69188,0.00233
1357.76324,0.00230
1355.83460,0.00205
1353.90596,0.00185
1351.97731,0.00176
1350.04867,0.00169
1348.12003,0.00171
1346.19139,0.00183
1344.26275,0.00193
1342.33411,0.00192
1340.40547,0.00182
1338.47683,0.00175
1336.54819,0.00180
1334.61955,0.00192
1332.69090,0.00202
1330.76226,0.00208
1328.83362,0.00200
1326.90498,0.00181
1324.97634,0.00164
1323.04770,0.00157
1321.11906,0.00159
1319.19042,0.00163
1317.26178,0.00161
1315.33314,0.00167
1313.40449,0.00178
1311.47585,0.00180
1309.54721,0.00175
1307.61857,0.00179
1305.68993,0.00172
1303.76129,0.00137
1301.83265,0.00112
1299.90401,0.00133
1297.97537,0.00169
1296.04673,0.00195
1294.11809,0.00202
1292.18944,0.00183
1290.26080,0.00168
1288.33216,0.00183
1286.40352,0.00190
1284.47488,0.00174
1282.54624,0.00177
1280.61760,0.00204
1278.68896,0.00216
1276.76032,0.00201
1274.83168,0.00177
1272.90303,0.00156
1270.97439,0.00150
1269.04575,0.00162
1267.11711,0.00163
1265.18847,0.00149
1263.25983,0.00149
1261.33119,0.00154
1259.40255,0.00151
1257.47391,0.00155
1255.54527,0.00161
1253.61663,0.00174
1251.68798,0.00186
1249.75934,0.00187
1247.83070,0.00188
1245.90206,0.00189
1243.97342,0.00178
1242.04478,0.00179
1240.11614,0.00196
1238.18750,0.00213
1236.25886,0.00209
1234.33022,0.00168
1232.40157,0.00128
1230.47293,0.00129
1228.54429,0.00148
1226.61565,0.00160
1224.68701,0.00159
1222.75837,0.00158
1220.82973,0.00163
1218.90109,0.00174
1216.97245,0.00177
1215.04381,0.00174
1213.11516,0.00186
1211.18652,0.00236
1209.25788,0.00274
1207.32924,0.00251
1205.40060,0.00196
1203.47196,0.00168
1201.54332,0.00167
1199.61468,0.00158
1197.68604,0.00132
1195.75740,0.00119
1193.82876,0.00125
1191.90011,0.00139
1189.97147,0.00148
1188.04283,0.00152
1186.11419,0.00149
1184.18555,0.00149
1182.25691,0.00157
1180.32827,0.00162
1178.39963,0.00154
1176.47099,0.00136
1174.54235,0.00113
1172.61370,0.00105
1170.68506,0.00119
1168.75642,0.00134
1166.82778,0.00141
1164.89914,0.00160
1162.97050,0.00195
1161.04186,0.00230
1159.11322,0.00242
1157.18458,0.00213
1155.25594,0.00156
1153.32730,0.00140
1151.39865,0.00169
1149.47001,0.00184
1147.54137,0.00181
1145.61273,0.00175
1143.68409,0.00153
1141.75545,0.00120
1139.82681,0.00096
1137.89817,0.00113
1135.96953,0.00156
1134.04089,0.00168
1132.11224,0.00146
1130.18360,0.00123
1128.25496,0.00104
1126.32632,0.00098
1124.39768,0.00118
1122.46904,0.00137
1120.54040,0.00130
1118.61176,0.00120
1116.68312,0.00117
1114.75448,0.00140
1112.82583,0.00181
1110.89719,0.00197
1108.96855,0.00181
1107.03991,0.00160
1105.11127,0.00146
1103.18263,0.00143
1101.25399,0.00150
1099.32535,0.00165
1097.39671,0.00165
1095.46807,0.00144
1093.53943,0.00122
1091.61078,0.00122
1089.68214,0.00121
1087.75350,0.00140
1085.82486,0.00166
1083.89622,0.00178
1081.96758,0.00159
1080.03894,0.00119
1078.11030,0.00096
1076.18166,0.00113
1074.25302,0.00138
1072.32437,0.00160
1070.39573,0.00172
1068.46709,0.00171
1066.53845,0.00165
1064.60981,0.00163
1062.68117,0.00175
1060.75253,0.00196
1058.82389,0.00171
1056.89525,0.00124
1054.96661,0.00104
1053.03797,0.00106
1051.10932,0.00117
1049.18068,0.00146
1047.25204,0.00173
1045.32340,0.00195
1043.39476,0.00205
1041.46612,0.00192
1039.53748,0.00176
1037.60884,0.00197
1035.68020,0.00229
1033.75156,0.00241
1031.82291,0.00248
1029.89427,0.00245
1027.96563,0.00213
1026.03699,0.00177
1024.10835,0.00154
1022.17971,0.00140
1020.25107,0.00148
1018.32243,0.00164
1016.39379,0.00147
1014.46515,0.00113
1012.53650,0.00085
1010.60786,0.00075
1008.67922,0.00092
1006.75058,0.00127
1004.82194,0.00157
1002.89330,0.00163
1000.96466,0.00149
999.03602,0.00146
997.10738,0.00175
995.17874,0.00206
993.25010,0.00199
991.32145,0.00191
989.39281,0.00196
987.46417,0.00200
985.53553,0.00196
983.60689,0.00186
981.67825,0.00188
979.74961,0.00200
977.82097,0.00185
975.89233,0.00152
973.96369,0.00131
972.03504,0.00137
970.10640,0.00159
968.17776,0.00172
966.24912,0.00159
964.32048,0.00147
962.39184,0.00156
960.46320,0.00170
958.53456,0.00168
956.60592,0.00166
954.67728,0.00188
952.74864,0.00198
950.81999,0.00171
948.89135,0.00156
946.96271,0.00180
945.03407,0.00208
943.10543,0.00203
941.17679,0.00171
939.24815,0.00155
937.31951,0.00162
935.39087,0.00168
933.46223,0.00160
931.53358,0.00150
929.60494,0.00154
927.67630,0.00174
925.74766,0.00194
923.81902,0.00206
921.89038,0.00209
919.96174,0.00197
918.03310,0.00167
916.10446,0.00139
914.17582,0.00146
912.24717,0.00166
910.31853,0.00158
908.38989,0.00126
906.46125,0.00109
904.53261,0.00110
902.60397,0.00114
900.67533,0.00131
898.74669,0.00145
896.81805,0.00126
894.88941,0.00116
892.96077,0.00137
891.03212,0.00178
889.10348,0.00219
887.17484,0.00264
885.24620,0.00284
883.31756,0.00239
881.38892,0.00163
879.46028,0.00136
877.53164,0.00177
875.60300,0.00232
873.67436,0.00227
871.74571,0.00162
869.81707,0.00139
867.88843,0.00189
865.95979,0.00218
864.03115,0.00202
862.10251,0.00178
860.17387,0.00152
858.24523,0.00155
856.31659,0.00194
854.38795,0.00196
852.45931,0.00154
850.53066,0.00124
848.60202,0.00127
846.67338,0.00169
844.74474,0.00195
842.81610,0.00155
840.88746,0.00118
838.95882,0.00131
837.03018,0.00175
835.10154,0.00219
833.17290,0.00235
831.24425,0.00210
829.31561,0.00166
827.38697,0.00157
825.45833,0.00182
823.52969,0.00192
821.60105,0.00199
819.67241,0.00221
817.74377,0.00241
815.81513,0.00237
813.88649,0.00221
811.95784,0.00205
810.02920,0.00172
808.10056,0.00140
806.17192,0.00142
804.24328,0.00160
802.31464,0.00154
800.38600,0.00133
798.45736,0.00146
796.52872,0.00208
794.60008,0.00267
792.67144,0.00254
790.74279,0.00185
788.81415,0.00114
786.88551,0.00067
784.95687,0.00085
783.02823,0.00154
781.09959,0.00198
779.17095,0.00202
777.24231,0.00176
775.31367,0.00134
773.38503,0.00119
771.45638,0.00159
769.52774,0.00186
767.59910,0.00164
765.67046,0.00165
763.74182,0.00202
761.81318,0.00174
759.88454,0.00101
757.95590,0.00101
756.02726,0.00154
754.09862,0.00161
752.16998,0.00150
750.24133,0.00157
748.31269,0.00164
746.38405,0.00137
744.45541,0.00115
742.52677,0.00139
740.59813,0.00179
738.66949,0.00199
736.74085,0.00190
734.81221,0.00163
732.88357,0.00140
730.95492,0.00114
729.02628,0.00096
727.09764,0.00122
725.16900,0.00181
723.24036,0.00238
721.31172,0.00271
719.38308,0.00243
717.45444,0.00180
715.52580,0.00161
713.59716,0.00180
711.66851,0.00168
709.73987,0.00131
707.81123,0.00117
705.88259,0.00136
703.95395,0.00145
702.02531,0.00135
700.09667,0.00160
698.16803,0.00190
696.23939,0.00152
694.31075,0.00102
692.38211,0.00113
690.45346,0.00135
688.52482,0.00124
686.59618,0.00139
684.66754,0.00125
682.73890,0.00098
680.81026,0.00101
678.88162,0.00162
676.95298,0.00254
675.02434,0.00301
673.09570,0.00260
671.16705,0.00188
669.23841,0.00151
667.30977,0.00162
665.38113,0.00201
663.45249,0.00262
661.52385,0.00251
659.59521,0.00182
657.66657,0.00154
655.73793,0.00163
653.80929,0.00160
651.88065,0.00142
649.95200,0.00188
648.02336,0.00319
646.09472,0.00355
644.16608,0.00254
642.23744,0.00168
640.30880,0.00143
638.38016,0.00140
636.45152,0.00206
634.52288,0.00317
632.59424,0.00399
630.66559,0.00372
628.73695,0.00279
626.80831,0.00111
624.87967,-0.00009
622.95103,0.00062
621.02239,0.00348
619.09375,0.00534
617.16511,0.00619
615.23647,0.00506
613.30783,0.00305
611.37918,0.00212
609.45054,0.00238
607.52190,0.00317
605.59326,0.00435
603.66462,0.00481
601.73598,0.00443
599.80734,0.00349
