7497.01799,0.13272
7495.08925,0.12611
7493.16050,0.12042
7491.23176,0.12288
7489.30302,0.12715
7487.37428,0.12621
7485.44554,0.12588
7483.51680,0.12838
7481.58806,0.12913
7479.65931,0.13175
7477.73057,0.13560
7475.80183,0.13492
7473.87309,0.13450
7471.94435,0.13403
7470.01561,0.12667
7468.08686,0.11991
7466.15812,0.12161
7464.22938,0.12722
7462.30064,0.13288
7460.37190,0.13584
7458.44316,0.13181
7456.51442,0.12434
7454.58567,0.12146
7452.65693,0.12545
7450.72819,0.13018
7448.79945,0.12880
7446.87071,0.12404
7444.94197,0.12226
7443.01323,0.12479
7441.08448,0.12918
7439.15574,0.13151
7437.22700,0.13248
7435.29826,0.13391
7433.36952,0.13143
7431.44078,0.12414
7429.51204,0.11796
7427.58329,0.11602
7425.65455,0.11873
7423.72581,0.12140
7421.79707,0.12122
7419.86833,0.12187
7417.93959,0.12394
7416.01085,0.12568
7414.08210,0.12640
7412.15336,0.12650
7410.22462,0.12747
7408.29588,0.12669
7406.36714,0.12451
7404.43840,0.12605
7402.50966,0.12748
7400.58091,0.12197
7398.65217,0.11557
7396.72343,0.11597
7394.79469,0.11931
7392.86595,0.12105
7390.93721,0.12240
7389.00847,0.12246
7387.07972,0.12129
7385.15098,0.12324
7383.22224,0.12653
7381.29350,0.12424
7379.36476,0.11974
7377.43602,0.11945
7375.50728,0.12052
7373.57853,0.11943
7371.64979,0.11856
7369.72105,0.12111
7367.79231,0.12593
7365.86357,0.12709
7363.93483,0.12377
7362.00609,0.12095
7360.07734,0.11950
7358.14860,0.11977
7356.21986,0.12407
7354.29112,0.12687
7352.36238,0.12156
7350.43364,0.11515
7348.50490,0.11538
7346.57615,0.11669
7344.64741,0.11489
7342.71867,0.11151
7340.78993,0.10781
7338.86119,0.10529
7336.93245,0.10347
7335.00371,0.10191
7333.07496,0.10444
7331.14622,0.11058
7329.21748,0.11413
7327.28874,0.11215
7325.36000,0.10790
7323.43126,0.10567
7321.50252,0.10678
7319.57377,0.10886
7317.64503,0.10855
7315.71629,0.10598
7313.78755,0.10431
7311.85881,0.10348
7309.93007,0.10326
7308.00133,0.10594
7306.07258,0.10840
7304.14384,0.10650
7302.21510,0.10245
7300.28636,0.09893
7298.35762,0.09916
7296.42888,0.10389
7294.50014,0.10707
7292.57139,0.10611
7290.64265,0.10433
7288.71391,0.10181
7286.78517,0.09928
7284.85643,0.09895
7282.92769,0.09945
7280.99894,0.09947
7279.07020,0.09807
7277.14146,0.09329
7275.21272,0.08862
7273.28398,0.09025
7271.35524,0.09512
7269.42650,0.09606
7267.49775,0.09521
7265.56901,0.09611
7263.64027,0.09589
7261.71153,0.09331
7259.78279,0.09009
7257.85405,0.08661
7255.92531,0.08501
7253.99656,0.08833
7252.06782,0.09320
7250.13908,0.09343
7248.21034,0.09110
7246.28160,0.09025
7244.35286,0.08862
7242.42412,0.08539
7240.49537,0.08252
7238.56663,0.07926
7236.63789,0.07851
7234.70915,0.08413
7232.78041,0.09078
7230.85167,0.09170
7228.92293,0.08848
7226.99418,0.08559
7225.06544,0.08508
7223.13670,0.08514
7221.20796,0.08415
7219.27922,0.08372
7217.35048,0.08301
7215.42174,0.08113
7213.49299,0.08160
7211.56425,0.08416
7209.63551,0.08487
7207.70677,0.08387
7205.77803,0.08174
7203.84929,0.07743
7201.92055,0.07506
7199.99180,0.07813
7198.06306,0.08167
7196.13432,0.08205
7194.20558,0.08169
7192.27684,0.08182
7190.34810,0.08311
7188.41936,0.08484
7186.49061,0.08499
7184.56187,0.08650
7182.63313,0.09096
7180.70439,0.09229
7178.77565,0.08787
7176.84691,0.08182
7174.91817,0.07755
7172.98942,0.07617
7171.06068,0.07722
7169.13194,0.07868
7167.20320,0.08058
7165.27446,0.08467
7163.34572,0.08915
7161.41698,0.08995
7159.48823,0.08778
7157.55949,0.08737
7155.63075,0.08956
7153.70201,0.09044
7151.77327,0.08785
7149.84453,0.08250
7147.91579,0.07758
7145.98704,0.07690
7144.05830,0.08045
7142.12956,0.08420
7140.20082,0.08355
7138.27208,0.07944
7136.34334,0.07965
7134.41460,0.08451
7132.48585,0.08450
7130.55711,0.07787
7128.62837,0.07381
7126.69963,0.07715
7124.77089,0.08278
7122.84215,0.08439
7120.91341,0.08212
7118.98466,0.07965
7117.05592,0.07737
7115.12718,0.07441
7113.19844,0.07445
7111.26970,0.07788
7109.34096,0.07924
7107.41222,0.07882
7105.48347,0.07952
7103.55473,0.07929
7101.62599,0.07889
7099.69725,0.08186
7097.76851,0.08697
7095.83977,0.08772
7093.91103,0.08158
7091.98228,0.07467
7090.05354,0.07403
7088.12480,0.07879
7086.19606,0.08189
7084.26732,0.08192
7082.33858,0.08289
7080.40983,0.08362
7078.48109,0.08210
7076.55235,0.08066
7074.62361,0.08129
7072.69487,0.08224
7070.76613,0.08120
7068.83739,0.07858
7066.90864,0.07671
7064.97990,0.07678
7063.05116,0.07744
7061.12242,0.07761
7059.19368,0.07815
7057.26494,0.07833
7055.33620,0.07843
7053.40745,0.07825
7051.47871,0.07572
7049.54997,0.07393
7047.62123,0.07585
7045.69249,0.07792
7043.76375,0.07894
7041.83501,0.07967
7039.90626,0.07913
7037.97752,0.07958
7036.04878,0.08377
7034.12004,0.08748
7032.19130,0.08544
7030.26256,0.08068
7028.33382,0.07977
7026.40507,0.08236
7024.47633,0.08343
7022.54759,0.08180
7020.61885,0.08035
7018.69011,0.08013
7016.76137,0.07894
7014.83263,0.07643
7012.90388,0.07675
7010.97514,0.08095
7009.04640,0.08288
7007.11766,0.07962
7005.18892,0.07578
7003.26018,0.07474
7001.33144,0.07573
6999.40269,0.07678
6997.47395,0.07701
6995.54521,0.07829
6993.61647,0.08180
6991.68773,0.08480
6989.75899,0.08470
6987.83025,0.08250
6985.90150,0.08110
6983.97276,0.08185
6982.04402,0.08309
6980.11528,0.08346
6978.18654,0.08367
6976.25780,0.08323
6974.32906,0.08103
6972.40031,0.07923
6970.47157,0.08097
6968.54283,0.08341
6966.61409,0.08228
6964.68535,0.07951
6962.75661,0.07967
6960.82787,0.08220
6958.89912,0.08408
6956.97038,0.08434
6955.04164,0.08304
6953.11290,0.08094
6951.18416,0.08001
6949.25542,0.08069
6947.32668,0.08205
6945.39793,0.08328
6943.46919,0.08411
6941.54045,0.08391
6939.61171,0.08203
6937.68297,0.07953
6935.75423,0.07848
6933.82549,0.07980
6931.89674,0.08261
6929.96800,0.08395
6928.03926,0.08304
6926.11052,0.08339
6924.18178,0.08499
6922.25304,0.08358
6920.32430,0.08028
6918.39555,0.07923
6916.46681,0.07958
6914.53807,0.07958
6912.60933,0.08105
6910.68059,0.08362
6908.75185,0.08449
6906.82311,0.08398
6904.89436,0.08340
6902.96562,0.08250
6901.03688,0.08159
6899.10814,0.08255
6897.17940,0.08722
6895.25066,0.09169
6893.32192,0.09076
6891.39317,0.08680
6889.46443,0.08375
6887.53569,0.08160
6885.60695,0.07960
6883.67821,0.07691
6881.74947,0.07520
6879.82072,0.07615
6877.89198,0.07745
6875.96324,0.07799
6874.03450,0.07962
6872.10576,0.08308
6870.17702,0.08666
6868.24828,0.08851
6866.31953,0.08856
6864.39079,0.08677
6862.46205,0.08563
6860.53331,0.08716
6858.60457,0.08707
6856.67583,0.08315
6854.74709,0.07956
6852.81834,0.07956
6850.88960,0.08206
6848.96086,0.08384
6847.03212,0.08314
6845.10338,0.08038
6843.17464,0.07842
6841.24590,0.07844
6839.31715,0.07873
6837.38841,0.07955
6835.45967,0.08062
6833.53093,0.08130
6831.60219,0.08357
6829.67345,0.08805
6827.74471,0.09176
6825.81596,0.09155
6823.88722,0.08907
6821.95848,0.08749
6820.02974,0.08565
6818.10100,0.08238
6816.17226,0.08056
6814.24352,0.08160
6812.31477,0.08217
6810.38603,0.08075
6808.45729,0.07960
6806.52855,0.07927
6804.59981,0.07850
6802.67107,0.07772
6800.74233,0.07811
6798.81358,0.07829
6796.88484,0.07949
6794.95610,0.08228
6793.02736,0.08234
6791.09862,0.07865
6789.16988,0.07516
6787.24114,0.07538
6785.31239,0.07907
6783.38365,0.08177
6781.45491,0.08044
6779.52617,0.07785
6777.59743,0.07792
6775.66869,0.07894
6773.73995,0.07848
6771.81120,0.07828
6769.88246,0.07841
6767.95372,0.07750
6766.02498,0.07704
6764.09624,0.07814
6762.16750,0.07843
6760.23876,0.07679
6758.31001,0.07600
6756.38127,0.07678
6754.45253,0.07774
6752.52379,0.07853
6750.59505,0.07864
6748.66631,0.07813
6746.73757,0.07801
6744.80882,0.07723
6742.88008,0.07432
6740.95134,0.07180
6739.02260,0.07299
6737.09386,0.07533
6735.16512,0.07568
6733.23638,0.07649
6731.30763,0.07881
6729.37889,0.07860
6727.45015,0.07528
6725.52141,0.07215
6723.59267,0.07089
6721.66393,0.07233
6719.73519,0.07560
6717.80644,0.07767
6715.87770,0.07735
6713.94896,0.07569
6712.02022,0.07391
6710.09148,0.07317
6708.16274,0.07351
6706.23400,0.07349
6704.30525,0.07357
6702.37651,0.07486
6700.44777,0.07568
6698.51903,0.07508
6696.59029,0.07436
6694.66155,0.07328
6692.73281,0.07252
6690.80406,0.07382
6688.87532,0.07529
6686.94658,0.07403
6685.01784,0.07176
6683.08910,0.07116
6681.16036,0.07198
6679.23161,0.07178
6677.30287,0.06923
6675.37413,0.06632
6673.44539,0.06689
6671.51665,0.07115
6669.58791,0.07289
6667.65917,0.06919
6665.73042,0.06587
6663.80168,0.06586
6661.87294,0.06728
6659.94420,0.06959
6658.01546,0.07127
6656.08672,0.07052
6654.15798,0.06917
6652.22923,0.06893
6650.30049,0.06929
6648.37175,0.06856
6646.44301,0.06544
6644.51427,0.06200
6642.58553,0.06163
6640.65679,0.06399
6638.72804,0.06644
6636.79930,0.06742
6634.87056,0.06723
6632.94182,0.06689
6631.01308,0.06713
6629.08434,0.06750
6627.15560,0.06653
6625.22685,0.06457
6623.29811,0.06415
6621.36937,0.06588
6619.44063,0.06780
6617.51189,0.06769
6615.58315,0.06596
6613.65441,0.06537
6611.72566,0.06543
6609.79692,0.06323
6607.86818,0.06146
6605.93944,0.06398
6604.01070,0.06724
6602.08196,0.06744
6600.15322,0.06695
6598.22447,0.06754
6596.29573,0.06793
6594.36699,0.06805
6592.43825,0.06784
6590.50951,0.06632
6588.58077,0.06445
6586.65203,0.06330
6584.72328,0.06338
6582.79454,0.06529
6580.86580,0.06786
6578.93706,0.06902
6577.00832,0.06779
6575.07958,0.06507
6573.15084,0.06334
6571.22209,0.06381
6569.29335,0.06568
6567.36461,0.06737
6565.43587,0.06829
6563.50713,0.06848
6561.57839,0.06783
6559.64965,0.06690
6557.72090,0.06636
6555.79216,0.06603
6553.86342,0.06539
6551.93468,0.06468
6550.00594,0.06472
6548.07720,0.06515
6546.14846,0.06607
6544.21971,0.06697
6542.29097,0.06640
6540.36223,0.06456
6538.43349,0.06262
6536.50475,0.06225
6534.57601,0.06383
6532.64727,0.06431
6530.71852,0.06123
6528.78978,0.05711
6526.86104,0.05663
6524.93230,0.05893
6523.00356,0.06040
6521.07482,0.06161
6519.14608,0.06359
6517.21733,0.06490
6515.28859,0.06493
6513.35985,0.06423
6511.43111,0.06280
6509.50237,0.06122
6507.57363,0.06046
6505.64489,0.05964
6503.71614,0.05921
6501.78740,0.06042
6499.85866,0.06154
6497.92992,0.06123
6496.00118,0.06034
6494.07244,0.06027
6492.14370,0.06168
6490.21495,0.06332
6488.28621,0.06392
6486.35747,0.06360
6484.42873,0.06372
6482.49999,0.06449
6480.57125,0.06452
6478.64250,0.06371
6476.71376,0.06355
6474.78502,0.06489
6472.85628,0.06601
6470.92754,0.06501
6468.99880,0.06346
6467.07006,0.06320
6465.14131,0.06442
6463.21257,0.06616
6461.28383,0.06645
6459.35509,0.06572
6457.42635,0.06599
6455.49761,0.06662
6453.56887,0.06647
6451.64012,0.06631
6449.71138,0.06709
6447.78264,0.06821
6445.85390,0.06852
6443.92516,0.06874
6441.99642,0.06924
6440.06768,0.06911
6438.13893,0.06926
6436.21019,0.06996
6434.28145,0.07032
6432.35271,0.07080
6430.42397,0.07161
6428.49523,0.07202
6426.56649,0.07190
6424.63774,0.07254
6422.70900,0.07406
6420.78026,0.07441
6418.85152,0.07380
6416.92278,0.07392
6414.99404,0.07441
6413.06530,0.07462
6411.13655,0.07488
6409.20781,0.07476
6407.27907,0.07393
6405.35033,0.07342
6403.42159,0.07279
6401.49285,0.07121
6399.56411,0.07073
6397.63536,0.07263
6395.70662,0.07435
6393.77788,0.07374
6391.84914,0.07276
6389.92040,0.07324
6387.99166,0.07411
6386.06292,0.07386
6384.13417,0.07239
6382.20543,0.07099
6380.27669,0.07095
6378.34795,0.07110
6376.41921,0.06985
6374.49047,0.06873
6372.56173,0.06894
6370.63298,0.06899
6368.70424,0.06887
6366.77550,0.06981
6364.84676,0.07062
6362.91802,0.06969
6360.98928,0.06873
6359.06054,0.06790
6357.13179,0.06482
6355.20305,0.06131
6353.27431,0.06087
6351.34557,0.06283
6349.41683,0.06417
6347.48809,0.06478
6345.55935,0.06668
6343.63060,0.06878
6341.70186,0.06921
6339.77312,0.06942
6337.84438,0.07051
6335.91564,0.07035
6333.98690,0.06883
6332.05816,0.06824
6330.12941,0.06857
6328.20067,0.06902
6326.27193,0.06979
6324.34319,0.07110
6322.41445,0.07143
6320.48571,0.06988
6318.55697,0.06933
6316.62822,0.07026
6314.69948,0.07091
6312.77074,0.07218
6310.84200,0.07418
6308.91326,0.07443
6306.98452,0.07217
6305.05578,0.07079
6303.12703,0.07248
6301.19829,0.07488
6299.26955,0.07585
6297.34081,0.07586
6295.41207,0.07612
6293.48333,0.07566
6291.55459,0.07307
6289.62584,0.07070
6287.69710,0.07118
6285.76836,0.07304
6283.83962,0.07313
6281.91088,0.07099
6279.98214,0.06934
6278.05339,0.06950
6276.12465,0.06975
6274.19591,0.06925
6272.26717,0.06908
6270.33843,0.06972
6268.40969,0.07098
6266.48095,0.07240
6264.55220,0.07280
6262.62346,0.07183
6260.69472,0.07078
6258.76598,0.07046
6256.83724,0.07063
6254.90850,0.07067
6252.97976,0.07021
6251.05101,0.06947
6249.12227,0.06936
6247.19353,0.07025
6245.26479,0.07140
6243.33605,0.07210
6241.40731,0.07172
6239.47857,0.07007
6237.54982,0.06855
6235.62108,0.06820
6233.69234,0.06837
6231.76360,0.06834
6229.83486,0.06825
6227.90612,0.06866
6225.97738,0.06940
6224.04863,0.06951
6222.11989,0.06876
6220.19115,0.06813
6218.26241,0.06881
6216.33367,0.07062
6214.40493,0.07171
6212.47619,0.07122
6210.54744,0.07045
6208.61870,0.07043
6206.68996,0.07080
6204.76122,0.07096
6202.83248,0.07096
6200.90374,0.07225
6198.97500,0.07492
6197.04625,0.07600
6195.11751,0.07475
6193.18877,0.07354
6191.26003,0.07319
6189.33129,0.07318
6187.40255,0.07307
6185.47381,0.07230
6183.54506,0.07129
6181.61632,0.07122
6179.68758,0.07229
6177.75884,0.07379
6175.83010,0.07497
6173.90136,0.07560
6171.97262,0.07603
6170.04387,0.07605
6168.11513,0.07620
6166.18639,0.07751
6164.25765,0.07889
6162.32891,0.07913
6160.40017,0.07809
6158.47143,0.07600
6156.54268,0.07423
6154.61394,0.07416
6152.68520,0.07566
6150.75646,0.07736
6148.82772,0.07854
6146.89898,0.08023
6144.97024,0.08259
6143.04149,0.08407
6141.11275,0.08434
6139.18401,0.08448
6137.25527,0.08488
6135.32653,0.08474
6133.39779,0.08379
6131.46905,0.08331
6129.54030,0.08400
6127.61156,0.08500
6125.68282,0.08559
6123.75408,0.08555
6121.82534,0.08485
6119.89660,0.08422
6117.96786,0.08414
6116.03911,0.08416
6114.11037,0.08491
6112.18163,0.08623
6110.25289,0.08640
6108.32415,0.08543
6106.39541,0.08477
6104.46667,0.08521
6102.53792,0.08606
6100.60918,0.08653
6098.68044,0.08703
6096.75170,0.08731
6094.82296,0.08748
6092.89422,0.08801
6090.96548,0.08790
6089.03673,0.08724
6087.10799,0.08748
6085.17925,0.08801
6083.25051,0.08729
6081.32177,0.08593
6079.39303,0.08582
6077.46428,0.08728
6075.53554,0.08816
6073.60680,0.08687
6071.67806,0.08546
6069.74932,0.08617
6067.82058,0.08813
6065.89184,0.08922
6063.96309,0.08896
6062.03435,0.08807
6060.10561,0.08634
6058.17687,0.08413
6056.24813,0.08323
6054.31939,0.08373
6052.39065,0.08443
6050.46190,0.08508
6048.53316,0.08611
6046.60442,0.08741
6044.67568,0.08791
6042.74694,0.08686
6040.81820,0.08553
6038.88946,0.08502
6036.96071,0.08468
6035.03197,0.08451
6033.10323,0.08486
6031.17449,0.08430
6029.24575,0.08257
6027.31701,0.08184
6025.38827,0.08266
6023.45952,0.08286
6021.53078,0.08191
6019.60204,0.08199
6017.67330,0.08336
6015.74456,0.08347
6013.81582,0.08189
6011.88708,0.08131
6009.95833,0.08316
6008.02959,0.08488
6006.10085,0.08429
6004.17211,0.08348
6002.24337,0.08422
6000.31463,0.08470
5998.38589,0.08377
5996.45714,0.08281
5994.52840,0.08305
5992.59966,0.08356
5990.67092,0.08302
5988.74218,0.08184
5986.81344,0.08063
5984.88470,0.07924
5982.95595,0.07855
5981.02721,0.07906
5979.09847,0.07911
5977.16973,0.07809
5975.24099,0.07747
5973.31225,0.07774
5971.38351,0.07814
5969.45476,0.07842
5967.52602,0.07869
5965.59728,0.07920
5963.66854,0.07976
5961.73980,0.07962
5959.81106,0.07923
5957.88232,0.07955
5955.95357,0.07935
5954.02483,0.07771
5952.09609,0.07594
5950.16735,0.07455
5948.23861,0.07325
5946.30987,0.07221
5944.38113,0.07157
5942.45238,0.07115
5940.52364,0.07101
5938.59490,0.07191
5936.66616,0.07317
5934.73742,0.07275
5932.80868,0.07095
5930.87994,0.06960
5928.95119,0.06887
5927.02245,0.06824
5925.09371,0.06821
5923.16497,0.06834
5921.23623,0.06731
5919.30749,0.06585
5917.37875,0.06541
5915.45000,0.06573
5913.52126,0.06586
5911.59252,0.06536
5909.66378,0.06444
5907.73504,0.06310
5905.80630,0.06106
5903.87756,0.05944
5901.94881,0.06016
5900.02007,0.06204
5898.09133,0.06169
5896.16259,0.05943
5894.23385,0.05823
5892.30511,0.05835
5890.37637,0.05852
5888.44762,0.05808
5886.51888,0.05731
5884.59014,0.05724
5882.66140,0.05798
5880.73266,0.05858
5878.80392,0.05819
5876.87517,0.05694
5874.94643,0.05603
5873.01769,0.05570
5871.08895,0.05562
5869.16021,0.05601
5867.23147,0.05678
5865.30273,0.05713
5863.37398,0.05653
5861.44524,0.05532
5859.51650,0.05469
5857.58776,0.05503
5855.65902,0.05500
5853.73028,0.05450
5851.80154,0.05511
5849.87279,0.05649
5847.94405,0.05700
5846.01531,0.05576
5844.08657,0.05355
5842.15783,0.05206
5840.22909,0.05170
5838.30035,0.05236
5836.37160,0.05435
5834.44286,0.05613
5832.51412,0.05602
5830.58538,0.05544
5828.65664,0.05584
5826.72790,0.05624
5824.79916,0.05620
5822.87041,0.05620
5820.94167,0.05591
5819.01293,0.05519
5817.08419,0.05466
5815.15545,0.05432
5813.22671,0.05386
5811.29797,0.05340
5809.36922,0.05323
5807.44048,0.05309
5805.51174,0.05309
5803.58300,0.05388
5801.65426,0.05537
5799.72552,0.05691
5797.79678,0.05749
5795.86803,0.05701
5793.93929,0.05690
5792.01055,0.05702
5790.08181,0.05648
5788.15307,0.05636
5786.22433,0.05707
5784.29559,0.05706
5782.36684,0.05586
5780.43810,0.05460
5778.50936,0.05421
5776.58062,0.05445
5774.65188,0.05442
5772.72314,0.05441
5770.79440,0.05520
5768.86565,0.05630
5766.93691,0.05623
5765.00817,0.05453
5763.07943,0.05318
5761.15069,0.05414
5759.22195,0.05668
5757.29321,0.05865
5755.36446,0.05871
5753.43572,0.05731
5751.50698,0.05625
5749.57824,0.05657
5747.64950,0.05717
5745.72076,0.05717
5743.79202,0.05732
5741.86327,0.05816
5739.93453,0.05877
5738.00579,0.05837
5736.07705,0.05769
5734.14831,0.05701
5732.21957,0.05599
5730.29083,0.05519
5728.36208,0.05502
5726.43334,0.05518
5724.50460,0.05568
5722.57586,0.05604
5720.64712,0.05554
5718.71838,0.05508
5716.78964,0.05529
5714.86089,0.05546
5712.93215,0.05546
5711.00341,0.05560
5709.07467,0.05617
5707.14593,0.05703
5705.21719,0.05748
5703.28845,0.05734
5701.35970,0.05694
5699.43096,0.05661
5697.50222,0.05627
5695.57348,0.05569
5693.64474,0.05482
5691.71600,0.05396
5689.78726,0.05368
5687.85851,0.05424
5685.92977,0.05538
5684.00103,0.05618
5682.07229,0.05637
5680.14355,0.05626
5678.21481,0.05579
5676.28606,0.05549
5674.35732,0.05602
5672.42858,0.05687
5670.49984,0.05784
5668.57110,0.05866
5666.64236,0.05850
5664.71362,0.05796
5662.78487,0.05848
5660.85613,0.05937
5658.92739,0.05857
5656.99865,0.05676
5655.06991,0.05631
5653.14117,0.05664
5651.21243,0.05651
5649.28368,0.05653
5647.35494,0.05701
5645.42620,0.05762
5643.49746,0.05833
5641.56872,0.05918
5639.63998,0.05993
5637.71124,0.05996
5635.78249,0.05909
5633.85375,0.05818
5631.92501,0.05805
5629.99627,0.05843
5628.06753,0.05847
5626.13879,0.05786
5624.21005,0.05770
5622.28130,0.05871
5620.35256,0.05947
5618.42382,0.05909
5616.49508,0.05885
5614.56634,0.05962
5612.63760,0.06057
5610.70886,0.06083
5608.78011,0.06055
5606.85137,0.06034
5604.92263,0.05996
5602.99389,0.05906
5601.06515,0.05847
5599.13641,0.05884
5597.20767,0.05977
5595.27892,0.06002
5593.35018,0.05912
5591.42144,0.05899
5589.49270,0.06042
5587.56396,0.06160
5585.63522,0.06127
5583.70648,0.06008
5581.77773,0.05955
5579.84899,0.06013
5577.92025,0.06088
5575.99151,0.06082
5574.06277,0.06025
5572.13403,0.06046
5570.20529,0.06135
5568.27654,0.06174
5566.34780,0.06137
5564.41906,0.06066
5562.49032,0.06004
5560.56158,0.05969
5558.63284,0.05981
5556.70410,0.06043
5554.77535,0.06095
5552.84661,0.06113
5550.91787,0.06145
5548.98913,0.06212
5547.06039,0.06248
5545.13165,0.06180
5543.20291,0.06046
5541.27416,0.05978
5539.34542,0.06032
5537.41668,0.06083
5535.48794,0.06079
5533.55920,0.06123
5531.63046,0.06195
5529.70172,0.06174
5527.77297,0.06067
5525.84423,0.06011
5523.91549,0.06064
5521.98675,0.06118
5520.05801,0.06129
5518.12927,0.06152
5516.20053,0.06200
5514.27178,0.06248
5512.34304,0.06252
5510.41430,0.06236
5508.48556,0.06264
5506.55682,0.06315
5504.62808,0.06362
5502.69934,0.06359
5500.77059,0.06259
5498.84185,0.06145
5496.91311,0.06107
5494.98437,0.06154
5493.05563,0.06299
5491.12689,0.06413
5489.19815,0.06322
5487.26940,0.06160
5485.34066,0.06136
5483.41192,0.06175
5481.48318,0.06170
5479.55444,0.06162
5477.62570,0.06211
5475.69695,0.06317
5473.76821,0.06377
5471.83947,0.06324
5469.91073,0.06254
5467.98199,0.06222
5466.05325,0.06226
5464.12451,0.06290
5462.19576,0.06355
5460.26702,0.06353
5458.33828,0.06355
5456.40954,0.06378
5454.48080,0.06332
5452.55206,0.06254
5450.62332,0.06231
5448.69457,0.06224
5446.76583,0.06196
5444.83709,0.06171
5442.90835,0.06152
5440.97961,0.06171
5439.05087,0.06258
5437.12213,0.06326
5435.19338,0.06338
5433.26464,0.06362
5431.33590,0.06380
5429.40716,0.06358
5427.47842,0.06364
5425.54968,0.06401
5423.62094,0.06389
5421.69219,0.06315
5419.76345,0.06246
5417.83471,0.06259
5415.90597,0.06296
5413.97723,0.06259
5412.04849,0.06230
5410.11975,0.06255
5408.19100,0.06262
5406.26226,0.06263
5404.33352,0.06277
5402.40478,0.06271
5400.47604,0.06253
5398.54730,0.06299
5396.61856,0.06403
5394.68981,0.06438
5392.76107,0.06408
5390.83233,0.06442
5388.90359,0.06542
5386.97485,0.06595
5385.04611,0.06571
5383.11737,0.06582
5381.18862,0.06645
5379.25988,0.06646
5377.33114,0.06598
5375.40240,0.06613
5373.47366,0.06682
5371.54492,0.06698
5369.61618,0.06642
5367.68743,0.06575
5365.75869,0.06546
5363.82995,0.06565
5361.90121,0.06594
5359.97247,0.06641
5358.04373,0.06716
5356.11499,0.06758
5354.18624,0.06751
5352.25750,0.06732
5350.32876,0.06706
5348.40002,0.06672
5346.47128,0.06636
5344.54254,0.06619
5342.61380,0.06664
5340.68505,0.06713
5338.75631,0.06654
5336.82757,0.06550
5334.89883,0.06566
5332.97009,0.06638
5331.04135,0.06629
5329.11261,0.06590
5327.18386,0.06582
5325.25512,0.06590
5323.32638,0.06603
5321.39764,0.06605
5319.46890,0.06593
5317.54016,0.06596
5315.61142,0.06596
5313.68267,0.06526
5311.75393,0.06409
5309.82519,0.06298
5307.89645,0.06221
5305.96771,0.06264
5304.03897,0.06398
5302.11023,0.06445
5300.18148,0.06369
5298.25274,0.06270
5296.32400,0.06214
5294.39526,0.06196
5292.46652,0.06174
5290.53778,0.06151
5288.60904,0.06172
5286.68029,0.06191
5284.75155,0.06162
5282.82281,0.06143
5280.89407,0.06155
5278.96533,0.06156
5277.03659,0.06164
5275.10784,0.06176
5273.17910,0.06137
5271.25036,0.06074
5269.32162,0.06063
5267.39288,0.06104
5265.46414,0.06161
5263.53540,0.06178
5261.60665,0.06125
5259.67791,0.06038
5257.74917,0.05974
5255.82043,0.05965
5253.89169,0.05981
5251.96295,0.05991
5250.03421,0.05984
5248.10546,0.05952
5246.17672,0.05941
5244.24798,0.06007
5242.31924,0.06056
5240.39050,0.05962
5238.46176,0.05834
5236.53302,0.05842
5234.60427,0.05942
5232.67553,0.05986
5230.74679,0.05922
5228.81805,0.05863
5226.88931,0.05896
5224.96057,0.05958
5223.03183,0.05971
5221.10308,0.05951
5219.17434,0.05941
5217.24560,0.05940
5215.31686,0.05950
5213.38812,0.05974
5211.45938,0.05981
5209.53064,0.05962
5207.60189,0.05921
5205.67315,0.05901
5203.74441,0.05926
5201.81567,0.05910
5199.88693,0.05831
5197.95819,0.05785
5196.02945,0.05760
5194.10070,0.05693
5192.17196,0.05682
5190.24322,0.05745
5188.31448,0.05726
5186.38574,0.05633
5184.45700,0.05596
5182.52826,0.05603
5180.59951,0.05614
5178.67077,0.05693
5176.74203,0.05815
5174.81329,0.05835
5172.88455,0.05756
5170.95581,0.05693
5169.02707,0.05691
5167.09832,0.05734
5165.16958,0.05789
5163.24084,0.05826
5161.31210,0.05836
5159.38336,0.05793
5157.45462,0.05701
5155.52588,0.05655
5153.59713,0.05682
5151.66839,0.05694
5149.73965,0.05674
5147.81091,0.05674
5145.88217,0.05696
5143.95343,0.05707
5142.02469,0.05699
5140.09594,0.05687
5138.16720,0.05703
5136.23846,0.05762
5134.30972,0.05806
5132.38098,0.05778
5130.45224,0.05716
5128.52350,0.05696
5126.59475,0.05737
5124.66601,0.05794
5122.73727,0.05848
5120.80853,0.05869
5118.87979,0.05823
5116.95105,0.05770
5115.02231,0.05764
5113.09356,0.05740
5111.16482,0.05695
5109.23608,0.05695
5107.30734,0.05717
5105.37860,0.05715
5103.44986,0.05698
5101.52112,0.05687
5099.59237,0.05699
5097.66363,0.05741
5095.73489,0.05771
5093.80615,0.05753
5091.87741,0.05707
5089.94867,0.05682
5088.01993,0.05703
5086.09118,0.05739
5084.16244,0.05754
5082.23370,0.05725
5080.30496,0.05691
5078.37622,0.05754
5076.44748,0.05881
5074.51873,0.05924
5072.58999,0.05852
5070.66125,0.05768
5068.73251,0.05741
5066.80377,0.05751
5064.87503,0.05795
5062.94629,0.05851
5061.01754,0.05858
5059.08880,0.05820
5057.16006,0.05793
5055.23132,0.05775
5053.30258,0.05731
5051.37384,0.05709
5049.44510,0.05734
5047.51635,0.05754
5045.58761,0.05776
5043.65887,0.05812
5041.73013,0.05827
5039.80139,0.05786
5037.87265,0.05706
5035.94391,0.05673
5034.01516,0.05703
5032.08642,0.05734
5030.15768,0.05729
5028.22894,0.05707
5026.30020,0.05755
5024.37146,0.05850
5022.44272,0.05887
5020.51397,0.05882
5018.58523,0.05863
5016.65649,0.05815
5014.72775,0.05758
5012.79901,0.05732
5010.87027,0.05741
5008.94153,0.05746
5007.01278,0.05761
5005.08404,0.05801
5003.15530,0.05786
5001.22656,0.05743
4999.29782,0.05773
4997.36908,0.05828
4995.44034,0.05843
4993.51159,0.05865
4991.58285,0.05905
4989.65411,0.05911
4987.72537,0.05896
4985.79663,0.05890
4983.86789,0.05855
4981.93915,0.05769
4980.01040,0.05704
4978.08166,0.05692
4976.15292,0.05664
4974.22418,0.05596
4972.29544,0.05577
4970.36670,0.05657
4968.43796,0.05755
4966.50921,0.05802
4964.58047,0.05797
4962.65173,0.05741
4960.72299,0.05673
4958.79425,0.05639
4956.86551,0.05631
4954.93677,0.05636
4953.00802,0.05657
4951.07928,0.05690
4949.15054,0.05713
4947.22180,0.05702
4945.29306,0.05674
4943.36432,0.05670
4941.43558,0.05695
4939.50683,0.05719
4937.57809,0.05746
4935.64935,0.05792
4933.72061,0.05822
4931.79187,0.05794
4929.86313,0.05724
4927.93439,0.05639
4926.00564,0.05568
4924.07690,0.05567
4922.14816,0.05617
4920.21942,0.05628
4918.29068,0.05595
4916.36194,0.05586
4914.43320,0.05649
4912.50445,0.05736
4910.57571,0.05738
4908.64697,0.05673
4906.71823,0.05633
4904.78949,0.05624
4902.86075,0.05636
4900.93201,0.05686
4899.00326,0.05748
4897.07452,0.05780
4895.14578,0.05809
4893.21704,0.05838
4891.28830,0.05813
4889.35956,0.05755
4887.43081,0.05667
4885.50207,0.05557
4883.57333,0.05520
4881.64459,0.05573
4879.71585,0.05642
4877.78711,0.05674
4875.85837,0.05667
4873.92962,0.05665
4872.00088,0.05680
4870.07214,0.05683
4868.14340,0.05659
4866.21466,0.05644
4864.28592,0.05692
4862.35718,0.05768
4860.42843,0.05804
4858.49969,0.05793
4856.57095,0.05752
4854.64221,0.05703
4852.71347,0.05673
4850.78473,0.05696
4848.85599,0.05745
4846.92724,0.05757
4844.99850,0.05760
4843.06976,0.05777
4841.14102,0.05735
4839.21228,0.05660
4837.28354,0.05655
4835.35480,0.05712
4833.42605,0.05768
4831.49731,0.05788
4829.56857,0.05779
4827.63983,0.05785
4825.71109,0.05797
4823.78235,0.05782
4821.85361,0.05754
4819.92486,0.05700
4817.99612,0.05635
4816.06738,0.05636
4814.13864,0.05724
4812.20990,0.05837
4810.28116,0.05900
4808.35242,0.05896
4806.42367,0.05869
4804.49493,0.05846
4802.56619,0.05820
4800.63745,0.05792
4798.70871,0.05778
4796.77997,0.05790
4794.85123,0.05821
4792.92248,0.05849
4790.99374,0.05830
4789.06500,0.05787
4787.13626,0.05818
4785.20752,0.05883
4783.27878,0.05886
4781.35004,0.05857
4779.42129,0.05809
4777.49255,0.05724
4775.56381,0.05671
4773.63507,0.05710
4771.70633,0.05799
4769.77759,0.05847
4767.84885,0.05813
4765.92010,0.05746
4763.99136,0.05705
4762.06262,0.05703
4760.13388,0.05745
4758.20514,0.05822
4756.27640,0.05894
4754.34766,0.05909
4752.41891,0.05852
4750.49017,0.05789
4748.56143,0.05781
4746.63269,0.05790
4744.70395,0.05766
4742.77521,0.05738
4740.84647,0.05751
4738.91772,0.05787
4736.98898,0.05805
4735.06024,0.05787
4733.13150,0.05737
4731.20276,0.05675
4729.27402,0.05662
4727.34528,0.05707
4725.41653,0.05739
4723.48779,0.05754
4721.55905,0.05779
4719.63031,0.05782
4717.70157,0.05770
4715.77283,0.05800
4713.84409,0.05852
4711.91534,0.05850
4709.98660,0.05806
4708.05786,0.05793
4706.12912,0.05815
4704.20038,0.05842
4702.27164,0.05853
4700.34290,0.05816
4698.41415,0.05762
4696.48541,0.05770
4694.55667,0.05803
4692.62793,0.05784
4690.69919,0.05759
4688.77045,0.05759
4686.84170,0.05745
4684.91296,0.05730
4682.98422,0.05747
4681.05548,0.05777
4679.12674,0.05795
4677.19800,0.05794
4675.26926,0.05781
4673.34051,0.05772
4671.41177,0.05780
4669.48303,0.05790
4667.55429,0.05777
4665.62555,0.05751
4663.69681,0.05771
4661.76807,0.05831
4659.83932,0.05834
4657.91058,0.05765
4655.98184,0.05707
4654.05310,0.05691
4652.12436,0.05691
4650.19562,0.05704
4648.26688,0.05722
4646.33813,0.05724
4644.40939,0.05714
4642.48065,0.05727
4640.55191,0.05769
4638.62317,0.05784
4636.69443,0.05741
4634.76569,0.05705
4632.83694,0.05735
4630.90820,0.05791
4628.97946,0.05819
4627.05072,0.05820
4625.12198,0.05797
4623.19324,0.05779
4621.26450,0.05791
4619.33575,0.05805
4617.40701,0.05785
4615.47827,0.05716
4613.54953,0.05650
4611.62079,0.05649
4609.69205,0.05686
4607.76331,0.05695
4605.83456,0.05670
4603.90582,0.05676
4601.97708,0.05746
4600.04834,0.05816
4598.11960,0.05851
4596.19086,0.05868
4594.26212,0.05866
4592.33337,0.05840
4590.40463,0.05783
4588.47589,0.05703
4586.54715,0.05647
4584.61841,0.05644
4582.68967,0.05686
4580.76093,0.05760
4578.83218,0.05833
4576.90344,0.05868
4574.97470,0.05886
4573.04596,0.05903
4571.11722,0.05866
4569.18848,0.05797
4567.25974,0.05783
4565.33099,0.05813
4563.40225,0.05829
4561.47351,0.05813
4559.54477,0.05785
4557.61603,0.05779
4555.68729,0.05780
4553.75855,0.05760
4551.82980,0.05734
4549.90106,0.05722
4547.97232,0.05701
4546.04358,0.05665
4544.11484,0.05653
4542.18610,0.05672
4540.25736,0.05700
4538.32861,0.05741
4536.39987,0.05792
4534.47113,0.05804
4532.54239,0.05795
4530.61365,0.05824
4528.68491,0.05857
4526.75617,0.05844
4524.82742,0.05816
4522.89868,0.05811
4520.96994,0.05811
4519.04120,0.05797
4517.11246,0.05793
4515.18372,0.05812
4513.25498,0.05828
4511.32623,0.05840
4509.39749,0.05852
4507.46875,0.05838
4505.54001,0.05808
4503.61127,0.05792
4501.68253,0.05783
4499.75379,0.05774
4497.82504,0.05770
4495.89630,0.05760
4493.96756,0.05755
4492.03882,0.05772
4490.11008,0.05790
4488.18134,0.05790
4486.25259,0.05784
4484.32385,0.05783
4482.39511,0.05793
4480.46637,0.05802
4478.53763,0.05787
4476.60889,0.05748
4474.68015,0.05717
4472.75140,0.05700
4470.82266,0.05696
4468.89392,0.05729
4466.96518,0.05773
4465.03644,0.05788
4463.10770,0.05797
4461.17896,0.05826
4459.25021,0.05855
4457.32147,0.05861
4455.39273,0.05836
4453.46399,0.05782
4451.53525,0.05737
4449.60651,0.05741
4447.67777,0.05780
4445.74902,0.05823
4443.82028,0.05835
4441.89154,0.05804
4439.96280,0.05769
4438.03406,0.05768
4436.10532,0.05787
4434.17658,0.05801
4432.24783,0.05805
4430.31909,0.05779
4428.39035,0.05754
4426.46161,0.05785
4424.53287,0.05841
4422.60413,0.05863
4420.67539,0.05857
4418.74664,0.05833
4416.81790,0.05788
4414.88916,0.05758
4412.96042,0.05770
4411.03168,0.05812
4409.10294,0.05866
4407.17420,0.05875
4405.24545,0.05835
4403.31671,0.05805
4401.38797,0.05792
4399.45923,0.05786
4397.53049,0.05796
4395.60175,0.05802
4393.67301,0.05793
4391.74426,0.05798
4389.81552,0.05814
4387.88678,0.05809
4385.95804,0.05781
4384.02930,0.05768
4382.10056,0.05801
4380.17182,0.05857
4378.24307,0.05876
4376.31433,0.05848
4374.38559,0.05816
4372.45685,0.05803
4370.52811,0.05791
4368.59937,0.05786
4366.67063,0.05812
4364.74188,0.05845
4362.81314,0.05844
4360.88440,0.05819
4358.95566,0.05796
4357.02692,0.05779
4355.09818,0.05761
4353.16944,0.05757
4351.24069,0.05777
4349.31195,0.05790
4347.38321,0.05795
4345.45447,0.05817
4343.52573,0.05842
4341.59699,0.05819
4339.66825,0.05780
4337.73950,0.05795
4335.81076,0.05849
4333.88202,0.05876
4331.95328,0.05860
4330.02454,0.05832
4328.09580,0.05831
4326.16706,0.05863
4324.23831,0.05895
4322.30957,0.05892
4320.38083,0.05872
4318.45209,0.05856
4316.52335,0.05840
4314.59461,0.05819
4312.66587,0.05818
4310.73712,0.05843
4308.80838,0.05851
4306.87964,0.05830
4304.95090,0.05823
4303.02216,0.05841
4301.09342,0.05842
4299.16468,0.05825
4297.23593,0.05825
4295.30719,0.05842
4293.37845,0.05848
4291.44971,0.05833
4289.52097,0.05810
4287.59223,0.05800
4285.66348,0.05820
4283.73474,0.05857
4281.80600,0.05868
4279.87726,0.05846
4277.94852,0.05813
4276.01978,0.05781
4274.09104,0.05778
4272.16229,0.05806
4270.23355,0.05815
4268.30481,0.05795
4266.37607,0.05784
4264.44733,0.05798
4262.51859,0.05819
4260.58985,0.05829
4258.66110,0.05834
4256.73236,0.05850
4254.80362,0.05872
4252.87488,0.05874
4250.94614,0.05855
4249.01740,0.05837
4247.08866,0.05828
4245.15991,0.05824
4243.23117,0.05805
4241.30243,0.05792
4239.37369,0.05814
4237.44495,0.05833
4235.51621,0.05834
4233.58747,0.05846
4231.65872,0.05845
4229.72998,0.05800
4227.80124,0.05750
4225.87250,0.05749
4223.94376,0.05774
4222.01502,0.05771
4220.08628,0.05749
4218.15753,0.05753
4216.22879,0.05792
4214.30005,0.05824
4212.37131,0.05835
4210.44257,0.05838
4208.51383,0.05819
4206.58509,0.05795
4204.65634,0.05810
4202.72760,0.05823
4200.79886,0.05802
4198.87012,0.05808
4196.94138,0.05864
4195.01264,0.05900
4193.08390,0.05877
4191.15515,0.05852
4189.22641,0.05864
4187.29767,0.05878
4185.36893,0.05849
4183.44019,0.05788
4181.51145,0.05746
4179.58271,0.05735
4177.65396,0.05737
4175.72522,0.05754
4173.79648,0.05785
4171.86774,0.05826
4169.93900,0.05870
4168.01026,0.05905
4166.08152,0.05939
4164.15277,0.05970
4162.22403,0.05960
4160.29529,0.05897
4158.36655,0.05838
4156.43781,0.05837
4154.50907,0.05859
4152.58033,0.05845
4150.65158,0.05813
4148.72284,0.05801
4146.79410,0.05800
4144.86536,0.05799
4142.93662,0.05806
4141.00788,0.05823
4139.07914,0.05830
4137.15039,0.05819
4135.22165,0.05814
4133.29291,0.05831
4131.36417,0.05839
4129.43543,0.05832
4127.50669,0.05833
4125.57795,0.05828
4123.64920,0.05817
4121.72046,0.05833
4119.79172,0.05842
4117.86298,0.05816
4115.93424,0.05813
4114.00550,0.05841
4112.07676,0.05836
4110.14801,0.05793
4108.21927,0.05764
4106.29053,0.05762
4104.36179,0.05763
4102.43305,0.05760
4100.50431,0.05755
4098.57557,0.05748
4096.64682,0.05759
4094.71808,0.05787
4092.78934,0.05801
4090.86060,0.05790
4088.93186,0.05780
4087.00312,0.05796
4085.07437,0.05844
4083.14563,0.05903
4081.21689,0.05936
4079.28815,0.05926
4077.35941,0.05897
4075.43067,0.05869
4073.50193,0.05834
4071.57318,0.05813
4069.64444,0.05813
4067.71570,0.05806
4065.78696,0.05796
4063.85822,0.05817
4061.92948,0.05854
4060.00074,0.05860
4058.07199,0.05845
4056.14325,0.05847
4054.21451,0.05858
4052.28577,0.05874
4050.35703,0.05899
4048.42829,0.05890
4046.49955,0.05839
4044.57080,0.05818
4042.64206,0.05849
4040.71332,0.05861
4038.78458,0.05828
4036.85584,0.05817
4034.92710,0.05863
4032.99836,0.05898
4031.06961,0.05866
4029.14087,0.05806
4027.21213,0.05793
4025.28339,0.05823
4023.35465,0.05842
4021.42591,0.05839
4019.49717,0.05838
4017.56842,0.05857
4015.63968,0.05880
4013.71094,0.05881
4011.78220,0.05876
4009.85346,0.05873
4007.92472,0.05846
4005.99598,0.05810
4004.06723,0.05798
4002.13849,0.05804
4000.20975,0.05813
3998.28101,0.05833
3996.35227,0.05855
3994.42353,0.05870
3992.49479,0.05884
3990.56604,0.05897
3988.63730,0.05895
3986.70856,0.05867
3984.77982,0.05830
3982.85108,0.05816
3980.92234,0.05839
3978.99360,0.05872
3977.06485,0.05890
3975.13611,0.05893
3973.20737,0.05892
3971.27863,0.05885
3969.34989,0.05864
3967.42115,0.05845
3965.49241,0.05844
3963.56366,0.05855
3961.63492,0.05888
3959.70618,0.05919
3957.77744,0.05903
3955.84870,0.05868
3953.91996,0.05863
3951.99122,0.05873
3950.06247,0.05879
3948.13373,0.05898
3946.20499,0.05912
3944.27625,0.05894
3942.34751,0.05875
3940.41877,0.05873
3938.49003,0.05866
3936.56128,0.05850
3934.63254,0.05856
3932.70380,0.05895
3930.77506,0.05921
3928.84632,0.05901
3926.91758,0.05867
3924.98884,0.05872
3923.06009,0.05899
3921.13135,0.05910
3919.20261,0.05905
3917.27387,0.05886
3915.34513,0.05864
3913.41639,0.05857
3911.48765,0.05853
3909.55890,0.05849
3907.63016,0.05860
3905.70142,0.05875
3903.77268,0.05882
3901.84394,0.05876
3899.91520,0.05857
3897.98646,0.05832
3896.05771,0.05817
3894.12897,0.05822
3892.20023,0.05838
3890.27149,0.05849
3888.34275,0.05858
3886.41401,0.05864
3884.48526,0.05877
3882.55652,0.05898
3880.62778,0.05908
3878.69904,0.05899
3876.77030,0.05874
3874.84156,0.05847
3872.91282,0.05837
3870.98407,0.05835
3869.05533,0.05834
3867.12659,0.05839
3865.19785,0.05853
3863.26911,0.05866
3861.34037,0.05865
3859.41163,0.05864
3857.48288,0.05881
3855.55414,0.05891
3853.62540,0.05865
3851.69666,0.05843
3849.76792,0.05848
3847.83918,0.05852
3845.91044,0.05852
3843.98169,0.05868
3842.05295,0.05900
3840.12421,0.05921
3838.19547,0.05907
3836.26673,0.05872
3834.33799,0.05841
3832.40925,0.05828
3830.48050,0.05823
3828.55176,0.05815
3826.62302,0.05806
3824.69428,0.05806
3822.76554,0.05823
3820.83680,0.05849
3818.90806,0.05864
3816.97931,0.05849
3815.05057,0.05822
3813.12183,0.05823
3811.19309,0.05848
3809.26435,0.05861
3807.33561,0.05838
3805.40687,0.05816
3803.47812,0.05825
3801.54938,0.05838
3799.62064,0.05836
3797.69190,0.05819
3795.76316,0.05803
3793.83442,0.05810
3791.90568,0.05825
3789.97693,0.05832
3788.04819,0.05841
3786.11945,0.05853
3784.19071,0.05858
3782.26197,0.05836
3780.33323,0.05796
3778.40449,0.05778
3776.47574,0.05807
3774.54700,0.05857
3772.61826,0.05879
3770.68952,0.05866
3768.76078,0.05841
3766.83204,0.05816
3764.90330,0.05806
3762.97455,0.05815
3761.04581,0.05826
3759.11707,0.05839
3757.18833,0.05867
3755.25959,0.05907
3753.33085,0.05943
3751.40211,0.05940
3749.47336,0.05876
3747.54462,0.05819
3745.61588,0.05824
3743.68714,0.05864
3741.75840,0.05898
3739.82966,0.05906
3737.90092,0.05887
3735.97217,0.05873
3734.04343,0.05887
3732.11469,0.05894
3730.18595,0.05870
3728.25721,0.05839
3726.32847,0.05807
3724.39973,0.05769
3722.47098,0.05766
3720.54224,0.05815
3718.61350,0.05862
3716.68476,0.05868
3714.75602,0.05863
3712.82728,0.05863
3710.89854,0.05853
3708.96979,0.05825
3707.04105,0.05787
3705.11231,0.05789
3703.18357,0.05834
3701.25483,0.05853
3699.32609,0.05840
3697.39735,0.05833
3695.46860,0.05832
3693.53986,0.05831
3691.61112,0.05829
3689.68238,0.05827
3687.75364,0.05835
3685.82490,0.05844
3683.89615,0.05830
3681.96741,0.05805
3680.03867,0.05811
3678.10993,0.05837
3676.18119,0.05832
3674.25245,0.05803
3672.32371,0.05789
3670.39496,0.05790
3668.46622,0.05795
3666.53748,0.05795
3664.60874,0.05788
3662.68000,0.05772
3660.75126,0.05756
3658.82252,0.05754
3656.89377,0.05766
3654.96503,0.05780
3653.03629,0.05800
3651.10755,0.05822
3649.17881,0.05818
3647.25007,0.05794
3645.32133,0.05774
3643.39258,0.05767
3641.46384,0.05764
3639.53510,0.05754
3637.60636,0.05755
3635.67762,0.05765
3633.74888,0.05757
3631.82014,0.05738
3629.89139,0.05722
3627.96265,0.05718
3626.03391,0.05727
3624.10517,0.05739
3622.17643,0.05738
3620.24769,0.05715
3618.31895,0.05693
3616.39020,0.05706
3614.46146,0.05732
3612.53272,0.05737
3610.60398,0.05710
3608.67524,0.05685
3606.74650,0.05717
3604.81776,0.05764
3602.88901,0.05764
3600.96027,0.05735
3599.03153,0.05710
3597.10279,0.05695
3595.17405,0.05696
3593.24531,0.05718
3591.31657,0.05727
3589.38782,0.05705
3587.45908,0.05685
3585.53034,0.05690
3583.60160,0.05718
3581.67286,0.05740
3579.74412,0.05729
3577.81538,0.05715
3575.88663,0.05723
3573.95789,0.05726
3572.02915,0.05710
3570.10041,0.05690
3568.17167,0.05660
3566.24293,0.05620
3564.31419,0.05602
3562.38544,0.05620
3560.45670,0.05655
3558.52796,0.05674
3556.59922,0.05655
3554.67048,0.05620
3552.74174,0.05614
3550.81300,0.05635
3548.88425,0.05647
3546.95551,0.05639
3545.02677,0.05619
3543.09803,0.05587
3541.16929,0.05559
3539.24055,0.05551
3537.31181,0.05550
3535.38306,0.05551
3533.45432,0.05559
3531.52558,0.05567
3529.59684,0.05578
3527.66810,0.05600
3525.73936,0.05624
3523.81062,0.05628
3521.88187,0.05609
3519.95313,0.05589
3518.02439,0.05581
3516.09565,0.05585
3514.16691,0.05594
3512.23817,0.05595
3510.30943,0.05594
3508.38068,0.05602
3506.45194,0.05610
3504.52320,0.05609
3502.59446,0.05608
3500.66572,0.05600
3498.73698,0.05580
3496.80824,0.05569
3494.87949,0.05572
3492.95075,0.05578
3491.02201,0.05581
3489.09327,0.05572
3487.16453,0.05535
3485.23579,0.05492
3483.30704,0.05482
3481.37830,0.05502
3479.44956,0.05540
3477.52082,0.05577
3475.59208,0.05580
3473.66334,0.05539
3471.73460,0.05497
3469.80585,0.05502
3467.87711,0.05534
3465.94837,0.05547
3464.01963,0.05548
3462.09089,0.05556
3460.16215,0.05554
3458.23341,0.05513
3456.30466,0.05465
3454.37592,0.05458
3452.44718,0.05476
3450.51844,0.05486
3448.58970,0.05484
3446.66096,0.05476
3444.73222,0.05475
3442.80347,0.05477
3440.87473,0.05474
3438.94599,0.05488
3437.01725,0.05514
3435.08851,0.05504
3433.15977,0.05453
3431.23103,0.05416
3429.30228,0.05413
3427.37354,0.05420
3425.44480,0.05417
3423.51606,0.05396
3421.58732,0.05366
3419.65858,0.05354
3417.72984,0.05369
3415.80109,0.05402
3413.87235,0.05411
3411.94361,0.05370
3410.01487,0.05335
3408.08613,0.05339
3406.15739,0.05342
3404.22865,0.05313
3402.29990,0.05268
3400.37116,0.05226
3398.44242,0.05197
3396.51368,0.05188
3394.58494,0.05187
3392.65620,0.05193
3390.72746,0.05192
3388.79871,0.05164
3386.86997,0.05134
3384.94123,0.05137
3383.01249,0.05152
3381.08375,0.05142
3379.15501,0.05118
3377.22627,0.05125
3375.29752,0.05127
3373.36878,0.05073
3371.44004,0.05014
3369.51130,0.04993
3367.58256,0.04996
3365.65382,0.05004
3363.72508,0.04974
3361.79633,0.04903
3359.86759,0.04856
3357.93885,0.04862
3356.01011,0.04880
3354.08137,0.04862
3352.15263,0.04828
3350.22389,0.04803
3348.29514,0.04763
3346.36640,0.04721
3344.43766,0.04695
3342.50892,0.04654
3340.58018,0.04606
3338.65144,0.04589
3336.72270,0.04594
3334.79395,0.04593
3332.86521,0.04553
3330.93647,0.04479
3329.00773,0.04434
3327.07899,0.04463
3325.15025,0.04524
3323.22151,0.04556
3321.29276,0.04558
3319.36402,0.04579
3317.43528,0.04645
3315.50654,0.04727
3313.57780,0.04812
3311.64906,0.04939
3309.72032,0.05137
3307.79157,0.05392
3305.86283,0.05670
3303.93409,0.05932
3302.00535,0.06182
3300.07661,0.06430
3298.14787,0.06632
3296.21913,0.06769
3294.29038,0.06885
3292.36164,0.07001
3290.43290,0.07084
3288.50416,0.07097
3286.57542,0.07050
3284.64668,0.06976
3282.71793,0.06912
3280.78919,0.06878
3278.86045,0.06854
3276.93171,0.06850
3275.00297,0.06881
3273.07423,0.06892
3271.14549,0.06847
3269.21674,0.06789
3267.28800,0.06748
3265.35926,0.06728
3263.43052,0.06735
3261.50178,0.06743
3259.57304,0.06715
3257.64430,0.06664
3255.71555,0.06619
3253.78681,0.06611
3251.85807,0.06652
3249.92933,0.06671
3248.00059,0.06620
3246.07185,0.06564
3244.14311,0.06550
3242.21436,0.06551
3240.28562,0.06532
3238.35688,0.06507
3236.42814,0.06525
3234.49940,0.06551
3232.57066,0.06520
3230.64192,0.06455
3228.71317,0.06372
3226.78443,0.06263
3224.85569,0.06183
3222.92695,0.06176
3220.99821,0.06200
3219.06947,0.06233
3217.14073,0.06285
3215.21198,0.06305
3213.28324,0.06263
3211.35450,0.06219
3209.42576,0.06216
3207.49702,0.06239
3205.56828,0.06255
3203.63954,0.06250
3201.71079,0.06243
3199.78205,0.06236
3197.85331,0.06215
3195.92457,0.06207
3193.99583,0.06232
3192.06709,0.06263
3190.13835,0.06271
3188.20960,0.06265
3186.28086,0.06259
3184.35212,0.06250
3182.42338,0.06240
3180.49464,0.06249
3178.56590,0.06279
3176.63716,0.06303
3174.70841,0.06280
3172.77967,0.06225
3170.85093,0.06179
3168.92219,0.06160
3166.99345,0.06159
3165.06471,0.06156
3163.13597,0.06158
3161.20722,0.06162
3159.27848,0.06153
3157.34974,0.06164
3155.42100,0.06193
3153.49226,0.06186
3151.56352,0.06155
3149.63478,0.06158
3147.70603,0.06193
3145.77729,0.06201
3143.84855,0.06151
3141.91981,0.06075
3139.99107,0.06041
3138.06233,0.06063
3136.13359,0.06084
3134.20484,0.06068
3132.27610,0.06044
3130.34736,0.06036
3128.41862,0.06039
3126.48988,0.06053
3124.56114,0.06069
3122.63240,0.06054
3120.70365,0.05999
3118.77491,0.05938
3116.84617,0.05919
3114.91743,0.05928
3112.98869,0.05927
3111.05995,0.05922
3109.13121,0.05930
3107.20246,0.05953
3105.27372,0.05975
3103.34498,0.05978
3101.41624,0.05975
3099.48750,0.05983
3097.55876,0.05986
3095.63002,0.05973
3093.70127,0.05968
3091.77253,0.05970
3089.84379,0.05963
3087.91505,0.05964
3085.98631,0.05981
3084.05757,0.05991
3082.12882,0.05990
3080.20008,0.05985
3078.27134,0.05987
3076.34260,0.06008
3074.41386,0.06013
3072.48512,0.05982
3070.55638,0.05953
3068.62763,0.05946
3066.69889,0.05948
3064.77015,0.05943
3062.84141,0.05945
3060.91267,0.05975
3058.98393,0.06019
3057.05519,0.06052
3055.12644,0.06074
3053.19770,0.06102
3051.26896,0.06129
3049.34022,0.06118
3047.41148,0.06074
3045.48274,0.06046
3043.55400,0.06051
3041.62525,0.06064
3039.69651,0.06072
3037.76777,0.06073
3035.83903,0.06064
3033.91029,0.06043
3031.98155,0.06018
3030.05281,0.06005
3028.12406,0.06018
3026.19532,0.06032
3024.26658,0.06011
3022.33784,0.05968
3020.40910,0.05935
3018.48036,0.05919
3016.55162,0.05922
3014.62287,0.05949
3012.69413,0.05981
3010.76539,0.05976
3008.83665,0.05936
3006.90791,0.05918
3004.97917,0.05934
3003.05043,0.05940
3001.12168,0.05920
2999.19294,0.05882
2997.26420,0.05851
2995.33546,0.05831
2993.40672,0.05811
2991.47798,0.05796
2989.54924,0.05781
2987.62049,0.05752
2985.69175,0.05711
2983.76301,0.05678
2981.83427,0.05665
2979.90553,0.05658
2977.97679,0.05640
2976.04805,0.05607
2974.11930,0.05568
2972.19056,0.05530
2970.26182,0.05501
2968.33308,0.05502
2966.40434,0.05519
2964.47560,0.05531
2962.54686,0.05537
2960.61811,0.05528
2958.68937,0.05509
2956.76063,0.05504
2954.83189,0.05516
2952.90315,0.05523
2950.97441,0.05501
2949.04567,0.05468
2947.11692,0.05460
2945.18818,0.05476
2943.25944,0.05508
2941.33070,0.05574
2939.40196,0.05661
2937.47322,0.05739
2935.54448,0.05813
2933.61573,0.05915
2931.68699,0.06061
2929.75825,0.06233
2927.82951,0.06379
2925.90077,0.06489
2923.97203,0.06568
2922.04329,0.06606
2920.11454,0.06617
2918.18580,0.06611
2916.25706,0.06578
2914.32832,0.06538
2912.39958,0.06518
2910.47084,0.06507
2908.54210,0.06495
2906.61335,0.06500
2904.68461,0.06504
2902.75587,0.06478
2900.82713,0.06433
2898.89839,0.06396
2896.96965,0.06354
2895.04091,0.06321
2893.11216,0.06318
2891.18342,0.06309
2889.25468,0.06266
2887.32594,0.06222
2885.39720,0.06191
2883.46846,0.06149
2881.53971,0.06108
2879.61097,0.06094
2877.68223,0.06111
2875.75349,0.06153
2873.82475,0.06205
2871.89601,0.06246
2869.96727,0.06273
2868.03852,0.06289
2866.10978,0.06312
2864.18104,0.06366
2862.25230,0.06445
2860.32356,0.06538
2858.39482,0.06650
2856.46608,0.06775
2854.53733,0.06881
2852.60859,0.06939
2850.67985,0.06959
2848.75111,0.06949
2846.82237,0.06907
2844.89363,0.06844
2842.96489,0.06773
2841.03614,0.06711
2839.10740,0.06669
2837.17866,0.06635
2835.24992,0.06604
2833.32118,0.06564
2831.39244,0.06515
2829.46370,0.06474
2827.53495,0.06468
2825.60621,0.06489
2823.67747,0.06508
2821.74873,0.06510
2819.81999,0.06489
2817.89125,0.06469
2815.96251,0.06476
2814.03376,0.06485
2812.10502,0.06478
2810.17628,0.06452
2808.24754,0.06414
2806.31880,0.06390
2804.39006,0.06382
2802.46132,0.06369
2800.53257,0.06360
2798.60383,0.06370
2796.67509,0.06379
2794.74635,0.06371
2792.81761,0.06356
2790.88887,0.06338
2788.96013,0.06326
2787.03138,0.06319
2785.10264,0.06306
2783.17390,0.06300
2781.24516,0.06315
2779.31642,0.06342
2777.38768,0.06361
2775.45894,0.06366
2773.53019,0.06359
2771.60145,0.06341
2769.67271,0.06315
2767.74397,0.06300
2765.81523,0.06309
2763.88649,0.06321
2761.95775,0.06320
2760.02900,0.06320
2758.10026,0.06324
2756.17152,0.06322
2754.24278,0.06310
2752.31404,0.06305
2750.38530,0.06310
2748.45656,0.06309
2746.52781,0.06304
2744.59907,0.06300
2742.67033,0.06296
2740.74159,0.06296
2738.81285,0.06290
2736.88411,0.06279
2734.95537,0.06278
2733.02662,0.06280
2731.09788,0.06276
2729.16914,0.06270
2727.24040,0.06266
2725.31166,0.06260
2723.38292,0.06247
2721.45418,0.06238
2719.52543,0.06244
2717.59669,0.06249
2715.66795,0.06242
2713.73921,0.06237
2711.81047,0.06245
2709.88173,0.06251
2707.95299,0.06241
2706.02424,0.06235
2704.09550,0.06252
2702.16676,0.06278
2700.23802,0.06281
2698.30928,0.06266
2696.38054,0.06252
2694.45180,0.06235
2692.52305,0.06224
2690.59431,0.06234
2688.66557,0.06247
2686.73683,0.06242
2684.80809,0.06236
2682.87935,0.06243
2680.95060,0.06251
2679.02186,0.06246
2677.09312,0.06227
2675.16438,0.06205
2673.23564,0.06199
2671.30690,0.06207
2669.37816,0.06209
2667.44941,0.06197
2665.52067,0.06183
2663.59193,0.06181
2661.66319,0.06193
2659.73445,0.06209
2657.80571,0.06227
2655.87697,0.06239
2653.94822,0.06235
2652.01948,0.06219
2650.09074,0.06207
2648.16200,0.06205
2646.23326,0.06209
2644.30452,0.06207
2642.37578,0.06186
2640.44703,0.06161
2638.51829,0.06158
2636.58955,0.06172
2634.66081,0.06187
2632.73207,0.06191
2630.80333,0.06177
2628.87459,0.06163
2626.94584,0.06158
2625.01710,0.06160
2623.08836,0.06164
2621.15962,0.06169
2619.23088,0.06172
2617.30214,0.06173
2615.37340,0.06172
2613.44465,0.06163
2611.51591,0.06152
2609.58717,0.06153
2607.65843,0.06158
2605.72969,0.06162
2603.80095,0.06168
2601.87221,0.06161
2599.94346,0.06144
2598.01472,0.06139
2596.08598,0.06156
2594.15724,0.06184
2592.22850,0.06206
2590.29976,0.06204
2588.37102,0.06182
2586.44227,0.06158
2584.51353,0.06136
2582.58479,0.06126
2580.65605,0.06147
2578.72731,0.06180
2576.79857,0.06185
2574.86983,0.06169
2572.94108,0.06166
2571.01234,0.06168
2569.08360,0.06159
2567.15486,0.06169
2565.22612,0.06203
2563.29738,0.06218
2561.36864,0.06197
2559.43989,0.06167
2557.51115,0.06156
2555.58241,0.06161
2553.65367,0.06162
2551.72493,0.06153
2549.79619,0.06140
2547.86745,0.06137
2545.93870,0.06146
2544.00996,0.06152
2542.08122,0.06153
2540.15248,0.06153
2538.22374,0.06141
2536.29500,0.06120
2534.36626,0.06114
2532.43751,0.06128
2530.50877,0.06152
2528.58003,0.06169
2526.65129,0.06163
2524.72255,0.06138
2522.79381,0.06112
2520.86507,0.06094
2518.93632,0.06086
2517.00758,0.06092
2515.07884,0.06105
2513.15010,0.06111
2511.22136,0.06117
2509.29262,0.06132
2507.36388,0.06148
2505.43513,0.06154
2503.50639,0.06149
2501.57765,0.06144
2499.64891,0.06139
2497.72017,0.06124
2495.79143,0.06110
2493.86269,0.06113
2491.93394,0.06119
2490.00520,0.06111
2488.07646,0.06097
2486.14772,0.06094
2484.21898,0.06111
2482.29024,0.06129
2480.36149,0.06129
2478.43275,0.06123
2476.50401,0.06120
2474.57527,0.06122
2472.64653,0.06125
2470.71779,0.06118
2468.78905,0.06107
2466.86030,0.06102
2464.93156,0.06103
2463.00282,0.06103
2461.07408,0.06094
2459.14534,0.06083
2457.21660,0.06085
2455.28786,0.06091
2453.35911,0.06077
2451.43037,0.06059
2449.50163,0.06065
2447.57289,0.06076
2445.64415,0.06078
2443.71541,0.06095
2441.78667,0.06118
2439.85792,0.06110
2437.92918,0.06086
2436.00044,0.06087
2434.07170,0.06098
2432.14296,0.06087
2430.21422,0.06072
2428.28548,0.06081
2426.35673,0.06100
2424.42799,0.06103
2422.49925,0.06091
2420.57051,0.06080
2418.64177,0.06068
2416.71303,0.06056
2414.78429,0.06064
2412.85554,0.06095
2410.92680,0.06118
2408.99806,0.06110
2407.06932,0.06085
2405.14058,0.06064
2403.21184,0.06061
2401.28310,0.06074
2399.35435,0.06084
2397.42561,0.06083
2395.49687,0.06083
2393.56813,0.06089
2391.63939,0.06089
2389.71065,0.06078
2387.78191,0.06064
2385.85316,0.06057
2383.92442,0.06053
2381.99568,0.06046
2380.06694,0.06044
2378.13820,0.06052
2376.20946,0.06071
2374.28072,0.06091
2372.35197,0.06091
2370.42323,0.06067
2368.49449,0.06045
2366.56575,0.06031
2364.63701,0.06027
2362.70827,0.06034
2360.77953,0.06046
2358.85078,0.06059
2356.92204,0.06071
2354.99330,0.06067
2353.06456,0.06035
2351.13582,0.06002
2349.20708,0.06008
2347.27834,0.06034
2345.34959,0.06042
2343.42085,0.06035
2341.49211,0.06045
2339.56337,0.06069
2337.63463,0.06077
2335.70589,0.06063
2333.77715,0.06039
2331.84840,0.06025
2329.91966,0.06025
2327.99092,0.06019
2326.06218,0.06013
2324.13344,0.06027
2322.20470,0.06044
2320.27596,0.06048
2318.34721,0.06051
2316.41847,0.06059
2314.48973,0.06066
2312.56099,0.06060
2310.63225,0.06039
2308.70351,0.06022
2306.77477,0.06028
2304.84602,0.06047
2302.91728,0.06046
2300.98854,0.06022
2299.05980,0.06007
2297.13106,0.06013
2295.20232,0.06021
2293.27357,0.06027
2291.34483,0.06047
2289.41609,0.06063
2287.48735,0.06051
2285.55861,0.06030
2283.62987,0.06019
2281.70113,0.06010
2279.77238,0.06000
2277.84364,0.05999
2275.91490,0.06014
2273.98616,0.06032
2272.05742,0.06035
2270.12868,0.06028
2268.19994,0.06024
2266.27119,0.06018
2264.34245,0.06007
2262.41371,0.06005
2260.48497,0.06018
2258.55623,0.06025
2256.62749,0.06022
2254.69875,0.06022
2252.77000,0.06021
2250.84126,0.06009
2248.91252,0.06004
2246.98378,0.06008
2245.05504,0.06015
2243.12630,0.06010
2241.19756,0.05986
2239.26881,0.05968
2237.34007,0.05970
2235.41133,0.05976
2233.48259,0.05982
2231.55385,0.05980
2229.62511,0.05964
2227.69637,0.05956
2225.76762,0.05966
2223.83888,0.05973
2221.91014,0.05968
2219.98140,0.05965
2218.05266,0.05967
2216.12392,0.05978
2214.19518,0.05984
2212.26643,0.05974
2210.33769,0.05949
2208.40895,0.05929
2206.48021,0.05932
2204.55147,0.05949
2202.62273,0.05963
2200.69399,0.05966
2198.76524,0.05962
2196.83650,0.05960
2194.90776,0.05961
2192.97902,0.05967
2191.05028,0.05968
2189.12154,0.05958
2187.19280,0.05957
2185.26405,0.05966
2183.33531,0.05968
2181.40657,0.05961
2179.47783,0.05956
2177.54909,0.05955
2175.62035,0.05953
2173.69161,0.05951
2171.76286,0.05943
2169.83412,0.05928
2167.90538,0.05916
2165.97664,0.05915
2164.04790,0.05926
2162.11916,0.05938
2160.19042,0.05950
2158.26167,0.05964
2156.33293,0.05969
2154.40419,0.05954
2152.47545,0.05932
2150.54671,0.05924
2148.61797,0.05934
2146.68923,0.05945
2144.76048,0.05942
2142.83174,0.05926
2140.90300,0.05918
2138.97426,0.05926
2137.04552,0.05939
2135.11678,0.05939
2133.18804,0.05922
2131.25929,0.05906
2129.33055,0.05911
2127.40181,0.05922
2125.47307,0.05924
2123.54433,0.05920
2121.61559,0.05916
2119.68685,0.05906
2117.75810,0.05901
2115.82936,0.05907
2113.90062,0.05904
2111.97188,0.05884
2110.04314,0.05868
2108.11440,0.05870
2106.18566,0.05885
2104.25691,0.05900
2102.32817,0.05905
2100.39943,0.05899
2098.47069,0.05885
2096.54195,0.05868
2094.61321,0.05853
2092.68446,0.05846
2090.75572,0.05847
2088.82698,0.05856
2086.89824,0.05875
2084.96950,0.05893
2083.04076,0.05900
2081.11202,0.05900
2079.18327,0.05901
2077.25453,0.05901
2075.32579,0.05891
2073.39705,0.05878
2071.46831,0.05871
2069.53957,0.05858
2067.61083,0.05845
2065.68208,0.05855
2063.75334,0.05876
2061.82460,0.05888
2059.89586,0.05887
2057.96712,0.05879
2056.03838,0.05870
2054.10964,0.05858
2052.18089,0.05847
2050.25215,0.05844
2048.32341,0.05847
2046.39467,0.05855
2044.46593,0.05867
2042.53719,0.05874
2040.60845,0.05866
2038.67970,0.05860
2036.75096,0.05868
2034.82222,0.05873
2032.89348,0.05853
2030.96474,0.05824
2029.03600,0.05816
2027.10726,0.05824
2025.17851,0.05824
2023.24977,0.05815
2021.32103,0.05811
2019.39229,0.05818
2017.46355,0.05831
2015.53481,0.05837
2013.60607,0.05828
2011.67732,0.05807
2009.74858,0.05793
2007.81984,0.05803
2005.89110,0.05821
2003.96236,0.05823
2002.03362,0.05812
2000.10488,0.05807
1998.17613,0.05802
1996.24739,0.05784
1994.31865,0.05772
1992.38991,0.05779
1990.46117,0.05789
1988.53243,0.05790
1986.60369,0.05788
1984.67494,0.05778
1982.74620,0.05759
1980.81746,0.05758
1978.88872,0.05773
1976.95998,0.05780
1975.03124,0.05769
1973.10250,0.05751
1971.17375,0.05740
1969.24501,0.05740
1967.31627,0.05735
1965.38753,0.05722
1963.45879,0.05726
1961.53005,0.05735
1959.60131,0.05725
1957.67256,0.05710
1955.74382,0.05710
1953.81508,0.05714
1951.88634,0.05706
1949.95760,0.05697
1948.02886,0.05699
1946.10012,0.05706
1944.17137,0.05712
1942.24263,0.05717
1940.31389,0.05712
1938.38515,0.05695
1936.45641,0.05692
1934.52767,0.05703
1932.59893,0.05707
1930.67018,0.05695
1928.74144,0.05678
1926.81270,0.05678
1924.88396,0.05693
1922.95522,0.05701
1921.02648,0.05688
1919.09774,0.05665
1917.16899,0.05654
1915.24025,0.05660
1913.31151,0.05670
1911.38277,0.05675
1909.45403,0.05672
1907.52529,0.05666
1905.59655,0.05664
1903.66780,0.05655
1901.73906,0.05635
1899.81032,0.05614
1897.88158,0.05592
1895.95284,0.05580
1894.02410,0.05589
1892.09535,0.05605
1890.16661,0.05610
1888.23787,0.05600
1886.30913,0.05582
1884.38039,0.05569
1882.45165,0.05569
1880.52291,0.05571
1878.59416,0.05561
1876.66542,0.05546
1874.73668,0.05542
1872.80794,0.05549
1870.87920,0.05556
1868.95046,0.05552
1867.02172,0.05543
1865.09297,0.05535
1863.16423,0.05520
1861.23549,0.05502
1859.30675,0.05490
1857.37801,0.05477
1855.44927,0.05471
1853.52053,0.05470
1851.59178,0.05466
1849.66304,0.05469
1847.73430,0.05482
1845.80556,0.05488
1843.87682,0.05478
1841.94808,0.05460
1840.01934,0.05451
1838.09059,0.05445
1836.16185,0.05432
1834.23311,0.05420
1832.30437,0.05425
1830.37563,0.05430
1828.44689,0.05416
1826.51815,0.05400
1824.58940,0.05385
1822.66066,0.05364
1820.73192,0.05356
1818.80318,0.05367
1816.87444,0.05371
1814.94570,0.05353
1813.01696,0.05326
1811.08821,0.05304
1809.15947,0.05290
1807.23073,0.05279
1805.30199,0.05265
1803.37325,0.05259
1801.44451,0.05258
1799.51577,0.05247
1797.58702,0.05234
1795.65828,0.05222
1793.72954,0.05204
1791.80080,0.05183
1789.87206,0.05168
1787.94332,0.05173
1786.01458,0.05180
1784.08583,0.05161
1782.15709,0.05130
1780.22835,0.05112
1778.29961,0.05102
1776.37087,0.05087
1774.44213,0.05064
1772.51339,0.05037
1770.58464,0.05015
1768.65590,0.04994
1766.72716,0.04962
1764.79842,0.04944
1762.86968,0.04958
1760.94094,0.04986
1759.01220,0.05002
1757.08345,0.05008
1755.15471,0.05009
1753.22597,0.05001
1751.29723,0.04989
1749.36849,0.04977
1747.43975,0.04965
1745.51101,0.04964
1743.58226,0.04967
1741.65352,0.04950
1739.72478,0.04918
1737.79604,0.04888
1735.86730,0.04851
1733.93856,0.04809
1732.00982,0.04776
1730.08107,0.04741
1728.15233,0.04699
1726.22359,0.04667
1724.29485,0.04640
1722.36611,0.04611
1720.43737,0.04595
1718.50863,0.04580
1716.57988,0.04537
1714.65114,0.04477
1712.72240,0.04420
1710.79366,0.04375
1708.86492,0.04331
1706.93618,0.04279
1705.00744,0.04223
1703.07869,0.04179
1701.14995,0.04138
1699.22121,0.04091
1697.29247,0.04042
1695.36373,0.03967
1693.43499,0.03881
1691.50624,0.03818
1689.57750,0.03766
1687.64876,0.03715
1685.72002,0.03656
1683.79128,0.03576
1681.86254,0.03509
1679.93380,0.03464
1678.00505,0.03419
1676.07631,0.03379
1674.14757,0.03357
1672.21883,0.03349
1670.29009,0.03336
1668.36135,0.03335
1666.43261,0.03387
1664.50386,0.03488
1662.57512,0.03653
1660.64638,0.03889
1658.71764,0.04171
1656.78890,0.04487
1654.86016,0.04908
1652.93142,0.05585
1651.00267,0.06368
1649.07393,0.07133
1647.14519,0.08095
1645.21645,0.09253
1643.28771,0.10370
1641.35897,0.11406
1639.43023,0.12343
1637.50148,0.13129
1635.57274,0.13733
1633.64400,0.14021
1631.71526,0.13910
1629.78652,0.13426
1627.85778,0.12671
1625.92904,0.11867
1624.00029,0.11144
1622.07155,0.10545
1620.14281,0.10090
1618.21407,0.09694
1616.28533,0.09291
1614.35659,0.08952
1612.42785,0.08687
1610.49910,0.08448
1608.57036,0.08236
1606.64162,0.08063
1604.71288,0.07912
1602.78414,0.07752
1600.85540,0.07573
1598.92666,0.07386
1596.99791,0.07201
1595.06917,0.07017
1593.14043,0.06847
1591.21169,0.06695
1589.28295,0.06533
1587.35421,0.06364
1585.42547,0.06202
1583.49672,0.06045
1581.56798,0.05890
1579.63924,0.05744
1577.71050,0.05592
1575.78176,0.05415
1573.85302,0.05257
1571.92428,0.05137
1569.99553,0.05017
1568.06679,0.04895
1566.13805,0.04797
1564.20931,0.04737
1562.28057,0.04716
1560.35183,0.04726
1558.42309,0.04768
1556.49434,0.04849
1554.56560,0.04969
1552.63686,0.05156
1550.70812,0.05457
1548.77938,0.05893
1546.85064,0.06442
1544.92190,0.07070
1542.99315,0.07750
1541.06441,0.08482
1539.13567,0.09220
1537.20693,0.09758
1535.27819,0.10070
1533.34945,0.10219
1531.42071,0.10213
1529.49196,0.10092
1527.56322,0.09907
1525.63448,0.09696
1523.70574,0.09483
1521.77700,0.09253
1519.84826,0.09016
1517.91952,0.08811
1515.99077,0.08635
1514.06203,0.08488
1512.13329,0.08366
1510.20455,0.08267
1508.27581,0.08160
1506.34707,0.08002
1504.41833,0.07866
1502.48958,0.07795
1500.56084,0.07730
1498.63210,0.07640
1496.70336,0.07545
1494.77462,0.07469
1492.84588,0.07402
1490.91713,0.07312
1488.98839,0.07194
1487.05965,0.07065
1485.13091,0.06940
1483.20217,0.06848
1481.27343,0.06812
1479.34469,0.06841
1477.41594,0.06962
1475.48720,0.07166
1473.55846,0.07360
1471.62972,0.07418
1469.70098,0.07349
1467.77224,0.07297
1465.84350,0.07371
1463.91475,0.07524
1461.98601,0.07612
1460.05727,0.07598
1458.12853,0.07522
1456.19979,0.07436
1454.27105,0.07377
1452.34231,0.07330
1450.41356,0.07275
1448.48482,0.07211
1446.55608,0.07163
1444.62734,0.07136
1442.69860,0.07108
1440.76986,0.07079
1438.84112,0.07054
1436.91237,0.07029
1434.98363,0.07018
1433.05489,0.07032
1431.12615,0.07047
1429.19741,0.07042
1427.26867,0.07023
1425.33993,0.07009
1423.41118,0.07014
1421.48244,0.07073
1419.55370,0.07248
1417.62496,0.07512
1415.69622,0.07711
1413.76748,0.07761
1411.83874,0.07692
1409.90999,0.07576
1407.98125,0.07460
1406.05251,0.07352
1404.12377,0.07249
1402.19503,0.07161
1400.26629,0.07094
1398.33755,0.07039
1396.40880,0.06982
1394.48006,0.06915
1392.55132,0.06858
1390.62258,0.06838
1388.69384,0.06846
1386.76510,0.06853
1384.83636,0.06847
1382.90761,0.06836
1380.97887,0.06830
1379.05013,0.06827
1377.12139,0.06829
1375.19265,0.06860
1373.26391,0.06935
1371.33517,0.07030
1369.40642,0.07110
1367.47768,0.07167
1365.54894,0.07201
1363.62020,0.07207
1361.69146,0.07197
1359.76272,0.07188
1357.83398,0.07185
1355.90523,0.07181
1353.97649,0.07175
1352.04775,0.07171
1350.11901,0.07158
1348.19027,0.07134
1346.26153,0.07110
1344.33279,0.07085
1342.40404,0.07059
1340.47530,0.07040
1338.54656,0.07012
1336.61782,0.06978
1334.68908,0.06952
1332.76034,0.06927
1330.83160,0.06906
1328.90285,0.06897
1326.97411,0.06895
1325.04537,0.06889
1323.11663,0.06872
1321.18789,0.06840
1319.25915,0.06802
1317.33041,0.06764
1315.40166,0.06729
1313.47292,0.06703
1311.54418,0.06686
1309.61544,0.06678
1307.68670,0.06673
1305.75796,0.06657
1303.82922,0.06631
1301.90047,0.06609
1299.97173,0.06593
1298.04299,0.06566
1296.11425,0.06531
1294.18551,0.06496
1292.25677,0.06462
1290.32802,0.06433
1288.39928,0.06403
1286.47054,0.06363
1284.54180,0.06333
1282.61306,0.06338
1280.68432,0.06391
1278.75558,0.06494
1276.82683,0.06636
1274.89809,0.06794
1272.96935,0.06944
1271.04061,0.07072
1269.11187,0.07171
1267.18313,0.07237
1265.25439,0.07284
1263.32564,0.07325
1261.39690,0.07350
1259.46816,0.07354
1257.53942,0.07340
1255.61068,0.07319
1253.68194,0.07316
1251.75320,0.07322
1249.82445,0.07323
1247.89571,0.07321
1245.96697,0.07296
1244.03823,0.07250
1242.10949,0.07213
1240.18075,0.07192
1238.25201,0.07182
1236.32326,0.07187
1234.39452,0.07194
1232.46578,0.07185
1230.53704,0.07161
1228.60830,0.07132
1226.67956,0.07100
1224.75082,0.07077
1222.82207,0.07074
1220.89333,0.07075
1218.96459,0.07068
1217.03585,0.07037
1215.10711,0.06971
1213.17837,0.06880
1211.24963,0.06786
1209.32088,0.06703
1207.39214,0.06652
1205.46340,0.06662
1203.53466,0.06757
1201.60592,0.06942
1199.67718,0.07187
1197.74844,0.07404
1195.81969,0.07518
1193.89095,0.07541
1191.96221,0.07522
1190.03347,0.07475
1188.10473,0.07400
1186.17599,0.07349
1184.24725,0.07356
1182.31850,0.07397
1180.38976,0.07440
1178.46102,0.07466
1176.53228,0.07487
1174.60354,0.07504
1172.67480,0.07494
1170.74606,0.07453
1168.81731,0.07405
1166.88857,0.07363
1164.95983,0.07330
1163.03109,0.07311
1161.10235,0.07307
1159.17361,0.07309
1157.24487,0.07287
1155.31612,0.07241
1153.38738,0.07205
1151.45864,0.07179
1149.52990,0.07164
1147.60116,0.07179
1145.67242,0.07210
1143.74368,0.07239
1141.81493,0.07259
1139.88619,0.07263
1137.95745,0.07262
1136.02871,0.07258
1134.09997,0.07253
1132.17123,0.07257
1130.24249,0.07237
1128.31374,0.07169
1126.38500,0.07104
1124.45626,0.07070
1122.52752,0.07049
1120.59878,0.07051
1118.67004,0.07073
1116.74130,0.07083
1114.81255,0.07085
1112.88381,0.07087
1110.95507,0.07076
1109.02633,0.07043
1107.09759,0.07010
1105.16885,0.06994
1103.24011,0.06991
1101.31136,0.06984
1099.38262,0.06971
1097.45388,0.06978
1095.52514,0.07000
1093.59640,0.06993
1091.66766,0.06961
1089.73891,0.06934
1087.81017,0.06919
1085.88143,0.06908
1083.95269,0.06904
1082.02395,0.06917
1080.09521,0.06924
1078.16647,0.06892
1076.23772,0.06841
1074.30898,0.06808
1072.38024,0.06800
1070.45150,0.06829
1068.52276,0.06874
1066.59402,0.06886
1064.66528,0.06881
1062.73653,0.06908
1060.80779,0.06947
1058.87905,0.06947
1056.95031,0.06914
1055.02157,0.06878
1053.09283,0.06860
1051.16409,0.06867
1049.23534,0.06864
1047.30660,0.06830
1045.37786,0.06800
1043.44912,0.06801
1041.52038,0.06820
1039.59164,0.06846
1037.66290,0.06866
1035.73415,0.06864
1033.80541,0.06846
1031.87667,0.06838
1029.94793,0.06862
1028.01919,0.06895
1026.09045,0.06880
1024.16171,0.06829
1022.23296,0.06797
1020.30422,0.06805
1018.37548,0.06832
1016.44674,0.06850
1014.51800,0.06850
1012.58926,0.06848
1010.66052,0.06856
1008.73177,0.06858
1006.80303,0.06847
1004.87429,0.06839
1002.94555,0.06836
1001.01681,0.06818
999.08807,0.06787
997.15933,0.06776
995.23058,0.06785
993.30184,0.06777
991.37310,0.06745
989.44436,0.06709
987.51562,0.06688
985.58688,0.06689
983.65814,0.06690
981.72939,0.06666
979.80065,0.06642
977.87191,0.06647
975.94317,0.06661
974.01443,0.06666
972.08569,0.06658
970.15695,0.06625
968.22820,0.06597
966.29946,0.06602
964.37072,0.06612
962.44198,0.06596
960.51324,0.06563
958.58450,0.06535
956.65576,0.06538
954.72701,0.06550
952.79827,0.06528
950.86953,0.06485
948.94079,0.06456
947.01205,0.06435
945.08331,0.06417
943.15457,0.06412
941.22582,0.06428
939.29708,0.06471
937.36834,0.06557
935.43960,0.06679
933.51086,0.06780
931.58212,0.06809
929.65338,0.06790
927.72463,0.06785
925.79589,0.06810
923.86715,0.06823
921.93841,0.06789
920.00967,0.06737
918.08093,0.06712
916.15219,0.06696
914.22344,0.06658
912.29470,0.06606
910.36596,0.06564
908.43722,0.06562
906.50848,0.06604
904.57974,0.06640
902.65100,0.06645
900.72225,0.06638
898.79351,0.06636
896.86477,0.06641
894.93603,0.06630
893.00729,0.06593
891.07855,0.06571
889.14980,0.06566
887.22106,0.06526
885.29232,0.06468
883.36358,0.06455
881.43484,0.06471
879.50610,0.06478
877.57736,0.06486
875.64861,0.06500
873.71987,0.06501
871.79113,0.06479
869.86239,0.06448
867.93365,0.06432
866.00491,0.06429
864.07617,0.06417
862.14742,0.06410
860.21868,0.06418
858.28994,0.06424
856.36120,0.06407
854.43246,0.06367
852.50372,0.06341
850.57498,0.06329
848.64623,0.06312
846.71749,0.06319
844.78875,0.06340
842.86001,0.06340
840.93127,0.06325
839.00253,0.06307
837.07379,0.06286
835.14504,0.06276
833.21630,0.06268
831.28756,0.06241
829.35882,0.06227
827.43008,0.06249
825.50134,0.06257
823.57260,0.06229
821.64385,0.06191
819.71511,0.06170
817.78637,0.06164
815.85763,0.06162
813.92889,0.06167
812.00015,0.06186
810.07141,0.06209
808.14266,0.06211
806.21392,0.06187
804.28518,0.06160
802.35644,0.06140
800.42770,0.06130
798.49896,0.06126
796.57022,0.06116
794.64147,0.06097
792.71273,0.06086
790.78399,0.06077
788.85525,0.06061
786.92651,0.06060
784.99777,0.06072
783.06903,0.06055
781.14028,0.06015
779.21154,0.05976
777.28280,0.05933
775.35406,0.05880
773.42532,0.05840
771.49658,0.05821
769.56784,0.05796
767.63909,0.05782
765.71035,0.05797
763.78161,0.05805
761.85287,0.05779
759.92413,0.05724
757.99539,0.05663
756.06665,0.05630
754.13790,0.05623
752.20916,0.05603
750.28042,0.05576
748.35168,0.05562
746.42294,0.05544
744.49420,0.05521
742.56546,0.05502
740.63671,0.05451
738.70797,0.05370
736.77923,0.05317
734.85049,0.05311
732.92175,0.05331
730.99301,0.05365
729.06427,0.05415
727.13552,0.05497
725.20678,0.05605
723.27804,0.05684
721.34930,0.05703
719.42056,0.05679
717.49182,0.05632
715.56308,0.05583
713.63433,0.05558
711.70559,0.05570
709.77685,0.05605
707.84811,0.05596
705.91937,0.05534
703.99063,0.05491
702.06189,0.05476
700.13314,0.05472
698.20440,0.05532
696.27566,0.05661
694.34692,0.05815
692.41818,0.05951
690.48944,0.06045
688.56069,0.06151
686.63195,0.06289
684.70321,0.06416
682.77447,0.06567
680.84573,0.06748
678.91699,0.06858
676.98825,0.06860
675.05950,0.06857
673.13076,0.06923
671.20202,0.06977
669.27328,0.06942
667.34454,0.06911
665.41580,0.06934
663.48706,0.06898
661.55831,0.06805
659.62957,0.06754
657.70083,0.06772
655.77209,0.06847
653.84335,0.06891
651.91461,0.06825
649.98587,0.06739
648.05712,0.06727
646.12838,0.06772
644.19964,0.06843
642.27090,0.06876
640.34216,0.06845
638.41342,0.06781
636.48468,0.06693
634.55593,0.06606
632.62719,0.06523
630.69845,0.06448
628.76971,0.06448
626.84097,0.06485
624.91223,0.06479
622.98349,0.06460
621.05474,0.06431
619.12600,0.06355
617.19726,0.06288
615.26852,0.06260
613.33978,0.06197
611.41104,0.06132
609.48230,0.06152
607.55355,0.06187
605.62481,0.06140
603.69607,0.06053
601.76733,0.06022
599.83859,0.06065
