7497.01799,0.12819
7495.08925,0.13062
7493.16050,0.12787
7491.23176,0.12347
7489.30302,0.12141
7487.37428,0.12271
7485.44554,0.12406
7483.51680,0.12444
7481.58806,0.12380
7479.65931,0.11986
7477.73057,0.11482
7475.80183,0.11575
7473.87309,0.12345
7471.94435,0.13205
7470.01561,0.13516
7468.08686,0.13040
7466.15812,0.12256
7464.22938,0.11946
7462.30064,0.11926
7460.37190,0.11832
7458.44316,0.11758
7456.51442,0.11600
7454.58567,0.11606
7452.65693,0.12016
7450.72819,0.11979
7448.79945,0.11471
7446.87071,0.11467
7444.94197,0.11912
7443.01323,0.12317
7441.08448,0.12710
7439.15574,0.13022
7437.22700,0.12937
7435.29826,0.12403
7433.36952,0.12165
7431.44078,0.12319
7429.51204,0.11903
7427.58329,0.11271
7425.65455,0.11575
7423.72581,0.12490
7421.79707,0.13079
7419.86833,0.12948
7417.93959,0.12250
7416.01085,0.11543
7414.08210,0.11323
7412.15336,0.11546
7410.22462,0.11920
7408.29588,0.12386
7406.36714,0.12738
7404.43840,0.12559
7402.50966,0.12025
7400.58091,0.11698
7398.65217,0.11776
7396.72343,0.11934
7394.79469,0.11734
7392.86595,0.11437
7390.93721,0.11675
7389.00847,0.12252
7387.07972,0.12503
7385.15098,0.12183
7383.22224,0.11655
7381.29350,0.11620
7379.36476,0.12062
7377.43602,0.12238
7375.50728,0.11843
7373.57853,0.11181
7371.64979,0.10867
7369.72105,0.10964
7367.79231,0.10848
7365.86357,0.10624
7363.93483,0.10803
7362.00609,0.11088
7360.07734,0.11100
7358.14860,0.10921
7356.21986,0.10953
7354.29112,0.11407
7352.36238,0.11687
7350.43364,0.11462
7348.50490,0.11382
7346.57615,0.11609
7344.64741,0.11682
7342.71867,0.11454
7340.78993,0.11055
7338.86119,0.10685
7336.93245,0.10373
7335.00371,0.10133
7333.07496,0.10397
7331.14622,0.11216
7329.21748,0.11757
7327.28874,0.11613
7325.36000,0.11403
7323.43126,0.11416
7321.50252,0.11337
7319.57377,0.10892
7317.64503,0.10435
7315.71629,0.10544
7313.78755,0.10811
7311.85881,0.10613
7309.93007,0.10472
7308.00133,0.10929
7306.07258,0.11455
7304.14384,0.11405
7302.21510,0.10989
7300.28636,0.10678
7298.35762,0.10570
7296.42888,0.10505
7294.50014,0.10146
7292.57139,0.09472
7290.64265,0.09059
7288.71391,0.09157
7286.78517,0.09411
7284.85643,0.09800
7282.92769,0.10453
7280.99894,0.10770
7279.07020,0.10481
7277.14146,0.10089
7275.21272,0.09712
7273.28398,0.09441
7271.35524,0.09541
7269.42650,0.09660
7267.49775,0.09440
7265.56901,0.09090
7263.64027,0.08815
7261.71153,0.08680
7259.78279,0.08896
7257.85405,0.09288
7255.92531,0.09196
7253.99656,0.08604
7252.06782,0.08188
7250.13908,0.08186
7248.21034,0.08277
7246.28160,0.08323
7244.35286,0.08526
7242.42412,0.08918
7240.49537,0.09117
7238.56663,0.08972
7236.63789,0.08939
7234.70915,0.09123
7232.78041,0.09017
7230.85167,0.08543
7228.92293,0.08069
7226.99418,0.07892
7225.06544,0.08132
7223.13670,0.08452
7221.20796,0.08567
7219.27922,0.08616
7217.35048,0.08649
7215.42174,0.08618
7213.49299,0.08534
7211.56425,0.08472
7209.63551,0.08593
7207.70677,0.08684
7205.77803,0.08498
7203.84929,0.08400
7201.92055,0.08545
7199.99180,0.08512
7198.06306,0.08246
7196.13432,0.08039
7194.20558,0.07968
7192.27684,0.07903
7190.34810,0.07738
7188.41936,0.07582
7186.49061,0.07705
7184.56187,0.08071
7182.63313,0.08395
7180.70439,0.08575
7178.77565,0.08702
7176.84691,0.08689
7174.91817,0.08501
7172.98942,0.08494
7171.06068,0.08897
7169.13194,0.09311
7167.20320,0.09108
7165.27446,0.08231
7163.34572,0.07459
7161.41698,0.07353
7159.48823,0.07588
7157.55949,0.07690
7155.63075,0.07716
7153.70201,0.08005
7151.77327,0.08471
7149.84453,0.08740
7147.91579,0.08823
7145.98704,0.08747
7144.05830,0.08436
7142.12956,0.08120
7140.20082,0.08090
7138.27208,0.08225
7136.34334,0.08232
7134.41460,0.08109
7132.48585,0.07968
7130.55711,0.07742
7128.62837,0.07569
7126.69963,0.07647
7124.77089,0.07818
7122.84215,0.07908
7120.91341,0.07895
7118.98466,0.07739
7117.05592,0.07708
7115.12718,0.08010
7113.19844,0.08357
7111.26970,0.08404
7109.34096,0.08081
7107.41222,0.07570
7105.48347,0.07224
7103.55473,0.07262
7101.62599,0.07624
7099.69725,0.08141
7097.76851,0.08620
7095.83977,0.08801
7093.91103,0.08631
7091.98228,0.08287
7090.05354,0.08028
7088.12480,0.07869
7086.19606,0.07723
7084.26732,0.07798
7082.33858,0.08035
7080.40983,0.07948
7078.48109,0.07637
7076.55235,0.07529
7074.62361,0.07495
7072.69487,0.07507
7070.76613,0.07805
7068.83739,0.08131
7066.90864,0.08210
7064.97990,0.08111
7063.05116,0.07895
7061.12242,0.07674
7059.19368,0.07500
7057.26494,0.07348
7055.33620,0.07343
7053.40745,0.07486
7051.47871,0.07529
7049.54997,0.07484
7047.62123,0.07569
7045.69249,0.07636
7043.76375,0.07633
7041.83501,0.07698
7039.90626,0.07707
7037.97752,0.07636
7036.04878,0.07648
7034.12004,0.07906
7032.19130,0.08430
7030.26256,0.08847
7028.33382,0.08927
7026.40507,0.08863
7024.47633,0.08734
7022.54759,0.08420
7020.61885,0.08135
7018.69011,0.08123
7016.76137,0.08187
7014.83263,0.08098
7012.90388,0.07986
7010.97514,0.07935
7009.04640,0.07867
7007.11766,0.07940
7005.18892,0.08222
7003.26018,0.08448
7001.33144,0.08551
6999.40269,0.08498
6997.47395,0.08282
6995.54521,0.08138
6993.61647,0.08085
6991.68773,0.07869
6989.75899,0.07640
6987.83025,0.07785
6985.90150,0.08204
6983.97276,0.08519
6982.04402,0.08641
6980.11528,0.08509
6978.18654,0.08111
6976.25780,0.07775
6974.32906,0.07781
6972.40031,0.07960
6970.47157,0.07997
6968.54283,0.07874
6966.61409,0.07772
6964.68535,0.07907
6962.75661,0.08215
6960.82787,0.08242
6958.89912,0.07976
6956.97038,0.07844
6955.04164,0.07928
6953.11290,0.07973
6951.18416,0.07916
6949.25542,0.07914
6947.32668,0.07986
6945.39793,0.08114
6943.46919,0.08337
6941.54045,0.08478
6939.61171,0.08356
6937.68297,0.08068
6935.75423,0.07866
6933.82549,0.07763
6931.89674,0.07675
6929.96800,0.07758
6928.03926,0.08004
6926.11052,0.08076
6924.18178,0.07975
6922.25304,0.08205
6920.32430,0.08747
6918.39555,0.08931
6916.46681,0.08619
6914.53807,0.08140
6912.60933,0.07716
6910.68059,0.07590
6908.75185,0.07886
6906.82311,0.08306
6904.89436,0.08451
6902.96562,0.08374
6901.03688,0.08205
6899.10814,0.07919
6897.17940,0.07795
6895.25066,0.08026
6893.32192,0.08426
6891.39317,0.08774
6889.46443,0.08869
6887.53569,0.08783
6885.60695,0.08739
6883.67821,0.08695
6881.74947,0.08548
6879.82072,0.08271
6877.89198,0.08004
6875.96324,0.07986
6874.03450,0.08179
6872.10576,0.08296
6870.17702,0.08190
6868.24828,0.08003
6866.31953,0.07946
6864.39079,0.08033
6862.46205,0.08115
6860.53331,0.08102
6858.60457,0.08112
6856.67583,0.08169
6854.74709,0.08160
6852.81834,0.08157
6850.88960,0.08296
6848.96086,0.08464
6847.03212,0.08565
6845.10338,0.08696
6843.17464,0.08762
6841.24590,0.08669
6839.31715,0.08633
6837.38841,0.08550
6835.45967,0.08272
6833.53093,0.08104
6831.60219,0.08233
6829.67345,0.08418
6827.74471,0.08463
6825.81596,0.08453
6823.88722,0.08491
6821.95848,0.08411
6820.02974,0.08183
6818.10100,0.08090
6816.17226,0.08163
6814.24352,0.08319
6812.31477,0.08589
6810.38603,0.08703
6808.45729,0.08519
6806.52855,0.08279
6804.59981,0.08082
6802.67107,0.08012
6800.74233,0.08079
6798.81358,0.07997
6796.88484,0.07924
6794.95610,0.08091
6793.02736,0.08178
6791.09862,0.08082
6789.16988,0.08033
6787.24114,0.07996
6785.31239,0.07840
6783.38365,0.07670
6781.45491,0.07729
6779.52617,0.08027
6777.59743,0.08235
6775.66869,0.08082
6773.73995,0.07867
6771.81120,0.07865
6769.88246,0.07857
6767.95372,0.07743
6766.02498,0.07601
6764.09624,0.07493
6762.16750,0.07497
6760.23876,0.07654
6758.31001,0.07955
6756.38127,0.08174
6754.45253,0.08196
6752.52379,0.08101
6750.59505,0.07928
6748.66631,0.07827
6746.73757,0.07812
6744.80882,0.07774
6742.88008,0.07806
6740.95134,0.07891
6739.02260,0.07860
6737.09386,0.07740
6735.16512,0.07681
6733.23638,0.07746
6731.30763,0.07882
6729.37889,0.07873
6727.45015,0.07576
6725.52141,0.07282
6723.59267,0.07342
6721.66393,0.07531
6719.73519,0.07548
6717.80644,0.07449
6715.87770,0.07305
6713.94896,0.07225
6712.02022,0.07383
6710.09148,0.07672
6708.16274,0.07827
6706.23400,0.07809
6704.30525,0.07760
6702.37651,0.07671
6700.44777,0.07403
6698.51903,0.07058
6696.59029,0.06926
6694.66155,0.06972
6692.73281,0.06985
6690.80406,0.07047
6688.87532,0.07270
6686.94658,0.07565
6685.01784,0.07812
6683.08910,0.07777
6681.16036,0.07466
6679.23161,0.07406
6677.30287,0.07682
6675.37413,0.07746
6673.44539,0.07626
6671.51665,0.07709
6669.58791,0.07801
6667.65917,0.07601
6665.73042,0.07275
6663.80168,0.07143
6661.87294,0.07209
6659.94420,0.07208
6658.01546,0.07200
6656.08672,0.07293
6654.15798,0.07155
6652.22923,0.06801
6650.30049,0.06731
6648.37175,0.06876
6646.44301,0.06949
6644.51427,0.06996
6642.58553,0.06921
6640.65679,0.06674
6638.72804,0.06518
6636.79930,0.06517
6634.87056,0.06660
6632.94182,0.07008
6631.01308,0.07269
6629.08434,0.07105
6627.15560,0.06728
6625.22685,0.06534
6623.29811,0.06635
6621.36937,0.06845
6619.44063,0.07010
6617.51189,0.07190
6615.58315,0.07282
6613.65441,0.07147
6611.72566,0.06969
6609.79692,0.06828
6607.86818,0.06656
6605.93944,0.06494
6604.01070,0.06448
6602.08196,0.06528
6600.15322,0.06557
6598.22447,0.06488
6596.29573,0.06510
6594.36699,0.06623
6592.43825,0.06725
6590.50951,0.06774
6588.58077,0.06689
6586.65203,0.06483
6584.72328,0.06277
6582.79454,0.06163
6580.86580,0.06284
6578.93706,0.06591
6577.00832,0.06731
6575.07958,0.06690
6573.15084,0.06811
6571.22209,0.06967
6569.29335,0.06857
6567.36461,0.06588
6565.43587,0.06420
6563.50713,0.06466
6561.57839,0.06518
6559.64965,0.06338
6557.72090,0.06128
6555.79216,0.06109
6553.86342,0.06131
6551.93468,0.06034
6550.00594,0.05995
6548.07720,0.06122
6546.14846,0.06228
6544.21971,0.06233
6542.29097,0.06324
6540.36223,0.06531
6538.43349,0.06601
6536.50475,0.06342
6534.57601,0.05936
6532.64727,0.05758
6530.71852,0.06045
6528.78978,0.06583
6526.86104,0.06883
6524.93230,0.06838
6523.00356,0.06841
6521.07482,0.06976
6519.14608,0.06910
6517.21733,0.06646
6515.28859,0.06478
6513.35985,0.06423
6511.43111,0.06342
6509.50237,0.06265
6507.57363,0.06256
6505.64489,0.06248
6503.71614,0.06223
6501.78740,0.06210
6499.85866,0.06246
6497.92992,0.06360
6496.00118,0.06383
6494.07244,0.06143
6492.14370,0.05894
6490.21495,0.05997
6488.28621,0.06309
6486.35747,0.06415
6484.42873,0.06339
6482.49999,0.06378
6480.57125,0.06446
6478.64250,0.06372
6476.71376,0.06315
6474.78502,0.06334
6472.85628,0.06387
6470.92754,0.06594
6468.99880,0.06873
6467.07006,0.06884
6465.14131,0.06592
6463.21257,0.06381
6461.28383,0.06495
6459.35509,0.06694
6457.42635,0.06637
6455.49761,0.06461
6453.56887,0.06464
6451.64012,0.06512
6449.71138,0.06518
6447.78264,0.06636
6445.85390,0.06778
6443.92516,0.06809
6441.99642,0.06896
6440.06768,0.07138
6438.13893,0.07315
6436.21019,0.07276
6434.28145,0.07203
6432.35271,0.07250
6430.42397,0.07277
6428.49523,0.07118
6426.56649,0.06934
6424.63774,0.06985
6422.70900,0.07198
6420.78026,0.07365
6418.85152,0.07470
6416.92278,0.07385
6414.99404,0.07088
6413.06530,0.06943
6411.13655,0.07075
6409.20781,0.07179
6407.27907,0.07160
6405.35033,0.07266
6403.42159,0.07468
6401.49285,0.07523
6399.56411,0.07504
6397.63536,0.07472
6395.70662,0.07324
6393.77788,0.07107
6391.84914,0.06961
6389.92040,0.06910
6387.99166,0.06926
6386.06292,0.07016
6384.13417,0.07101
6382.20543,0.07073
6380.27669,0.06919
6378.34795,0.06657
6376.41921,0.06458
6374.49047,0.06543
6372.56173,0.06762
6370.63298,0.06788
6368.70424,0.06750
6366.77550,0.06878
6364.84676,0.07016
6362.91802,0.07036
6360.98928,0.07047
6359.06054,0.07041
6357.13179,0.06956
6355.20305,0.06808
6353.27431,0.06614
6351.34557,0.06487
6349.41683,0.06535
6347.48809,0.06609
6345.55935,0.06694
6343.63060,0.06853
6341.70186,0.06965
6339.77312,0.07045
6337.84438,0.07158
6335.91564,0.07190
6333.98690,0.07127
6332.05816,0.07111
6330.12941,0.07217
6328.20067,0.07310
6326.27193,0.07238
6324.34319,0.07038
6322.41445,0.06882
6320.48571,0.06821
6318.55697,0.06799
6316.62822,0.06852
6314.69948,0.07055
6312.77074,0.07337
6310.84200,0.07509
6308.91326,0.07483
6306.98452,0.07400
6305.05578,0.07467
6303.12703,0.07535
6301.19829,0.07370
6299.26955,0.07157
6297.34081,0.07107
6295.41207,0.07180
6293.48333,0.07201
6291.55459,0.07151
6289.62584,0.07229
6287.69710,0.07394
6285.76836,0.07428
6283.83962,0.07345
6281.91088,0.07270
6279.98214,0.07198
6278.05339,0.07041
6276.12465,0.06898
6274.19591,0.06939
6272.26717,0.07050
6270.33843,0.07010
6268.40969,0.06940
6266.48095,0.07042
6264.55220,0.07145
6262.62346,0.07150
6260.69472,0.07193
6258.76598,0.07201
6256.83724,0.07140
6254.90850,0.07120
6252.97976,0.07119
6251.05101,0.07101
6249.12227,0.07005
6247.19353,0.06752
6245.26479,0.06465
6243.33605,0.06368
6241.40731,0.06523
6239.47857,0.06701
6237.54982,0.06698
6235.62108,0.06632
6233.69234,0.06732
6231.76360,0.06979
6229.83486,0.07096
6227.90612,0.07017
6225.97738,0.06967
6224.04863,0.07000
6222.11989,0.07002
6220.19115,0.06980
6218.26241,0.07074
6216.33367,0.07141
6214.40493,0.06969
6212.47619,0.06871
6210.54744,0.07020
6208.61870,0.07082
6206.68996,0.07021
6204.76122,0.07051
6202.83248,0.07096
6200.90374,0.07039
6198.97500,0.07048
6197.04625,0.07190
6195.11751,0.07266
6193.18877,0.07204
6191.26003,0.07170
6189.33129,0.07270
6187.40255,0.07450
6185.47381,0.07617
6183.54506,0.07654
6181.61632,0.07533
6179.68758,0.07464
6177.75884,0.07554
6175.83010,0.07610
6173.90136,0.07568
6171.97262,0.07559
6170.04387,0.07590
6168.11513,0.07657
6166.18639,0.07802
6164.25765,0.07919
6162.32891,0.07920
6160.40017,0.07872
6158.47143,0.07865
6156.54268,0.07955
6154.61394,0.08106
6152.68520,0.08233
6150.75646,0.08296
6148.82772,0.08227
6146.89898,0.08015
6144.97024,0.07835
6143.04149,0.07832
6141.11275,0.08059
6139.18401,0.08482
6137.25527,0.08814
6135.32653,0.08816
6133.39779,0.08638
6131.46905,0.08503
6129.54030,0.08413
6127.61156,0.08377
6125.68282,0.08490
6123.75408,0.08629
6121.82534,0.08606
6119.89660,0.08488
6117.96786,0.08431
6116.03911,0.08491
6114.11037,0.08594
6112.18163,0.08576
6110.25289,0.08472
6108.32415,0.08462
6106.39541,0.08551
6104.46667,0.08646
6102.53792,0.08679
6100.60918,0.08617
6098.68044,0.08563
6096.75170,0.08613
6094.82296,0.08668
6092.89422,0.08600
6090.96548,0.08524
6089.03673,0.08583
6087.10799,0.08738
6085.17925,0.08919
6083.25051,0.09000
6081.32177,0.08886
6079.39303,0.08702
6077.46428,0.08604
6075.53554,0.08572
6073.60680,0.08556
6071.67806,0.08576
6069.74932,0.08614
6067.82058,0.08629
6065.89184,0.08648
6063.96309,0.08688
6062.03435,0.08712
6060.10561,0.08677
6058.17687,0.08540
6056.24813,0.08335
6054.31939,0.08202
6052.39065,0.08239
6050.46190,0.08408
6048.53316,0.08537
6046.60442,0.08491
6044.67568,0.08390
6042.74694,0.08411
6040.81820,0.08554
6038.88946,0.08683
6036.96071,0.08666
6035.03197,0.08553
6033.10323,0.08481
6031.17449,0.08467
6029.24575,0.08441
6027.31701,0.08423
6025.38827,0.08472
6023.45952,0.08528
6021.53078,0.08546
6019.60204,0.08531
6017.67330,0.08455
6015.74456,0.08386
6013.81582,0.08364
6011.88708,0.08304
6009.95833,0.08216
6008.02959,0.08247
6006.10085,0.08372
6004.17211,0.08370
6002.24337,0.08278
6000.31463,0.08324
5998.38589,0.08398
5996.45714,0.08278
5994.52840,0.08101
5992.59966,0.08084
5990.67092,0.08162
5988.74218,0.08219
5986.81344,0.08226
5984.88470,0.08129
5982.95595,0.08000
5981.02721,0.07953
5979.09847,0.07923
5977.16973,0.07889
5975.24099,0.07873
5973.31225,0.07777
5971.38351,0.07577
5969.45476,0.07467
5967.52602,0.07592
5965.59728,0.07783
5963.66854,0.07863
5961.73980,0.07861
5959.81106,0.07821
5957.88232,0.07759
5955.95357,0.07685
5954.02483,0.07605
5952.09609,0.07550
5950.16735,0.07516
5948.23861,0.07428
5946.30987,0.07354
5944.38113,0.07417
5942.45238,0.07451
5940.52364,0.07311
5938.59490,0.07148
5936.66616,0.07025
5934.73742,0.06902
5932.80868,0.06851
5930.87994,0.06877
5928.95119,0.06896
5927.02245,0.06902
5925.09371,0.06916
5923.16497,0.06922
5921.23623,0.06863
5919.30749,0.06732
5917.37875,0.06669
5915.45000,0.06726
5913.52126,0.06786
5911.59252,0.06811
5909.66378,0.06779
5907.73504,0.06603
5905.80630,0.06320
5903.87756,0.06121
5901.94881,0.06056
5900.02007,0.06046
5898.09133,0.06072
5896.16259,0.06013
5894.23385,0.05831
5892.30511,0.05746
5890.37637,0.05830
5888.44762,0.05940
5886.51888,0.06000
5884.59014,0.05953
5882.66140,0.05791
5880.73266,0.05683
5878.80392,0.05741
5876.87517,0.05862
5874.94643,0.05920
5873.01769,0.05885
5871.08895,0.05807
5869.16021,0.05783
5867.23147,0.05831
5865.30273,0.05854
5863.37398,0.05801
5861.44524,0.05787
5859.51650,0.05892
5857.58776,0.05936
5855.65902,0.05779
5853.73028,0.05603
5851.80154,0.05536
5849.87279,0.05517
5847.94405,0.05512
5846.01531,0.05491
5844.08657,0.05480
5842.15783,0.05556
5840.22909,0.05675
5838.30035,0.05718
5836.37160,0.05665
5834.44286,0.05592
5832.51412,0.05566
5830.58538,0.05592
5828.65664,0.05612
5826.72790,0.05568
5824.79916,0.05513
5822.87041,0.05507
5820.94167,0.05504
5819.01293,0.05521
5817.08419,0.05591
5815.15545,0.05617
5813.22671,0.05593
5811.29797,0.05602
5809.36922,0.05646
5807.44048,0.05683
5805.51174,0.05683
5803.58300,0.05658
5801.65426,0.05673
5799.72552,0.05784
5797.79678,0.05871
5795.86803,0.05752
5793.93929,0.05564
5792.01055,0.05558
5790.08181,0.05702
5788.15307,0.05787
5786.22433,0.05745
5784.29559,0.05690
5782.36684,0.05698
5780.43810,0.05745
5778.50936,0.05767
5776.58062,0.05719
5774.65188,0.05683
5772.72314,0.05680
5770.79440,0.05608
5768.86565,0.05524
5766.93691,0.05511
5765.00817,0.05521
5763.07943,0.05547
5761.15069,0.05511
5759.22195,0.05348
5757.29321,0.05240
5755.36446,0.05336
5753.43572,0.05542
5751.50698,0.05641
5749.57824,0.05519
5747.64950,0.05357
5745.72076,0.05364
5743.79202,0.05474
5741.86327,0.05572
5739.93453,0.05679
5738.00579,0.05767
5736.07705,0.05774
5734.14831,0.05758
5732.21957,0.05753
5730.29083,0.05707
5728.36208,0.05650
5726.43334,0.05624
5724.50460,0.05598
5722.57586,0.05573
5720.64712,0.05528
5718.71838,0.05459
5716.78964,0.05480
5714.86089,0.05595
5712.93215,0.05665
5711.00341,0.05628
5709.07467,0.05561
5707.14593,0.05567
5705.21719,0.05612
5703.28845,0.05571
5701.35970,0.05504
5699.43096,0.05547
5697.50222,0.05616
5695.57348,0.05589
5693.64474,0.05524
5691.71600,0.05487
5689.78726,0.05519
5687.85851,0.05630
5685.92977,0.05716
5684.00103,0.05708
5682.07229,0.05663
5680.14355,0.05671
5678.21481,0.05722
5676.28606,0.05730
5674.35732,0.05723
5672.42858,0.05765
5670.49984,0.05805
5668.57110,0.05786
5666.64236,0.05786
5664.71362,0.05837
5662.78487,0.05809
5660.85613,0.05748
5658.92739,0.05799
5656.99865,0.05849
5655.06991,0.05831
5653.14117,0.05901
5651.21243,0.06024
5649.28368,0.06029
5647.35494,0.05954
5645.42620,0.05894
5643.49746,0.05839
5641.56872,0.05798
5639.63998,0.05772
5637.71124,0.05759
5635.78249,0.05826
5633.85375,0.05956
5631.92501,0.05970
5629.99627,0.05860
5628.06753,0.05781
5626.13879,0.05743
5624.21005,0.05726
5622.28130,0.05771
5620.35256,0.05870
5618.42382,0.05996
5616.49508,0.06128
5614.56634,0.06172
5612.63760,0.06080
5610.70886,0.05994
5608.78011,0.05985
5606.85137,0.05920
5604.92263,0.05778
5602.99389,0.05701
5601.06515,0.05732
5599.13641,0.05802
5597.20767,0.05863
5595.27892,0.05925
5593.35018,0.06030
5591.42144,0.06143
5589.49270,0.06151
5587.56396,0.06052
5585.63522,0.05933
5583.70648,0.05833
5581.77773,0.05800
5579.84899,0.05858
5577.92025,0.05975
5575.99151,0.06102
5574.06277,0.06129
5572.13403,0.06062
5570.20529,0.06059
5568.27654,0.06115
5566.34780,0.06073
5564.41906,0.05928
5562.49032,0.05867
5560.56158,0.05901
5558.63284,0.05868
5556.70410,0.05807
5554.77535,0.05848
5552.84661,0.05982
5550.91787,0.06098
5548.98913,0.06120
5547.06039,0.06087
5545.13165,0.06029
5543.20291,0.05931
5541.27416,0.05856
5539.34542,0.05923
5537.41668,0.06100
5535.48794,0.06200
5533.55920,0.06182
5531.63046,0.06149
5529.70172,0.06116
5527.77297,0.06064
5525.84423,0.06033
5523.91549,0.06032
5521.98675,0.06029
5520.05801,0.06022
5518.12927,0.06058
5516.20053,0.06142
5514.27178,0.06189
5512.34304,0.06200
5510.41430,0.06274
5508.48556,0.06371
5506.55682,0.06383
5504.62808,0.06319
5502.69934,0.06237
5500.77059,0.06144
5498.84185,0.06034
5496.91311,0.05965
5494.98437,0.05978
5493.05563,0.06046
5491.12689,0.06105
5489.19815,0.06105
5487.26940,0.06074
5485.34066,0.06086
5483.41192,0.06168
5481.48318,0.06269
5479.55444,0.06302
5477.62570,0.06252
5475.69695,0.06160
5473.76821,0.06065
5471.83947,0.06051
5469.91073,0.06165
5467.98199,0.06269
5466.05325,0.06242
5464.12451,0.06146
5462.19576,0.06061
5460.26702,0.06030
5458.33828,0.06071
5456.40954,0.06104
5454.48080,0.06134
5452.55206,0.06222
5450.62332,0.06310
5448.69457,0.06387
5446.76583,0.06435
5444.83709,0.06379
5442.90835,0.06295
5440.97961,0.06253
5439.05087,0.06224
5437.12213,0.06204
5435.19338,0.06162
5433.26464,0.06098
5431.33590,0.06084
5429.40716,0.06101
5427.47842,0.06094
5425.54968,0.06116
5423.62094,0.06186
5421.69219,0.06245
5419.76345,0.06309
5417.83471,0.06360
5415.90597,0.06355
5413.97723,0.06347
5412.04849,0.06371
5410.11975,0.06389
5408.19100,0.06386
5406.26226,0.06341
5404.33352,0.06262
5402.40478,0.06237
5400.47604,0.06300
5398.54730,0.06391
5396.61856,0.06452
5394.68981,0.06448
5392.76107,0.06438
5390.83233,0.06464
5388.90359,0.06409
5386.97485,0.06272
5385.04611,0.06221
5383.11737,0.06302
5381.18862,0.06433
5379.25988,0.06534
5377.33114,0.06569
5375.40240,0.06561
5373.47366,0.06562
5371.54492,0.06595
5369.61618,0.06635
5367.68743,0.06640
5365.75869,0.06650
5363.82995,0.06735
5361.90121,0.06811
5359.97247,0.06748
5358.04373,0.06598
5356.11499,0.06508
5354.18624,0.06520
5352.25750,0.06549
5350.32876,0.06566
5348.40002,0.06611
5346.47128,0.06617
5344.54254,0.06550
5342.61380,0.06518
5340.68505,0.06549
5338.75631,0.06578
5336.82757,0.06596
5334.89883,0.06595
5332.97009,0.06564
5331.04135,0.06552
5329.11261,0.06572
5327.18386,0.06563
5325.25512,0.06528
5323.32638,0.06542
5321.39764,0.06578
5319.46890,0.06560
5317.54016,0.06491
5315.61142,0.06450
5313.68267,0.06467
5311.75393,0.06476
5309.82519,0.06454
5307.89645,0.06442
5305.96771,0.06429
5304.03897,0.06418
5302.11023,0.06407
5300.18148,0.06355
5298.25274,0.06301
5296.32400,0.06304
5294.39526,0.06316
5292.46652,0.06308
5290.53778,0.06300
5288.60904,0.06256
5286.68029,0.06187
5284.75155,0.06139
5282.82281,0.06093
5280.89407,0.06048
5278.96533,0.06060
5277.03659,0.06140
5275.10784,0.06191
5273.17910,0.06147
5271.25036,0.06113
5269.32162,0.06161
5267.39288,0.06173
5265.46414,0.06086
5263.53540,0.05983
5261.60665,0.05948
5259.67791,0.05989
5257.74917,0.06027
5255.82043,0.06000
5253.89169,0.05964
5251.96295,0.05987
5250.03421,0.06017
5248.10546,0.05993
5246.17672,0.05955
5244.24798,0.05909
5242.31924,0.05826
5240.39050,0.05784
5238.46176,0.05838
5236.53302,0.05919
5234.60427,0.05978
5232.67553,0.05993
5230.74679,0.05952
5228.81805,0.05916
5226.88931,0.05924
5224.96057,0.05951
5223.03183,0.05963
5221.10308,0.05953
5219.17434,0.05950
5217.24560,0.05932
5215.31686,0.05881
5213.38812,0.05856
5211.45938,0.05866
5209.53064,0.05873
5207.60189,0.05901
5205.67315,0.05903
5203.74441,0.05837
5201.81567,0.05805
5199.88693,0.05848
5197.95819,0.05873
5196.02945,0.05848
5194.10070,0.05828
5192.17196,0.05846
5190.24322,0.05868
5188.31448,0.05838
5186.38574,0.05793
5184.45700,0.05796
5182.52826,0.05786
5180.59951,0.05707
5178.67077,0.05653
5176.74203,0.05719
5174.81329,0.05820
5172.88455,0.05828
5170.95581,0.05774
5169.02707,0.05748
5167.09832,0.05748
5165.16958,0.05727
5163.24084,0.05690
5161.31210,0.05683
5159.38336,0.05686
5157.45462,0.05646
5155.52588,0.05595
5153.59713,0.05587
5151.66839,0.05596
5149.73965,0.05600
5147.81091,0.05626
5145.88217,0.05659
5143.95343,0.05667
5142.02469,0.05683
5140.09594,0.05717
5138.16720,0.05725
5136.23846,0.05729
5134.30972,0.05809
5132.38098,0.05914
5130.45224,0.05896
5128.52350,0.05744
5126.59475,0.05601
5124.66601,0.05549
5122.73727,0.05589
5120.80853,0.05706
5118.87979,0.05809
5116.95105,0.05807
5115.02231,0.05747
5113.09356,0.05758
5111.16482,0.05825
5109.23608,0.05818
5107.30734,0.05750
5105.37860,0.05727
5103.44986,0.05740
5101.52112,0.05736
5099.59237,0.05732
5097.66363,0.05741
5095.73489,0.05723
5093.80615,0.05672
5091.87741,0.05653
5089.94867,0.05675
5088.01993,0.05706
5086.09118,0.05752
5084.16244,0.05787
5082.23370,0.05796
5080.30496,0.05800
5078.37622,0.05792
5076.44748,0.05794
5074.51873,0.05801
5072.58999,0.05792
5070.66125,0.05807
5068.73251,0.05871
5066.80377,0.05934
5064.87503,0.05917
5062.94629,0.05854
5061.01754,0.05835
5059.08880,0.05825
5057.16006,0.05779
5055.23132,0.05750
5053.30258,0.05762
5051.37384,0.05796
5049.44510,0.05836
5047.51635,0.05857
5045.58761,0.05853
5043.65887,0.05860
5041.73013,0.05893
5039.80139,0.05915
5037.87265,0.05878
5035.94391,0.05808
5034.01516,0.05778
5032.08642,0.05776
5030.15768,0.05765
5028.22894,0.05776
5026.30020,0.05804
5024.37146,0.05810
5022.44272,0.05810
5020.51397,0.05816
5018.58523,0.05812
5016.65649,0.05806
5014.72775,0.05838
5012.79901,0.05884
5010.87027,0.05885
5008.94153,0.05864
5007.01278,0.05846
5005.08404,0.05795
5003.15530,0.05738
5001.22656,0.05736
4999.29782,0.05785
4997.36908,0.05813
4995.44034,0.05778
4993.51159,0.05737
4991.58285,0.05748
4989.65411,0.05796
4987.72537,0.05834
4985.79663,0.05812
4983.86789,0.05763
4981.93915,0.05755
4980.01040,0.05753
4978.08166,0.05699
4976.15292,0.05639
4974.22418,0.05638
4972.29544,0.05667
4970.36670,0.05662
4968.43796,0.05652
4966.50921,0.05668
4964.58047,0.05672
4962.65173,0.05662
4960.72299,0.05683
4958.79425,0.05734
4956.86551,0.05781
4954.93677,0.05793
4953.00802,0.05768
4951.07928,0.05718
4949.15054,0.05650
4947.22180,0.05596
4945.29306,0.05594
4943.36432,0.05611
4941.43558,0.05601
4939.50683,0.05586
4937.57809,0.05610
4935.64935,0.05680
4933.72061,0.05737
4931.79187,0.05723
4929.86313,0.05704
4927.93439,0.05729
4926.00564,0.05746
4924.07690,0.05729
4922.14816,0.05694
4920.21942,0.05652
4918.29068,0.05643
4916.36194,0.05683
4914.43320,0.05731
4912.50445,0.05730
4910.57571,0.05675
4908.64697,0.05613
4906.71823,0.05565
4904.78949,0.05544
4902.86075,0.05574
4900.93201,0.05640
4899.00326,0.05674
4897.07452,0.05639
4895.14578,0.05591
4893.21704,0.05581
4891.28830,0.05600
4889.35956,0.05638
4887.43081,0.05691
4885.50207,0.05728
4883.57333,0.05721
4881.64459,0.05691
4879.71585,0.05673
4877.78711,0.05652
4875.85837,0.05623
4873.92962,0.05630
4872.00088,0.05662
4870.07214,0.05680
4868.14340,0.05690
4866.21466,0.05687
4864.28592,0.05677
4862.35718,0.05691
4860.42843,0.05703
4858.49969,0.05711
4856.57095,0.05732
4854.64221,0.05727
4852.71347,0.05714
4850.78473,0.05734
4848.85599,0.05728
4846.92724,0.05680
4844.99850,0.05671
4843.06976,0.05720
4841.14102,0.05762
4839.21228,0.05777
4837.28354,0.05812
4835.35480,0.05863
4833.42605,0.05858
4831.49731,0.05787
4829.56857,0.05706
4827.63983,0.05679
4825.71109,0.05730
4823.78235,0.05807
4821.85361,0.05843
4819.92486,0.05805
4817.99612,0.05720
4816.06738,0.05672
4814.13864,0.05698
4812.20990,0.05754
4810.28116,0.05785
4808.35242,0.05777
4806.42367,0.05746
4804.49493,0.05738
4802.56619,0.05778
4800.63745,0.05850
4798.70871,0.05911
4796.77997,0.05896
4794.85123,0.05825
4792.92248,0.05788
4790.99374,0.05815
4789.06500,0.05857
4787.13626,0.05858
4785.20752,0.05817
4783.27878,0.05778
4781.35004,0.05762
4779.42129,0.05760
4777.49255,0.05768
4775.56381,0.05769
4773.63507,0.05756
4771.70633,0.05752
4769.77759,0.05790
4767.84885,0.05865
4765.92010,0.05909
4763.99136,0.05881
4762.06262,0.05831
4760.13388,0.05798
4758.20514,0.05766
4756.27640,0.05734
4754.34766,0.05733
4752.41891,0.05765
4750.49017,0.05794
4748.56143,0.05794
4746.63269,0.05766
4744.70395,0.05755
4742.77521,0.05775
4740.84647,0.05780
4738.91772,0.05759
4736.98898,0.05743
4735.06024,0.05743
4733.13150,0.05768
4731.20276,0.05810
4729.27402,0.05805
4727.34528,0.05737
4725.41653,0.05690
4723.48779,0.05699
4721.55905,0.05711
4719.63031,0.05702
4717.70157,0.05688
4715.77283,0.05701
4713.84409,0.05739
4711.91534,0.05747
4709.98660,0.05721
4708.05786,0.05709
4706.12912,0.05715
4704.20038,0.05718
4702.27164,0.05714
4700.34290,0.05702
4698.41415,0.05687
4696.48541,0.05678
4694.55667,0.05698
4692.62793,0.05739
4690.69919,0.05738
4688.77045,0.05706
4686.84170,0.05706
4684.91296,0.05729
4682.98422,0.05765
4681.05548,0.05792
4679.12674,0.05780
4677.19800,0.05756
4675.26926,0.05736
4673.34051,0.05716
4671.41177,0.05729
4669.48303,0.05759
4667.55429,0.05755
4665.62555,0.05723
4663.69681,0.05693
4661.76807,0.05682
4659.83932,0.05700
4657.91058,0.05729
4655.98184,0.05717
4654.05310,0.05658
4652.12436,0.05621
4650.19562,0.05656
4648.26688,0.05719
4646.33813,0.05753
4644.40939,0.05731
4642.48065,0.05674
4640.55191,0.05647
4638.62317,0.05662
4636.69443,0.05689
4634.76569,0.05716
4632.83694,0.05748
4630.90820,0.05786
4628.97946,0.05805
4627.05072,0.05779
4625.12198,0.05745
4623.19324,0.05741
4621.26450,0.05753
4619.33575,0.05767
4617.40701,0.05772
4615.47827,0.05750
4613.54953,0.05722
4611.62079,0.05722
4609.69205,0.05721
4607.76331,0.05693
4605.83456,0.05697
4603.90582,0.05744
4601.97708,0.05750
4600.04834,0.05713
4598.11960,0.05705
4596.19086,0.05729
4594.26212,0.05746
4592.33337,0.05749
4590.40463,0.05736
4588.47589,0.05694
4586.54715,0.05672
4584.61841,0.05705
4582.68967,0.05734
4580.76093,0.05718
4578.83218,0.05700
4576.90344,0.05707
4574.97470,0.05750
4573.04596,0.05794
4571.11722,0.05781
4569.18848,0.05757
4567.25974,0.05782
4565.33099,0.05823
4563.40225,0.05833
4561.47351,0.05814
4559.54477,0.05792
4557.61603,0.05786
4555.68729,0.05773
4553.75855,0.05729
4551.82980,0.05711
4549.90106,0.05763
4547.97232,0.05820
4546.04358,0.05817
4544.11484,0.05779
4542.18610,0.05758
4540.25736,0.05765
4538.32861,0.05771
4536.39987,0.05764
4534.47113,0.05738
4532.54239,0.05691
4530.61365,0.05683
4528.68491,0.05744
4526.75617,0.05801
4524.82742,0.05797
4522.89868,0.05759
4520.96994,0.05735
4519.04120,0.05728
4517.11246,0.05732
4515.18372,0.05757
4513.25498,0.05767
4511.32623,0.05726
4509.39749,0.05669
4507.46875,0.05647
4505.54001,0.05655
4503.61127,0.05681
4501.68253,0.05729
4499.75379,0.05775
4497.82504,0.05803
4495.89630,0.05814
4493.96756,0.05783
4492.03882,0.05725
4490.11008,0.05692
4488.18134,0.05695
4486.25259,0.05696
4484.32385,0.05677
4482.39511,0.05675
4480.46637,0.05706
4478.53763,0.05726
4476.60889,0.05723
4474.68015,0.05736
4472.75140,0.05775
4470.82266,0.05807
4468.89392,0.05808
4466.96518,0.05776
4465.03644,0.05734
4463.10770,0.05725
4461.17896,0.05752
4459.25021,0.05772
4457.32147,0.05779
4455.39273,0.05796
4453.46399,0.05805
4451.53525,0.05779
4449.60651,0.05750
4447.67777,0.05756
4445.74902,0.05788
4443.82028,0.05829
4441.89154,0.05845
4439.96280,0.05812
4438.03406,0.05753
4436.10532,0.05702
4434.17658,0.05688
4432.24783,0.05717
4430.31909,0.05723
4428.39035,0.05673
4426.46161,0.05623
4424.53287,0.05636
4422.60413,0.05709
4420.67539,0.05773
4418.74664,0.05781
4416.81790,0.05771
4414.88916,0.05783
4412.96042,0.05795
4411.03168,0.05786
4409.10294,0.05764
4407.17420,0.05742
4405.24545,0.05747
4403.31671,0.05791
4401.38797,0.05837
4399.45923,0.05851
4397.53049,0.05831
4395.60175,0.05802
4393.67301,0.05782
4391.74426,0.05737
4389.81552,0.05666
4387.88678,0.05637
4385.95804,0.05677
4384.02930,0.05715
4382.10056,0.05719
4380.17182,0.05736
4378.24307,0.05769
4376.31433,0.05765
4374.38559,0.05720
4372.45685,0.05688
4370.52811,0.05714
4368.59937,0.05776
4366.67063,0.05815
4364.74188,0.05817
4362.81314,0.05808
4360.88440,0.05790
4358.95566,0.05760
4357.02692,0.05749
4355.09818,0.05765
4353.16944,0.05777
4351.24069,0.05775
4349.31195,0.05770
4347.38321,0.05756
4345.45447,0.05742
4343.52573,0.05759
4341.59699,0.05771
4339.66825,0.05743
4337.73950,0.05700
4335.81076,0.05680
4333.88202,0.05709
4331.95328,0.05758
4330.02454,0.05795
4328.09580,0.05816
4326.16706,0.05822
4324.23831,0.05814
4322.30957,0.05789
4320.38083,0.05774
4318.45209,0.05774
4316.52335,0.05757
4314.59461,0.05730
4312.66587,0.05721
4310.73712,0.05718
4308.80838,0.05722
4306.87964,0.05753
4304.95090,0.05790
4303.02216,0.05791
4301.09342,0.05756
4299.16468,0.05729
4297.23593,0.05746
4295.30719,0.05795
4293.37845,0.05818
4291.44971,0.05787
4289.52097,0.05757
4287.59223,0.05757
4285.66348,0.05746
4283.73474,0.05708
4281.80600,0.05689
4279.87726,0.05717
4277.94852,0.05758
4276.01978,0.05781
4274.09104,0.05796
4272.16229,0.05824
4270.23355,0.05857
4268.30481,0.05867
4266.37607,0.05835
4264.44733,0.05769
4262.51859,0.05730
4260.58985,0.05750
4258.66110,0.05772
4256.73236,0.05749
4254.80362,0.05729
4252.87488,0.05762
4250.94614,0.05810
4249.01740,0.05829
4247.08866,0.05831
4245.15991,0.05814
4243.23117,0.05785
4241.30243,0.05781
4239.37369,0.05805
4237.44495,0.05822
4235.51621,0.05822
4233.58747,0.05823
4231.65872,0.05823
4229.72998,0.05818
4227.80124,0.05821
4225.87250,0.05829
4223.94376,0.05822
4222.01502,0.05789
4220.08628,0.05758
4218.15753,0.05758
4216.22879,0.05768
4214.30005,0.05786
4212.37131,0.05814
4210.44257,0.05808
4208.51383,0.05761
4206.58509,0.05726
4204.65634,0.05723
4202.72760,0.05721
4200.79886,0.05716
4198.87012,0.05737
4196.94138,0.05766
4195.01264,0.05773
4193.08390,0.05779
4191.15515,0.05802
4189.22641,0.05815
4187.29767,0.05789
4185.36893,0.05756
4183.44019,0.05759
4181.51145,0.05769
4179.58271,0.05745
4177.65396,0.05712
4175.72522,0.05718
4173.79648,0.05757
4171.86774,0.05792
4169.93900,0.05807
4168.01026,0.05808
4166.08152,0.05804
4164.15277,0.05800
4162.22403,0.05790
4160.29529,0.05769
4158.36655,0.05771
4156.43781,0.05816
4154.50907,0.05843
4152.58033,0.05816
4150.65158,0.05796
4148.72284,0.05816
4146.79410,0.05832
4144.86536,0.05825
4142.93662,0.05813
4141.00788,0.05796
4139.07914,0.05779
4137.15039,0.05786
4135.22165,0.05816
4133.29291,0.05852
4131.36417,0.05873
4129.43543,0.05860
4127.50669,0.05846
4125.57795,0.05851
4123.64920,0.05836
4121.72046,0.05809
4119.79172,0.05801
4117.86298,0.05801
4115.93424,0.05818
4114.00550,0.05846
4112.07676,0.05849
4110.14801,0.05841
4108.21927,0.05839
4106.29053,0.05841
4104.36179,0.05839
4102.43305,0.05823
4100.50431,0.05808
4098.57557,0.05811
4096.64682,0.05809
4094.71808,0.05802
4092.78934,0.05804
4090.86060,0.05810
4088.93186,0.05821
4087.00312,0.05836
4085.07437,0.05848
4083.14563,0.05852
4081.21689,0.05853
4079.28815,0.05843
4077.35941,0.05814
4075.43067,0.05783
4073.50193,0.05767
4071.57318,0.05776
4069.64444,0.05814
4067.71570,0.05844
4065.78696,0.05828
4063.85822,0.05795
4061.92948,0.05791
4060.00074,0.05806
4058.07199,0.05825
4056.14325,0.05852
4054.21451,0.05875
4052.28577,0.05887
4050.35703,0.05903
4048.42829,0.05900
4046.49955,0.05858
4044.57080,0.05827
4042.64206,0.05825
4040.71332,0.05818
4038.78458,0.05814
4036.85584,0.05834
4034.92710,0.05867
4032.99836,0.05889
4031.06961,0.05880
4029.14087,0.05845
4027.21213,0.05821
4025.28339,0.05835
4023.35465,0.05858
4021.42591,0.05863
4019.49717,0.05864
4017.56842,0.05865
4015.63968,0.05847
4013.71094,0.05822
4011.78220,0.05815
4009.85346,0.05826
4007.92472,0.05833
4005.99598,0.05817
4004.06723,0.05788
4002.13849,0.05777
4000.20975,0.05784
3998.28101,0.05802
3996.35227,0.05840
3994.42353,0.05869
3992.49479,0.05853
3990.56604,0.05834
3988.63730,0.05860
3986.70856,0.05894
3984.77982,0.05886
3982.85108,0.05850
3980.92234,0.05820
3978.99360,0.05820
3977.06485,0.05841
3975.13611,0.05839
3973.20737,0.05805
3971.27863,0.05789
3969.34989,0.05807
3967.42115,0.05815
3965.49241,0.05801
3963.56366,0.05803
3961.63492,0.05841
3959.70618,0.05870
3957.77744,0.05868
3955.84870,0.05862
3953.91996,0.05865
3951.99122,0.05877
3950.06247,0.05900
3948.13373,0.05899
3946.20499,0.05860
3944.27625,0.05824
3942.34751,0.05817
3940.41877,0.05830
3938.49003,0.05844
3936.56128,0.05847
3934.63254,0.05840
3932.70380,0.05826
3930.77506,0.05802
3928.84632,0.05780
3926.91758,0.05769
3924.98884,0.05775
3923.06009,0.05799
3921.13135,0.05826
3919.20261,0.05838
3917.27387,0.05849
3915.34513,0.05879
3913.41639,0.05914
3911.48765,0.05913
3909.55890,0.05871
3907.63016,0.05841
3905.70142,0.05846
3903.77268,0.05875
3901.84394,0.05901
3899.91520,0.05900
3897.98646,0.05878
3896.05771,0.05850
3894.12897,0.05827
3892.20023,0.05822
3890.27149,0.05824
3888.34275,0.05822
3886.41401,0.05830
3884.48526,0.05857
3882.55652,0.05885
3880.62778,0.05896
3878.69904,0.05898
3876.77030,0.05900
3874.84156,0.05875
3872.91282,0.05820
3870.98407,0.05775
3869.05533,0.05767
3867.12659,0.05789
3865.19785,0.05804
3863.26911,0.05802
3861.34037,0.05812
3859.41163,0.05827
3857.48288,0.05827
3855.55414,0.05828
3853.62540,0.05834
3851.69666,0.05837
3849.76792,0.05861
3847.83918,0.05894
3845.91044,0.05905
3843.98169,0.05904
3842.05295,0.05910
3840.12421,0.05899
3838.19547,0.05860
3836.26673,0.05818
3834.33799,0.05797
3832.40925,0.05802
3830.48050,0.05819
3828.55176,0.05835
3826.62302,0.05846
3824.69428,0.05838
3822.76554,0.05814
3820.83680,0.05804
3818.90806,0.05831
3816.97931,0.05854
3815.05057,0.05831
3813.12183,0.05794
3811.19309,0.05789
3809.26435,0.05812
3807.33561,0.05826
3805.40687,0.05810
3803.47812,0.05793
3801.54938,0.05801
3799.62064,0.05829
3797.69190,0.05847
3795.76316,0.05841
3793.83442,0.05832
3791.90568,0.05833
3789.97693,0.05834
3788.04819,0.05834
3786.11945,0.05826
3784.19071,0.05811
3782.26197,0.05807
3780.33323,0.05814
3778.40449,0.05831
3776.47574,0.05862
3774.54700,0.05886
3772.61826,0.05870
3770.68952,0.05838
3768.76078,0.05831
3766.83204,0.05846
3764.90330,0.05872
3762.97455,0.05896
3761.04581,0.05891
3759.11707,0.05871
3757.18833,0.05863
3755.25959,0.05850
3753.33085,0.05830
3751.40211,0.05838
3749.47336,0.05866
3747.54462,0.05865
3745.61588,0.05829
3743.68714,0.05806
3741.75840,0.05807
3739.82966,0.05784
3737.90092,0.05737
3735.97217,0.05711
3734.04343,0.05720
3732.11469,0.05744
3730.18595,0.05770
3728.25721,0.05797
3726.32847,0.05819
3724.39973,0.05825
3722.47098,0.05826
3720.54224,0.05828
3718.61350,0.05817
3716.68476,0.05789
3714.75602,0.05771
3712.82728,0.05766
3710.89854,0.05742
3708.96979,0.05716
3707.04105,0.05726
3705.11231,0.05751
3703.18357,0.05762
3701.25483,0.05776
3699.32609,0.05796
3697.39735,0.05791
3695.46860,0.05773
3693.53986,0.05767
3691.61112,0.05768
3689.68238,0.05769
3687.75364,0.05759
3685.82490,0.05743
3683.89615,0.05732
3681.96741,0.05722
3680.03867,0.05724
3678.10993,0.05737
3676.18119,0.05749
3674.25245,0.05768
3672.32371,0.05790
3670.39496,0.05783
3668.46622,0.05763
3666.53748,0.05751
3664.60874,0.05742
3662.68000,0.05750
3660.75126,0.05767
3658.82252,0.05779
3656.89377,0.05796
3654.96503,0.05810
3653.03629,0.05817
3651.10755,0.05836
3649.17881,0.05844
3647.25007,0.05782
3645.32133,0.05696
3643.39258,0.05665
3641.46384,0.05684
3639.53510,0.05707
3637.60636,0.05719
3635.67762,0.05725
3633.74888,0.05730
3631.82014,0.05737
3629.89139,0.05716
3627.96265,0.05669
3626.03391,0.05675
3624.10517,0.05727
3622.17643,0.05760
3620.24769,0.05757
3618.31895,0.05747
3616.39020,0.05730
3614.46146,0.05696
3612.53272,0.05667
3610.60398,0.05677
3608.67524,0.05712
3606.74650,0.05718
3604.81776,0.05694
3602.88901,0.05682
3600.96027,0.05675
3599.03153,0.05659
3597.10279,0.05662
3595.17405,0.05672
3593.24531,0.05658
3591.31657,0.05633
3589.38782,0.05601
3587.45908,0.05578
3585.53034,0.05608
3583.60160,0.05669
3581.67286,0.05691
3579.74412,0.05658
3577.81538,0.05629
3575.88663,0.05652
3573.95789,0.05681
3572.02915,0.05679
3570.10041,0.05666
3568.17167,0.05651
3566.24293,0.05641
3564.31419,0.05643
3562.38544,0.05634
3560.45670,0.05609
3558.52796,0.05602
3556.59922,0.05615
3554.67048,0.05627
3552.74174,0.05639
3550.81300,0.05640
3548.88425,0.05621
3546.95551,0.05611
3545.02677,0.05614
3543.09803,0.05617
3541.16929,0.05620
3539.24055,0.05614
3537.31181,0.05605
3535.38306,0.05614
3533.45432,0.05625
3531.52558,0.05609
3529.59684,0.05603
3527.66810,0.05623
3525.73936,0.05612
3523.81062,0.05583
3521.88187,0.05581
3519.95313,0.05588
3518.02439,0.05578
3516.09565,0.05557
3514.16691,0.05550
3512.23817,0.05573
3510.30943,0.05589
3508.38068,0.05555
3506.45194,0.05509
3504.52320,0.05505
3502.59446,0.05530
3500.66572,0.05552
3498.73698,0.05561
3496.80824,0.05553
3494.87949,0.05540
3492.95075,0.05528
3491.02201,0.05504
3489.09327,0.05483
3487.16453,0.05491
3485.23579,0.05509
3483.30704,0.05513
3481.37830,0.05495
3479.44956,0.05472
3477.52082,0.05473
3475.59208,0.05489
3473.66334,0.05499
3471.73460,0.05493
3469.80585,0.05475
3467.87711,0.05457
3465.94837,0.05441
3464.01963,0.05451
3462.09089,0.05490
3460.16215,0.05487
3458.23341,0.05428
3456.30466,0.05387
3454.37592,0.05401
3452.44718,0.05445
3450.51844,0.05482
3448.58970,0.05495
3446.66096,0.05495
3444.73222,0.05480
3442.80347,0.05450
3440.87473,0.05438
3438.94599,0.05438
3437.01725,0.05413
3435.08851,0.05397
3433.15977,0.05413
3431.23103,0.05431
3429.30228,0.05436
3427.37354,0.05408
3425.44480,0.05344
3423.51606,0.05306
3421.58732,0.05320
3419.65858,0.05342
3417.72984,0.05328
3415.80109,0.05296
3413.87235,0.05288
3411.94361,0.05290
3410.01487,0.05272
3408.08613,0.05255
3406.15739,0.05261
3404.22865,0.05266
3402.29990,0.05245
3400.37116,0.05214
3398.44242,0.05192
3396.51368,0.05174
3394.58494,0.05168
3392.65620,0.05183
3390.72746,0.05195
3388.79871,0.05189
3386.86997,0.05168
3384.94123,0.05140
3383.01249,0.05109
3381.08375,0.05077
3379.15501,0.05068
3377.22627,0.05081
3375.29752,0.05077
3373.36878,0.05056
3371.44004,0.05041
3369.51130,0.05024
3367.58256,0.04992
3365.65382,0.04954
3363.72508,0.04921
3361.79633,0.04900
3359.86759,0.04891
3357.93885,0.04884
3356.01011,0.04875
3354.08137,0.04872
3352.15263,0.04861
3350.22389,0.04825
3348.29514,0.04784
3346.36640,0.04761
3344.43766,0.04743
3342.50892,0.04718
3340.58018,0.04703
3338.65144,0.04701
3336.72270,0.04670
3334.79395,0.04577
3332.86521,0.04478
3330.93647,0.04443
3329.00773,0.04450
3327.07899,0.04454
3325.15025,0.04469
3323.22151,0.04496
3321.29276,0.04516
3319.36402,0.04549
3317.43528,0.04613
3315.50654,0.04708
3313.57780,0.04866
3311.64906,0.05064
3309.72032,0.05265
3307.79157,0.05484
3305.86283,0.05713
3303.93409,0.05927
3302.00535,0.06152
3300.07661,0.06398
3298.14787,0.06611
3296.21913,0.06758
3294.29038,0.06854
3292.36164,0.06916
3290.43290,0.06950
3288.50416,0.06941
3286.57542,0.06911
3284.64668,0.06913
3282.71793,0.06921
3280.78919,0.06912
3278.86045,0.06905
3276.93171,0.06882
3275.00297,0.06820
3273.07423,0.06751
3271.14549,0.06726
3269.21674,0.06737
3267.28800,0.06729
3265.35926,0.06704
3263.43052,0.06703
3261.50178,0.06709
3259.57304,0.06698
3257.64430,0.06692
3255.71555,0.06709
3253.78681,0.06712
3251.85807,0.06647
3249.92933,0.06546
3248.00059,0.06493
3246.07185,0.06499
3244.14311,0.06528
3242.21436,0.06547
3240.28562,0.06516
3238.35688,0.06447
3236.42814,0.06403
3234.49940,0.06377
3232.57066,0.06347
3230.64192,0.06354
3228.71317,0.06398
3226.78443,0.06418
3224.85569,0.06373
3222.92695,0.06294
3220.99821,0.06250
3219.06947,0.06256
3217.14073,0.06249
3215.21198,0.06194
3213.28324,0.06166
3211.35450,0.06234
3209.42576,0.06316
3207.49702,0.06315
3205.56828,0.06252
3203.63954,0.06202
3201.71079,0.06199
3199.78205,0.06214
3197.85331,0.06228
3195.92457,0.06241
3193.99583,0.06244
3192.06709,0.06237
3190.13835,0.06237
3188.20960,0.06237
3186.28086,0.06221
3184.35212,0.06233
3182.42338,0.06275
3180.49464,0.06268
3178.56590,0.06201
3176.63716,0.06150
3174.70841,0.06153
3172.77967,0.06190
3170.85093,0.06234
3168.92219,0.06253
3166.99345,0.06226
3165.06471,0.06174
3163.13597,0.06139
3161.20722,0.06147
3159.27848,0.06179
3157.34974,0.06194
3155.42100,0.06179
3153.49226,0.06140
3151.56352,0.06102
3149.63478,0.06084
3147.70603,0.06091
3145.77729,0.06115
3143.84855,0.06119
3141.91981,0.06082
3139.99107,0.06046
3138.06233,0.06039
3136.13359,0.06043
3134.20484,0.06055
3132.27610,0.06074
3130.34736,0.06085
3128.41862,0.06071
3126.48988,0.06036
3124.56114,0.06010
3122.63240,0.06006
3120.70365,0.06002
3118.77491,0.05990
3116.84617,0.05975
3114.91743,0.05954
3112.98869,0.05936
3111.05995,0.05940
3109.13121,0.05962
3107.20246,0.05976
3105.27372,0.05963
3103.34498,0.05932
3101.41624,0.05912
3099.48750,0.05906
3097.55876,0.05892
3095.63002,0.05862
3093.70127,0.05843
3091.77253,0.05854
3089.84379,0.05879
3087.91505,0.05904
3085.98631,0.05923
3084.05757,0.05923
3082.12882,0.05916
3080.20008,0.05921
3078.27134,0.05924
3076.34260,0.05945
3074.41386,0.05986
3072.48512,0.06001
3070.55638,0.05993
3068.62763,0.05993
3066.69889,0.05989
3064.77015,0.05986
3062.84141,0.05998
3060.91267,0.06006
3058.98393,0.06001
3057.05519,0.05999
3055.12644,0.06006
3053.19770,0.06019
3051.26896,0.06026
3049.34022,0.06018
3047.41148,0.06006
3045.48274,0.06004
3043.55400,0.06017
3041.62525,0.06035
3039.69651,0.06046
3037.76777,0.06040
3035.83903,0.06015
3033.91029,0.05988
3031.98155,0.05967
3030.05281,0.05953
3028.12406,0.05947
3026.19532,0.05940
3024.26658,0.05941
3022.33784,0.05943
3020.40910,0.05911
3018.48036,0.05875
3016.55162,0.05879
3014.62287,0.05902
3012.69413,0.05903
3010.76539,0.05883
3008.83665,0.05862
3006.90791,0.05836
3004.97917,0.05806
3003.05043,0.05804
3001.12168,0.05829
2999.19294,0.05843
2997.26420,0.05830
2995.33546,0.05807
2993.40672,0.05791
2991.47798,0.05771
2989.54924,0.05743
2987.62049,0.05721
2985.69175,0.05700
2983.76301,0.05668
2981.83427,0.05640
2979.90553,0.05623
2977.97679,0.05602
2976.04805,0.05573
2974.11930,0.05556
2972.19056,0.05545
2970.26182,0.05521
2968.33308,0.05506
2966.40434,0.05505
2964.47560,0.05491
2962.54686,0.05486
2960.61811,0.05514
2958.68937,0.05529
2956.76063,0.05508
2954.83189,0.05476
2952.90315,0.05441
2950.97441,0.05412
2949.04567,0.05414
2947.11692,0.05447
2945.18818,0.05490
2943.25944,0.05529
2941.33070,0.05565
2939.40196,0.05611
2937.47322,0.05679
2935.54448,0.05772
2933.61573,0.05897
2931.68699,0.06051
2929.75825,0.06206
2927.82951,0.06330
2925.90077,0.06417
2923.97203,0.06480
2922.04329,0.06537
2920.11454,0.06593
2918.18580,0.06628
2916.25706,0.06623
2914.32832,0.06583
2912.39958,0.06535
2910.47084,0.06495
2908.54210,0.06456
2906.61335,0.06427
2904.68461,0.06426
2902.75587,0.06438
2900.82713,0.06429
2898.89839,0.06404
2896.96965,0.06385
2895.04091,0.06365
2893.11216,0.06330
2891.18342,0.06280
2889.25468,0.06222
2887.32594,0.06177
2885.39720,0.06146
2883.46846,0.06114
2881.53971,0.06086
2879.61097,0.06085
2877.68223,0.06106
2875.75349,0.06140
2873.82475,0.06179
2871.89601,0.06217
2869.96727,0.06249
2868.03852,0.06268
2866.10978,0.06278
2864.18104,0.06307
2862.25230,0.06374
2860.32356,0.06480
2858.39482,0.06610
2856.46608,0.06742
2854.53733,0.06850
2852.60859,0.06906
2850.67985,0.06911
2848.75111,0.06900
2846.82237,0.06872
2844.89363,0.06812
2842.96489,0.06741
2841.03614,0.06693
2839.10740,0.06665
2837.17866,0.06645
2835.24992,0.06629
2833.32118,0.06610
2831.39244,0.06586
2829.46370,0.06548
2827.53495,0.06496
2825.60621,0.06457
2823.67747,0.06441
2821.74873,0.06430
2819.81999,0.06417
2817.89125,0.06405
2815.96251,0.06393
2814.03376,0.06392
2812.10502,0.06399
2810.17628,0.06394
2808.24754,0.06378
2806.31880,0.06370
2804.39006,0.06379
2802.46132,0.06393
2800.53257,0.06392
2798.60383,0.06379
2796.67509,0.06369
2794.74635,0.06362
2792.81761,0.06357
2790.88887,0.06358
2788.96013,0.06354
2787.03138,0.06341
2785.10264,0.06342
2783.17390,0.06342
2781.24516,0.06328
2779.31642,0.06318
2777.38768,0.06310
2775.45894,0.06293
2773.53019,0.06282
2771.60145,0.06295
2769.67271,0.06309
2767.74397,0.06294
2765.81523,0.06268
2763.88649,0.06256
2761.95775,0.06259
2760.02900,0.06273
2758.10026,0.06287
2756.17152,0.06269
2754.24278,0.06238
2752.31404,0.06234
2750.38530,0.06245
2748.45656,0.06255
2746.52781,0.06263
2744.59907,0.06264
2742.67033,0.06251
2740.74159,0.06229
2738.81285,0.06219
2736.88411,0.06228
2734.95537,0.06241
2733.02662,0.06249
2731.09788,0.06256
2729.16914,0.06254
2727.24040,0.06248
2725.31166,0.06251
2723.38292,0.06245
2721.45418,0.06215
2719.52543,0.06191
2717.59669,0.06210
2715.66795,0.06243
2713.73921,0.06247
2711.81047,0.06236
2709.88173,0.06242
2707.95299,0.06246
2706.02424,0.06220
2704.09550,0.06184
2702.16676,0.06174
2700.23802,0.06193
2698.30928,0.06216
2696.38054,0.06224
2694.45180,0.06222
2692.52305,0.06222
2690.59431,0.06212
2688.66557,0.06196
2686.73683,0.06196
2684.80809,0.06209
2682.87935,0.06213
2680.95060,0.06211
2679.02186,0.06213
2677.09312,0.06213
2675.16438,0.06211
2673.23564,0.06210
2671.30690,0.06198
2669.37816,0.06173
2667.44941,0.06162
2665.52067,0.06173
2663.59193,0.06185
2661.66319,0.06193
2659.73445,0.06190
2657.80571,0.06172
2655.87697,0.06160
2653.94822,0.06155
2652.01948,0.06150
2650.09074,0.06154
2648.16200,0.06162
2646.23326,0.06165
2644.30452,0.06169
2642.37578,0.06175
2640.44703,0.06172
2638.51829,0.06162
2636.58955,0.06154
2634.66081,0.06157
2632.73207,0.06161
2630.80333,0.06160
2628.87459,0.06162
2626.94584,0.06167
2625.01710,0.06160
2623.08836,0.06143
2621.15962,0.06134
2619.23088,0.06129
2617.30214,0.06131
2615.37340,0.06140
2613.44465,0.06142
2611.51591,0.06142
2609.58717,0.06150
2607.65843,0.06150
2605.72969,0.06127
2603.80095,0.06092
2601.87221,0.06076
2599.94346,0.06090
2598.01472,0.06104
2596.08598,0.06111
2594.15724,0.06132
2592.22850,0.06147
2590.29976,0.06132
2588.37102,0.06108
2586.44227,0.06095
2584.51353,0.06100
2582.58479,0.06112
2580.65605,0.06120
2578.72731,0.06127
2576.79857,0.06126
2574.86983,0.06115
2572.94108,0.06101
2571.01234,0.06095
2569.08360,0.06104
2567.15486,0.06104
2565.22612,0.06095
2563.29738,0.06104
2561.36864,0.06129
2559.43989,0.06145
2557.51115,0.06137
2555.58241,0.06116
2553.65367,0.06107
2551.72493,0.06115
2549.79619,0.06128
2547.86745,0.06143
2545.93870,0.06148
2544.00996,0.06134
2542.08122,0.06113
2540.15248,0.06103
2538.22374,0.06112
2536.29500,0.06129
2534.36626,0.06143
2532.43751,0.06142
2530.50877,0.06120
2528.58003,0.06093
2526.65129,0.06085
2524.72255,0.06093
2522.79381,0.06094
2520.86507,0.06081
2518.93632,0.06078
2517.00758,0.06092
2515.07884,0.06102
2513.15010,0.06100
2511.22136,0.06092
2509.29262,0.06084
2507.36388,0.06074
2505.43513,0.06066
2503.50639,0.06074
2501.57765,0.06098
2499.64891,0.06114
2497.72017,0.06112
2495.79143,0.06108
2493.86269,0.06109
2491.93394,0.06098
2490.00520,0.06076
2488.07646,0.06067
2486.14772,0.06070
2484.21898,0.06072
2482.29024,0.06068
2480.36149,0.06054
2478.43275,0.06046
2476.50401,0.06064
2474.57527,0.06094
2472.64653,0.06107
2470.71779,0.06098
2468.78905,0.06078
2466.86030,0.06066
2464.93156,0.06072
2463.00282,0.06083
2461.07408,0.06084
2459.14534,0.06077
2457.21660,0.06069
2455.28786,0.06063
2453.35911,0.06067
2451.43037,0.06078
2449.50163,0.06083
2447.57289,0.06080
2445.64415,0.06074
2443.71541,0.06069
2441.78667,0.06075
2439.85792,0.06091
2437.92918,0.06098
2436.00044,0.06093
2434.07170,0.06087
2432.14296,0.06085
2430.21422,0.06079
2428.28548,0.06064
2426.35673,0.06049
2424.42799,0.06047
2422.49925,0.06053
2420.57051,0.06066
2418.64177,0.06068
2416.71303,0.06051
2414.78429,0.06041
2412.85554,0.06045
2410.92680,0.06044
2408.99806,0.06035
2407.06932,0.06036
2405.14058,0.06052
2403.21184,0.06067
2401.28310,0.06070
2399.35435,0.06063
2397.42561,0.06043
2395.49687,0.06014
2393.56813,0.06004
2391.63939,0.06023
2389.71065,0.06047
2387.78191,0.06056
2385.85316,0.06057
2383.92442,0.06053
2381.99568,0.06044
2380.06694,0.06032
2378.13820,0.06027
2376.20946,0.06032
2374.28072,0.06040
2372.35197,0.06047
2370.42323,0.06048
2368.49449,0.06045
2366.56575,0.06039
2364.63701,0.06026
2362.70827,0.06005
2360.77953,0.05994
2358.85078,0.06008
2356.92204,0.06027
2354.99330,0.06026
2353.06456,0.06013
2351.13582,0.06004
2349.20708,0.06003
2347.27834,0.06004
2345.34959,0.06008
2343.42085,0.06013
2341.49211,0.06002
2339.56337,0.05983
2337.63463,0.05980
2335.70589,0.05994
2333.77715,0.06015
2331.84840,0.06027
2329.91966,0.06019
2327.99092,0.06015
2326.06218,0.06023
2324.13344,0.06023
2322.20470,0.06013
2320.27596,0.06006
2318.34721,0.05996
2316.41847,0.05985
2314.48973,0.05994
2312.56099,0.06014
2310.63225,0.06016
2308.70351,0.06009
2306.77477,0.06018
2304.84602,0.06031
2302.91728,0.06026
2300.98854,0.06006
2299.05980,0.05983
2297.13106,0.05973
2295.20232,0.05978
2293.27357,0.05985
2291.34483,0.05989
2289.41609,0.05998
2287.48735,0.06004
2285.55861,0.06001
2283.62987,0.05991
2281.70113,0.05975
2279.77238,0.05957
2277.84364,0.05952
2275.91490,0.05956
2273.98616,0.05960
2272.05742,0.05964
2270.12868,0.05962
2268.19994,0.05956
2266.27119,0.05957
2264.34245,0.05960
2262.41371,0.05957
2260.48497,0.05961
2258.55623,0.05980
2256.62749,0.05996
2254.69875,0.05994
2252.77000,0.05981
2250.84126,0.05968
2248.91252,0.05960
2246.98378,0.05957
2245.05504,0.05966
2243.12630,0.05975
2241.19756,0.05968
2239.26881,0.05951
2237.34007,0.05938
2235.41133,0.05922
2233.48259,0.05909
2231.55385,0.05916
2229.62511,0.05928
2227.69637,0.05928
2225.76762,0.05937
2223.83888,0.05962
2221.91014,0.05980
2219.98140,0.05982
2218.05266,0.05975
2216.12392,0.05969
2214.19518,0.05965
2212.26643,0.05959
2210.33769,0.05959
2208.40895,0.05964
2206.48021,0.05962
2204.55147,0.05954
2202.62273,0.05950
2200.69399,0.05941
2198.76524,0.05926
2196.83650,0.05922
2194.90776,0.05927
2192.97902,0.05919
2191.05028,0.05899
2189.12154,0.05888
2187.19280,0.05890
2185.26405,0.05895
2183.33531,0.05905
2181.40657,0.05919
2179.47783,0.05923
2177.54909,0.05924
2175.62035,0.05932
2173.69161,0.05938
2171.76286,0.05938
2169.83412,0.05937
2167.90538,0.05939
2165.97664,0.05935
2164.04790,0.05925
2162.11916,0.05922
2160.19042,0.05925
2158.26167,0.05920
2156.33293,0.05900
2154.40419,0.05890
2152.47545,0.05897
2150.54671,0.05897
2148.61797,0.05898
2146.68923,0.05909
2144.76048,0.05902
2142.83174,0.05882
2140.90300,0.05875
2138.97426,0.05869
2137.04552,0.05854
2135.11678,0.05851
2133.18804,0.05865
2131.25929,0.05877
2129.33055,0.05877
2127.40181,0.05873
2125.47307,0.05874
2123.54433,0.05877
2121.61559,0.05876
2119.68685,0.05867
2117.75810,0.05856
2115.82936,0.05852
2113.90062,0.05850
2111.97188,0.05842
2110.04314,0.05841
2108.11440,0.05852
2106.18566,0.05867
2104.25691,0.05874
2102.32817,0.05861
2100.39943,0.05835
2098.47069,0.05826
2096.54195,0.05837
2094.61321,0.05847
2092.68446,0.05850
2090.75572,0.05853
2088.82698,0.05859
2086.89824,0.05869
2084.96950,0.05870
2083.04076,0.05853
2081.11202,0.05838
2079.18327,0.05835
2077.25453,0.05836
2075.32579,0.05841
2073.39705,0.05838
2071.46831,0.05819
2069.53957,0.05805
2067.61083,0.05805
2065.68208,0.05812
2063.75334,0.05817
2061.82460,0.05816
2059.89586,0.05814
2057.96712,0.05816
2056.03838,0.05827
2054.10964,0.05844
2052.18089,0.05852
2050.25215,0.05844
2048.32341,0.05830
2046.39467,0.05818
2044.46593,0.05809
2042.53719,0.05802
2040.60845,0.05798
2038.67970,0.05803
2036.75096,0.05807
2034.82222,0.05797
2032.89348,0.05780
2030.96474,0.05770
2029.03600,0.05779
2027.10726,0.05801
2025.17851,0.05805
2023.24977,0.05784
2021.32103,0.05771
2019.39229,0.05778
2017.46355,0.05785
2015.53481,0.05779
2013.60607,0.05767
2011.67732,0.05761
2009.74858,0.05763
2007.81984,0.05771
2005.89110,0.05777
2003.96236,0.05775
2002.03362,0.05769
2000.10488,0.05767
1998.17613,0.05773
1996.24739,0.05777
1994.31865,0.05767
1992.38991,0.05755
1990.46117,0.05751
1988.53243,0.05738
1986.60369,0.05716
1984.67494,0.05711
1982.74620,0.05725
1980.81746,0.05735
1978.88872,0.05730
1976.95998,0.05725
1975.03124,0.05738
1973.10250,0.05757
1971.17375,0.05757
1969.24501,0.05742
1967.31627,0.05727
1965.38753,0.05717
1963.45879,0.05717
1961.53005,0.05728
1959.60131,0.05733
1957.67256,0.05729
1955.74382,0.05713
1953.81508,0.05692
1951.88634,0.05686
1949.95760,0.05693
1948.02886,0.05692
1946.10012,0.05681
1944.17137,0.05671
1942.24263,0.05659
1940.31389,0.05646
1938.38515,0.05652
1936.45641,0.05665
1934.52767,0.05661
1932.59893,0.05647
1930.67018,0.05651
1928.74144,0.05665
1926.81270,0.05665
1924.88396,0.05654
1922.95522,0.05635
1921.02648,0.05613
1919.09774,0.05605
1917.16899,0.05608
1915.24025,0.05603
1913.31151,0.05593
1911.38277,0.05591
1909.45403,0.05590
1907.52529,0.05585
1905.59655,0.05577
1903.66780,0.05578
1901.73906,0.05589
1899.81032,0.05593
1897.88158,0.05573
1895.95284,0.05548
1894.02410,0.05540
1892.09535,0.05547
1890.16661,0.05554
1888.23787,0.05555
1886.30913,0.05557
1884.38039,0.05564
1882.45165,0.05554
1880.52291,0.05528
1878.59416,0.05521
1876.66542,0.05532
1874.73668,0.05529
1872.80794,0.05511
1870.87920,0.05502
1868.95046,0.05508
1867.02172,0.05514
1865.09297,0.05513
1863.16423,0.05509
1861.23549,0.05503
1859.30675,0.05487
1857.37801,0.05466
1855.44927,0.05451
1853.52053,0.05444
1851.59178,0.05444
1849.66304,0.05448
1847.73430,0.05448
1845.80556,0.05438
1843.87682,0.05425
1841.94808,0.05416
1840.01934,0.05411
1838.09059,0.05411
1836.16185,0.05410
1834.23311,0.05413
1832.30437,0.05417
1830.37563,0.05401
1828.44689,0.05367
1826.51815,0.05338
1824.58940,0.05319
1822.66066,0.05313
1820.73192,0.05321
1818.80318,0.05323
1816.87444,0.05307
1814.94570,0.05291
1813.01696,0.05291
1811.08821,0.05290
1809.15947,0.05279
1807.23073,0.05273
1805.30199,0.05275
1803.37325,0.05268
1801.44451,0.05250
1799.51577,0.05228
1797.58702,0.05202
1795.65828,0.05180
1793.72954,0.05156
1791.80080,0.05133
1789.87206,0.05117
1787.94332,0.05105
1786.01458,0.05104
1784.08583,0.05115
1782.15709,0.05116
1780.22835,0.05093
1778.29961,0.05059
1776.37087,0.05032
1774.44213,0.05015
1772.51339,0.04997
1770.58464,0.04978
1768.65590,0.04959
1766.72716,0.04931
1764.79842,0.04909
1762.86968,0.04892
1760.94094,0.04880
1759.01220,0.04890
1757.08345,0.04922
1755.15471,0.04952
1753.22597,0.04967
1751.29723,0.04976
1749.36849,0.04985
1747.43975,0.04977
1745.51101,0.04947
1743.58226,0.04913
1741.65352,0.04897
1739.72478,0.04894
1737.79604,0.04887
1735.86730,0.04869
1733.93856,0.04837
1732.00982,0.04784
1730.08107,0.04718
1728.15233,0.04662
1726.22359,0.04629
1724.29485,0.04607
1722.36611,0.04588
1720.43737,0.04570
1718.50863,0.04530
1716.57988,0.04459
1714.65114,0.04397
1712.72240,0.04366
1710.79366,0.04344
1708.86492,0.04313
1706.93618,0.04270
1705.00744,0.04222
1703.07869,0.04174
1701.14995,0.04105
1699.22121,0.04027
1697.29247,0.03975
1695.36373,0.03933
1693.43499,0.03881
1691.50624,0.03830
1689.57750,0.03784
1687.64876,0.03733
1685.72002,0.03653
1683.79128,0.03548
1681.86254,0.03470
1679.93380,0.03439
1678.00505,0.03427
1676.07631,0.03391
1674.14757,0.03336
1672.21883,0.03305
1670.29009,0.03290
1668.36135,0.03296
1666.43261,0.03359
1664.50386,0.03473
1662.57512,0.03633
1660.64638,0.03850
1658.71764,0.04130
1656.78890,0.04460
1654.86016,0.04891
1652.93142,0.05569
1651.00267,0.06341
1649.07393,0.07088
1647.14519,0.08040
1645.21645,0.09185
1643.28771,0.10274
1641.35897,0.11294
1639.43023,0.12243
1637.50148,0.13064
1635.57274,0.13710
1633.64400,0.14011
1631.71526,0.13883
1629.78652,0.13356
1627.85778,0.12560
1625.92904,0.11761
1624.00029,0.11071
1622.07155,0.10481
1620.14281,0.10017
1618.21407,0.09619
1616.28533,0.09220
1614.35659,0.08874
1612.42785,0.08600
1610.49910,0.08375
1608.57036,0.08194
1606.64162,0.08034
1604.71288,0.07872
1602.78414,0.07703
1600.85540,0.07521
1598.92666,0.07336
1596.99791,0.07157
1595.06917,0.06983
1593.14043,0.06822
1591.21169,0.06669
1589.28295,0.06506
1587.35421,0.06336
1585.42547,0.06172
1583.49672,0.06011
1581.56798,0.05847
1579.63924,0.05695
1577.71050,0.05561
1575.78176,0.05421
1573.85302,0.05278
1571.92428,0.05136
1569.99553,0.04981
1568.06679,0.04845
1566.13805,0.04754
1564.20931,0.04689
1562.28057,0.04658
1560.35183,0.04685
1558.42309,0.04750
1556.49434,0.04826
1554.56560,0.04952
1552.63686,0.05158
1550.70812,0.05455
1548.77938,0.05863
1546.85064,0.06383
1544.92190,0.06994
1542.99315,0.07657
1541.06441,0.08373
1539.13567,0.09112
1537.20693,0.09671
1535.27819,0.10008
1533.34945,0.10162
1531.42071,0.10146
1529.49196,0.10022
1527.56322,0.09833
1525.63448,0.09608
1523.70574,0.09384
1521.77700,0.09164
1519.84826,0.08957
1517.91952,0.08780
1515.99077,0.08619
1514.06203,0.08472
1512.13329,0.08341
1510.20455,0.08220
1508.27581,0.08105
1506.34707,0.07978
1504.41833,0.07864
1502.48958,0.07778
1500.56084,0.07691
1498.63210,0.07595
1496.70336,0.07497
1494.77462,0.07405
1492.84588,0.07325
1490.91713,0.07249
1488.98839,0.07158
1487.05965,0.07039
1485.13091,0.06908
1483.20217,0.06800
1481.27343,0.06742
1479.34469,0.06761
1477.41594,0.06886
1475.48720,0.07106
1473.55846,0.07318
1471.62972,0.07391
1469.70098,0.07339
1467.77224,0.07299
1465.84350,0.07354
1463.91475,0.07465
1461.98601,0.07526
1460.05727,0.07514
1458.12853,0.07458
1456.19979,0.07386
1454.27105,0.07320
1452.34231,0.07258
1450.41356,0.07196
1448.48482,0.07145
1446.55608,0.07115
1444.62734,0.07084
1442.69860,0.07050
1440.76986,0.07029
1438.84112,0.07011
1436.91237,0.06997
1434.98363,0.07006
1433.05489,0.07012
1431.12615,0.06995
1429.19741,0.06974
1427.26867,0.06960
1425.33993,0.06950
1423.41118,0.06971
1421.48244,0.07052
1419.55370,0.07214
1417.62496,0.07439
1415.69622,0.07626
1413.76748,0.07691
1411.83874,0.07635
1409.90999,0.07525
1407.98125,0.07415
1406.05251,0.07326
1404.12377,0.07260
1402.19503,0.07201
1400.26629,0.07122
1398.33755,0.07029
1396.40880,0.06956
1394.48006,0.06909
1392.55132,0.06868
1390.62258,0.06827
1388.69384,0.06797
1386.76510,0.06779
1384.83636,0.06770
1382.90761,0.06763
1380.97887,0.06762
1379.05013,0.06777
1377.12139,0.06811
1375.19265,0.06858
1373.26391,0.06907
1371.33517,0.06961
1369.40642,0.07031
1367.47768,0.07094
1365.54894,0.07123
1363.62020,0.07117
1361.69146,0.07110
1359.76272,0.07124
1357.83398,0.07143
1355.90523,0.07165
1353.97649,0.07184
1352.04775,0.07179
1350.11901,0.07160
1348.19027,0.07142
1346.26153,0.07115
1344.33279,0.07079
1342.40404,0.07047
1340.47530,0.07029
1338.54656,0.07012
1336.61782,0.06985
1334.68908,0.06950
1332.76034,0.06912
1330.83160,0.06884
1328.90285,0.06869
1326.97411,0.06860
1325.04537,0.06847
1323.11663,0.06832
1321.18789,0.06802
1319.25915,0.06746
1317.33041,0.06685
1315.40166,0.06652
1313.47292,0.06641
1311.54418,0.06634
1309.61544,0.06625
1307.68670,0.06614
1305.75796,0.06599
1303.82922,0.06591
1301.90047,0.06588
1299.97173,0.06567
1298.04299,0.06533
1296.11425,0.06503
1294.18551,0.06460
1292.25677,0.06415
1290.32802,0.06396
1288.39928,0.06378
1286.47054,0.06341
1284.54180,0.06314
1282.61306,0.06315
1280.68432,0.06353
1278.75558,0.06450
1276.82683,0.06596
1274.89809,0.06743
1272.96935,0.06869
1271.04061,0.06990
1269.11187,0.07115
1267.18313,0.07237
1265.25439,0.07312
1263.32564,0.07315
1261.39690,0.07285
1259.46816,0.07269
1257.53942,0.07271
1255.61068,0.07277
1253.68194,0.07275
1251.75320,0.07263
1249.82445,0.07251
1247.89571,0.07238
1245.96697,0.07217
1244.03823,0.07203
1242.10949,0.07194
1240.18075,0.07177
1238.25201,0.07155
1236.32326,0.07139
1234.39452,0.07129
1232.46578,0.07115
1230.53704,0.07099
1228.60830,0.07090
1226.67956,0.07082
1224.75082,0.07073
1222.82207,0.07075
1220.89333,0.07073
1218.96459,0.07033
1217.03585,0.06966
1215.10711,0.06901
1213.17837,0.06831
1211.24963,0.06756
1209.32088,0.06699
1207.39214,0.06649
1205.46340,0.06605
1203.53466,0.06654
1201.60592,0.06856
1199.67718,0.07144
1197.74844,0.07392
1195.81969,0.07520
1193.89095,0.07526
1191.96221,0.07471
1190.03347,0.07408
1188.10473,0.07354
1186.17599,0.07316
1184.24725,0.07308
1182.31850,0.07330
1180.38976,0.07369
1178.46102,0.07418
1176.53228,0.07457
1174.60354,0.07456
1172.67480,0.07423
1170.74606,0.07391
1168.81731,0.07365
1166.88857,0.07332
1164.95983,0.07298
1163.03109,0.07275
1161.10235,0.07268
1159.17361,0.07257
1157.24487,0.07215
1155.31612,0.07145
1153.38738,0.07083
1151.45864,0.07059
1149.52990,0.07070
1147.60116,0.07104
1145.67242,0.07148
1143.74368,0.07175
1141.81493,0.07178
1139.88619,0.07193
1137.95745,0.07220
1136.02871,0.07213
1134.09997,0.07173
1132.17123,0.07146
1130.24249,0.07128
1128.31374,0.07104
1126.38500,0.07088
1124.45626,0.07073
1122.52752,0.07052
1120.59878,0.07045
1118.67004,0.07051
1116.74130,0.07058
1114.81255,0.07053
1112.88381,0.07028
1110.95507,0.07009
1109.02633,0.07002
1107.09759,0.06976
1105.16885,0.06940
1103.24011,0.06940
1101.31136,0.06976
1099.38262,0.06992
1097.45388,0.06960
1095.52514,0.06909
1093.59640,0.06899
1091.66766,0.06941
1089.73891,0.06970
1087.81017,0.06953
1085.88143,0.06928
1083.95269,0.06921
1082.02395,0.06927
1080.09521,0.06927
1078.16647,0.06898
1076.23772,0.06853
1074.30898,0.06823
1072.38024,0.06818
1070.45150,0.06817
1068.52276,0.06788
1066.59402,0.06766
1064.66528,0.06805
1062.73653,0.06854
1060.80779,0.06847
1058.87905,0.06821
1056.95031,0.06836
1055.02157,0.06860
1053.09283,0.06836
1051.16409,0.06787
1049.23534,0.06773
1047.30660,0.06804
1045.37786,0.06835
1043.44912,0.06822
1041.52038,0.06787
1039.59164,0.06766
1037.66290,0.06759
1035.73415,0.06775
1033.80541,0.06809
1031.87667,0.06845
1029.94793,0.06866
1028.01919,0.06850
1026.09045,0.06824
1024.16171,0.06817
1022.23296,0.06815
1020.30422,0.06814
1018.37548,0.06812
1016.44674,0.06797
1014.51800,0.06773
1012.58926,0.06765
1010.66052,0.06773
1008.73177,0.06785
1006.80303,0.06804
1004.87429,0.06814
1002.94555,0.06806
1001.01681,0.06795
999.08807,0.06778
997.15933,0.06743
995.23058,0.06717
993.30184,0.06722
991.37310,0.06731
989.44436,0.06717
987.51562,0.06709
985.58688,0.06716
983.65814,0.06698
981.72939,0.06655
979.80065,0.06635
977.87191,0.06646
975.94317,0.06644
974.01443,0.06617
972.08569,0.06601
970.15695,0.06615
968.22820,0.06622
966.29946,0.06608
964.37072,0.06602
962.44198,0.06597
960.51324,0.06587
958.58450,0.06579
956.65576,0.06552
954.72701,0.06507
952.79827,0.06484
950.86953,0.06479
948.94079,0.06470
947.01205,0.06459
945.08331,0.06444
943.15457,0.06432
941.22582,0.06447
939.29708,0.06498
937.36834,0.06577
935.43960,0.06671
933.51086,0.06747
931.58212,0.06800
929.65338,0.06834
927.72463,0.06825
925.79589,0.06780
923.86715,0.06754
921.93841,0.06740
920.00967,0.06700
918.08093,0.06648
916.15219,0.06605
914.22344,0.06572
912.29470,0.06564
910.36596,0.06554
908.43722,0.06519
906.50848,0.06506
904.57974,0.06543
902.65100,0.06592
900.72225,0.06609
898.79351,0.06601
896.86477,0.06608
894.93603,0.06625
893.00729,0.06623
891.07855,0.06593
889.14980,0.06542
887.22106,0.06512
885.29232,0.06529
883.36358,0.06547
881.43484,0.06532
879.50610,0.06511
877.57736,0.06503
875.64861,0.06489
873.71987,0.06469
871.79113,0.06462
869.86239,0.06471
867.93365,0.06476
866.00491,0.06470
864.07617,0.06473
862.14742,0.06498
860.21868,0.06516
858.28994,0.06497
856.36120,0.06458
854.43246,0.06427
852.50372,0.06410
850.57498,0.06410
848.64623,0.06396
846.71749,0.06348
844.78875,0.06312
842.86001,0.06324
840.93127,0.06361
839.00253,0.06374
837.07379,0.06344
835.14504,0.06294
833.21630,0.06253
831.28756,0.06231
829.35882,0.06226
827.43008,0.06237
825.50134,0.06253
823.57260,0.06260
821.64385,0.06263
819.71511,0.06271
817.78637,0.06267
815.85763,0.06227
813.92889,0.06180
812.00015,0.06174
810.07141,0.06167
808.14266,0.06115
806.21392,0.06062
804.28518,0.06045
802.35644,0.06046
800.42770,0.06037
798.49896,0.06006
796.57022,0.05984
794.64147,0.06003
792.71273,0.06021
790.78399,0.06001
788.85525,0.05971
786.92651,0.05961
784.99777,0.05986
783.06903,0.06008
781.14028,0.05968
779.21154,0.05885
777.28280,0.05838
775.35406,0.05865
773.42532,0.05926
771.49658,0.05946
769.56784,0.05901
767.63909,0.05823
765.71035,0.05761
763.78161,0.05721
761.85287,0.05698
759.92413,0.05725
757.99539,0.05766
756.06665,0.05754
754.13790,0.05715
752.20916,0.05673
750.28042,0.05631
748.35168,0.05601
746.42294,0.05556
744.49420,0.05487
742.56546,0.05429
740.63671,0.05413
738.70797,0.05403
736.77923,0.05340
734.85049,0.05261
732.92175,0.05262
730.99301,0.05367
729.06427,0.05498
727.13552,0.05588
725.20678,0.05641
723.27804,0.05669
721.34930,0.05673
719.42056,0.05655
717.49182,0.05619
715.56308,0.05583
713.63433,0.05558
711.70559,0.05524
709.77685,0.05478
707.84811,0.05453
705.91937,0.05457
703.99063,0.05480
702.06189,0.05510
700.13314,0.05552
698.20440,0.05600
696.27566,0.05633
694.34692,0.05689
692.41818,0.05796
690.48944,0.05939
688.56069,0.06114
686.63195,0.06294
684.70321,0.06445
682.77447,0.06564
680.84573,0.06662
678.91699,0.06739
676.98825,0.06768
675.05950,0.06773
673.13076,0.06813
671.20202,0.06870
669.27328,0.06896
667.34454,0.06917
665.41580,0.06934
663.48706,0.06895
661.55831,0.06849
659.62957,0.06878
657.70083,0.06924
655.77209,0.06917
653.84335,0.06866
651.91461,0.06801
649.98587,0.06737
648.05712,0.06677
646.12838,0.06667
644.19964,0.06715
642.27090,0.06717
640.34216,0.06658
638.41342,0.06627
636.48468,0.06598
634.55593,0.06517
632.62719,0.06466
630.69845,0.06505
628.76971,0.06567
626.84097,0.06605
624.91223,0.06584
622.98349,0.06492
621.05474,0.06429
619.12600,0.06431
617.19726,0.06412
615.26852,0.06356
613.33978,0.06302
611.41104,0.06231
609.48230,0.06154
607.55355,0.06143
605.62481,0.06180
603.69607,0.06182
601.76733,0.06161
599.83859,0.06090
