7497.01799,0.13632
7495.08925,0.13784
7493.16050,0.13535
7491.23176,0.13285
7489.30302,0.13014
7487.37428,0.12925
7485.44554,0.13006
7483.51680,0.12934
7481.58806,0.12923
7479.65931,0.13263
7477.73057,0.13571
7475.80183,0.13283
7473.87309,0.12710
7471.94435,0.12602
7470.01561,0.12608
7468.08686,0.12345
7466.15812,0.12311
7464.22938,0.12336
7462.30064,0.12134
7460.37190,0.12103
7458.44316,0.12177
7456.51442,0.12015
7454.58567,0.11755
7452.65693,0.11891
7450.72819,0.12293
7448.79945,0.12519
7446.87071,0.12648
7444.94197,0.12593
7443.01323,0.12355
7441.08448,0.12443
7439.15574,0.12489
7437.22700,0.12004
7435.29826,0.11628
7433.36952,0.11641
7431.44078,0.11644
7429.51204,0.11868
7427.58329,0.12347
7425.65455,0.12300
7423.72581,0.11632
7421.79707,0.11274
7419.86833,0.11652
7417.93959,0.12219
7416.01085,0.12293
7414.08210,0.11991
7412.15336,0.11936
7410.22462,0.12170
7408.29588,0.12206
7406.36714,0.11969
7404.43840,0.12002
7402.50966,0.12334
7400.58091,0.12343
7398.65217,0.12142
7396.72343,0.11994
7394.79469,0.11714
7392.86595,0.11619
7390.93721,0.12132
7389.00847,0.12739
7387.07972,0.12663
7385.15098,0.12314
7383.22224,0.12528
7381.29350,0.12930
7379.36476,0.12662
7377.43602,0.11810
7375.50728,0.11166
7373.57853,0.11121
7371.64979,0.11478
7369.72105,0.11768
7367.79231,0.11600
7365.86357,0.11284
7363.93483,0.11374
7362.00609,0.11574
7360.07734,0.11334
7358.14860,0.10891
7356.21986,0.10805
7354.29112,0.11281
7352.36238,0.11851
7350.43364,0.11847
7348.50490,0.11413
7346.57615,0.11165
7344.64741,0.11378
7342.71867,0.11680
7340.78993,0.11654
7338.86119,0.11407
7336.93245,0.11272
7335.00371,0.11483
7333.07496,0.11677
7331.14622,0.11165
7329.21748,0.10341
7327.28874,0.10118
7325.36000,0.10516
7323.43126,0.10946
7321.50252,0.11092
7319.57377,0.11113
7317.64503,0.11081
7315.71629,0.10821
7313.78755,0.10554
7311.85881,0.10675
7309.93007,0.11042
7308.00133,0.11076
7306.07258,0.10610
7304.14384,0.10173
7302.21510,0.10086
7300.28636,0.10123
7298.35762,0.10055
7296.42888,0.09822
7294.50014,0.09785
7292.57139,0.10054
7290.64265,0.10236
7288.71391,0.10244
7286.78517,0.10068
7284.85643,0.09643
7282.92769,0.09282
7280.99894,0.09146
7279.07020,0.09201
7277.14146,0.09377
7275.21272,0.09493
7273.28398,0.09533
7271.35524,0.09544
7269.42650,0.09378
7267.49775,0.09233
7265.56901,0.09288
7263.64027,0.09352
7261.71153,0.09207
7259.78279,0.08892
7257.85405,0.08728
7255.92531,0.08789
7253.99656,0.08746
7252.06782,0.08768
7250.13908,0.09049
7248.21034,0.09163
7246.28160,0.08928
7244.35286,0.08843
7242.42412,0.09204
7240.49537,0.09465
7238.56663,0.09156
7236.63789,0.08799
7234.70915,0.08929
7232.78041,0.09151
7230.85167,0.08931
7228.92293,0.08401
7226.99418,0.07957
7225.06544,0.07905
7223.13670,0.08266
7221.20796,0.08687
7219.27922,0.08872
7217.35048,0.08837
7215.42174,0.08656
7213.49299,0.08476
7211.56425,0.08487
7209.63551,0.08530
7207.70677,0.08277
7205.77803,0.07864
7203.84929,0.07715
7201.92055,0.07977
7199.99180,0.08402
7198.06306,0.08623
7196.13432,0.08548
7194.20558,0.08341
7192.27684,0.08056
7190.34810,0.07857
7188.41936,0.07879
7186.49061,0.08107
7184.56187,0.08502
7182.63313,0.08842
7180.70439,0.09003
7178.77565,0.09019
7176.84691,0.08957
7174.91817,0.08987
7172.98942,0.08864
7171.06068,0.08505
7169.13194,0.08429
7167.20320,0.08627
7165.27446,0.08564
7163.34572,0.08324
7161.41698,0.08340
7159.48823,0.08573
7157.55949,0.08708
7155.63075,0.08552
7153.70201,0.08135
7151.77327,0.07904
7149.84453,0.07952
7147.91579,0.07907
7145.98704,0.07807
7144.05830,0.07860
7142.12956,0.07880
7140.20082,0.07861
7138.27208,0.08098
7136.34334,0.08492
7134.41460,0.08702
7132.48585,0.08821
7130.55711,0.08921
7128.62837,0.08812
7126.69963,0.08562
7124.77089,0.08284
7122.84215,0.07844
7120.91341,0.07627
7118.98466,0.07861
7117.05592,0.07996
7115.12718,0.07968
7113.19844,0.08036
7111.26970,0.08126
7109.34096,0.08234
7107.41222,0.08377
7105.48347,0.08471
7103.55473,0.08370
7101.62599,0.08197
7099.69725,0.08192
7097.76851,0.08335
7095.83977,0.08462
7093.91103,0.08280
7091.98228,0.07752
7090.05354,0.07339
7088.12480,0.07330
7086.19606,0.07622
7084.26732,0.08000
7082.33858,0.08320
7080.40983,0.08473
7078.48109,0.08326
7076.55235,0.07946
7074.62361,0.07715
7072.69487,0.07752
7070.76613,0.07967
7068.83739,0.08389
7066.90864,0.08774
7064.97990,0.08732
7063.05116,0.08285
7061.12242,0.07753
7059.19368,0.07513
7057.26494,0.07788
7055.33620,0.08389
7053.40745,0.08694
7051.47871,0.08597
7049.54997,0.08545
7047.62123,0.08460
7045.69249,0.08197
7043.76375,0.08071
7041.83501,0.08097
7039.90626,0.08026
7037.97752,0.07925
7036.04878,0.07966
7034.12004,0.08101
7032.19130,0.08116
7030.26256,0.08007
7028.33382,0.08209
7026.40507,0.08586
7024.47633,0.08384
7022.54759,0.07902
7020.61885,0.07937
7018.69011,0.08193
7016.76137,0.08289
7014.83263,0.08435
7012.90388,0.08638
7010.97514,0.08700
7009.04640,0.08655
7007.11766,0.08586
7005.18892,0.08440
7003.26018,0.08212
7001.33144,0.07922
6999.40269,0.07606
6997.47395,0.07547
6995.54521,0.07756
6993.61647,0.07932
6991.68773,0.08044
6989.75899,0.08143
6987.83025,0.08302
6985.90150,0.08615
6983.97276,0.08764
6982.04402,0.08473
6980.11528,0.08034
6978.18654,0.07722
6976.25780,0.07539
6974.32906,0.07533
6972.40031,0.07594
6970.47157,0.07632
6968.54283,0.07861
6966.61409,0.08156
6964.68535,0.08076
6962.75661,0.07741
6960.82787,0.07535
6958.89912,0.07529
6956.97038,0.07641
6955.04164,0.07657
6953.11290,0.07585
6951.18416,0.07753
6949.25542,0.08061
6947.32668,0.08176
6945.39793,0.08183
6943.46919,0.08349
6941.54045,0.08439
6939.61171,0.08143
6937.68297,0.07773
6935.75423,0.07679
6933.82549,0.07856
6931.89674,0.08130
6929.96800,0.08342
6928.03926,0.08505
6926.11052,0.08483
6924.18178,0.08126
6922.25304,0.07784
6920.32430,0.07879
6918.39555,0.08123
6916.46681,0.08101
6914.53807,0.08031
6912.60933,0.08127
6910.68059,0.08236
6908.75185,0.08257
6906.82311,0.08300
6904.89436,0.08426
6902.96562,0.08473
6901.03688,0.08489
6899.10814,0.08530
6897.17940,0.08360
6895.25066,0.08104
6893.32192,0.08064
6891.39317,0.08200
6889.46443,0.08445
6887.53569,0.08578
6885.60695,0.08384
6883.67821,0.08074
6881.74947,0.08052
6879.82072,0.08368
6877.89198,0.08447
6875.96324,0.08059
6874.03450,0.07817
6872.10576,0.07893
6870.17702,0.07912
6868.24828,0.07824
6866.31953,0.07863
6864.39079,0.08035
6862.46205,0.08184
6860.53331,0.08179
6858.60457,0.08019
6856.67583,0.08008
6854.74709,0.08224
6852.81834,0.08374
6850.88960,0.08368
6848.96086,0.08251
6847.03212,0.08088
6845.10338,0.08049
6843.17464,0.08204
6841.24590,0.08414
6839.31715,0.08577
6837.38841,0.08637
6835.45967,0.08500
6833.53093,0.08208
6831.60219,0.07900
6829.67345,0.07745
6827.74471,0.07906
6825.81596,0.08192
6823.88722,0.08379
6821.95848,0.08442
6820.02974,0.08411
6818.10100,0.08270
6816.17226,0.07978
6814.24352,0.07675
6812.31477,0.07622
6810.38603,0.07679
6808.45729,0.07562
6806.52855,0.07378
6804.59981,0.07311
6802.67107,0.07431
6800.74233,0.07755
6798.81358,0.08069
6796.88484,0.08145
6794.95610,0.07966
6793.02736,0.07806
6791.09862,0.07950
6789.16988,0.08061
6787.24114,0.07766
6785.31239,0.07518
6783.38365,0.07700
6781.45491,0.07969
6779.52617,0.07965
6777.59743,0.07791
6775.66869,0.07713
6773.73995,0.07650
6771.81120,0.07546
6769.88246,0.07765
6767.95372,0.08107
6766.02498,0.08013
6764.09624,0.07712
6762.16750,0.07685
6760.23876,0.07822
6758.31001,0.07820
6756.38127,0.07798
6754.45253,0.07915
6752.52379,0.08040
6750.59505,0.08110
6748.66631,0.08041
6746.73757,0.07840
6744.80882,0.07739
6742.88008,0.07777
6740.95134,0.07826
6739.02260,0.07769
6737.09386,0.07525
6735.16512,0.07377
6733.23638,0.07504
6731.30763,0.07634
6729.37889,0.07753
6727.45015,0.07845
6725.52141,0.07637
6723.59267,0.07366
6721.66393,0.07313
6719.73519,0.07216
6717.80644,0.07019
6715.87770,0.06992
6713.94896,0.07107
6712.02022,0.07233
6710.09148,0.07417
6708.16274,0.07629
6706.23400,0.07793
6704.30525,0.07818
6702.37651,0.07608
6700.44777,0.07401
6698.51903,0.07449
6696.59029,0.07515
6694.66155,0.07331
6692.73281,0.07102
6690.80406,0.07057
6688.87532,0.07134
6686.94658,0.07202
6685.01784,0.07200
6683.08910,0.07207
6681.16036,0.07246
6679.23161,0.07139
6677.30287,0.06975
6675.37413,0.07058
6673.44539,0.07236
6671.51665,0.07184
6669.58791,0.07056
6667.65917,0.07059
6665.73042,0.07132
6663.80168,0.07146
6661.87294,0.07048
6659.94420,0.07002
6658.01546,0.07077
6656.08672,0.07117
6654.15798,0.07072
6652.22923,0.07045
6650.30049,0.07102
6648.37175,0.07144
6646.44301,0.07055
6644.51427,0.06842
6642.58553,0.06622
6640.65679,0.06638
6638.72804,0.06930
6636.79930,0.07086
6634.87056,0.06900
6632.94182,0.06774
6631.01308,0.07048
6629.08434,0.07447
6627.15560,0.07429
6625.22685,0.06990
6623.29811,0.06691
6621.36937,0.06677
6619.44063,0.06675
6617.51189,0.06645
6615.58315,0.06641
6613.65441,0.06635
6611.72566,0.06568
6609.79692,0.06547
6607.86818,0.06704
6605.93944,0.06814
6604.01070,0.06702
6602.08196,0.06504
6600.15322,0.06339
6598.22447,0.06274
6596.29573,0.06329
6594.36699,0.06391
6592.43825,0.06419
6590.50951,0.06525
6588.58077,0.06682
6586.65203,0.06729
6584.72328,0.06666
6582.79454,0.06614
6580.86580,0.06629
6578.93706,0.06657
6577.00832,0.06707
6575.07958,0.06798
6573.15084,0.06710
6571.22209,0.06292
6569.29335,0.05822
6567.36461,0.05703
6565.43587,0.06010
6563.50713,0.06392
6561.57839,0.06517
6559.64965,0.06426
6557.72090,0.06322
6555.79216,0.06320
6553.86342,0.06360
6551.93468,0.06381
6550.00594,0.06433
6548.07720,0.06416
6546.14846,0.06319
6544.21971,0.06343
6542.29097,0.06438
6540.36223,0.06322
6538.43349,0.06067
6536.50475,0.06004
6534.57601,0.06180
6532.64727,0.06276
6530.71852,0.06058
6528.78978,0.05734
6526.86104,0.05706
6524.93230,0.05985
6523.00356,0.06224
6521.07482,0.06248
6519.14608,0.06171
6517.21733,0.06083
6515.28859,0.05983
6513.35985,0.05865
6511.43111,0.05739
6509.50237,0.05665
6507.57363,0.05624
6505.64489,0.05572
6503.71614,0.05625
6501.78740,0.05843
6499.85866,0.06062
6497.92992,0.06189
6496.00118,0.06285
6494.07244,0.06310
6492.14370,0.06230
6490.21495,0.06097
6488.28621,0.05968
6486.35747,0.05885
6484.42873,0.05881
6482.49999,0.06018
6480.57125,0.06248
6478.64250,0.06303
6476.71376,0.06122
6474.78502,0.05944
6472.85628,0.05937
6470.92754,0.06083
6468.99880,0.06232
6467.07006,0.06223
6465.14131,0.06234
6463.21257,0.06468
6461.28383,0.06640
6459.35509,0.06457
6457.42635,0.06168
6455.49761,0.06234
6453.56887,0.06633
6451.64012,0.06971
6449.71138,0.07119
6447.78264,0.07149
6445.85390,0.07101
6443.92516,0.07048
6441.99642,0.07072
6440.06768,0.07211
6438.13893,0.07446
6436.21019,0.07693
6434.28145,0.07818
6432.35271,0.07685
6430.42397,0.07302
6428.49523,0.06941
6426.56649,0.06979
6424.63774,0.07401
6422.70900,0.07790
6420.78026,0.07997
6418.85152,0.08068
6416.92278,0.07823
6414.99404,0.07381
6413.06530,0.07134
6411.13655,0.07074
6409.20781,0.07025
6407.27907,0.06995
6405.35033,0.06960
6403.42159,0.06915
6401.49285,0.06982
6399.56411,0.07070
6397.63536,0.07008
6395.70662,0.06970
6393.77788,0.07047
6391.84914,0.07136
6389.92040,0.07334
6387.99166,0.07534
6386.06292,0.07415
6384.13417,0.07138
6382.20543,0.06978
6380.27669,0.06897
6378.34795,0.06878
6376.41921,0.06915
6374.49047,0.06893
6372.56173,0.06768
6370.63298,0.06583
6368.70424,0.06465
6366.77550,0.06541
6364.84676,0.06671
6362.91802,0.06639
6360.98928,0.06492
6359.06054,0.06411
6357.13179,0.06521
6355.20305,0.06616
6353.27431,0.06446
6351.34557,0.06305
6349.41683,0.06437
6347.48809,0.06630
6345.55935,0.06745
6343.63060,0.06809
6341.70186,0.06872
6339.77312,0.06932
6337.84438,0.06844
6335.91564,0.06688
6333.98690,0.06719
6332.05816,0.06813
6330.12941,0.06812
6328.20067,0.06824
6326.27193,0.06830
6324.34319,0.06758
6322.41445,0.06739
6320.48571,0.06799
6318.55697,0.06856
6316.62822,0.06981
6314.69948,0.07243
6312.77074,0.07493
6310.84200,0.07552
6308.91326,0.07420
6306.98452,0.07290
6305.05578,0.07290
6303.12703,0.07343
6301.19829,0.07318
6299.26955,0.07163
6297.34081,0.07040
6295.41207,0.07064
6293.48333,0.07097
6291.55459,0.07105
6289.62584,0.07147
6287.69710,0.07236
6285.76836,0.07363
6283.83962,0.07452
6281.91088,0.07452
6279.98214,0.07422
6278.05339,0.07404
6276.12465,0.07274
6274.19591,0.06978
6272.26717,0.06884
6270.33843,0.07159
6268.40969,0.07319
6266.48095,0.07135
6264.55220,0.07009
6262.62346,0.07095
6260.69472,0.07077
6258.76598,0.06842
6256.83724,0.06642
6254.90850,0.06714
6252.97976,0.06974
6251.05101,0.07071
6249.12227,0.06945
6247.19353,0.06910
6245.26479,0.06988
6243.33605,0.06858
6241.40731,0.06556
6239.47857,0.06461
6237.54982,0.06582
6235.62108,0.06605
6233.69234,0.06508
6231.76360,0.06492
6229.83486,0.06596
6227.90612,0.06751
6225.97738,0.06904
6224.04863,0.06961
6222.11989,0.06931
6220.19115,0.06959
6218.26241,0.07042
6216.33367,0.07060
6214.40493,0.07053
6212.47619,0.07157
6210.54744,0.07328
6208.61870,0.07383
6206.68996,0.07321
6204.76122,0.07277
6202.83248,0.07207
6200.90374,0.07092
6198.97500,0.07143
6197.04625,0.07297
6195.11751,0.07300
6193.18877,0.07279
6191.26003,0.07397
6189.33129,0.07540
6187.40255,0.07580
6185.47381,0.07492
6183.54506,0.07395
6181.61632,0.07415
6179.68758,0.07484
6177.75884,0.07528
6175.83010,0.07577
6173.90136,0.07621
6171.97262,0.07673
6170.04387,0.07726
6168.11513,0.07671
6166.18639,0.07520
6164.25765,0.07524
6162.32891,0.07801
6160.40017,0.08040
6158.47143,0.07979
6156.54268,0.07817
6154.61394,0.07781
6152.68520,0.07874
6150.75646,0.07973
6148.82772,0.08015
6146.89898,0.08054
6144.97024,0.08093
6143.04149,0.08149
6141.11275,0.08247
6139.18401,0.08335
6137.25527,0.08434
6135.32653,0.08465
6133.39779,0.08314
6131.46905,0.08141
6129.54030,0.08117
6127.61156,0.08248
6125.68282,0.08474
6123.75408,0.08623
6121.82534,0.08539
6119.89660,0.08331
6117.96786,0.08293
6116.03911,0.08493
6114.11037,0.08665
6112.18163,0.08684
6110.25289,0.08650
6108.32415,0.08609
6106.39541,0.08621
6104.46667,0.08747
6102.53792,0.08834
6100.60918,0.08751
6098.68044,0.08650
6096.75170,0.08701
6094.82296,0.08857
6092.89422,0.08986
6090.96548,0.09050
6089.03673,0.09024
6087.10799,0.08884
6085.17925,0.08739
6083.25051,0.08637
6081.32177,0.08509
6079.39303,0.08435
6077.46428,0.08521
6075.53554,0.08673
6073.60680,0.08736
6071.67806,0.08677
6069.74932,0.08591
6067.82058,0.08579
6065.89184,0.08659
6063.96309,0.08755
6062.03435,0.08749
6060.10561,0.08617
6058.17687,0.08469
6056.24813,0.08456
6054.31939,0.08589
6052.39065,0.08682
6050.46190,0.08663
6048.53316,0.08638
6046.60442,0.08583
6044.67568,0.08470
6042.74694,0.08403
6040.81820,0.08380
6038.88946,0.08311
6036.96071,0.08210
6035.03197,0.08189
6033.10323,0.08297
6031.17449,0.08422
6029.24575,0.08490
6027.31701,0.08536
6025.38827,0.08502
6023.45952,0.08368
6021.53078,0.08314
6019.60204,0.08369
6017.67330,0.08418
6015.74456,0.08438
6013.81582,0.08377
6011.88708,0.08238
6009.95833,0.08162
6008.02959,0.08218
6006.10085,0.08332
6004.17211,0.08396
6002.24337,0.08396
6000.31463,0.08361
5998.38589,0.08255
5996.45714,0.08124
5994.52840,0.08099
5992.59966,0.08231
5990.67092,0.08429
5988.74218,0.08468
5986.81344,0.08248
5984.88470,0.07959
5982.95595,0.07775
5981.02721,0.07732
5979.09847,0.07816
5977.16973,0.07906
5975.24099,0.07935
5973.31225,0.07960
5971.38351,0.07985
5969.45476,0.07957
5967.52602,0.07862
5965.59728,0.07720
5963.66854,0.07634
5961.73980,0.07634
5959.81106,0.07600
5957.88232,0.07519
5955.95357,0.07517
5954.02483,0.07601
5952.09609,0.07661
5950.16735,0.07663
5948.23861,0.07617
5946.30987,0.07558
5944.38113,0.07620
5942.45238,0.07759
5940.52364,0.07740
5938.59490,0.07539
5936.66616,0.07316
5934.73742,0.07148
5932.80868,0.07059
5930.87994,0.07064
5928.95119,0.07080
5927.02245,0.07021
5925.09371,0.06931
5923.16497,0.06862
5921.23623,0.06834
5919.30749,0.06809
5917.37875,0.06718
5915.45000,0.06585
5913.52126,0.06435
5911.59252,0.06289
5909.66378,0.06256
5907.73504,0.06306
5905.80630,0.06309
5903.87756,0.06271
5901.94881,0.06161
5900.02007,0.05992
5898.09133,0.05944
5896.16259,0.06020
5894.23385,0.06071
5892.30511,0.06089
5890.37637,0.06078
5888.44762,0.05990
5886.51888,0.05898
5884.59014,0.05849
5882.66140,0.05787
5880.73266,0.05720
5878.80392,0.05647
5876.87517,0.05545
5874.94643,0.05540
5873.01769,0.05686
5871.08895,0.05800
5869.16021,0.05774
5867.23147,0.05646
5865.30273,0.05501
5863.37398,0.05526
5861.44524,0.05685
5859.51650,0.05692
5857.58776,0.05586
5855.65902,0.05576
5853.73028,0.05574
5851.80154,0.05491
5849.87279,0.05428
5847.94405,0.05461
5846.01531,0.05511
5844.08657,0.05439
5842.15783,0.05294
5840.22909,0.05284
5838.30035,0.05438
5836.37160,0.05577
5834.44286,0.05634
5832.51412,0.05698
5830.58538,0.05787
5828.65664,0.05869
5826.72790,0.05874
5824.79916,0.05667
5822.87041,0.05378
5820.94167,0.05345
5819.01293,0.05526
5817.08419,0.05612
5815.15545,0.05554
5813.22671,0.05524
5811.29797,0.05625
5809.36922,0.05747
5807.44048,0.05763
5805.51174,0.05705
5803.58300,0.05594
5801.65426,0.05465
5799.72552,0.05405
5797.79678,0.05453
5795.86803,0.05554
5793.93929,0.05549
5792.01055,0.05433
5790.08181,0.05413
5788.15307,0.05525
5786.22433,0.05661
5784.29559,0.05795
5782.36684,0.05845
5780.43810,0.05716
5778.50936,0.05520
5776.58062,0.05412
5774.65188,0.05391
5772.72314,0.05392
5770.79440,0.05411
5768.86565,0.05503
5766.93691,0.05670
5765.00817,0.05782
5763.07943,0.05709
5761.15069,0.05509
5759.22195,0.05380
5757.29321,0.05408
5755.36446,0.05507
5753.43572,0.05604
5751.50698,0.05677
5749.57824,0.05701
5747.64950,0.05711
5745.72076,0.05726
5743.79202,0.05705
5741.86327,0.05686
5739.93453,0.05725
5738.00579,0.05814
5736.07705,0.05872
5734.14831,0.05789
5732.21957,0.05606
5730.29083,0.05463
5728.36208,0.05432
5726.43334,0.05499
5724.50460,0.05574
5722.57586,0.05542
5720.64712,0.05432
5718.71838,0.05405
5716.78964,0.05472
5714.86089,0.05503
5712.93215,0.05466
5711.00341,0.05409
5709.07467,0.05381
5707.14593,0.05430
5705.21719,0.05539
5703.28845,0.05624
5701.35970,0.05652
5699.43096,0.05635
5697.50222,0.05553
5695.57348,0.05437
5693.64474,0.05398
5691.71600,0.05462
5689.78726,0.05553
5687.85851,0.05630
5685.92977,0.05653
5684.00103,0.05631
5682.07229,0.05640
5680.14355,0.05655
5678.21481,0.05623
5676.28606,0.05599
5674.35732,0.05604
5672.42858,0.05579
5670.49984,0.05610
5668.57110,0.05742
5666.64236,0.05788
5664.71362,0.05706
5662.78487,0.05696
5660.85613,0.05799
5658.92739,0.05894
5656.99865,0.05886
5655.06991,0.05778
5653.14117,0.05672
5651.21243,0.05641
5649.28368,0.05702
5647.35494,0.05805
5645.42620,0.05784
5643.49746,0.05650
5641.56872,0.05639
5639.63998,0.05752
5637.71124,0.05801
5635.78249,0.05762
5633.85375,0.05731
5631.92501,0.05753
5629.99627,0.05778
5628.06753,0.05780
5626.13879,0.05802
5624.21005,0.05857
5622.28130,0.05894
5620.35256,0.05894
5618.42382,0.05886
5616.49508,0.05878
5614.56634,0.05849
5612.63760,0.05791
5610.70886,0.05725
5608.78011,0.05686
5606.85137,0.05713
5604.92263,0.05810
5602.99389,0.05894
5601.06515,0.05907
5599.13641,0.05895
5597.20767,0.05861
5595.27892,0.05792
5593.35018,0.05816
5591.42144,0.05945
5589.49270,0.05961
5587.56396,0.05805
5585.63522,0.05700
5583.70648,0.05770
5581.77773,0.05932
5579.84899,0.06061
5577.92025,0.06059
5575.99151,0.05975
5574.06277,0.05954
5572.13403,0.05935
5570.20529,0.05843
5568.27654,0.05765
5566.34780,0.05763
5564.41906,0.05844
5562.49032,0.05938
5560.56158,0.05938
5558.63284,0.05840
5556.70410,0.05742
5554.77535,0.05737
5552.84661,0.05825
5550.91787,0.05953
5548.98913,0.06080
5547.06039,0.06182
5545.13165,0.06188
5543.20291,0.06063
5541.27416,0.05961
5539.34542,0.06007
5537.41668,0.06069
5535.48794,0.06032
5533.55920,0.06006
5531.63046,0.06074
5529.70172,0.06123
5527.77297,0.06088
5525.84423,0.06066
5523.91549,0.06075
5521.98675,0.06051
5520.05801,0.06048
5518.12927,0.06083
5516.20053,0.06088
5514.27178,0.06093
5512.34304,0.06129
5510.41430,0.06114
5508.48556,0.06054
5506.55682,0.06079
5504.62808,0.06157
5502.69934,0.06166
5500.77059,0.06169
5498.84185,0.06237
5496.91311,0.06297
5494.98437,0.06276
5493.05563,0.06187
5491.12689,0.06113
5489.19815,0.06101
5487.26940,0.06151
5485.34066,0.06224
5483.41192,0.06229
5481.48318,0.06153
5479.55444,0.06095
5477.62570,0.06121
5475.69695,0.06215
5473.76821,0.06278
5471.83947,0.06229
5469.91073,0.06166
5467.98199,0.06195
5466.05325,0.06228
5464.12451,0.06209
5462.19576,0.06235
5460.26702,0.06326
5458.33828,0.06370
5456.40954,0.06294
5454.48080,0.06168
5452.55206,0.06136
5450.62332,0.06257
5448.69457,0.06392
5446.76583,0.06374
5444.83709,0.06269
5442.90835,0.06223
5440.97961,0.06252
5439.05087,0.06310
5437.12213,0.06321
5435.19338,0.06271
5433.26464,0.06244
5431.33590,0.06254
5429.40716,0.06250
5427.47842,0.06277
5425.54968,0.06354
5423.62094,0.06382
5421.69219,0.06355
5419.76345,0.06368
5417.83471,0.06416
5415.90597,0.06430
5413.97723,0.06411
5412.04849,0.06402
5410.11975,0.06403
5408.19100,0.06366
5406.26226,0.06309
5404.33352,0.06310
5402.40478,0.06386
5400.47604,0.06448
5398.54730,0.06389
5396.61856,0.06271
5394.68981,0.06256
5392.76107,0.06350
5390.83233,0.06463
5388.90359,0.06534
5386.97485,0.06491
5385.04611,0.06369
5383.11737,0.06312
5381.18862,0.06372
5379.25988,0.06469
5377.33114,0.06513
5375.40240,0.06542
5373.47366,0.06613
5371.54492,0.06675
5369.61618,0.06676
5367.68743,0.06607
5365.75869,0.06523
5363.82995,0.06470
5361.90121,0.06426
5359.97247,0.06414
5358.04373,0.06456
5356.11499,0.06522
5354.18624,0.06604
5352.25750,0.06643
5350.32876,0.06622
5348.40002,0.06613
5346.47128,0.06591
5344.54254,0.06533
5342.61380,0.06528
5340.68505,0.06571
5338.75631,0.06586
5336.82757,0.06570
5334.89883,0.06551
5332.97009,0.06566
5331.04135,0.06618
5329.11261,0.06629
5327.18386,0.06597
5325.25512,0.06556
5323.32638,0.06486
5321.39764,0.06423
5319.46890,0.06404
5317.54016,0.06407
5315.61142,0.06455
5313.68267,0.06526
5311.75393,0.06490
5309.82519,0.06354
5307.89645,0.06292
5305.96771,0.06345
5304.03897,0.06424
5302.11023,0.06503
5300.18148,0.06528
5298.25274,0.06444
5296.32400,0.06322
5294.39526,0.06245
5292.46652,0.06229
5290.53778,0.06276
5288.60904,0.06324
5286.68029,0.06304
5284.75155,0.06262
5282.82281,0.06260
5280.89407,0.06237
5278.96533,0.06160
5277.03659,0.06113
5275.10784,0.06121
5273.17910,0.06147
5271.25036,0.06170
5269.32162,0.06143
5267.39288,0.06084
5265.46414,0.06064
5263.53540,0.06067
5261.60665,0.06093
5259.67791,0.06133
5257.74917,0.06152
5255.82043,0.06174
5253.89169,0.06158
5251.96295,0.06066
5250.03421,0.05982
5248.10546,0.05922
5246.17672,0.05887
5244.24798,0.05923
5242.31924,0.05994
5240.39050,0.06058
5238.46176,0.06100
5236.53302,0.06037
5234.60427,0.05873
5232.67553,0.05782
5230.74679,0.05861
5228.81805,0.05965
5226.88931,0.05949
5224.96057,0.05887
5223.03183,0.05867
5221.10308,0.05864
5219.17434,0.05855
5217.24560,0.05798
5215.31686,0.05717
5213.38812,0.05752
5211.45938,0.05871
5209.53064,0.05909
5207.60189,0.05886
5205.67315,0.05876
5203.74441,0.05825
5201.81567,0.05739
5199.88693,0.05709
5197.95819,0.05751
5196.02945,0.05788
5194.10070,0.05785
5192.17196,0.05769
5190.24322,0.05779
5188.31448,0.05845
5186.38574,0.05904
5184.45700,0.05886
5182.52826,0.05801
5180.59951,0.05710
5178.67077,0.05679
5176.74203,0.05686
5174.81329,0.05692
5172.88455,0.05754
5170.95581,0.05856
5169.02707,0.05891
5167.09832,0.05834
5165.16958,0.05747
5163.24084,0.05680
5161.31210,0.05645
5159.38336,0.05657
5157.45462,0.05720
5155.52588,0.05790
5153.59713,0.05823
5151.66839,0.05816
5149.73965,0.05806
5147.81091,0.05810
5145.88217,0.05747
5143.95343,0.05653
5142.02469,0.05641
5140.09594,0.05693
5138.16720,0.05776
5136.23846,0.05835
5134.30972,0.05807
5132.38098,0.05739
5130.45224,0.05699
5128.52350,0.05697
5126.59475,0.05704
5124.66601,0.05696
5122.73727,0.05679
5120.80853,0.05661
5118.87979,0.05661
5116.95105,0.05697
5115.02231,0.05727
5113.09356,0.05726
5111.16482,0.05736
5109.23608,0.05752
5107.30734,0.05733
5105.37860,0.05694
5103.44986,0.05684
5101.52112,0.05711
5099.59237,0.05732
5097.66363,0.05715
5095.73489,0.05672
5093.80615,0.05641
5091.87741,0.05650
5089.94867,0.05676
5088.01993,0.05686
5086.09118,0.05689
5084.16244,0.05708
5082.23370,0.05737
5080.30496,0.05755
5078.37622,0.05781
5076.44748,0.05824
5074.51873,0.05834
5072.58999,0.05797
5070.66125,0.05761
5068.73251,0.05753
5066.80377,0.05789
5064.87503,0.05858
5062.94629,0.05900
5061.01754,0.05885
5059.08880,0.05834
5057.16006,0.05807
5055.23132,0.05856
5053.30258,0.05920
5051.37384,0.05894
5049.44510,0.05784
5047.51635,0.05711
5045.58761,0.05734
5043.65887,0.05792
5041.73013,0.05836
5039.80139,0.05828
5037.87265,0.05771
5035.94391,0.05740
5034.01516,0.05760
5032.08642,0.05795
5030.15768,0.05859
5028.22894,0.05929
5026.30020,0.05942
5024.37146,0.05916
5022.44272,0.05867
5020.51397,0.05754
5018.58523,0.05680
5016.65649,0.05752
5014.72775,0.05839
5012.79901,0.05825
5010.87027,0.05780
5008.94153,0.05737
5007.01278,0.05665
5005.08404,0.05627
5003.15530,0.05688
5001.22656,0.05757
4999.29782,0.05734
4997.36908,0.05665
4995.44034,0.05625
4993.51159,0.05630
4991.58285,0.05687
4989.65411,0.05758
4987.72537,0.05787
4985.79663,0.05771
4983.86789,0.05739
4981.93915,0.05690
4980.01040,0.05631
4978.08166,0.05610
4976.15292,0.05657
4974.22418,0.05715
4972.29544,0.05709
4970.36670,0.05642
4968.43796,0.05591
4966.50921,0.05616
4964.58047,0.05676
4962.65173,0.05686
4960.72299,0.05668
4958.79425,0.05704
4956.86551,0.05762
4954.93677,0.05773
4953.00802,0.05760
4951.07928,0.05767
4949.15054,0.05804
4947.22180,0.05816
4945.29306,0.05730
4943.36432,0.05633
4941.43558,0.05639
4939.50683,0.05703
4937.57809,0.05746
4935.64935,0.05742
4933.72061,0.05705
4931.79187,0.05665
4929.86313,0.05652
4927.93439,0.05674
4926.00564,0.05713
4924.07690,0.05759
4922.14816,0.05808
4920.21942,0.05815
4918.29068,0.05774
4916.36194,0.05746
4914.43320,0.05759
4912.50445,0.05762
4910.57571,0.05724
4908.64697,0.05681
4906.71823,0.05703
4904.78949,0.05785
4902.86075,0.05830
4900.93201,0.05822
4899.00326,0.05823
4897.07452,0.05804
4895.14578,0.05727
4893.21704,0.05660
4891.28830,0.05636
4889.35956,0.05616
4887.43081,0.05599
4885.50207,0.05622
4883.57333,0.05673
4881.64459,0.05699
4879.71585,0.05674
4877.78711,0.05624
4875.85837,0.05613
4873.92962,0.05648
4872.00088,0.05670
4870.07214,0.05651
4868.14340,0.05610
4866.21466,0.05606
4864.28592,0.05683
4862.35718,0.05764
4860.42843,0.05767
4858.49969,0.05736
4856.57095,0.05715
4854.64221,0.05681
4852.71347,0.05643
4850.78473,0.05655
4848.85599,0.05726
4846.92724,0.05799
4844.99850,0.05800
4843.06976,0.05732
4841.14102,0.05697
4839.21228,0.05734
4837.28354,0.05772
4835.35480,0.05770
4833.42605,0.05754
4831.49731,0.05762
4829.56857,0.05786
4827.63983,0.05789
4825.71109,0.05785
4823.78235,0.05804
4821.85361,0.05800
4819.92486,0.05755
4817.99612,0.05744
4816.06738,0.05758
4814.13864,0.05760
4812.20990,0.05786
4810.28116,0.05822
4808.35242,0.05842
4806.42367,0.05855
4804.49493,0.05849
4802.56619,0.05830
4800.63745,0.05830
4798.70871,0.05842
4796.77997,0.05846
4794.85123,0.05837
4792.92248,0.05825
4790.99374,0.05797
4789.06500,0.05738
4787.13626,0.05690
4785.20752,0.05679
4783.27878,0.05676
4781.35004,0.05696
4779.42129,0.05768
4777.49255,0.05850
4775.56381,0.05876
4773.63507,0.05845
4771.70633,0.05811
4769.77759,0.05781
4767.84885,0.05760
4765.92010,0.05766
4763.99136,0.05798
4762.06262,0.05828
4760.13388,0.05827
4758.20514,0.05820
4756.27640,0.05809
4754.34766,0.05757
4752.41891,0.05716
4750.49017,0.05734
4748.56143,0.05761
4746.63269,0.05778
4744.70395,0.05800
4742.77521,0.05793
4740.84647,0.05777
4738.91772,0.05790
4736.98898,0.05822
4735.06024,0.05854
4733.13150,0.05867
4731.20276,0.05854
4729.27402,0.05827
4727.34528,0.05790
4725.41653,0.05760
4723.48779,0.05752
4721.55905,0.05750
4719.63031,0.05756
4717.70157,0.05795
4715.77283,0.05826
4713.84409,0.05819
4711.91534,0.05802
4709.98660,0.05794
4708.05786,0.05812
4706.12912,0.05870
4704.20038,0.05913
4702.27164,0.05868
4700.34290,0.05775
4698.41415,0.05718
4696.48541,0.05693
4694.55667,0.05681
4692.62793,0.05694
4690.69919,0.05719
4688.77045,0.05743
4686.84170,0.05770
4684.91296,0.05793
4682.98422,0.05779
4681.05548,0.05747
4679.12674,0.05766
4677.19800,0.05817
4675.26926,0.05809
4673.34051,0.05747
4671.41177,0.05709
4669.48303,0.05721
4667.55429,0.05739
4665.62555,0.05735
4663.69681,0.05742
4661.76807,0.05757
4659.83932,0.05752
4657.91058,0.05754
4655.98184,0.05779
4654.05310,0.05787
4652.12436,0.05749
4650.19562,0.05713
4648.26688,0.05757
4646.33813,0.05835
4644.40939,0.05845
4642.48065,0.05802
4640.55191,0.05737
4638.62317,0.05673
4636.69443,0.05684
4634.76569,0.05739
4632.83694,0.05756
4630.90820,0.05762
4628.97946,0.05780
4627.05072,0.05775
4625.12198,0.05749
4623.19324,0.05734
4621.26450,0.05733
4619.33575,0.05750
4617.40701,0.05803
4615.47827,0.05861
4613.54953,0.05868
4611.62079,0.05831
4609.69205,0.05796
4607.76331,0.05783
4605.83456,0.05794
4603.90582,0.05824
4601.97708,0.05854
4600.04834,0.05855
4598.11960,0.05824
4596.19086,0.05823
4594.26212,0.05869
4592.33337,0.05881
4590.40463,0.05820
4588.47589,0.05741
4586.54715,0.05709
4584.61841,0.05745
4582.68967,0.05798
4580.76093,0.05827
4578.83218,0.05852
4576.90344,0.05851
4574.97470,0.05809
4573.04596,0.05785
4571.11722,0.05785
4569.18848,0.05767
4567.25974,0.05762
4565.33099,0.05805
4563.40225,0.05853
4561.47351,0.05855
4559.54477,0.05823
4557.61603,0.05791
4555.68729,0.05771
4553.75855,0.05773
4551.82980,0.05809
4549.90106,0.05856
4547.97232,0.05856
4546.04358,0.05798
4544.11484,0.05751
4542.18610,0.05756
4540.25736,0.05785
4538.32861,0.05804
4536.39987,0.05805
4534.47113,0.05796
4532.54239,0.05784
4530.61365,0.05800
4528.68491,0.05840
4526.75617,0.05847
4524.82742,0.05811
4522.89868,0.05764
4520.96994,0.05743
4519.04120,0.05790
4517.11246,0.05869
4515.18372,0.05881
4513.25498,0.05833
4511.32623,0.05793
4509.39749,0.05778
4507.46875,0.05765
4505.54001,0.05742
4503.61127,0.05723
4501.68253,0.05710
4499.75379,0.05719
4497.82504,0.05756
4495.89630,0.05799
4493.96756,0.05839
4492.03882,0.05838
4490.11008,0.05797
4488.18134,0.05791
4486.25259,0.05827
4484.32385,0.05855
4482.39511,0.05848
4480.46637,0.05818
4478.53763,0.05821
4476.60889,0.05861
4474.68015,0.05866
4472.75140,0.05828
4470.82266,0.05832
4468.89392,0.05847
4466.96518,0.05789
4465.03644,0.05732
4463.10770,0.05744
4461.17896,0.05766
4459.25021,0.05773
4457.32147,0.05807
4455.39273,0.05867
4453.46399,0.05906
4451.53525,0.05909
4449.60651,0.05902
4447.67777,0.05883
4445.74902,0.05833
4443.82028,0.05799
4441.89154,0.05800
4439.96280,0.05800
4438.03406,0.05806
4436.10532,0.05827
4434.17658,0.05844
4432.24783,0.05839
4430.31909,0.05806
4428.39035,0.05782
4426.46161,0.05789
4424.53287,0.05809
4422.60413,0.05824
4420.67539,0.05813
4418.74664,0.05780
4416.81790,0.05771
4414.88916,0.05790
4412.96042,0.05800
4411.03168,0.05797
4409.10294,0.05804
4407.17420,0.05810
4405.24545,0.05784
4403.31671,0.05756
4401.38797,0.05759
4399.45923,0.05762
4397.53049,0.05751
4395.60175,0.05743
4393.67301,0.05746
4391.74426,0.05753
4389.81552,0.05772
4387.88678,0.05811
4385.95804,0.05844
4384.02930,0.05849
4382.10056,0.05834
4380.17182,0.05815
4378.24307,0.05811
4376.31433,0.05820
4374.38559,0.05822
4372.45685,0.05819
4370.52811,0.05820
4368.59937,0.05830
4366.67063,0.05827
4364.74188,0.05798
4362.81314,0.05778
4360.88440,0.05774
4358.95566,0.05758
4357.02692,0.05756
4355.09818,0.05768
4353.16944,0.05769
4351.24069,0.05787
4349.31195,0.05829
4347.38321,0.05844
4345.45447,0.05833
4343.52573,0.05842
4341.59699,0.05858
4339.66825,0.05853
4337.73950,0.05837
4335.81076,0.05820
4333.88202,0.05785
4331.95328,0.05735
4330.02454,0.05713
4328.09580,0.05721
4326.16706,0.05735
4324.23831,0.05756
4322.30957,0.05784
4320.38083,0.05787
4318.45209,0.05748
4316.52335,0.05719
4314.59461,0.05753
4312.66587,0.05810
4310.73712,0.05840
4308.80838,0.05865
4306.87964,0.05888
4304.95090,0.05865
4303.02216,0.05809
4301.09342,0.05775
4299.16468,0.05775
4297.23593,0.05784
4295.30719,0.05795
4293.37845,0.05802
4291.44971,0.05799
4289.52097,0.05806
4287.59223,0.05811
4285.66348,0.05783
4283.73474,0.05768
4281.80600,0.05823
4279.87726,0.05905
4277.94852,0.05940
4276.01978,0.05916
4274.09104,0.05873
4272.16229,0.05835
4270.23355,0.05798
4268.30481,0.05772
4266.37607,0.05783
4264.44733,0.05811
4262.51859,0.05797
4260.58985,0.05768
4258.66110,0.05803
4256.73236,0.05872
4254.80362,0.05904
4252.87488,0.05906
4250.94614,0.05902
4249.01740,0.05877
4247.08866,0.05825
4245.15991,0.05783
4243.23117,0.05763
4241.30243,0.05747
4239.37369,0.05733
4237.44495,0.05727
4235.51621,0.05744
4233.58747,0.05781
4231.65872,0.05805
4229.72998,0.05824
4227.80124,0.05863
4225.87250,0.05887
4223.94376,0.05854
4222.01502,0.05811
4220.08628,0.05807
4218.15753,0.05819
4216.22879,0.05827
4214.30005,0.05839
4212.37131,0.05852
4210.44257,0.05854
4208.51383,0.05837
4206.58509,0.05798
4204.65634,0.05764
4202.72760,0.05763
4200.79886,0.05795
4198.87012,0.05834
4196.94138,0.05835
4195.01264,0.05809
4193.08390,0.05821
4191.15515,0.05871
4189.22641,0.05895
4187.29767,0.05878
4185.36893,0.05854
4183.44019,0.05847
4181.51145,0.05858
4179.58271,0.05864
4177.65396,0.05851
4175.72522,0.05827
4173.79648,0.05805
4171.86774,0.05808
4169.93900,0.05818
4168.01026,0.05814
4166.08152,0.05831
4164.15277,0.05869
4162.22403,0.05881
4160.29529,0.05865
4158.36655,0.05857
4156.43781,0.05855
4154.50907,0.05846
4152.58033,0.05836
4150.65158,0.05827
4148.72284,0.05839
4146.79410,0.05868
4144.86536,0.05875
4142.93662,0.05869
4141.00788,0.05872
4139.07914,0.05867
4137.15039,0.05845
4135.22165,0.05832
4133.29291,0.05828
4131.36417,0.05804
4129.43543,0.05779
4127.50669,0.05799
4125.57795,0.05859
4123.64920,0.05913
4121.72046,0.05918
4119.79172,0.05877
4117.86298,0.05823
4115.93424,0.05802
4114.00550,0.05831
4112.07676,0.05861
4110.14801,0.05868
4108.21927,0.05873
4106.29053,0.05881
4104.36179,0.05866
4102.43305,0.05826
4100.50431,0.05802
4098.57557,0.05807
4096.64682,0.05824
4094.71808,0.05839
4092.78934,0.05839
4090.86060,0.05826
4088.93186,0.05813
4087.00312,0.05805
4085.07437,0.05818
4083.14563,0.05855
4081.21689,0.05888
4079.28815,0.05903
4077.35941,0.05912
4075.43067,0.05911
4073.50193,0.05892
4071.57318,0.05873
4069.64444,0.05870
4067.71570,0.05860
4065.78696,0.05828
4063.85822,0.05815
4061.92948,0.05843
4060.00074,0.05893
4058.07199,0.05929
4056.14325,0.05927
4054.21451,0.05888
4052.28577,0.05846
4050.35703,0.05830
4048.42829,0.05828
4046.49955,0.05825
4044.57080,0.05834
4042.64206,0.05860
4040.71332,0.05872
4038.78458,0.05860
4036.85584,0.05855
4034.92710,0.05869
4032.99836,0.05902
4031.06961,0.05935
4029.14087,0.05941
4027.21213,0.05927
4025.28339,0.05910
4023.35465,0.05891
4021.42591,0.05868
4019.49717,0.05844
4017.56842,0.05822
4015.63968,0.05811
4013.71094,0.05816
4011.78220,0.05815
4009.85346,0.05809
4007.92472,0.05817
4005.99598,0.05837
4004.06723,0.05855
4002.13849,0.05863
4000.20975,0.05869
3998.28101,0.05857
3996.35227,0.05829
3994.42353,0.05821
3992.49479,0.05839
3990.56604,0.05849
3988.63730,0.05832
3986.70856,0.05813
3984.77982,0.05813
3982.85108,0.05828
3980.92234,0.05853
3978.99360,0.05866
3977.06485,0.05861
3975.13611,0.05849
3973.20737,0.05827
3971.27863,0.05802
3969.34989,0.05805
3967.42115,0.05833
3965.49241,0.05852
3963.56366,0.05857
3961.63492,0.05865
3959.70618,0.05869
3957.77744,0.05851
3955.84870,0.05826
3953.91996,0.05825
3951.99122,0.05854
3950.06247,0.05872
3948.13373,0.05852
3946.20499,0.05816
3944.27625,0.05791
3942.34751,0.05793
3940.41877,0.05809
3938.49003,0.05814
3936.56128,0.05818
3934.63254,0.05838
3932.70380,0.05872
3930.77506,0.05892
3928.84632,0.05875
3926.91758,0.05843
3924.98884,0.05820
3923.06009,0.05816
3921.13135,0.05832
3919.20261,0.05852
3917.27387,0.05860
3915.34513,0.05862
3913.41639,0.05872
3911.48765,0.05884
3909.55890,0.05876
3907.63016,0.05869
3905.70142,0.05881
3903.77268,0.05872
3901.84394,0.05832
3899.91520,0.05814
3897.98646,0.05823
3896.05771,0.05835
3894.12897,0.05848
3892.20023,0.05864
3890.27149,0.05874
3888.34275,0.05866
3886.41401,0.05846
3884.48526,0.05837
3882.55652,0.05848
3880.62778,0.05864
3878.69904,0.05866
3876.77030,0.05849
3874.84156,0.05834
3872.91282,0.05831
3870.98407,0.05826
3869.05533,0.05825
3867.12659,0.05833
3865.19785,0.05847
3863.26911,0.05866
3861.34037,0.05862
3859.41163,0.05825
3857.48288,0.05812
3855.55414,0.05855
3853.62540,0.05895
3851.69666,0.05876
3849.76792,0.05829
3847.83918,0.05800
3845.91044,0.05799
3843.98169,0.05811
3842.05295,0.05839
3840.12421,0.05892
3838.19547,0.05924
3836.26673,0.05895
3834.33799,0.05836
3832.40925,0.05808
3830.48050,0.05829
3828.55176,0.05838
3826.62302,0.05823
3824.69428,0.05837
3822.76554,0.05866
3820.83680,0.05874
3818.90806,0.05882
3816.97931,0.05892
3815.05057,0.05879
3813.12183,0.05850
3811.19309,0.05841
3809.26435,0.05862
3807.33561,0.05874
3805.40687,0.05861
3803.47812,0.05846
3801.54938,0.05839
3799.62064,0.05851
3797.69190,0.05874
3795.76316,0.05891
3793.83442,0.05905
3791.90568,0.05905
3789.97693,0.05878
3788.04819,0.05846
3786.11945,0.05841
3784.19071,0.05862
3782.26197,0.05883
3780.33323,0.05878
3778.40449,0.05846
3776.47574,0.05810
3774.54700,0.05795
3772.61826,0.05803
3770.68952,0.05817
3768.76078,0.05830
3766.83204,0.05839
3764.90330,0.05821
3762.97455,0.05790
3761.04581,0.05795
3759.11707,0.05838
3757.18833,0.05849
3755.25959,0.05825
3753.33085,0.05829
3751.40211,0.05858
3749.47336,0.05864
3747.54462,0.05861
3745.61588,0.05859
3743.68714,0.05841
3741.75840,0.05828
3739.82966,0.05841
3737.90092,0.05863
3735.97217,0.05864
3734.04343,0.05846
3732.11469,0.05839
3730.18595,0.05839
3728.25721,0.05829
3726.32847,0.05823
3724.39973,0.05836
3722.47098,0.05846
3720.54224,0.05848
3718.61350,0.05853
3716.68476,0.05849
3714.75602,0.05828
3712.82728,0.05795
3710.89854,0.05774
3708.96979,0.05786
3707.04105,0.05806
3705.11231,0.05815
3703.18357,0.05817
3701.25483,0.05816
3699.32609,0.05807
3697.39735,0.05784
3695.46860,0.05770
3693.53986,0.05787
3691.61112,0.05812
3689.68238,0.05814
3687.75364,0.05784
3685.82490,0.05751
3683.89615,0.05760
3681.96741,0.05799
3680.03867,0.05819
3678.10993,0.05805
3676.18119,0.05785
3674.25245,0.05795
3672.32371,0.05803
3670.39496,0.05775
3668.46622,0.05749
3666.53748,0.05741
3664.60874,0.05746
3662.68000,0.05783
3660.75126,0.05841
3658.82252,0.05855
3656.89377,0.05807
3654.96503,0.05756
3653.03629,0.05723
3651.10755,0.05701
3649.17881,0.05718
3647.25007,0.05752
3645.32133,0.05762
3643.39258,0.05753
3641.46384,0.05737
3639.53510,0.05723
3637.60636,0.05719
3635.67762,0.05719
3633.74888,0.05717
3631.82014,0.05706
3629.89139,0.05689
3627.96265,0.05699
3626.03391,0.05729
3624.10517,0.05735
3622.17643,0.05729
3620.24769,0.05733
3618.31895,0.05726
3616.39020,0.05712
3614.46146,0.05705
3612.53272,0.05705
3610.60398,0.05714
3608.67524,0.05723
3606.74650,0.05712
3604.81776,0.05692
3602.88901,0.05702
3600.96027,0.05748
3599.03153,0.05782
3597.10279,0.05777
3595.17405,0.05745
3593.24531,0.05704
3591.31657,0.05664
3589.38782,0.05624
3587.45908,0.05611
3585.53034,0.05645
3583.60160,0.05696
3581.67286,0.05726
3579.74412,0.05735
3577.81538,0.05743
3575.88663,0.05750
3573.95789,0.05746
3572.02915,0.05725
3570.10041,0.05691
3568.17167,0.05677
3566.24293,0.05692
3564.31419,0.05693
3562.38544,0.05670
3560.45670,0.05645
3558.52796,0.05621
3556.59922,0.05601
3554.67048,0.05601
3552.74174,0.05611
3550.81300,0.05614
3548.88425,0.05602
3546.95551,0.05594
3545.02677,0.05620
3543.09803,0.05645
3541.16929,0.05618
3539.24055,0.05577
3537.31181,0.05567
3535.38306,0.05572
3533.45432,0.05578
3531.52558,0.05603
3529.59684,0.05624
3527.66810,0.05611
3525.73936,0.05592
3523.81062,0.05602
3521.88187,0.05607
3519.95313,0.05582
3518.02439,0.05569
3516.09565,0.05587
3514.16691,0.05615
3512.23817,0.05629
3510.30943,0.05623
3508.38068,0.05611
3506.45194,0.05591
3504.52320,0.05563
3502.59446,0.05552
3500.66572,0.05558
3498.73698,0.05553
3496.80824,0.05550
3494.87949,0.05578
3492.95075,0.05611
3491.02201,0.05613
3489.09327,0.05594
3487.16453,0.05563
3485.23579,0.05538
3483.30704,0.05546
3481.37830,0.05567
3479.44956,0.05568
3477.52082,0.05562
3475.59208,0.05562
3473.66334,0.05539
3471.73460,0.05505
3469.80585,0.05507
3467.87711,0.05518
3465.94837,0.05492
3464.01963,0.05467
3462.09089,0.05469
3460.16215,0.05463
3458.23341,0.05447
3456.30466,0.05452
3454.37592,0.05456
3452.44718,0.05439
3450.51844,0.05422
3448.58970,0.05417
3446.66096,0.05419
3444.73222,0.05413
3442.80347,0.05411
3440.87473,0.05416
3438.94599,0.05390
3437.01725,0.05358
3435.08851,0.05368
3433.15977,0.05392
3431.23103,0.05407
3429.30228,0.05414
3427.37354,0.05405
3425.44480,0.05395
3423.51606,0.05395
3421.58732,0.05385
3419.65858,0.05369
3417.72984,0.05357
3415.80109,0.05360
3413.87235,0.05374
3411.94361,0.05365
3410.01487,0.05335
3408.08613,0.05312
3406.15739,0.05283
3404.22865,0.05245
3402.29990,0.05237
3400.37116,0.05257
3398.44242,0.05268
3396.51368,0.05250
3394.58494,0.05206
3392.65620,0.05166
3390.72746,0.05158
3388.79871,0.05167
3386.86997,0.05170
3384.94123,0.05173
3383.01249,0.05170
3381.08375,0.05138
3379.15501,0.05079
3377.22627,0.05026
3375.29752,0.05011
3373.36878,0.05022
3371.44004,0.05011
3369.51130,0.04975
3367.58256,0.04957
3365.65382,0.04968
3363.72508,0.04983
3361.79633,0.04992
3359.86759,0.04998
3357.93885,0.04984
3356.01011,0.04950
3354.08137,0.04924
3352.15263,0.04878
3350.22389,0.04806
3348.29514,0.04758
3346.36640,0.04741
3344.43766,0.04725
3342.50892,0.04710
3340.58018,0.04703
3338.65144,0.04700
3336.72270,0.04687
3334.79395,0.04667
3332.86521,0.04646
3330.93647,0.04594
3329.00773,0.04513
3327.07899,0.04471
3325.15025,0.04497
3323.22151,0.04554
3321.29276,0.04605
3319.36402,0.04627
3317.43528,0.04653
3315.50654,0.04729
3313.57780,0.04844
3311.64906,0.04989
3309.72032,0.05178
3307.79157,0.05407
3305.86283,0.05645
3303.93409,0.05880
3302.00535,0.06134
3300.07661,0.06406
3298.14787,0.06632
3296.21913,0.06773
3294.29038,0.06863
3292.36164,0.06946
3290.43290,0.07015
3288.50416,0.07039
3286.57542,0.07014
3284.64668,0.06950
3282.71793,0.06872
3280.78919,0.06839
3278.86045,0.06874
3276.93171,0.06891
3275.00297,0.06834
3273.07423,0.06780
3271.14549,0.06776
3269.21674,0.06781
3267.28800,0.06791
3265.35926,0.06818
3263.43052,0.06835
3261.50178,0.06817
3259.57304,0.06774
3257.64430,0.06731
3255.71555,0.06705
3253.78681,0.06682
3251.85807,0.06619
3249.92933,0.06552
3248.00059,0.06542
3246.07185,0.06549
3244.14311,0.06535
3242.21436,0.06528
3240.28562,0.06540
3238.35688,0.06551
3236.42814,0.06540
3234.49940,0.06509
3232.57066,0.06467
3230.64192,0.06417
3228.71317,0.06370
3226.78443,0.06335
3224.85569,0.06330
3222.92695,0.06361
3220.99821,0.06394
3219.06947,0.06411
3217.14073,0.06404
3215.21198,0.06362
3213.28324,0.06324
3211.35450,0.06305
3209.42576,0.06301
3207.49702,0.06333
3205.56828,0.06373
3203.63954,0.06370
3201.71079,0.06326
3199.78205,0.06283
3197.85331,0.06284
3195.92457,0.06306
3193.99583,0.06306
3192.06709,0.06290
3190.13835,0.06267
3188.20960,0.06246
3186.28086,0.06277
3184.35212,0.06327
3182.42338,0.06305
3180.49464,0.06227
3178.56590,0.06175
3176.63716,0.06180
3174.70841,0.06197
3172.77967,0.06182
3170.85093,0.06138
3168.92219,0.06111
3166.99345,0.06131
3165.06471,0.06152
3163.13597,0.06142
3161.20722,0.06143
3159.27848,0.06149
3157.34974,0.06133
3155.42100,0.06118
3153.49226,0.06129
3151.56352,0.06157
3149.63478,0.06189
3147.70603,0.06205
3145.77729,0.06179
3143.84855,0.06131
3141.91981,0.06107
3139.99107,0.06124
3138.06233,0.06153
3136.13359,0.06152
3134.20484,0.06131
3132.27610,0.06126
3130.34736,0.06122
3128.41862,0.06086
3126.48988,0.06028
3124.56114,0.05981
3122.63240,0.05956
3120.70365,0.05947
3118.77491,0.05948
3116.84617,0.05966
3114.91743,0.06013
3112.98869,0.06043
3111.05995,0.06008
3109.13121,0.05964
3107.20246,0.05973
3105.27372,0.06006
3103.34498,0.06008
3101.41624,0.05974
3099.48750,0.05960
3097.55876,0.05990
3095.63002,0.06011
3093.70127,0.06007
3091.77253,0.06008
3089.84379,0.05999
3087.91505,0.05977
3085.98631,0.05965
3084.05757,0.05967
3082.12882,0.05972
3080.20008,0.05963
3078.27134,0.05941
3076.34260,0.05937
3074.41386,0.05958
3072.48512,0.05978
3070.55638,0.05986
3068.62763,0.06001
3066.69889,0.06030
3064.77015,0.06051
3062.84141,0.06039
3060.91267,0.06022
3058.98393,0.06030
3057.05519,0.06042
3055.12644,0.06049
3053.19770,0.06064
3051.26896,0.06070
3049.34022,0.06061
3047.41148,0.06057
3045.48274,0.06067
3043.55400,0.06080
3041.62525,0.06071
3039.69651,0.06040
3037.76777,0.06030
3035.83903,0.06054
3033.91029,0.06061
3031.98155,0.06032
3030.05281,0.06002
3028.12406,0.05992
3026.19532,0.06004
3024.26658,0.06013
3022.33784,0.05986
3020.40910,0.05940
3018.48036,0.05913
3016.55162,0.05911
3014.62287,0.05914
3012.69413,0.05912
3010.76539,0.05923
3008.83665,0.05944
3006.90791,0.05944
3004.97917,0.05920
3003.05043,0.05891
3001.12168,0.05869
2999.19294,0.05849
2997.26420,0.05815
2995.33546,0.05780
2993.40672,0.05761
2991.47798,0.05748
2989.54924,0.05738
2987.62049,0.05724
2985.69175,0.05695
2983.76301,0.05664
2981.83427,0.05643
2979.90553,0.05633
2977.97679,0.05634
2976.04805,0.05625
2974.11930,0.05585
2972.19056,0.05544
2970.26182,0.05540
2968.33308,0.05543
2966.40434,0.05521
2964.47560,0.05506
2962.54686,0.05525
2960.61811,0.05551
2958.68937,0.05551
2956.76063,0.05525
2954.83189,0.05489
2952.90315,0.05467
2950.97441,0.05461
2949.04567,0.05455
2947.11692,0.05452
2945.18818,0.05475
2943.25944,0.05525
2941.33070,0.05572
2939.40196,0.05622
2937.47322,0.05707
2935.54448,0.05809
2933.61573,0.05901
2931.68699,0.06013
2929.75825,0.06150
2927.82951,0.06282
2925.90077,0.06402
2923.97203,0.06511
2922.04329,0.06602
2920.11454,0.06658
2918.18580,0.06661
2916.25706,0.06628
2914.32832,0.06588
2912.39958,0.06545
2910.47084,0.06507
2908.54210,0.06488
2906.61335,0.06479
2904.68461,0.06467
2902.75587,0.06458
2900.82713,0.06455
2898.89839,0.06441
2896.96965,0.06420
2895.04091,0.06395
2893.11216,0.06363
2891.18342,0.06316
2889.25468,0.06253
2887.32594,0.06188
2885.39720,0.06132
2883.46846,0.06087
2881.53971,0.06062
2879.61097,0.06062
2877.68223,0.06090
2875.75349,0.06146
2873.82475,0.06206
2871.89601,0.06248
2869.96727,0.06288
2868.03852,0.06327
2866.10978,0.06349
2864.18104,0.06372
2862.25230,0.06435
2860.32356,0.06549
2858.39482,0.06682
2856.46608,0.06785
2854.53733,0.06856
2852.60859,0.06930
2850.67985,0.06986
2848.75111,0.06977
2846.82237,0.06922
2844.89363,0.06864
2842.96489,0.06801
2841.03614,0.06732
2839.10740,0.06681
2837.17866,0.06645
2835.24992,0.06609
2833.32118,0.06575
2831.39244,0.06539
2829.46370,0.06499
2827.53495,0.06461
2825.60621,0.06433
2823.67747,0.06430
2821.74873,0.06452
2819.81999,0.06461
2817.89125,0.06447
2815.96251,0.06441
2814.03376,0.06455
2812.10502,0.06454
2810.17628,0.06427
2808.24754,0.06400
2806.31880,0.06399
2804.39006,0.06408
2802.46132,0.06405
2800.53257,0.06395
2798.60383,0.06388
2796.67509,0.06384
2794.74635,0.06384
2792.81761,0.06377
2790.88887,0.06358
2788.96013,0.06344
2787.03138,0.06343
2785.10264,0.06350
2783.17390,0.06360
2781.24516,0.06367
2779.31642,0.06358
2777.38768,0.06333
2775.45894,0.06315
2773.53019,0.06304
2771.60145,0.06296
2769.67271,0.06309
2767.74397,0.06325
2765.81523,0.06315
2763.88649,0.06293
2761.95775,0.06290
2760.02900,0.06307
2758.10026,0.06320
2756.17152,0.06314
2754.24278,0.06298
2752.31404,0.06287
2750.38530,0.06290
2748.45656,0.06302
2746.52781,0.06311
2744.59907,0.06299
2742.67033,0.06286
2740.74159,0.06290
2738.81285,0.06292
2736.88411,0.06279
2734.95537,0.06272
2733.02662,0.06281
2731.09788,0.06288
2729.16914,0.06290
2727.24040,0.06291
2725.31166,0.06287
2723.38292,0.06277
2721.45418,0.06253
2719.52543,0.06225
2717.59669,0.06217
2715.66795,0.06236
2713.73921,0.06265
2711.81047,0.06275
2709.88173,0.06262
2707.95299,0.06253
2706.02424,0.06258
2704.09550,0.06266
2702.16676,0.06266
2700.23802,0.06257
2698.30928,0.06253
2696.38054,0.06255
2694.45180,0.06248
2692.52305,0.06238
2690.59431,0.06238
2688.66557,0.06236
2686.73683,0.06223
2684.80809,0.06215
2682.87935,0.06227
2680.95060,0.06234
2679.02186,0.06215
2677.09312,0.06195
2675.16438,0.06196
2673.23564,0.06209
2671.30690,0.06217
2669.37816,0.06210
2667.44941,0.06204
2665.52067,0.06216
2663.59193,0.06228
2661.66319,0.06230
2659.73445,0.06224
2657.80571,0.06214
2655.87697,0.06208
2653.94822,0.06207
2652.01948,0.06209
2650.09074,0.06216
2648.16200,0.06226
2646.23326,0.06232
2644.30452,0.06227
2642.37578,0.06215
2640.44703,0.06210
2638.51829,0.06218
2636.58955,0.06220
2634.66081,0.06202
2632.73207,0.06183
2630.80333,0.06184
2628.87459,0.06202
2626.94584,0.06212
2625.01710,0.06212
2623.08836,0.06207
2621.15962,0.06197
2619.23088,0.06185
2617.30214,0.06173
2615.37340,0.06160
2613.44465,0.06150
2611.51591,0.06150
2609.58717,0.06157
2607.65843,0.06167
2605.72969,0.06178
2603.80095,0.06175
2601.87221,0.06158
2599.94346,0.06150
2598.01472,0.06159
2596.08598,0.06172
2594.15724,0.06184
2592.22850,0.06187
2590.29976,0.06172
2588.37102,0.06159
2586.44227,0.06167
2584.51353,0.06188
2582.58479,0.06199
2580.65605,0.06193
2578.72731,0.06188
2576.79857,0.06194
2574.86983,0.06197
2572.94108,0.06194
2571.01234,0.06181
2569.08360,0.06151
2567.15486,0.06127
2565.22612,0.06135
2563.29738,0.06156
2561.36864,0.06158
2559.43989,0.06147
2557.51115,0.06148
2555.58241,0.06164
2553.65367,0.06173
2551.72493,0.06166
2549.79619,0.06144
2547.86745,0.06122
2545.93870,0.06115
2544.00996,0.06126
2542.08122,0.06142
2540.15248,0.06155
2538.22374,0.06163
2536.29500,0.06153
2534.36626,0.06127
2532.43751,0.06109
2530.50877,0.06108
2528.58003,0.06123
2526.65129,0.06144
2524.72255,0.06158
2522.79381,0.06157
2520.86507,0.06150
2518.93632,0.06144
2517.00758,0.06147
2515.07884,0.06152
2513.15010,0.06148
2511.22136,0.06146
2509.29262,0.06157
2507.36388,0.06167
2505.43513,0.06156
2503.50639,0.06139
2501.57765,0.06122
2499.64891,0.06105
2497.72017,0.06099
2495.79143,0.06107
2493.86269,0.06119
2491.93394,0.06122
2490.00520,0.06121
2488.07646,0.06122
2486.14772,0.06121
2484.21898,0.06115
2482.29024,0.06101
2480.36149,0.06086
2478.43275,0.06080
2476.50401,0.06088
2474.57527,0.06099
2472.64653,0.06104
2470.71779,0.06106
2468.78905,0.06110
2466.86030,0.06112
2464.93156,0.06103
2463.00282,0.06089
2461.07408,0.06079
2459.14534,0.06075
2457.21660,0.06074
2455.28786,0.06081
2453.35911,0.06101
2451.43037,0.06119
2449.50163,0.06115
2447.57289,0.06105
2445.64415,0.06112
2443.71541,0.06129
2441.78667,0.06131
2439.85792,0.06112
2437.92918,0.06090
2436.00044,0.06082
2434.07170,0.06091
2432.14296,0.06099
2430.21422,0.06097
2428.28548,0.06102
2426.35673,0.06113
2424.42799,0.06106
2422.49925,0.06082
2420.57051,0.06075
2418.64177,0.06092
2416.71303,0.06100
2414.78429,0.06092
2412.85554,0.06093
2410.92680,0.06104
2408.99806,0.06104
2407.06932,0.06087
2405.14058,0.06066
2403.21184,0.06055
2401.28310,0.06050
2399.35435,0.06045
2397.42561,0.06048
2395.49687,0.06068
2393.56813,0.06096
2391.63939,0.06106
2389.71065,0.06097
2387.78191,0.06082
2385.85316,0.06064
2383.92442,0.06055
2381.99568,0.06069
2380.06694,0.06092
2378.13820,0.06098
2376.20946,0.06085
2374.28072,0.06069
2372.35197,0.06067
2370.42323,0.06071
2368.49449,0.06062
2366.56575,0.06048
2364.63701,0.06033
2362.70827,0.06025
2360.77953,0.06035
2358.85078,0.06058
2356.92204,0.06084
2354.99330,0.06092
2353.06456,0.06070
2351.13582,0.06038
2349.20708,0.06027
2347.27834,0.06041
2345.34959,0.06057
2343.42085,0.06046
2341.49211,0.06030
2339.56337,0.06042
2337.63463,0.06060
2335.70589,0.06058
2333.77715,0.06059
2331.84840,0.06065
2329.91966,0.06045
2327.99092,0.06005
2326.06218,0.06000
2324.13344,0.06038
2322.20470,0.06067
2320.27596,0.06068
2318.34721,0.06063
2316.41847,0.06057
2314.48973,0.06047
2312.56099,0.06051
2310.63225,0.06069
2308.70351,0.06070
2306.77477,0.06051
2304.84602,0.06032
2302.91728,0.06020
2300.98854,0.06015
2299.05980,0.06019
2297.13106,0.06030
2295.20232,0.06044
2293.27357,0.06055
2291.34483,0.06057
2289.41609,0.06056
2287.48735,0.06054
2285.55861,0.06036
2283.62987,0.06021
2281.70113,0.06023
2279.77238,0.06021
2277.84364,0.06016
2275.91490,0.06023
2273.98616,0.06031
2272.05742,0.06030
2270.12868,0.06027
2268.19994,0.06033
2266.27119,0.06042
2264.34245,0.06047
2262.41371,0.06045
2260.48497,0.06032
2258.55623,0.06020
2256.62749,0.06018
2254.69875,0.06018
2252.77000,0.06014
2250.84126,0.06005
2248.91252,0.05991
2246.98378,0.05974
2245.05504,0.05973
2243.12630,0.05995
2241.19756,0.06019
2239.26881,0.06020
2237.34007,0.06007
2235.41133,0.06002
2233.48259,0.06006
2231.55385,0.06005
2229.62511,0.05997
2227.69637,0.05988
2225.76762,0.05990
2223.83888,0.06003
2221.91014,0.06005
2219.98140,0.05993
2218.05266,0.05984
2216.12392,0.05983
2214.19518,0.05981
2212.26643,0.05971
2210.33769,0.05970
2208.40895,0.05982
2206.48021,0.05992
2204.55147,0.05987
2202.62273,0.05972
2200.69399,0.05961
2198.76524,0.05960
2196.83650,0.05964
2194.90776,0.05969
2192.97902,0.05971
2191.05028,0.05964
2189.12154,0.05947
2187.19280,0.05932
2185.26405,0.05937
2183.33531,0.05961
2181.40657,0.05981
2179.47783,0.05978
2177.54909,0.05961
2175.62035,0.05948
2173.69161,0.05946
2171.76286,0.05947
2169.83412,0.05953
2167.90538,0.05962
2165.97664,0.05961
2164.04790,0.05956
2162.11916,0.05961
2160.19042,0.05964
2158.26167,0.05949
2156.33293,0.05931
2154.40419,0.05933
2152.47545,0.05941
2150.54671,0.05942
2148.61797,0.05940
2146.68923,0.05936
2144.76048,0.05930
2142.83174,0.05933
2140.90300,0.05947
2138.97426,0.05959
2137.04552,0.05964
2135.11678,0.05967
2133.18804,0.05962
2131.25929,0.05957
2129.33055,0.05957
2127.40181,0.05955
2125.47307,0.05943
2123.54433,0.05923
2121.61559,0.05912
2119.68685,0.05912
2117.75810,0.05907
2115.82936,0.05895
2113.90062,0.05894
2111.97188,0.05899
2110.04314,0.05894
2108.11440,0.05890
2106.18566,0.05896
2104.25691,0.05901
2102.32817,0.05903
2100.39943,0.05911
2098.47069,0.05916
2096.54195,0.05913
2094.61321,0.05903
2092.68446,0.05892
2090.75572,0.05895
2088.82698,0.05902
2086.89824,0.05886
2084.96950,0.05865
2083.04076,0.05868
2081.11202,0.05882
2079.18327,0.05888
2077.25453,0.05882
2075.32579,0.05865
2073.39705,0.05857
2071.46831,0.05865
2069.53957,0.05876
2067.61083,0.05884
2065.68208,0.05884
2063.75334,0.05874
2061.82460,0.05866
2059.89586,0.05874
2057.96712,0.05885
2056.03838,0.05881
2054.10964,0.05867
2052.18089,0.05857
2050.25215,0.05855
2048.32341,0.05863
2046.39467,0.05878
2044.46593,0.05877
2042.53719,0.05850
2040.60845,0.05826
2038.67970,0.05824
2036.75096,0.05826
2034.82222,0.05820
2032.89348,0.05821
2030.96474,0.05837
2029.03600,0.05845
2027.10726,0.05833
2025.17851,0.05816
2023.24977,0.05806
2021.32103,0.05807
2019.39229,0.05810
2017.46355,0.05804
2015.53481,0.05797
2013.60607,0.05802
2011.67732,0.05815
2009.74858,0.05831
2007.81984,0.05847
2005.89110,0.05859
2003.96236,0.05860
2002.03362,0.05855
2000.10488,0.05839
1998.17613,0.05808
1996.24739,0.05776
1994.31865,0.05761
1992.38991,0.05760
1990.46117,0.05763
1988.53243,0.05749
1986.60369,0.05725
1984.67494,0.05720
1982.74620,0.05728
1980.81746,0.05732
1978.88872,0.05742
1976.95998,0.05758
1975.03124,0.05767
1973.10250,0.05771
1971.17375,0.05769
1969.24501,0.05762
1967.31627,0.05758
1965.38753,0.05758
1963.45879,0.05757
1961.53005,0.05747
1959.60131,0.05739
1957.67256,0.05743
1955.74382,0.05743
1953.81508,0.05730
1951.88634,0.05719
1949.95760,0.05723
1948.02886,0.05730
1946.10012,0.05729
1944.17137,0.05718
1942.24263,0.05705
1940.31389,0.05697
1938.38515,0.05694
1936.45641,0.05688
1934.52767,0.05680
1932.59893,0.05669
1930.67018,0.05662
1928.74144,0.05660
1926.81270,0.05659
1924.88396,0.05657
1922.95522,0.05661
1921.02648,0.05663
1919.09774,0.05655
1917.16899,0.05645
1915.24025,0.05642
1913.31151,0.05641
1911.38277,0.05632
1909.45403,0.05618
1907.52529,0.05619
1905.59655,0.05629
1903.66780,0.05630
1901.73906,0.05625
1899.81032,0.05618
1897.88158,0.05606
1895.95284,0.05601
1894.02410,0.05604
1892.09535,0.05595
1890.16661,0.05581
1888.23787,0.05579
1886.30913,0.05574
1884.38039,0.05563
1882.45165,0.05564
1880.52291,0.05576
1878.59416,0.05581
1876.66542,0.05570
1874.73668,0.05554
1872.80794,0.05544
1870.87920,0.05538
1868.95046,0.05532
1867.02172,0.05536
1865.09297,0.05546
1863.16423,0.05546
1861.23549,0.05540
1859.30675,0.05538
1857.37801,0.05530
1855.44927,0.05508
1853.52053,0.05483
1851.59178,0.05477
1849.66304,0.05484
1847.73430,0.05481
1845.80556,0.05470
1843.87682,0.05458
1841.94808,0.05436
1840.01934,0.05408
1838.09059,0.05395
1836.16185,0.05397
1834.23311,0.05403
1832.30437,0.05411
1830.37563,0.05416
1828.44689,0.05410
1826.51815,0.05409
1824.58940,0.05414
1822.66066,0.05407
1820.73192,0.05383
1818.80318,0.05360
1816.87444,0.05346
1814.94570,0.05329
1813.01696,0.05307
1811.08821,0.05295
1809.15947,0.05294
1807.23073,0.05282
1805.30199,0.05265
1803.37325,0.05252
1801.44451,0.05237
1799.51577,0.05219
1797.58702,0.05214
1795.65828,0.05210
1793.72954,0.05199
1791.80080,0.05190
1789.87206,0.05178
1787.94332,0.05159
1786.01458,0.05135
1784.08583,0.05106
1782.15709,0.05084
1780.22835,0.05080
1778.29961,0.05080
1776.37087,0.05066
1774.44213,0.05045
1772.51339,0.05019
1770.58464,0.04988
1768.65590,0.04972
1766.72716,0.04970
1764.79842,0.04963
1762.86968,0.04942
1760.94094,0.04920
1759.01220,0.04924
1757.08345,0.04949
1755.15471,0.04960
1753.22597,0.04959
1751.29723,0.04968
1749.36849,0.04984
1747.43975,0.04990
1745.51101,0.04985
1743.58226,0.04986
1741.65352,0.04991
1739.72478,0.04974
1737.79604,0.04937
1735.86730,0.04892
1733.93856,0.04831
1732.00982,0.04772
1730.08107,0.04739
1728.15233,0.04709
1726.22359,0.04671
1724.29485,0.04636
1722.36611,0.04607
1720.43737,0.04571
1718.50863,0.04528
1716.57988,0.04486
1714.65114,0.04445
1712.72240,0.04406
1710.79366,0.04374
1708.86492,0.04346
1706.93618,0.04309
1705.00744,0.04261
1703.07869,0.04216
1701.14995,0.04161
1699.22121,0.04084
1697.29247,0.04024
1695.36373,0.03966
1693.43499,0.03896
1691.50624,0.03831
1689.57750,0.03773
1687.64876,0.03715
1685.72002,0.03652
1683.79128,0.03591
1681.86254,0.03539
1679.93380,0.03492
1678.00505,0.03439
1676.07631,0.03382
1674.14757,0.03349
1672.21883,0.03343
1670.29009,0.03341
1668.36135,0.03344
1666.43261,0.03386
1664.50386,0.03499
1662.57512,0.03676
1660.64638,0.03876
1658.71764,0.04123
1656.78890,0.04454
1654.86016,0.04916
1652.93142,0.05615
1651.00267,0.06386
1649.07393,0.07132
1647.14519,0.08088
1645.21645,0.09248
1643.28771,0.10356
1641.35897,0.11383
1639.43023,0.12327
1637.50148,0.13146
1635.57274,0.13802
1633.64400,0.14115
1631.71526,0.13986
1629.78652,0.13457
1627.85778,0.12658
1625.92904,0.11850
1624.00029,0.11169
1622.07155,0.10591
1620.14281,0.10111
1618.21407,0.09691
1616.28533,0.09294
1614.35659,0.08959
1612.42785,0.08693
1610.49910,0.08463
1608.57036,0.08256
1606.64162,0.08074
1604.71288,0.07914
1602.78414,0.07755
1600.85540,0.07577
1598.92666,0.07380
1596.99791,0.07188
1595.06917,0.07019
1593.14043,0.06865
1591.21169,0.06704
1589.28295,0.06541
1587.35421,0.06385
1585.42547,0.06223
1583.49672,0.06056
1581.56798,0.05892
1579.63924,0.05739
1577.71050,0.05589
1575.78176,0.05429
1573.85302,0.05275
1571.92428,0.05122
1569.99553,0.04965
1568.06679,0.04850
1566.13805,0.04790
1564.20931,0.04755
1562.28057,0.04727
1560.35183,0.04696
1558.42309,0.04703
1556.49434,0.04793
1554.56560,0.04931
1552.63686,0.05128
1550.70812,0.05431
1548.77938,0.05859
1546.85064,0.06393
1544.92190,0.07027
1542.99315,0.07735
1541.06441,0.08488
1539.13567,0.09221
1537.20693,0.09754
1535.27819,0.10069
1533.34945,0.10218
1531.42071,0.10212
1529.49196,0.10086
1527.56322,0.09888
1525.63448,0.09667
1523.70574,0.09456
1521.77700,0.09228
1519.84826,0.08995
1517.91952,0.08805
1515.99077,0.08650
1514.06203,0.08510
1512.13329,0.08369
1510.20455,0.08224
1508.27581,0.08098
1506.34707,0.07988
1504.41833,0.07888
1502.48958,0.07805
1500.56084,0.07732
1498.63210,0.07652
1496.70336,0.07559
1494.77462,0.07453
1492.84588,0.07347
1490.91713,0.07249
1488.98839,0.07150
1487.05965,0.07055
1485.13091,0.06973
1483.20217,0.06892
1481.27343,0.06818
1479.34469,0.06813
1477.41594,0.06923
1475.48720,0.07119
1473.55846,0.07311
1471.62972,0.07392
1469.70098,0.07353
1467.77224,0.07320
1465.84350,0.07385
1463.91475,0.07514
1461.98601,0.07599
1460.05727,0.07604
1458.12853,0.07540
1456.19979,0.07440
1454.27105,0.07362
1452.34231,0.07300
1450.41356,0.07239
1448.48482,0.07180
1446.55608,0.07137
1444.62734,0.07117
1442.69860,0.07102
1440.76986,0.07086
1438.84112,0.07079
1436.91237,0.07066
1434.98363,0.07051
1433.05489,0.07056
1431.12615,0.07058
1429.19741,0.07033
1427.26867,0.06997
1425.33993,0.06984
1423.41118,0.07016
1421.48244,0.07108
1419.55370,0.07283
1417.62496,0.07515
1415.69622,0.07702
1413.76748,0.07767
1411.83874,0.07715
1409.90999,0.07610
1407.98125,0.07494
1406.05251,0.07385
1404.12377,0.07290
1402.19503,0.07204
1400.26629,0.07125
1398.33755,0.07053
1396.40880,0.06982
1394.48006,0.06916
1392.55132,0.06878
1390.62258,0.06864
1388.69384,0.06848
1386.76510,0.06829
1384.83636,0.06815
1382.90761,0.06806
1380.97887,0.06802
1379.05013,0.06805
1377.12139,0.06826
1375.19265,0.06874
1373.26391,0.06947
1371.33517,0.07031
1369.40642,0.07112
1367.47768,0.07176
1365.54894,0.07215
1363.62020,0.07226
1361.69146,0.07215
1359.76272,0.07198
1357.83398,0.07181
1355.90523,0.07163
1353.97649,0.07152
1352.04775,0.07149
1350.11901,0.07141
1348.19027,0.07128
1346.26153,0.07110
1344.33279,0.07095
1342.40404,0.07082
1340.47530,0.07059
1338.54656,0.07027
1336.61782,0.06991
1334.68908,0.06966
1332.76034,0.06955
1330.83160,0.06946
1328.90285,0.06933
1326.97411,0.06917
1325.04537,0.06895
1323.11663,0.06868
1321.18789,0.06836
1319.25915,0.06801
1317.33041,0.06772
1315.40166,0.06750
1313.47292,0.06729
1311.54418,0.06712
1309.61544,0.06693
1307.68670,0.06670
1305.75796,0.06650
1303.82922,0.06632
1301.90047,0.06602
1299.97173,0.06573
1298.04299,0.06561
1296.11425,0.06552
1294.18551,0.06525
1292.25677,0.06487
1290.32802,0.06447
1288.39928,0.06408
1286.47054,0.06371
1284.54180,0.06344
1282.61306,0.06340
1280.68432,0.06383
1278.75558,0.06492
1276.82683,0.06652
1274.89809,0.06811
1272.96935,0.06942
1271.04061,0.07054
1269.11187,0.07153
1267.18313,0.07235
1265.25439,0.07292
1263.32564,0.07323
1261.39690,0.07345
1259.46816,0.07347
1257.53942,0.07324
1255.61068,0.07307
1253.68194,0.07310
1251.75320,0.07308
1249.82445,0.07297
1247.89571,0.07292
1245.96697,0.07280
1244.03823,0.07243
1242.10949,0.07206
1240.18075,0.07192
1238.25201,0.07197
1236.32326,0.07210
1234.39452,0.07211
1232.46578,0.07186
1230.53704,0.07148
1228.60830,0.07114
1226.67956,0.07081
1224.75082,0.07076
1222.82207,0.07103
1220.89333,0.07107
1218.96459,0.07058
1217.03585,0.06997
1215.10711,0.06952
1213.17837,0.06901
1211.24963,0.06835
1209.32088,0.06771
1207.39214,0.06708
1205.46340,0.06666
1203.53466,0.06719
1201.60592,0.06913
1199.67718,0.07178
1197.74844,0.07398
1195.81969,0.07523
1193.89095,0.07558
1191.96221,0.07522
1190.03347,0.07448
1188.10473,0.07373
1186.17599,0.07326
1184.24725,0.07322
1182.31850,0.07356
1180.38976,0.07403
1178.46102,0.07438
1176.53228,0.07463
1174.60354,0.07478
1172.67480,0.07466
1170.74606,0.07438
1168.81731,0.07419
1166.88857,0.07415
1164.95983,0.07411
1163.03109,0.07385
1161.10235,0.07338
1159.17361,0.07283
1157.24487,0.07235
1155.31612,0.07205
1153.38738,0.07191
1151.45864,0.07177
1149.52990,0.07164
1147.60116,0.07159
1145.67242,0.07160
1143.74368,0.07170
1141.81493,0.07203
1139.88619,0.07243
1137.95745,0.07264
1136.02871,0.07262
1134.09997,0.07250
1132.17123,0.07235
1130.24249,0.07202
1128.31374,0.07172
1126.38500,0.07173
1124.45626,0.07175
1122.52752,0.07174
1120.59878,0.07169
1118.67004,0.07142
1116.74130,0.07113
1114.81255,0.07110
1112.88381,0.07112
1110.95507,0.07092
1109.02633,0.07053
1107.09759,0.07027
1105.16885,0.07028
1103.24011,0.07022
1101.31136,0.06969
1099.38262,0.06917
1097.45388,0.06927
1095.52514,0.06962
1093.59640,0.06963
1091.66766,0.06939
1089.73891,0.06927
1087.81017,0.06930
1085.88143,0.06930
1083.95269,0.06931
1082.02395,0.06938
1080.09521,0.06938
1078.16647,0.06930
1076.23772,0.06911
1074.30898,0.06875
1072.38024,0.06836
1070.45150,0.06824
1068.52276,0.06845
1066.59402,0.06868
1064.66528,0.06875
1062.73653,0.06877
1060.80779,0.06890
1058.87905,0.06889
1056.95031,0.06858
1055.02157,0.06844
1053.09283,0.06861
1051.16409,0.06849
1049.23534,0.06810
1047.30660,0.06810
1045.37786,0.06855
1043.44912,0.06884
1041.52038,0.06876
1039.59164,0.06860
1037.66290,0.06847
1035.73415,0.06839
1033.80541,0.06859
1031.87667,0.06894
1029.94793,0.06899
1028.01919,0.06887
1026.09045,0.06887
1024.16171,0.06887
1022.23296,0.06875
1020.30422,0.06858
1018.37548,0.06838
1016.44674,0.06816
1014.51800,0.06799
1012.58926,0.06785
1010.66052,0.06786
1008.73177,0.06816
1006.80303,0.06843
1004.87429,0.06840
1002.94555,0.06821
1001.01681,0.06811
999.08807,0.06808
997.15933,0.06788
995.23058,0.06764
993.30184,0.06758
991.37310,0.06745
989.44436,0.06715
987.51562,0.06705
985.58688,0.06706
983.65814,0.06693
981.72939,0.06685
979.80065,0.06673
977.87191,0.06643
975.94317,0.06626
974.01443,0.06633
972.08569,0.06655
970.15695,0.06671
968.22820,0.06656
966.29946,0.06635
964.37072,0.06625
962.44198,0.06602
960.51324,0.06578
958.58450,0.06577
956.65576,0.06573
954.72701,0.06547
952.79827,0.06524
950.86953,0.06522
948.94079,0.06525
947.01205,0.06502
945.08331,0.06459
943.15457,0.06417
941.22582,0.06407
939.29708,0.06453
937.36834,0.06538
935.43960,0.06633
933.51086,0.06719
931.58212,0.06785
929.65338,0.06825
927.72463,0.06813
925.79589,0.06749
923.86715,0.06688
921.93841,0.06662
920.00967,0.06672
918.08093,0.06697
916.15219,0.06693
914.22344,0.06660
912.29470,0.06638
910.36596,0.06638
908.43722,0.06640
906.50848,0.06624
904.57974,0.06608
902.65100,0.06612
900.72225,0.06618
898.79351,0.06611
896.86477,0.06608
894.93603,0.06609
893.00729,0.06602
891.07855,0.06577
889.14980,0.06536
887.22106,0.06510
885.29232,0.06520
883.36358,0.06540
881.43484,0.06534
879.50610,0.06514
877.57736,0.06516
875.64861,0.06511
873.71987,0.06477
871.79113,0.06462
869.86239,0.06471
867.93365,0.06467
866.00491,0.06457
864.07617,0.06469
862.14742,0.06477
860.21868,0.06449
858.28994,0.06413
856.36120,0.06403
854.43246,0.06391
852.50372,0.06356
850.57498,0.06339
848.64623,0.06366
846.71749,0.06399
844.78875,0.06415
842.86001,0.06420
840.93127,0.06405
839.00253,0.06354
837.07379,0.06326
835.14504,0.06334
833.21630,0.06306
831.28756,0.06251
829.35882,0.06232
827.43008,0.06242
825.50134,0.06260
823.57260,0.06280
821.64385,0.06289
819.71511,0.06277
817.78637,0.06251
815.85763,0.06237
813.92889,0.06228
812.00015,0.06208
810.07141,0.06200
808.14266,0.06211
806.21392,0.06206
804.28518,0.06170
802.35644,0.06129
800.42770,0.06115
798.49896,0.06144
796.57022,0.06174
794.64147,0.06155
792.71273,0.06105
790.78399,0.06080
788.85525,0.06063
786.92651,0.06008
784.99777,0.05946
783.06903,0.05915
781.14028,0.05914
779.21154,0.05915
777.28280,0.05891
775.35406,0.05871
773.42532,0.05872
771.49658,0.05869
769.56784,0.05864
767.63909,0.05868
765.71035,0.05840
763.78161,0.05776
761.85287,0.05731
759.92413,0.05711
757.99539,0.05693
756.06665,0.05674
754.13790,0.05664
752.20916,0.05675
750.28042,0.05680
748.35168,0.05642
746.42294,0.05569
744.49420,0.05493
742.56546,0.05453
740.63671,0.05440
738.70797,0.05400
736.77923,0.05344
734.85049,0.05326
732.92175,0.05362
730.99301,0.05430
729.06427,0.05502
727.13552,0.05562
725.20678,0.05596
723.27804,0.05594
721.34930,0.05577
719.42056,0.05590
717.49182,0.05616
715.56308,0.05600
713.63433,0.05561
711.70559,0.05534
709.77685,0.05513
707.84811,0.05485
705.91937,0.05458
703.99063,0.05455
702.06189,0.05474
700.13314,0.05489
698.20440,0.05502
696.27566,0.05544
694.34692,0.05631
692.41818,0.05760
690.48944,0.05923
688.56069,0.06102
686.63195,0.06303
684.70321,0.06515
682.77447,0.06653
680.84573,0.06691
678.91699,0.06703
676.98825,0.06736
675.05950,0.06791
673.13076,0.06850
671.20202,0.06889
669.27328,0.06883
667.34454,0.06831
665.41580,0.06799
663.48706,0.06820
661.55831,0.06831
659.62957,0.06841
657.70083,0.06902
655.77209,0.06936
653.84335,0.06883
651.91461,0.06835
649.98587,0.06845
648.05712,0.06833
646.12838,0.06765
644.19964,0.06690
642.27090,0.06659
640.34216,0.06678
638.41342,0.06665
636.48468,0.06592
634.55593,0.06543
632.62719,0.06515
630.69845,0.06481
628.76971,0.06468
626.84097,0.06455
624.91223,0.06421
622.98349,0.06387
621.05474,0.06355
619.12600,0.06280
617.19726,0.06187
615.26852,0.06171
613.33978,0.06251
611.41104,0.06337
609.48230,0.06312
607.55355,0.06164
605.62481,0.06051
603.69607,0.06064
601.76733,0.06113
599.83859,0.06133
