7496.62742,0.70325
7494.69878,0.70337
7492.77014,0.70369
7490.84150,0.70328
7488.91285,0.70009
7486.98421,0.69660
7485.05557,0.69783
7483.12693,0.70304
7481.19829,0.70680
7479.26965,0.70613
7477.34101,0.70201
7475.41237,0.69669
7473.48373,0.69205
7471.55509,0.68912
7469.62644,0.68904
7467.69780,0.69449
7465.76916,0.70499
7463.84052,0.71256
7461.91188,0.71014
7459.98324,0.70191
7458.05460,0.69715
7456.12596,0.69868
7454.19732,0.70272
7452.26868,0.70610
7450.34003,0.70914
7448.41139,0.70877
7446.48275,0.70094
7444.55411,0.69438
7442.62547,0.69799
7440.69683,0.70380
7438.76819,0.70226
7436.83955,0.69587
7434.91091,0.69076
7432.98227,0.69011
7431.05363,0.69447
7429.12498,0.69927
7427.19634,0.69998
7425.26770,0.69896
7423.33906,0.69700
7421.41042,0.69400
7419.48178,0.69518
7417.55314,0.70031
7415.62450,0.70390
7413.69586,0.70488
7411.76722,0.70474
7409.83857,0.70501
7407.90993,0.70492
7405.98129,0.70341
7404.05265,0.70277
7402.12401,0.70329
7400.19537,0.70423
7398.26673,0.70598
7396.33809,0.70376
7394.40945,0.69652
7392.48081,0.69263
7390.55217,0.69363
7388.62352,0.69448
7386.69488,0.69581
7384.76624,0.69941
7382.83760,0.70093
7380.90896,0.69655
7378.98032,0.69188
7377.05168,0.69195
7375.12304,0.69382
7373.19440,0.69637
7371.26576,0.69804
7369.33711,0.69457
7367.40847,0.68960
7365.47983,0.68831
7363.55119,0.68624
7361.62255,0.68019
7359.69391,0.67544
7357.76527,0.67522
7355.83663,0.67856
7353.90799,0.68393
7351.97935,0.68680
7350.05070,0.68537
7348.12206,0.68508
7346.19342,0.68781
7344.26478,0.68769
7342.33614,0.68259
7340.40750,0.67769
7338.47886,0.67662
7336.55022,0.67838
7334.62158,0.67988
7332.69294,0.67932
7330.76430,0.67694
7328.83565,0.67201
7326.90701,0.66716
7324.97837,0.66590
7323.04973,0.66753
7321.12109,0.67293
7319.19245,0.67730
7317.26381,0.67248
7315.33517,0.66423
7313.40653,0.66121
7311.47789,0.66046
7309.54924,0.65805
7307.62060,0.65734
7305.69196,0.66143
7303.76332,0.66592
7301.83468,0.66284
7299.90604,0.65553
7297.97740,0.65541
7296.04876,0.65985
7294.12012,0.65804
7292.19148,0.64969
7290.26284,0.64224
7288.33419,0.64111
7286.40555,0.64311
7284.47691,0.64291
7282.54827,0.64248
7280.61963,0.64206
7278.69099,0.63994
7276.76235,0.63995
7274.83371,0.64026
7272.90507,0.63520
7270.97643,0.62939
7269.04778,0.62640
7267.11914,0.62275
7265.19050,0.62069
7263.26186,0.62404
7261.33322,0.62766
7259.40458,0.62681
7257.47594,0.62546
7255.54730,0.62465
7253.61866,0.61836
7251.69002,0.60795
7249.76137,0.60205
7247.83273,0.60302
7245.90409,0.60652
7243.97545,0.60718
7242.04681,0.60410
7240.11817,0.60248
7238.18953,0.60401
7236.26089,0.60447
7234.33225,0.60041
7232.40361,0.59474
7230.47497,0.59472
7228.54632,0.59832
7226.61768,0.59864
7224.68904,0.59660
7222.76040,0.59392
7220.83176,0.59075
7218.90312,0.59043
7216.97448,0.59376
7215.04584,0.59524
7213.11720,0.59221
7211.18856,0.58862
7209.25991,0.58653
7207.33127,0.58605
7205.40263,0.58757
7203.47399,0.58870
7201.54535,0.58967
7199.61671,0.59227
7197.68807,0.59329
7195.75943,0.59152
7193.83079,0.59027
7191.90215,0.59227
7189.97351,0.59604
7188.04486,0.59544
7186.11622,0.59006
7184.18758,0.58741
7182.25894,0.59132
7180.33030,0.59809
7178.40166,0.60223
7176.47302,0.60267
7174.54438,0.60035
7172.61574,0.59700
7170.68710,0.59536
7168.75845,0.59451
7166.82981,0.59280
7164.90117,0.59119
7162.97253,0.59181
7161.04389,0.59603
7159.11525,0.60079
7157.18661,0.60168
7155.25797,0.59921
7153.32933,0.59705
7151.40069,0.59678
7149.47204,0.59813
7147.54340,0.59928
7145.61476,0.59684
7143.68612,0.59124
7141.75748,0.58640
7139.82884,0.58590
7137.90020,0.58927
7135.97156,0.59066
7134.04292,0.58845
7132.11428,0.58681
7130.18564,0.58712
7128.25699,0.58784
7126.32835,0.58772
7124.39971,0.58600
7122.47107,0.58309
7120.54243,0.58038
7118.61379,0.57864
7116.68515,0.57931
7114.75651,0.58264
7112.82787,0.58484
7110.89923,0.58279
7108.97058,0.57791
7107.04194,0.57524
7105.11330,0.57828
7103.18466,0.58313
7101.25602,0.58392
7099.32738,0.58161
7097.39874,0.57886
7095.47010,0.57521
7093.54146,0.57334
7091.61282,0.57604
7089.68418,0.58028
7087.75553,0.58330
7085.82689,0.58569
7083.89825,0.58778
7081.96961,0.58820
7080.04097,0.58702
7078.11233,0.58646
7076.18369,0.58629
7074.25505,0.58582
7072.32641,0.58569
7070.39777,0.58534
7068.46912,0.58451
7066.54048,0.58491
7064.61184,0.58845
7062.68320,0.59315
7060.75456,0.59334
7058.82592,0.58824
7056.89728,0.58345
7054.96864,0.58194
7053.04000,0.58203
7051.11136,0.58264
7049.18271,0.58335
7047.25407,0.58172
7045.32543,0.57785
7043.39679,0.57777
7041.46815,0.58309
7039.53951,0.58803
7037.61087,0.59066
7035.68223,0.59172
7033.75359,0.59009
7031.82495,0.58690
7029.89631,0.58482
7027.96766,0.58527
7026.03902,0.58701
7024.11038,0.58688
7022.18174,0.58421
7020.25310,0.58175
7018.32446,0.58167
7016.39582,0.58331
7014.46718,0.58523
7012.53854,0.58634
7010.60990,0.58543
7008.68125,0.58277
7006.75261,0.58131
7004.82397,0.58377
7002.89533,0.58833
7000.96669,0.59041
6999.03805,0.58908
6997.10941,0.58755
6995.18077,0.58805
6993.25213,0.58854
6991.32349,0.58674
6989.39485,0.58502
6987.46620,0.58490
6985.53756,0.58462
6983.60892,0.58314
6981.68028,0.58129
6979.75164,0.58252
6977.82300,0.58766
6975.89436,0.59166
6973.96572,0.59132
6972.03708,0.58826
6970.10844,0.58640
6968.17979,0.58819
6966.25115,0.59100
6964.32251,0.59271
6962.39387,0.59442
6960.46523,0.59588
6958.53659,0.59640
6956.60795,0.59592
6954.67931,0.59403
6952.75067,0.59134
6950.82203,0.58952
6948.89338,0.58986
6946.96474,0.59098
6945.03610,0.59200
6943.10746,0.59487
6941.17882,0.59823
6939.25018,0.59960
6937.32154,0.59956
6935.39290,0.59922
6933.46426,0.59936
6931.53562,0.59803
6929.60698,0.59375
6927.67833,0.59110
6925.74969,0.59424
6923.82105,0.59937
6921.89241,0.60019
6919.96377,0.59801
6918.03513,0.59780
6916.10649,0.59938
6914.17785,0.60049
6912.24921,0.60165
6910.32057,0.60295
6908.39192,0.60313
6906.46328,0.60289
6904.53464,0.60357
6902.60600,0.60595
6900.67736,0.60881
6898.74872,0.60879
6896.82008,0.60676
6894.89144,0.60596
6892.96280,0.60591
6891.03416,0.60455
6889.10552,0.60170
6887.17687,0.60075
6885.24823,0.60344
6883.31959,0.60654
6881.39095,0.60886
6879.46231,0.61047
6877.53367,0.60850
6875.60503,0.60321
6873.67639,0.59931
6871.74775,0.59994
6869.81911,0.60409
6867.89046,0.60743
6865.96182,0.60672
6864.03318,0.60373
6862.10454,0.60290
6860.17590,0.60444
6858.24726,0.60529
6856.31862,0.60545
6854.38998,0.60597
6852.46134,0.60512
6850.53270,0.60130
6848.60405,0.59778
6846.67541,0.59857
6844.74677,0.60099
6842.81813,0.60191
6840.88949,0.60258
6838.96085,0.60434
6837.03221,0.60716
6835.10357,0.60778
6833.17493,0.60474
6831.24629,0.60324
6829.31765,0.60402
6827.38900,0.60198
6825.46036,0.59918
6823.53172,0.60122
6821.60308,0.60581
6819.67444,0.60724
6817.74580,0.60623
6815.81716,0.60662
6813.88852,0.60806
6811.95988,0.60745
6810.03124,0.60400
6808.10259,0.60109
6806.17395,0.60106
6804.24531,0.60209
6802.31667,0.60198
6800.38803,0.60051
6798.45939,0.59891
6796.53075,0.59762
6794.60211,0.59749
6792.67347,0.59983
6790.74483,0.60211
6788.81618,0.60243
6786.88754,0.60209
6784.95890,0.60086
6783.03026,0.59878
6781.10162,0.59620
6779.17298,0.59266
6777.24434,0.59047
6775.31570,0.59077
6773.38706,0.58959
6771.45842,0.58585
6769.52978,0.58377
6767.60113,0.58391
6765.67249,0.58362
6763.74385,0.58287
6761.81521,0.58144
6759.88657,0.57904
6757.95793,0.57807
6756.02929,0.57883
6754.10065,0.57859
6752.17201,0.57689
6750.24337,0.57542
6748.31472,0.57533
6746.38608,0.57620
6744.45744,0.57662
6742.52880,0.57673
6740.60016,0.57738
6738.67152,0.57851
6736.74288,0.58006
6734.81424,0.58058
6732.88560,0.57770
6730.95696,0.57364
6729.02832,0.57218
6727.09967,0.57224
6725.17103,0.57160
6723.24239,0.57094
6721.31375,0.57126
6719.38511,0.57187
6717.45647,0.57244
6715.52783,0.57287
6713.59919,0.57194
6711.67055,0.57023
6709.74191,0.56998
6707.81326,0.57107
6705.88462,0.57181
6703.95598,0.57240
6702.02734,0.57246
6700.09870,0.57033
6698.17006,0.56764
6696.24142,0.56651
6694.31278,0.56643
6692.38414,0.56658
6690.45550,0.56615
6688.52685,0.56517
6686.59821,0.56467
6684.66957,0.56434
6682.74093,0.56296
6680.81229,0.56107
6678.88365,0.56025
6676.95501,0.55970
6675.02637,0.55884
6673.09773,0.55933
6671.16909,0.55998
6669.24045,0.55826
6667.31180,0.55555
6665.38316,0.55418
6663.45452,0.55367
6661.52588,0.55168
6659.59724,0.54751
6657.66860,0.54391
6655.73996,0.54232
6653.81132,0.54104
6651.88268,0.54029
6649.95404,0.54115
6648.02539,0.54064
6646.09675,0.53716
6644.16811,0.53412
6642.23947,0.53263
6640.31083,0.53037
6638.38219,0.52746
6636.45355,0.52548
6634.52491,0.52331
6632.59627,0.51966
6630.66763,0.51574
6628.73899,0.51318
6626.81034,0.51218
6624.88170,0.51055
6622.95306,0.50808
6621.02442,0.50758
6619.09578,0.50819
6617.16714,0.50666
6615.23850,0.50346
6613.30986,0.50113
6611.38122,0.49974
6609.45258,0.49897
6607.52393,0.49970
6605.59529,0.50042
6603.66665,0.50009
6601.73801,0.50062
6599.80937,0.50187
6597.88073,0.50171
6595.95209,0.50078
6594.02345,0.50175
6592.09481,0.50469
6590.16617,0.50577
6588.23752,0.50248
6586.30888,0.49860
6584.38024,0.49877
6582.45160,0.50205
6580.52296,0.50544
6578.59432,0.50692
6576.66568,0.50461
6574.73704,0.50007
6572.80840,0.49830
6570.87976,0.49993
6568.95112,0.50129
6567.02247,0.50056
6565.09383,0.49800
6563.16519,0.49467
6561.23655,0.49151
6559.30791,0.48931
6557.37927,0.48919
6555.45063,0.48975
6553.52199,0.48881
6551.59335,0.48716
6549.66471,0.48542
6547.73606,0.48308
6545.80742,0.48129
6543.87878,0.48021
6541.95014,0.47900
6540.02150,0.47796
6538.09286,0.47642
6536.16422,0.47447
6534.23558,0.47297
6532.30694,0.47094
6530.37830,0.46818
6528.44966,0.46569
6526.52101,0.46354
6524.59237,0.46118
6522.66373,0.45906
6520.73509,0.45831
6518.80645,0.45813
6516.87781,0.45637
6514.94917,0.45337
6513.02053,0.45178
6511.09189,0.45261
6509.16325,0.45380
6507.23460,0.45383
6505.30596,0.45344
6503.37732,0.45350
6501.44868,0.45412
6499.52004,0.45421
6497.59140,0.45296
6495.66276,0.45268
6493.73412,0.45487
6491.80548,0.45646
6489.87684,0.45546
6487.94819,0.45434
6486.01955,0.45458
6484.09091,0.45472
6482.16227,0.45491
6480.23363,0.45603
6478.30499,0.45733
6476.37635,0.45977
6474.44771,0.46455
6472.51907,0.47031
6470.59043,0.47586
6468.66179,0.48096
6466.73314,0.48578
6464.80450,0.49153
6462.87586,0.49836
6460.94722,0.50490
6459.01858,0.51082
6457.08994,0.51691
6455.16130,0.52340
6453.23266,0.52907
6451.30402,0.53283
6449.37538,0.53550
6447.44673,0.53874
6445.51809,0.54320
6443.58945,0.54772
6441.66081,0.55157
6439.73217,0.55597
6437.80353,0.56042
6435.87489,0.56295
6433.94625,0.56377
6432.01761,0.56433
6430.08897,0.56564
6428.16033,0.56745
6426.23168,0.56758
6424.30304,0.56590
6422.37440,0.56635
6420.44576,0.56955
6418.51712,0.57052
6416.58848,0.56798
6414.65984,0.56581
6412.73120,0.56549
6410.80256,0.56577
6408.87392,0.56607
6406.94527,0.56571
6405.01663,0.56395
6403.08799,0.56120
6401.15935,0.55901
6399.23071,0.55819
6397.30207,0.55728
6395.37343,0.55462
6393.44479,0.55134
6391.51615,0.54951
6389.58751,0.54829
6387.65886,0.54610
6385.73022,0.54402
6383.80158,0.54328
6381.87294,0.54250
6379.94430,0.53939
6378.01566,0.53469
6376.08702,0.53117
6374.15838,0.52932
6372.22974,0.52810
6370.30110,0.52706
6368.37246,0.52620
6366.44381,0.52549
6364.51517,0.52432
6362.58653,0.52214
6360.65789,0.52051
6358.72925,0.52053
6356.80061,0.52082
6354.87197,0.52090
6352.94333,0.52044
6351.01469,0.51921
6349.08605,0.51840
6347.15740,0.51830
6345.22876,0.51913
6343.30012,0.52080
6341.37148,0.52221
6339.44284,0.52401
6337.51420,0.52647
6335.58556,0.52761
6333.65692,0.52845
6331.72828,0.53210
6329.79964,0.53682
6327.87100,0.53960
6325.94235,0.54209
6324.01371,0.54574
6322.08507,0.54929
6320.15643,0.55240
6318.22779,0.55537
6316.29915,0.55680
6314.37051,0.55586
6312.44187,0.55466
6310.51323,0.55575
6308.58459,0.55907
6306.65594,0.56212
6304.72730,0.56383
6302.79866,0.56505
6300.87002,0.56602
6298.94138,0.56746
6297.01274,0.56938
6295.08410,0.56970
6293.15546,0.56804
6291.22682,0.56625
6289.29818,0.56506
6287.36953,0.56431
6285.44089,0.56413
6283.51225,0.56417
6281.58361,0.56401
6279.65497,0.56314
6277.72633,0.56108
6275.79769,0.55815
6273.86905,0.55490
6271.94041,0.55143
6270.01177,0.54831
6268.08313,0.54650
6266.15448,0.54548
6264.22584,0.54417
6262.29720,0.54295
6260.36856,0.54201
6258.43992,0.54078
6256.51128,0.53971
6254.58264,0.53843
6252.65400,0.53592
6250.72536,0.53451
6248.79672,0.53571
6246.86807,0.53701
6244.93943,0.53755
6243.01079,0.53759
6241.08215,0.53640
6239.15351,0.53512
6237.22487,0.53498
6235.29623,0.53487
6233.36759,0.53460
6231.43895,0.53573
6229.51031,0.53756
6227.58167,0.53872
6225.65302,0.54059
6223.72438,0.54337
6221.79574,0.54439
6219.86710,0.54410
6217.93846,0.54543
6216.00982,0.54786
6214.08118,0.55061
6212.15254,0.55467
6210.22390,0.55841
6208.29526,0.56005
6206.36661,0.56117
6204.43797,0.56317
6202.50933,0.56520
6200.58069,0.56650
6198.65205,0.56762
6196.72341,0.56890
6194.79477,0.56992
6192.86613,0.57104
6190.93749,0.57322
6189.00885,0.57570
6187.08020,0.57699
6185.15156,0.57775
6183.22292,0.57964
6181.29428,0.58325
6179.36564,0.58741
6177.43700,0.59018
6175.50836,0.59170
6173.57972,0.59397
6171.65108,0.59734
6169.72244,0.60071
6167.79380,0.60410
6165.86515,0.60796
6163.93651,0.61156
6162.00787,0.61416
6160.07923,0.61565
6158.15059,0.61627
6156.22195,0.61731
6154.29331,0.61960
6152.36467,0.62191
6150.43603,0.62291
6148.50739,0.62363
6146.57874,0.62589
6144.65010,0.62890
6142.72146,0.63098
6140.79282,0.63253
6138.86418,0.63422
6136.93554,0.63553
6135.00690,0.63600
6133.07826,0.63679
6131.14962,0.63881
6129.22098,0.64081
6127.29234,0.64188
6125.36369,0.64283
6123.43505,0.64413
6121.50641,0.64503
6119.57777,0.64508
6117.64913,0.64521
6115.72049,0.64648
6113.79185,0.64867
6111.86321,0.65064
6109.93457,0.65202
6108.00593,0.65229
6106.07728,0.65091
6104.14864,0.64956
6102.22000,0.64960
6100.29136,0.64982
6098.36272,0.64919
6096.43408,0.64822
6094.50544,0.64764
6092.57680,0.64822
6090.64816,0.64969
6088.71952,0.65092
6086.79087,0.65159
6084.86223,0.65151
6082.93359,0.65075
6081.00495,0.65041
6079.07631,0.65100
6077.14767,0.65115
6075.21903,0.64963
6073.29039,0.64834
6071.36175,0.64871
6069.43311,0.64895
6067.50447,0.64894
6065.57582,0.64998
6063.64718,0.65102
6061.71854,0.65118
6059.78990,0.65089
6057.86126,0.64986
6055.93262,0.64869
6054.00398,0.64865
6052.07534,0.64901
6050.14670,0.64778
6048.21806,0.64493
6046.28941,0.64325
6044.36077,0.64408
6042.43213,0.64586
6040.50349,0.64760
6038.57485,0.64859
6036.64621,0.64777
6034.71757,0.64591
6032.78893,0.64506
6030.86029,0.64521
6028.93165,0.64493
6027.00301,0.64446
6025.07436,0.64457
6023.14572,0.64499
6021.21708,0.64524
6019.28844,0.64450
6017.35980,0.64244
6015.43116,0.64011
6013.50252,0.63918
6011.57388,0.63990
6009.64524,0.64046
6007.71660,0.63951
6005.78795,0.63717
6003.85931,0.63498
6001.93067,0.63511
6000.00203,0.63671
5998.07339,0.63760
5996.14475,0.63806
5994.21611,0.63735
5992.28747,0.63409
5990.35883,0.63032
5988.43019,0.62830
5986.50154,0.62767
5984.57290,0.62731
5982.64426,0.62689
5980.71562,0.62662
5978.78698,0.62594
5976.85834,0.62425
5974.92970,0.62293
5973.00106,0.62234
5971.07242,0.62057
5969.14378,0.61798
5967.21514,0.61622
5965.28649,0.61474
5963.35785,0.61293
5961.42921,0.61099
5959.50057,0.60884
5957.57193,0.60672
5955.64329,0.60488
5953.71465,0.60307
5951.78601,0.60129
5949.85737,0.59935
5947.92873,0.59632
5946.00008,0.59237
5944.07144,0.58874
5942.14280,0.58567
5940.21416,0.58292
5938.28552,0.57992
5936.35688,0.57563
5934.42824,0.57088
5932.49960,0.56705
5930.57096,0.56305
5928.64232,0.55689
5926.71368,0.54941
5924.78503,0.54359
5922.85639,0.53900
5920.92775,0.53274
5918.99911,0.52548
5917.07047,0.51928
5915.14183,0.51283
5913.21319,0.50425
5911.28455,0.49523
5909.35591,0.48737
5907.42727,0.47938
5905.49862,0.47133
5903.56998,0.46384
5901.64134,0.45560
5899.71270,0.44649
5897.78406,0.43725
5895.85542,0.42772
5893.92678,0.41802
5891.99814,0.40801
5890.06950,0.39702
5888.14086,0.38555
5886.21221,0.37520
5884.28357,0.36641
5882.35493,0.35807
5880.42629,0.34970
5878.49765,0.34133
5876.56901,0.33259
5874.64037,0.32377
5872.71173,0.31542
5870.78309,0.30745
5868.85445,0.29962
5866.92581,0.29174
5864.99716,0.28358
5863.06852,0.27565
5861.13988,0.26865
5859.21124,0.26154
5857.28260,0.25291
5855.35396,0.24398
5853.42532,0.23665
5851.49668,0.23038
5849.56804,0.22375
5847.63940,0.21651
5845.71075,0.20892
5843.78211,0.20144
5841.85347,0.19553
5839.92483,0.19190
5837.99619,0.18930
5836.06755,0.18691
5834.13891,0.18495
5832.21027,0.18373
5830.28163,0.18362
5828.35299,0.18481
5826.42435,0.18704
5824.49570,0.18987
5822.56706,0.19293
5820.63842,0.19552
5818.70978,0.19759
5816.78114,0.20009
5814.85250,0.20333
5812.92386,0.20656
5810.99522,0.20904
5809.06658,0.21184
5807.13794,0.21586
5805.20929,0.21953
5803.28065,0.22206
5801.35201,0.22452
5799.42337,0.22768
5797.49473,0.23178
5795.56609,0.23605
5793.63745,0.23953
5791.70881,0.24310
5789.78017,0.24779
5787.85153,0.25269
5785.92288,0.25682
5783.99424,0.26107
5782.06560,0.26599
5780.13696,0.27046
5778.20832,0.27414
5776.27968,0.27766
5774.35104,0.28095
5772.42240,0.28375
5770.49376,0.28557
5768.56512,0.28668
5766.63648,0.28822
5764.70783,0.28969
5762.77919,0.28996
5760.85055,0.28937
5758.92191,0.28881
5756.99327,0.28799
5755.06463,0.28615
5753.13599,0.28449
5751.20735,0.28393
5749.27871,0.28269
5747.35007,0.27960
5745.42142,0.27548
5743.49278,0.27157
5741.56414,0.26864
5739.63550,0.26606
5737.70686,0.26300
5735.77822,0.25939
5733.84958,0.25496
5731.92094,0.24961
5729.99230,0.24454
5728.06366,0.24084
5726.13502,0.23767
5724.20637,0.23391
5722.27773,0.23039
5720.34909,0.22855
5718.42045,0.22828
5716.49181,0.22788
5714.56317,0.22645
5712.63453,0.22575
5710.70589,0.22715
5708.77725,0.22961
5706.84861,0.23178
5704.91996,0.23295
5702.99132,0.23307
5701.06268,0.23291
5699.13404,0.23310
5697.20540,0.23398
5695.27676,0.23578
5693.34812,0.23830
5691.41948,0.24142
5689.49084,0.24504
5687.56220,0.24866
5685.63355,0.25199
5683.70491,0.25573
5681.77627,0.26047
5679.84763,0.26568
5677.91899,0.27089
5675.99035,0.27597
5674.06171,0.28039
5672.13307,0.28422
5670.20443,0.28867
5668.27579,0.29357
5666.34715,0.29797
5664.41850,0.30264
5662.48986,0.30781
5660.56122,0.31227
5658.63258,0.31615
5656.70394,0.32070
5654.77530,0.32565
5652.84666,0.32950
5650.91802,0.33244
5648.98938,0.33631
5647.06074,0.34160
5645.13209,0.34649
5643.20345,0.35024
5641.27481,0.35426
5639.34617,0.35902
5637.41753,0.36384
5635.48889,0.36825
5633.56025,0.37161
5631.63161,0.37358
5629.70297,0.37505
5627.77433,0.37738
5625.84569,0.38058
5623.91704,0.38323
5621.98840,0.38500
5620.05976,0.38698
5618.13112,0.38909
5616.20248,0.39020
5614.27384,0.39023
5612.34520,0.38998
5610.41656,0.39025
5608.48792,0.39169
5606.55928,0.39423
5604.63063,0.39652
5602.70199,0.39755
5600.77335,0.39774
5598.84471,0.39792
5596.91607,0.39853
5594.98743,0.39971
5593.05879,0.40076
5591.13015,0.40087
5589.20151,0.40091
5587.27287,0.40202
5585.34422,0.40360
5583.41558,0.40449
5581.48694,0.40502
5579.55830,0.40599
5577.62966,0.40718
5575.70102,0.40819
5573.77238,0.40922
5571.84374,0.41078
5569.91510,0.41292
5567.98646,0.41473
5566.05782,0.41555
5564.12917,0.41552
5562.20053,0.41565
5560.27189,0.41688
5558.34325,0.41863
5556.41461,0.42003
5554.48597,0.42115
5552.55733,0.42204
5550.62869,0.42267
5548.70005,0.42326
5546.77141,0.42390
5544.84276,0.42438
5542.91412,0.42460
5540.98548,0.42526
5539.05684,0.42667
5537.12820,0.42783
5535.19956,0.42860
5533.27092,0.42999
5531.34228,0.43139
5529.41364,0.43149
5527.48500,0.43118
5525.55636,0.43151
5523.62771,0.43179
5521.69907,0.43256
5519.77043,0.43487
5517.84179,0.43744
5515.91315,0.43878
5513.98451,0.43947
5512.05587,0.44022
5510.12723,0.44019
5508.19859,0.43988
5506.26995,0.44130
5504.34130,0.44354
5502.41266,0.44461
5500.48402,0.44480
5498.55538,0.44503
5496.62674,0.44534
5494.69810,0.44523
5492.76946,0.44540
5490.84082,0.44668
5488.91218,0.44840
5486.98354,0.45018
5485.05489,0.45202
5483.12625,0.45317
5481.19761,0.45350
5479.26897,0.45373
5477.34033,0.45377
5475.41169,0.45385
5473.48305,0.45531
5471.55441,0.45759
5469.62577,0.45892
5467.69713,0.45943
5465.76849,0.46016
5463.83984,0.46118
5461.91120,0.46182
5459.98256,0.46204
5458.05392,0.46229
5456.12528,0.46304
5454.19664,0.46485
5452.26800,0.46666
5450.33936,0.46685
5448.41072,0.46585
5446.48208,0.46478
5444.55343,0.46438
5442.62479,0.46498
5440.69615,0.46677
5438.76751,0.46918
5436.83887,0.47018
5434.91023,0.46993
5432.98159,0.47033
5431.05295,0.47046
5429.12431,0.47025
5427.19567,0.47208
5425.26703,0.47524
5423.33838,0.47730
5421.40974,0.47844
5419.48110,0.47949
5417.55246,0.47909
5415.62382,0.47601
5413.69518,0.47264
5411.76654,0.47189
5409.83790,0.47362
5407.90926,0.47681
5405.98062,0.48057
5404.05197,0.48421
5402.12333,0.48760
5400.19469,0.49015
5398.26605,0.49139
5396.33741,0.49168
5394.40877,0.49224
5392.48013,0.49478
5390.55149,0.49906
5388.62285,0.50221
5386.69421,0.50305
5384.76556,0.50420
5382.83692,0.50724
5380.90828,0.50943
5378.97964,0.50798
5377.05100,0.50514
5375.12236,0.50540
5373.19372,0.50827
5371.26508,0.51069
5369.33644,0.51240
5367.40780,0.51400
5365.47916,0.51552
5363.55051,0.51695
5361.62187,0.51812
5359.69323,0.51915
5357.76459,0.51927
5355.83595,0.51685
5353.90731,0.51398
5351.97867,0.51442
5350.05003,0.51696
5348.12139,0.51787
5346.19275,0.51607
5344.26410,0.51442
5342.33546,0.51525
5340.40682,0.51547
5338.47818,0.51409
5336.54954,0.51501
5334.62090,0.51803
5332.69226,0.51946
5330.76362,0.51863
5328.83498,0.51686
5326.90634,0.51565
5324.97770,0.51563
5323.04905,0.51548
5321.12041,0.51440
5319.19177,0.51284
5317.26313,0.51114
5315.33449,0.50979
5313.40585,0.50862
5311.47721,0.50616
5309.54857,0.50167
5307.61993,0.49670
5305.69129,0.49313
5303.76264,0.49029
5301.83400,0.48637
5299.90536,0.48174
5297.97672,0.47761
5296.04808,0.47334
5294.11944,0.46805
5292.19080,0.46220
5290.26216,0.45749
5288.33352,0.45496
5286.40488,0.45267
5284.47623,0.44949
5282.54759,0.44687
5280.61895,0.44517
5278.69031,0.44373
5276.76167,0.44227
5274.83303,0.44040
5272.90439,0.43769
5270.97575,0.43425
5269.04711,0.43083
5267.11847,0.42733
5265.18983,0.42338
5263.26118,0.42028
5261.33254,0.41848
5259.40390,0.41676
5257.47526,0.41455
5255.54662,0.41195
5253.61798,0.40966
5251.68934,0.40738
5249.76070,0.40352
5247.83206,0.39894
5245.90342,0.39549
5243.97477,0.39322
5242.04613,0.39169
5240.11749,0.39027
5238.18885,0.38844
5236.26021,0.38594
5234.33157,0.38186
5232.40293,0.37662
5230.47429,0.37235
5228.54565,0.36894
5226.61701,0.36471
5224.68837,0.36088
5222.75972,0.35863
5220.83108,0.35612
5218.90244,0.35246
5216.97380,0.34863
5215.04516,0.34482
5213.11652,0.34105
5211.18788,0.33750
5209.25924,0.33326
5207.33060,0.32828
5205.40196,0.32423
5203.47331,0.32135
5201.54467,0.31820
5199.61603,0.31424
5197.68739,0.30987
5195.75875,0.30543
5193.83011,0.30105
5191.90147,0.29710
5189.97283,0.29394
5188.04419,0.29100
5186.11555,0.28754
5184.18690,0.28385
5182.25826,0.28085
5180.32962,0.27867
5178.40098,0.27632
5176.47234,0.27315
5174.54370,0.26950
5172.61506,0.26579
5170.68642,0.26234
5168.75778,0.25958
5166.82914,0.25730
5164.90050,0.25488
5162.97185,0.25247
5161.04321,0.25050
5159.11457,0.24857
5157.18593,0.24617
5155.25729,0.24346
5153.32865,0.24111
5151.40001,0.23935
5149.47137,0.23780
5147.54273,0.23623
5145.61409,0.23457
5143.68544,0.23293
5141.75680,0.23215
5139.82816,0.23238
5137.89952,0.23245
5135.97088,0.23186
5134.04224,0.23112
5132.11360,0.23078
5130.18496,0.23091
5128.25632,0.23115
5126.32768,0.23137
5124.39904,0.23165
5122.47039,0.23202
5120.54175,0.23252
5118.61311,0.23320
5116.68447,0.23411
5114.75583,0.23520
5112.82719,0.23609
5110.89855,0.23688
5108.96991,0.23832
5107.04127,0.24047
5105.11263,0.24244
5103.18398,0.24391
5101.25534,0.24522
5099.32670,0.24658
5097.39806,0.24811
5095.46942,0.24986
5093.54078,0.25185
5091.61214,0.25405
5089.68350,0.25612
5087.75486,0.25777
5085.82622,0.25957
5083.89757,0.26205
5081.96893,0.26472
5080.04029,0.26692
5078.11165,0.26858
5076.18301,0.27015
5074.25437,0.27210
5072.32573,0.27413
5070.39709,0.27570
5068.46845,0.27729
5066.53981,0.27921
5064.61117,0.28073
5062.68252,0.28178
5060.75388,0.28309
5058.82524,0.28496
5056.89660,0.28721
5054.96796,0.28955
5053.03932,0.29166
5051.11068,0.29367
5049.18204,0.29589
5047.25340,0.29763
5045.32476,0.29820
5043.39611,0.29834
5041.46747,0.29903
5039.53883,0.30012
5037.61019,0.30119
5035.68155,0.30259
5033.75291,0.30425
5031.82427,0.30543
5029.89563,0.30601
5027.96699,0.30634
5026.03835,0.30631
5024.10971,0.30596
5022.18106,0.30583
5020.25242,0.30594
5018.32378,0.30546
5016.39514,0.30416
5014.46650,0.30284
5012.53786,0.30170
5010.60922,0.30009
5008.68058,0.29782
5006.75194,0.29530
5004.82330,0.29263
5002.89465,0.28952
5000.96601,0.28579
4999.03737,0.28144
4997.10873,0.27631
4995.18009,0.27032
4993.25145,0.26391
4991.32281,0.25716
4989.39417,0.24978
4987.46553,0.24187
4985.53689,0.23342
4983.60824,0.22442
4981.67960,0.21551
4979.75096,0.20748
4977.82232,0.20038
4975.89368,0.19380
4973.96504,0.18765
4972.03640,0.18229
4970.10776,0.17838
4968.17912,0.17628
4966.25048,0.17542
4964.32184,0.17494
4962.39319,0.17486
4960.46455,0.17584
4958.53591,0.17756
4956.60727,0.17914
4954.67863,0.18038
4952.74999,0.18151
4950.82135,0.18264
4948.89271,0.18334
4946.96407,0.18333
4945.03543,0.18299
4943.10678,0.18259
4941.17814,0.18222
4939.24950,0.18181
4937.32086,0.18098
4935.39222,0.17973
4933.46358,0.17855
4931.53494,0.17758
4929.60630,0.17693
4927.67766,0.17655
4925.74902,0.17531
4923.82038,0.17265
4921.89173,0.16934
4919.96309,0.16575
4918.03445,0.16168
4916.10581,0.15716
4914.17717,0.15214
4912.24853,0.14619
4910.31989,0.13946
4908.39125,0.13281
4906.46261,0.12639
4904.53397,0.11945
4902.60532,0.11184
4900.67668,0.10411
4898.74804,0.09683
4896.81940,0.09025
4894.89076,0.08428
4892.96212,0.07882
4891.03348,0.07410
4889.10484,0.06975
4887.17620,0.06533
4885.24756,0.06143
4883.31891,0.05845
4881.39027,0.05568
4879.46163,0.05248
4877.53299,0.04911
4875.60435,0.04593
4873.67571,0.04321
4871.74707,0.04160
4869.81843,0.04139
4867.88979,0.04254
4865.96115,0.04534
4864.03251,0.04973
4862.10386,0.05545
4860.17522,0.06242
4858.24658,0.07027
4856.31794,0.07866
4854.38930,0.08758
4852.46066,0.09694
4850.53202,0.10650
4848.60338,0.11638
4846.67474,0.12646
4844.74610,0.13651
4842.81745,0.14694
4840.88881,0.15766
4838.96017,0.16822
4837.03153,0.17862
4835.10289,0.18895
4833.17425,0.19909
4831.24561,0.20861
4829.31697,0.21718
4827.38833,0.22468
4825.45969,0.23119
4823.53105,0.23709
4821.60240,0.24235
4819.67376,0.24660
4817.74512,0.24984
4815.81648,0.25243
4813.88784,0.25449
4811.95920,0.25597
4810.03056,0.25699
4808.10192,0.25763
4806.17328,0.25756
4804.24464,0.25660
4802.31599,0.25493
4800.38735,0.25281
4798.45871,0.25090
4796.53007,0.24955
4794.60143,0.24844
4792.67279,0.24769
4790.74415,0.24736
4788.81551,0.24691
4786.88687,0.24633
4784.95823,0.24593
4783.02958,0.24566
4781.10094,0.24530
4779.17230,0.24480
4777.24366,0.24414
4775.31502,0.24332
4773.38638,0.24258
4771.45774,0.24183
4769.52910,0.24068
4767.60046,0.23926
4765.67182,0.23788
4763.74318,0.23633
4761.81453,0.23437
4759.88589,0.23213
4757.95725,0.22984
4756.02861,0.22747
4754.09997,0.22495
4752.17133,0.22242
4750.24269,0.21982
4748.31405,0.21684
4746.38541,0.21364
4744.45677,0.21066
4742.52812,0.20794
4740.59948,0.20521
4738.67084,0.20245
4736.74220,0.19944
4734.81356,0.19597
4732.88492,0.19261
4730.95628,0.18965
4729.02764,0.18636
4727.09900,0.18241
4725.17036,0.17819
4723.24172,0.17401
4721.31307,0.16973
4719.38443,0.16517
4717.45579,0.16032
4715.52715,0.15536
4713.59851,0.15050
4711.66987,0.14593
4709.74123,0.14151
4707.81259,0.13704
4705.88395,0.13276
4703.95531,0.12900
4702.02666,0.12567
4700.09802,0.12269
4698.16938,0.12013
4696.24074,0.11815
4694.31210,0.11668
4692.38346,0.11525
4690.45482,0.11376
4688.52618,0.11261
4686.59754,0.11179
4684.66890,0.11103
4682.74025,0.11044
4680.81161,0.11023
4678.88297,0.11016
4676.95433,0.10978
4675.02569,0.10927
4673.09705,0.10922
4671.16841,0.10945
4669.23977,0.10954
4667.31113,0.10957
4665.38249,0.10944
4663.45385,0.10925
4661.52520,0.10926
4659.59656,0.10925
4657.66792,0.10878
4655.73928,0.10777
4653.81064,0.10662
4651.88200,0.10550
4649.95336,0.10424
4648.02472,0.10268
4646.09608,0.10103
4644.16744,0.09970
4642.23879,0.09867
4640.31015,0.09735
4638.38151,0.09554
4636.45287,0.09339
4634.52423,0.09090
4632.59559,0.08856
4630.66695,0.08674
4628.73831,0.08498
4626.80967,0.08283
4624.88103,0.08055
4622.95239,0.07833
4621.02374,0.07594
4619.09510,0.07344
4617.16646,0.07132
4615.23782,0.06956
4613.30918,0.06763
4611.38054,0.06538
4609.45190,0.06282
4607.52326,0.05974
4605.59462,0.05648
4603.66598,0.05360
4601.73733,0.05113
4599.80869,0.04875
4597.88005,0.04630
4595.95141,0.04401
4594.02277,0.04210
4592.09413,0.04052
4590.16549,0.03933
4588.23685,0.03837
4586.30821,0.03734
4584.37957,0.03646
4582.45092,0.03617
4580.52228,0.03631
4578.59364,0.03647
4576.66500,0.03693
4574.73636,0.03771
4572.80772,0.03834
4570.87908,0.03910
4568.95044,0.04045
4567.02180,0.04206
4565.09316,0.04351
4563.16452,0.04484
4561.23587,0.04602
4559.30723,0.04717
4557.37859,0.04838
4555.44995,0.04920
4553.52131,0.04962
4551.59267,0.05015
4549.66403,0.05068
4547.73539,0.05086
4545.80675,0.05097
4543.87811,0.05135
4541.94946,0.05190
4540.02082,0.05247
4538.09218,0.05312
4536.16354,0.05381
4534.23490,0.05448
4532.30626,0.05526
4530.37762,0.05629
4528.44898,0.05757
4526.52034,0.05901
4524.59170,0.06048
4522.66306,0.06207
4520.73441,0.06404
4518.80577,0.06631
4516.87713,0.06845
4514.94849,0.07035
4513.01985,0.07248
4511.09121,0.07489
4509.16257,0.07695
4507.23393,0.07859
4505.30529,0.08024
4503.37665,0.08187
4501.44800,0.08340
4499.51936,0.08498
4497.59072,0.08660
4495.66208,0.08795
4493.73344,0.08871
4491.80480,0.08898
4489.87616,0.08919
4487.94752,0.08952
4486.01888,0.08983
4484.09024,0.08991
4482.16159,0.08976
4480.23295,0.08968
4478.30431,0.08969
4476.37567,0.08942
4474.44703,0.08873
4472.51839,0.08803
4470.58975,0.08748
4468.66111,0.08661
4466.73247,0.08526
4464.80383,0.08379
4462.87519,0.08224
4460.94654,0.08057
4459.01790,0.07893
4457.08926,0.07722
4455.16062,0.07524
4453.23198,0.07301
4451.30334,0.07064
4449.37470,0.06819
4447.44606,0.06580
4445.51742,0.06366
4443.58878,0.06168
4441.66013,0.05971
4439.73149,0.05786
4437.80285,0.05604
4435.87421,0.05400
4433.94557,0.05170
4432.01693,0.04930
4430.08829,0.04682
4428.15965,0.04421
4426.23101,0.04160
4424.30237,0.03923
4422.37373,0.03716
4420.44508,0.03525
4418.51644,0.03319
4416.58780,0.03086
4414.65916,0.02843
4412.73052,0.02628
4410.80188,0.02436
4408.87324,0.02238
4406.94460,0.02051
4405.01596,0.01879
4403.08732,0.01695
4401.15867,0.01504
4399.23003,0.01320
4397.30139,0.01140
4395.37275,0.00968
4393.44411,0.00819
4391.51547,0.00675
4389.58683,0.00513
4387.65819,0.00358
4385.72955,0.00249
4383.80091,0.00172
4381.87226,0.00120
4379.94362,0.00095
4378.01498,0.00078
4376.08634,0.00047
4374.15770,0.00074
4372.22906,0.00107
4370.30042,0.00094
4368.37178,0.00051
4366.44314,0.00025
4364.51450,0.00048
4362.58586,0.00088
4360.65721,0.00076
4358.72857,0.00038
4356.79993,0.00026
4354.87129,0.00036
4352.94265,0.00041
4351.01401,0.00052
4349.08537,0.00079
4347.15673,0.00100
4345.22809,0.00081
4343.29945,0.00033
4341.37080,0.00034
4339.44216,0.00037
4337.51352,0.00044
4335.58488,0.00079
4333.65624,0.00116
4331.72760,0.00156
4329.79896,0.00195
4327.87032,0.00236
4325.94168,0.00287
4324.01304,0.00323
4322.08440,0.00331
4320.15575,0.00335
4318.22711,0.00340
4316.29847,0.00348
4314.36983,0.00365
4312.44119,0.00396
4310.51255,0.00450
4308.58391,0.00515
4306.65527,0.00546
4304.72663,0.00530
4302.79799,0.00514
4300.86934,0.00529
4298.94070,0.00552
4297.01206,0.00565
4295.08342,0.00570
4293.15478,0.00552
4291.22614,0.00511
4289.29750,0.00467
4287.36886,0.00430
4285.44022,0.00407
4283.51158,0.00389
4281.58293,0.00349
4279.65429,0.00292
4277.72565,0.00241
4275.79701,0.00202
4273.86837,0.00180
4271.93973,0.00164
4270.01109,0.00127
4268.08245,0.00077
4266.15381,0.00056
4264.22517,0.00069
4262.29653,0.00089
4260.36788,0.00089
4258.43924,0.00108
4256.51060,0.00141
4254.58196,0.00134
4252.65332,0.00108
4250.72468,0.00111
4248.79604,0.00127
4246.86740,0.00139
4244.93876,0.00142
4243.01012,0.00136
4241.08147,0.00131
4239.15283,0.00127
4237.22419,0.00120
4235.29555,0.00124
4233.36691,0.00136
4231.43827,0.00144
4229.50963,0.00142
4227.58099,0.00133
4225.65235,0.00122
4223.72371,0.00130
4221.79507,0.00137
4219.86642,0.00122
4217.93778,0.00103
4216.00914,0.00101
4214.08050,0.00076
4212.15186,0.00049
4210.22322,0.00052
4208.29458,0.00086
4206.36594,0.00115
4204.43730,0.00136
4202.50866,0.00135
4200.58001,0.00123
4198.65137,0.00110
4196.72273,0.00092
4194.79409,0.00068
4192.86545,0.00062
4190.93681,0.00083
4189.00817,0.00123
4187.07953,0.00155
4185.15089,0.00181
4183.22225,0.00193
4181.29360,0.00190
4179.36496,0.00182
4177.43632,0.00178
4175.50768,0.00188
4173.57904,0.00199
4171.65040,0.00195
4169.72176,0.00195
4167.79312,0.00234
4165.86448,0.00295
4163.93584,0.00332
4162.00720,0.00345
4160.07855,0.00353
4158.14991,0.00369
4156.22127,0.00413
4154.29263,0.00477
4152.36399,0.00536
4150.43535,0.00582
4148.50671,0.00614
4146.57807,0.00642
4144.64943,0.00681
4142.72079,0.00718
4140.79214,0.00729
4138.86350,0.00732
4136.93486,0.00760
4135.00622,0.00807
4133.07758,0.00856
4131.14894,0.00904
4129.22030,0.00938
4127.29166,0.00944
4125.36302,0.00948
4123.43438,0.00979
4121.50574,0.00996
4119.57709,0.00983
4117.64845,0.00983
4115.71981,0.00984
4113.79117,0.00968
4111.86253,0.00974
4109.93389,0.00992
4108.00525,0.00980
4106.07661,0.00936
4104.14797,0.00886
4102.21933,0.00852
4100.29068,0.00845
4098.36204,0.00849
4096.43340,0.00826
4094.50476,0.00770
4092.57612,0.00724
4090.64748,0.00721
4088.71884,0.00730
4086.79020,0.00728
4084.86156,0.00748
4082.93292,0.00795
4081.00427,0.00816
4079.07563,0.00796
4077.14699,0.00781
4075.21835,0.00780
4073.28971,0.00762
4071.36107,0.00735
4069.43243,0.00711
4067.50379,0.00680
4065.57515,0.00656
4063.64651,0.00655
4061.71787,0.00649
4059.78922,0.00628
4057.86058,0.00612
4055.93194,0.00589
4054.00330,0.00544
4052.07466,0.00519
4050.14602,0.00529
4048.21738,0.00527
4046.28874,0.00497
4044.36010,0.00450
4042.43146,0.00414
4040.50281,0.00413
4038.57417,0.00424
4036.64553,0.00420
4034.71689,0.00414
4032.78825,0.00400
4030.85961,0.00371
4028.93097,0.00343
4027.00233,0.00334
4025.07369,0.00339
4023.14505,0.00341
4021.21641,0.00336
4019.28776,0.00336
4017.35912,0.00332
4015.43048,0.00301
4013.50184,0.00251
4011.57320,0.00223
4009.64456,0.00223
4007.71592,0.00229
4005.78728,0.00230
4003.85864,0.00224
4001.93000,0.00219
4000.00135,0.00234
3998.07271,0.00287
3996.14407,0.00362
3994.21543,0.00419
3992.28679,0.00458
3990.35815,0.00494
3988.42951,0.00513
3986.50087,0.00512
3984.57223,0.00514
3982.64359,0.00548
3980.71494,0.00639
3978.78630,0.00769
3976.85766,0.00896
3974.92902,0.01012
3973.00038,0.01129
3971.07174,0.01249
3969.14310,0.01379
3967.21446,0.01514
3965.28582,0.01623
3963.35718,0.01701
3961.42854,0.01793
3959.49989,0.01923
3957.57125,0.02057
3955.64261,0.02161
3953.71397,0.02243
3951.78533,0.02330
3949.85669,0.02427
3947.92805,0.02532
3945.99941,0.02645
3944.07077,0.02756
3942.14213,0.02871
3940.21348,0.02993
3938.28484,0.03096
3936.35620,0.03171
3934.42756,0.03245
3932.49892,0.03331
3930.57028,0.03405
3928.64164,0.03444
3926.71300,0.03468
3924.78436,0.03508
3922.85572,0.03585
3920.92708,0.03681
3918.99843,0.03771
3917.06979,0.03867
3915.14115,0.04006
3913.21251,0.04207
3911.28387,0.04445
3909.35523,0.04679
3907.42659,0.04862
3905.49795,0.04976
3903.56931,0.05063
3901.64067,0.05179
3899.71202,0.05361
3897.78338,0.05596
3895.85474,0.05784
3893.92610,0.05836
3891.99746,0.05812
3890.06882,0.05837
3888.14018,0.05870
3886.21154,0.05838
3884.28290,0.05842
3882.35426,0.05948
3880.42561,0.06154
3878.49697,0.06454
3876.56833,0.06711
3874.63969,0.06858
3872.71105,0.06936
3870.78241,0.06959
3868.85377,0.07014
3866.92513,0.07093
3864.99649,0.07104
3863.06785,0.07098
3861.13921,0.07097
3859.21056,0.07001
3857.28192,0.06753
3855.35328,0.06355
3853.42464,0.05983
3851.49600,0.05898
3849.56736,0.05937
3847.63872,0.05860
3845.71008,0.05672
3843.78144,0.05463
3841.85280,0.05307
3839.92415,0.05244
3837.99551,0.05317
3836.06687,0.05537
3834.13823,0.05796
3832.20959,0.06009
3830.28095,0.06176
3828.35231,0.06267
3826.42367,0.06258
3824.49503,0.06155
3822.56639,0.05981
3820.63775,0.05883
3818.70910,0.05930
3816.78046,0.06006
3814.85182,0.06150
3812.92318,0.06374
3810.99454,0.06543
3809.06590,0.06607
3807.13726,0.06672
3805.20862,0.06791
3803.27998,0.06836
3801.35134,0.06864
3799.42269,0.06999
3797.49405,0.07104
3795.56541,0.07139
3793.63677,0.07170
3791.70813,0.07165
3789.77949,0.07153
3787.85085,0.07226
3785.92221,0.07363
3783.99357,0.07508
3782.06493,0.07635
3780.13628,0.07754
3778.20764,0.07922
3776.27900,0.08106
3774.35036,0.08203
3772.42172,0.08178
3770.49308,0.08105
3768.56444,0.08095
3766.63580,0.08133
3764.70716,0.08168
3762.77852,0.08173
3760.84988,0.08082
3758.92123,0.07939
3756.99259,0.07852
3755.06395,0.07738
3753.13531,0.07473
3751.20667,0.07171
3749.27803,0.07040
3747.34939,0.06965
3745.42075,0.06782
3743.49211,0.06697
3741.56347,0.06798
3739.63482,0.06810
3737.70618,0.06639
3735.77754,0.06430
3733.84890,0.06332
3731.92026,0.06364
3729.99162,0.06430
3728.06298,0.06421
3726.13434,0.06339
3724.20570,0.06253
3722.27706,0.06175
3720.34842,0.06102
3718.41977,0.06042
3716.49113,0.05946
3714.56249,0.05730
3712.63385,0.05417
3710.70521,0.05175
3708.77657,0.05073
3706.84793,0.04996
3704.91929,0.04841
3702.99065,0.04591
3701.06201,0.04302
3699.13336,0.04027
3697.20472,0.03751
3695.27608,0.03446
3693.34744,0.03077
3691.41880,0.02617
3689.49016,0.02097
3687.56152,0.01633
3685.63288,0.01273
3683.70424,0.00945
3681.77560,0.00633
3679.84695,0.00396
3677.91831,0.00271
3675.98967,0.00224
3674.06103,0.00206
3672.13239,0.00186
3670.20375,0.00165
3668.27511,0.00151
3666.34647,0.00148
3664.41783,0.00154
3662.48919,0.00148
3660.56055,0.00109
3658.63190,0.00051
3656.70326,0.00009
3654.77462,0.00009
3652.84598,0.00053
3650.91734,0.00062
3648.98870,0.00046
3647.06006,0.00016
3645.13142,0.00016
3643.20278,0.00005
3641.27414,0.00001
3639.34549,0.00028
3637.41685,0.00044
3635.48821,0.00052
3633.55957,0.00056
3631.63093,0.00063
3629.70229,0.00071
3627.77365,0.00064
3625.84501,0.00033
3623.91637,0.00008
3621.98773,-0.00004
3620.05909,-0.00022
3618.13044,0.00006
3616.20180,0.00051
3614.27316,0.00063
3612.34452,0.00057
3610.41588,0.00048
3608.48724,0.00030
3606.55860,0.00029
3604.62996,0.00030
3602.70132,0.00040
3600.77268,0.00054
3598.84403,0.00070
3596.91539,0.00065
3594.98675,0.00031
3593.05811,0.00024
3591.12947,0.00056
3589.20083,0.00067
3587.27219,0.00040
3585.34355,0.00028
3583.41491,0.00055
3581.48627,0.00039
3579.55762,0.00030
3577.62898,0.00042
3575.70034,0.00030
3573.77170,0.00018
3571.84306,0.00038
3569.91442,0.00041
3567.98578,0.00025
3566.05714,0.00014
3564.12850,0.00026
3562.19986,0.00049
3560.27122,0.00063
3558.34257,0.00047
3556.41393,0.00063
3554.48529,0.00058
3552.55665,0.00038
3550.62801,0.00020
3548.69937,0.00019
3546.77073,0.00024
3544.84209,0.00041
3542.91345,0.00061
3540.98481,0.00066
3539.05616,0.00058
3537.12752,0.00045
3535.19888,0.00016
3533.27024,0.00013
3531.34160,0.00043
3529.41296,0.00060
3527.48432,0.00043
3525.55568,0.00029
3523.62704,0.00024
3521.69840,0.00022
3519.76976,0.00004
3517.84111,0.00005
3515.91247,0.00027
3513.98383,0.00035
3512.05519,0.00026
3510.12655,0.00036
3508.19791,0.00052
3506.26927,0.00046
3504.34063,0.00036
3502.41199,0.00026
3500.48335,0.00030
3498.55470,0.00039
3496.62606,0.00026
3494.69742,0.00014
3492.76878,0.00009
3490.84014,0.00037
3488.91150,0.00083
3486.98286,0.00080
3485.05422,0.00039
3483.12558,0.00033
3481.19694,0.00045
3479.26829,0.00033
3477.33965,0.00017
3475.41101,0.00034
3473.48237,0.00055
3471.55373,0.00053
3469.62509,0.00039
3467.69645,0.00013
3465.76781,0.00002
3463.83917,0.00026
3461.91053,0.00050
3459.98189,0.00061
3458.05324,0.00064
3456.12460,0.00058
3454.19596,0.00050
3452.26732,0.00040
3450.33868,0.00013
3448.41004,-0.00005
3446.48140,0.00018
3444.55276,0.00045
3442.62412,0.00050
3440.69548,0.00055
3438.76683,0.00041
3436.83819,0.00011
3434.90955,0.00016
3432.98091,0.00052
3431.05227,0.00066
3429.12363,0.00067
3427.19499,0.00048
3425.26635,0.00020
3423.33771,0.00011
3421.40907,0.00050
3419.48043,0.00042
3417.55178,0.00036
3415.62314,0.00044
3413.69450,0.00025
3411.76586,0.00013
3409.83722,0.00025
3407.90858,0.00022
3405.97994,0.00047
3404.05130,0.00066
3402.12266,0.00075
3400.19402,0.00038
3398.26537,0.00024
3396.33673,0.00026
3394.40809,0.00047
3392.47945,0.00064
3390.55081,0.00084
3388.62217,0.00095
3386.69353,0.00064
3384.76489,0.00017
3382.83625,0.00005
3380.90761,0.00028
3378.97896,0.00063
3377.05032,0.00055
3375.12168,0.00051
3373.19304,0.00062
3371.26440,0.00040
3369.33576,0.00021
3367.40712,0.00034
3365.47848,0.00040
3363.54984,0.00022
3361.62120,0.00012
3359.69256,0.00038
3357.76391,0.00062
3355.83527,0.00052
3353.90663,0.00021
3351.97799,0.00010
3350.04935,0.00020
3348.12071,0.00030
3346.19207,0.00038
3344.26343,0.00043
3342.33479,0.00036
3340.40615,0.00023
3338.47750,0.00046
3336.54886,0.00088
3334.62022,0.00094
3332.69158,0.00054
3330.76294,0.00028
3328.83430,0.00028
3326.90566,0.00013
3324.97702,0.00014
3323.04838,0.00028
3321.11974,0.00040
3319.19109,0.00025
3317.26245,0.00018
3315.33381,0.00048
3313.40517,0.00077
3311.47653,0.00081
3309.54789,0.00057
3307.61925,0.00036
3305.69061,0.00047
3303.76197,0.00037
3301.83333,0.00024
3299.90469,0.00040
3297.97604,0.00057
3296.04740,0.00040
3294.11876,0.00035
3292.19012,0.00044
3290.26148,0.00028
3288.33284,-0.00002
3286.40420,0.00025
3284.47556,0.00033
3282.54692,0.00040
3280.61828,0.00061
3278.68963,0.00067
3276.76099,0.00041
3274.83235,0.00031
3272.90371,0.00048
3270.97507,0.00052
3269.04643,0.00039
3267.11779,0.00022
3265.18915,0.00010
3263.26051,0.00029
3261.33187,0.00038
3259.40323,0.00043
3257.47458,0.00043
3255.54594,0.00048
3253.61730,0.00057
3251.68866,0.00055
3249.76002,0.00060
3247.83138,0.00068
3245.90274,0.00055
3243.97410,0.00070
3242.04546,0.00090
3240.11682,0.00098
3238.18817,0.00080
3236.25953,0.00049
3234.33089,0.00054
3232.40225,0.00074
3230.47361,0.00065
3228.54497,0.00031
3226.61633,0.00010
3224.68769,0.00067
3222.75905,0.00062
3220.83041,0.00038
3218.90176,0.00023
3216.97312,0.00015
3215.04448,0.00039
3213.11584,0.00076
3211.18720,0.00075
3209.25856,0.00027
3207.32992,0.00002
3205.40128,0.00041
3203.47264,0.00051
3201.54400,0.00041
3199.61536,0.00008
3197.68671,0.00047
3195.75807,0.00048
3193.82943,0.00023
3191.90079,0.00013
3189.97215,0.00031
3188.04351,0.00022
3186.11487,0.00017
3184.18623,0.00042
3182.25759,0.00055
3180.32895,0.00045
3178.40030,0.00065
3176.47166,0.00073
3174.54302,0.00047
3172.61438,0.00050
3170.68574,0.00063
3168.75710,0.00044
3166.82846,0.00034
3164.89982,0.00042
3162.97118,0.00056
3161.04254,0.00060
3159.11390,0.00042
3157.18525,0.00030
3155.25661,0.00068
3153.32797,0.00089
3151.39933,0.00089
3149.47069,0.00061
3147.54205,0.00026
3145.61341,0.00014
3143.68477,0.00020
3141.75613,0.00028
3139.82749,0.00022
3137.89884,0.00014
3135.97020,0.00018
3134.04156,-0.00003
3132.11292,0.00026
3130.18428,0.00037
3128.25564,0.00038
3126.32700,0.00035
3124.39836,0.00034
3122.46972,0.00042
3120.54108,0.00059
3118.61243,0.00063
3116.68379,0.00054
3114.75515,0.00030
3112.82651,0.00018
3110.89787,0.00046
3108.96923,0.00058
3107.04059,0.00043
3105.11195,0.00035
3103.18331,0.00044
3101.25467,0.00056
3099.32603,0.00045
3097.39738,0.00033
3095.46874,0.00036
3093.54010,0.00044
3091.61146,0.00042
3089.68282,0.00041
3087.75418,0.00043
3085.82554,0.00036
3083.89690,0.00013
3081.96826,0.00031
3080.03962,0.00045
3078.11097,0.00060
3076.18233,0.00067
3074.25369,0.00061
3072.32505,0.00043
3070.39641,0.00032
3068.46777,0.00027
3066.53913,0.00033
3064.61049,0.00037
3062.68185,0.00038
3060.75321,0.00054
3058.82457,0.00071
3056.89592,0.00068
3054.96728,0.00051
3053.03864,0.00041
3051.11000,0.00037
3049.18136,0.00015
3047.25272,0.00024
3045.32408,0.00028
3043.39544,0.00022
3041.46680,0.00016
3039.53816,0.00023
3037.60951,0.00033
3035.68087,0.00040
3033.75223,0.00055
3031.82359,0.00077
3029.89495,0.00082
3027.96631,0.00073
3026.03767,0.00061
3024.10903,0.00051
3022.18039,0.00050
3020.25175,0.00046
3018.32310,0.00033
3016.39446,0.00022
3014.46582,0.00022
3012.53718,0.00021
3010.60854,0.00027
3008.67990,0.00032
3006.75126,0.00034
3004.82262,0.00041
3002.89398,0.00052
3000.96534,0.00059
2999.03670,0.00061
2997.10805,0.00058
2995.17941,0.00040
2993.25077,0.00013
2991.32213,0.00002
2989.39349,0.00017
2987.46485,0.00044
2985.53621,0.00060
2983.60757,0.00042
2981.67893,0.00020
2979.75029,0.00040
2977.82164,0.00076
2975.89300,0.00073
2973.96436,0.00046
2972.03572,0.00024
2970.10708,0.00017
2968.17844,0.00021
2966.24980,0.00033
2964.32116,0.00047
2962.39252,0.00063
2960.46388,0.00074
2958.53524,0.00064
2956.60659,0.00034
2954.67795,0.00021
2952.74931,0.00043
2950.82067,0.00064
2948.89203,0.00060
2946.96339,0.00055
2945.03475,0.00065
2943.10611,0.00080
2941.17747,0.00068
2939.24883,0.00042
2937.32018,0.00016
2935.39154,0.00015
2933.46290,0.00016
2931.53426,0.00013
2929.60562,0.00014
2927.67698,0.00018
2925.74834,0.00015
2923.81970,0.00029
2921.89106,0.00050
2919.96242,0.00061
2918.03377,0.00058
2916.10513,0.00040
2914.17649,0.00016
2912.24785,0.00032
2910.31921,0.00045
2908.39057,0.00042
2906.46193,0.00028
2904.53329,0.00019
2902.60465,0.00012
2900.67601,0.00022
2898.74737,0.00026
2896.81872,0.00020
2894.89008,0.00030
2892.96144,0.00027
2891.03280,0.00012
2889.10416,0.00020
2887.17552,0.00048
2885.24688,0.00057
2883.31824,0.00031
2881.38960,0.00005
2879.46096,0.00007
2877.53231,0.00028
2875.60367,0.00040
2873.67503,0.00049
2871.74639,0.00036
2869.81775,0.00014
2867.88911,0.00014
2865.96047,0.00018
2864.03183,0.00007
2862.10319,0.00009
2860.17455,0.00015
2858.24591,0.00038
2856.31726,0.00042
2854.38862,0.00041
2852.45998,0.00042
2850.53134,0.00029
2848.60270,0.00026
2846.67406,0.00030
2844.74542,0.00036
2842.81678,0.00055
2840.88814,0.00051
2838.95950,0.00027
2837.03085,0.00005
2835.10221,-0.00004
2833.17357,0.00000
2831.24493,0.00013
2829.31629,0.00023
2827.38765,0.00023
2825.45901,0.00023
2823.53037,0.00010
2821.60173,0.00012
2819.67309,0.00025
2817.74444,0.00007
2815.81580,0.00033
2813.88716,0.00047
2811.95852,0.00036
2810.02988,0.00026
2808.10124,0.00043
2806.17260,0.00063
2804.24396,0.00064
2802.31532,0.00049
2800.38668,0.00041
2798.45804,0.00043
2796.52939,0.00040
2794.60075,0.00035
2792.67211,0.00036
2790.74347,0.00038
2788.81483,0.00044
2786.88619,0.00043
2784.95755,0.00056
2783.02891,0.00071
2781.10027,0.00046
2779.17163,0.00008
2777.24298,0.00002
2775.31434,0.00019
2773.38570,0.00035
2771.45706,0.00056
2769.52842,0.00071
2767.59978,0.00057
2765.67114,0.00023
2763.74250,0.00000
2761.81386,-0.00003
2759.88522,-0.00000
2757.95658,0.00018
2756.02793,0.00036
2754.09929,0.00037
2752.17065,0.00034
2750.24201,0.00035
2748.31337,0.00028
2746.38473,0.00019
2744.45609,0.00018
2742.52745,0.00020
2740.59881,0.00018
2738.67017,0.00013
2736.74152,0.00013
2734.81288,0.00031
2732.88424,0.00049
2730.95560,0.00043
2729.02696,0.00027
2727.09832,0.00023
2725.16968,0.00019
2723.24104,0.00023
2721.31240,0.00028
2719.38376,0.00024
2717.45511,0.00027
2715.52647,0.00039
2713.59783,0.00040
2711.66919,0.00045
2709.74055,0.00048
2707.81191,0.00032
2705.88327,0.00031
2703.95463,0.00036
2702.02599,0.00022
2700.09735,0.00023
2698.16871,0.00035
2696.24006,0.00035
2694.31142,0.00024
2692.38278,0.00022
2690.45414,0.00027
2688.52550,0.00035
2686.59686,0.00033
2684.66822,0.00022
2682.73958,-0.00004
2680.81094,0.00012
2678.88230,0.00022
2676.95365,0.00028
2675.02501,0.00035
2673.09637,0.00034
2671.16773,0.00029
2669.23909,0.00028
2667.31045,0.00017
2665.38181,0.00008
2663.45317,0.00016
2661.52453,0.00033
2659.59589,0.00040
2657.66725,0.00026
2655.73860,0.00014
2653.80996,0.00021
2651.88132,0.00025
2649.95268,0.00033
2648.02404,0.00041
2646.09540,0.00036
2644.16676,0.00021
2642.23812,0.00012
2640.30948,0.00012
2638.38084,0.00036
2636.45219,0.00035
2634.52355,0.00030
2632.59491,0.00034
2630.66627,0.00036
2628.73763,0.00026
2626.80899,0.00037
2624.88035,0.00036
2622.95171,0.00012
2621.02307,0.00014
2619.09443,0.00032
2617.16578,0.00035
2615.23714,0.00025
2613.30850,0.00016
2611.37986,0.00035
2609.45122,0.00054
2607.52258,0.00063
2605.59394,0.00056
2603.66530,0.00034
2601.73666,0.00009
2599.80802,-0.00003
2597.87938,0.00004
2595.95073,0.00029
2594.02209,0.00041
2592.09345,0.00038
2590.16481,0.00036
2588.23617,0.00029
2586.30753,0.00019
2584.37889,0.00027
2582.45025,0.00037
2580.52161,0.00029
2578.59297,0.00011
2576.66432,0.00016
2574.73568,0.00026
2572.80704,0.00037
2570.87840,0.00032
2568.94976,0.00048
2567.02112,0.00052
2565.09248,0.00047
2563.16384,0.00035
2561.23520,0.00021
2559.30656,0.00008
2557.37792,0.00010
2555.44927,0.00015
2553.52063,0.00016
2551.59199,0.00022
2549.66335,0.00033
2547.73471,0.00036
2545.80607,0.00038
2543.87743,0.00045
2541.94879,0.00046
2540.02015,0.00047
2538.09151,0.00063
2536.16286,0.00074
2534.23422,0.00064
2532.30558,0.00048
2530.37694,0.00039
2528.44830,0.00039
2526.51966,0.00063
2524.59102,0.00103
2522.66238,0.00130
2520.73374,0.00128
2518.80510,0.00116
2516.87645,0.00120
2514.94781,0.00130
2513.01917,0.00120
2511.09053,0.00101
2509.16189,0.00105
2507.23325,0.00129
2505.30461,0.00153
2503.37597,0.00163
2501.44733,0.00161
2499.51869,0.00164
2497.59005,0.00167
2495.66140,0.00160
2493.73276,0.00155
2491.80412,0.00159
2489.87548,0.00158
2487.94684,0.00154
2486.01820,0.00153
2484.08956,0.00154
2482.16092,0.00147
2480.23228,0.00143
2478.30364,0.00148
2476.37499,0.00151
2474.44635,0.00153
2472.51771,0.00171
2470.58907,0.00201
2468.66043,0.00225
2466.73179,0.00240
2464.80315,0.00261
2462.87451,0.00283
2460.94587,0.00303
2459.01723,0.00333
2457.08859,0.00374
2455.15994,0.00417
2453.23130,0.00452
2451.30266,0.00482
2449.37402,0.00505
2447.44538,0.00515
2445.51674,0.00525
2443.58810,0.00551
2441.65946,0.00578
2439.73082,0.00584
2437.80218,0.00582
2435.87353,0.00588
2433.94489,0.00591
2432.01625,0.00584
2430.08761,0.00582
2428.15897,0.00599
2426.23033,0.00620
2424.30169,0.00627
2422.37305,0.00629
2420.44441,0.00648
2418.51577,0.00669
2416.58712,0.00672
2414.65848,0.00664
2412.72984,0.00658
2410.80120,0.00670
2408.87256,0.00696
2406.94392,0.00712
2405.01528,0.00714
2403.08664,0.00718
2401.15800,0.00729
2399.22936,0.00736
2397.30072,0.00728
2395.37207,0.00702
2393.44343,0.00678
2391.51479,0.00667
2389.58615,0.00653
2387.65751,0.00635
2385.72887,0.00612
2383.80023,0.00580
2381.87159,0.00548
2379.94295,0.00525
2378.01431,0.00505
2376.08566,0.00484
2374.15702,0.00458
2372.22838,0.00432
2370.29974,0.00416
2368.37110,0.00408
2366.44246,0.00399
2364.51382,0.00389
2362.58518,0.00385
2360.65654,0.00388
2358.72790,0.00394
2356.79926,0.00418
2354.87061,0.00465
2352.94197,0.00513
2351.01333,0.00540
2349.08469,0.00542
2347.15605,0.00511
2345.22741,0.00464
2343.29877,0.00428
2341.37013,0.00397
2339.44149,0.00354
2337.51285,0.00313
2335.58420,0.00291
2333.65556,0.00277
2331.72692,0.00262
2329.79828,0.00248
2327.86964,0.00239
2325.94100,0.00234
2324.01236,0.00235
2322.08372,0.00244
2320.15508,0.00255
2318.22644,0.00277
2316.29779,0.00312
2314.36915,0.00350
2312.44051,0.00382
2310.51187,0.00413
2308.58323,0.00447
2306.65459,0.00489
2304.72595,0.00527
2302.79731,0.00552
2300.86867,0.00574
2298.94003,0.00605
2297.01139,0.00634
2295.08274,0.00650
2293.15410,0.00655
2291.22546,0.00657
2289.29682,0.00652
2287.36818,0.00640
2285.43954,0.00633
2283.51090,0.00631
2281.58226,0.00635
2279.65362,0.00644
2277.72498,0.00653
2275.79633,0.00656
2273.86769,0.00650
2271.93905,0.00641
2270.01041,0.00630
2268.08177,0.00615
2266.15313,0.00593
2264.22449,0.00565
2262.29585,0.00540
2260.36721,0.00528
2258.43857,0.00525
2256.50993,0.00527
2254.58128,0.00525
2252.65264,0.00513
2250.72400,0.00497
2248.79536,0.00483
2246.86672,0.00468
2244.93808,0.00460
2243.00944,0.00460
2241.08080,0.00464
2239.15216,0.00471
2237.22352,0.00469
2235.29487,0.00448
2233.36623,0.00428
2231.43759,0.00409
2229.50895,0.00381
2227.58031,0.00350
2225.65167,0.00325
2223.72303,0.00306
2221.79439,0.00294
2219.86575,0.00283
2217.93711,0.00276
2216.00846,0.00278
2214.07982,0.00279
2212.15118,0.00273
2210.22254,0.00269
2208.29390,0.00269
2206.36526,0.00268
2204.43662,0.00267
2202.50798,0.00265
2200.57934,0.00258
2198.65070,0.00242
2196.72206,0.00220
2194.79341,0.00205
2192.86477,0.00196
2190.93613,0.00184
2189.00749,0.00167
2187.07885,0.00159
2185.15021,0.00167
2183.22157,0.00180
2181.29293,0.00179
2179.36429,0.00165
2177.43565,0.00159
2175.50700,0.00171
2173.57836,0.00182
2171.64972,0.00179
2169.72108,0.00172
2167.79244,0.00161
2165.86380,0.00146
2163.93516,0.00141
2162.00652,0.00149
2160.07788,0.00151
2158.14924,0.00145
2156.22060,0.00150
2154.29195,0.00155
2152.36331,0.00152
2150.43467,0.00155
2148.50603,0.00166
2146.57739,0.00179
2144.64875,0.00192
2142.72011,0.00196
2140.79147,0.00196
2138.86283,0.00203
2136.93419,0.00212
2135.00554,0.00219
2133.07690,0.00225
2131.14826,0.00233
2129.21962,0.00251
2127.29098,0.00277
2125.36234,0.00296
2123.43370,0.00302
2121.50506,0.00307
2119.57642,0.00312
2117.64778,0.00315
2115.71913,0.00314
2113.79049,0.00311
2111.86185,0.00315
2109.93321,0.00322
2108.00457,0.00327
2106.07593,0.00334
2104.14729,0.00338
2102.21865,0.00331
2100.29001,0.00321
2098.36137,0.00320
2096.43273,0.00324
2094.50408,0.00329
2092.57544,0.00340
2090.64680,0.00355
2088.71816,0.00367
2086.78952,0.00378
2084.86088,0.00393
2082.93224,0.00406
2081.00360,0.00418
2079.07496,0.00437
2077.14632,0.00454
2075.21767,0.00461
2073.28903,0.00468
2071.36039,0.00477
2069.43175,0.00479
2067.50311,0.00473
2065.57447,0.00472
2063.64583,0.00475
2061.71719,0.00468
2059.78855,0.00455
2057.85991,0.00448
2055.93127,0.00443
2054.00262,0.00445
2052.07398,0.00461
2050.14534,0.00484
2048.21670,0.00511
2046.28806,0.00538
2044.35942,0.00560
2042.43078,0.00582
2040.50214,0.00607
2038.57350,0.00629
2036.64486,0.00648
2034.71621,0.00664
2032.78757,0.00675
2030.85893,0.00688
2028.93029,0.00712
2027.00165,0.00745
2025.07301,0.00794
2023.14437,0.00853
2021.21573,0.00908
2019.28709,0.00953
2017.35845,0.00984
2015.42980,0.01003
2013.50116,0.01023
2011.57252,0.01041
2009.64388,0.01049
2007.71524,0.01041
2005.78660,0.01025
2003.85796,0.01018
2001.92932,0.01027
2000.00068,0.01048
1998.07204,0.01074
1996.14340,0.01104
1994.21475,0.01139
1992.28611,0.01172
1990.35747,0.01206
1988.42883,0.01240
1986.50019,0.01259
1984.57155,0.01261
1982.64291,0.01258
1980.71427,0.01258
1978.78563,0.01255
1976.85699,0.01243
1974.92834,0.01224
1972.99970,0.01203
1971.07106,0.01186
1969.14242,0.01175
1967.21378,0.01177
1965.28514,0.01206
1963.35650,0.01253
1961.42786,0.01305
1959.49922,0.01361
1957.57058,0.01413
1955.64194,0.01452
1953.71329,0.01490
1951.78465,0.01530
1949.85601,0.01563
1947.92737,0.01594
1945.99873,0.01632
1944.07009,0.01668
1942.14145,0.01702
1940.21281,0.01732
1938.28417,0.01748
1936.35553,0.01744
1934.42688,0.01733
1932.49824,0.01728
1930.56960,0.01729
1928.64096,0.01723
1926.71232,0.01706
1924.78368,0.01698
1922.85504,0.01711
1920.92640,0.01726
1918.99776,0.01717
1917.06912,0.01692
1915.14047,0.01668
1913.21183,0.01629
1911.28319,0.01562
1909.35455,0.01482
1907.42591,0.01413
1905.49727,0.01354
1903.56863,0.01299
1901.63999,0.01256
1899.71135,0.01223
1897.78271,0.01185
1895.85407,0.01136
1893.92542,0.01078
1891.99678,0.01010
1890.06814,0.00928
1888.13950,0.00846
1886.21086,0.00785
1884.28222,0.00746
1882.35358,0.00717
1880.42494,0.00709
1878.49630,0.00729
1876.56766,0.00757
1874.63901,0.00773
1872.71037,0.00784
1870.78173,0.00801
1868.85309,0.00830
1866.92445,0.00875
1864.99581,0.00913
1863.06717,0.00925
1861.13853,0.00919
1859.20989,0.00903
1857.28125,0.00882
1855.35261,0.00867
1853.42396,0.00850
1851.49532,0.00823
1849.56668,0.00791
1847.63804,0.00754
1845.70940,0.00718
1843.78076,0.00683
1841.85212,0.00657
1839.92348,0.00639
1837.99484,0.00616
1836.06620,0.00583
1834.13755,0.00546
1832.20891,0.00511
1830.28027,0.00478
1828.35163,0.00448
1826.42299,0.00420
1824.49435,0.00386
1822.56571,0.00351
1820.63707,0.00321
1818.70843,0.00302
1816.77979,0.00290
1814.85114,0.00274
1812.92250,0.00253
1810.99386,0.00231
1809.06522,0.00209
1807.13658,0.00190
1805.20794,0.00174
1803.27930,0.00154
1801.35066,0.00136
1799.42202,0.00119
1797.49338,0.00095
1795.56474,0.00073
1793.63609,0.00067
1791.70745,0.00064
1789.77881,0.00057
1787.85017,0.00050
1785.92153,0.00043
1783.99289,0.00026
1782.06425,0.00014
1780.13561,0.00017
1778.20697,0.00025
1776.27833,0.00021
1774.34968,0.00011
1772.42104,0.00017
1770.49240,0.00022
1768.56376,0.00011
1766.63512,0.00005
1764.70648,0.00011
1762.77784,0.00015
1760.84920,0.00016
1758.92056,0.00017
1756.99192,0.00015
1755.06328,0.00017
1753.13463,0.00016
1751.20599,0.00013
1749.27735,0.00018
1747.34871,0.00024
1745.42007,0.00009
1743.49143,0.00023
1741.56279,0.00032
1739.63415,0.00027
1737.70551,0.00028
1735.77687,0.00039
1733.84822,0.00048
1731.91958,0.00058
1729.99094,0.00059
1728.06230,0.00046
1726.13366,0.00042
1724.20502,0.00050
1722.27638,0.00043
1720.34774,0.00023
1718.41910,0.00008
1716.49046,0.00036
1714.56181,0.00039
1712.63317,0.00020
1710.70453,0.00005
1708.77589,0.00028
1706.84725,0.00017
1704.91861,0.00014
1702.98997,0.00020
1701.06133,0.00031
1699.13269,0.00029
1697.20405,0.00029
1695.27541,0.00033
1693.34676,0.00026
1691.41812,0.00013
1689.48948,0.00014
1687.56084,0.00028
1685.63220,0.00037
1683.70356,0.00023
1681.77492,0.00015
1679.84628,0.00015
1677.91764,0.00025
1675.98900,0.00021
1674.06035,0.00016
1672.13171,0.00019
1670.20307,0.00024
1668.27443,0.00024
1666.34579,0.00026
1664.41715,0.00024
1662.48851,0.00023
1660.55987,0.00021
1658.63123,0.00034
1656.70259,0.00047
1654.77395,0.00050
1652.84530,0.00054
1650.91666,0.00044
1648.98802,0.00031
1647.05938,0.00033
1645.13074,0.00028
1643.20210,0.00025
1641.27346,0.00016
1639.34482,0.00008
1637.41618,0.00020
1635.48754,0.00034
1633.55889,0.00015
1631.63025,0.00003
1629.70161,0.00018
1627.77297,0.00035
1625.84433,0.00038
1623.91569,0.00032
1621.98705,0.00022
1620.05841,0.00016
1618.12977,0.00021
1616.20113,0.00028
1614.27248,0.00026
1612.34384,0.00035
1610.41520,0.00048
1608.48656,0.00044
1606.55792,0.00034
1604.62928,0.00027
1602.70064,0.00021
1600.77200,0.00024
1598.84336,0.00025
1596.91472,0.00028
1594.98608,0.00025
1593.05743,0.00019
1591.12879,0.00009
1589.20015,0.00014
1587.27151,0.00024
1585.34287,0.00030
1583.41423,0.00031
1581.48559,0.00030
1579.55695,0.00026
1577.62831,0.00027
1575.69967,0.00019
1573.77102,0.00018
1571.84238,0.00031
1569.91374,0.00033
1567.98510,0.00016
1566.05646,0.00015
1564.12782,0.00011
1562.19918,0.00020
1560.27054,0.00037
1558.34190,0.00057
1556.41326,0.00057
1554.48462,0.00047
1552.55597,0.00046
1550.62733,0.00054
1548.69869,0.00052
1546.77005,0.00038
1544.84141,0.00027
1542.91277,0.00027
1540.98413,0.00018
1539.05549,0.00025
1537.12685,0.00034
1535.19821,0.00036
1533.26956,0.00027
1531.34092,0.00017
1529.41228,0.00016
1527.48364,0.00033
1525.55500,0.00038
1523.62636,0.00027
1521.69772,0.00010
1519.76908,0.00006
1517.84044,0.00011
1515.91180,0.00009
1513.98315,0.00008
1512.05451,0.00020
1510.12587,0.00028
1508.19723,0.00028
1506.26859,0.00034
1504.33995,0.00042
1502.41131,0.00040
1500.48267,0.00033
1498.55403,0.00030
1496.62539,0.00043
1494.69675,0.00056
1492.76810,0.00041
1490.83946,0.00009
1488.91082,0.00009
1486.98218,0.00024
1485.05354,0.00027
1483.12490,0.00030
1481.19626,0.00044
1479.26762,0.00048
1477.33898,0.00036
1475.41034,0.00024
1473.48169,0.00025
1471.55305,0.00030
1469.62441,0.00031
1467.69577,0.00033
1465.76713,0.00043
1463.83849,0.00049
1461.90985,0.00047
1459.98121,0.00035
1458.05257,0.00019
1456.12393,0.00019
1454.19529,0.00029
1452.26664,0.00033
1450.33800,0.00035
1448.40936,0.00035
1446.48072,0.00031
1444.55208,0.00028
1442.62344,0.00033
1440.69480,0.00035
1438.76616,0.00034
1436.83752,0.00030
1434.90888,0.00030
1432.98023,0.00025
1431.05159,0.00020
1429.12295,0.00023
1427.19431,0.00024
1425.26567,0.00014
1423.33703,0.00014
1421.40839,0.00030
1419.47975,0.00042
1417.55111,0.00034
1415.62247,0.00029
1413.69382,0.00030
1411.76518,0.00027
1409.83654,0.00017
1407.90790,0.00003
1405.97926,-0.00003
1404.05062,0.00016
1402.12198,0.00020
1400.19334,0.00039
1398.26470,0.00053
1396.33606,0.00049
1394.40742,0.00044
1392.47877,0.00044
1390.55013,0.00033
1388.62149,0.00021
1386.69285,0.00027
1384.76421,0.00046
1382.83557,0.00060
1380.90693,0.00054
1378.97829,0.00036
1377.04965,0.00028
1375.12101,0.00035
1373.19236,0.00042
1371.26372,0.00027
1369.33508,0.00030
1367.40644,0.00029
1365.47780,0.00010
1363.54916,0.00006
1361.62052,0.00021
1359.69188,0.00029
1357.76324,0.00033
1355.83460,0.00041
1353.90596,0.00051
1351.97731,0.00049
1350.04867,0.00037
1348.12003,0.00029
1346.19139,0.00040
1344.26275,0.00041
1342.33411,0.00027
1340.40547,0.00022
1338.47683,0.00029
1336.54819,0.00030
1334.61955,0.00027
1332.69090,0.00023
1330.76226,0.00023
1328.83362,0.00024
1326.90498,0.00023
1324.97634,0.00022
1323.04770,0.00019
1321.11906,0.00029
1319.19042,0.00049
1317.26178,0.00046
1315.33314,0.00037
1313.40449,0.00037
1311.47585,0.00034
1309.54721,0.00028
1307.61857,0.00027
1305.68993,0.00027
1303.76129,0.00033
1301.83265,0.00046
1299.90401,0.00052
1297.97537,0.00049
1296.04673,0.00046
1294.11809,0.00037
1292.18944,0.00025
1290.26080,0.00020
1288.33216,0.00028
1286.40352,0.00030
1284.47488,0.00032
1282.54624,0.00035
1280.61760,0.00032
1278.68896,0.00029
1276.76032,0.00031
1274.83168,0.00029
1272.90303,0.00021
1270.97439,0.00010
1269.04575,0.00009
1267.11711,0.00012
1265.18847,0.00020
1263.25983,0.00034
1261.33119,0.00029
1259.40255,0.00031
1257.47391,0.00047
1255.54527,0.00048
1253.61663,0.00034
1251.68798,0.00017
1249.75934,0.00015
1247.83070,0.00015
1245.90206,0.00019
1243.97342,0.00024
1242.04478,0.00025
1240.11614,0.00022
1238.18750,0.00034
1236.25886,0.00049
1234.33022,0.00046
1232.40157,0.00030
1230.47293,0.00023
1228.54429,0.00012
1226.61565,0.00022
1224.68701,0.00039
1222.75837,0.00032
1220.82973,0.00019
1218.90109,0.00027
1216.97245,0.00023
1215.04381,0.00017
1213.11516,0.00028
1211.18652,0.00039
1209.25788,0.00047
1207.32924,0.00053
1205.40060,0.00047
1203.47196,0.00043
1201.54332,0.00054
1199.61468,0.00073
1197.68604,0.00073
1195.75740,0.00064
1193.82876,0.00057
1191.90011,0.00053
1189.97147,0.00040
1188.04283,0.00031
1186.11419,0.00036
1184.18555,0.00045
1182.25691,0.00054
1180.32827,0.00065
1178.39963,0.00070
1176.47099,0.00053
1174.54235,0.00014
1172.61370,0.00009
1170.68506,0.00004
1168.75642,0.00006
1166.82778,0.00018
1164.89914,0.00046
1162.97050,0.00058
1161.04186,0.00044
1159.11322,0.00021
1157.18458,0.00024
1155.25594,0.00039
1153.32730,0.00061
1151.39865,0.00053
1149.47001,0.00038
1147.54137,0.00037
1145.61273,0.00035
1143.68409,0.00014
1141.75545,0.00018
1139.82681,0.00031
1137.89817,0.00028
1135.96953,0.00047
1134.04089,0.00062
1132.11224,0.00055
1130.18360,0.00058
1128.25496,0.00063
1126.32632,0.00059
1124.39768,0.00049
1122.46904,0.00042
1120.54040,0.00044
1118.61176,0.00070
1116.68312,0.00088
1114.75448,0.00083
1112.82583,0.00068
1110.89719,0.00042
1108.96855,0.00038
1107.03991,0.00049
1105.11127,0.00053
1103.18263,0.00055
1101.25399,0.00063
1099.32535,0.00065
1097.39671,0.00055
1095.46807,0.00037
1093.53943,0.00024
1091.61078,0.00054
1089.68214,0.00066
1087.75350,0.00066
1085.82486,0.00057
1083.89622,0.00055
1081.96758,0.00061
1080.03894,0.00073
1078.11030,0.00068
1076.18166,0.00058
1074.25302,0.00039
1072.32437,0.00047
1070.39573,0.00061
1068.46709,0.00074
1066.53845,0.00072
1064.60981,0.00043
1062.68117,0.00013
1060.75253,0.00026
1058.82389,0.00055
1056.89525,0.00066
1054.96661,0.00068
1053.03797,0.00067
1051.10932,0.00039
1049.18068,0.00041
1047.25204,0.00049
1045.32340,0.00048
1043.39476,0.00031
1041.46612,0.00018
1039.53748,0.00035
1037.60884,0.00077
1035.68020,0.00113
1033.75156,0.00112
1031.82291,0.00086
1029.89427,0.00069
1027.96563,0.00055
1026.03699,0.00036
1024.10835,0.00028
1022.17971,0.00078
1020.25107,0.00082
1018.32243,0.00055
1016.39379,0.00049
1014.46515,0.00074
1012.53650,0.00059
1010.60786,0.00023
1008.67922,0.00006
1006.75058,0.00039
1004.82194,0.00067
1002.89330,0.00063
1000.96466,0.00035
999.03602,0.00028
997.10738,0.00039
995.17874,0.00041
993.25010,0.00033
991.32145,0.00046
989.39281,0.00078
987.46417,0.00091
985.53553,0.00075
983.60689,0.00062
981.67825,0.00063
979.74961,0.00056
977.82097,0.00041
975.89233,0.00032
973.96369,0.00022
972.03504,0.00025
970.10640,0.00024
968.17776,0.00014
966.24912,0.00020
964.32048,0.00037
962.39184,0.00039
960.46320,0.00057
958.53456,0.00060
956.60592,0.00031
954.67728,0.00013
952.74864,0.00026
950.81999,0.00044
948.89135,0.00056
946.96271,0.00057
945.03407,0.00055
943.10543,0.00039
941.17679,0.00021
939.24815,0.00023
937.31951,0.00049
935.39087,0.00077
933.46223,0.00086
931.53358,0.00064
929.60494,0.00052
927.67630,0.00065
925.74766,0.00081
923.81902,0.00074
921.89038,0.00050
919.96174,0.00033
918.03310,0.00033
916.10446,0.00033
914.17582,0.00024
912.24717,0.00012
910.31853,0.00014
908.38989,0.00024
906.46125,0.00033
904.53261,0.00045
902.60397,0.00051
900.67533,0.00060
898.74669,0.00065
896.81805,0.00060
894.88941,0.00063
892.96077,0.00065
891.03212,0.00047
889.10348,0.00023
887.17484,0.00007
885.24620,0.00007
883.31756,0.00028
881.38892,0.00059
879.46028,0.00099
877.53164,0.00112
875.60300,0.00086
873.67436,0.00056
871.74571,0.00059
869.81707,0.00063
867.88843,0.00041
865.95979,0.00036
864.03115,0.00062
862.10251,0.00084
860.17387,0.00083
858.24523,0.00068
856.31659,0.00076
854.38795,0.00062
852.45931,0.00017
850.53066,-0.00010
848.60202,0.00036
846.67338,0.00065
844.74474,0.00069
842.81610,0.00054
840.88746,0.00044
838.95882,0.00071
837.03018,0.00105
835.10154,0.00088
833.17290,0.00041
831.24425,0.00024
829.31561,0.00040
827.38697,0.00063
825.45833,0.00080
823.52969,0.00096
821.60105,0.00105
819.67241,0.00095
817.74377,0.00080
815.81513,0.00060
813.88649,0.00040
811.95784,0.00027
810.02920,0.00022
808.10056,0.00035
806.17192,0.00078
804.24328,0.00121
802.31464,0.00130
800.38600,0.00117
798.45736,0.00104
796.52872,0.00081
794.60008,0.00078
792.67144,0.00102
790.74279,0.00100
788.81415,0.00081
786.88551,0.00082
784.95687,0.00066
783.02823,0.00028
781.09959,-0.00000
779.17095,0.00008
777.24231,0.00045
775.31367,0.00076
773.38503,0.00080
771.45638,0.00071
769.52774,0.00061
767.59910,0.00055
765.67046,0.00059
763.74182,0.00070
761.81318,0.00075
759.88454,0.00083
757.95590,0.00103
756.02726,0.00116
754.09862,0.00113
752.16998,0.00102
750.24133,0.00080
748.31269,0.00056
746.38405,0.00044
744.45541,0.00056
742.52677,0.00074
740.59813,0.00068
738.66949,0.00046
736.74085,0.00057
734.81221,0.00084
732.88357,0.00093
730.95492,0.00070
729.02628,0.00035
727.09764,0.00023
725.16900,0.00058
723.24036,0.00107
721.31172,0.00133
719.38308,0.00122
717.45444,0.00098
715.52580,0.00075
713.59716,0.00073
711.66851,0.00089
709.73987,0.00071
707.81123,0.00026
705.88259,0.00024
703.95395,0.00045
702.02531,0.00052
700.09667,0.00072
698.16803,0.00086
696.23939,0.00061
694.31075,0.00051
692.38211,0.00077
690.45346,0.00090
688.52482,0.00100
686.59618,0.00121
684.66754,0.00120
682.73890,0.00095
680.81026,0.00086
678.88162,0.00119
676.95298,0.00118
675.02434,0.00083
673.09570,0.00043
671.16705,0.00056
669.23841,0.00070
667.30977,0.00089
665.38113,0.00060
663.45249,0.00067
661.52385,0.00091
659.59521,0.00098
657.66657,0.00094
655.73793,0.00085
653.80929,0.00035
651.88065,0.00010
649.95200,0.00052
648.02336,0.00150
646.09472,0.00168
644.16608,0.00124
642.23744,0.00115
640.30880,0.00132
638.38016,0.00036
636.45152,0.00052
634.52288,0.00155
632.59424,0.00202
630.66559,0.00231
628.73695,0.00219
626.80831,0.00182
624.87967,0.00131
622.95103,0.00068
621.02239,0.00044
619.09375,0.00060
617.16511,0.00051
615.23647,0.00082
613.30783,0.00140
611.37918,0.00155
609.45054,0.00172
607.52190,0.00186
605.59326,0.00161
603.66462,0.00145
601.73598,0.00162
599.80734,0.00160
