7497.03301,0.52299
7495.10426,0.52207
7493.17552,0.51859
7491.24677,0.51645
7489.31803,0.51508
7487.38928,0.51115
7485.46054,0.50733
7483.53179,0.50458
7481.60305,0.50294
7479.67430,0.50529
7477.74556,0.50746
7475.81681,0.50352
7473.88807,0.49702
7471.95932,0.49552
7470.03057,0.49918
7468.10183,0.50185
7466.17308,0.50150
7464.24434,0.49693
7462.31559,0.48722
7460.38685,0.47901
7458.45810,0.47762
7456.52936,0.47946
7454.60061,0.47930
7452.67187,0.47668
7450.74312,0.47363
7448.81438,0.47275
7446.88563,0.47318
7444.95689,0.46997
7443.02814,0.46459
7441.09940,0.46135
7439.17065,0.45669
7437.24190,0.44827
7435.31316,0.44255
7433.38441,0.44356
7431.45567,0.44578
7429.52692,0.44354
7427.59818,0.43872
7425.66943,0.43543
7423.74069,0.43318
7421.81194,0.42897
7419.88320,0.42347
7417.95445,0.41919
7416.02571,0.41619
7414.09696,0.41410
7412.16822,0.41258
7410.23947,0.41043
7408.31073,0.40598
7406.38198,0.39923
7404.45323,0.39476
7402.52449,0.39495
7400.59574,0.39646
7398.66700,0.39700
7396.73825,0.39460
7394.80951,0.38996
7392.88076,0.38862
7390.95202,0.38880
7389.02327,0.38541
7387.09453,0.38234
7385.16578,0.38201
7383.23704,0.38107
7381.30829,0.37909
7379.37955,0.37798
7377.45080,0.37927
7375.52205,0.38121
7373.59331,0.37893
7371.66456,0.37283
7369.73582,0.36839
7367.80707,0.36707
7365.87833,0.36524
7363.94958,0.36071
7362.02084,0.35682
7360.09209,0.35657
7358.16335,0.35682
7356.23460,0.35561
7354.30586,0.35438
7352.37711,0.35287
7350.44837,0.35279
7348.51962,0.35452
7346.59088,0.35311
7344.66213,0.34797
7342.73338,0.34467
7340.80464,0.34621
7338.87589,0.34965
7336.94715,0.35289
7335.01840,0.35581
7333.08966,0.35564
7331.16091,0.35246
7329.23217,0.35209
7327.30342,0.35546
7325.37468,0.35594
7323.44593,0.35232
7321.51719,0.35025
7319.58844,0.35074
7317.65970,0.35204
7315.73095,0.35324
7313.80221,0.35146
7311.87346,0.34560
7309.94471,0.34038
7308.01597,0.34227
7306.08722,0.34954
7304.15848,0.35384
7302.22973,0.35471
7300.30099,0.35767
7298.37224,0.36167
7296.44350,0.36223
7294.51475,0.36025
7292.58601,0.35779
7290.65726,0.35407
7288.72852,0.35091
7286.79977,0.35077
7284.87103,0.35128
7282.94228,0.35034
7281.01353,0.34954
7279.08479,0.34953
7277.15604,0.34880
7275.22730,0.34741
7273.29855,0.34662
7271.36981,0.34602
7269.44106,0.34498
7267.51232,0.34505
7265.58357,0.34577
7263.65483,0.34358
7261.72608,0.33963
7259.79734,0.33757
7257.86859,0.33662
7255.93985,0.33643
7254.01110,0.33787
7252.08236,0.34066
7250.15361,0.34290
7248.22486,0.34224
7246.29612,0.33942
7244.36737,0.33581
7242.43863,0.33264
7240.50988,0.33231
7238.58114,0.33485
7236.65239,0.33787
7234.72365,0.33985
7232.79490,0.34029
7230.86616,0.33928
7228.93741,0.33862
7227.00867,0.33834
7225.07992,0.33736
7223.15118,0.33656
7221.22243,0.33460
7219.29369,0.33145
7217.36494,0.33098
7215.43619,0.33289
7213.50745,0.33379
7211.57870,0.33227
7209.64996,0.33023
7207.72121,0.33092
7205.79247,0.33289
7203.86372,0.33268
7201.93498,0.33174
7200.00623,0.33159
7198.07749,0.32970
7196.14874,0.32632
7194.22000,0.32597
7192.29125,0.32917
7190.36251,0.33046
7188.43376,0.32705
7186.50501,0.32327
7184.57627,0.32250
7182.64752,0.32323
7180.71878,0.32414
7178.79003,0.32560
7176.86129,0.32726
7174.93254,0.32723
7173.00380,0.32413
7171.07505,0.32113
7169.14631,0.32142
7167.21756,0.32207
7165.28882,0.32142
7163.36007,0.32180
7161.43133,0.32269
7159.50258,0.32249
7157.57384,0.32162
7155.64509,0.32051
7153.71634,0.31898
7151.78760,0.31735
7149.85885,0.31588
7147.93011,0.31479
7146.00136,0.31438
7144.07262,0.31306
7142.14387,0.30970
7140.21513,0.30661
7138.28638,0.30465
7136.35764,0.30200
7134.42889,0.29990
7132.50015,0.30009
7130.57140,0.29969
7128.64266,0.29683
7126.71391,0.29313
7124.78516,0.29057
7122.85642,0.29012
7120.92767,0.29038
7118.99893,0.29188
7117.07018,0.29576
7115.14144,0.29802
7113.21269,0.29632
7111.28395,0.29480
7109.35520,0.29674
7107.42646,0.29863
7105.49771,0.29678
7103.56897,0.29339
7101.64022,0.29137
7099.71148,0.29171
7097.78273,0.29285
7095.85399,0.29233
7093.92524,0.29174
7091.99649,0.29303
7090.06775,0.29511
7088.13900,0.29686
7086.21026,0.29771
7084.28151,0.29557
7082.35277,0.29036
7080.42402,0.28774
7078.49528,0.28942
7076.56653,0.29036
7074.63779,0.28979
7072.70904,0.28961
7070.78030,0.28898
7068.85155,0.28826
7066.92281,0.28850
7064.99406,0.28950
7063.06532,0.29204
7061.13657,0.29486
7059.20782,0.29465
7057.27908,0.29257
7055.35033,0.29207
7053.42159,0.29238
7051.49284,0.29171
7049.56410,0.29110
7047.63535,0.29080
7045.70661,0.29075
7043.77786,0.29294
7041.84912,0.29664
7039.92037,0.29799
7037.99163,0.29632
7036.06288,0.29553
7034.13414,0.29757
7032.20539,0.29839
7030.27664,0.29644
7028.34790,0.29632
7026.41915,0.29905
7024.49041,0.30106
7022.56166,0.30206
7020.63292,0.30347
7018.70417,0.30444
7016.77543,0.30522
7014.84668,0.30696
7012.91794,0.30943
7010.98919,0.31120
7009.06045,0.31056
7007.13170,0.30999
7005.20296,0.31325
7003.27421,0.31623
7001.34547,0.31495
6999.41672,0.31471
6997.48797,0.31738
6995.55923,0.31824
6993.63048,0.31711
6991.70174,0.31547
6989.77299,0.31375
6987.84425,0.31469
6985.91550,0.32006
6983.98676,0.32630
6982.05801,0.32851
6980.12927,0.32649
6978.20052,0.32260
6976.27178,0.32023
6974.34303,0.32214
6972.41429,0.32613
6970.48554,0.32856
6968.55680,0.32878
6966.62805,0.32868
6964.69930,0.33075
6962.77056,0.33479
6960.84181,0.33706
6958.91307,0.33555
6956.98432,0.33321
6955.05558,0.33368
6953.12683,0.33678
6951.19809,0.33862
6949.26934,0.33871
6947.34060,0.34036
6945.41185,0.34205
6943.48311,0.34190
6941.55436,0.34356
6939.62562,0.34771
6937.69687,0.34919
6935.76812,0.34707
6933.83938,0.34581
6931.91063,0.34539
6929.98189,0.34375
6928.05314,0.34350
6926.12440,0.34636
6924.19565,0.34947
6922.26691,0.35119
6920.33816,0.35269
6918.40942,0.35263
6916.48067,0.35123
6914.55193,0.35254
6912.62318,0.35611
6910.69444,0.35864
6908.76569,0.35848
6906.83695,0.35635
6904.90820,0.35590
6902.97945,0.35753
6901.05071,0.35971
6899.12196,0.36303
6897.19322,0.36554
6895.26447,0.36550
6893.33573,0.36393
6891.40698,0.36172
6889.47824,0.36119
6887.54949,0.36325
6885.62075,0.36483
6883.69200,0.36466
6881.76326,0.36498
6879.83451,0.36548
6877.90577,0.36335
6875.97702,0.36086
6874.04828,0.36276
6872.11953,0.36780
6870.19078,0.37144
6868.26204,0.37204
6866.33329,0.37045
6864.40455,0.36798
6862.47580,0.36618
6860.54706,0.36503
6858.61831,0.36351
6856.68957,0.36253
6854.76082,0.36368
6852.83208,0.36665
6850.90333,0.36988
6848.97459,0.37197
6847.04584,0.37262
6845.11710,0.37318
6843.18835,0.37471
6841.25960,0.37551
6839.33086,0.37399
6837.40211,0.37173
6835.47337,0.37128
6833.54462,0.37316
6831.61588,0.37519
6829.68713,0.37541
6827.75839,0.37533
6825.82964,0.37666
6823.90090,0.37805
6821.97215,0.37921
6820.04341,0.38130
6818.11466,0.38287
6816.18592,0.38219
6814.25717,0.38171
6812.32843,0.38317
6810.39968,0.38429
6808.47093,0.38466
6806.54219,0.38623
6804.61344,0.38926
6802.68470,0.39218
6800.75595,0.39302
6798.82721,0.39234
6796.89846,0.39259
6794.96972,0.39399
6793.04097,0.39379
6791.11223,0.39116
6789.18348,0.39014
6787.25474,0.39251
6785.32599,0.39472
6783.39725,0.39470
6781.46850,0.39447
6779.53975,0.39660
6777.61101,0.40127
6775.68226,0.40568
6773.75352,0.40707
6771.82477,0.40621
6769.89603,0.40505
6767.96728,0.40453
6766.03854,0.40522
6764.10979,0.40700
6762.18105,0.40915
6760.25230,0.41016
6758.32356,0.41004
6756.39481,0.41054
6754.46607,0.41116
6752.53732,0.41041
6750.60858,0.40939
6748.67983,0.41014
6746.75108,0.41328
6744.82234,0.41791
6742.89359,0.42029
6740.96485,0.41879
6739.03610,0.41861
6737.10736,0.42267
6735.17861,0.42704
6733.24987,0.42793
6731.32112,0.42504
6729.39238,0.42128
6727.46363,0.42014
6725.53489,0.42149
6723.60614,0.42348
6721.67740,0.42661
6719.74865,0.43065
6717.81991,0.43246
6715.89116,0.43082
6713.96241,0.42941
6712.03367,0.43057
6710.10492,0.43151
6708.17618,0.43074
6706.24743,0.42980
6704.31869,0.42901
6702.38994,0.42710
6700.46120,0.42495
6698.53245,0.42632
6696.60371,0.43108
6694.67496,0.43369
6692.74622,0.43161
6690.81747,0.42922
6688.88873,0.42956
6686.95998,0.43038
6685.03123,0.43077
6683.10249,0.43086
6681.17374,0.43086
6679.24500,0.43209
6677.31625,0.43269
6675.38751,0.43237
6673.45876,0.43435
6671.53002,0.43696
6669.60127,0.43670
6667.67253,0.43454
6665.74378,0.43267
6663.81504,0.43245
6661.88629,0.43390
6659.95755,0.43545
6658.02880,0.43694
6656.10006,0.43879
6654.17131,0.43934
6652.24256,0.43777
6650.31382,0.43537
6648.38507,0.43304
6646.45633,0.43207
6644.52758,0.43335
6642.59884,0.43560
6640.67009,0.43807
6638.74135,0.44037
6636.81260,0.44057
6634.88386,0.43919
6632.95511,0.43971
6631.02637,0.44226
6629.09762,0.44356
6627.16888,0.44282
6625.24013,0.44231
6623.31139,0.44359
6621.38264,0.44531
6619.45389,0.44566
6617.52515,0.44579
6615.59640,0.44812
6613.66766,0.45208
6611.73891,0.45432
6609.81017,0.45323
6607.88142,0.45093
6605.95268,0.45032
6604.02393,0.45183
6602.09519,0.45322
6600.16644,0.45269
6598.23770,0.45088
6596.30895,0.44978
6594.38021,0.45091
6592.45146,0.45308
6590.52271,0.45428
6588.59397,0.45437
6586.66522,0.45379
6584.73648,0.45414
6582.80773,0.45681
6580.87899,0.45868
6578.95024,0.45709
6577.02150,0.45485
6575.09275,0.45529
6573.16401,0.45743
6571.23526,0.45836
6569.30652,0.45797
6567.37777,0.45783
6565.44903,0.45758
6563.52028,0.45665
6561.59154,0.45603
6559.66279,0.45523
6557.73404,0.45338
6555.80530,0.45242
6553.87655,0.45315
6551.94781,0.45419
6550.01906,0.45557
6548.09032,0.45668
6546.16157,0.45516
6544.23283,0.45200
6542.30408,0.45095
6540.37534,0.45140
6538.44659,0.45053
6536.51785,0.44925
6534.58910,0.44954
6532.66036,0.45118
6530.73161,0.45232
6528.80287,0.45161
6526.87412,0.45025
6524.94537,0.45018
6523.01663,0.45104
6521.08788,0.45115
6519.15914,0.44962
6517.23039,0.44689
6515.30165,0.44506
6513.37290,0.44545
6511.44416,0.44716
6509.51541,0.44894
6507.58667,0.44927
6505.65792,0.44809
6503.72918,0.44793
6501.80043,0.44958
6499.87169,0.45034
6497.94294,0.44859
6496.01419,0.44679
6494.08545,0.44751
6492.15670,0.44948
6490.22796,0.45019
6488.29921,0.44943
6486.37047,0.44848
6484.44172,0.44793
6482.51298,0.44784
6480.58423,0.44760
6478.65549,0.44651
6476.72674,0.44590
6474.79800,0.44634
6472.86925,0.44630
6470.94051,0.44600
6469.01176,0.44724
6467.08302,0.45043
6465.15427,0.45328
6463.22552,0.45250
6461.29678,0.44846
6459.36803,0.44449
6457.43929,0.44271
6455.51054,0.44333
6453.58180,0.44475
6451.65305,0.44515
6449.72431,0.44369
6447.79556,0.44024
6445.86682,0.43740
6443.93807,0.43799
6442.00933,0.44031
6440.08058,0.44142
6438.15184,0.44078
6436.22309,0.43924
6434.29434,0.43788
6432.36560,0.43731
6430.43685,0.43762
6428.50811,0.43897
6426.57936,0.44177
6424.65062,0.44449
6422.72187,0.44431
6420.79313,0.44135
6418.86438,0.43737
6416.93564,0.43422
6415.00689,0.43419
6413.07815,0.43691
6411.14940,0.43874
6409.22066,0.43743
6407.29191,0.43511
6405.36317,0.43499
6403.43442,0.43669
6401.50567,0.43756
6399.57693,0.43722
6397.64818,0.43725
6395.71944,0.43754
6393.79069,0.43699
6391.86195,0.43599
6389.93320,0.43591
6388.00446,0.43666
6386.07571,0.43711
6384.14697,0.43766
6382.21822,0.43803
6380.28948,0.43659
6378.36073,0.43446
6376.43199,0.43408
6374.50324,0.43530
6372.57450,0.43602
6370.64575,0.43536
6368.71700,0.43435
6366.78826,0.43367
6364.85951,0.43470
6362.93077,0.43751
6361.00202,0.43822
6359.07328,0.43616
6357.14453,0.43468
6355.21579,0.43320
6353.28704,0.43043
6351.35830,0.42819
6349.42955,0.42715
6347.50081,0.42636
6345.57206,0.42486
6343.64332,0.42218
6341.71457,0.41888
6339.78582,0.41638
6337.85708,0.41612
6335.92833,0.41707
6333.99959,0.41680
6332.07084,0.41556
6330.14210,0.41485
6328.21335,0.41484
6326.28461,0.41452
6324.35586,0.41311
6322.42712,0.41107
6320.49837,0.40930
6318.56963,0.40875
6316.64088,0.40934
6314.71214,0.41005
6312.78339,0.41035
6310.85465,0.40976
6308.92590,0.40848
6306.99715,0.40732
6305.06841,0.40722
6303.13966,0.40870
6301.21092,0.41009
6299.28217,0.41016
6297.35343,0.41000
6295.42468,0.40988
6293.49594,0.40882
6291.56719,0.40692
6289.63845,0.40551
6287.70970,0.40507
6285.78096,0.40460
6283.85221,0.40372
6281.92347,0.40289
6279.99472,0.40200
6278.06598,0.40052
6276.13723,0.39823
6274.20848,0.39529
6272.27974,0.39213
6270.35099,0.38983
6268.42225,0.38815
6266.49350,0.38490
6264.56476,0.38040
6262.63601,0.37732
6260.70727,0.37643
6258.77852,0.37658
6256.84978,0.37583
6254.92103,0.37312
6252.99229,0.36959
6251.06354,0.36666
6249.13480,0.36532
6247.20605,0.36558
6245.27730,0.36588
6243.34856,0.36502
6241.41981,0.36298
6239.49107,0.35987
6237.56232,0.35637
6235.63358,0.35393
6233.70483,0.35262
6231.77609,0.35143
6229.84734,0.34995
6227.91860,0.34771
6225.98985,0.34544
6224.06111,0.34442
6222.13236,0.34335
6220.20362,0.34011
6218.27487,0.33457
6216.34613,0.32827
6214.41738,0.32176
6212.48863,0.31409
6210.55989,0.30626
6208.63114,0.30041
6206.70240,0.29527
6204.77365,0.28869
6202.84491,0.28196
6200.91616,0.27679
6198.98742,0.27221
6197.05867,0.26668
6195.12993,0.26121
6193.20118,0.25877
6191.27244,0.25968
6189.34369,0.26129
6187.41495,0.26197
6185.48620,0.26289
6183.55746,0.26554
6181.62871,0.26835
6179.69996,0.26959
6177.77122,0.27060
6175.84247,0.27128
6173.91373,0.27012
6171.98498,0.26891
6170.05624,0.26937
6168.12749,0.26903
6166.19875,0.26554
6164.27000,0.26033
6162.34126,0.25666
6160.41251,0.25550
6158.48377,0.25370
6156.55502,0.24937
6154.62628,0.24472
6152.69753,0.24089
6150.76878,0.23686
6148.84004,0.23206
6146.91129,0.22691
6144.98255,0.22355
6143.05380,0.22350
6141.12506,0.22440
6139.19631,0.22395
6137.26757,0.22296
6135.33882,0.22251
6133.41008,0.22242
6131.48133,0.22155
6129.55259,0.21973
6127.62384,0.21707
6125.69510,0.21320
6123.76635,0.21007
6121.83761,0.20888
6119.90886,0.20722
6117.98011,0.20395
6116.05137,0.19934
6114.12262,0.19326
6112.19388,0.18761
6110.26513,0.18381
6108.33639,0.17923
6106.40764,0.17257
6104.47890,0.16628
6102.55015,0.16068
6100.62141,0.15468
6098.69266,0.14891
6096.76392,0.14412
6094.83517,0.14086
6092.90643,0.13862
6090.97768,0.13594
6089.04893,0.13216
6087.12019,0.12764
6085.19144,0.12374
6083.26270,0.12141
6081.33395,0.12029
6079.40521,0.11970
6077.47646,0.11872
6075.54772,0.11650
6073.61897,0.11303
6071.69023,0.10939
6069.76148,0.10671
6067.83274,0.10487
6065.90399,0.10253
6063.97525,0.09911
6062.04650,0.09608
6060.11776,0.09486
6058.18901,0.09487
6056.26026,0.09458
6054.33152,0.09355
6052.40277,0.09271
6050.47403,0.09275
6048.54528,0.09280
6046.61654,0.09180
6044.68779,0.09051
6042.75905,0.08943
6040.83030,0.08768
6038.90156,0.08542
6036.97281,0.08408
6035.04407,0.08374
6033.11532,0.08291
6031.18658,0.08159
6029.25783,0.08114
6027.32909,0.08111
6025.40034,0.08056
6023.47159,0.07979
6021.54285,0.07890
6019.61410,0.07826
6017.68536,0.07903
6015.75661,0.08053
6013.82787,0.08081
6011.89912,0.08017
6009.97038,0.08057
6008.04163,0.08240
6006.11289,0.08452
6004.18414,0.08625
6002.25540,0.08716
6000.32665,0.08726
5998.39791,0.08813
5996.46916,0.09034
5994.54041,0.09199
5992.61167,0.09222
5990.68292,0.09240
5988.75418,0.09321
5986.82543,0.09383
5984.89669,0.09336
5982.96794,0.09223
5981.03920,0.09185
5979.11045,0.09247
5977.18171,0.09319
5975.25296,0.09409
5973.32422,0.09567
5971.39547,0.09739
5969.46673,0.09870
5967.53798,0.10028
5965.60924,0.10217
5963.68049,0.10361
5961.75174,0.10418
5959.82300,0.10370
5957.89425,0.10341
5955.96551,0.10493
5954.03676,0.10682
5952.10802,0.10703
5950.17927,0.10637
5948.25053,0.10599
5946.32178,0.10568
5944.39304,0.10583
5942.46429,0.10705
5940.53555,0.10857
5938.60680,0.10968
5936.67806,0.11054
5934.74931,0.11113
5932.82057,0.11174
5930.89182,0.11286
5928.96307,0.11403
5927.03433,0.11479
5925.10558,0.11595
5923.17684,0.11830
5921.24809,0.12152
5919.31935,0.12478
5917.39060,0.12784
5915.46186,0.13079
5913.53311,0.13270
5911.60437,0.13329
5909.67562,0.13488
5907.74688,0.13802
5905.81813,0.14006
5903.88939,0.14050
5901.96064,0.14070
5900.03189,0.14025
5898.10315,0.13887
5896.17440,0.13756
5894.24566,0.13645
5892.31691,0.13515
5890.38817,0.13362
5888.45942,0.13137
5886.53068,0.12878
5884.60193,0.12721
5882.67319,0.12669
5880.74444,0.12609
5878.81570,0.12513
5876.88695,0.12485
5874.95821,0.12506
5873.02946,0.12404
5871.10072,0.12222
5869.17197,0.12112
5867.24322,0.12013
5865.31448,0.11902
5863.38573,0.11854
5861.45699,0.11799
5859.52824,0.11728
5857.59950,0.11766
5855.67075,0.11928
5853.74201,0.12169
5851.81326,0.12413
5849.88452,0.12528
5847.95577,0.12493
5846.02703,0.12439
5844.09828,0.12490
5842.16954,0.12577
5840.24079,0.12586
5838.31205,0.12557
5836.38330,0.12492
5834.45455,0.12385
5832.52581,0.12385
5830.59706,0.12461
5828.66832,0.12426
5826.73957,0.12342
5824.81083,0.12286
5822.88208,0.12176
5820.95334,0.12063
5819.02459,0.12036
5817.09585,0.12057
5815.16710,0.12028
5813.23836,0.11925
5811.30961,0.11880
5809.38087,0.11927
5807.45212,0.11930
5805.52337,0.11882
5803.59463,0.11926
5801.66588,0.12098
5799.73714,0.12226
5797.80839,0.12237
5795.87965,0.12257
5793.95090,0.12350
5792.02216,0.12505
5790.09341,0.12625
5788.16467,0.12529
5786.23592,0.12315
5784.30718,0.12291
5782.37843,0.12449
5780.44969,0.12547
5778.52094,0.12523
5776.59220,0.12435
5774.66345,0.12370
5772.73470,0.12472
5770.80596,0.12714
5768.87721,0.12891
5766.94847,0.12913
5765.01972,0.12872
5763.09098,0.12881
5761.16223,0.12910
5759.23349,0.12937
5757.30474,0.13076
5755.37600,0.13337
5753.44725,0.13570
5751.51851,0.13695
5749.58976,0.13807
5747.66102,0.13982
5745.73227,0.14109
5743.80352,0.14137
5741.87478,0.14143
5739.94603,0.14170
5738.01729,0.14259
5736.08854,0.14460
5734.15980,0.14738
5732.23105,0.14945
5730.30231,0.15000
5728.37356,0.15049
5726.44482,0.15207
5724.51607,0.15391
5722.58733,0.15475
5720.65858,0.15403
5718.72984,0.15252
5716.80109,0.15188
5714.87235,0.15258
5712.94360,0.15323
5711.01485,0.15287
5709.08611,0.15255
5707.15736,0.15275
5705.22862,0.15253
5703.29987,0.15197
5701.37113,0.15207
5699.44238,0.15284
5697.51364,0.15389
5695.58489,0.15506
5693.65615,0.15573
5691.72740,0.15633
5689.79866,0.15783
5687.86991,0.15897
5685.94117,0.15887
5684.01242,0.15946
5682.08368,0.16147
5680.15493,0.16362
5678.22618,0.16482
5676.29744,0.16433
5674.36869,0.16286
5672.43995,0.16215
5670.51120,0.16266
5668.58246,0.16367
5666.65371,0.16434
5664.72497,0.16404
5662.79622,0.16325
5660.86748,0.16275
5658.93873,0.16237
5657.00999,0.16220
5655.08124,0.16237
5653.15250,0.16255
5651.22375,0.16321
5649.29500,0.16463
5647.36626,0.16607
5645.43751,0.16665
5643.50877,0.16660
5641.58002,0.16770
5639.65128,0.16964
5637.72253,0.17021
5635.79379,0.17039
5633.86504,0.17220
5631.93630,0.17412
5630.00755,0.17478
5628.07881,0.17554
5626.15006,0.17670
5624.22132,0.17706
5622.29257,0.17748
5620.36383,0.17917
5618.43508,0.18108
5616.50633,0.18203
5614.57759,0.18164
5612.64884,0.18019
5610.72010,0.17907
5608.79135,0.17904
5606.86261,0.17959
5604.93386,0.18032
5603.00512,0.18062
5601.07637,0.17977
5599.14763,0.17840
5597.21888,0.17726
5595.29014,0.17587
5593.36139,0.17449
5591.43265,0.17362
5589.50390,0.17330
5587.57516,0.17361
5585.64641,0.17353
5583.71766,0.17250
5581.78892,0.17163
5579.86017,0.17085
5577.93143,0.16904
5576.00268,0.16711
5574.07394,0.16684
5572.14519,0.16762
5570.21645,0.16747
5568.28770,0.16635
5566.35896,0.16567
5564.43021,0.16569
5562.50147,0.16561
5560.57272,0.16517
5558.64398,0.16480
5556.71523,0.16501
5554.78648,0.16539
5552.85774,0.16511
5550.92899,0.16443
5549.00025,0.16426
5547.07150,0.16480
5545.14276,0.16521
5543.21401,0.16516
5541.28527,0.16526
5539.35652,0.16551
5537.42778,0.16531
5535.49903,0.16480
5533.57029,0.16432
5531.64154,0.16388
5529.71280,0.16388
5527.78405,0.16486
5525.85531,0.16624
5523.92656,0.16671
5521.99781,0.16624
5520.06907,0.16591
5518.14032,0.16594
5516.21158,0.16619
5514.28283,0.16708
5512.35409,0.16821
5510.42534,0.16880
5508.49660,0.16938
5506.56785,0.17013
5504.63911,0.17027
5502.71036,0.16990
5500.78162,0.16963
5498.85287,0.16940
5496.92413,0.16857
5494.99538,0.16738
5493.06664,0.16679
5491.13789,0.16611
5489.20914,0.16463
5487.28040,0.16310
5485.35165,0.16178
5483.42291,0.16102
5481.49416,0.16148
5479.56542,0.16242
5477.63667,0.16272
5475.70793,0.16250
5473.77918,0.16265
5471.85044,0.16317
5469.92169,0.16309
5467.99295,0.16270
5466.06420,0.16346
5464.13546,0.16527
5462.20671,0.16669
5460.27796,0.16757
5458.34922,0.16843
5456.42047,0.16914
5454.49173,0.17009
5452.56298,0.17183
5450.63424,0.17350
5448.70549,0.17462
5446.77675,0.17629
5444.84800,0.17828
5442.91926,0.17923
5440.99051,0.17991
5439.06177,0.18152
5437.13302,0.18331
5435.20428,0.18463
5433.27553,0.18577
5431.34679,0.18697
5429.41804,0.18776
5427.48929,0.18787
5425.56055,0.18822
5423.63180,0.18904
5421.70306,0.18925
5419.77431,0.18888
5417.84557,0.18866
5415.91682,0.18875
5413.98808,0.18893
5412.05933,0.18878
5410.13059,0.18817
5408.20184,0.18779
5406.27310,0.18823
5404.34435,0.18889
5402.41561,0.18876
5400.48686,0.18779
5398.55811,0.18664
5396.62937,0.18592
5394.70062,0.18551
5392.77188,0.18460
5390.84313,0.18378
5388.91439,0.18454
5386.98564,0.18628
5385.05690,0.18718
5383.12815,0.18700
5381.19941,0.18640
5379.27066,0.18532
5377.34192,0.18383
5375.41317,0.18279
5373.48443,0.18255
5371.55568,0.18247
5369.62694,0.18213
5367.69819,0.18191
5365.76944,0.18190
5363.84070,0.18152
5361.91195,0.18079
5359.98321,0.18006
5358.05446,0.17936
5356.12572,0.17918
5354.19697,0.17940
5352.26823,0.17891
5350.33948,0.17761
5348.41074,0.17635
5346.48199,0.17568
5344.55325,0.17587
5342.62450,0.17675
5340.69576,0.17779
5338.76701,0.17855
5336.83827,0.17875
5334.90952,0.17864
5332.98077,0.17854
5331.05203,0.17855
5329.12328,0.17880
5327.19454,0.17919
5325.26579,0.17952
5323.33705,0.17946
5321.40830,0.17881
5319.47956,0.17815
5317.55081,0.17812
5315.62207,0.17847
5313.69332,0.17850
5311.76458,0.17790
5309.83583,0.17657
5307.90709,0.17452
5305.97834,0.17256
5304.04959,0.17144
5302.12085,0.17061
5300.19210,0.16905
5298.26336,0.16661
5296.33461,0.16413
5294.40587,0.16222
5292.47712,0.16063
5290.54838,0.15849
5288.61963,0.15554
5286.69089,0.15263
5284.76214,0.15037
5282.83340,0.14816
5280.90465,0.14475
5278.97591,0.14032
5277.04716,0.13672
5275.11842,0.13430
5273.18967,0.13202
5271.26092,0.12926
5269.33218,0.12605
5267.40343,0.12330
5265.47469,0.12158
5263.54594,0.12040
5261.61720,0.11951
5259.68845,0.11893
5257.75971,0.11811
5255.83096,0.11672
5253.90222,0.11534
5251.97347,0.11425
5250.04473,0.11353
5248.11598,0.11367
5246.18724,0.11432
5244.25849,0.11456
5242.32975,0.11454
5240.40100,0.11497
5238.47225,0.11572
5236.54351,0.11632
5234.61476,0.11664
5232.68602,0.11692
5230.75727,0.11764
5228.82853,0.11880
5226.89978,0.12019
5224.97104,0.12173
5223.04229,0.12347
5221.11355,0.12564
5219.18480,0.12756
5217.25606,0.12838
5215.32731,0.12877
5213.39857,0.12986
5211.46982,0.13160
5209.54107,0.13318
5207.61233,0.13462
5205.68358,0.13638
5203.75484,0.13817
5201.82609,0.13988
5199.89735,0.14197
5197.96860,0.14411
5196.03986,0.14555
5194.11111,0.14634
5192.18237,0.14719
5190.25362,0.14820
5188.32488,0.14871
5186.39613,0.14899
5184.46739,0.14975
5182.53864,0.15062
5180.60990,0.15099
5178.68115,0.15100
5176.75240,0.15086
5174.82366,0.15038
5172.89491,0.14999
5170.96617,0.15021
5169.03742,0.15029
5167.10868,0.14984
5165.17993,0.14927
5163.25119,0.14841
5161.32244,0.14722
5159.39370,0.14621
5157.46495,0.14529
5155.53621,0.14403
5153.60746,0.14288
5151.67872,0.14220
5149.74997,0.14171
5147.82123,0.14107
5145.89248,0.14006
5143.96373,0.13882
5142.03499,0.13777
5140.10624,0.13682
5138.17750,0.13566
5136.24875,0.13399
5134.32001,0.13169
5132.39126,0.12947
5130.46252,0.12805
5128.53377,0.12715
5126.60503,0.12606
5124.67628,0.12429
5122.74754,0.12229
5120.81879,0.12121
5118.89005,0.12134
5116.96130,0.12240
5115.03255,0.12372
5113.10381,0.12505
5111.17506,0.12718
5109.24632,0.12991
5107.31757,0.13212
5105.38883,0.13367
5103.46008,0.13551
5101.53134,0.13816
5099.60259,0.14070
5097.67385,0.14235
5095.74510,0.14362
5093.81636,0.14524
5091.88761,0.14752
5089.95887,0.15001
5088.03012,0.15229
5086.10138,0.15424
5084.17263,0.15566
5082.24388,0.15683
5080.31514,0.15814
5078.38639,0.15935
5076.45765,0.16034
5074.52890,0.16143
5072.60016,0.16271
5070.67141,0.16401
5068.74267,0.16506
5066.81392,0.16577
5064.88518,0.16642
5062.95643,0.16682
5061.02769,0.16684
5059.09894,0.16697
5057.17020,0.16761
5055.24145,0.16882
5053.31270,0.16987
5051.38396,0.16966
5049.45521,0.16866
5047.52647,0.16795
5045.59772,0.16783
5043.66898,0.16822
5041.74023,0.16845
5039.81149,0.16798
5037.88274,0.16705
5035.95400,0.16643
5034.02525,0.16671
5032.09651,0.16717
5030.16776,0.16716
5028.23902,0.16731
5026.31027,0.16753
5024.38153,0.16710
5022.45278,0.16626
5020.52403,0.16590
5018.59529,0.16594
5016.66654,0.16546
5014.73780,0.16469
5012.80905,0.16454
5010.88031,0.16496
5008.95156,0.16537
5007.02282,0.16556
5005.09407,0.16593
5003.16533,0.16671
5001.23658,0.16742
4999.30784,0.16747
4997.37909,0.16701
4995.45035,0.16695
4993.52160,0.16779
4991.59286,0.16903
4989.66411,0.17008
4987.73536,0.17074
4985.80662,0.17106
4983.87787,0.17136
4981.94913,0.17166
4980.02038,0.17152
4978.09164,0.17098
4976.16289,0.17057
4974.23415,0.17040
4972.30540,0.17016
4970.37666,0.17008
4968.44791,0.17070
4966.51917,0.17161
4964.59042,0.17140
4962.66168,0.16994
4960.73293,0.16847
4958.80418,0.16748
4956.87544,0.16654
4954.94669,0.16546
4953.01795,0.16453
4951.08920,0.16376
4949.16046,0.16277
4947.23171,0.16193
4945.30297,0.16165
4943.37422,0.16146
4941.44548,0.16117
4939.51673,0.16081
4937.58799,0.16000
4935.65924,0.15874
4933.73050,0.15762
4931.80175,0.15694
4929.87301,0.15648
4927.94426,0.15600
4926.01551,0.15563
4924.08677,0.15556
4922.15802,0.15547
4920.22928,0.15510
4918.30053,0.15462
4916.37179,0.15401
4914.44304,0.15309
4912.51430,0.15210
4910.58555,0.15176
4908.65681,0.15212
4906.72806,0.15228
4904.79932,0.15155
4902.87057,0.15030
4900.94183,0.14943
4899.01308,0.14921
4897.08434,0.14920
4895.15559,0.14909
4893.22684,0.14859
4891.29810,0.14783
4889.36935,0.14724
4887.44061,0.14666
4885.51186,0.14609
4883.58312,0.14591
4881.65437,0.14595
4879.72563,0.14600
4877.79688,0.14581
4875.86814,0.14496
4873.93939,0.14394
4872.01065,0.14354
4870.08190,0.14360
4868.15316,0.14356
4866.22441,0.14306
4864.29566,0.14220
4862.36692,0.14127
4860.43817,0.14037
4858.50943,0.13954
4856.58068,0.13921
4854.65194,0.13940
4852.72319,0.13922
4850.79445,0.13836
4848.86570,0.13735
4846.93696,0.13620
4845.00821,0.13471
4843.07947,0.13278
4841.15072,0.13056
4839.22198,0.12854
4837.29323,0.12680
4835.36449,0.12502
4833.43574,0.12340
4831.50699,0.12211
4829.57825,0.12063
4827.64950,0.11859
4825.72076,0.11654
4823.79201,0.11526
4821.86327,0.11409
4819.93452,0.11235
4818.00578,0.11084
4816.07703,0.10999
4814.14829,0.10918
4812.21954,0.10814
4810.29080,0.10712
4808.36205,0.10641
4806.43331,0.10604
4804.50456,0.10561
4802.57582,0.10477
4800.64707,0.10366
4798.71832,0.10295
4796.78958,0.10304
4794.86083,0.10340
4792.93209,0.10370
4791.00334,0.10432
4789.07460,0.10496
4787.14585,0.10504
4785.21711,0.10518
4783.28836,0.10609
4781.35962,0.10727
4779.43087,0.10783
4777.50213,0.10787
4775.57338,0.10817
4773.64464,0.10919
4771.71589,0.11036
4769.78714,0.11080
4767.85840,0.11043
4765.92965,0.10982
4764.00091,0.10952
4762.07216,0.10923
4760.14342,0.10826
4758.21467,0.10683
4756.28593,0.10535
4754.35718,0.10352
4752.42844,0.10135
4750.49969,0.09937
4748.57095,0.09758
4746.64220,0.09548
4744.71346,0.09338
4742.78471,0.09204
4740.85597,0.09119
4738.92722,0.08995
4736.99847,0.08840
4735.06973,0.08719
4733.14098,0.08627
4731.21224,0.08510
4729.28349,0.08347
4727.35475,0.08176
4725.42600,0.08034
4723.49726,0.07901
4721.56851,0.07768
4719.63977,0.07681
4717.71102,0.07655
4715.78228,0.07663
4713.85353,0.07673
4711.92479,0.07669
4709.99604,0.07668
4708.06729,0.07680
4706.13855,0.07655
4704.20980,0.07553
4702.28106,0.07406
4700.35231,0.07270
4698.42357,0.07172
4696.49482,0.07097
4694.56608,0.07056
4692.63733,0.07047
4690.70859,0.07028
4688.77984,0.07014
4686.85110,0.07057
4684.92235,0.07115
4682.99361,0.07153
4681.06486,0.07206
4679.13612,0.07284
4677.20737,0.07379
4675.27862,0.07522
4673.34988,0.07695
4671.42113,0.07822
4669.49239,0.07893
4667.56364,0.07947
4665.63490,0.07995
4663.70615,0.08038
4661.77741,0.08061
4659.84866,0.08050
4657.91992,0.08045
4655.99117,0.08064
4654.06243,0.08066
4652.13368,0.07999
4650.20494,0.07855
4648.27619,0.07691
4646.34745,0.07586
4644.41870,0.07564
4642.48995,0.07551
4640.56121,0.07488
4638.63246,0.07393
4636.70372,0.07310
4634.77497,0.07271
4632.84623,0.07282
4630.91748,0.07350
4628.98874,0.07466
4627.05999,0.07572
4625.13125,0.07646
4623.20250,0.07737
4621.27376,0.07883
4619.34501,0.08070
4617.41627,0.08251
4615.48752,0.08391
4613.55877,0.08518
4611.63003,0.08658
4609.70128,0.08778
4607.77254,0.08859
4605.84379,0.08888
4603.91505,0.08829
4601.98630,0.08703
4600.05756,0.08588
4598.12881,0.08515
4596.20007,0.08433
4594.27132,0.08312
4592.34258,0.08198
4590.41383,0.08120
4588.48509,0.08058
4586.55634,0.07992
4584.62760,0.07904
4582.69885,0.07820
4580.77010,0.07776
4578.84136,0.07744
4576.91261,0.07734
4574.98387,0.07821
4573.05512,0.07996
4571.12638,0.08183
4569.19763,0.08364
4567.26889,0.08554
4565.34014,0.08730
4563.41140,0.08856
4561.48265,0.08936
4559.55391,0.09016
4557.62516,0.09124
4555.69642,0.09221
4553.76767,0.09255
4551.83893,0.09234
4549.91018,0.09195
4547.98143,0.09173
4546.05269,0.09171
4544.12394,0.09158
4542.19520,0.09115
4540.26645,0.09072
4538.33771,0.09041
4536.40896,0.09013
4534.48022,0.08994
4532.55147,0.08975
4530.62273,0.08945
4528.69398,0.08921
4526.76524,0.08905
4524.83649,0.08880
4522.90775,0.08830
4520.97900,0.08740
4519.05025,0.08643
4517.12151,0.08587
4515.19276,0.08552
4513.26402,0.08489
4511.33527,0.08399
4509.40653,0.08293
4507.47778,0.08178
4505.54904,0.08070
4503.62029,0.07976
4501.69155,0.07862
4499.76280,0.07695
4497.83406,0.07520
4495.90531,0.07416
4493.97657,0.07368
4492.04782,0.07310
4490.11908,0.07212
4488.19033,0.07111
4486.26158,0.07090
4484.33284,0.07149
4482.40409,0.07191
4480.47535,0.07153
4478.54660,0.07059
4476.61786,0.06975
4474.68911,0.06933
4472.76037,0.06921
4470.83162,0.06902
4468.90288,0.06834
4466.97413,0.06743
4465.04539,0.06682
4463.11664,0.06645
4461.18790,0.06606
4459.25915,0.06589
4457.33041,0.06608
4455.40166,0.06628
4453.47291,0.06610
4451.54417,0.06563
4449.61542,0.06531
4447.68668,0.06524
4445.75793,0.06531
4443.82919,0.06555
4441.90044,0.06569
4439.97170,0.06545
4438.04295,0.06512
4436.11421,0.06513
4434.18546,0.06545
4432.25672,0.06569
4430.32797,0.06555
4428.39923,0.06525
4426.47048,0.06531
4424.54173,0.06563
4422.61299,0.06583
4420.68424,0.06599
4418.75550,0.06606
4416.82675,0.06565
4414.89801,0.06492
4412.96926,0.06452
4411.04052,0.06476
4409.11177,0.06554
4407.18303,0.06651
4405.25428,0.06709
4403.32554,0.06708
4401.39679,0.06687
4399.46805,0.06680
4397.53930,0.06695
4395.61056,0.06722
4393.68181,0.06720
4391.75306,0.06692
4389.82432,0.06686
4387.89557,0.06697
4385.96683,0.06702
4384.03808,0.06717
4382.10934,0.06758
4380.18059,0.06809
4378.25185,0.06814
4376.32310,0.06758
4374.39436,0.06719
4372.46561,0.06741
4370.53687,0.06778
4368.60812,0.06792
4366.67938,0.06771
4364.75063,0.06739
4362.82189,0.06748
4360.89314,0.06784
4358.96439,0.06791
4357.03565,0.06762
4355.10690,0.06737
4353.17816,0.06742
4351.24941,0.06750
4349.32067,0.06734
4347.39192,0.06724
4345.46318,0.06743
4343.53443,0.06768
4341.60569,0.06759
4339.67694,0.06720
4337.74820,0.06707
4335.81945,0.06759
4333.89071,0.06789
4331.96196,0.06733
4330.03321,0.06689
4328.10447,0.06724
4326.17572,0.06778
4324.24698,0.06799
4322.31823,0.06783
4320.38949,0.06742
4318.46074,0.06705
4316.53200,0.06689
4314.60325,0.06687
4312.67451,0.06693
4310.74576,0.06713
4308.81702,0.06719
4306.88827,0.06682
4304.95953,0.06632
4303.03078,0.06606
4301.10204,0.06601
4299.17329,0.06591
4297.24454,0.06577
4295.31580,0.06578
4293.38705,0.06587
4291.45831,0.06589
4289.52956,0.06596
4287.60082,0.06619
4285.67207,0.06632
4283.74333,0.06617
4281.81458,0.06593
4279.88584,0.06574
4277.95709,0.06581
4276.02835,0.06618
4274.09960,0.06654
4272.17086,0.06663
4270.24211,0.06636
4268.31336,0.06608
4266.38462,0.06607
4264.45587,0.06628
4262.52713,0.06659
4260.59838,0.06670
4258.66964,0.06656
4256.74089,0.06646
4254.81215,0.06646
4252.88340,0.06643
4250.95466,0.06651
4249.02591,0.06671
4247.09717,0.06666
4245.16842,0.06644
4243.23968,0.06637
4241.31093,0.06631
4239.38219,0.06626
4237.45344,0.06642
4235.52469,0.06660
4233.59595,0.06666
4231.66720,0.06683
4229.73846,0.06714
4227.80971,0.06727
4225.88097,0.06705
4223.95222,0.06676
4222.02348,0.06678
4220.09473,0.06700
4218.16599,0.06707
4216.23724,0.06685
4214.30850,0.06688
4212.37975,0.06754
4210.45101,0.06816
4208.52226,0.06816
4206.59352,0.06785
4204.66477,0.06757
4202.73602,0.06721
4200.80728,0.06688
4198.87853,0.06691
4196.94979,0.06728
4195.02104,0.06779
4193.09230,0.06814
4191.16355,0.06790
4189.23481,0.06720
4187.30606,0.06670
4185.37732,0.06649
4183.44857,0.06637
4181.51983,0.06658
4179.59108,0.06703
4177.66234,0.06717
4175.73359,0.06673
4173.80484,0.06623
4171.87610,0.06625
4169.94735,0.06654
4168.01861,0.06682
4166.08986,0.06720
4164.16112,0.06747
4162.23237,0.06739
4160.30363,0.06735
4158.37488,0.06763
4156.44614,0.06785
4154.51739,0.06792
4152.58865,0.06817
4150.65990,0.06844
4148.73116,0.06825
4146.80241,0.06765
4144.87367,0.06718
4142.94492,0.06709
4141.01617,0.06714
4139.08743,0.06705
4137.15868,0.06686
4135.22994,0.06671
4133.30119,0.06669
4131.37245,0.06671
4129.44370,0.06666
4127.51496,0.06661
4125.58621,0.06649
4123.65747,0.06628
4121.72872,0.06604
4119.79998,0.06567
4117.87123,0.06532
4115.94249,0.06513
4114.01374,0.06508
4112.08500,0.06526
4110.15625,0.06554
4108.22750,0.06561
4106.29876,0.06552
4104.37001,0.06534
4102.44127,0.06487
4100.51252,0.06427
4098.58378,0.06406
4096.65503,0.06424
4094.72629,0.06430
4092.79754,0.06430
4090.86880,0.06442
4088.94005,0.06443
4087.01131,0.06426
4085.08256,0.06412
4083.15382,0.06424
4081.22507,0.06468
4079.29632,0.06517
4077.36758,0.06528
4075.43883,0.06498
4073.51009,0.06483
4071.58134,0.06515
4069.65260,0.06541
4067.72385,0.06529
4065.79511,0.06520
4063.86636,0.06562
4061.93762,0.06649
4060.00887,0.06693
4058.08013,0.06662
4056.15138,0.06645
4054.22264,0.06682
4052.29389,0.06719
4050.36515,0.06722
4048.43640,0.06703
4046.50765,0.06684
4044.57891,0.06700
4042.65016,0.06750
4040.72142,0.06775
4038.79267,0.06750
4036.86393,0.06732
4034.93518,0.06762
4033.00644,0.06799
4031.07769,0.06815
4029.14895,0.06837
4027.22020,0.06870
4025.29146,0.06895
4023.36271,0.06907
4021.43397,0.06897
4019.50522,0.06855
4017.57648,0.06812
4015.64773,0.06794
4013.71898,0.06795
4011.79024,0.06797
4009.86149,0.06798
4007.93275,0.06800
4006.00400,0.06804
4004.07526,0.06829
4002.14651,0.06864
4000.21777,0.06865
3998.28902,0.06836
3996.36028,0.06811
3994.43153,0.06795
3992.50279,0.06795
3990.57404,0.06813
3988.64530,0.06845
3986.71655,0.06883
3984.78780,0.06903
3982.85906,0.06894
3980.93031,0.06881
3979.00157,0.06882
3977.07282,0.06880
3975.14408,0.06855
3973.21533,0.06840
3971.28659,0.06861
3969.35784,0.06880
3967.42910,0.06870
3965.50035,0.06860
3963.57161,0.06873
3961.64286,0.06898
3959.71412,0.06917
3957.78537,0.06923
3955.85663,0.06928
3953.92788,0.06952
3951.99913,0.06960
3950.07039,0.06930
3948.14164,0.06913
3946.21290,0.06936
3944.28415,0.06972
3942.35541,0.06986
3940.42666,0.06967
3938.49792,0.06926
3936.56917,0.06893
3934.64043,0.06906
3932.71168,0.06957
3930.78294,0.06994
3928.85419,0.06991
3926.92545,0.06974
3924.99670,0.06971
3923.06795,0.06980
3921.13921,0.06990
3919.21046,0.07002
3917.28172,0.07013
3915.35297,0.07022
3913.42423,0.07029
3911.49548,0.07019
3909.56674,0.07002
3907.63799,0.07017
3905.70925,0.07053
3903.78050,0.07061
3901.85176,0.07064
3899.92301,0.07115
3897.99427,0.07175
3896.06552,0.07184
3894.13678,0.07164
3892.20803,0.07149
3890.27928,0.07132
3888.35054,0.07114
3886.42179,0.07109
3884.49305,0.07119
3882.56430,0.07149
3880.63556,0.07196
3878.70681,0.07223
3876.77807,0.07234
3874.84932,0.07257
3872.92058,0.07270
3870.99183,0.07242
3869.06309,0.07209
3867.13434,0.07211
3865.20560,0.07238
3863.27685,0.07261
3861.34811,0.07264
3859.41936,0.07263
3857.49061,0.07270
3855.56187,0.07267
3853.63312,0.07252
3851.70438,0.07241
3849.77563,0.07240
3847.84689,0.07253
3845.91814,0.07269
3843.98940,0.07271
3842.06065,0.07281
3840.13191,0.07306
3838.20316,0.07310
3836.27442,0.07264
3834.34567,0.07209
3832.41693,0.07203
3830.48818,0.07236
3828.55943,0.07257
3826.63069,0.07261
3824.70194,0.07265
3822.77320,0.07253
3820.84445,0.07226
3818.91571,0.07208
3816.98696,0.07175
3815.05822,0.07120
3813.12947,0.07090
3811.20073,0.07080
3809.27198,0.07064
3807.34324,0.07048
3805.41449,0.07049
3803.48575,0.07065
3801.55700,0.07075
3799.62826,0.07073
3797.69951,0.07073
3795.77076,0.07091
3793.84202,0.07118
3791.91327,0.07153
3789.98453,0.07185
3788.05578,0.07185
3786.12704,0.07160
3784.19829,0.07142
3782.26955,0.07138
3780.34080,0.07135
3778.41206,0.07110
3776.48331,0.07075
3774.55457,0.07056
3772.62582,0.07043
3770.69708,0.07019
3768.76833,0.07001
3766.83959,0.06998
3764.91084,0.07003
3762.98209,0.06999
3761.05335,0.06959
3759.12460,0.06909
3757.19586,0.06903
3755.26711,0.06945
3753.33837,0.07024
3751.40962,0.07112
3749.48088,0.07156
3747.55213,0.07154
3745.62339,0.07140
3743.69464,0.07126
3741.76590,0.07122
3739.83715,0.07128
3737.90841,0.07131
3735.97966,0.07121
3734.05091,0.07091
3732.12217,0.07055
3730.19342,0.07043
3728.26468,0.07057
3726.33593,0.07084
3724.40719,0.07102
3722.47844,0.07100
3720.54970,0.07093
3718.62095,0.07101
3716.69221,0.07108
3714.76346,0.07100
3712.83472,0.07084
3710.90597,0.07062
3708.97723,0.07023
3707.04848,0.06973
3705.11974,0.06915
3703.19099,0.06848
3701.26224,0.06780
3699.33350,0.06725
3697.40475,0.06691
3695.47601,0.06664
3693.54726,0.06621
3691.61852,0.06572
3689.68977,0.06542
3687.76103,0.06520
3685.83228,0.06478
3683.90354,0.06433
3681.97479,0.06416
3680.04605,0.06435
3678.11730,0.06465
3676.18856,0.06484
3674.25981,0.06492
3672.33107,0.06477
3670.40232,0.06437
3668.47357,0.06416
3666.54483,0.06420
3664.61608,0.06414
3662.68734,0.06392
3660.75859,0.06372
3658.82985,0.06347
3656.90110,0.06316
3654.97236,0.06307
3653.04361,0.06318
3651.11487,0.06322
3649.18612,0.06320
3647.25738,0.06317
3645.32863,0.06312
3643.39989,0.06312
3641.47114,0.06323
3639.54239,0.06347
3637.61365,0.06380
3635.68490,0.06398
3633.75616,0.06394
3631.82741,0.06377
3629.89867,0.06353
3627.96992,0.06341
3626.04118,0.06364
3624.11243,0.06402
3622.18369,0.06422
3620.25494,0.06401
3618.32620,0.06345
3616.39745,0.06286
3614.46871,0.06278
3612.53996,0.06337
3610.61122,0.06402
3608.68247,0.06410
3606.75372,0.06384
3604.82498,0.06371
3602.89623,0.06360
3600.96749,0.06323
3599.03874,0.06286
3597.11000,0.06279
3595.18125,0.06293
3593.25251,0.06308
3591.32376,0.06322
3589.39502,0.06321
3587.46627,0.06309
3585.53753,0.06329
3583.60878,0.06361
3581.68004,0.06365
3579.75129,0.06346
3577.82254,0.06301
3575.89380,0.06249
3573.96505,0.06238
3572.03631,0.06266
3570.10756,0.06286
3568.17882,0.06284
3566.25007,0.06281
3564.32133,0.06279
3562.39258,0.06262
3560.46384,0.06231
3558.53509,0.06218
3556.60635,0.06240
3554.67760,0.06281
3552.74886,0.06303
3550.82011,0.06288
3548.89137,0.06265
3546.96262,0.06273
3545.03387,0.06296
3543.10513,0.06297
3541.17638,0.06282
3539.24764,0.06279
3537.31889,0.06272
3535.39015,0.06233
3533.46140,0.06211
3531.53266,0.06253
3529.60391,0.06307
3527.67517,0.06317
3525.74642,0.06301
3523.81768,0.06299
3521.88893,0.06315
3519.96019,0.06334
3518.03144,0.06340
3516.10270,0.06331
3514.17395,0.06329
3512.24520,0.06334
3510.31646,0.06316
3508.38771,0.06294
3506.45897,0.06308
3504.53022,0.06338
3502.60148,0.06339
3500.67273,0.06300
3498.74399,0.06260
3496.81524,0.06267
3494.88650,0.06322
3492.95775,0.06369
3491.02901,0.06363
3489.10026,0.06337
3487.17152,0.06333
3485.24277,0.06357
3483.31402,0.06378
3481.38528,0.06364
3479.45653,0.06346
3477.52779,0.06335
3475.59904,0.06300
3473.67030,0.06262
3471.74155,0.06259
3469.81281,0.06278
3467.88406,0.06292
3465.95532,0.06305
3464.02657,0.06308
3462.09783,0.06280
3460.16908,0.06259
3458.24034,0.06256
3456.31159,0.06227
3454.38285,0.06183
3452.45410,0.06161
3450.52535,0.06165
3448.59661,0.06189
3446.66786,0.06199
3444.73912,0.06175
3442.81037,0.06159
3440.88163,0.06181
3438.95288,0.06212
3437.02414,0.06215
3435.09539,0.06203
3433.16665,0.06206
3431.23790,0.06218
3429.30916,0.06206
3427.38041,0.06169
3425.45167,0.06164
3423.52292,0.06195
3421.59418,0.06204
3419.66543,0.06198
3417.73668,0.06217
3415.80794,0.06236
3413.87919,0.06232
3411.95045,0.06231
3410.02170,0.06239
3408.09296,0.06260
3406.16421,0.06288
3404.23547,0.06312
3402.30672,0.06330
3400.37798,0.06335
3398.44923,0.06334
3396.52049,0.06344
3394.59174,0.06375
3392.66300,0.06421
3390.73425,0.06429
3388.80550,0.06386
3386.87676,0.06359
3384.94801,0.06370
3383.01927,0.06379
3381.09052,0.06373
3379.16178,0.06356
3377.23303,0.06348
3375.30429,0.06361
3373.37554,0.06375
3371.44680,0.06375
3369.51805,0.06366
3367.58931,0.06346
3365.66056,0.06333
3363.73182,0.06350
3361.80307,0.06378
3359.87433,0.06375
3357.94558,0.06362
3356.01683,0.06360
3354.08809,0.06341
3352.15934,0.06308
3350.23060,0.06308
3348.30185,0.06337
3346.37311,0.06338
3344.44436,0.06307
3342.51562,0.06283
3340.58687,0.06273
3338.65813,0.06278
3336.72938,0.06293
3334.80064,0.06310
3332.87189,0.06332
3330.94315,0.06333
3329.01440,0.06322
3327.08566,0.06339
3325.15691,0.06356
3323.22816,0.06342
3321.29942,0.06341
3319.37067,0.06370
3317.44193,0.06392
3315.51318,0.06379
3313.58444,0.06353
3311.65569,0.06350
3309.72695,0.06346
3307.79820,0.06326
3305.86946,0.06310
3303.94071,0.06304
3302.01197,0.06310
3300.08322,0.06321
3298.15448,0.06326
3296.22573,0.06345
3294.29698,0.06367
3292.36824,0.06360
3290.43949,0.06350
3288.51075,0.06350
3286.58200,0.06336
3284.65326,0.06320
3282.72451,0.06326
3280.79577,0.06338
3278.86702,0.06337
3276.93828,0.06326
3275.00953,0.06332
3273.08079,0.06360
3271.15204,0.06391
3269.22330,0.06414
3267.29455,0.06407
3265.36581,0.06364
3263.43706,0.06327
3261.50831,0.06342
3259.57957,0.06380
3257.65082,0.06371
3255.72208,0.06329
3253.79333,0.06314
3251.86459,0.06313
3249.93584,0.06290
3248.00710,0.06283
3246.07835,0.06307
3244.14961,0.06314
3242.22086,0.06296
3240.29212,0.06298
3238.36337,0.06315
3236.43463,0.06315
3234.50588,0.06310
3232.57713,0.06315
3230.64839,0.06321
3228.71964,0.06318
3226.79090,0.06293
3224.86215,0.06259
3222.93341,0.06269
3221.00466,0.06319
3219.07592,0.06354
3217.14717,0.06347
3215.21843,0.06331
3213.28968,0.06327
3211.36094,0.06307
3209.43219,0.06276
3207.50345,0.06275
3205.57470,0.06286
3203.64596,0.06283
3201.71721,0.06277
3199.78846,0.06268
3197.85972,0.06259
3195.93097,0.06274
3194.00223,0.06314
3192.07348,0.06336
3190.14474,0.06307
3188.21599,0.06262
3186.28725,0.06242
3184.35850,0.06237
3182.42976,0.06245
3180.50101,0.06269
3178.57227,0.06283
3176.64352,0.06279
3174.71478,0.06275
3172.78603,0.06277
3170.85729,0.06280
3168.92854,0.06296
3166.99979,0.06298
3165.07105,0.06258
3163.14230,0.06218
3161.21356,0.06194
3159.28481,0.06172
3157.35607,0.06168
3155.42732,0.06194
3153.49858,0.06217
3151.56983,0.06221
3149.64109,0.06230
3147.71234,0.06231
3145.78360,0.06204
3143.85485,0.06191
3141.92611,0.06210
3139.99736,0.06239
3138.06861,0.06256
3136.13987,0.06252
3134.21112,0.06212
3132.28238,0.06150
3130.35363,0.06132
3128.42489,0.06156
3126.49614,0.06174
3124.56740,0.06198
3122.63865,0.06226
3120.70991,0.06218
3118.78116,0.06188
3116.85242,0.06167
3114.92367,0.06150
3112.99493,0.06133
3111.06618,0.06131
3109.13744,0.06137
3107.20869,0.06133
3105.27994,0.06130
3103.35120,0.06142
3101.42245,0.06160
3099.49371,0.06174
3097.56496,0.06189
3095.63622,0.06191
3093.70747,0.06168
3091.77873,0.06145
3089.84998,0.06135
3087.92124,0.06114
3085.99249,0.06091
3084.06375,0.06099
3082.13500,0.06120
3080.20626,0.06127
3078.27751,0.06117
3076.34877,0.06105
3074.42002,0.06098
3072.49127,0.06098
3070.56253,0.06109
3068.63378,0.06119
3066.70504,0.06124
3064.77629,0.06123
3062.84755,0.06105
3060.91880,0.06088
3058.99006,0.06087
3057.06131,0.06092
3055.13257,0.06104
3053.20382,0.06123
3051.27508,0.06151
3049.34633,0.06169
3047.41759,0.06159
3045.48884,0.06141
3043.56009,0.06149
3041.63135,0.06173
3039.70260,0.06183
3037.77386,0.06162
3035.84511,0.06125
3033.91637,0.06094
3031.98762,0.06077
3030.05888,0.06073
3028.13013,0.06069
3026.20139,0.06072
3024.27264,0.06095
3022.34390,0.06118
3020.41515,0.06117
3018.48641,0.06103
3016.55766,0.06101
3014.62892,0.06115
3012.70017,0.06129
3010.77142,0.06130
3008.84268,0.06121
3006.91393,0.06110
3004.98519,0.06097
3003.05644,0.06084
3001.12770,0.06069
2999.19895,0.06051
2997.27021,0.06033
2995.34146,0.06025
2993.41272,0.06022
2991.48397,0.06013
2989.55523,0.06005
2987.62648,0.06003
2985.69774,0.06004
2983.76899,0.06020
2981.84025,0.06038
2979.91150,0.06034
2977.98275,0.06017
2976.05401,0.06010
2974.12526,0.06012
2972.19652,0.06006
2970.26777,0.06007
2968.33903,0.06045
2966.41028,0.06085
2964.48154,0.06096
2962.55279,0.06112
2960.62405,0.06149
2958.69530,0.06183
2956.76656,0.06203
2954.83781,0.06217
2952.90907,0.06225
2950.98032,0.06222
2949.05157,0.06218
2947.12283,0.06219
2945.19408,0.06208
2943.26534,0.06203
2941.33659,0.06236
2939.40785,0.06279
2937.47910,0.06289
2935.55036,0.06295
2933.62161,0.06334
2931.69287,0.06398
2929.76412,0.06462
2927.83538,0.06500
2925.90663,0.06516
2923.97789,0.06527
2922.04914,0.06523
2920.12040,0.06500
2918.19165,0.06474
2916.26290,0.06452
2914.33416,0.06438
2912.40541,0.06427
2910.47667,0.06414
2908.54792,0.06392
2906.61918,0.06366
2904.69043,0.06352
2902.76169,0.06357
2900.83294,0.06370
2898.90420,0.06374
2896.97545,0.06363
2895.04671,0.06342
2893.11796,0.06320
2891.18922,0.06319
2889.26047,0.06324
2887.33172,0.06298
2885.40298,0.06262
2883.47423,0.06254
2881.54549,0.06272
2879.61674,0.06281
2877.68800,0.06276
2875.75925,0.06289
2873.83051,0.06320
2871.90176,0.06333
2869.97302,0.06307
2868.04427,0.06272
2866.11553,0.06277
2864.18678,0.06308
2862.25804,0.06320
2860.32929,0.06332
2858.40055,0.06368
2856.47180,0.06391
2854.54305,0.06402
2852.61431,0.06437
2850.68556,0.06480
2848.75682,0.06498
2846.82807,0.06496
2844.89933,0.06477
2842.97058,0.06447
2841.04184,0.06420
2839.11309,0.06397
2837.18435,0.06371
2835.25560,0.06358
2833.32686,0.06368
2831.39811,0.06371
2829.46937,0.06349
2827.54062,0.06315
2825.61188,0.06288
2823.68313,0.06287
2821.75438,0.06317
2819.82564,0.06347
2817.89689,0.06354
2815.96815,0.06343
2814.03940,0.06322
2812.11066,0.06307
2810.18191,0.06310
2808.25317,0.06310
2806.32442,0.06296
2804.39568,0.06280
2802.46693,0.06262
2800.53819,0.06246
2798.60944,0.06248
2796.68070,0.06270
2794.75195,0.06303
2792.82320,0.06322
2790.89446,0.06305
2788.96571,0.06273
2787.03697,0.06269
2785.10822,0.06291
2783.17948,0.06304
2781.25073,0.06307
2779.32199,0.06310
2777.39324,0.06311
2775.46450,0.06307
2773.53575,0.06295
2771.60701,0.06286
2769.67826,0.06295
2767.74952,0.06306
2765.82077,0.06295
2763.89203,0.06273
2761.96328,0.06268
2760.03453,0.06278
2758.10579,0.06286
2756.17704,0.06295
2754.24830,0.06301
2752.31955,0.06285
2750.39081,0.06262
2748.46206,0.06268
2746.53332,0.06297
2744.60457,0.06313
2742.67583,0.06305
2740.74708,0.06297
2738.81834,0.06303
2736.88959,0.06317
2734.96085,0.06327
2733.03210,0.06325
2731.10336,0.06319
2729.17461,0.06313
2727.24586,0.06303
2725.31712,0.06298
2723.38837,0.06313
2721.45963,0.06333
2719.53088,0.06352
2717.60214,0.06360
2715.67339,0.06343
2713.74465,0.06334
2711.81590,0.06362
2709.88716,0.06397
2707.95841,0.06408
2706.02967,0.06391
2704.10092,0.06366
2702.17218,0.06360
2700.24343,0.06376
2698.31468,0.06386
2696.38594,0.06377
2694.45719,0.06366
2692.52845,0.06363
2690.59970,0.06362
2688.67096,0.06359
2686.74221,0.06352
2684.81347,0.06347
2682.88472,0.06354
2680.95598,0.06367
2679.02723,0.06371
2677.09849,0.06360
2675.16974,0.06346
2673.24100,0.06341
2671.31225,0.06356
2669.38351,0.06384
2667.45476,0.06395
2665.52601,0.06370
2663.59727,0.06338
2661.66852,0.06332
2659.73978,0.06356
2657.81103,0.06395
2655.88229,0.06417
2653.95354,0.06404
2652.02480,0.06379
2650.09605,0.06357
2648.16731,0.06323
2646.23856,0.06281
2644.30982,0.06255
2642.38107,0.06253
2640.45233,0.06263
2638.52358,0.06270
2636.59484,0.06263
2634.66609,0.06260
2632.73734,0.06284
2630.80860,0.06309
2628.87985,0.06294
2626.95111,0.06253
2625.02236,0.06222
2623.09362,0.06209
2621.16487,0.06203
2619.23613,0.06200
2617.30738,0.06200
2615.37864,0.06197
2613.44989,0.06205
2611.52115,0.06223
2609.59240,0.06229
2607.66366,0.06219
2605.73491,0.06217
2603.80616,0.06229
2601.87742,0.06240
2599.94867,0.06246
2598.01993,0.06242
2596.09118,0.06226
2594.16244,0.06208
2592.23369,0.06188
2590.30495,0.06170
2588.37620,0.06165
2586.44746,0.06167
2584.51871,0.06166
2582.58997,0.06168
2580.66122,0.06185
2578.73248,0.06208
2576.80373,0.06215
2574.87499,0.06214
2572.94624,0.06218
2571.01749,0.06206
2569.08875,0.06178
2567.16000,0.06164
2565.23126,0.06159
2563.30251,0.06154
2561.37377,0.06159
2559.44502,0.06164
2557.51628,0.06163
2555.58753,0.06170
2553.65879,0.06178
2551.73004,0.06180
2549.80130,0.06170
2547.87255,0.06156
2545.94381,0.06158
2544.01506,0.06166
2542.08631,0.06162
2540.15757,0.06146
2538.22882,0.06130
2536.30008,0.06131
2534.37133,0.06149
2532.44259,0.06172
2530.51384,0.06184
2528.58510,0.06174
2526.65635,0.06155
2524.72761,0.06153
2522.79886,0.06167
2520.87012,0.06168
2518.94137,0.06156
2517.01263,0.06157
2515.08388,0.06167
2513.15514,0.06168
2511.22639,0.06165
2509.29764,0.06166
2507.36890,0.06165
2505.44015,0.06161
2503.51141,0.06165
2501.58266,0.06183
2499.65392,0.06203
2497.72517,0.06201
2495.79643,0.06174
2493.86768,0.06148
2491.93894,0.06143
2490.01019,0.06159
2488.08145,0.06175
2486.15270,0.06187
2484.22396,0.06205
2482.29521,0.06212
2480.36647,0.06203
2478.43772,0.06212
2476.50897,0.06242
2474.58023,0.06254
2472.65148,0.06238
2470.72274,0.06216
2468.79399,0.06196
2466.86525,0.06173
2464.93650,0.06164
2463.00776,0.06182
2461.07901,0.06200
2459.15027,0.06202
2457.22152,0.06220
2455.29278,0.06252
2453.36403,0.06247
2451.43529,0.06209
2449.50654,0.06180
2447.57779,0.06170
2445.64905,0.06173
2443.72030,0.06179
2441.79156,0.06180
2439.86281,0.06184
2437.93407,0.06182
2436.00532,0.06162
2434.07658,0.06131
2432.14783,0.06112
2430.21909,0.06111
2428.29034,0.06120
2426.36160,0.06130
2424.43285,0.06130
2422.50411,0.06116
2420.57536,0.06093
2418.64662,0.06085
2416.71787,0.06092
2414.78912,0.06093
2412.86038,0.06089
2410.93163,0.06091
2409.00289,0.06091
2407.07414,0.06088
2405.14540,0.06091
2403.21665,0.06086
2401.28791,0.06058
2399.35916,0.06029
2397.43042,0.06030
2395.50167,0.06050
2393.57293,0.06057
2391.64418,0.06044
2389.71544,0.06036
2387.78669,0.06038
2385.85795,0.06045
2383.92920,0.06058
2382.00045,0.06067
2380.07171,0.06069
2378.14296,0.06079
2376.21422,0.06094
2374.28547,0.06095
2372.35673,0.06085
2370.42798,0.06074
2368.49924,0.06066
2366.57049,0.06072
2364.64175,0.06084
2362.71300,0.06089
2360.78426,0.06086
2358.85551,0.06083
2356.92677,0.06081
2354.99802,0.06085
2353.06927,0.06094
2351.14053,0.06098
2349.21178,0.06101
2347.28304,0.06100
2345.35429,0.06083
2343.42555,0.06069
2341.49680,0.06072
2339.56806,0.06081
2337.63931,0.06086
2335.71057,0.06093
2333.78182,0.06096
2331.85308,0.06090
2329.92433,0.06092
2327.99559,0.06099
2326.06684,0.06088
2324.13810,0.06070
2322.20935,0.06066
2320.28060,0.06082
2318.35186,0.06102
2316.42311,0.06104
2314.49437,0.06099
2312.56562,0.06104
2310.63688,0.06101
2308.70813,0.06087
2306.77939,0.06070
2304.85064,0.06056
2302.92190,0.06050
2300.99315,0.06049
2299.06441,0.06053
2297.13566,0.06057
2295.20692,0.06041
2293.27817,0.06009
2291.34943,0.05983
2289.42068,0.05979
2287.49193,0.05995
2285.56319,0.06016
2283.63444,0.06020
2281.70570,0.06006
2279.77695,0.06003
2277.84821,0.06021
2275.91946,0.06032
2273.99072,0.06015
2272.06197,0.05994
2270.13323,0.05990
2268.20448,0.06001
2266.27574,0.06023
2264.34699,0.06045
2262.41825,0.06042
2260.48950,0.06014
2258.56075,0.05992
2256.63201,0.05989
2254.70326,0.05999
2252.77452,0.06017
2250.84577,0.06022
2248.91703,0.06003
2246.98828,0.05983
2245.05954,0.05986
2243.13079,0.06003
2241.20205,0.06014
2239.27330,0.06006
2237.34456,0.05999
2235.41581,0.06009
2233.48707,0.06021
2231.55832,0.06019
2229.62958,0.06015
2227.70083,0.06014
2225.77208,0.06006
2223.84334,0.05999
2221.91459,0.06001
2219.98585,0.06011
2218.05710,0.06024
2216.12836,0.06031
2214.19961,0.06028
2212.27087,0.06026
2210.34212,0.06026
2208.41338,0.06018
2206.48463,0.06008
2204.55589,0.06004
2202.62714,0.06003
2200.69840,0.06002
2198.76965,0.06005
2196.84090,0.06014
2194.91216,0.06017
2192.98341,0.06016
2191.05467,0.06013
2189.12592,0.06003
2187.19718,0.05993
2185.26843,0.05988
2183.33969,0.05984
2181.41094,0.05969
2179.48220,0.05955
2177.55345,0.05956
2175.62471,0.05965
2173.69596,0.05959
2171.76722,0.05933
2169.83847,0.05914
2167.90973,0.05924
2165.98098,0.05946
2164.05223,0.05957
2162.12349,0.05952
2160.19474,0.05937
2158.26600,0.05924
2156.33725,0.05917
2154.40851,0.05912
2152.47976,0.05921
2150.55102,0.05936
2148.62227,0.05941
2146.69353,0.05930
2144.76478,0.05906
2142.83604,0.05895
2140.90729,0.05909
2138.97855,0.05907
2137.04980,0.05877
2135.12106,0.05861
2133.19231,0.05874
2131.26356,0.05895
2129.33482,0.05903
2127.40607,0.05896
2125.47733,0.05887
2123.54858,0.05891
2121.61984,0.05902
2119.69109,0.05899
2117.76235,0.05878
2115.83360,0.05863
2113.90486,0.05860
2111.97611,0.05861
2110.04737,0.05870
2108.11862,0.05896
2106.18988,0.05921
2104.26113,0.05919
2102.33238,0.05900
2100.40364,0.05882
2098.47489,0.05854
2096.54615,0.05828
2094.61740,0.05824
2092.68866,0.05827
2090.75991,0.05827
2088.83117,0.05834
2086.90242,0.05845
2084.97368,0.05848
2083.04493,0.05846
2081.11619,0.05849
2079.18744,0.05863
2077.25870,0.05876
2075.32995,0.05883
2073.40121,0.05887
2071.47246,0.05879
2069.54371,0.05864
2067.61497,0.05852
2065.68622,0.05842
2063.75748,0.05841
2061.82873,0.05846
2059.89999,0.05840
2057.97124,0.05828
2056.04250,0.05826
2054.11375,0.05832
2052.18501,0.05841
2050.25626,0.05858
2048.32752,0.05869
2046.39877,0.05862
2044.47003,0.05854
2042.54128,0.05857
2040.61254,0.05858
2038.68379,0.05853
2036.75504,0.05853
2034.82630,0.05854
2032.89755,0.05843
2030.96881,0.05827
2029.04006,0.05817
2027.11132,0.05813
2025.18257,0.05809
2023.25383,0.05802
2021.32508,0.05798
2019.39634,0.05803
2017.46759,0.05810
2015.53885,0.05816
2013.61010,0.05810
2011.68136,0.05786
2009.75261,0.05751
2007.82386,0.05726
2005.89512,0.05722
2003.96637,0.05728
2002.03763,0.05731
2000.10888,0.05728
1998.18014,0.05715
1996.25139,0.05698
1994.32265,0.05688
1992.39390,0.05686
1990.46516,0.05685
1988.53641,0.05689
1986.60767,0.05692
1984.67892,0.05675
1982.75018,0.05658
1980.82143,0.05672
1978.89269,0.05699
1976.96394,0.05705
1975.03519,0.05683
1973.10645,0.05652
1971.17770,0.05639
1969.24896,0.05644
1967.32021,0.05654
1965.39147,0.05657
1963.46272,0.05647
1961.53398,0.05629
1959.60523,0.05623
1957.67649,0.05638
1955.74774,0.05652
1953.81900,0.05643
1951.89025,0.05626
1949.96151,0.05624
1948.03276,0.05633
1946.10402,0.05641
1944.17527,0.05643
1942.24652,0.05632
1940.31778,0.05619
1938.38903,0.05620
1936.46029,0.05626
1934.53154,0.05618
1932.60280,0.05600
1930.67405,0.05588
1928.74531,0.05586
1926.81656,0.05582
1924.88782,0.05569
1922.95907,0.05564
1921.03033,0.05573
1919.10158,0.05574
1917.17284,0.05565
1915.24409,0.05559
1913.31534,0.05561
1911.38660,0.05562
1909.45785,0.05563
1907.52911,0.05566
1905.60036,0.05559
1903.67162,0.05549
1901.74287,0.05542
1899.81413,0.05533
1897.88538,0.05522
1895.95664,0.05507
1894.02789,0.05489
1892.09915,0.05487
1890.17040,0.05501
1888.24166,0.05506
1886.31291,0.05493
1884.38417,0.05472
1882.45542,0.05454
1880.52667,0.05439
1878.59793,0.05424
1876.66918,0.05409
1874.74044,0.05399
1872.81169,0.05400
1870.88295,0.05397
1868.95420,0.05381
1867.02546,0.05364
1865.09671,0.05346
1863.16797,0.05327
1861.23922,0.05321
1859.31048,0.05321
1857.38173,0.05317
1855.45299,0.05310
1853.52424,0.05299
1851.59549,0.05275
1849.66675,0.05238
1847.73800,0.05215
1845.80926,0.05215
1843.88051,0.05204
1841.95177,0.05178
1840.02302,0.05165
1838.09428,0.05172
1836.16553,0.05183
1834.23679,0.05178
1832.30804,0.05157
1830.37930,0.05133
1828.45055,0.05121
1826.52181,0.05124
1824.59306,0.05123
1822.66432,0.05107
1820.73557,0.05089
1818.80682,0.05064
1816.87808,0.05034
1814.94933,0.05010
1813.02059,0.04993
1811.09184,0.04975
1809.16310,0.04953
1807.23435,0.04924
1805.30561,0.04889
1803.37686,0.04865
1801.44812,0.04854
1799.51937,0.04840
1797.59063,0.04813
1795.66188,0.04786
1793.73314,0.04770
1791.80439,0.04751
1789.87565,0.04719
1787.94690,0.04681
1786.01815,0.04638
1784.08941,0.04589
1782.16066,0.04536
1780.23192,0.04490
1778.30317,0.04449
1776.37443,0.04400
1774.44568,0.04335
1772.51694,0.04257
1770.58819,0.04181
1768.65945,0.04108
1766.73070,0.04028
1764.80196,0.03935
1762.87321,0.03828
1760.94447,0.03726
1759.01572,0.03641
1757.08697,0.03540
1755.15823,0.03408
1753.22948,0.03266
1751.30074,0.03103
1749.37199,0.02921
1747.44325,0.02739
1745.51450,0.02572
1743.58576,0.02454
1741.65701,0.02455
1739.72827,0.02641
1737.79952,0.03020
1735.87078,0.03617
1733.94203,0.04498
1732.01329,0.05538
1730.08454,0.06595
1728.15580,0.07696
1726.22705,0.08816
1724.29830,0.09934
1722.36956,0.11028
1720.44081,0.12016
1718.51207,0.12796
1716.58332,0.13158
1714.65458,0.12987
1712.72583,0.12453
1710.79709,0.11748
1708.86834,0.11005
1706.93960,0.10323
1705.01085,0.09766
1703.08211,0.09347
1701.15336,0.08985
1699.22462,0.08649
1697.29587,0.08386
1695.36713,0.08153
1693.43838,0.07944
1691.50963,0.07788
1689.58089,0.07660
1687.65214,0.07545
1685.72340,0.07432
1683.79465,0.07329
1681.86591,0.07264
1679.93716,0.07218
1678.00842,0.07160
1676.07967,0.07089
1674.15093,0.07031
1672.22218,0.06993
1670.29344,0.06963
1668.36469,0.06931
1666.43595,0.06890
1664.50720,0.06843
1662.57845,0.06798
1660.64971,0.06758
1658.72096,0.06722
1656.79222,0.06691
1654.86347,0.06671
1652.93473,0.06653
1651.00598,0.06623
1649.07724,0.06594
1647.14849,0.06559
1645.21975,0.06512
1643.29100,0.06464
1641.36226,0.06428
1639.43351,0.06420
1637.50477,0.06430
1635.57602,0.06414
1633.64728,0.06364
1631.71853,0.06320
1629.78978,0.06293
1627.86104,0.06275
1625.93229,0.06272
1624.00355,0.06265
1622.07480,0.06233
1620.14606,0.06193
1618.21731,0.06167
1616.28857,0.06154
1614.35982,0.06146
1612.43108,0.06145
1610.50233,0.06148
1608.57359,0.06139
1606.64484,0.06119
1604.71610,0.06104
1602.78735,0.06088
1600.85861,0.06075
1598.92986,0.06076
1597.00111,0.06065
1595.07237,0.06028
1593.14362,0.05981
1591.21488,0.05938
1589.28613,0.05900
1587.35739,0.05875
1585.42864,0.05849
1583.49990,0.05815
1581.57115,0.05798
1579.64241,0.05814
1577.71366,0.05850
1575.78492,0.05883
1573.85617,0.05899
1571.92743,0.05907
1569.99868,0.05906
1568.06993,0.05887
1566.14119,0.05849
1564.21244,0.05814
1562.28370,0.05797
1560.35495,0.05783
1558.42621,0.05759
1556.49746,0.05745
1554.56872,0.05740
1552.63997,0.05730
1550.71123,0.05711
1548.78248,0.05682
1546.85374,0.05656
1544.92499,0.05641
1542.99625,0.05634
1541.06750,0.05629
1539.13876,0.05621
1537.21001,0.05620
1535.28126,0.05610
1533.35252,0.05570
1531.42377,0.05530
1529.49503,0.05515
1527.56628,0.05500
1525.63754,0.05473
1523.70879,0.05459
1521.78005,0.05456
1519.85130,0.05432
1517.92256,0.05380
1515.99381,0.05327
1514.06507,0.05296
1512.13632,0.05276
1510.20758,0.05242
1508.27883,0.05225
1506.35008,0.05308
1504.42134,0.05467
1502.49259,0.05576
1500.56385,0.05592
1498.63510,0.05541
1496.70636,0.05476
1494.77761,0.05427
1492.84887,0.05398
1490.92012,0.05373
1488.99138,0.05331
1487.06263,0.05281
1485.13389,0.05236
1483.20514,0.05205
1481.27640,0.05183
1479.34765,0.05155
1477.41891,0.05121
1475.49016,0.05101
1473.56141,0.05098
1471.63267,0.05115
1469.70392,0.05138
1467.77518,0.05133
1465.84643,0.05096
1463.91769,0.05062
1461.98894,0.05042
1460.06020,0.05018
1458.13145,0.05008
1456.20271,0.05031
1454.27396,0.05060
1452.34522,0.05081
1450.41647,0.05093
1448.48773,0.05086
1446.55898,0.05068
1444.63024,0.05065
1442.70149,0.05075
1440.77274,0.05089
1438.84400,0.05106
1436.91525,0.05100
1434.98651,0.05050
1433.05776,0.04985
1431.12902,0.04930
1429.20027,0.04877
1427.27153,0.04808
1425.34278,0.04717
1423.41404,0.04611
1421.48529,0.04492
1419.55655,0.04347
1417.62780,0.04191
1415.69906,0.04093
1413.77031,0.04150
1411.84156,0.04421
1409.91282,0.04842
1407.98407,0.05240
1406.05533,0.05477
1404.12658,0.05534
1402.19784,0.05475
1400.26909,0.05364
1398.34035,0.05248
1396.41160,0.05163
1394.48286,0.05108
1392.55411,0.05060
1390.62537,0.05014
1388.69662,0.04955
1386.76788,0.04873
1384.83913,0.04802
1382.91039,0.04751
1380.98164,0.04700
1379.05289,0.04653
1377.12415,0.04618
1375.19540,0.04587
1373.26666,0.04571
1371.33791,0.04597
1369.40917,0.04649
1367.48042,0.04686
1365.55168,0.04694
1363.62293,0.04666
1361.69419,0.04581
1359.76544,0.04464
1357.83670,0.04364
1355.90795,0.04276
1353.97921,0.04173
1352.05046,0.04057
1350.12172,0.03954
1348.19297,0.03896
1346.26422,0.03946
1344.33548,0.04185
1342.40673,0.04591
1340.47799,0.04980
1338.54924,0.05148
1336.62050,0.05060
1334.69175,0.04825
1332.76301,0.04544
1330.83426,0.04273
1328.90552,0.04040
1326.97677,0.03847
1325.04803,0.03688
1323.11928,0.03551
1321.19054,0.03425
1319.26179,0.03294
1317.33304,0.03157
1315.40430,0.03027
1313.47555,0.02898
1311.54681,0.02765
1309.61806,0.02637
1307.68932,0.02530
1305.76057,0.02439
1303.83183,0.02360
1301.90308,0.02333
1299.97434,0.02400
1298.04559,0.02569
1296.11685,0.02835
1294.18810,0.03196
1292.25936,0.03623
1290.33061,0.04072
1288.40187,0.04522
1286.47312,0.04980
1284.54437,0.05461
1282.61563,0.05983
1280.68688,0.06564
1278.75814,0.07201
1276.82939,0.07895
1274.90065,0.08672
1272.97190,0.09534
1271.04316,0.10457
1269.11441,0.11395
1267.18567,0.12282
1265.25692,0.13050
1263.32818,0.13656
1261.39943,0.14085
1259.47069,0.14374
1257.54194,0.14599
1255.61320,0.14852
1253.68445,0.15187
1251.75570,0.15562
1249.82696,0.15877
1247.89821,0.16054
1245.96947,0.16069
1244.04072,0.15928
1242.11198,0.15640
1240.18323,0.15226
1238.25449,0.14712
1236.32574,0.14122
1234.39700,0.13494
1232.46825,0.12867
1230.53951,0.12267
1228.61076,0.11719
1226.68202,0.11242
1224.75327,0.10843
1222.82452,0.10505
1220.89578,0.10200
1218.96703,0.09924
1217.03829,0.09670
1215.10954,0.09426
1213.18080,0.09205
1211.25205,0.09016
1209.32331,0.08846
1207.39456,0.08686
1205.46582,0.08519
1203.53707,0.08349
1201.60833,0.08194
1199.67958,0.08046
1197.75084,0.07900
1195.82209,0.07766
1193.89335,0.07639
1191.96460,0.07502
1190.03585,0.07350
1188.10711,0.07205
1186.17836,0.07096
1184.24962,0.07009
1182.32087,0.06902
1180.39213,0.06778
1178.46338,0.06669
1176.53464,0.06597
1174.60589,0.06550
1172.67715,0.06506
1170.74840,0.06455
1168.81966,0.06383
1166.89091,0.06286
1164.96217,0.06165
1163.03342,0.06006
1161.10467,0.05823
1159.17593,0.05665
1157.24718,0.05531
1155.31844,0.05382
1153.38969,0.05217
1151.46095,0.05059
1149.53220,0.04904
1147.60346,0.04742
1145.67471,0.04585
1143.74597,0.04468
1141.81722,0.04417
1139.88848,0.04435
1137.95973,0.04565
1136.03099,0.04890
1134.10224,0.05422
1132.17350,0.06078
1130.24475,0.06787
1128.31600,0.07503
1126.38726,0.08147
1124.45851,0.08649
1122.52977,0.09001
1120.60102,0.09224
1118.67228,0.09320
1116.74353,0.09284
1114.81479,0.09187
1112.88604,0.09131
1110.95730,0.09140
1109.02855,0.09219
1107.09981,0.09430
1105.17106,0.09816
1103.24232,0.10337
1101.31357,0.10883
1099.38483,0.11353
1097.45608,0.11723
1095.52733,0.11981
1093.59859,0.12100
1091.66984,0.12108
1089.74110,0.12045
1087.81235,0.11903
1085.88361,0.11701
1083.95486,0.11499
1082.02612,0.11286
1080.09737,0.11025
1078.16863,0.10737
1076.23988,0.10465
1074.31114,0.10223
1072.38239,0.09988
1070.45365,0.09742
1068.52490,0.09510
1066.59615,0.09308
1064.66741,0.09140
1062.73866,0.08997
1060.80992,0.08850
1058.88117,0.08679
1056.95243,0.08512
1055.02368,0.08380
1053.09494,0.08275
1051.16619,0.08198
1049.23745,0.08159
1047.30870,0.08129
1045.37996,0.08091
1043.45121,0.08084
1041.52247,0.08109
1039.59372,0.08096
1037.66498,0.08049
1035.73623,0.08013
1033.80748,0.07960
1031.87874,0.07880
1029.94999,0.07783
1028.02125,0.07671
1026.09250,0.07648
1024.16376,0.07856
1022.23501,0.08281
1020.30627,0.08826
1018.37752,0.09411
1016.44878,0.09883
1014.52003,0.10046
1012.59129,0.09887
1010.66254,0.09588
1008.73380,0.09319
1006.80505,0.09092
1004.87631,0.08887
1002.94756,0.08728
1001.01881,0.08592
999.09007,0.08456
997.16132,0.08356
995.23258,0.08295
993.30383,0.08235
991.37509,0.08167
989.44634,0.08110
987.51760,0.08075
985.58885,0.08052
983.66011,0.08018
981.73136,0.07960
979.80262,0.07898
977.87387,0.07871
975.94513,0.07884
974.01638,0.07913
972.08763,0.07953
970.15889,0.08013
968.23014,0.08063
966.30140,0.08058
964.37265,0.08013
962.44391,0.07975
960.51516,0.07939
958.58642,0.07883
956.65767,0.07828
954.72893,0.07782
952.80018,0.07725
950.87144,0.07665
948.94269,0.07623
947.01395,0.07594
945.08520,0.07580
943.15646,0.07563
941.22771,0.07526
939.29896,0.07479
937.37022,0.07442
935.44147,0.07416
933.51273,0.07393
931.58398,0.07373
929.65524,0.07356
927.72649,0.07330
925.79775,0.07295
923.86900,0.07267
921.94026,0.07243
920.01151,0.07196
918.08277,0.07116
916.15402,0.07032
914.22528,0.06981
912.29653,0.06955
910.36779,0.06930
908.43904,0.06905
906.51029,0.06882
904.58155,0.06858
902.65280,0.06845
900.72406,0.06849
898.79531,0.06876
896.86657,0.06905
894.93782,0.06898
893.00908,0.06861
891.08033,0.06838
889.15159,0.06830
887.22284,0.06812
885.29410,0.06793
883.36535,0.06783
881.43661,0.06746
879.50786,0.06681
877.57911,0.06645
875.65037,0.06704
873.72162,0.06908
871.79288,0.07211
869.86413,0.07439
867.93539,0.07502
866.00664,0.07480
864.07790,0.07451
862.14915,0.07418
860.22041,0.07370
858.29166,0.07316
856.36292,0.07293
854.43417,0.07291
852.50543,0.07291
850.57668,0.07313
848.64794,0.07339
846.71919,0.07340
844.79044,0.07341
842.86170,0.07358
840.93295,0.07363
839.00421,0.07347
837.07546,0.07334
835.14672,0.07327
833.21797,0.07316
831.28923,0.07300
829.36048,0.07291
827.43174,0.07281
825.50299,0.07262
823.57425,0.07240
821.64550,0.07204
819.71676,0.07159
817.78801,0.07122
815.85926,0.07085
813.93052,0.07046
812.00177,0.07002
810.07303,0.06958
808.14428,0.06955
806.21554,0.06987
804.28679,0.06984
802.35805,0.06942
800.42930,0.06916
798.50056,0.06906
796.57181,0.06897
794.64307,0.06916
792.71432,0.06971
790.78558,0.07033
788.85683,0.07067
786.92809,0.07045
784.99934,0.06984
783.07059,0.06938
781.14185,0.06911
779.21310,0.06870
777.28436,0.06828
775.35561,0.06796
773.42687,0.06748
771.49812,0.06674
769.56938,0.06588
767.64063,0.06526
765.71189,0.06492
763.78314,0.06441
761.85440,0.06373
759.92565,0.06302
757.99691,0.06214
756.06816,0.06118
754.13942,0.06010
752.21067,0.05852
750.28192,0.05637
748.35318,0.05413
746.42443,0.05189
744.49569,0.04882
742.56694,0.04470
740.63820,0.04039
738.70945,0.03722
736.78071,0.03714
734.85196,0.04206
732.92322,0.05298
730.99447,0.07026
729.06573,0.09326
727.13698,0.11741
725.20824,0.13360
723.27949,0.13587
721.35074,0.12767
719.42200,0.11664
717.49325,0.10730
715.56451,0.10092
713.63576,0.09712
711.70702,0.09449
709.77827,0.09206
707.84953,0.09001
705.92078,0.08877
703.99204,0.08818
702.06329,0.08758
700.13455,0.08650
698.20580,0.08488
696.27706,0.08314
694.34831,0.08201
692.41957,0.08158
690.49082,0.08134
688.56207,0.08101
686.63333,0.08038
684.70458,0.07950
682.77584,0.07886
680.84709,0.07867
678.91835,0.07852
676.98960,0.07833
675.06086,0.07832
673.13211,0.07827
671.20337,0.07792
669.27462,0.07734
667.34588,0.07712
665.41713,0.07762
663.48839,0.07780
661.55964,0.07705
659.63090,0.07593
657.70215,0.07505
655.77340,0.07486
653.84466,0.07519
651.91591,0.07542
649.98717,0.07513
648.05842,0.07418
646.12968,0.07305
644.20093,0.07270
642.27219,0.07348
640.34344,0.07426
638.41470,0.07396
636.48595,0.07306
634.55721,0.07249
632.62846,0.07246
630.69972,0.07233
628.77097,0.07144
626.84222,0.07027
624.91348,0.06999
622.98473,0.07074
621.05599,0.07172
619.12724,0.07229
617.19850,0.07242
615.26975,0.07227
613.34101,0.07176
611.41226,0.07103
609.48352,0.07047
607.55477,0.07054
605.62603,0.07101
603.69728,0.07067
601.76854,0.06933
599.83979,0.06789
