7497.03301,0.51352
7495.10426,0.51204
7493.17552,0.51164
7491.24677,0.51125
7489.31803,0.51050
7487.38928,0.51057
7485.46054,0.51155
7483.53179,0.50926
7481.60305,0.50328
7479.67430,0.49946
7477.74556,0.50056
7475.81681,0.50216
7473.88807,0.50108
7471.95932,0.49985
7470.03057,0.49817
7468.10183,0.49414
7466.17308,0.49081
7464.24434,0.48910
7462.31559,0.48801
7460.38685,0.48760
7458.45810,0.48446
7456.52936,0.47897
7454.60061,0.47491
7452.67187,0.47092
7450.74312,0.46534
7448.81438,0.45985
7446.88563,0.45881
7444.95689,0.46313
7443.02814,0.46659
7441.09940,0.46517
7439.17065,0.45981
7437.24190,0.45317
7435.31316,0.44845
7433.38441,0.44644
7431.45567,0.44401
7429.52692,0.43820
7427.59818,0.43262
7425.66943,0.43069
7423.74069,0.42800
7421.81194,0.42119
7419.88320,0.41277
7417.95445,0.40697
7416.02571,0.40700
7414.09696,0.41045
7412.16822,0.41208
7410.23947,0.41180
7408.31073,0.41112
7406.38198,0.40978
7404.45323,0.40792
7402.52449,0.40498
7400.59574,0.40117
7398.66700,0.39803
7396.73825,0.39474
7394.80951,0.38992
7392.88076,0.38535
7390.95202,0.38502
7389.02327,0.38976
7387.09453,0.39436
7385.16578,0.39427
7383.23704,0.39077
7381.30829,0.38679
7379.37955,0.38329
7377.45080,0.38029
7375.52205,0.37796
7373.59331,0.37514
7371.66456,0.37182
7369.73582,0.37040
7367.80707,0.36994
7365.87833,0.36742
7363.94958,0.36290
7362.02084,0.35931
7360.09209,0.35926
7358.16335,0.36124
7356.23460,0.36212
7354.30586,0.36066
7352.37711,0.35703
7350.44837,0.35366
7348.51962,0.35198
7346.59088,0.35016
7344.66213,0.35105
7342.73338,0.35725
7340.80464,0.36070
7338.87589,0.35638
7336.94715,0.35142
7335.01840,0.35163
7333.08966,0.35462
7331.16091,0.35530
7329.23217,0.35360
7327.30342,0.35211
7325.37468,0.35163
7323.44593,0.35206
7321.51719,0.35186
7319.58844,0.35018
7317.65970,0.34826
7315.73095,0.34831
7313.80221,0.35221
7311.87346,0.35765
7309.94471,0.35934
7308.01597,0.35583
7306.08722,0.35273
7304.15848,0.35321
7302.22973,0.35406
7300.30099,0.35455
7298.37224,0.35436
7296.44350,0.35129
7294.51475,0.34732
7292.58601,0.34545
7290.65726,0.34693
7288.72852,0.35083
7286.79977,0.35361
7284.87103,0.35392
7282.94228,0.35292
7281.01353,0.35041
7279.08479,0.34616
7277.15604,0.34206
7275.22730,0.34099
7273.29855,0.34428
7271.36981,0.34875
7269.44106,0.35014
7267.51232,0.34891
7265.58357,0.34616
7263.65483,0.34251
7261.72608,0.34113
7259.79734,0.34215
7257.86859,0.34201
7255.93985,0.34026
7254.01110,0.33868
7252.08236,0.33742
7250.15361,0.33649
7248.22486,0.33609
7246.29612,0.33575
7244.36737,0.33666
7242.43863,0.34007
7240.50988,0.34392
7238.58114,0.34544
7236.65239,0.34533
7234.72365,0.34431
7232.79490,0.34111
7230.86616,0.33805
7228.93741,0.33788
7227.00867,0.33895
7225.07992,0.34046
7223.15118,0.34194
7221.22243,0.34188
7219.29369,0.34095
7217.36494,0.34059
7215.43619,0.33865
7213.50745,0.33326
7211.57870,0.32841
7209.64996,0.32807
7207.72121,0.32943
7205.79247,0.32812
7203.86372,0.32526
7201.93498,0.32519
7200.00623,0.32883
7198.07749,0.33316
7196.14874,0.33471
7194.22000,0.33181
7192.29125,0.32665
7190.36251,0.32350
7188.43376,0.32329
7186.50501,0.32391
7184.57627,0.32366
7182.64752,0.32253
7180.71878,0.32213
7178.79003,0.32446
7176.86129,0.32889
7174.93254,0.33025
7173.00380,0.32643
7171.07505,0.32230
7169.14631,0.32063
7167.21756,0.32098
7165.28882,0.32204
7163.36007,0.32067
7161.43133,0.31732
7159.50258,0.31692
7157.57384,0.32026
7155.64509,0.32209
7153.71634,0.31924
7151.78760,0.31529
7149.85885,0.31435
7147.93011,0.31494
7146.00136,0.31445
7144.07262,0.31255
7142.14387,0.30902
7140.21513,0.30501
7138.28638,0.30086
7136.35764,0.29670
7134.42889,0.29607
7132.50015,0.29908
7130.57140,0.30083
7128.64266,0.30038
7126.71391,0.30138
7124.78516,0.30329
7122.85642,0.30279
7120.92767,0.30044
7118.99893,0.29717
7117.07018,0.29382
7115.14144,0.29301
7113.21269,0.29432
7111.28395,0.29486
7109.35520,0.29366
7107.42646,0.29297
7105.49771,0.29399
7103.56897,0.29217
7101.64022,0.28732
7099.71148,0.28741
7097.78273,0.29361
7095.85399,0.29910
7093.92524,0.30046
7091.99649,0.29858
7090.06775,0.29507
7088.13900,0.29096
7086.21026,0.28792
7084.28151,0.28864
7082.35277,0.29267
7080.42402,0.29567
7078.49528,0.29530
7076.56653,0.29354
7074.63779,0.29206
7072.70904,0.29081
7070.78030,0.29092
7068.85155,0.29280
7066.92281,0.29407
7064.99406,0.29395
7063.06532,0.29321
7061.13657,0.29178
7059.20782,0.29172
7057.27908,0.29458
7055.35033,0.29691
7053.42159,0.29487
7051.49284,0.29015
7049.56410,0.28754
7047.63535,0.28895
7045.70661,0.29300
7043.77786,0.29665
7041.84912,0.29641
7039.92037,0.29365
7037.99163,0.29359
7036.06288,0.29627
7034.13414,0.29770
7032.20539,0.29672
7030.27664,0.29434
7028.34790,0.29367
7026.41915,0.29714
7024.49041,0.30090
7022.56166,0.30080
7020.63292,0.29858
7018.70417,0.29738
7016.77543,0.29788
7014.84668,0.29976
7012.91794,0.30242
7010.98919,0.30259
7009.06045,0.30007
7007.13170,0.30080
7005.20296,0.30572
7003.27421,0.30915
7001.34547,0.30911
6999.41672,0.30861
6997.48797,0.30996
6995.55923,0.31259
6993.63048,0.31582
6991.70174,0.32088
6989.77299,0.32555
6987.84425,0.32507
6985.91550,0.32180
6983.98676,0.32069
6982.05801,0.32142
6980.12927,0.32246
6978.20052,0.32333
6976.27178,0.32405
6974.34303,0.32547
6972.41429,0.32778
6970.48554,0.32891
6968.55680,0.32709
6966.62805,0.32564
6964.69930,0.32830
6962.77056,0.33224
6960.84181,0.33381
6958.91307,0.33341
6956.98432,0.33270
6955.05558,0.33386
6953.12683,0.33592
6951.19809,0.33511
6949.26934,0.33329
6947.34060,0.33398
6945.41185,0.33585
6943.48311,0.33836
6941.55436,0.34224
6939.62562,0.34469
6937.69687,0.34409
6935.76812,0.34391
6933.83938,0.34578
6931.91063,0.34803
6929.98189,0.34949
6928.05314,0.34994
6926.12440,0.35072
6924.19565,0.35285
6922.26691,0.35565
6920.33816,0.35685
6918.40942,0.35557
6916.48067,0.35541
6914.55193,0.35717
6912.62318,0.35816
6910.69444,0.35914
6908.76569,0.35976
6906.83695,0.35774
6904.90820,0.35520
6902.97945,0.35530
6901.05071,0.35705
6899.12196,0.35882
6897.19322,0.36204
6895.26447,0.36717
6893.33573,0.37096
6891.40698,0.37081
6889.47824,0.36829
6887.54949,0.36679
6885.62075,0.36702
6883.69200,0.36710
6881.76326,0.36675
6879.83451,0.36721
6877.90577,0.36778
6875.97702,0.36673
6874.04828,0.36537
6872.11953,0.36556
6870.19078,0.36541
6868.26204,0.36408
6866.33329,0.36399
6864.40455,0.36562
6862.47580,0.36722
6860.54706,0.36824
6858.61831,0.36919
6856.68957,0.36911
6854.76082,0.36795
6852.83208,0.36808
6850.90333,0.37017
6848.97459,0.37241
6847.04584,0.37231
6845.11710,0.36940
6843.18835,0.36705
6841.25960,0.36684
6839.33086,0.36630
6837.40211,0.36489
6835.47337,0.36499
6833.54462,0.36745
6831.61588,0.37169
6829.68713,0.37623
6827.75839,0.37820
6825.82964,0.37683
6823.90090,0.37513
6821.97215,0.37579
6820.04341,0.37821
6818.11466,0.38095
6816.18592,0.38326
6814.25717,0.38447
6812.32843,0.38568
6810.39968,0.38848
6808.47093,0.39075
6806.54219,0.38967
6804.61344,0.38779
6802.68470,0.38811
6800.75595,0.38843
6798.82721,0.38809
6796.89846,0.39020
6794.96972,0.39388
6793.04097,0.39468
6791.11223,0.39261
6789.18348,0.39087
6787.25474,0.39020
6785.32599,0.39190
6783.39725,0.39581
6781.46850,0.39788
6779.53975,0.39844
6777.61101,0.40004
6775.68226,0.40079
6773.75352,0.39919
6771.82477,0.39878
6769.89603,0.40213
6767.96728,0.40460
6766.03854,0.40412
6764.10979,0.40536
6762.18105,0.40946
6760.25230,0.41278
6758.32356,0.41247
6756.39481,0.41091
6754.46607,0.41205
6752.53732,0.41439
6750.60858,0.41504
6748.67983,0.41561
6746.75108,0.41782
6744.82234,0.41841
6742.89359,0.41617
6740.96485,0.41554
6739.03610,0.41839
6737.10736,0.42282
6735.17861,0.42683
6733.24987,0.42954
6731.32112,0.43176
6729.39238,0.43288
6727.46363,0.43088
6725.53489,0.42663
6723.60614,0.42399
6721.67740,0.42468
6719.74865,0.42682
6717.81991,0.42849
6715.89116,0.42930
6713.96241,0.42931
6712.03367,0.42888
6710.10492,0.42830
6708.17618,0.42817
6706.24743,0.42980
6704.31869,0.43192
6702.38994,0.43168
6700.46120,0.43023
6698.53245,0.42990
6696.60371,0.42991
6694.67496,0.43021
6692.74622,0.43263
6690.81747,0.43584
6688.88873,0.43606
6686.95998,0.43400
6685.03123,0.43266
6683.10249,0.43087
6681.17374,0.42853
6679.24500,0.42886
6677.31625,0.43145
6675.38751,0.43339
6673.45876,0.43504
6671.53002,0.43807
6669.60127,0.43996
6667.67253,0.43787
6665.74378,0.43460
6663.81504,0.43319
6661.88629,0.43353
6659.95755,0.43437
6658.02880,0.43438
6656.10006,0.43423
6654.17131,0.43449
6652.24256,0.43505
6650.31382,0.43737
6648.38507,0.43998
6646.45633,0.44020
6644.52758,0.44032
6642.59884,0.44273
6640.67009,0.44529
6638.74135,0.44539
6636.81260,0.44386
6634.88386,0.44377
6632.95511,0.44596
6631.02637,0.44870
6629.09762,0.44998
6627.16888,0.44904
6625.24013,0.44696
6623.31139,0.44537
6621.38264,0.44573
6619.45389,0.44710
6617.52515,0.44652
6615.59640,0.44479
6613.66766,0.44534
6611.73891,0.44819
6609.81017,0.45065
6607.88142,0.45117
6605.95268,0.44990
6604.02393,0.44868
6602.09519,0.44935
6600.16644,0.45036
6598.23770,0.45039
6596.30895,0.45150
6594.38021,0.45429
6592.45146,0.45681
6590.52271,0.45706
6588.59397,0.45537
6586.66522,0.45493
6584.73648,0.45594
6582.80773,0.45609
6580.87899,0.45578
6578.95024,0.45550
6577.02150,0.45446
6575.09275,0.45246
6573.16401,0.45117
6571.23526,0.45306
6569.30652,0.45673
6567.37777,0.45850
6565.44903,0.45777
6563.52028,0.45555
6561.59154,0.45254
6559.66279,0.45070
6557.73404,0.45083
6555.80530,0.45090
6553.87655,0.45104
6551.94781,0.45251
6550.01906,0.45331
6548.09032,0.45212
6546.16157,0.45111
6544.23283,0.45183
6542.30408,0.45297
6540.37534,0.45279
6538.44659,0.45103
6536.51785,0.44838
6534.58910,0.44667
6532.66036,0.44724
6530.73161,0.44859
6528.80287,0.44867
6526.87412,0.44779
6524.94537,0.44700
6523.01663,0.44695
6521.08788,0.44864
6519.15914,0.45122
6517.23039,0.45187
6515.30165,0.45037
6513.37290,0.44946
6511.44416,0.45004
6509.51541,0.45019
6507.58667,0.44899
6505.65792,0.44837
6503.72918,0.44978
6501.80043,0.45117
6499.87169,0.45060
6497.94294,0.44983
6496.01419,0.45046
6494.08545,0.45058
6492.15670,0.44870
6490.22796,0.44696
6488.29921,0.44837
6486.37047,0.45243
6484.44172,0.45446
6482.51298,0.45224
6480.58423,0.45011
6478.65549,0.45117
6476.72674,0.45290
6474.79800,0.45250
6472.86925,0.45044
6470.94051,0.44898
6469.01176,0.44963
6467.08302,0.45154
6465.15427,0.45182
6463.22552,0.45020
6461.29678,0.44930
6459.36803,0.44913
6457.43929,0.44827
6455.51054,0.44679
6453.58180,0.44523
6451.65305,0.44480
6449.72431,0.44522
6447.79556,0.44418
6445.86682,0.44215
6443.93807,0.44153
6442.00933,0.44206
6440.08058,0.44164
6438.15184,0.43960
6436.22309,0.43713
6434.29434,0.43563
6432.36560,0.43560
6430.43685,0.43530
6428.50811,0.43374
6426.57936,0.43368
6424.65062,0.43632
6422.72187,0.43916
6420.79313,0.44080
6418.86438,0.44180
6416.93564,0.44184
6415.00689,0.44094
6413.07815,0.44056
6411.14940,0.44045
6409.22066,0.43973
6407.29191,0.43886
6405.36317,0.43821
6403.43442,0.43857
6401.50567,0.43933
6399.57693,0.43888
6397.64818,0.43823
6395.71944,0.43911
6393.79069,0.44093
6391.86195,0.44211
6389.93320,0.44209
6388.00446,0.44131
6386.07571,0.44030
6384.14697,0.43879
6382.21822,0.43722
6380.28948,0.43621
6378.36073,0.43523
6376.43199,0.43525
6374.50324,0.43641
6372.57450,0.43635
6370.64575,0.43550
6368.71700,0.43540
6366.78826,0.43535
6364.85951,0.43556
6362.93077,0.43552
6361.00202,0.43354
6359.07328,0.43188
6357.14453,0.43262
6355.21579,0.43304
6353.28704,0.43230
6351.35830,0.43181
6349.42955,0.42977
6347.50081,0.42614
6345.57206,0.42398
6343.64332,0.42268
6341.71457,0.42088
6339.78582,0.41981
6337.85708,0.41922
6335.92833,0.41812
6333.99959,0.41698
6332.07084,0.41631
6330.14210,0.41527
6328.21335,0.41260
6326.28461,0.40957
6324.35586,0.40913
6322.42712,0.41130
6320.49837,0.41281
6318.56963,0.41208
6316.64088,0.41094
6314.71214,0.41069
6312.78339,0.41107
6310.85465,0.41227
6308.92590,0.41346
6306.99715,0.41242
6305.06841,0.41040
6303.13966,0.41040
6301.21092,0.41063
6299.28217,0.40950
6297.35343,0.40928
6295.42468,0.40946
6293.49594,0.40809
6291.56719,0.40632
6289.63845,0.40547
6287.70970,0.40523
6285.78096,0.40485
6283.85221,0.40355
6281.92347,0.40087
6279.99472,0.39790
6278.06598,0.39620
6276.13723,0.39501
6274.20848,0.39241
6272.27974,0.38879
6270.35099,0.38694
6268.42225,0.38737
6266.49350,0.38670
6264.56476,0.38344
6262.63601,0.37971
6260.70727,0.37730
6258.77852,0.37570
6256.84978,0.37400
6254.92103,0.37285
6252.99229,0.37238
6251.06354,0.37120
6249.13480,0.36867
6247.20605,0.36563
6245.27730,0.36340
6243.34856,0.36252
6241.41981,0.36148
6239.49107,0.35869
6237.56232,0.35597
6235.63358,0.35472
6233.70483,0.35370
6231.77609,0.35274
6229.84734,0.35147
6227.91860,0.34932
6225.98985,0.34803
6224.06111,0.34769
6222.13236,0.34515
6220.20362,0.34011
6218.27487,0.33555
6216.34613,0.33189
6214.41738,0.32726
6212.48863,0.32064
6210.55989,0.31242
6208.63114,0.30337
6206.70240,0.29404
6204.77365,0.28591
6202.84491,0.27971
6200.91616,0.27409
6198.98742,0.26847
6197.05867,0.26404
6195.12993,0.26181
6193.20118,0.26130
6191.27244,0.26124
6189.34369,0.26114
6187.41495,0.26218
6185.48620,0.26470
6183.55746,0.26697
6181.62871,0.26907
6179.69996,0.27122
6177.77122,0.27209
6175.84247,0.27230
6173.91373,0.27179
6171.98498,0.26890
6170.05624,0.26451
6168.12749,0.26069
6166.19875,0.25844
6164.27000,0.25812
6162.34126,0.25782
6160.41251,0.25482
6158.48377,0.25027
6156.55502,0.24643
6154.62628,0.24260
6152.69753,0.23866
6150.76878,0.23601
6148.84004,0.23340
6146.91129,0.22871
6144.98255,0.22360
6143.05380,0.22126
6141.12506,0.22181
6139.19631,0.22315
6137.26757,0.22419
6135.33882,0.22457
6133.41008,0.22389
6131.48133,0.22186
6129.55259,0.21861
6127.62384,0.21571
6125.69510,0.21444
6123.76635,0.21335
6121.83761,0.21080
6119.90886,0.20712
6117.98011,0.20288
6116.05137,0.19776
6114.12262,0.19163
6112.19388,0.18527
6110.26513,0.17973
6108.33639,0.17517
6106.40764,0.17151
6104.47890,0.16909
6102.55015,0.16618
6100.62141,0.16048
6098.69266,0.15342
6096.76392,0.14769
6094.83517,0.14325
6092.90643,0.13888
6090.97768,0.13484
6089.04893,0.13130
6087.12019,0.12802
6085.19144,0.12573
6083.26270,0.12387
6081.33395,0.12098
6079.40521,0.11773
6077.47646,0.11582
6075.54772,0.11520
6073.61897,0.11359
6071.69023,0.11079
6069.76148,0.10893
6067.83274,0.10716
6065.90399,0.10387
6063.97525,0.10053
6062.04650,0.09886
6060.11776,0.09865
6058.18901,0.09816
6056.26026,0.09625
6054.33152,0.09429
6052.40277,0.09283
6050.47403,0.09090
6048.54528,0.08909
6046.61654,0.08784
6044.68779,0.08690
6042.75905,0.08667
6040.83030,0.08647
6038.90156,0.08482
6036.97281,0.08239
6035.04407,0.08144
6033.11532,0.08184
6031.18658,0.08097
6029.25783,0.07873
6027.32909,0.07795
6025.40034,0.07891
6023.47159,0.07948
6021.54285,0.07956
6019.61410,0.07995
6017.68536,0.08030
6015.75661,0.08036
6013.82787,0.08013
6011.89912,0.07973
6009.97038,0.08018
6008.04163,0.08213
6006.11289,0.08365
6004.18414,0.08313
6002.25540,0.08272
6000.32665,0.08440
5998.39791,0.08694
5996.46916,0.08913
5994.54041,0.09140
5992.61167,0.09320
5990.68292,0.09366
5988.75418,0.09390
5986.82543,0.09498
5984.89669,0.09654
5982.96794,0.09773
5981.03920,0.09790
5979.11045,0.09729
5977.18171,0.09644
5975.25296,0.09619
5973.32422,0.09713
5971.39547,0.09808
5969.46673,0.09829
5967.53798,0.09901
5965.60924,0.10116
5963.68049,0.10308
5961.75174,0.10349
5959.82300,0.10423
5957.89425,0.10552
5955.96551,0.10562
5954.03676,0.10487
5952.10802,0.10439
5950.17927,0.10465
5948.25053,0.10538
5946.32178,0.10578
5944.39304,0.10599
5942.46429,0.10634
5940.53555,0.10623
5938.60680,0.10584
5936.67806,0.10627
5934.74931,0.10770
5932.82057,0.10998
5930.89182,0.11309
5928.96307,0.11667
5927.03433,0.11930
5925.10558,0.12054
5923.17684,0.12211
5921.24809,0.12425
5919.31935,0.12569
5917.39060,0.12713
5915.46186,0.12937
5913.53311,0.13183
5911.60437,0.13434
5909.67562,0.13673
5907.74688,0.13815
5905.81813,0.13858
5903.88939,0.13916
5901.96064,0.13973
5900.03189,0.13875
5898.10315,0.13672
5896.17440,0.13569
5894.24566,0.13568
5892.31691,0.13516
5890.38817,0.13410
5888.45942,0.13288
5886.53068,0.13080
5884.60193,0.12831
5882.67319,0.12675
5880.74444,0.12613
5878.81570,0.12618
5876.88695,0.12671
5874.95821,0.12673
5873.02946,0.12520
5871.10072,0.12243
5869.17197,0.11990
5867.24322,0.11821
5865.31448,0.11716
5863.38573,0.11708
5861.45699,0.11814
5859.52824,0.11958
5857.59950,0.12052
5855.67075,0.12025
5853.74201,0.11945
5851.81326,0.12022
5849.88452,0.12258
5847.95577,0.12419
5846.02703,0.12446
5844.09828,0.12469
5842.16954,0.12488
5840.24079,0.12450
5838.31205,0.12387
5836.38330,0.12352
5834.45455,0.12363
5832.52581,0.12346
5830.59706,0.12274
5828.66832,0.12235
5826.73957,0.12241
5824.81083,0.12244
5822.88208,0.12153
5820.95334,0.12013
5819.02459,0.12053
5817.09585,0.12240
5815.16710,0.12317
5813.23836,0.12275
5811.30961,0.12239
5809.38087,0.12209
5807.45212,0.12178
5805.52337,0.12176
5803.59463,0.12156
5801.66588,0.12101
5799.73714,0.12075
5797.80839,0.12116
5795.87965,0.12235
5793.95090,0.12371
5792.02216,0.12402
5790.09341,0.12309
5788.16467,0.12172
5786.23592,0.12116
5784.30718,0.12238
5782.37843,0.12401
5780.44969,0.12437
5778.52094,0.12467
5776.59220,0.12599
5774.66345,0.12707
5772.73470,0.12707
5770.80596,0.12674
5768.87721,0.12708
5766.94847,0.12841
5765.01972,0.13013
5763.09098,0.13140
5761.16223,0.13237
5759.23349,0.13378
5757.30474,0.13525
5755.37600,0.13582
5753.44725,0.13603
5751.51851,0.13671
5749.58976,0.13737
5747.66102,0.13796
5745.73227,0.13979
5743.80352,0.14283
5741.87478,0.14502
5739.94603,0.14580
5738.01729,0.14623
5736.08854,0.14651
5734.15980,0.14700
5732.23105,0.14811
5730.30231,0.14931
5728.37356,0.15035
5726.44482,0.15157
5724.51607,0.15301
5722.58733,0.15421
5720.65858,0.15466
5718.72984,0.15429
5716.80109,0.15359
5714.87235,0.15315
5712.94360,0.15300
5711.01485,0.15281
5709.08611,0.15281
5707.15736,0.15317
5705.22862,0.15333
5703.29987,0.15322
5701.37113,0.15348
5699.44238,0.15404
5697.51364,0.15403
5695.58489,0.15366
5693.65615,0.15437
5691.72740,0.15627
5689.79866,0.15806
5687.86991,0.15944
5685.94117,0.16066
5684.01242,0.16152
5682.08368,0.16215
5680.15493,0.16241
5678.22618,0.16157
5676.29744,0.16045
5674.36869,0.16062
5672.43995,0.16156
5670.51120,0.16165
5668.58246,0.16120
5666.65371,0.16169
5664.72497,0.16283
5662.79622,0.16335
5660.86748,0.16298
5658.93873,0.16243
5657.00999,0.16225
5655.08124,0.16221
5653.15250,0.16203
5651.22375,0.16180
5649.29500,0.16178
5647.36626,0.16226
5645.43751,0.16342
5643.50877,0.16536
5641.58002,0.16749
5639.65128,0.16875
5637.72253,0.16913
5635.79379,0.16947
5633.86504,0.17022
5631.93630,0.17153
5630.00755,0.17360
5628.07881,0.17588
5626.15006,0.17752
5624.22132,0.17856
5622.29257,0.17933
5620.36383,0.17982
5618.43508,0.18014
5616.50633,0.18008
5614.57759,0.17923
5612.64884,0.17842
5610.72010,0.17885
5608.79135,0.17966
5606.86261,0.17945
5604.93386,0.17854
5603.00512,0.17813
5601.07637,0.17886
5599.14763,0.17959
5597.21888,0.17899
5595.29014,0.17773
5593.36139,0.17671
5591.43265,0.17576
5589.50390,0.17483
5587.57516,0.17419
5585.64641,0.17371
5583.71766,0.17270
5581.78892,0.17110
5579.86017,0.16978
5577.93143,0.16889
5576.00268,0.16808
5574.07394,0.16740
5572.14519,0.16677
5570.21645,0.16620
5568.28770,0.16581
5566.35896,0.16545
5564.43021,0.16526
5562.50147,0.16547
5560.57272,0.16546
5558.64398,0.16504
5556.71523,0.16510
5554.78648,0.16591
5552.85774,0.16647
5550.92899,0.16604
5549.00025,0.16542
5547.07150,0.16554
5545.14276,0.16597
5543.21401,0.16592
5541.28527,0.16559
5539.35652,0.16547
5537.42778,0.16501
5535.49903,0.16392
5533.57029,0.16355
5531.64154,0.16460
5529.71280,0.16573
5527.78405,0.16604
5525.85531,0.16613
5523.92656,0.16660
5521.99781,0.16740
5520.06907,0.16800
5518.14032,0.16814
5516.21158,0.16820
5514.28283,0.16854
5512.35409,0.16900
5510.42534,0.16933
5508.49660,0.16902
5506.56785,0.16818
5504.63911,0.16816
5502.71036,0.16907
5500.78162,0.16975
5498.85287,0.16970
5496.92413,0.16862
5494.99538,0.16709
5493.06664,0.16614
5491.13789,0.16567
5489.20914,0.16535
5487.28040,0.16500
5485.35165,0.16430
5483.42291,0.16359
5481.49416,0.16338
5479.56542,0.16337
5477.63667,0.16308
5475.70793,0.16284
5473.77918,0.16363
5471.85044,0.16537
5469.92169,0.16630
5467.99295,0.16589
5466.06420,0.16555
5464.13546,0.16604
5462.20671,0.16722
5460.27796,0.16853
5458.34922,0.16956
5456.42047,0.17027
5454.49173,0.17059
5452.56298,0.17098
5450.63424,0.17210
5448.70549,0.17386
5446.77675,0.17586
5444.84800,0.17757
5442.91926,0.17892
5440.99051,0.18078
5439.06177,0.18298
5437.13302,0.18427
5435.20428,0.18483
5433.27553,0.18562
5431.34679,0.18650
5429.41804,0.18728
5427.48929,0.18808
5425.56055,0.18854
5423.63180,0.18874
5421.70306,0.18940
5419.77431,0.19005
5417.84557,0.18972
5415.91682,0.18910
5413.98808,0.18914
5412.05933,0.18923
5410.13059,0.18867
5408.20184,0.18799
5406.27310,0.18763
5404.34435,0.18735
5402.41561,0.18714
5400.48686,0.18688
5398.55811,0.18629
5396.62937,0.18600
5394.70062,0.18648
5392.77188,0.18688
5390.84313,0.18640
5388.91439,0.18563
5386.98564,0.18545
5385.05690,0.18570
5383.12815,0.18586
5381.19941,0.18600
5379.27066,0.18606
5377.34192,0.18557
5375.41317,0.18470
5373.48443,0.18424
5371.55568,0.18458
5369.62694,0.18518
5367.69819,0.18479
5365.76944,0.18324
5363.84070,0.18180
5361.91195,0.18086
5359.98321,0.18002
5358.05446,0.17919
5356.12572,0.17814
5354.19697,0.17718
5352.26823,0.17732
5350.33948,0.17803
5348.41074,0.17820
5346.48199,0.17823
5344.55325,0.17821
5342.62450,0.17784
5340.69576,0.17801
5338.76701,0.17855
5336.83827,0.17847
5334.90952,0.17849
5332.98077,0.17913
5331.05203,0.17965
5329.12328,0.17997
5327.19454,0.18041
5325.26579,0.18063
5323.33705,0.18050
5321.40830,0.18054
5319.47956,0.18074
5317.55081,0.18021
5315.62207,0.17870
5313.69332,0.17675
5311.76458,0.17525
5309.83583,0.17461
5307.90709,0.17404
5305.97834,0.17289
5304.04959,0.17152
5302.12085,0.17027
5300.19210,0.16908
5298.26336,0.16748
5296.33461,0.16517
5294.40587,0.16270
5292.47712,0.16072
5290.54838,0.15890
5288.61963,0.15665
5286.69089,0.15406
5284.76214,0.15119
5282.83340,0.14815
5280.90465,0.14516
5278.97591,0.14181
5277.04716,0.13801
5275.11842,0.13457
5273.18967,0.13210
5271.26092,0.13011
5269.33218,0.12745
5267.40343,0.12411
5265.47469,0.12137
5263.54594,0.11982
5261.61720,0.11898
5259.68845,0.11839
5257.75971,0.11787
5255.83096,0.11716
5253.90222,0.11616
5251.97347,0.11508
5250.04473,0.11420
5248.11598,0.11355
5246.18724,0.11292
5244.25849,0.11276
5242.32975,0.11367
5240.40100,0.11499
5238.47225,0.11567
5236.54351,0.11584
5234.61476,0.11639
5232.68602,0.11758
5230.75727,0.11883
5228.82853,0.11989
5226.89978,0.12097
5224.97104,0.12209
5223.04229,0.12320
5221.11355,0.12450
5219.18480,0.12597
5217.25606,0.12764
5215.32731,0.12937
5213.39857,0.13093
5211.46982,0.13255
5209.54107,0.13439
5207.61233,0.13638
5205.68358,0.13848
5203.75484,0.14050
5201.82609,0.14185
5199.89735,0.14267
5197.96860,0.14360
5196.03986,0.14457
5194.11111,0.14583
5192.18237,0.14756
5190.25362,0.14869
5188.32488,0.14924
5186.39613,0.15023
5184.46739,0.15098
5182.53864,0.15065
5180.60990,0.15018
5178.68115,0.15015
5176.75240,0.15005
5174.82366,0.15008
5172.89491,0.15052
5170.96617,0.15073
5169.03742,0.15042
5167.10868,0.14976
5165.17993,0.14883
5163.25119,0.14802
5161.32244,0.14747
5159.39370,0.14672
5157.46495,0.14547
5155.53621,0.14421
5153.60746,0.14366
5151.67872,0.14312
5149.74997,0.14154
5147.82123,0.13986
5145.89248,0.13927
5143.96373,0.13916
5142.03499,0.13833
5140.10624,0.13665
5138.17750,0.13516
5136.24875,0.13427
5134.32001,0.13316
5132.39126,0.13158
5130.46252,0.13028
5128.53377,0.12915
5126.60503,0.12733
5124.67628,0.12507
5122.74754,0.12326
5120.81879,0.12211
5118.89005,0.12175
5116.96130,0.12241
5115.03255,0.12368
5113.10381,0.12518
5111.17506,0.12680
5109.24632,0.12857
5107.31757,0.13069
5105.38883,0.13293
5103.46008,0.13518
5101.53134,0.13754
5099.60259,0.13980
5097.67385,0.14198
5095.74510,0.14427
5093.81636,0.14644
5091.88761,0.14831
5089.95887,0.14995
5088.03012,0.15170
5086.10138,0.15371
5084.17263,0.15567
5082.24388,0.15741
5080.31514,0.15881
5078.38639,0.15966
5076.45765,0.15995
5074.52890,0.16005
5072.60016,0.16077
5070.67141,0.16220
5068.74267,0.16368
5066.81392,0.16510
5064.88518,0.16641
5062.95643,0.16731
5061.02769,0.16783
5059.09894,0.16832
5057.17020,0.16902
5055.24145,0.16952
5053.31270,0.16935
5051.38396,0.16910
5049.45521,0.16947
5047.52647,0.17002
5045.59772,0.17010
5043.66898,0.16988
5041.74023,0.16966
5039.81149,0.16943
5037.88274,0.16912
5035.95400,0.16882
5034.02525,0.16845
5032.09651,0.16784
5030.16776,0.16719
5028.23902,0.16671
5026.31027,0.16622
5024.38153,0.16567
5022.45278,0.16545
5020.52403,0.16572
5018.59529,0.16601
5016.66654,0.16591
5014.73780,0.16571
5012.80905,0.16579
5010.88031,0.16589
5008.95156,0.16560
5007.02282,0.16512
5005.09407,0.16504
5003.16533,0.16576
5001.23658,0.16685
4999.30784,0.16758
4997.37909,0.16790
4995.45035,0.16853
4993.52160,0.16950
4991.59286,0.17021
4989.66411,0.17071
4987.73536,0.17099
4985.80662,0.17092
4983.87787,0.17118
4981.94913,0.17184
4980.02038,0.17222
4978.09164,0.17230
4976.16289,0.17230
4974.23415,0.17201
4972.30540,0.17149
4970.37666,0.17121
4968.44791,0.17112
4966.51917,0.17074
4964.59042,0.17013
4962.66168,0.16944
4960.73293,0.16838
4958.80418,0.16710
4956.87544,0.16625
4954.94669,0.16582
4953.01795,0.16515
4951.08920,0.16417
4949.16046,0.16313
4947.23171,0.16183
4945.30297,0.16057
4943.37422,0.16010
4941.44548,0.15996
4939.51673,0.15945
4937.58799,0.15926
4935.65924,0.15980
4933.73050,0.15994
4931.80175,0.15905
4929.87301,0.15768
4927.94426,0.15674
4926.01551,0.15663
4924.08677,0.15679
4922.15802,0.15665
4920.22928,0.15638
4918.30053,0.15607
4916.37179,0.15535
4914.44304,0.15430
4912.51430,0.15347
4910.58555,0.15306
4908.65681,0.15258
4906.72806,0.15164
4904.79932,0.15054
4902.87057,0.14990
4900.94183,0.14971
4899.01308,0.14952
4897.08434,0.14928
4895.15559,0.14929
4893.22684,0.14934
4891.29810,0.14874
4889.36935,0.14751
4887.44061,0.14661
4885.51186,0.14655
4883.58312,0.14664
4881.65437,0.14601
4879.72563,0.14500
4877.79688,0.14451
4875.86814,0.14453
4873.93939,0.14427
4872.01065,0.14365
4870.08190,0.14324
4868.15316,0.14303
4866.22441,0.14277
4864.29566,0.14221
4862.36692,0.14137
4860.43817,0.14078
4858.50943,0.14042
4856.58068,0.14003
4854.65194,0.13962
4852.72319,0.13904
4850.79445,0.13823
4848.86570,0.13719
4846.93696,0.13601
4845.00821,0.13496
4843.07947,0.13391
4841.15072,0.13255
4839.22198,0.13064
4837.29323,0.12807
4835.36449,0.12549
4833.43574,0.12352
4831.50699,0.12180
4829.57825,0.11974
4827.64950,0.11775
4825.72076,0.11638
4823.79201,0.11513
4821.86327,0.11363
4819.93452,0.11240
4818.00578,0.11137
4816.07703,0.10999
4814.14829,0.10878
4812.21954,0.10806
4810.29080,0.10732
4808.36205,0.10656
4806.43331,0.10593
4804.50456,0.10512
4802.57582,0.10410
4800.64707,0.10348
4798.71832,0.10345
4796.78958,0.10351
4794.86083,0.10366
4792.93209,0.10421
4791.00334,0.10485
4789.07460,0.10523
4787.14585,0.10553
4785.21711,0.10592
4783.28836,0.10613
4781.35962,0.10644
4779.43087,0.10732
4777.50213,0.10830
4775.57338,0.10886
4773.64464,0.10914
4771.71589,0.10958
4769.78714,0.11016
4767.85840,0.11054
4765.92965,0.11056
4764.00091,0.11003
4762.07216,0.10900
4760.14342,0.10782
4758.21467,0.10643
4756.28593,0.10476
4754.35718,0.10275
4752.42844,0.10037
4750.49969,0.09831
4748.57095,0.09699
4746.64220,0.09558
4744.71346,0.09373
4742.78471,0.09217
4740.85597,0.09119
4738.92722,0.09041
4736.99847,0.08947
4735.06973,0.08831
4733.14098,0.08708
4731.21224,0.08567
4729.28349,0.08395
4727.35475,0.08207
4725.42600,0.08010
4723.49726,0.07833
4721.56851,0.07746
4719.63977,0.07755
4717.71102,0.07768
4715.78228,0.07744
4713.85353,0.07730
4711.92479,0.07721
4709.99604,0.07680
4708.06729,0.07613
4706.13855,0.07540
4704.20980,0.07478
4702.28106,0.07415
4700.35231,0.07307
4698.42357,0.07167
4696.49482,0.07080
4694.56608,0.07055
4692.63733,0.07028
4690.70859,0.06997
4688.77984,0.06989
4686.85110,0.07002
4684.92235,0.07037
4682.99361,0.07109
4681.06486,0.07211
4679.13612,0.07318
4677.20737,0.07415
4675.27862,0.07514
4673.34988,0.07610
4671.42113,0.07694
4669.49239,0.07801
4667.56364,0.07944
4665.63490,0.08049
4663.70615,0.08069
4661.77741,0.08040
4659.84866,0.08018
4657.91992,0.08031
4655.99117,0.08067
4654.06243,0.08091
4652.13368,0.08072
4650.20494,0.07996
4648.27619,0.07893
4646.34745,0.07780
4644.41870,0.07650
4642.48995,0.07514
4640.56121,0.07391
4638.63246,0.07301
4636.70372,0.07270
4634.77497,0.07281
4632.84623,0.07308
4630.91748,0.07361
4628.98874,0.07429
4627.05999,0.07501
4625.13125,0.07622
4623.20250,0.07798
4621.27376,0.07977
4619.34501,0.08152
4617.41627,0.08332
4615.48752,0.08486
4613.55877,0.08604
4611.63003,0.08678
4609.70128,0.08713
4607.77254,0.08739
4605.84379,0.08764
4603.91505,0.08766
4601.98630,0.08719
4600.05756,0.08628
4598.12881,0.08534
4596.20007,0.08446
4594.27132,0.08345
4592.34258,0.08242
4590.41383,0.08146
4588.48509,0.08054
4586.55634,0.07980
4584.62760,0.07939
4582.69885,0.07890
4580.77010,0.07822
4578.84136,0.07797
4576.91261,0.07844
4574.98387,0.07951
4573.05512,0.08094
4571.12638,0.08244
4569.19763,0.08423
4567.26889,0.08643
4565.34014,0.08868
4563.41140,0.09042
4561.48265,0.09123
4559.55391,0.09154
4557.62516,0.09207
4555.69642,0.09251
4553.76767,0.09250
4551.83893,0.09258
4549.91018,0.09262
4547.98143,0.09208
4546.05269,0.09138
4544.12394,0.09116
4542.19520,0.09129
4540.26645,0.09132
4538.33771,0.09116
4536.40896,0.09105
4534.48022,0.09086
4532.55147,0.09048
4530.62273,0.09008
4528.69398,0.08978
4526.76524,0.08962
4524.83649,0.08939
4522.90775,0.08875
4520.97900,0.08783
4519.05025,0.08705
4517.12151,0.08642
4515.19276,0.08573
4513.26402,0.08495
4511.33527,0.08407
4509.40653,0.08300
4507.47778,0.08168
4505.54904,0.08040
4503.62029,0.07945
4501.69155,0.07850
4499.76280,0.07726
4497.83406,0.07598
4495.90531,0.07495
4493.97657,0.07396
4492.04782,0.07278
4490.11908,0.07174
4488.19033,0.07121
4486.26158,0.07120
4484.33284,0.07112
4482.40409,0.07047
4480.47535,0.06963
4478.54660,0.06911
4476.61786,0.06923
4474.68911,0.06974
4472.76037,0.06990
4470.83162,0.06958
4468.90288,0.06906
4466.97413,0.06828
4465.04539,0.06746
4463.11664,0.06689
4461.18790,0.06625
4459.25915,0.06529
4457.33041,0.06475
4455.40166,0.06509
4453.47291,0.06571
4451.54417,0.06609
4449.61542,0.06645
4447.68668,0.06668
4445.75793,0.06648
4443.82919,0.06618
4441.90044,0.06607
4439.97170,0.06597
4438.04295,0.06573
4436.11421,0.06547
4434.18546,0.06541
4432.25672,0.06552
4430.32797,0.06557
4428.39923,0.06576
4426.47048,0.06623
4424.54173,0.06645
4422.61299,0.06620
4420.68424,0.06594
4418.75550,0.06594
4416.82675,0.06613
4414.89801,0.06624
4412.96926,0.06619
4411.04052,0.06628
4409.11177,0.06642
4407.18303,0.06645
4405.25428,0.06669
4403.32554,0.06712
4401.39679,0.06732
4399.46805,0.06701
4397.53930,0.06659
4395.61056,0.06687
4393.68181,0.06767
4391.75306,0.06790
4389.82432,0.06758
4387.89557,0.06767
4385.96683,0.06796
4384.03808,0.06796
4382.10934,0.06808
4380.18059,0.06838
4378.25185,0.06851
4376.32310,0.06852
4374.39436,0.06844
4372.46561,0.06816
4370.53687,0.06790
4368.60812,0.06781
4366.67938,0.06777
4364.75063,0.06772
4362.82189,0.06770
4360.89314,0.06781
4358.96439,0.06814
4357.03565,0.06845
4355.10690,0.06850
4353.17816,0.06829
4351.24941,0.06806
4349.32067,0.06801
4347.39192,0.06792
4345.46318,0.06773
4343.53443,0.06769
4341.60569,0.06770
4339.67694,0.06767
4337.74820,0.06794
4335.81945,0.06821
4333.89071,0.06803
4331.96196,0.06777
4330.03321,0.06776
4328.10447,0.06768
4326.17572,0.06729
4324.24698,0.06674
4322.31823,0.06642
4320.38949,0.06664
4318.46074,0.06711
4316.53200,0.06742
4314.60325,0.06755
4312.67451,0.06763
4310.74576,0.06763
4308.81702,0.06750
4306.88827,0.06719
4304.95953,0.06673
4303.03078,0.06634
4301.10204,0.06622
4299.17329,0.06641
4297.24454,0.06659
4295.31580,0.06651
4293.38705,0.06628
4291.45831,0.06617
4289.52956,0.06652
4287.60082,0.06699
4285.67207,0.06693
4283.74333,0.06651
4281.81458,0.06613
4279.88584,0.06588
4277.95709,0.06578
4276.02835,0.06575
4274.09960,0.06576
4272.17086,0.06600
4270.24211,0.06649
4268.31336,0.06676
4266.38462,0.06659
4264.45587,0.06631
4262.52713,0.06628
4260.59838,0.06636
4258.66964,0.06647
4256.74089,0.06673
4254.81215,0.06695
4252.88340,0.06697
4250.95466,0.06679
4249.02591,0.06636
4247.09717,0.06594
4245.16842,0.06600
4243.23968,0.06646
4241.31093,0.06669
4239.38219,0.06659
4237.45344,0.06656
4235.52469,0.06662
4233.59595,0.06662
4231.66720,0.06673
4229.73846,0.06693
4227.80971,0.06707
4225.88097,0.06716
4223.95222,0.06719
4222.02348,0.06721
4220.09473,0.06716
4218.16599,0.06711
4216.23724,0.06728
4214.30850,0.06739
4212.37975,0.06722
4210.45101,0.06715
4208.52226,0.06738
4206.59352,0.06756
4204.66477,0.06754
4202.73602,0.06755
4200.80728,0.06773
4198.87853,0.06796
4196.94979,0.06796
4195.02104,0.06777
4193.09230,0.06775
4191.16355,0.06783
4189.23481,0.06756
4187.30606,0.06700
4185.37732,0.06658
4183.44857,0.06649
4181.51983,0.06660
4179.59108,0.06678
4177.66234,0.06703
4175.73359,0.06702
4173.80484,0.06665
4171.87610,0.06660
4169.94735,0.06695
4168.01861,0.06700
4166.08986,0.06699
4164.16112,0.06735
4162.23237,0.06756
4160.30363,0.06736
4158.37488,0.06727
4156.44614,0.06739
4154.51739,0.06762
4152.58865,0.06802
4150.65990,0.06813
4148.73116,0.06756
4146.80241,0.06697
4144.87367,0.06702
4142.94492,0.06737
4141.01617,0.06753
4139.08743,0.06738
4137.15868,0.06719
4135.22994,0.06727
4133.30119,0.06739
4131.37245,0.06723
4129.44370,0.06682
4127.51496,0.06639
4125.58621,0.06629
4123.65747,0.06660
4121.72872,0.06691
4119.79998,0.06674
4117.87123,0.06638
4115.94249,0.06621
4114.01374,0.06600
4112.08500,0.06578
4110.15625,0.06579
4108.22750,0.06575
4106.29876,0.06541
4104.37001,0.06516
4102.44127,0.06540
4100.51252,0.06541
4098.58378,0.06474
4096.65503,0.06423
4094.72629,0.06429
4092.79754,0.06440
4090.86880,0.06427
4088.94005,0.06395
4087.01131,0.06379
4085.08256,0.06400
4083.15382,0.06414
4081.22507,0.06395
4079.29632,0.06398
4077.36758,0.06452
4075.43883,0.06507
4073.51009,0.06536
4071.58134,0.06555
4069.65260,0.06571
4067.72385,0.06592
4065.79511,0.06625
4063.86636,0.06649
4061.93762,0.06639
4060.00887,0.06612
4058.08013,0.06623
4056.15138,0.06676
4054.22264,0.06715
4052.29389,0.06720
4050.36515,0.06716
4048.43640,0.06722
4046.50765,0.06733
4044.57891,0.06750
4042.65016,0.06769
4040.72142,0.06786
4038.79267,0.06802
4036.86393,0.06814
4034.93518,0.06822
4033.00644,0.06826
4031.07769,0.06845
4029.14895,0.06867
4027.22020,0.06854
4025.29146,0.06828
4023.36271,0.06810
4021.43397,0.06795
4019.50522,0.06799
4017.57648,0.06812
4015.64773,0.06804
4013.71898,0.06776
4011.79024,0.06762
4009.86149,0.06794
4007.93275,0.06839
4006.00400,0.06835
4004.07526,0.06800
4002.14651,0.06776
4000.21777,0.06760
3998.28902,0.06772
3996.36028,0.06813
3994.43153,0.06826
3992.50279,0.06806
3990.57404,0.06802
3988.64530,0.06834
3986.71655,0.06872
3984.78780,0.06880
3982.85906,0.06878
3980.93031,0.06891
3979.00157,0.06894
3977.07282,0.06882
3975.14408,0.06872
3973.21533,0.06864
3971.28659,0.06856
3969.35784,0.06848
3967.42910,0.06854
3965.50035,0.06879
3963.57161,0.06902
3961.64286,0.06912
3959.71412,0.06929
3957.78537,0.06964
3955.85663,0.06983
3953.92788,0.06954
3951.99913,0.06915
3950.07039,0.06915
3948.14164,0.06956
3946.21290,0.06991
3944.28415,0.06993
3942.35541,0.06982
3940.42666,0.06974
3938.49792,0.06961
3936.56917,0.06962
3934.64043,0.06992
3932.71168,0.07026
3930.78294,0.07034
3928.85419,0.07022
3926.92545,0.07027
3924.99670,0.07059
3923.06795,0.07069
3921.13921,0.07027
3919.21046,0.06955
3917.28172,0.06917
3915.35297,0.06938
3913.42423,0.06969
3911.49548,0.06987
3909.56674,0.07025
3907.63799,0.07070
3905.70925,0.07089
3903.78050,0.07099
3901.85176,0.07120
3899.92301,0.07138
3897.99427,0.07142
3896.06552,0.07144
3894.13678,0.07157
3892.20803,0.07171
3890.27928,0.07172
3888.35054,0.07180
3886.42179,0.07206
3884.49305,0.07221
3882.56430,0.07217
3880.63556,0.07211
3878.70681,0.07211
3876.77807,0.07224
3874.84932,0.07247
3872.92058,0.07256
3870.99183,0.07229
3869.06309,0.07195
3867.13434,0.07198
3865.20560,0.07217
3863.27685,0.07223
3861.34811,0.07227
3859.41936,0.07236
3857.49061,0.07255
3855.56187,0.07285
3853.63312,0.07307
3851.70438,0.07304
3849.77563,0.07303
3847.84689,0.07322
3845.91814,0.07333
3843.98940,0.07295
3842.06065,0.07241
3840.13191,0.07226
3838.20316,0.07228
3836.27442,0.07227
3834.34567,0.07252
3832.41693,0.07292
3830.48818,0.07298
3828.55943,0.07264
3826.63069,0.07236
3824.70194,0.07239
3822.77320,0.07238
3820.84445,0.07222
3818.91571,0.07215
3816.98696,0.07187
3815.05822,0.07130
3813.12947,0.07089
3811.20073,0.07079
3809.27198,0.07078
3807.34324,0.07067
3805.41449,0.07071
3803.48575,0.07098
3801.55700,0.07108
3799.62826,0.07090
3797.69951,0.07084
3795.77076,0.07112
3793.84202,0.07150
3791.91327,0.07164
3789.98453,0.07164
3788.05578,0.07186
3786.12704,0.07210
3784.19829,0.07197
3782.26955,0.07172
3780.34080,0.07157
3778.41206,0.07125
3776.48331,0.07083
3774.55457,0.07057
3772.62582,0.07043
3770.69708,0.07034
3768.76833,0.07025
3766.83959,0.07012
3764.91084,0.06984
3762.98209,0.06939
3761.05335,0.06911
3759.12460,0.06914
3757.19586,0.06923
3755.26711,0.06923
3753.33837,0.06950
3751.40962,0.07023
3749.48088,0.07098
3747.55213,0.07138
3745.62339,0.07145
3743.69464,0.07135
3741.76590,0.07139
3739.83715,0.07153
3737.90841,0.07167
3735.97966,0.07180
3734.05091,0.07165
3732.12217,0.07124
3730.19342,0.07106
3728.26468,0.07130
3726.33593,0.07172
3724.40719,0.07191
3722.47844,0.07178
3720.54970,0.07158
3718.62095,0.07148
3716.69221,0.07143
3714.76346,0.07125
3712.83472,0.07093
3710.90597,0.07059
3708.97723,0.07028
3707.04848,0.06993
3705.11974,0.06941
3703.19099,0.06877
3701.26224,0.06824
3699.33350,0.06776
3697.40475,0.06730
3695.47601,0.06689
3693.54726,0.06637
3691.61852,0.06561
3689.68977,0.06480
3687.76103,0.06442
3685.83228,0.06454
3683.90354,0.06476
3681.97479,0.06495
3680.04605,0.06504
3678.11730,0.06487
3676.18856,0.06463
3674.25981,0.06460
3672.33107,0.06471
3670.40232,0.06453
3668.47357,0.06400
3666.54483,0.06370
3664.61608,0.06375
3662.68734,0.06387
3660.75859,0.06398
3658.82985,0.06411
3656.90110,0.06402
3654.97236,0.06364
3653.04361,0.06351
3651.11487,0.06387
3649.18612,0.06430
3647.25738,0.06434
3645.32863,0.06392
3643.39989,0.06343
3641.47114,0.06333
3639.54239,0.06341
3637.61365,0.06335
3635.68490,0.06331
3633.75616,0.06330
3631.82741,0.06329
3629.89867,0.06358
3627.96992,0.06400
3626.04118,0.06404
3624.11243,0.06372
3622.18369,0.06334
3620.25494,0.06315
3618.32620,0.06328
3616.39745,0.06363
3614.46871,0.06389
3612.53996,0.06403
3610.61122,0.06410
3608.68247,0.06396
3606.75372,0.06372
3604.82498,0.06356
3602.89623,0.06353
3600.96749,0.06365
3599.03874,0.06372
3597.11000,0.06357
3595.18125,0.06337
3593.25251,0.06330
3591.32376,0.06329
3589.39502,0.06342
3587.46627,0.06360
3585.53753,0.06344
3583.60878,0.06305
3581.68004,0.06288
3579.75129,0.06306
3577.82254,0.06324
3575.89380,0.06319
3573.96505,0.06304
3572.03631,0.06302
3570.10756,0.06323
3568.17882,0.06340
3566.25007,0.06305
3564.32133,0.06243
3562.39258,0.06219
3560.46384,0.06238
3558.53509,0.06280
3556.60635,0.06320
3554.67760,0.06348
3552.74886,0.06354
3550.82011,0.06315
3548.89137,0.06253
3546.96262,0.06231
3545.03387,0.06258
3543.10513,0.06293
3541.17638,0.06310
3539.24764,0.06306
3537.31889,0.06309
3535.39015,0.06331
3533.46140,0.06330
3531.53266,0.06311
3529.60391,0.06315
3527.67517,0.06327
3525.74642,0.06318
3523.81768,0.06286
3521.88893,0.06248
3519.96019,0.06252
3518.03144,0.06294
3516.10270,0.06326
3514.17395,0.06353
3512.24520,0.06381
3510.31646,0.06371
3508.38771,0.06334
3506.45897,0.06316
3504.53022,0.06323
3502.60148,0.06330
3500.67273,0.06315
3498.74399,0.06302
3496.81524,0.06328
3494.88650,0.06368
3492.95775,0.06378
3491.02901,0.06370
3489.10026,0.06369
3487.17152,0.06363
3485.24277,0.06337
3483.31402,0.06312
3481.38528,0.06308
3479.45653,0.06325
3477.52779,0.06346
3475.59904,0.06350
3473.67030,0.06341
3471.74155,0.06331
3469.81281,0.06314
3467.88406,0.06283
3465.95532,0.06240
3464.02657,0.06212
3462.09783,0.06206
3460.16908,0.06202
3458.24034,0.06198
3456.31159,0.06203
3454.38285,0.06214
3452.45410,0.06236
3450.52535,0.06279
3448.59661,0.06312
3446.66786,0.06301
3444.73912,0.06255
3442.81037,0.06213
3440.88163,0.06192
3438.95288,0.06170
3437.02414,0.06145
3435.09539,0.06134
3433.16665,0.06132
3431.23790,0.06141
3429.30916,0.06178
3427.38041,0.06224
3425.45167,0.06239
3423.52292,0.06221
3421.59418,0.06217
3419.66543,0.06254
3417.73668,0.06293
3415.80794,0.06297
3413.87919,0.06284
3411.95045,0.06277
3410.02170,0.06278
3408.09296,0.06291
3406.16421,0.06314
3404.23547,0.06331
3402.30672,0.06356
3400.37798,0.06389
3398.44923,0.06400
3396.52049,0.06395
3394.59174,0.06407
3392.66300,0.06452
3390.73425,0.06490
3388.80550,0.06453
3386.87676,0.06365
3384.94801,0.06320
3383.01927,0.06349
3381.09052,0.06405
3379.16178,0.06430
3377.23303,0.06417
3375.30429,0.06412
3373.37554,0.06439
3371.44680,0.06469
3369.51805,0.06481
3367.58931,0.06483
3365.66056,0.06476
3363.73182,0.06445
3361.80307,0.06412
3359.87433,0.06391
3357.94558,0.06373
3356.01683,0.06376
3354.08809,0.06398
3352.15934,0.06399
3350.23060,0.06383
3348.30185,0.06382
3346.37311,0.06379
3344.44436,0.06355
3342.51562,0.06338
3340.58687,0.06341
3338.65813,0.06356
3336.72938,0.06368
3334.80064,0.06353
3332.87189,0.06331
3330.94315,0.06324
3329.01440,0.06322
3327.08566,0.06333
3325.15691,0.06359
3323.22816,0.06361
3321.29942,0.06334
3319.37067,0.06318
3317.44193,0.06311
3315.51318,0.06285
3313.58444,0.06264
3311.65569,0.06285
3309.72695,0.06334
3307.79820,0.06350
3305.86946,0.06320
3303.94071,0.06286
3302.01197,0.06285
3300.08322,0.06308
3298.15448,0.06305
3296.22573,0.06282
3294.29698,0.06292
3292.36824,0.06320
3290.43949,0.06332
3288.51075,0.06346
3286.58200,0.06369
3284.65326,0.06380
3282.72451,0.06366
3280.79577,0.06343
3278.86702,0.06339
3276.93828,0.06349
3275.00953,0.06352
3273.08079,0.06349
3271.15204,0.06350
3269.22330,0.06343
3267.29455,0.06320
3265.36581,0.06301
3263.43706,0.06303
3261.50831,0.06313
3259.57957,0.06307
3257.65082,0.06293
3255.72208,0.06301
3253.79333,0.06323
3251.86459,0.06329
3249.93584,0.06326
3248.00710,0.06320
3246.07835,0.06300
3244.14961,0.06293
3242.22086,0.06321
3240.29212,0.06355
3238.36337,0.06377
3236.43463,0.06363
3234.50588,0.06328
3232.57713,0.06318
3230.64839,0.06317
3228.71964,0.06301
3226.79090,0.06292
3224.86215,0.06299
3222.93341,0.06315
3221.00466,0.06346
3219.07592,0.06371
3217.14717,0.06357
3215.21843,0.06315
3213.28968,0.06271
3211.36094,0.06239
3209.43219,0.06229
3207.50345,0.06239
3205.57470,0.06259
3203.64596,0.06272
3201.71721,0.06281
3199.78846,0.06312
3197.85972,0.06336
3195.93097,0.06317
3194.00223,0.06308
3192.07348,0.06342
3190.14474,0.06363
3188.21599,0.06337
3186.28725,0.06299
3184.35850,0.06295
3182.42976,0.06322
3180.50101,0.06327
3178.57227,0.06319
3176.64352,0.06336
3174.71478,0.06348
3172.78603,0.06337
3170.85729,0.06317
3168.92854,0.06274
3166.99979,0.06249
3165.07105,0.06275
3163.14230,0.06293
3161.21356,0.06273
3159.28481,0.06259
3157.35607,0.06270
3155.42732,0.06281
3153.49858,0.06272
3151.56983,0.06253
3149.64109,0.06251
3147.71234,0.06256
3145.78360,0.06230
3143.85485,0.06197
3141.92611,0.06192
3139.99736,0.06201
3138.06861,0.06206
3136.13987,0.06192
3134.21112,0.06166
3132.28238,0.06167
3130.35363,0.06205
3128.42489,0.06237
3126.49614,0.06230
3124.56740,0.06206
3122.63865,0.06201
3120.70991,0.06206
3118.78116,0.06199
3116.85242,0.06196
3114.92367,0.06212
3112.99493,0.06214
3111.06618,0.06186
3109.13744,0.06167
3107.20869,0.06179
3105.27994,0.06190
3103.35120,0.06174
3101.42245,0.06164
3099.49371,0.06176
3097.56496,0.06183
3095.63622,0.06183
3093.70747,0.06173
3091.77873,0.06152
3089.84998,0.06129
3087.92124,0.06112
3085.99249,0.06124
3084.06375,0.06164
3082.13500,0.06189
3080.20626,0.06183
3078.27751,0.06166
3076.34877,0.06159
3074.42002,0.06157
3072.49127,0.06146
3070.56253,0.06131
3068.63378,0.06126
3066.70504,0.06132
3064.77629,0.06146
3062.84755,0.06146
3060.91880,0.06122
3058.99006,0.06104
3057.06131,0.06114
3055.13257,0.06128
3053.20382,0.06133
3051.27508,0.06145
3049.34633,0.06162
3047.41759,0.06165
3045.48884,0.06163
3043.56009,0.06173
3041.63135,0.06190
3039.70260,0.06195
3037.77386,0.06179
3035.84511,0.06147
3033.91637,0.06108
3031.98762,0.06069
3030.05888,0.06048
3028.13013,0.06069
3026.20139,0.06097
3024.27264,0.06090
3022.34390,0.06076
3020.41515,0.06081
3018.48641,0.06085
3016.55766,0.06081
3014.62892,0.06070
3012.70017,0.06056
3010.77142,0.06048
3008.84268,0.06053
3006.91393,0.06069
3004.98519,0.06084
3003.05644,0.06085
3001.12770,0.06070
2999.19895,0.06046
2997.27021,0.06031
2995.34146,0.06039
2993.41272,0.06051
2991.48397,0.06058
2989.55523,0.06058
2987.62648,0.06036
2985.69774,0.06004
2983.76899,0.05993
2981.84025,0.06000
2979.91150,0.06004
2977.98275,0.05997
2976.05401,0.05987
2974.12526,0.05980
2972.19652,0.05989
2970.26777,0.06022
2968.33903,0.06060
2966.41028,0.06090
2964.48154,0.06125
2962.55279,0.06143
2960.62405,0.06137
2958.69530,0.06143
2956.76656,0.06185
2954.83781,0.06235
2952.90907,0.06245
2950.98032,0.06215
2949.05157,0.06177
2947.12283,0.06158
2945.19408,0.06180
2943.26534,0.06225
2941.33659,0.06259
2939.40785,0.06281
2937.47910,0.06310
2935.55036,0.06351
2933.62161,0.06388
2931.69287,0.06417
2929.76412,0.06441
2927.83538,0.06476
2925.90663,0.06521
2923.97789,0.06552
2922.04914,0.06564
2920.12040,0.06570
2918.19165,0.06564
2916.26290,0.06538
2914.33416,0.06502
2912.40541,0.06463
2910.47667,0.06430
2908.54792,0.06417
2906.61918,0.06418
2904.69043,0.06407
2902.76169,0.06380
2900.83294,0.06354
2898.90420,0.06338
2896.97545,0.06325
2895.04671,0.06318
2893.11796,0.06321
2891.18922,0.06330
2889.26047,0.06330
2887.33172,0.06298
2885.40298,0.06258
2883.47423,0.06251
2881.54549,0.06262
2879.61674,0.06275
2877.68800,0.06298
2875.75925,0.06322
2873.83051,0.06320
2871.90176,0.06296
2869.97302,0.06285
2868.04427,0.06284
2866.11553,0.06276
2864.18678,0.06284
2862.25804,0.06326
2860.32929,0.06367
2858.40055,0.06391
2856.47180,0.06422
2854.54305,0.06461
2852.61431,0.06497
2850.68556,0.06526
2848.75682,0.06521
2846.82807,0.06479
2844.89933,0.06435
2842.97058,0.06402
2841.04184,0.06379
2839.11309,0.06369
2837.18435,0.06357
2835.25560,0.06328
2833.32686,0.06312
2831.39811,0.06325
2829.46937,0.06335
2827.54062,0.06325
2825.61188,0.06326
2823.68313,0.06336
2821.75438,0.06336
2819.82564,0.06338
2817.89689,0.06332
2815.96815,0.06308
2814.03940,0.06275
2812.11066,0.06251
2810.18191,0.06255
2808.25317,0.06271
2806.32442,0.06264
2804.39568,0.06254
2802.46693,0.06261
2800.53819,0.06275
2798.60944,0.06283
2796.68070,0.06281
2794.75195,0.06278
2792.82320,0.06287
2790.89446,0.06299
2788.96571,0.06295
2787.03697,0.06290
2785.10822,0.06309
2783.17948,0.06332
2781.25073,0.06338
2779.32199,0.06326
2777.39324,0.06310
2775.46450,0.06301
2773.53575,0.06299
2771.60701,0.06312
2769.67826,0.06333
2767.74952,0.06341
2765.82077,0.06339
2763.89203,0.06331
2761.96328,0.06330
2760.03453,0.06341
2758.10579,0.06327
2756.17704,0.06286
2754.24830,0.06271
2752.31955,0.06290
2750.39081,0.06316
2748.46206,0.06328
2746.53332,0.06325
2744.60457,0.06318
2742.67583,0.06313
2740.74708,0.06315
2738.81834,0.06331
2736.88959,0.06358
2734.96085,0.06383
2733.03210,0.06385
2731.10336,0.06354
2729.17461,0.06323
2727.24586,0.06321
2725.31712,0.06333
2723.38837,0.06344
2721.45963,0.06361
2719.53088,0.06383
2717.60214,0.06398
2715.67339,0.06395
2713.74465,0.06377
2711.81590,0.06364
2709.88716,0.06373
2707.95841,0.06390
2706.02967,0.06387
2704.10092,0.06358
2702.17218,0.06329
2700.24343,0.06341
2698.31468,0.06370
2696.38594,0.06378
2694.45719,0.06387
2692.52845,0.06400
2690.59970,0.06401
2688.67096,0.06395
2686.74221,0.06384
2684.81347,0.06367
2682.88472,0.06364
2680.95598,0.06370
2679.02723,0.06370
2677.09849,0.06381
2675.16974,0.06413
2673.24100,0.06431
2671.31225,0.06414
2669.38351,0.06391
2667.45476,0.06390
2665.52601,0.06398
2663.59727,0.06402
2661.66852,0.06404
2659.73978,0.06408
2657.81103,0.06408
2655.88229,0.06391
2653.95354,0.06360
2652.02480,0.06337
2650.09605,0.06329
2648.16731,0.06321
2646.23856,0.06302
2644.30982,0.06285
2642.38107,0.06289
2640.45233,0.06313
2638.52358,0.06339
2636.59484,0.06341
2634.66609,0.06312
2632.73734,0.06281
2630.80860,0.06266
2628.87985,0.06256
2626.95111,0.06247
2625.02236,0.06247
2623.09362,0.06249
2621.16487,0.06255
2619.23613,0.06272
2617.30738,0.06283
2615.37864,0.06280
2613.44989,0.06286
2611.52115,0.06292
2609.59240,0.06272
2607.66366,0.06244
2605.73491,0.06227
2603.80616,0.06212
2601.87742,0.06206
2599.94867,0.06221
2598.01993,0.06242
2596.09118,0.06250
2594.16244,0.06239
2592.23369,0.06226
2590.30495,0.06223
2588.37620,0.06217
2586.44746,0.06200
2584.51871,0.06189
2582.58997,0.06185
2580.66122,0.06174
2578.73248,0.06162
2576.80373,0.06159
2574.87499,0.06166
2572.94624,0.06184
2571.01749,0.06200
2569.08875,0.06204
2567.16000,0.06204
2565.23126,0.06200
2563.30251,0.06186
2561.37377,0.06164
2559.44502,0.06150
2557.51628,0.06149
2555.58753,0.06154
2553.65879,0.06162
2551.73004,0.06183
2549.80130,0.06217
2547.87255,0.06232
2545.94381,0.06220
2544.01506,0.06207
2542.08631,0.06197
2540.15757,0.06182
2538.22882,0.06156
2536.30008,0.06136
2534.37133,0.06141
2532.44259,0.06158
2530.51384,0.06163
2528.58510,0.06162
2526.65635,0.06167
2524.72761,0.06177
2522.79886,0.06189
2520.87012,0.06200
2518.94137,0.06196
2517.01263,0.06172
2515.08388,0.06138
2513.15514,0.06122
2511.22639,0.06139
2509.29764,0.06169
2507.36890,0.06178
2505.44015,0.06165
2503.51141,0.06149
2501.58266,0.06127
2499.65392,0.06109
2497.72517,0.06119
2495.79643,0.06152
2493.86768,0.06182
2491.93894,0.06196
2490.01019,0.06193
2488.08145,0.06188
2486.15270,0.06194
2484.22396,0.06213
2482.29521,0.06237
2480.36647,0.06245
2478.43772,0.06237
2476.50897,0.06237
2474.58023,0.06241
2472.65148,0.06228
2470.72274,0.06208
2468.79399,0.06214
2466.86525,0.06239
2464.93650,0.06262
2463.00776,0.06262
2461.07901,0.06232
2459.15027,0.06196
2457.22152,0.06194
2455.29278,0.06214
2453.36403,0.06221
2451.43529,0.06217
2449.50654,0.06215
2447.57779,0.06218
2445.64905,0.06213
2443.72030,0.06185
2441.79156,0.06152
2439.86281,0.06141
2437.93407,0.06147
2436.00532,0.06155
2434.07658,0.06158
2432.14783,0.06162
2430.21909,0.06165
2428.29034,0.06149
2426.36160,0.06112
2424.43285,0.06085
2422.50411,0.06082
2420.57536,0.06092
2418.64662,0.06110
2416.71787,0.06126
2414.78912,0.06129
2412.86038,0.06122
2410.93163,0.06125
2409.00289,0.06124
2407.07414,0.06097
2405.14540,0.06071
2403.21665,0.06070
2401.28791,0.06081
2399.35916,0.06090
2397.43042,0.06092
2395.50167,0.06085
2393.57293,0.06072
2391.64418,0.06061
2389.71544,0.06056
2387.78669,0.06058
2385.85795,0.06061
2383.92920,0.06067
2382.00045,0.06088
2380.07171,0.06105
2378.14296,0.06096
2376.21422,0.06072
2374.28547,0.06056
2372.35673,0.06056
2370.42798,0.06066
2368.49924,0.06073
2366.57049,0.06079
2364.64175,0.06096
2362.71300,0.06112
2360.78426,0.06097
2358.85551,0.06062
2356.92677,0.06046
2354.99802,0.06058
2353.06927,0.06089
2351.14053,0.06111
2349.21178,0.06101
2347.28304,0.06080
2345.35429,0.06088
2343.42555,0.06117
2341.49680,0.06124
2339.56806,0.06106
2337.63931,0.06098
2335.71057,0.06103
2333.78182,0.06105
2331.85308,0.06111
2329.92433,0.06123
2327.99559,0.06126
2326.06684,0.06127
2324.13810,0.06133
2322.20935,0.06136
2320.28060,0.06129
2318.35186,0.06129
2316.42311,0.06138
2314.49437,0.06132
2312.56562,0.06108
2310.63688,0.06089
2308.70813,0.06092
2306.77939,0.06096
2304.85064,0.06091
2302.92190,0.06094
2300.99315,0.06092
2299.06441,0.06065
2297.13566,0.06033
2295.20692,0.06018
2293.27817,0.06015
2291.34943,0.06018
2289.42068,0.06016
2287.49193,0.06010
2285.56319,0.06022
2283.63444,0.06050
2281.70570,0.06068
2279.77695,0.06068
2277.84821,0.06052
2275.91946,0.06032
2273.99072,0.06012
2272.06197,0.06001
2270.13323,0.06008
2268.20448,0.06019
2266.27574,0.06017
2264.34699,0.06018
2262.41825,0.06022
2260.48950,0.06021
2258.56075,0.06025
2256.63201,0.06036
2254.70326,0.06040
2252.77452,0.06033
2250.84577,0.06028
2248.91703,0.06023
2246.98828,0.06011
2245.05954,0.06003
2243.13079,0.06001
2241.20205,0.05998
2239.27330,0.06010
2237.34456,0.06036
2235.41581,0.06043
2233.48707,0.06032
2231.55832,0.06028
2229.62958,0.06024
2227.70083,0.06013
2225.77208,0.06014
2223.84334,0.06019
2221.91459,0.06009
2219.98585,0.06001
2218.05710,0.06011
2216.12836,0.06030
2214.19961,0.06042
2212.27087,0.06029
2210.34212,0.05998
2208.41338,0.05985
2206.48463,0.06002
2204.55589,0.06023
2202.62714,0.06027
2200.69840,0.06034
2198.76965,0.06058
2196.84090,0.06065
2194.91216,0.06041
2192.98341,0.06018
2191.05467,0.06016
2189.12592,0.06013
2187.19718,0.06007
2185.26843,0.06014
2183.33969,0.06019
2181.41094,0.06000
2179.48220,0.05971
2177.55345,0.05967
2175.62471,0.05987
2173.69596,0.05998
2171.76722,0.05992
2169.83847,0.05980
2167.90973,0.05965
2165.98098,0.05949
2164.05223,0.05944
2162.12349,0.05944
2160.19474,0.05935
2158.26600,0.05924
2156.33725,0.05932
2154.40851,0.05957
2152.47976,0.05971
2150.55102,0.05960
2148.62227,0.05936
2146.69353,0.05915
2144.76478,0.05903
2142.83604,0.05894
2140.90729,0.05892
2138.97855,0.05896
2137.04980,0.05901
2135.12106,0.05910
2133.19231,0.05916
2131.26356,0.05903
2129.33482,0.05885
2127.40607,0.05884
2125.47733,0.05897
2123.54858,0.05919
2121.61984,0.05929
2119.69109,0.05906
2117.76235,0.05874
2115.83360,0.05864
2113.90486,0.05881
2111.97611,0.05908
2110.04737,0.05924
2108.11862,0.05926
2106.18988,0.05923
2104.26113,0.05910
2102.33238,0.05891
2100.40364,0.05874
2098.47489,0.05866
2096.54615,0.05869
2094.61740,0.05869
2092.68866,0.05860
2090.75991,0.05853
2088.83117,0.05849
2086.90242,0.05845
2084.97368,0.05849
2083.04493,0.05866
2081.11619,0.05889
2079.18744,0.05902
2077.25870,0.05893
2075.32995,0.05869
2073.40121,0.05849
2071.47246,0.05849
2069.54371,0.05852
2067.61497,0.05841
2065.68622,0.05827
2063.75748,0.05831
2061.82873,0.05845
2059.89999,0.05856
2057.97124,0.05867
2056.04250,0.05869
2054.11375,0.05858
2052.18501,0.05850
2050.25626,0.05848
2048.32752,0.05850
2046.39877,0.05858
2044.47003,0.05854
2042.54128,0.05837
2040.61254,0.05831
2038.68379,0.05844
2036.75504,0.05853
2034.82630,0.05842
2032.89755,0.05819
2030.96881,0.05803
2029.04006,0.05804
2027.11132,0.05813
2025.18257,0.05820
2023.25383,0.05814
2021.32508,0.05798
2019.39634,0.05785
2017.46759,0.05781
2015.53885,0.05787
2013.61010,0.05791
2011.68136,0.05782
2009.75261,0.05761
2007.82386,0.05747
2005.89512,0.05747
2003.96637,0.05752
2002.03763,0.05757
2000.10888,0.05759
1998.18014,0.05756
1996.25139,0.05744
1994.32265,0.05721
1992.39390,0.05698
1990.46516,0.05696
1988.53641,0.05700
1986.60767,0.05698
1984.67892,0.05698
1982.75018,0.05708
1980.82143,0.05713
1978.89269,0.05703
1976.96394,0.05689
1975.03519,0.05675
1973.10645,0.05656
1971.17770,0.05636
1969.24896,0.05624
1967.32021,0.05628
1965.39147,0.05639
1963.46272,0.05646
1961.53398,0.05654
1959.60523,0.05662
1957.67649,0.05655
1955.74774,0.05630
1953.81900,0.05624
1951.89025,0.05639
1949.96151,0.05644
1948.03276,0.05644
1946.10402,0.05652
1944.17527,0.05662
1942.24652,0.05663
1940.31778,0.05652
1938.38903,0.05638
1936.46029,0.05626
1934.53154,0.05614
1932.60280,0.05602
1930.67405,0.05598
1928.74531,0.05596
1926.81656,0.05589
1924.88782,0.05583
1922.95907,0.05587
1921.03033,0.05592
1919.10158,0.05584
1917.17284,0.05578
1915.24409,0.05591
1913.31534,0.05610
1911.38660,0.05617
1909.45785,0.05610
1907.52911,0.05587
1905.60036,0.05556
1903.67162,0.05536
1901.74287,0.05532
1899.81413,0.05534
1897.88538,0.05533
1895.95664,0.05527
1894.02789,0.05519
1892.09915,0.05508
1890.17040,0.05495
1888.24166,0.05494
1886.31291,0.05498
1884.38417,0.05494
1882.45542,0.05486
1880.52667,0.05478
1878.59793,0.05458
1876.66918,0.05431
1874.74044,0.05418
1872.81169,0.05418
1870.88295,0.05418
1868.95420,0.05408
1867.02546,0.05394
1865.09671,0.05380
1863.16797,0.05361
1861.23922,0.05341
1859.31048,0.05332
1857.38173,0.05332
1855.45299,0.05330
1853.52424,0.05323
1851.59549,0.05312
1849.66675,0.05294
1847.73800,0.05271
1845.80926,0.05250
1843.88051,0.05237
1841.95177,0.05227
1840.02302,0.05212
1838.09428,0.05191
1836.16553,0.05174
1834.23679,0.05167
1832.30804,0.05167
1830.37930,0.05156
1828.45055,0.05138
1826.52181,0.05128
1824.59306,0.05116
1822.66432,0.05095
1820.73557,0.05077
1818.80682,0.05065
1816.87808,0.05049
1814.94933,0.05024
1813.02059,0.04998
1811.09184,0.04976
1809.16310,0.04961
1807.23435,0.04952
1805.30561,0.04931
1803.37686,0.04891
1801.44812,0.04858
1799.51937,0.04838
1797.59063,0.04818
1795.66188,0.04800
1793.73314,0.04772
1791.80439,0.04721
1789.87565,0.04674
1787.94690,0.04649
1786.01815,0.04631
1784.08941,0.04593
1782.16066,0.04546
1780.23192,0.04510
1778.30317,0.04479
1776.37443,0.04437
1774.44568,0.04375
1772.51694,0.04300
1770.58819,0.04230
1768.65945,0.04159
1766.73070,0.04071
1764.80196,0.03974
1762.87321,0.03880
1760.94447,0.03783
1759.01572,0.03672
1757.08697,0.03545
1755.15823,0.03415
1753.22948,0.03272
1751.30074,0.03092
1749.37199,0.02897
1747.44325,0.02713
1745.51450,0.02546
1743.58576,0.02435
1741.65701,0.02440
1739.72827,0.02620
1737.79952,0.02997
1735.87078,0.03616
1733.94203,0.04535
1732.01329,0.05592
1730.08454,0.06650
1728.15580,0.07763
1726.22705,0.08896
1724.29830,0.10008
1722.36956,0.11078
1720.44081,0.12041
1718.51207,0.12814
1716.58332,0.13197
1714.65458,0.13037
1712.72583,0.12490
1710.79709,0.11775
1708.86834,0.11040
1706.93960,0.10363
1705.01085,0.09787
1703.08211,0.09345
1701.15336,0.08979
1699.22462,0.08643
1697.29587,0.08355
1695.36713,0.08104
1693.43838,0.07914
1691.50963,0.07786
1689.58089,0.07677
1687.65214,0.07573
1685.72340,0.07478
1683.79465,0.07388
1681.86591,0.07315
1679.93716,0.07263
1678.00842,0.07216
1676.07967,0.07153
1674.15093,0.07079
1672.22218,0.07020
1670.29344,0.06975
1668.36469,0.06935
1666.43595,0.06899
1664.50720,0.06859
1662.57845,0.06816
1660.64971,0.06781
1658.72096,0.06757
1656.79222,0.06741
1654.86347,0.06713
1652.93473,0.06667
1651.00598,0.06642
1649.07724,0.06629
1647.14849,0.06596
1645.21975,0.06552
1643.29100,0.06520
1641.36226,0.06489
1639.43351,0.06454
1637.50477,0.06422
1635.57602,0.06389
1633.64728,0.06352
1631.71853,0.06334
1629.78978,0.06338
1627.86104,0.06335
1625.93229,0.06314
1624.00355,0.06296
1622.07480,0.06276
1620.14606,0.06244
1618.21731,0.06209
1616.28857,0.06169
1614.35982,0.06140
1612.43108,0.06135
1610.50233,0.06127
1608.57359,0.06108
1606.64484,0.06101
1604.71610,0.06108
1602.78735,0.06108
1600.85861,0.06086
1598.92986,0.06056
1597.00111,0.06032
1595.07237,0.06017
1593.14362,0.05998
1591.21488,0.05970
1589.28613,0.05935
1587.35739,0.05891
1585.42864,0.05841
1583.49990,0.05802
1581.57115,0.05797
1579.64241,0.05833
1577.71366,0.05895
1575.78492,0.05952
1573.85617,0.05971
1571.92743,0.05957
1569.99868,0.05924
1568.06993,0.05895
1566.14119,0.05882
1564.21244,0.05870
1562.28370,0.05849
1560.35495,0.05824
1558.42621,0.05798
1556.49746,0.05773
1554.56872,0.05744
1552.63997,0.05718
1550.71123,0.05715
1548.78248,0.05725
1546.85374,0.05725
1544.92499,0.05708
1542.99625,0.05692
1541.06750,0.05686
1539.13876,0.05658
1537.21001,0.05613
1535.28126,0.05576
1533.35252,0.05542
1531.42377,0.05517
1529.49503,0.05503
1527.56628,0.05490
1525.63754,0.05477
1523.70879,0.05459
1521.78005,0.05436
1519.85130,0.05416
1517.92256,0.05399
1515.99381,0.05377
1514.06507,0.05344
1512.13632,0.05297
1510.20758,0.05259
1508.27883,0.05285
1506.35008,0.05393
1504.42134,0.05513
1502.49259,0.05584
1500.56385,0.05601
1498.63510,0.05566
1496.70636,0.05488
1494.77761,0.05413
1492.84887,0.05377
1490.92012,0.05363
1488.99138,0.05344
1487.06263,0.05311
1485.13389,0.05270
1483.20514,0.05226
1481.27640,0.05190
1479.34765,0.05172
1477.41891,0.05157
1475.49016,0.05142
1473.56141,0.05143
1471.63267,0.05148
1469.70392,0.05139
1467.77518,0.05116
1465.84643,0.05078
1463.91769,0.05040
1461.98894,0.05030
1460.06020,0.05036
1458.13145,0.05032
1456.20271,0.05024
1454.27396,0.05034
1452.34522,0.05059
1450.41647,0.05085
1448.48773,0.05101
1446.55898,0.05102
1444.63024,0.05089
1442.70149,0.05073
1440.77274,0.05070
1438.84400,0.05072
1436.91525,0.05061
1434.98651,0.05052
1433.05776,0.05035
1431.12902,0.04977
1429.20027,0.04883
1427.27153,0.04794
1425.34278,0.04719
1423.41404,0.04637
1421.48529,0.04522
1419.55655,0.04361
1417.62780,0.04199
1415.69906,0.04106
1413.77031,0.04160
1411.84156,0.04435
1409.91282,0.04866
1407.98407,0.05250
1406.05533,0.05453
1404.12658,0.05493
1402.19784,0.05451
1400.26909,0.05377
1398.34035,0.05287
1396.41160,0.05196
1394.48286,0.05111
1392.55411,0.05039
1390.62537,0.04988
1388.69662,0.04941
1386.76788,0.04880
1384.83913,0.04817
1382.91039,0.04760
1380.98164,0.04700
1379.05289,0.04653
1377.12415,0.04627
1375.19540,0.04603
1373.26666,0.04589
1371.33791,0.04615
1369.40917,0.04667
1367.48042,0.04703
1365.55168,0.04706
1363.62293,0.04664
1361.69419,0.04570
1359.76544,0.04458
1357.83670,0.04361
1355.90795,0.04271
1353.97921,0.04165
1352.05046,0.04048
1350.12172,0.03948
1348.19297,0.03900
1346.26422,0.03962
1344.33548,0.04192
1342.40673,0.04573
1340.47799,0.04950
1338.54924,0.05135
1336.62050,0.05074
1334.69175,0.04850
1332.76301,0.04567
1330.83426,0.04304
1328.90552,0.04078
1326.97677,0.03867
1325.04803,0.03674
1323.11928,0.03522
1321.19054,0.03398
1319.26179,0.03266
1317.33304,0.03132
1315.40430,0.03007
1313.47555,0.02886
1311.54681,0.02779
1309.61806,0.02691
1307.68932,0.02605
1305.76057,0.02524
1303.83183,0.02447
1301.90308,0.02383
1299.97434,0.02392
1298.04559,0.02533
1296.11685,0.02810
1294.18810,0.03181
1292.25936,0.03601
1290.33061,0.04043
1288.40187,0.04489
1286.47312,0.04950
1284.54437,0.05450
1282.61563,0.05985
1280.68688,0.06563
1278.75814,0.07209
1276.82939,0.07928
1274.90065,0.08706
1272.97190,0.09548
1271.04316,0.10457
1269.11441,0.11396
1267.18567,0.12292
1265.25692,0.13068
1263.32818,0.13670
1261.39943,0.14096
1259.47069,0.14392
1257.54194,0.14631
1255.61320,0.14891
1253.68445,0.15218
1251.75570,0.15589
1249.82696,0.15917
1247.89821,0.16098
1245.96947,0.16097
1244.04072,0.15944
1242.11198,0.15659
1240.18323,0.15250
1238.25449,0.14749
1236.32574,0.14176
1234.39700,0.13546
1232.46825,0.12901
1230.53951,0.12284
1228.61076,0.11727
1226.68202,0.11256
1224.75327,0.10855
1222.82452,0.10513
1220.89578,0.10223
1218.96703,0.09959
1217.03829,0.09695
1215.10954,0.09446
1213.18080,0.09240
1211.25205,0.09059
1209.32331,0.08875
1207.39456,0.08690
1205.46582,0.08519
1203.53707,0.08364
1201.60833,0.08214
1199.67958,0.08055
1197.75084,0.07906
1195.82209,0.07778
1193.89335,0.07651
1191.96460,0.07512
1190.03585,0.07367
1188.10711,0.07223
1186.17836,0.07083
1184.24962,0.06957
1182.32087,0.06847
1180.39213,0.06752
1178.46338,0.06683
1176.53464,0.06646
1174.60589,0.06612
1172.67715,0.06556
1170.74840,0.06473
1168.81966,0.06368
1166.89091,0.06254
1164.96217,0.06138
1163.03342,0.06020
1161.10467,0.05886
1159.17593,0.05714
1157.24718,0.05519
1155.31844,0.05346
1153.38969,0.05204
1151.46095,0.05074
1149.53220,0.04938
1147.60346,0.04785
1145.67471,0.04623
1143.74597,0.04491
1141.81722,0.04425
1139.88848,0.04442
1137.95973,0.04576
1136.03099,0.04881
1134.10224,0.05384
1132.17350,0.06060
1130.24475,0.06819
1128.31600,0.07540
1126.38726,0.08153
1124.45851,0.08653
1122.52977,0.09028
1120.60102,0.09260
1118.67228,0.09357
1116.74353,0.09338
1114.81479,0.09247
1112.88604,0.09162
1110.95730,0.09135
1109.02855,0.09219
1107.09981,0.09444
1105.17106,0.09798
1103.24232,0.10280
1101.31357,0.10850
1099.38483,0.11390
1097.45608,0.11803
1095.52733,0.12046
1093.59859,0.12134
1091.66984,0.12118
1089.74110,0.12026
1087.81235,0.11862
1085.88361,0.11677
1083.95486,0.11518
1082.02612,0.11332
1080.09737,0.11061
1078.16863,0.10754
1076.23988,0.10486
1074.31114,0.10260
1072.38239,0.10038
1070.45365,0.09799
1068.52490,0.09543
1066.59615,0.09293
1064.66741,0.09104
1062.73866,0.08986
1060.80992,0.08886
1058.88117,0.08768
1056.95243,0.08607
1055.02368,0.08418
1053.09494,0.08261
1051.16619,0.08165
1049.23745,0.08111
1047.30870,0.08071
1045.37996,0.08049
1043.45121,0.08064
1041.52247,0.08097
1039.59372,0.08094
1037.66498,0.08044
1035.73623,0.07985
1033.80748,0.07926
1031.87874,0.07852
1029.94999,0.07757
1028.02125,0.07657
1026.09250,0.07662
1024.16376,0.07889
1022.23501,0.08309
1020.30627,0.08833
1018.37752,0.09407
1016.44878,0.09884
1014.52003,0.10050
1012.59129,0.09888
1010.66254,0.09583
1008.73380,0.09297
1006.80505,0.09084
1004.87631,0.08924
1002.94756,0.08767
1001.01881,0.08617
999.09007,0.08504
997.16132,0.08427
995.23258,0.08374
993.30383,0.08328
991.37509,0.08258
989.44634,0.08154
987.51760,0.08047
985.58885,0.07968
983.66011,0.07918
981.73136,0.07889
979.80262,0.07878
977.87387,0.07886
975.94513,0.07912
974.01638,0.07954
972.08763,0.08016
970.15889,0.08059
968.23014,0.08054
966.30140,0.08032
964.37265,0.08026
962.44391,0.08015
960.51516,0.07967
958.58642,0.07891
956.65767,0.07831
954.72893,0.07805
952.80018,0.07783
950.87144,0.07741
948.94269,0.07694
947.01395,0.07656
945.08520,0.07632
943.15646,0.07608
941.22771,0.07571
939.29896,0.07528
937.37022,0.07486
935.44147,0.07450
933.51273,0.07424
931.58398,0.07392
929.65524,0.07352
927.72649,0.07323
925.79775,0.07306
923.86900,0.07281
921.94026,0.07253
920.01151,0.07226
918.08277,0.07186
916.15402,0.07124
914.22528,0.07044
912.29653,0.06966
910.36779,0.06927
908.43904,0.06932
906.51029,0.06932
904.58155,0.06915
902.65280,0.06899
900.72406,0.06881
898.79531,0.06881
896.86657,0.06919
894.93782,0.06963
893.00908,0.06971
891.08033,0.06925
889.15159,0.06856
887.22284,0.06804
885.29410,0.06748
883.36535,0.06659
881.43661,0.06584
879.50786,0.06585
877.57911,0.06666
875.65037,0.06805
873.72162,0.07015
871.79288,0.07273
869.86413,0.07483
867.93539,0.07568
866.00664,0.07526
864.07790,0.07430
862.14915,0.07358
860.22041,0.07320
858.29166,0.07308
856.36292,0.07307
854.43417,0.07287
852.50543,0.07260
850.57668,0.07254
848.64794,0.07270
846.71919,0.07297
844.79044,0.07299
842.86170,0.07262
840.93295,0.07248
839.00421,0.07294
837.07546,0.07355
835.14672,0.07384
833.21797,0.07367
831.28923,0.07310
829.36048,0.07241
827.43174,0.07191
825.50299,0.07177
823.57425,0.07179
821.64550,0.07150
819.71676,0.07105
817.78801,0.07094
815.85926,0.07105
813.93052,0.07116
812.00177,0.07122
810.07303,0.07087
808.14428,0.07013
806.21554,0.06952
804.28679,0.06930
802.35805,0.06940
800.42930,0.06959
798.50056,0.06940
796.57181,0.06892
794.64307,0.06893
792.71432,0.06958
790.78558,0.07021
788.85683,0.07038
786.92809,0.07008
784.99934,0.06953
783.07059,0.06892
781.14185,0.06844
779.21310,0.06817
777.28436,0.06809
775.35561,0.06802
773.42687,0.06756
771.49812,0.06671
769.56938,0.06581
767.64063,0.06502
765.71189,0.06436
763.78314,0.06371
761.85440,0.06299
759.92565,0.06218
757.99691,0.06122
756.06816,0.06024
754.13942,0.05907
752.21067,0.05731
750.28192,0.05521
748.35318,0.05328
746.42443,0.05120
744.49569,0.04838
742.56694,0.04457
740.63820,0.04015
738.70945,0.03681
736.78071,0.03688
734.85196,0.04197
732.92322,0.05289
730.99447,0.07023
729.06573,0.09347
727.13698,0.11795
725.20824,0.13447
723.27949,0.13673
721.35074,0.12826
719.42200,0.11716
717.49325,0.10791
715.56451,0.10127
713.63576,0.09684
711.70702,0.09377
709.77827,0.09136
707.84953,0.08956
705.92078,0.08820
703.99204,0.08696
702.06329,0.08626
700.13455,0.08587
698.20580,0.08485
696.27706,0.08350
694.34831,0.08261
692.41957,0.08226
690.49082,0.08197
688.56207,0.08104
686.63333,0.07983
684.70458,0.07920
682.77584,0.07897
680.84709,0.07873
678.91835,0.07832
676.98960,0.07778
675.06086,0.07741
673.13211,0.07737
671.20337,0.07738
669.27462,0.07699
667.34588,0.07629
665.41713,0.07611
663.48839,0.07646
661.55964,0.07652
659.63090,0.07593
657.70215,0.07503
655.77340,0.07490
653.84466,0.07600
651.91591,0.07665
649.98717,0.07559
648.05842,0.07394
646.12968,0.07278
644.20093,0.07188
642.27219,0.07154
640.34344,0.07212
638.41470,0.07282
636.48595,0.07291
634.55721,0.07243
632.62846,0.07203
630.69972,0.07234
628.77097,0.07312
626.84222,0.07371
624.91348,0.07379
622.98473,0.07349
621.05599,0.07299
619.12724,0.07231
617.19850,0.07176
615.26975,0.07120
613.34101,0.07084
611.41226,0.07162
609.48352,0.07231
607.55477,0.07139
605.62603,0.07047
603.69728,0.07066
601.76854,0.07156
599.83979,0.07318
