7497.03301,0.51492
7495.10426,0.51371
7493.17552,0.51086
7491.24677,0.50921
7489.31803,0.50945
7487.38928,0.51003
7485.46054,0.50958
7483.53179,0.50750
7481.60305,0.50628
7479.67430,0.50704
7477.74556,0.50728
7475.81681,0.50419
7473.88807,0.49827
7471.95932,0.49380
7470.03057,0.49105
7468.10183,0.48905
7466.17308,0.49032
7464.24434,0.49273
7462.31559,0.49164
7460.38685,0.48762
7458.45810,0.48239
7456.52936,0.47610
7454.60061,0.47097
7452.67187,0.47038
7450.74312,0.47384
7448.81438,0.47532
7446.88563,0.47042
7444.95689,0.46332
7443.02814,0.45871
7441.09940,0.45593
7439.17065,0.45439
7437.24190,0.45291
7435.31316,0.44823
7433.38441,0.44144
7431.45567,0.43777
7429.52692,0.43687
7427.59818,0.43493
7425.66943,0.43296
7423.74069,0.42993
7421.81194,0.42369
7419.88320,0.42060
7417.95445,0.42174
7416.02571,0.41720
7414.09696,0.40883
7412.16822,0.40529
7410.23947,0.40375
7408.31073,0.40031
7406.38198,0.39789
7404.45323,0.39940
7402.52449,0.40286
7400.59574,0.40331
7398.66700,0.40007
7396.73825,0.39563
7394.80951,0.39035
7392.88076,0.38595
7390.95202,0.38657
7389.02327,0.39057
7387.09453,0.39113
7385.16578,0.38771
7383.23704,0.38411
7381.30829,0.38034
7379.37955,0.37745
7377.45080,0.37802
7375.52205,0.37942
7373.59331,0.37791
7371.66456,0.37410
7369.73582,0.36798
7367.80707,0.36012
7365.87833,0.35596
7363.94958,0.35741
7362.02084,0.35987
7360.09209,0.36098
7358.16335,0.36149
7356.23460,0.36263
7354.30586,0.36519
7352.37711,0.36749
7350.44837,0.36738
7348.51962,0.36425
7346.59088,0.35857
7344.66213,0.35326
7342.73338,0.35173
7340.80464,0.35239
7338.87589,0.35187
7336.94715,0.35138
7335.01840,0.35130
7333.08966,0.34887
7331.16091,0.34654
7329.23217,0.34823
7327.30342,0.35017
7325.37468,0.34880
7323.44593,0.34649
7321.51719,0.34604
7319.58844,0.34856
7317.65970,0.35191
7315.73095,0.35295
7313.80221,0.35286
7311.87346,0.35418
7309.94471,0.35557
7308.01597,0.35417
7306.08722,0.35130
7304.15848,0.35067
7302.22973,0.35209
7300.30099,0.35247
7298.37224,0.35204
7296.44350,0.35249
7294.51475,0.35117
7292.58601,0.34728
7290.65726,0.34516
7288.72852,0.34576
7286.79977,0.34683
7284.87103,0.34676
7282.94228,0.34498
7281.01353,0.34495
7279.08479,0.34941
7277.15604,0.35284
7275.22730,0.35051
7273.29855,0.34639
7271.36981,0.34486
7269.44106,0.34451
7267.51232,0.34336
7265.58357,0.34346
7263.65483,0.34470
7261.72608,0.34283
7259.79734,0.33978
7257.86859,0.34003
7255.93985,0.34006
7254.01110,0.33636
7252.08236,0.33307
7250.15361,0.33394
7248.22486,0.33703
7246.29612,0.33898
7244.36737,0.33829
7242.43863,0.33656
7240.50988,0.33490
7238.58114,0.33176
7236.65239,0.32983
7234.72365,0.33199
7232.79490,0.33599
7230.86616,0.34020
7228.93741,0.34144
7227.00867,0.33900
7225.07992,0.33815
7223.15118,0.33867
7221.22243,0.33741
7219.29369,0.33439
7217.36494,0.32880
7215.43619,0.32249
7213.50745,0.32043
7211.57870,0.32245
7209.64996,0.32570
7207.72121,0.33037
7205.79247,0.33418
7203.86372,0.33356
7201.93498,0.33057
7200.00623,0.32870
7198.07749,0.32769
7196.14874,0.32573
7194.22000,0.32349
7192.29125,0.32298
7190.36251,0.32302
7188.43376,0.32081
7186.50501,0.31792
7184.57627,0.31835
7182.64752,0.32144
7180.71878,0.32402
7178.79003,0.32494
7176.86129,0.32360
7174.93254,0.32093
7173.00380,0.31933
7171.07505,0.31980
7169.14631,0.32126
7167.21756,0.32165
7165.28882,0.32002
7163.36007,0.31809
7161.43133,0.31778
7159.50258,0.31772
7157.57384,0.31578
7155.64509,0.31285
7153.71634,0.31128
7151.78760,0.31209
7149.85885,0.31275
7147.93011,0.31012
7146.00136,0.30609
7144.07262,0.30399
7142.14387,0.30384
7140.21513,0.30453
7138.28638,0.30571
7136.35764,0.30614
7134.42889,0.30299
7132.50015,0.29680
7130.57140,0.29229
7128.64266,0.29179
7126.71391,0.29299
7124.78516,0.29355
7122.85642,0.29336
7120.92767,0.29178
7118.99893,0.28946
7117.07018,0.28967
7115.14144,0.29279
7113.21269,0.29559
7111.28395,0.29611
7109.35520,0.29601
7107.42646,0.29676
7105.49771,0.29688
7103.56897,0.29567
7101.64022,0.29415
7099.71148,0.29249
7097.78273,0.29119
7095.85399,0.29111
7093.92524,0.29128
7091.99649,0.29047
7090.06775,0.28983
7088.13900,0.29098
7086.21026,0.29223
7084.28151,0.29052
7082.35277,0.28799
7080.42402,0.28800
7078.49528,0.28912
7076.56653,0.28994
7074.63779,0.29158
7072.70904,0.29330
7070.78030,0.29219
7068.85155,0.28876
7066.92281,0.28642
7064.99406,0.28620
7063.06532,0.28734
7061.13657,0.28825
7059.20782,0.28876
7057.27908,0.29030
7055.35033,0.29152
7053.42159,0.29010
7051.49284,0.28694
7049.56410,0.28549
7047.63535,0.28792
7045.70661,0.29159
7043.77786,0.29291
7041.84912,0.29307
7039.92037,0.29408
7037.99163,0.29519
7036.06288,0.29589
7034.13414,0.29560
7032.20539,0.29396
7030.27664,0.29258
7028.34790,0.29365
7026.41915,0.29844
7024.49041,0.30293
7022.56166,0.30156
7020.63292,0.29841
7018.70417,0.29878
7016.77543,0.29934
7014.84668,0.29810
7012.91794,0.29916
7010.98919,0.30445
7009.06045,0.30875
7007.13170,0.30786
7005.20296,0.30710
7003.27421,0.31090
7001.34547,0.31643
6999.41672,0.32094
6997.48797,0.32205
6995.55923,0.31891
6993.63048,0.31533
6991.70174,0.31564
6989.77299,0.31991
6987.84425,0.32290
6985.91550,0.32072
6983.98676,0.31784
6982.05801,0.31908
6980.12927,0.32073
6978.20052,0.31985
6976.27178,0.31980
6974.34303,0.32182
6972.41429,0.32458
6970.48554,0.32764
6968.55680,0.32946
6966.62805,0.32970
6964.69930,0.33118
6962.77056,0.33443
6960.84181,0.33568
6958.91307,0.33423
6956.98432,0.33347
6955.05558,0.33395
6953.12683,0.33399
6951.19809,0.33517
6949.26934,0.33932
6947.34060,0.34400
6945.41185,0.34551
6943.48311,0.34358
6941.55436,0.34190
6939.62562,0.34283
6937.69687,0.34549
6935.76812,0.34883
6933.83938,0.35003
6931.91063,0.34814
6929.98189,0.34730
6928.05314,0.34865
6926.12440,0.34864
6924.19565,0.34699
6922.26691,0.34648
6920.33816,0.34631
6918.40942,0.34594
6916.48067,0.34752
6914.55193,0.34957
6912.62318,0.35128
6910.69444,0.35409
6908.76569,0.35640
6906.83695,0.35771
6904.90820,0.35920
6902.97945,0.35995
6901.05071,0.36008
6899.12196,0.36220
6897.19322,0.36541
6895.26447,0.36536
6893.33573,0.36399
6891.40698,0.36622
6889.47824,0.36922
6887.54949,0.36861
6885.62075,0.36582
6883.69200,0.36444
6881.76326,0.36585
6879.83451,0.36699
6877.90577,0.36526
6875.97702,0.36435
6874.04828,0.36721
6872.11953,0.36924
6870.19078,0.36776
6868.26204,0.36795
6866.33329,0.37128
6864.40455,0.37271
6862.47580,0.37133
6860.54706,0.37010
6858.61831,0.36933
6856.68957,0.36813
6854.76082,0.36780
6852.83208,0.36809
6850.90333,0.36708
6848.97459,0.36626
6847.04584,0.36695
6845.11710,0.36684
6843.18835,0.36545
6841.25960,0.36529
6839.33086,0.36710
6837.40211,0.37002
6835.47337,0.37326
6833.54462,0.37484
6831.61588,0.37426
6829.68713,0.37422
6827.75839,0.37596
6825.82964,0.37679
6823.90090,0.37505
6821.97215,0.37320
6820.04341,0.37340
6818.11466,0.37615
6816.18592,0.37904
6814.25717,0.37945
6812.32843,0.38073
6810.39968,0.38520
6808.47093,0.38971
6806.54219,0.39153
6804.61344,0.39066
6802.68470,0.39000
6800.75595,0.39143
6798.82721,0.39328
6796.89846,0.39415
6794.96972,0.39379
6793.04097,0.39372
6791.11223,0.39561
6789.18348,0.39657
6787.25474,0.39485
6785.32599,0.39402
6783.39725,0.39460
6781.46850,0.39397
6779.53975,0.39196
6777.61101,0.39065
6775.68226,0.39252
6773.75352,0.39662
6771.82477,0.39967
6769.89603,0.40125
6767.96728,0.40197
6766.03854,0.40160
6764.10979,0.40146
6762.18105,0.40342
6760.25230,0.40675
6758.32356,0.40852
6756.39481,0.40776
6754.46607,0.40763
6752.53732,0.40954
6750.60858,0.41097
6748.67983,0.41240
6746.75108,0.41569
6744.82234,0.41830
6742.89359,0.41839
6740.96485,0.41801
6739.03610,0.41862
6737.10736,0.42018
6735.17861,0.42213
6733.24987,0.42275
6731.32112,0.42229
6729.39238,0.42416
6727.46363,0.42820
6725.53489,0.43028
6723.60614,0.43004
6721.67740,0.42975
6719.74865,0.42919
6717.81991,0.42815
6715.89116,0.42747
6713.96241,0.42662
6712.03367,0.42578
6710.10492,0.42594
6708.17618,0.42650
6706.24743,0.42701
6704.31869,0.42711
6702.38994,0.42722
6700.46120,0.42918
6698.53245,0.43155
6696.60371,0.43135
6694.67496,0.42878
6692.74622,0.42583
6690.81747,0.42476
6688.88873,0.42605
6686.95998,0.42845
6685.03123,0.43044
6683.10249,0.43034
6681.17374,0.42853
6679.24500,0.42672
6677.31625,0.42635
6675.38751,0.42804
6673.45876,0.43012
6671.53002,0.43041
6669.60127,0.42921
6667.67253,0.42843
6665.74378,0.42907
6663.81504,0.43068
6661.88629,0.43148
6659.95755,0.43025
6658.02880,0.42855
6656.10006,0.42781
6654.17131,0.42840
6652.24256,0.43001
6650.31382,0.43096
6648.38507,0.43209
6646.45633,0.43520
6644.52758,0.43808
6642.59884,0.43838
6640.67009,0.43654
6638.74135,0.43462
6636.81260,0.43506
6634.88386,0.43754
6632.95511,0.43909
6631.02637,0.43857
6629.09762,0.43828
6627.16888,0.43999
6625.24013,0.44177
6623.31139,0.44219
6621.38264,0.44292
6619.45389,0.44501
6617.52515,0.44694
6615.59640,0.44663
6613.66766,0.44466
6611.73891,0.44337
6609.81017,0.44334
6607.88142,0.44485
6605.95268,0.44811
6604.02393,0.45074
6602.09519,0.45124
6600.16644,0.45161
6598.23770,0.45264
6596.30895,0.45279
6594.38021,0.45200
6592.45146,0.45191
6590.52271,0.45282
6588.59397,0.45294
6586.66522,0.45209
6584.73648,0.45170
6582.80773,0.45248
6580.87899,0.45424
6578.95024,0.45484
6577.02150,0.45344
6575.09275,0.45235
6573.16401,0.45250
6571.23526,0.45393
6569.30652,0.45568
6567.37777,0.45504
6565.44903,0.45312
6563.52028,0.45305
6561.59154,0.45463
6559.66279,0.45646
6557.73404,0.45601
6555.80530,0.45236
6553.87655,0.44980
6551.94781,0.45085
6550.01906,0.45298
6548.09032,0.45346
6546.16157,0.45097
6544.23283,0.44642
6542.30408,0.44341
6540.37534,0.44364
6538.44659,0.44511
6536.51785,0.44560
6534.58910,0.44520
6532.66036,0.44607
6530.73161,0.44759
6528.80287,0.44685
6526.87412,0.44490
6524.94537,0.44388
6523.01663,0.44385
6521.08788,0.44457
6519.15914,0.44531
6517.23039,0.44566
6515.30165,0.44555
6513.37290,0.44472
6511.44416,0.44393
6509.51541,0.44370
6507.58667,0.44330
6505.65792,0.44325
6503.72918,0.44450
6501.80043,0.44549
6499.87169,0.44501
6497.94294,0.44493
6496.01419,0.44589
6494.08545,0.44606
6492.15670,0.44545
6490.22796,0.44530
6488.29921,0.44621
6486.37047,0.44778
6484.44172,0.44778
6482.51298,0.44609
6480.58423,0.44501
6478.65549,0.44514
6476.72674,0.44562
6474.79800,0.44515
6472.86925,0.44411
6470.94051,0.44458
6469.01176,0.44647
6467.08302,0.44725
6465.15427,0.44598
6463.22552,0.44419
6461.29678,0.44215
6459.36803,0.43943
6457.43929,0.43815
6455.51054,0.43933
6453.58180,0.44010
6451.65305,0.43864
6449.72431,0.43714
6447.79556,0.43755
6445.86682,0.43832
6443.93807,0.43798
6442.00933,0.43641
6440.08058,0.43444
6438.15184,0.43453
6436.22309,0.43591
6434.29434,0.43621
6432.36560,0.43631
6430.43685,0.43559
6428.50811,0.43362
6426.57936,0.43332
6424.65062,0.43468
6422.72187,0.43521
6420.79313,0.43544
6418.86438,0.43624
6416.93564,0.43593
6415.00689,0.43410
6413.07815,0.43316
6411.14940,0.43408
6409.22066,0.43432
6407.29191,0.43287
6405.36317,0.43256
6403.43442,0.43468
6401.50567,0.43765
6399.57693,0.43943
6397.64818,0.43884
6395.71944,0.43702
6393.79069,0.43610
6391.86195,0.43699
6389.93320,0.43936
6388.00446,0.44097
6386.07571,0.43951
6384.14697,0.43681
6382.21822,0.43498
6380.28948,0.43312
6378.36073,0.43219
6376.43199,0.43309
6374.50324,0.43409
6372.57450,0.43473
6370.64575,0.43519
6368.71700,0.43461
6366.78826,0.43327
6364.85951,0.43249
6362.93077,0.43154
6361.00202,0.42880
6359.07328,0.42637
6357.14453,0.42711
6355.21579,0.42873
6353.28704,0.42803
6351.35830,0.42623
6349.42955,0.42543
6347.50081,0.42555
6345.57206,0.42513
6343.64332,0.42221
6341.71457,0.41729
6339.78582,0.41315
6337.85708,0.41113
6335.92833,0.41076
6333.99959,0.41096
6332.07084,0.40951
6330.14210,0.40683
6328.21335,0.40725
6326.28461,0.41055
6324.35586,0.41193
6322.42712,0.41120
6320.49837,0.41072
6318.56963,0.40970
6316.64088,0.40701
6314.71214,0.40460
6312.78339,0.40498
6310.85465,0.40715
6308.92590,0.40804
6306.99715,0.40632
6305.06841,0.40388
6303.13966,0.40370
6301.21092,0.40461
6299.28217,0.40425
6297.35343,0.40407
6295.42468,0.40428
6293.49594,0.40296
6291.56719,0.40089
6289.63845,0.40012
6287.70970,0.40031
6285.78096,0.40005
6283.85221,0.39955
6281.92347,0.39904
6279.99472,0.39723
6278.06598,0.39362
6276.13723,0.38949
6274.20848,0.38684
6272.27974,0.38665
6270.35099,0.38727
6268.42225,0.38637
6266.49350,0.38349
6264.56476,0.37972
6262.63601,0.37680
6260.70727,0.37584
6258.77852,0.37588
6256.84978,0.37481
6254.92103,0.37239
6252.99229,0.37069
6251.06354,0.37012
6249.13480,0.36885
6247.20605,0.36614
6245.27730,0.36304
6243.34856,0.36060
6241.41981,0.35871
6239.49107,0.35684
6237.56232,0.35540
6235.63358,0.35375
6233.70483,0.35129
6231.77609,0.34987
6229.84734,0.34934
6227.91860,0.34747
6225.98985,0.34487
6224.06111,0.34295
6222.13236,0.34112
6220.20362,0.33796
6218.27487,0.33344
6216.34613,0.32839
6214.41738,0.32209
6212.48863,0.31468
6210.55989,0.30735
6208.63114,0.29959
6206.70240,0.29132
6204.77365,0.28390
6202.84491,0.27814
6200.91616,0.27302
6198.98742,0.26734
6197.05867,0.26283
6195.12993,0.26119
6193.20118,0.26067
6191.27244,0.26020
6189.34369,0.26034
6187.41495,0.26030
6185.48620,0.25998
6183.55746,0.26106
6181.62871,0.26330
6179.69996,0.26506
6177.77122,0.26679
6175.84247,0.26905
6173.91373,0.27033
6171.98498,0.26956
6170.05624,0.26726
6168.12749,0.26520
6166.19875,0.26426
6164.27000,0.26284
6162.34126,0.25992
6160.41251,0.25631
6158.48377,0.25226
6156.55502,0.24736
6154.62628,0.24158
6152.69753,0.23524
6150.76878,0.22955
6148.84004,0.22635
6146.91129,0.22547
6144.98255,0.22470
6143.05380,0.22329
6141.12506,0.22195
6139.19631,0.22048
6137.26757,0.21880
6135.33882,0.21775
6133.41008,0.21688
6131.48133,0.21567
6129.55259,0.21488
6127.62384,0.21466
6125.69510,0.21440
6123.76635,0.21335
6121.83761,0.21086
6119.90886,0.20755
6117.98011,0.20380
6116.05137,0.19862
6114.12262,0.19254
6112.19388,0.18698
6110.26513,0.18163
6108.33639,0.17673
6106.40764,0.17247
6104.47890,0.16737
6102.55015,0.16127
6100.62141,0.15523
6098.69266,0.14914
6096.76392,0.14294
6094.83517,0.13782
6092.90643,0.13463
6090.97768,0.13306
6089.04893,0.13140
6087.12019,0.12875
6085.19144,0.12578
6083.26270,0.12273
6081.33395,0.12039
6079.40521,0.11907
6077.47646,0.11783
6075.54772,0.11603
6073.61897,0.11311
6071.69023,0.10979
6069.76148,0.10756
6067.83274,0.10555
6065.90399,0.10219
6063.97525,0.09837
6062.04650,0.09564
6060.11776,0.09396
6058.18901,0.09335
6056.26026,0.09329
6054.33152,0.09285
6052.40277,0.09195
6050.47403,0.09001
6048.54528,0.08789
6046.61654,0.08814
6044.68779,0.08987
6042.75905,0.08947
6040.83030,0.08667
6038.90156,0.08452
6036.97281,0.08420
6035.04407,0.08372
6033.11532,0.08148
6031.18658,0.07816
6029.25783,0.07541
6027.32909,0.07506
6025.40034,0.07786
6023.47159,0.08125
6021.54285,0.08198
6019.61410,0.08038
6017.68536,0.07921
6015.75661,0.07943
6013.82787,0.08008
6011.89912,0.08065
6009.97038,0.08141
6008.04163,0.08231
6006.11289,0.08321
6004.18414,0.08464
6002.25540,0.08644
6000.32665,0.08743
5998.39791,0.08785
5996.46916,0.08913
5994.54041,0.09137
5992.61167,0.09281
5990.68292,0.09266
5988.75418,0.09238
5986.82543,0.09302
5984.89669,0.09368
5982.96794,0.09339
5981.03920,0.09310
5979.11045,0.09398
5977.18171,0.09540
5975.25296,0.09661
5973.32422,0.09762
5971.39547,0.09787
5969.46673,0.09753
5967.53798,0.09816
5965.60924,0.09979
5963.68049,0.10190
5961.75174,0.10437
5959.82300,0.10552
5957.89425,0.10494
5955.96551,0.10489
5954.03676,0.10569
5952.10802,0.10601
5950.17927,0.10622
5948.25053,0.10614
5946.32178,0.10441
5944.39304,0.10207
5942.46429,0.10105
5940.53555,0.10219
5938.60680,0.10522
5936.67806,0.10832
5934.74931,0.10970
5932.82057,0.11006
5930.89182,0.11098
5928.96307,0.11258
5927.03433,0.11521
5925.10558,0.11869
5923.17684,0.12089
5921.24809,0.12192
5919.31935,0.12358
5917.39060,0.12587
5915.46186,0.12856
5913.53311,0.13194
5911.60437,0.13513
5909.67562,0.13708
5907.74688,0.13810
5905.81813,0.13836
5903.88939,0.13831
5901.96064,0.13900
5900.03189,0.13911
5898.10315,0.13727
5896.17440,0.13511
5894.24566,0.13362
5892.31691,0.13238
5890.38817,0.13172
5888.45942,0.13118
5886.53068,0.12955
5884.60193,0.12716
5882.67319,0.12537
5880.74444,0.12472
5878.81570,0.12429
5876.88695,0.12351
5874.95821,0.12344
5873.02946,0.12411
5871.10072,0.12345
5869.17197,0.12120
5867.24322,0.11927
5865.31448,0.11826
5863.38573,0.11775
5861.45699,0.11737
5859.52824,0.11681
5857.59950,0.11639
5855.67075,0.11681
5853.74201,0.11803
5851.81326,0.11932
5849.88452,0.12065
5847.95577,0.12228
5846.02703,0.12326
5844.09828,0.12337
5842.16954,0.12368
5840.24079,0.12422
5838.31205,0.12449
5836.38330,0.12479
5834.45455,0.12524
5832.52581,0.12537
5830.59706,0.12454
5828.66832,0.12314
5826.73957,0.12265
5824.81083,0.12284
5822.88208,0.12196
5820.95334,0.11993
5819.02459,0.11848
5817.09585,0.11791
5815.16710,0.11729
5813.23836,0.11706
5811.30961,0.11770
5809.38087,0.11865
5807.45212,0.11985
5805.52337,0.12082
5803.59463,0.12077
5801.66588,0.12066
5799.73714,0.12159
5797.80839,0.12289
5795.87965,0.12318
5793.95090,0.12236
5792.02216,0.12196
5790.09341,0.12241
5788.16467,0.12273
5786.23592,0.12284
5784.30718,0.12302
5782.37843,0.12297
5780.44969,0.12303
5778.52094,0.12366
5776.59220,0.12417
5774.66345,0.12417
5772.73470,0.12408
5770.80596,0.12428
5768.87721,0.12514
5766.94847,0.12681
5765.01972,0.12885
5763.09098,0.13033
5761.16223,0.13108
5759.23349,0.13226
5757.30474,0.13377
5755.37600,0.13439
5753.44725,0.13452
5751.51851,0.13542
5749.58976,0.13713
5747.66102,0.13903
5745.73227,0.14066
5743.80352,0.14169
5741.87478,0.14227
5739.94603,0.14264
5738.01729,0.14339
5736.08854,0.14545
5734.15980,0.14805
5732.23105,0.14941
5730.30231,0.14974
5728.37356,0.15042
5726.44482,0.15174
5724.51607,0.15292
5722.58733,0.15328
5720.65858,0.15315
5718.72984,0.15333
5716.80109,0.15418
5714.87235,0.15506
5712.94360,0.15471
5711.01485,0.15364
5709.08611,0.15342
5707.15736,0.15353
5705.22862,0.15268
5703.29987,0.15181
5701.37113,0.15250
5699.44238,0.15396
5697.51364,0.15477
5695.58489,0.15505
5693.65615,0.15558
5691.72740,0.15692
5689.79866,0.15832
5687.86991,0.15871
5685.94117,0.15864
5684.01242,0.15938
5682.08368,0.16076
5680.15493,0.16164
5678.22618,0.16198
5676.29744,0.16260
5674.36869,0.16299
5672.43995,0.16231
5670.51120,0.16171
5668.58246,0.16184
5666.65371,0.16148
5664.72497,0.16120
5662.79622,0.16205
5660.86748,0.16250
5658.93873,0.16146
5657.00999,0.15960
5655.08124,0.15816
5653.15250,0.15860
5651.22375,0.16048
5649.29500,0.16202
5647.36626,0.16302
5645.43751,0.16392
5643.50877,0.16498
5641.58002,0.16640
5639.65128,0.16767
5637.72253,0.16865
5635.79379,0.17006
5633.86504,0.17190
5631.93630,0.17361
5630.00755,0.17453
5628.07881,0.17447
5626.15006,0.17448
5624.22132,0.17530
5622.29257,0.17619
5620.36383,0.17675
5618.43508,0.17755
5616.50633,0.17827
5614.57759,0.17828
5612.64884,0.17841
5610.72010,0.17891
5608.79135,0.17893
5606.86261,0.17875
5604.93386,0.17893
5603.00512,0.17920
5601.07637,0.17906
5599.14763,0.17821
5597.21888,0.17739
5595.29014,0.17699
5593.36139,0.17619
5591.43265,0.17503
5589.50390,0.17431
5587.57516,0.17399
5585.64641,0.17349
5583.71766,0.17266
5581.78892,0.17155
5579.86017,0.16990
5577.93143,0.16788
5576.00268,0.16654
5574.07394,0.16618
5572.14519,0.16605
5570.21645,0.16579
5568.28770,0.16537
5566.35896,0.16491
5564.43021,0.16466
5562.50147,0.16427
5560.57272,0.16383
5558.64398,0.16397
5556.71523,0.16428
5554.78648,0.16456
5552.85774,0.16513
5550.92899,0.16518
5549.00025,0.16456
5547.07150,0.16412
5545.14276,0.16384
5543.21401,0.16389
5541.28527,0.16443
5539.35652,0.16444
5537.42778,0.16396
5535.49903,0.16434
5533.57029,0.16510
5531.64154,0.16531
5529.71280,0.16547
5527.78405,0.16558
5525.85531,0.16533
5523.92656,0.16517
5521.99781,0.16529
5520.06907,0.16570
5518.14032,0.16678
5516.21158,0.16806
5514.28283,0.16861
5512.35409,0.16857
5510.42534,0.16841
5508.49660,0.16838
5506.56785,0.16869
5504.63911,0.16890
5502.71036,0.16838
5500.78162,0.16753
5498.85287,0.16697
5496.92413,0.16654
5494.99538,0.16651
5493.06664,0.16687
5491.13789,0.16654
5489.20914,0.16545
5487.28040,0.16442
5485.35165,0.16357
5483.42291,0.16304
5481.49416,0.16291
5479.56542,0.16294
5477.63667,0.16336
5475.70793,0.16406
5473.77918,0.16424
5471.85044,0.16403
5469.92169,0.16391
5467.99295,0.16379
5466.06420,0.16431
5464.13546,0.16578
5462.20671,0.16694
5460.27796,0.16712
5458.34922,0.16720
5456.42047,0.16789
5454.49173,0.16925
5452.56298,0.17096
5450.63424,0.17244
5448.70549,0.17385
5446.77675,0.17583
5444.84800,0.17782
5442.91926,0.17889
5440.99051,0.17972
5439.06177,0.18088
5437.13302,0.18187
5435.20428,0.18296
5433.27553,0.18428
5431.34679,0.18540
5429.41804,0.18664
5427.48929,0.18773
5425.56055,0.18807
5423.63180,0.18799
5421.70306,0.18772
5419.77431,0.18746
5417.84557,0.18759
5415.91682,0.18779
5413.98808,0.18750
5412.05933,0.18686
5410.13059,0.18654
5408.20184,0.18666
5406.27310,0.18649
5404.34435,0.18578
5402.41561,0.18492
5400.48686,0.18428
5398.55811,0.18405
5396.62937,0.18422
5394.70062,0.18448
5392.77188,0.18468
5390.84313,0.18507
5388.91439,0.18533
5386.98564,0.18493
5385.05690,0.18437
5383.12815,0.18401
5381.19941,0.18329
5379.27066,0.18253
5377.34192,0.18251
5375.41317,0.18293
5373.48443,0.18305
5371.55568,0.18240
5369.62694,0.18134
5367.69819,0.18086
5365.76944,0.18115
5363.84070,0.18092
5361.91195,0.17946
5359.98321,0.17825
5358.05446,0.17805
5356.12572,0.17766
5354.19697,0.17671
5352.26823,0.17592
5350.33948,0.17593
5348.41074,0.17644
5346.48199,0.17643
5344.55325,0.17593
5342.62450,0.17604
5340.69576,0.17666
5338.76701,0.17693
5336.83827,0.17727
5334.90952,0.17818
5332.98077,0.17866
5331.05203,0.17854
5329.12328,0.17881
5327.19454,0.17921
5325.26579,0.17876
5323.33705,0.17777
5321.40830,0.17707
5319.47956,0.17700
5317.55081,0.17742
5315.62207,0.17766
5313.69332,0.17721
5311.76458,0.17640
5309.83583,0.17580
5307.90709,0.17497
5305.97834,0.17362
5304.04959,0.17228
5302.12085,0.17053
5300.19210,0.16809
5298.26336,0.16593
5296.33461,0.16454
5294.40587,0.16310
5292.47712,0.16039
5290.54838,0.15681
5288.61963,0.15406
5286.69089,0.15192
5284.76214,0.14896
5282.83340,0.14544
5280.90465,0.14238
5278.97591,0.13989
5277.04716,0.13758
5275.11842,0.13477
5273.18967,0.13132
5271.26092,0.12832
5269.33218,0.12639
5267.40343,0.12487
5265.47469,0.12304
5263.54594,0.12077
5261.61720,0.11854
5259.68845,0.11689
5257.75971,0.11589
5255.83096,0.11537
5253.90222,0.11494
5251.97347,0.11448
5250.04473,0.11431
5248.11598,0.11429
5246.18724,0.11380
5244.25849,0.11303
5242.32975,0.11308
5240.40100,0.11410
5238.47225,0.11512
5236.54351,0.11601
5234.61476,0.11708
5232.68602,0.11815
5230.75727,0.11908
5228.82853,0.11982
5226.89978,0.12029
5224.97104,0.12106
5223.04229,0.12287
5221.11355,0.12491
5219.18480,0.12609
5217.25606,0.12702
5215.32731,0.12866
5213.39857,0.13067
5211.46982,0.13243
5209.54107,0.13389
5207.61233,0.13506
5205.68358,0.13620
5203.75484,0.13783
5201.82609,0.13983
5199.89735,0.14186
5197.96860,0.14355
5196.03986,0.14478
5194.11111,0.14594
5192.18237,0.14690
5190.25362,0.14719
5188.32488,0.14719
5186.39613,0.14761
5184.46739,0.14846
5182.53864,0.14933
5180.60990,0.14959
5178.68115,0.14900
5176.75240,0.14853
5174.82366,0.14925
5172.89491,0.15050
5170.96617,0.15058
5169.03742,0.14943
5167.10868,0.14854
5165.17993,0.14833
5163.25119,0.14815
5161.32244,0.14801
5159.39370,0.14775
5157.46495,0.14693
5155.53621,0.14608
5153.60746,0.14553
5151.67872,0.14479
5149.74997,0.14370
5147.82123,0.14252
5145.89248,0.14123
5143.96373,0.13966
5142.03499,0.13778
5140.10624,0.13576
5138.17750,0.13392
5136.24875,0.13245
5134.32001,0.13142
5132.39126,0.13064
5130.46252,0.12949
5128.53377,0.12758
5126.60503,0.12536
5124.67628,0.12368
5122.74754,0.12271
5120.81879,0.12193
5118.89005,0.12140
5116.96130,0.12180
5115.03255,0.12273
5113.10381,0.12342
5111.17506,0.12477
5109.24632,0.12777
5107.31757,0.13108
5105.38883,0.13336
5103.46008,0.13516
5101.53134,0.13708
5099.60259,0.13902
5097.67385,0.14111
5095.74510,0.14336
5093.81636,0.14547
5091.88761,0.14754
5089.95887,0.14950
5088.03012,0.15106
5086.10138,0.15263
5084.17263,0.15448
5082.24388,0.15597
5080.31514,0.15705
5078.38639,0.15842
5076.45765,0.15997
5074.52890,0.16112
5072.60016,0.16216
5070.67141,0.16309
5068.74267,0.16352
5066.81392,0.16418
5064.88518,0.16570
5062.95643,0.16705
5061.02769,0.16722
5059.09894,0.16666
5057.17020,0.16637
5055.24145,0.16660
5053.31270,0.16726
5051.38396,0.16805
5049.45521,0.16838
5047.52647,0.16808
5045.59772,0.16768
5043.66898,0.16779
5041.74023,0.16819
5039.81149,0.16833
5037.88274,0.16800
5035.95400,0.16760
5034.02525,0.16758
5032.09651,0.16759
5030.16776,0.16731
5028.23902,0.16686
5026.31027,0.16650
5024.38153,0.16643
5022.45278,0.16631
5020.52403,0.16617
5018.59529,0.16610
5016.66654,0.16563
5014.73780,0.16488
5012.80905,0.16417
5010.88031,0.16358
5008.95156,0.16347
5007.02282,0.16368
5005.09407,0.16383
5003.16533,0.16422
5001.23658,0.16484
4999.30784,0.16542
4997.37909,0.16621
4995.45035,0.16711
4993.52160,0.16765
4991.59286,0.16784
4989.66411,0.16802
4987.73536,0.16858
4985.80662,0.16960
4983.87787,0.17063
4981.94913,0.17136
4980.02038,0.17165
4978.09164,0.17149
4976.16289,0.17132
4974.23415,0.17117
4972.30540,0.17036
4970.37666,0.16899
4968.44791,0.16823
4966.51917,0.16817
4964.59042,0.16778
4962.66168,0.16718
4960.73293,0.16699
4958.80418,0.16674
4956.87544,0.16592
4954.94669,0.16463
4953.01795,0.16295
4951.08920,0.16124
4949.16046,0.16047
4947.23171,0.16043
4945.30297,0.15981
4943.37422,0.15917
4941.44548,0.15927
4939.51673,0.15913
4937.58799,0.15855
4935.65924,0.15804
4933.73050,0.15756
4931.80175,0.15736
4929.87301,0.15744
4927.94426,0.15728
4926.01551,0.15665
4924.08677,0.15578
4922.15802,0.15508
4920.22928,0.15446
4918.30053,0.15385
4916.37179,0.15323
4914.44304,0.15259
4912.51430,0.15208
4910.58555,0.15168
4908.65681,0.15132
4906.72806,0.15079
4904.79932,0.15011
4902.87057,0.14957
4900.94183,0.14922
4899.01308,0.14898
4897.08434,0.14849
4895.15559,0.14751
4893.22684,0.14690
4891.29810,0.14681
4889.36935,0.14623
4887.44061,0.14526
4885.51186,0.14480
4883.58312,0.14470
4881.65437,0.14457
4879.72563,0.14458
4877.79688,0.14441
4875.86814,0.14375
4873.93939,0.14304
4872.01065,0.14251
4870.08190,0.14193
4868.15316,0.14136
4866.22441,0.14104
4864.29566,0.14092
4862.36692,0.14080
4860.43817,0.14042
4858.50943,0.13991
4856.58068,0.13972
4854.65194,0.13964
4852.72319,0.13892
4850.79445,0.13764
4848.86570,0.13635
4846.93696,0.13485
4845.00821,0.13304
4843.07947,0.13125
4841.15072,0.12948
4839.22198,0.12773
4837.29323,0.12604
4835.36449,0.12430
4833.43574,0.12253
4831.50699,0.12069
4829.57825,0.11852
4827.64950,0.11632
4825.72076,0.11451
4823.79201,0.11308
4821.86327,0.11204
4819.93452,0.11110
4818.00578,0.11014
4816.07703,0.10950
4814.14829,0.10890
4812.21954,0.10807
4810.29080,0.10708
4808.36205,0.10580
4806.43331,0.10458
4804.50456,0.10388
4802.57582,0.10358
4800.64707,0.10346
4798.71832,0.10331
4796.78958,0.10302
4794.86083,0.10293
4792.93209,0.10302
4791.00334,0.10307
4789.07460,0.10349
4787.14585,0.10432
4785.21711,0.10504
4783.28836,0.10557
4781.35962,0.10613
4779.43087,0.10677
4777.50213,0.10744
4775.57338,0.10813
4773.64464,0.10883
4771.71589,0.10939
4769.78714,0.10958
4767.85840,0.10943
4765.92965,0.10913
4764.00091,0.10874
4762.07216,0.10821
4760.14342,0.10747
4758.21467,0.10636
4756.28593,0.10457
4754.35718,0.10224
4752.42844,0.10022
4750.49969,0.09880
4748.57095,0.09727
4746.64220,0.09544
4744.71346,0.09380
4742.78471,0.09236
4740.85597,0.09103
4738.92722,0.08993
4736.99847,0.08874
4735.06973,0.08724
4733.14098,0.08571
4731.21224,0.08421
4729.28349,0.08271
4727.35475,0.08148
4725.42600,0.08040
4723.49726,0.07937
4721.56851,0.07867
4719.63977,0.07807
4717.71102,0.07746
4715.78228,0.07710
4713.85353,0.07675
4711.92479,0.07643
4709.99604,0.07633
4708.06729,0.07612
4706.13855,0.07567
4704.20980,0.07507
4702.28106,0.07432
4700.35231,0.07318
4698.42357,0.07167
4696.49482,0.07050
4694.56608,0.07005
4692.63733,0.06975
4690.70859,0.06946
4688.77984,0.06964
4686.85110,0.07025
4684.92235,0.07070
4682.99361,0.07124
4681.06486,0.07215
4679.13612,0.07279
4677.20737,0.07330
4675.27862,0.07449
4673.34988,0.07612
4671.42113,0.07747
4669.49239,0.07836
4667.56364,0.07917
4665.63490,0.07987
4663.70615,0.07996
4661.77741,0.07955
4659.84866,0.07958
4657.91992,0.08020
4655.99117,0.08043
4654.06243,0.07994
4652.13368,0.07920
4650.20494,0.07828
4648.27619,0.07718
4646.34745,0.07631
4644.41870,0.07558
4642.48995,0.07476
4640.56121,0.07401
4638.63246,0.07342
4636.70372,0.07293
4634.77497,0.07268
4632.84623,0.07261
4630.91748,0.07271
4628.98874,0.07345
4627.05999,0.07499
4625.13125,0.07671
4623.20250,0.07822
4621.27376,0.07958
4619.34501,0.08098
4617.41627,0.08272
4615.48752,0.08449
4613.55877,0.08556
4611.63003,0.08600
4609.70128,0.08655
4607.77254,0.08722
4605.84379,0.08741
4603.91505,0.08694
4601.98630,0.08632
4600.05756,0.08579
4598.12881,0.08509
4596.20007,0.08395
4594.27132,0.08261
4592.34258,0.08167
4590.41383,0.08126
4588.48509,0.08078
4586.55634,0.07990
4584.62760,0.07907
4582.69885,0.07852
4580.77010,0.07793
4578.84136,0.07739
4576.91261,0.07745
4574.98387,0.07826
4573.05512,0.07967
4571.12638,0.08165
4569.19763,0.08369
4567.26889,0.08533
4565.34014,0.08699
4563.41140,0.08890
4561.48265,0.09048
4559.55391,0.09139
4557.62516,0.09171
4555.69642,0.09150
4553.76767,0.09103
4551.83893,0.09084
4549.91018,0.09091
4547.98143,0.09091
4546.05269,0.09092
4544.12394,0.09103
4542.19520,0.09119
4540.26645,0.09133
4538.33771,0.09132
4536.40896,0.09129
4534.48022,0.09115
4532.55147,0.09069
4530.62273,0.09022
4528.69398,0.09000
4526.76524,0.08965
4524.83649,0.08893
4522.90775,0.08794
4520.97900,0.08705
4519.05025,0.08656
4517.12151,0.08604
4515.19276,0.08516
4513.26402,0.08427
4511.33527,0.08361
4509.40653,0.08305
4507.47778,0.08229
4505.54904,0.08098
4503.62029,0.07919
4501.69155,0.07757
4499.76280,0.07654
4497.83406,0.07571
4495.90531,0.07445
4493.97657,0.07302
4492.04782,0.07204
4490.11908,0.07149
4488.19033,0.07121
4486.26158,0.07110
4484.33284,0.07052
4482.40409,0.06939
4480.47535,0.06884
4478.54660,0.06916
4476.61786,0.06953
4474.68911,0.06955
4472.76037,0.06938
4470.83162,0.06904
4468.90288,0.06828
4466.97413,0.06728
4465.04539,0.06682
4463.11664,0.06683
4461.18790,0.06653
4459.25915,0.06596
4457.33041,0.06555
4455.40166,0.06536
4453.47291,0.06525
4451.54417,0.06512
4449.61542,0.06518
4447.68668,0.06553
4445.75793,0.06561
4443.82919,0.06530
4441.90044,0.06547
4439.97170,0.06627
4438.04295,0.06663
4436.11421,0.06581
4434.18546,0.06462
4432.25672,0.06426
4430.32797,0.06456
4428.39923,0.06469
4426.47048,0.06474
4424.54173,0.06493
4422.61299,0.06491
4420.68424,0.06491
4418.75550,0.06535
4416.82675,0.06601
4414.89801,0.06652
4412.96926,0.06659
4411.04052,0.06630
4409.11177,0.06625
4407.18303,0.06630
4405.25428,0.06610
4403.32554,0.06612
4401.39679,0.06648
4399.46805,0.06661
4397.53930,0.06657
4395.61056,0.06673
4393.68181,0.06697
4391.75306,0.06704
4389.82432,0.06710
4387.89557,0.06745
4385.96683,0.06787
4384.03808,0.06798
4382.10934,0.06787
4380.18059,0.06769
4378.25185,0.06750
4376.32310,0.06744
4374.39436,0.06733
4372.46561,0.06712
4370.53687,0.06712
4368.60812,0.06760
4366.67938,0.06812
4364.75063,0.06807
4362.82189,0.06749
4360.89314,0.06695
4358.96439,0.06694
4357.03565,0.06710
4355.10690,0.06691
4353.17816,0.06666
4351.24941,0.06678
4349.32067,0.06727
4347.39192,0.06764
4345.46318,0.06747
4343.53443,0.06708
4341.60569,0.06682
4339.67694,0.06680
4337.74820,0.06706
4335.81945,0.06724
4333.89071,0.06723
4331.96196,0.06734
4330.03321,0.06759
4328.10447,0.06774
4326.17572,0.06756
4324.24698,0.06712
4322.31823,0.06685
4320.38949,0.06674
4318.46074,0.06645
4316.53200,0.06633
4314.60325,0.06667
4312.67451,0.06688
4310.74576,0.06667
4308.81702,0.06656
4306.88827,0.06664
4304.95953,0.06637
4303.03078,0.06586
4301.10204,0.06583
4299.17329,0.06607
4297.24454,0.06580
4295.31580,0.06525
4293.38705,0.06518
4291.45831,0.06557
4289.52956,0.06583
4287.60082,0.06562
4285.67207,0.06521
4283.74333,0.06493
4281.81458,0.06492
4279.88584,0.06533
4277.95709,0.06605
4276.02835,0.06650
4274.09960,0.06651
4272.17086,0.06644
4270.24211,0.06645
4268.31336,0.06642
4266.38462,0.06631
4264.45587,0.06628
4262.52713,0.06636
4260.59838,0.06628
4258.66964,0.06596
4256.74089,0.06558
4254.81215,0.06544
4252.88340,0.06574
4250.95466,0.06604
4249.02591,0.06593
4247.09717,0.06578
4245.16842,0.06598
4243.23968,0.06624
4241.31093,0.06609
4239.38219,0.06573
4237.45344,0.06580
4235.52469,0.06632
4233.59595,0.06666
4231.66720,0.06667
4229.73846,0.06663
4227.80971,0.06661
4225.88097,0.06640
4223.95222,0.06610
4222.02348,0.06622
4220.09473,0.06670
4218.16599,0.06690
4216.23724,0.06694
4214.30850,0.06715
4212.37975,0.06722
4210.45101,0.06697
4208.52226,0.06679
4206.59352,0.06704
4204.66477,0.06746
4202.73602,0.06749
4200.80728,0.06730
4198.87853,0.06743
4196.94979,0.06768
4195.02104,0.06767
4193.09230,0.06752
4191.16355,0.06735
4189.23481,0.06702
4187.30606,0.06664
4185.37732,0.06651
4183.44857,0.06668
4181.51983,0.06693
4179.59108,0.06701
4177.66234,0.06691
4175.73359,0.06673
4173.80484,0.06669
4171.87610,0.06677
4169.94735,0.06671
4168.01861,0.06670
4166.08986,0.06703
4164.16112,0.06727
4162.23237,0.06719
4160.30363,0.06722
4158.37488,0.06759
4156.44614,0.06796
4154.51739,0.06811
4152.58865,0.06814
4150.65990,0.06803
4148.73116,0.06777
4146.80241,0.06749
4144.87367,0.06721
4142.94492,0.06705
4141.01617,0.06714
4139.08743,0.06725
4137.15868,0.06728
4135.22994,0.06727
4133.30119,0.06702
4131.37245,0.06662
4129.44370,0.06645
4127.51496,0.06653
4125.58621,0.06665
4123.65747,0.06670
4121.72872,0.06650
4119.79998,0.06619
4117.87123,0.06598
4115.94249,0.06582
4114.01374,0.06560
4112.08500,0.06525
4110.15625,0.06498
4108.22750,0.06511
4106.29876,0.06539
4104.37001,0.06534
4102.44127,0.06491
4100.51252,0.06444
4098.58378,0.06418
4096.65503,0.06423
4094.72629,0.06441
4092.79754,0.06441
4090.86880,0.06435
4088.94005,0.06442
4087.01131,0.06448
4085.08256,0.06440
4083.15382,0.06431
4081.22507,0.06431
4079.29632,0.06442
4077.36758,0.06459
4075.43883,0.06485
4073.51009,0.06527
4071.58134,0.06569
4069.65260,0.06572
4067.72385,0.06535
4065.79511,0.06523
4063.86636,0.06565
4061.93762,0.06606
4060.00887,0.06612
4058.08013,0.06623
4056.15138,0.06643
4054.22264,0.06647
4052.29389,0.06636
4050.36515,0.06629
4048.43640,0.06646
4046.50765,0.06683
4044.57891,0.06710
4042.65016,0.06720
4040.72142,0.06724
4038.79267,0.06735
4036.86393,0.06736
4034.93518,0.06719
4033.00644,0.06706
4031.07769,0.06714
4029.14895,0.06745
4027.22020,0.06779
4025.29146,0.06788
4023.36271,0.06779
4021.43397,0.06793
4019.50522,0.06821
4017.57648,0.06828
4015.64773,0.06817
4013.71898,0.06793
4011.79024,0.06785
4009.86149,0.06802
4007.93275,0.06802
4006.00400,0.06798
4004.07526,0.06826
4002.14651,0.06828
4000.21777,0.06779
3998.28902,0.06759
3996.36028,0.06784
3994.43153,0.06797
3992.50279,0.06797
3990.57404,0.06806
3988.64530,0.06820
3986.71655,0.06830
3984.78780,0.06820
3982.85906,0.06797
3980.93031,0.06780
3979.00157,0.06781
3977.07282,0.06813
3975.14408,0.06857
3973.21533,0.06870
3971.28659,0.06844
3969.35784,0.06797
3967.42910,0.06766
3965.50035,0.06784
3963.57161,0.06826
3961.64286,0.06860
3959.71412,0.06887
3957.78537,0.06895
3955.85663,0.06890
3953.92788,0.06904
3951.99913,0.06937
3950.07039,0.06962
3948.14164,0.06984
3946.21290,0.07006
3944.28415,0.07011
3942.35541,0.07007
3940.42666,0.07019
3938.49792,0.07024
3936.56917,0.06993
3934.64043,0.06947
3932.71168,0.06929
3930.78294,0.06949
3928.85419,0.06965
3926.92545,0.06960
3924.99670,0.06954
3923.06795,0.06957
3921.13921,0.06967
3919.21046,0.06976
3917.28172,0.06977
3915.35297,0.06968
3913.42423,0.06964
3911.49548,0.06975
3909.56674,0.06986
3907.63799,0.06999
3905.70925,0.07018
3903.78050,0.07027
3901.85176,0.07044
3899.92301,0.07078
3897.99427,0.07113
3896.06552,0.07138
3894.13678,0.07139
3892.20803,0.07120
3890.27928,0.07116
3888.35054,0.07145
3886.42179,0.07185
3884.49305,0.07210
3882.56430,0.07221
3880.63556,0.07218
3878.70681,0.07206
3876.77807,0.07193
3874.84932,0.07173
3872.92058,0.07160
3870.99183,0.07165
3869.06309,0.07177
3867.13434,0.07183
3865.20560,0.07178
3863.27685,0.07183
3861.34811,0.07198
3859.41936,0.07197
3857.49061,0.07201
3855.56187,0.07224
3853.63312,0.07234
3851.70438,0.07233
3849.77563,0.07250
3847.84689,0.07264
3845.91814,0.07255
3843.98940,0.07229
3842.06065,0.07214
3840.13191,0.07205
3838.20316,0.07191
3836.27442,0.07208
3834.34567,0.07254
3832.41693,0.07263
3830.48818,0.07244
3828.55943,0.07249
3826.63069,0.07269
3824.70194,0.07277
3822.77320,0.07271
3820.84445,0.07245
3818.91571,0.07199
3816.98696,0.07144
3815.05822,0.07100
3813.12947,0.07092
3811.20073,0.07094
3809.27198,0.07070
3807.34324,0.07027
3805.41449,0.07007
3803.48575,0.07027
3801.55700,0.07058
3799.62826,0.07066
3797.69951,0.07064
3795.77076,0.07070
3793.84202,0.07096
3791.91327,0.07140
3789.98453,0.07174
3788.05578,0.07176
3786.12704,0.07147
3784.19829,0.07108
3782.26955,0.07072
3780.34080,0.07052
3778.41206,0.07060
3776.48331,0.07067
3774.55457,0.07050
3772.62582,0.07042
3770.69708,0.07065
3768.76833,0.07078
3766.83959,0.07049
3764.91084,0.07007
3762.98209,0.06972
3761.05335,0.06928
3759.12460,0.06891
3757.19586,0.06897
3755.26711,0.06930
3753.33837,0.06960
3751.40962,0.06983
3749.48088,0.07003
3747.55213,0.07040
3745.62339,0.07108
3743.69464,0.07170
3741.76590,0.07185
3739.83715,0.07162
3737.90841,0.07118
3735.97966,0.07070
3734.05091,0.07028
3732.12217,0.06990
3730.19342,0.06975
3728.26468,0.06994
3726.33593,0.07022
3724.40719,0.07041
3722.47844,0.07052
3720.54970,0.07061
3718.62095,0.07068
3716.69221,0.07061
3714.76346,0.07042
3712.83472,0.07005
3710.90597,0.06953
3708.97723,0.06921
3707.04848,0.06920
3705.11974,0.06918
3703.19099,0.06877
3701.26224,0.06796
3699.33350,0.06718
3697.40475,0.06671
3695.47601,0.06642
3693.54726,0.06619
3691.61852,0.06596
3689.68977,0.06559
3687.76103,0.06519
3685.83228,0.06482
3683.90354,0.06441
3681.97479,0.06420
3680.04605,0.06432
3678.11730,0.06442
3676.18856,0.06438
3674.25981,0.06439
3672.33107,0.06442
3670.40232,0.06430
3668.47357,0.06408
3666.54483,0.06380
3664.61608,0.06359
3662.68734,0.06365
3660.75859,0.06372
3658.82985,0.06342
3656.90110,0.06290
3654.97236,0.06262
3653.04361,0.06277
3651.11487,0.06309
3649.18612,0.06325
3647.25738,0.06330
3645.32863,0.06336
3643.39989,0.06335
3641.47114,0.06333
3639.54239,0.06328
3637.61365,0.06317
3635.68490,0.06313
3633.75616,0.06309
3631.82741,0.06298
3629.89867,0.06300
3627.96992,0.06324
3626.04118,0.06342
3624.11243,0.06321
3622.18369,0.06296
3620.25494,0.06304
3618.32620,0.06318
3616.39745,0.06329
3614.46871,0.06345
3612.53996,0.06362
3610.61122,0.06368
3608.68247,0.06340
3606.75372,0.06304
3604.82498,0.06301
3602.89623,0.06322
3600.96749,0.06345
3599.03874,0.06369
3597.11000,0.06374
3595.18125,0.06353
3593.25251,0.06338
3591.32376,0.06341
3589.39502,0.06333
3587.46627,0.06307
3585.53753,0.06281
3583.60878,0.06279
3581.68004,0.06299
3579.75129,0.06313
3577.82254,0.06297
3575.89380,0.06268
3573.96505,0.06273
3572.03631,0.06309
3570.10756,0.06322
3568.17882,0.06309
3566.25007,0.06301
3564.32133,0.06282
3562.39258,0.06254
3560.46384,0.06252
3558.53509,0.06260
3556.60635,0.06246
3554.67760,0.06225
3552.74886,0.06228
3550.82011,0.06243
3548.89137,0.06249
3546.96262,0.06246
3545.03387,0.06229
3543.10513,0.06213
3541.17638,0.06228
3539.24764,0.06252
3537.31889,0.06236
3535.39015,0.06205
3533.46140,0.06219
3531.53266,0.06268
3529.60391,0.06296
3527.67517,0.06290
3525.74642,0.06284
3523.81768,0.06282
3521.88893,0.06273
3519.96019,0.06288
3518.03144,0.06328
3516.10270,0.06323
3514.17395,0.06280
3512.24520,0.06266
3510.31646,0.06273
3508.38771,0.06263
3506.45897,0.06263
3504.53022,0.06289
3502.60148,0.06318
3500.67273,0.06331
3498.74399,0.06339
3496.81524,0.06345
3494.88650,0.06338
3492.95775,0.06329
3491.02901,0.06326
3489.10026,0.06325
3487.17152,0.06336
3485.24277,0.06345
3483.31402,0.06346
3481.38528,0.06351
3479.45653,0.06346
3477.52779,0.06326
3475.59904,0.06303
3473.67030,0.06269
3471.74155,0.06242
3469.81281,0.06235
3467.88406,0.06235
3465.95532,0.06250
3464.02657,0.06262
3462.09783,0.06248
3460.16908,0.06234
3458.24034,0.06240
3456.31159,0.06239
3454.38285,0.06228
3452.45410,0.06235
3450.52535,0.06246
3448.59661,0.06228
3446.66786,0.06209
3444.73912,0.06194
3442.81037,0.06152
3440.88163,0.06110
3438.95288,0.06124
3437.02414,0.06161
3435.09539,0.06157
3433.16665,0.06138
3431.23790,0.06140
3429.30916,0.06140
3427.38041,0.06121
3425.45167,0.06114
3423.52292,0.06125
3421.59418,0.06147
3419.66543,0.06186
3417.73668,0.06227
3415.80794,0.06248
3413.87919,0.06249
3411.95045,0.06253
3410.02170,0.06281
3408.09296,0.06312
3406.16421,0.06321
3404.23547,0.06321
3402.30672,0.06326
3400.37798,0.06333
3398.44923,0.06348
3396.52049,0.06366
3394.59174,0.06378
3392.66300,0.06383
3390.73425,0.06381
3388.80550,0.06371
3386.87676,0.06366
3384.94801,0.06361
3383.01927,0.06348
3381.09052,0.06340
3379.16178,0.06347
3377.23303,0.06355
3375.30429,0.06357
3373.37554,0.06355
3371.44680,0.06325
3369.51805,0.06288
3367.58931,0.06292
3365.66056,0.06311
3363.73182,0.06317
3361.80307,0.06313
3359.87433,0.06295
3357.94558,0.06293
3356.01683,0.06335
3354.08809,0.06371
3352.15934,0.06353
3350.23060,0.06309
3348.30185,0.06293
3346.37311,0.06304
3344.44436,0.06311
3342.51562,0.06299
3340.58687,0.06280
3338.65813,0.06275
3336.72938,0.06277
3334.80064,0.06265
3332.87189,0.06246
3330.94315,0.06250
3329.01440,0.06276
3327.08566,0.06281
3325.15691,0.06274
3323.22816,0.06301
3321.29942,0.06343
3319.37067,0.06351
3317.44193,0.06324
3315.51318,0.06303
3313.58444,0.06293
3311.65569,0.06290
3309.72695,0.06291
3307.79820,0.06283
3305.86946,0.06276
3303.94071,0.06282
3302.01197,0.06274
3300.08322,0.06256
3298.15448,0.06256
3296.22573,0.06272
3294.29698,0.06293
3292.36824,0.06308
3290.43949,0.06304
3288.51075,0.06310
3286.58200,0.06332
3284.65326,0.06331
3282.72451,0.06300
3280.79577,0.06284
3278.86702,0.06285
3276.93828,0.06275
3275.00953,0.06270
3273.08079,0.06299
3271.15204,0.06335
3269.22330,0.06345
3267.29455,0.06344
3265.36581,0.06348
3263.43706,0.06341
3261.50831,0.06326
3259.57957,0.06331
3257.65082,0.06341
3255.72208,0.06326
3253.79333,0.06302
3251.86459,0.06286
3249.93584,0.06266
3248.00710,0.06258
3246.07835,0.06285
3244.14961,0.06329
3242.22086,0.06351
3240.29212,0.06336
3238.36337,0.06314
3236.43463,0.06315
3234.50588,0.06324
3232.57713,0.06294
3230.64839,0.06224
3228.71964,0.06181
3226.79090,0.06203
3224.86215,0.06234
3222.93341,0.06230
3221.00466,0.06232
3219.07592,0.06263
3217.14717,0.06291
3215.21843,0.06306
3213.28968,0.06332
3211.36094,0.06358
3209.43219,0.06353
3207.50345,0.06319
3205.57470,0.06282
3203.64596,0.06257
3201.71721,0.06256
3199.78846,0.06266
3197.85972,0.06269
3195.93097,0.06266
3194.00223,0.06260
3192.07348,0.06255
3190.14474,0.06251
3188.21599,0.06239
3186.28725,0.06227
3184.35850,0.06231
3182.42976,0.06252
3180.50101,0.06283
3178.57227,0.06290
3176.64352,0.06263
3174.71478,0.06258
3172.78603,0.06279
3170.85729,0.06261
3168.92854,0.06222
3166.99979,0.06229
3165.07105,0.06248
3163.14230,0.06229
3161.21356,0.06203
3159.28481,0.06205
3157.35607,0.06224
3155.42732,0.06251
3153.49858,0.06273
3151.56983,0.06259
3149.64109,0.06228
3147.71234,0.06203
3145.78360,0.06169
3143.85485,0.06145
3141.92611,0.06151
3139.99736,0.06164
3138.06861,0.06162
3136.13987,0.06144
3134.21112,0.06132
3132.28238,0.06151
3130.35363,0.06173
3128.42489,0.06182
3126.49614,0.06189
3124.56740,0.06177
3122.63865,0.06150
3120.70991,0.06131
3118.78116,0.06134
3116.85242,0.06156
3114.92367,0.06178
3112.99493,0.06186
3111.06618,0.06179
3109.13744,0.06166
3107.20869,0.06153
3105.27994,0.06145
3103.35120,0.06135
3101.42245,0.06120
3099.49371,0.06111
3097.56496,0.06120
3095.63622,0.06140
3093.70747,0.06148
3091.77873,0.06151
3089.84998,0.06160
3087.92124,0.06161
3085.99249,0.06141
3084.06375,0.06108
3082.13500,0.06073
3080.20626,0.06052
3078.27751,0.06059
3076.34877,0.06081
3074.42002,0.06093
3072.49127,0.06088
3070.56253,0.06086
3068.63378,0.06087
3066.70504,0.06069
3064.77629,0.06052
3062.84755,0.06064
3060.91880,0.06076
3058.99006,0.06065
3057.06131,0.06057
3055.13257,0.06065
3053.20382,0.06079
3051.27508,0.06086
3049.34633,0.06094
3047.41759,0.06116
3045.48884,0.06140
3043.56009,0.06143
3041.63135,0.06137
3039.70260,0.06132
3037.77386,0.06107
3035.84511,0.06077
3033.91637,0.06077
3031.98762,0.06096
3030.05888,0.06103
3028.13013,0.06101
3026.20139,0.06105
3024.27264,0.06105
3022.34390,0.06093
3020.41515,0.06080
3018.48641,0.06074
3016.55766,0.06072
3014.62892,0.06062
3012.70017,0.06047
3010.77142,0.06037
3008.84268,0.06038
3006.91393,0.06050
3004.98519,0.06061
3003.05644,0.06050
3001.12770,0.06031
2999.19895,0.06023
2997.27021,0.06003
2995.34146,0.05970
2993.41272,0.05972
2991.48397,0.06013
2989.55523,0.06036
2987.62648,0.06023
2985.69774,0.06010
2983.76899,0.06020
2981.84025,0.06025
2979.91150,0.05999
2977.98275,0.05974
2976.05401,0.05988
2974.12526,0.06019
2972.19652,0.06037
2970.26777,0.06051
2968.33903,0.06065
2966.41028,0.06063
2964.48154,0.06061
2962.55279,0.06068
2960.62405,0.06086
2958.69530,0.06126
2956.76656,0.06174
2954.83781,0.06201
2952.90907,0.06191
2950.98032,0.06162
2949.05157,0.06154
2947.12283,0.06181
2945.19408,0.06224
2943.26534,0.06255
2941.33659,0.06264
2939.40785,0.06273
2937.47910,0.06285
2935.55036,0.06290
2933.62161,0.06312
2931.69287,0.06354
2929.76412,0.06383
2927.83538,0.06416
2925.90663,0.06471
2923.97789,0.06531
2922.04914,0.06574
2920.12040,0.06572
2918.19165,0.06526
2916.26290,0.06490
2914.33416,0.06485
2912.40541,0.06467
2910.47667,0.06431
2908.54792,0.06408
2906.61918,0.06391
2904.69043,0.06379
2902.76169,0.06367
2900.83294,0.06336
2898.90420,0.06314
2896.97545,0.06327
2895.04671,0.06347
2893.11796,0.06340
2891.18922,0.06299
2889.26047,0.06246
2887.33172,0.06217
2885.40298,0.06223
2883.47423,0.06236
2881.54549,0.06226
2879.61674,0.06207
2877.68800,0.06212
2875.75925,0.06234
2873.83051,0.06253
2871.90176,0.06259
2869.97302,0.06250
2868.04427,0.06246
2866.11553,0.06264
2864.18678,0.06280
2862.25804,0.06289
2860.32929,0.06326
2858.40055,0.06381
2856.47180,0.06418
2854.54305,0.06448
2852.61431,0.06485
2850.68556,0.06497
2848.75682,0.06474
2846.82807,0.06448
2844.89933,0.06423
2842.97058,0.06377
2841.04184,0.06322
2839.11309,0.06288
2837.18435,0.06283
2835.25560,0.06289
2833.32686,0.06301
2831.39811,0.06312
2829.46937,0.06312
2827.54062,0.06302
2825.61188,0.06295
2823.68313,0.06310
2821.75438,0.06340
2819.82564,0.06342
2817.89689,0.06313
2815.96815,0.06290
2814.03940,0.06288
2812.11066,0.06292
2810.18191,0.06285
2808.25317,0.06264
2806.32442,0.06248
2804.39568,0.06247
2802.46693,0.06257
2800.53819,0.06263
2798.60944,0.06256
2796.68070,0.06244
2794.75195,0.06238
2792.82320,0.06243
2790.89446,0.06262
2788.96571,0.06276
2787.03697,0.06268
2785.10822,0.06252
2783.17948,0.06246
2781.25073,0.06232
2779.32199,0.06215
2777.39324,0.06227
2775.46450,0.06272
2773.53575,0.06305
2771.60701,0.06303
2769.67826,0.06277
2767.74952,0.06255
2765.82077,0.06247
2763.89203,0.06249
2761.96328,0.06244
2760.03453,0.06243
2758.10579,0.06257
2756.17704,0.06272
2754.24830,0.06280
2752.31955,0.06282
2750.39081,0.06272
2748.46206,0.06248
2746.53332,0.06223
2744.60457,0.06223
2742.67583,0.06243
2740.74708,0.06248
2738.81834,0.06244
2736.88959,0.06255
2734.96085,0.06268
2733.03210,0.06273
2731.10336,0.06274
2729.17461,0.06281
2727.24586,0.06303
2725.31712,0.06325
2723.38837,0.06330
2721.45963,0.06323
2719.53088,0.06317
2717.60214,0.06321
2715.67339,0.06327
2713.74465,0.06323
2711.81590,0.06318
2709.88716,0.06322
2707.95841,0.06330
2706.02967,0.06334
2704.10092,0.06337
2702.17218,0.06336
2700.24343,0.06341
2698.31468,0.06361
2696.38594,0.06369
2694.45719,0.06351
2692.52845,0.06333
2690.59970,0.06346
2688.67096,0.06378
2686.74221,0.06387
2684.81347,0.06372
2682.88472,0.06366
2680.95598,0.06372
2679.02723,0.06370
2677.09849,0.06354
2675.16974,0.06348
2673.24100,0.06359
2671.31225,0.06361
2669.38351,0.06348
2667.45476,0.06337
2665.52601,0.06335
2663.59727,0.06333
2661.66852,0.06330
2659.73978,0.06322
2657.81103,0.06312
2655.88229,0.06313
2653.95354,0.06321
2652.02480,0.06319
2650.09605,0.06312
2648.16731,0.06310
2646.23856,0.06301
2644.30982,0.06293
2642.38107,0.06292
2640.45233,0.06280
2638.52358,0.06260
2636.59484,0.06250
2634.66609,0.06241
2632.73734,0.06230
2630.80860,0.06219
2628.87985,0.06210
2626.95111,0.06209
2625.02236,0.06211
2623.09362,0.06212
2621.16487,0.06223
2619.23613,0.06229
2617.30738,0.06219
2615.37864,0.06219
2613.44989,0.06229
2611.52115,0.06231
2609.59240,0.06221
2607.66366,0.06203
2605.73491,0.06188
2603.80616,0.06186
2601.87742,0.06187
2599.94867,0.06184
2598.01993,0.06184
2596.09118,0.06187
2594.16244,0.06181
2592.23369,0.06168
2590.30495,0.06166
2588.37620,0.06163
2586.44746,0.06146
2584.51871,0.06137
2582.58997,0.06148
2580.66122,0.06157
2578.73248,0.06146
2576.80373,0.06125
2574.87499,0.06114
2572.94624,0.06124
2571.01749,0.06155
2569.08875,0.06191
2567.16000,0.06206
2565.23126,0.06186
2563.30251,0.06157
2561.37377,0.06147
2559.44502,0.06141
2557.51628,0.06129
2555.58753,0.06119
2553.65879,0.06117
2551.73004,0.06122
2549.80130,0.06127
2547.87255,0.06123
2545.94381,0.06120
2544.01506,0.06120
2542.08631,0.06130
2540.15757,0.06146
2538.22882,0.06147
2536.30008,0.06133
2534.37133,0.06124
2532.44259,0.06125
2530.51384,0.06135
2528.58510,0.06152
2526.65635,0.06163
2524.72761,0.06161
2522.79886,0.06157
2520.87012,0.06143
2518.94137,0.06120
2517.01263,0.06104
2515.08388,0.06098
2513.15514,0.06096
2511.22639,0.06095
2509.29764,0.06100
2507.36890,0.06116
2505.44015,0.06134
2503.51141,0.06142
2501.58266,0.06139
2499.65392,0.06131
2497.72517,0.06132
2495.79643,0.06146
2493.86768,0.06155
2491.93894,0.06147
2490.01019,0.06141
2488.08145,0.06147
2486.15270,0.06154
2484.22396,0.06168
2482.29521,0.06194
2480.36647,0.06208
2478.43772,0.06206
2476.50897,0.06203
2474.58023,0.06202
2472.65148,0.06201
2470.72274,0.06202
2468.79399,0.06201
2466.86525,0.06197
2464.93650,0.06200
2463.00776,0.06214
2461.07901,0.06225
2459.15027,0.06226
2457.22152,0.06217
2455.29278,0.06213
2453.36403,0.06212
2451.43529,0.06203
2449.50654,0.06202
2447.57779,0.06218
2445.64905,0.06233
2443.72030,0.06230
2441.79156,0.06213
2439.86281,0.06194
2437.93407,0.06174
2436.00532,0.06160
2434.07658,0.06152
2432.14783,0.06137
2430.21909,0.06118
2428.29034,0.06107
2426.36160,0.06102
2424.43285,0.06100
2422.50411,0.06099
2420.57536,0.06089
2418.64662,0.06067
2416.71787,0.06052
2414.78912,0.06065
2412.86038,0.06082
2410.93163,0.06073
2409.00289,0.06058
2407.07414,0.06057
2405.14540,0.06053
2403.21665,0.06039
2401.28791,0.06030
2399.35916,0.06038
2397.43042,0.06054
2395.50167,0.06068
2393.57293,0.06079
2391.64418,0.06079
2389.71544,0.06063
2387.78669,0.06055
2385.85795,0.06059
2383.92920,0.06052
2382.00045,0.06030
2380.07171,0.06012
2378.14296,0.06003
2376.21422,0.05998
2374.28547,0.05996
2372.35673,0.06001
2370.42798,0.06009
2368.49924,0.06016
2366.57049,0.06023
2364.64175,0.06028
2362.71300,0.06023
2360.78426,0.06016
2358.85551,0.06035
2356.92677,0.06071
2354.99802,0.06092
2353.06927,0.06099
2351.14053,0.06087
2349.21178,0.06051
2347.28304,0.06037
2345.35429,0.06068
2343.42555,0.06098
2341.49680,0.06102
2339.56806,0.06096
2337.63931,0.06087
2335.71057,0.06071
2333.78182,0.06054
2331.85308,0.06039
2329.92433,0.06022
2327.99559,0.06013
2326.06684,0.06025
2324.13810,0.06052
2322.20935,0.06068
2320.28060,0.06059
2318.35186,0.06044
2316.42311,0.06040
2314.49437,0.06044
2312.56562,0.06049
2310.63688,0.06058
2308.70813,0.06070
2306.77939,0.06079
2304.85064,0.06078
2302.92190,0.06061
2300.99315,0.06028
2299.06441,0.05997
2297.13566,0.05980
2295.20692,0.05975
2293.27817,0.05979
2291.34943,0.05978
2289.42068,0.05969
2287.49193,0.05967
2285.56319,0.05971
2283.63444,0.05978
2281.70570,0.05988
2279.77695,0.05984
2277.84821,0.05965
2275.91946,0.05955
2273.99072,0.05962
2272.06197,0.05972
2270.13323,0.05981
2268.20448,0.05981
2266.27574,0.05966
2264.34699,0.05958
2262.41825,0.05971
2260.48950,0.05990
2258.56075,0.05991
2256.63201,0.05966
2254.70326,0.05941
2252.77452,0.05948
2250.84577,0.05976
2248.91703,0.05986
2246.98828,0.05980
2245.05954,0.05984
2243.13079,0.05994
2241.20205,0.05999
2239.27330,0.06000
2237.34456,0.06000
2235.41581,0.05992
2233.48707,0.05971
2231.55832,0.05956
2229.62958,0.05974
2227.70083,0.06008
2225.77208,0.06013
2223.84334,0.05989
2221.91459,0.05970
2219.98585,0.05961
2218.05710,0.05956
2216.12836,0.05954
2214.19961,0.05960
2212.27087,0.05974
2210.34212,0.05984
2208.41338,0.05984
2206.48463,0.05969
2204.55589,0.05948
2202.62714,0.05943
2200.69840,0.05955
2198.76965,0.05977
2196.84090,0.05997
2194.91216,0.06005
2192.98341,0.05996
2191.05467,0.05977
2189.12592,0.05960
2187.19718,0.05956
2185.26843,0.05959
2183.33969,0.05957
2181.41094,0.05944
2179.48220,0.05929
2177.55345,0.05923
2175.62471,0.05920
2173.69596,0.05922
2171.76722,0.05936
2169.83847,0.05940
2167.90973,0.05928
2165.98098,0.05920
2164.05223,0.05916
2162.12349,0.05908
2160.19474,0.05897
2158.26600,0.05884
2156.33725,0.05876
2154.40851,0.05872
2152.47976,0.05871
2150.55102,0.05871
2148.62227,0.05865
2146.69353,0.05865
2144.76478,0.05882
2142.83604,0.05893
2140.90729,0.05877
2138.97855,0.05852
2137.04980,0.05843
2135.12106,0.05847
2133.19231,0.05848
2131.26356,0.05842
2129.33482,0.05843
2127.40607,0.05850
2125.47733,0.05861
2123.54858,0.05866
2121.61984,0.05850
2119.69109,0.05818
2117.76235,0.05804
2115.83360,0.05811
2113.90486,0.05812
2111.97611,0.05813
2110.04737,0.05821
2108.11862,0.05813
2106.18988,0.05796
2104.26113,0.05801
2102.33238,0.05817
2100.40364,0.05822
2098.47489,0.05821
2096.54615,0.05827
2094.61740,0.05830
2092.68866,0.05830
2090.75991,0.05838
2088.83117,0.05850
2086.90242,0.05848
2084.97368,0.05826
2083.04493,0.05805
2081.11619,0.05809
2079.18744,0.05832
2077.25870,0.05849
2075.32995,0.05858
2073.40121,0.05868
2071.47246,0.05864
2069.54371,0.05838
2067.61497,0.05814
2065.68622,0.05814
2063.75748,0.05826
2061.82873,0.05829
2059.89999,0.05832
2057.97124,0.05845
2056.04250,0.05848
2054.11375,0.05838
2052.18501,0.05830
2050.25626,0.05824
2048.32752,0.05811
2046.39877,0.05799
2044.47003,0.05803
2042.54128,0.05820
2040.61254,0.05825
2038.68379,0.05811
2036.75504,0.05796
2034.82630,0.05791
2032.89755,0.05788
2030.96881,0.05781
2029.04006,0.05771
2027.11132,0.05758
2025.18257,0.05746
2023.25383,0.05751
2021.32508,0.05761
2019.39634,0.05746
2017.46759,0.05715
2015.53885,0.05697
2013.61010,0.05691
2011.68136,0.05692
2009.75261,0.05710
2007.82386,0.05728
2005.89512,0.05726
2003.96637,0.05714
2002.03763,0.05712
2000.10888,0.05716
1998.18014,0.05715
1996.25139,0.05697
1994.32265,0.05669
1992.39390,0.05655
1990.46516,0.05659
1988.53641,0.05666
1986.60767,0.05670
1984.67892,0.05673
1982.75018,0.05664
1980.82143,0.05646
1978.89269,0.05633
1976.96394,0.05638
1975.03519,0.05649
1973.10645,0.05647
1971.17770,0.05637
1969.24896,0.05633
1967.32021,0.05636
1965.39147,0.05639
1963.46272,0.05631
1961.53398,0.05614
1959.60523,0.05596
1957.67649,0.05593
1955.74774,0.05605
1953.81900,0.05617
1951.89025,0.05614
1949.96151,0.05606
1948.03276,0.05609
1946.10402,0.05608
1944.17527,0.05596
1942.24652,0.05597
1940.31778,0.05615
1938.38903,0.05629
1936.46029,0.05620
1934.53154,0.05593
1932.60280,0.05578
1930.67405,0.05578
1928.74531,0.05574
1926.81656,0.05562
1924.88782,0.05552
1922.95907,0.05554
1921.03033,0.05568
1919.10158,0.05585
1917.17284,0.05589
1915.24409,0.05582
1913.31534,0.05572
1911.38660,0.05558
1909.45785,0.05543
1907.52911,0.05533
1905.60036,0.05522
1903.67162,0.05504
1901.74287,0.05484
1899.81413,0.05474
1897.88538,0.05478
1895.95664,0.05484
1894.02789,0.05473
1892.09915,0.05455
1890.17040,0.05447
1888.24166,0.05452
1886.31291,0.05459
1884.38417,0.05454
1882.45542,0.05432
1880.52667,0.05408
1878.59793,0.05400
1876.66918,0.05399
1874.74044,0.05393
1872.81169,0.05381
1870.88295,0.05372
1868.95420,0.05364
1867.02546,0.05349
1865.09671,0.05331
1863.16797,0.05321
1861.23922,0.05312
1859.31048,0.05301
1857.38173,0.05297
1855.45299,0.05297
1853.52424,0.05282
1851.59549,0.05240
1849.66675,0.05194
1847.73800,0.05177
1845.80926,0.05178
1843.88051,0.05177
1841.95177,0.05175
1840.02302,0.05180
1838.09428,0.05179
1836.16553,0.05160
1834.23679,0.05139
1832.30804,0.05135
1830.37930,0.05135
1828.45055,0.05119
1826.52181,0.05090
1824.59306,0.05071
1822.66432,0.05067
1820.73557,0.05058
1818.80682,0.05029
1816.87808,0.04995
1814.94933,0.04973
1813.02059,0.04953
1811.09184,0.04932
1809.16310,0.04920
1807.23435,0.04909
1805.30561,0.04890
1803.37686,0.04868
1801.44812,0.04844
1799.51937,0.04803
1797.59063,0.04754
1795.66188,0.04720
1793.73314,0.04706
1791.80439,0.04693
1789.87565,0.04660
1787.94690,0.04620
1786.01815,0.04586
1784.08941,0.04551
1782.16066,0.04502
1780.23192,0.04446
1778.30317,0.04401
1776.37443,0.04364
1774.44568,0.04313
1772.51694,0.04249
1770.58819,0.04187
1768.65945,0.04120
1766.73070,0.04044
1764.80196,0.03961
1762.87321,0.03866
1760.94447,0.03757
1759.01572,0.03652
1757.08697,0.03545
1755.15823,0.03419
1753.22948,0.03265
1751.30074,0.03076
1749.37199,0.02878
1747.44325,0.02689
1745.51450,0.02510
1743.58576,0.02395
1741.65701,0.02423
1739.72827,0.02624
1737.79952,0.02996
1735.87078,0.03581
1733.94203,0.04454
1732.01329,0.05499
1730.08454,0.06562
1728.15580,0.07655
1726.22705,0.08768
1724.29830,0.09883
1722.36956,0.10966
1720.44081,0.11935
1718.51207,0.12703
1716.58332,0.13081
1714.65458,0.12925
1712.72583,0.12369
1710.79709,0.11642
1708.86834,0.10926
1706.93960,0.10290
1705.01085,0.09740
1703.08211,0.09314
1701.15336,0.08962
1699.22462,0.08625
1697.29587,0.08332
1695.36713,0.08075
1693.43838,0.07861
1691.50963,0.07701
1689.58089,0.07581
1687.65214,0.07498
1685.72340,0.07426
1683.79465,0.07331
1681.86591,0.07234
1679.93716,0.07165
1678.00842,0.07117
1676.07967,0.07074
1674.15093,0.07030
1672.22218,0.06987
1670.29344,0.06946
1668.36469,0.06905
1666.43595,0.06867
1664.50720,0.06831
1662.57845,0.06790
1660.64971,0.06737
1658.72096,0.06691
1656.79222,0.06669
1654.86347,0.06654
1652.93473,0.06612
1651.00598,0.06562
1649.07724,0.06528
1647.14849,0.06495
1645.21975,0.06463
1643.29100,0.06455
1641.36226,0.06458
1639.43351,0.06446
1637.50477,0.06408
1635.57602,0.06351
1633.64728,0.06312
1631.71853,0.06301
1629.78978,0.06291
1627.86104,0.06262
1625.93229,0.06226
1624.00355,0.06188
1622.07480,0.06152
1620.14606,0.06124
1618.21731,0.06111
1616.28857,0.06119
1614.35982,0.06132
1612.43108,0.06137
1610.50233,0.06129
1608.57359,0.06106
1606.64484,0.06080
1604.71610,0.06059
1602.78735,0.06041
1600.85861,0.06024
1598.92986,0.05999
1597.00111,0.05973
1595.07237,0.05964
1593.14362,0.05959
1591.21488,0.05924
1589.28613,0.05869
1587.35739,0.05823
1585.42864,0.05779
1583.49990,0.05744
1581.57115,0.05753
1579.64241,0.05805
1577.71366,0.05859
1575.78492,0.05883
1573.85617,0.05887
1571.92743,0.05890
1569.99868,0.05885
1568.06993,0.05864
1566.14119,0.05833
1564.21244,0.05805
1562.28370,0.05796
1560.35495,0.05797
1558.42621,0.05785
1556.49746,0.05760
1554.56872,0.05726
1552.63997,0.05687
1550.71123,0.05659
1548.78248,0.05644
1546.85374,0.05643
1544.92499,0.05649
1542.99625,0.05643
1541.06750,0.05621
1539.13876,0.05590
1537.21001,0.05559
1535.28126,0.05547
1533.35252,0.05548
1531.42377,0.05528
1529.49503,0.05495
1527.56628,0.05478
1525.63754,0.05478
1523.70879,0.05469
1521.78005,0.05432
1519.85130,0.05381
1517.92256,0.05350
1515.99381,0.05334
1514.06507,0.05313
1512.13632,0.05279
1510.20758,0.05238
1508.27883,0.05226
1506.35008,0.05299
1504.42134,0.05422
1502.49259,0.05510
1500.56385,0.05536
1498.63510,0.05506
1496.70636,0.05446
1494.77761,0.05387
1492.84887,0.05343
1490.92012,0.05318
1488.99138,0.05300
1487.06263,0.05265
1485.13389,0.05215
1483.20514,0.05181
1481.27640,0.05165
1479.34765,0.05142
1477.41891,0.05102
1475.49016,0.05073
1473.56141,0.05081
1471.63267,0.05107
1469.70392,0.05114
1467.77518,0.05100
1465.84643,0.05079
1463.91769,0.05050
1461.98894,0.05029
1460.06020,0.05031
1458.13145,0.05045
1456.20271,0.05046
1454.27396,0.05041
1452.34522,0.05044
1450.41647,0.05046
1448.48773,0.05048
1446.55898,0.05062
1444.63024,0.05068
1442.70149,0.05052
1440.77274,0.05041
1438.84400,0.05041
1436.91525,0.05027
1434.98651,0.05001
1433.05776,0.04982
1431.12902,0.04952
1429.20027,0.04881
1427.27153,0.04785
1425.34278,0.04693
1423.41404,0.04606
1421.48529,0.04510
1419.55655,0.04381
1417.62780,0.04227
1415.69906,0.04126
1413.77031,0.04172
1411.84156,0.04430
1409.91282,0.04838
1407.98407,0.05220
1406.05533,0.05442
1404.12658,0.05492
1402.19784,0.05438
1400.26909,0.05344
1398.34035,0.05240
1396.41160,0.05142
1394.48286,0.05057
1392.55411,0.04984
1390.62537,0.04928
1388.69662,0.04885
1386.76788,0.04843
1384.83913,0.04800
1382.91039,0.04752
1380.98164,0.04691
1379.05289,0.04631
1377.12415,0.04594
1375.19540,0.04570
1373.26666,0.04564
1371.33791,0.04586
1369.40917,0.04611
1367.48042,0.04626
1365.55168,0.04626
1363.62293,0.04589
1361.69419,0.04507
1359.76544,0.04410
1357.83670,0.04319
1355.90795,0.04231
1353.97921,0.04138
1352.05046,0.04041
1350.12172,0.03954
1348.19297,0.03904
1346.26422,0.03943
1344.33548,0.04154
1342.40673,0.04540
1340.47799,0.04926
1338.54924,0.05109
1336.62050,0.05050
1334.69175,0.04837
1332.76301,0.04562
1330.83426,0.04286
1328.90552,0.04051
1326.97677,0.03861
1325.04803,0.03687
1323.11928,0.03520
1321.19054,0.03380
1319.26179,0.03261
1317.33304,0.03141
1315.40430,0.03009
1313.47555,0.02863
1311.54681,0.02726
1309.61806,0.02621
1307.68932,0.02538
1305.76057,0.02464
1303.83183,0.02397
1301.90308,0.02350
1299.97434,0.02375
1298.04559,0.02522
1296.11685,0.02785
1294.18810,0.03141
1292.25936,0.03566
1290.33061,0.04026
1288.40187,0.04491
1286.47312,0.04956
1284.54437,0.05436
1282.61563,0.05955
1280.68688,0.06533
1278.75814,0.07172
1276.82939,0.07861
1274.90065,0.08609
1272.97190,0.09451
1271.04316,0.10384
1269.11441,0.11340
1267.18567,0.12229
1265.25692,0.12987
1263.32818,0.13581
1261.39943,0.14011
1259.47069,0.14300
1257.54194,0.14505
1255.61320,0.14737
1253.68445,0.15075
1251.75570,0.15470
1249.82696,0.15807
1247.89821,0.15988
1245.96947,0.15972
1244.04072,0.15786
1242.11198,0.15492
1240.18323,0.15111
1238.25449,0.14623
1236.32574,0.14040
1234.39700,0.13409
1232.46825,0.12783
1230.53951,0.12193
1228.61076,0.11650
1226.68202,0.11171
1224.75327,0.10772
1222.82452,0.10446
1220.89578,0.10166
1218.96703,0.09910
1217.03829,0.09658
1215.10954,0.09408
1213.18080,0.09186
1211.25205,0.09004
1209.32331,0.08830
1207.39456,0.08634
1205.46582,0.08436
1203.53707,0.08280
1201.60833,0.08150
1199.67958,0.08011
1197.75084,0.07881
1195.82209,0.07753
1193.89335,0.07608
1191.96460,0.07472
1190.03585,0.07345
1188.10711,0.07200
1186.17836,0.07050
1184.24962,0.06940
1182.32087,0.06865
1180.39213,0.06787
1178.46338,0.06704
1176.53464,0.06621
1174.60589,0.06533
1172.67715,0.06462
1170.74840,0.06410
1168.81966,0.06342
1166.89091,0.06256
1164.96217,0.06160
1163.03342,0.06030
1161.10467,0.05859
1159.17593,0.05690
1157.24718,0.05536
1155.31844,0.05385
1153.38969,0.05234
1151.46095,0.05080
1149.53220,0.04916
1147.60346,0.04741
1145.67471,0.04571
1143.74597,0.04445
1141.81722,0.04396
1139.88848,0.04433
1137.95973,0.04570
1136.03099,0.04864
1134.10224,0.05359
1132.17350,0.06021
1130.24475,0.06761
1128.31600,0.07484
1126.38726,0.08124
1124.45851,0.08639
1122.52977,0.09005
1120.60102,0.09222
1118.67228,0.09313
1116.74353,0.09295
1114.81479,0.09195
1112.88604,0.09092
1110.95730,0.09060
1109.02855,0.09120
1107.09981,0.09307
1105.17106,0.09680
1103.24232,0.10223
1101.31357,0.10833
1099.38483,0.11384
1097.45608,0.11773
1095.52733,0.11993
1093.59859,0.12078
1091.66984,0.12046
1089.74110,0.11930
1087.81235,0.11769
1085.88361,0.11582
1083.95486,0.11383
1082.02612,0.11186
1080.09737,0.10990
1078.16863,0.10772
1076.23988,0.10514
1074.31114,0.10228
1072.38239,0.09943
1070.45365,0.09688
1068.52490,0.09481
1066.59615,0.09316
1064.66741,0.09170
1062.73866,0.09022
1060.80992,0.08845
1058.88117,0.08651
1056.95243,0.08496
1055.02368,0.08371
1053.09494,0.08236
1051.16619,0.08116
1049.23745,0.08065
1047.30870,0.08065
1045.37996,0.08045
1043.45121,0.08012
1041.52247,0.08011
1039.59372,0.08033
1037.66498,0.08039
1035.73623,0.08009
1033.80748,0.07954
1031.87874,0.07869
1029.94999,0.07747
1028.02125,0.07638
1026.09250,0.07641
1024.16376,0.07843
1022.23501,0.08254
1020.30627,0.08809
1018.37752,0.09396
1016.44878,0.09827
1014.52003,0.09947
1012.59129,0.09794
1010.66254,0.09514
1008.73380,0.09225
1006.80505,0.08992
1004.87631,0.08824
1002.94756,0.08694
1001.01881,0.08586
999.09007,0.08493
997.16132,0.08408
995.23258,0.08327
993.30383,0.08244
991.37509,0.08149
989.44634,0.08043
987.51760,0.07963
985.58885,0.07927
983.66011,0.07897
981.73136,0.07844
979.80262,0.07809
977.87387,0.07816
975.94513,0.07839
974.01638,0.07870
972.08763,0.07925
970.15889,0.07992
968.23014,0.08025
966.30140,0.08003
964.37265,0.07982
962.44391,0.07983
960.51516,0.07956
958.58642,0.07899
956.65767,0.07857
954.72893,0.07830
952.80018,0.07779
950.87144,0.07706
948.94269,0.07654
947.01395,0.07637
945.08520,0.07628
943.15646,0.07586
941.22771,0.07522
939.29896,0.07469
937.37022,0.07418
935.44147,0.07365
933.51273,0.07320
931.58398,0.07279
929.65524,0.07248
927.72649,0.07242
925.79775,0.07248
923.86900,0.07230
921.94026,0.07190
920.01151,0.07154
918.08277,0.07111
916.15402,0.07043
914.22528,0.06967
912.29653,0.06918
910.36779,0.06898
908.43904,0.06885
906.51029,0.06875
904.58155,0.06876
902.65280,0.06894
900.72406,0.06914
898.79531,0.06916
896.86657,0.06899
894.93782,0.06875
893.00908,0.06853
891.08033,0.06825
889.15159,0.06785
887.22284,0.06734
885.29410,0.06680
883.36535,0.06632
881.43661,0.06594
879.50786,0.06576
877.57911,0.06616
875.65037,0.06756
873.72162,0.06978
871.79288,0.07209
869.86413,0.07384
867.93539,0.07464
866.00664,0.07438
864.07790,0.07357
862.14915,0.07280
860.22041,0.07225
858.29166,0.07197
856.36292,0.07206
854.43417,0.07220
852.50543,0.07223
850.57668,0.07264
848.64794,0.07327
846.71919,0.07327
844.79044,0.07284
842.86170,0.07275
840.93295,0.07291
839.00421,0.07297
837.07546,0.07308
835.14672,0.07335
833.21797,0.07341
831.28923,0.07301
829.36048,0.07266
827.43174,0.07263
825.50299,0.07242
823.57425,0.07178
821.64550,0.07119
819.71676,0.07077
817.78801,0.07037
815.85926,0.07014
813.93052,0.07016
812.00177,0.07028
810.07303,0.07032
808.14428,0.07012
806.21554,0.06976
804.28679,0.06966
802.35805,0.06988
800.42930,0.06972
798.50056,0.06891
796.57181,0.06835
794.64307,0.06869
792.71432,0.06941
790.78558,0.06996
788.85683,0.07018
786.92809,0.06988
784.99934,0.06927
783.07059,0.06886
781.14185,0.06866
779.21310,0.06840
777.28436,0.06802
775.35561,0.06752
773.42687,0.06691
771.49812,0.06631
769.56938,0.06570
767.64063,0.06498
765.71189,0.06438
763.78314,0.06376
761.85440,0.06280
759.92565,0.06193
757.99691,0.06140
756.06816,0.06074
754.13942,0.05961
752.21067,0.05822
750.28192,0.05649
748.35318,0.05417
746.42443,0.05160
744.49569,0.04863
742.56694,0.04460
740.63820,0.04007
738.70945,0.03695
736.78071,0.03746
734.85196,0.04287
732.92322,0.05367
730.99447,0.07051
729.06573,0.09303
727.13698,0.11687
725.20824,0.13295
723.27949,0.13495
721.35074,0.12628
719.42200,0.11523
717.49325,0.10658
715.56451,0.10062
713.63576,0.09624
711.70702,0.09278
709.77827,0.09016
707.84953,0.08855
705.92078,0.08764
703.99204,0.08667
702.06329,0.08559
700.13455,0.08461
698.20580,0.08387
696.27706,0.08347
694.34831,0.08301
692.41957,0.08220
690.49082,0.08124
688.56207,0.08047
686.63333,0.08029
684.70458,0.08016
682.77584,0.07949
680.84709,0.07885
678.91835,0.07860
676.98960,0.07843
675.06086,0.07811
673.13211,0.07785
671.20337,0.07771
669.27462,0.07761
667.34588,0.07775
665.41713,0.07762
663.48839,0.07674
661.55964,0.07582
659.63090,0.07559
657.70215,0.07586
655.77340,0.07588
653.84466,0.07524
651.91591,0.07464
649.98717,0.07442
648.05842,0.07406
646.12968,0.07363
644.20093,0.07347
642.27219,0.07344
640.34344,0.07356
638.41470,0.07370
636.48595,0.07316
634.55721,0.07222
632.62846,0.07228
630.69972,0.07307
628.77097,0.07312
626.84222,0.07214
624.91348,0.07102
622.98473,0.07093
621.05599,0.07183
619.12724,0.07258
617.19850,0.07289
615.26975,0.07290
613.34101,0.07205
611.41226,0.07078
609.48352,0.07067
607.55477,0.07143
605.62603,0.07152
603.69728,0.07055
601.76854,0.06932
599.83979,0.06936
