7496.91655,0.90226
7494.98784,0.88835
7493.05912,0.88878
7491.13041,0.90996
7489.20169,0.92486
7487.27297,0.91148
7485.34426,0.89077
7483.41554,0.88353
7481.48683,0.88391
7479.55811,0.88450
7477.62940,0.88923
7475.70068,0.90016
7473.77197,0.90672
7471.84325,0.90277
7469.91454,0.89626
7467.98582,0.90364
7466.05711,0.92100
7464.12839,0.91659
7462.19968,0.90089
7460.27096,0.90205
7458.34224,0.90250
7456.41353,0.89042
7454.48481,0.88401
7452.55610,0.88680
7450.62738,0.89172
7448.69867,0.89698
7446.76995,0.89604
7444.84124,0.89513
7442.91252,0.90360
7440.98381,0.90106
7439.05509,0.88033
7437.12638,0.87049
7435.19766,0.88317
7433.26895,0.89307
7431.34023,0.88419
7429.41151,0.87324
7427.48280,0.86820
7425.55408,0.86566
7423.62537,0.86846
7421.69665,0.87749
7419.76794,0.88547
7417.83922,0.88138
7415.91051,0.86878
7413.98179,0.86199
7412.05308,0.86941
7410.12436,0.88196
7408.19565,0.88390
7406.26693,0.88502
7404.33821,0.89302
7402.40950,0.89797
7400.48078,0.90587
7398.55207,0.91620
7396.62335,0.90727
7394.69464,0.88009
7392.76592,0.86676
7390.83721,0.88125
7388.90849,0.89487
7386.97978,0.88635
7385.05106,0.87539
7383.12235,0.87426
7381.19363,0.87620
7379.26492,0.87732
7377.33620,0.87332
7375.40748,0.86931
7373.47877,0.87230
7371.55005,0.87178
7369.62134,0.86146
7367.69262,0.84623
7365.76391,0.83608
7363.83519,0.83691
7361.90648,0.84631
7359.97776,0.86212
7358.04905,0.87793
7356.12033,0.88726
7354.19162,0.89301
7352.26290,0.89303
7350.33419,0.88037
7348.40547,0.86296
7346.47675,0.85926
7344.54804,0.87533
7342.61932,0.90175
7340.69061,0.91288
7338.76189,0.89777
7336.83318,0.88138
7334.90446,0.87158
7332.97575,0.86191
7331.04703,0.86042
7329.11832,0.86744
7327.18960,0.86775
7325.26089,0.85761
7323.33217,0.84045
7321.40346,0.82141
7319.47474,0.81354
7317.54602,0.82183
7315.61731,0.83782
7313.68859,0.85167
7311.75988,0.85700
7309.83116,0.85069
7307.90245,0.84301
7305.97373,0.84214
7304.04502,0.84682
7302.11630,0.85991
7300.18759,0.87145
7298.25887,0.87048
7296.33016,0.86920
7294.40144,0.86776
7292.47272,0.86314
7290.54401,0.86622
7288.61529,0.87838
7286.68658,0.88990
7284.75786,0.89147
7282.82915,0.88506
7280.90043,0.87821
7278.97172,0.88253
7277.04300,0.90233
7275.11429,0.91530
7273.18557,0.90236
7271.25686,0.87987
7269.32814,0.86926
7267.39943,0.86883
7265.47071,0.87070
7263.54199,0.87587
7261.61328,0.88308
7259.68456,0.88754
7257.75585,0.87740
7255.82713,0.84737
7253.89842,0.82654
7251.96970,0.83834
7250.04099,0.85764
7248.11227,0.85663
7246.18356,0.84227
7244.25484,0.83755
7242.32613,0.85833
7240.39741,0.88590
7238.46870,0.88986
7236.53998,0.87529
7234.61126,0.86182
7232.68255,0.85883
7230.75383,0.86928
7228.82512,0.88029
7226.89640,0.87789
7224.96769,0.86866
7223.03897,0.86489
7221.11026,0.86545
7219.18154,0.86619
7217.25283,0.86748
7215.32411,0.86698
7213.39540,0.86432
7211.46668,0.86651
7209.53796,0.87506
7207.60925,0.88141
7205.68053,0.88009
7203.75182,0.87956
7201.82310,0.88385
7199.89439,0.88518
7197.96567,0.88754
7196.03696,0.89626
7194.10824,0.89893
7192.17953,0.88532
7190.25081,0.86521
7188.32210,0.85003
7186.39338,0.84258
7184.46467,0.84068
7182.53595,0.83951
7180.60723,0.84307
7178.67852,0.85371
7176.74980,0.86374
7174.82109,0.87566
7172.89237,0.88880
7170.96366,0.88500
7169.03494,0.86531
7167.10623,0.85704
7165.17751,0.86020
7163.24880,0.85643
7161.32008,0.85361
7159.39137,0.85918
7157.46265,0.86505
7155.53394,0.87102
7153.60522,0.87013
7151.67650,0.85596
7149.74779,0.84601
7147.81907,0.85086
7145.89036,0.85916
7143.96164,0.86331
7142.03293,0.86191
7140.10421,0.85856
7138.17550,0.86002
7136.24678,0.86142
7134.31807,0.85858
7132.38935,0.85804
7130.46064,0.86559
7128.53192,0.87641
7126.60321,0.87894
7124.67449,0.87060
7122.74577,0.86151
7120.81706,0.86214
7118.88834,0.86735
7116.95963,0.87009
7115.03091,0.87470
7113.10220,0.87470
7111.17348,0.86631
7109.24477,0.86493
7107.31605,0.86996
7105.38734,0.86351
7103.45862,0.85102
7101.52991,0.84614
7099.60119,0.85208
7097.67247,0.86315
7095.74376,0.86333
7093.81504,0.85334
7091.88633,0.84851
7089.95761,0.85068
7088.02890,0.85512
7086.10018,0.85579
7084.17147,0.85101
7082.24275,0.84553
7080.31404,0.84461
7078.38532,0.84881
7076.45661,0.85187
7074.52789,0.85389
7072.59918,0.86101
7070.67046,0.87465
7068.74174,0.88663
7066.81303,0.88402
7064.88431,0.87111
7062.95560,0.86276
7061.02688,0.86082
7059.09817,0.86202
7057.16945,0.86646
7055.24074,0.87097
7053.31202,0.87129
7051.38331,0.86906
7049.45459,0.86977
7047.52588,0.87565
7045.59716,0.88192
7043.66845,0.88131
7041.73973,0.87402
7039.81101,0.87179
7037.88230,0.87862
7035.95358,0.88164
7034.02487,0.87692
7032.09615,0.87291
7030.16744,0.87615
7028.23872,0.88893
7026.31001,0.90096
7024.38129,0.90041
7022.45258,0.89515
7020.52386,0.89560
7018.59515,0.89467
7016.66643,0.88836
7014.73771,0.88849
7012.80900,0.89518
7010.88028,0.89830
7008.95157,0.90097
7007.02285,0.90409
7005.09414,0.90187
7003.16542,0.89828
7001.23671,0.89227
6999.30799,0.88140
6997.37928,0.87722
6995.45056,0.88134
6993.52185,0.88248
6991.59313,0.87985
6989.66442,0.88214
6987.73570,0.89008
6985.80698,0.89296
6983.87827,0.88665
6981.94955,0.87895
6980.02084,0.87633
6978.09212,0.88092
6976.16341,0.89121
6974.23469,0.89730
6972.30598,0.89103
6970.37726,0.88300
6968.44855,0.88511
6966.51983,0.88779
6964.59112,0.88129
6962.66240,0.87679
6960.73369,0.88137
6958.80497,0.88302
6956.87625,0.87500
6954.94754,0.86603
6953.01882,0.86382
6951.09011,0.86332
6949.16139,0.86114
6947.23268,0.86833
6945.30396,0.88776
6943.37525,0.89994
6941.44653,0.89591
6939.51782,0.89235
6937.58910,0.89719
6935.66039,0.89711
6933.73167,0.88749
6931.80296,0.87828
6929.87424,0.87351
6927.94552,0.87482
6926.01681,0.88490
6924.08809,0.89548
6922.15938,0.90021
6920.23066,0.90434
6918.30195,0.90486
6916.37323,0.89335
6914.44452,0.87626
6912.51580,0.86953
6910.58709,0.87860
6908.65837,0.89360
6906.72966,0.90381
6904.80094,0.90771
6902.87222,0.90857
6900.94351,0.91062
6899.01479,0.91469
6897.08608,0.91418
6895.15736,0.90693
6893.22865,0.90039
6891.29993,0.89785
6889.37122,0.89587
6887.44250,0.89353
6885.51379,0.89415
6883.58507,0.89531
6881.65636,0.89284
6879.72764,0.89010
6877.79893,0.88769
6875.87021,0.88591
6873.94149,0.88866
6872.01278,0.88975
6870.08406,0.88191
6868.15535,0.87525
6866.22663,0.87964
6864.29792,0.88520
6862.36920,0.88476
6860.44049,0.88563
6858.51177,0.89017
6856.58306,0.89447
6854.65434,0.89513
6852.72563,0.89118
6850.79691,0.88793
6848.86820,0.89101
6846.93948,0.89817
6845.01076,0.90008
6843.08205,0.89208
6841.15333,0.88281
6839.22462,0.88140
6837.29590,0.88257
6835.36719,0.87873
6833.43847,0.87557
6831.50976,0.88092
6829.58104,0.89348
6827.65233,0.90395
6825.72361,0.90411
6823.79490,0.89923
6821.86618,0.89600
6819.93746,0.89181
6818.00875,0.88620
6816.08003,0.88160
6814.15132,0.88159
6812.22260,0.88723
6810.29389,0.89318
6808.36517,0.89701
6806.43646,0.89694
6804.50774,0.89197
6802.57903,0.88776
6800.65031,0.88579
6798.72160,0.88584
6796.79288,0.89317
6794.86417,0.90137
6792.93545,0.89656
6791.00673,0.88780
6789.07802,0.89165
6787.14930,0.90017
6785.22059,0.89956
6783.29187,0.89281
6781.36316,0.88800
6779.43444,0.88712
6777.50573,0.89056
6775.57701,0.89769
6773.64830,0.90177
6771.71958,0.89850
6769.79087,0.89341
6767.86215,0.89020
6765.93344,0.88782
6764.00472,0.88794
6762.07600,0.89171
6760.14729,0.89635
6758.21857,0.89836
6756.28986,0.89716
6754.36114,0.89415
6752.43243,0.89079
6750.50371,0.89073
6748.57500,0.89606
6746.64628,0.90254
6744.71757,0.90309
6742.78885,0.89849
6740.86014,0.89811
6738.93142,0.90176
6737.00271,0.90133
6735.07399,0.89926
6733.14527,0.89977
6731.21656,0.89961
6729.28784,0.89838
6727.35913,0.89855
6725.43041,0.90111
6723.50170,0.90343
6721.57298,0.90026
6719.64427,0.89507
6717.71555,0.89540
6715.78684,0.90034
6713.85812,0.90456
6711.92941,0.90526
6710.00069,0.90417
6708.07197,0.90095
6706.14326,0.89386
6704.21454,0.88909
6702.28583,0.88978
6700.35711,0.88879
6698.42840,0.88491
6696.49968,0.88436
6694.57097,0.88833
6692.64225,0.89641
6690.71354,0.90550
6688.78482,0.90880
6686.85611,0.90780
6684.92739,0.90486
6682.99868,0.90054
6681.06996,0.90178
6679.14124,0.90717
6677.21253,0.90637
6675.28381,0.89935
6673.35510,0.89497
6671.42638,0.89477
6669.49767,0.89329
6667.56895,0.89171
6665.64024,0.89312
6663.71152,0.89565
6661.78281,0.89932
6659.85409,0.90388
6657.92538,0.90628
6655.99666,0.90526
6654.06795,0.90319
6652.13923,0.90445
6650.21051,0.90866
6648.28180,0.90965
6646.35308,0.90657
6644.42437,0.90687
6642.49565,0.91379
6640.56694,0.92173
6638.63822,0.92450
6636.70951,0.92072
6634.78079,0.91465
6632.85208,0.91133
6630.92336,0.91046
6628.99465,0.90949
6627.06593,0.90638
6625.13722,0.89924
6623.20850,0.89219
6621.27978,0.89328
6619.35107,0.90007
6617.42235,0.90287
6615.49364,0.90032
6613.56492,0.90016
6611.63621,0.90634
6609.70749,0.91312
6607.77878,0.91491
6605.85006,0.91170
6603.92135,0.90499
6601.99263,0.89754
6600.06392,0.89478
6598.13520,0.90150
6596.20648,0.91053
6594.27777,0.91192
6592.34905,0.91046
6590.42034,0.91027
6588.49162,0.90937
6586.56291,0.91043
6584.63419,0.91273
6582.70548,0.91139
6580.77676,0.90748
6578.84805,0.90395
6576.91933,0.90091
6574.99062,0.90292
6573.06190,0.91202
6571.13319,0.91857
6569.20447,0.91658
6567.27575,0.90942
6565.34704,0.90129
6563.41832,0.89700
6561.48961,0.89833
6559.56089,0.90121
6557.63218,0.90150
6555.70346,0.89959
6553.77475,0.89738
6551.84603,0.89642
6549.91732,0.89965
6547.98860,0.90468
6546.05989,0.90451
6544.13117,0.90020
6542.20246,0.89962
6540.27374,0.90379
6538.34502,0.90618
6536.41631,0.90418
6534.48759,0.90061
6532.55888,0.89949
6530.63016,0.90291
6528.70145,0.90573
6526.77273,0.90362
6524.84402,0.90195
6522.91530,0.90512
6520.98659,0.90902
6519.05787,0.90761
6517.12916,0.90158
6515.20044,0.89912
6513.27172,0.90255
6511.34301,0.90196
6509.41429,0.89510
6507.48558,0.89350
6505.55686,0.89911
6503.62815,0.90209
6501.69943,0.90027
6499.77072,0.89918
6497.84200,0.90101
6495.91329,0.90334
6493.98457,0.90403
6492.05586,0.90483
6490.12714,0.90770
6488.19843,0.90946
6486.26971,0.90674
6484.34099,0.90299
6482.41228,0.90404
6480.48356,0.90745
6478.55485,0.90609
6476.62613,0.90204
6474.69742,0.90188
6472.76870,0.90316
6470.83999,0.90130
6468.91127,0.89837
6466.98256,0.89587
6465.05384,0.89272
6463.12513,0.89127
6461.19641,0.89482
6459.26770,0.90022
6457.33898,0.90235
6455.41026,0.90233
6453.48155,0.90190
6451.55283,0.90106
6449.62412,0.89970
6447.69540,0.89627
6445.76669,0.89468
6443.83797,0.89936
6441.90926,0.90254
6439.98054,0.89843
6438.05183,0.89695
6436.12311,0.90258
6434.19440,0.90533
6432.26568,0.90270
6430.33697,0.90071
6428.40825,0.89819
6426.47953,0.89320
6424.55082,0.89130
6422.62210,0.89525
6420.69339,0.90074
6418.76467,0.90612
6416.83596,0.91047
6414.90724,0.90978
6412.97853,0.90541
6411.04981,0.90176
6409.12110,0.89850
6407.19238,0.89481
6405.26367,0.89306
6403.33495,0.89447
6401.40623,0.89793
6399.47752,0.89978
6397.54880,0.89716
6395.62009,0.89469
6393.69137,0.89644
6391.76266,0.90120
6389.83394,0.90588
6387.90523,0.90478
6385.97651,0.89864
6384.04780,0.89714
6382.11908,0.90274
6380.19037,0.90857
6378.26165,0.91087
6376.33294,0.90961
6374.40422,0.90682
6372.47550,0.90659
6370.54679,0.90724
6368.61807,0.90587
6366.68936,0.90455
6364.76064,0.90146
6362.83193,0.89380
6360.90321,0.88818
6358.97450,0.89051
6357.04578,0.89525
6355.11707,0.89700
6353.18835,0.89687
6351.25964,0.89732
6349.33092,0.89912
6347.40221,0.89965
6345.47349,0.89894
6343.54477,0.89886
6341.61606,0.89900
6339.68734,0.90062
6337.75863,0.90312
6335.82991,0.90243
6333.90120,0.89833
6331.97248,0.89581
6330.04377,0.89895
6328.11505,0.90552
6326.18634,0.90794
6324.25762,0.90367
6322.32891,0.89830
6320.40019,0.89504
6318.47147,0.89376
6316.54276,0.89515
6314.61404,0.89753
6312.68533,0.89641
6310.75661,0.89286
6308.82790,0.89382
6306.89918,0.89856
6304.97047,0.90037
6303.04175,0.89729
6301.11304,0.89469
6299.18432,0.89781
6297.25561,0.90033
6295.32689,0.89714
6293.39818,0.89471
6291.46946,0.89560
6289.54074,0.89523
6287.61203,0.89265
6285.68331,0.89153
6283.75460,0.89211
6281.82588,0.89294
6279.89717,0.89547
6277.96845,0.89894
6276.03974,0.89947
6274.11102,0.89535
6272.18231,0.89006
6270.25359,0.88801
6268.32488,0.88824
6266.39616,0.88997
6264.46745,0.89348
6262.53873,0.89419
6260.61001,0.89144
6258.68130,0.88923
6256.75258,0.88731
6254.82387,0.88580
6252.89515,0.88482
6250.96644,0.88331
6249.03772,0.88426
6247.10901,0.88834
6245.18029,0.88930
6243.25158,0.88582
6241.32286,0.88433
6239.39415,0.88485
6237.46543,0.88386
6235.53672,0.88327
6233.60800,0.88324
6231.67928,0.88339
6229.75057,0.88485
6227.82185,0.88504
6225.89314,0.88203
6223.96442,0.87760
6222.03571,0.87494
6220.10699,0.87559
6218.17828,0.87730
6216.24956,0.87846
6214.32085,0.87822
6212.39213,0.87560
6210.46342,0.87390
6208.53470,0.87403
6206.60598,0.87233
6204.67727,0.86992
6202.74855,0.86871
6200.81984,0.86672
6198.89112,0.86382
6196.96241,0.86276
6195.03369,0.86358
6193.10498,0.86399
6191.17626,0.86301
6189.24755,0.86071
6187.31883,0.85960
6185.39012,0.85985
6183.46140,0.85730
6181.53269,0.85193
6179.60397,0.84751
6177.67525,0.84570
6175.74654,0.84530
6173.81782,0.84498
6171.88911,0.84416
6169.96039,0.84291
6168.03168,0.84301
6166.10296,0.84468
6164.17425,0.84624
6162.24553,0.84614
6160.31682,0.84420
6158.38810,0.84275
6156.45939,0.84210
6154.53067,0.84172
6152.60196,0.84243
6150.67324,0.84207
6148.74452,0.83884
6146.81581,0.83440
6144.88709,0.83057
6142.95838,0.82937
6141.02966,0.83081
6139.10095,0.83131
6137.17223,0.83048
6135.24352,0.82909
6133.31480,0.82417
6131.38609,0.81670
6129.45737,0.81064
6127.52866,0.80623
6125.59994,0.80463
6123.67122,0.80737
6121.74251,0.81029
6119.81379,0.80996
6117.88508,0.80849
6115.95636,0.80613
6114.02765,0.80228
6112.09893,0.80002
6110.17022,0.79998
6108.24150,0.80016
6106.31279,0.79865
6104.38407,0.79229
6102.45536,0.78268
6100.52664,0.77552
6098.59793,0.77073
6096.66921,0.76420
6094.74049,0.75607
6092.81178,0.75029
6090.88306,0.74674
6088.95435,0.74075
6087.02563,0.73178
6085.09692,0.72413
6083.16820,0.71949
6081.23949,0.71617
6079.31077,0.71271
6077.38206,0.70853
6075.45334,0.70463
6073.52463,0.70157
6071.59591,0.69685
6069.66720,0.69102
6067.73848,0.68798
6065.80976,0.68665
6063.88105,0.68356
6061.95233,0.67944
6060.02362,0.67703
6058.09490,0.67492
6056.16619,0.67043
6054.23747,0.66639
6052.30876,0.66439
6050.38004,0.66037
6048.45133,0.65320
6046.52261,0.64622
6044.59390,0.64009
6042.66518,0.63224
6040.73647,0.62196
6038.80775,0.60981
6036.87903,0.59704
6034.95032,0.58732
6033.02160,0.58065
6031.09289,0.57165
6029.16417,0.55944
6027.23546,0.54790
6025.30674,0.53715
6023.37803,0.52511
6021.44931,0.51050
6019.52060,0.49440
6017.59188,0.48174
6015.66317,0.47166
6013.73445,0.45800
6011.80573,0.44281
6009.87702,0.43257
6007.94830,0.42695
6006.01959,0.42003
6004.09087,0.41027
6002.16216,0.40220
6000.23344,0.39689
5998.30473,0.39232
5996.37601,0.39004
5994.44730,0.39178
5992.51858,0.39569
5990.58987,0.40118
5988.66115,0.41044
5986.73244,0.42297
5984.80372,0.43603
5982.87500,0.44896
5980.94629,0.46251
5979.01757,0.47736
5977.08886,0.49408
5975.16014,0.51196
5973.23143,0.52816
5971.30271,0.54035
5969.37400,0.55101
5967.44528,0.56392
5965.51657,0.57673
5963.58785,0.58508
5961.65914,0.58892
5959.73042,0.59157
5957.80171,0.59433
5955.87299,0.59325
5953.94427,0.58842
5952.01556,0.58552
5950.08684,0.58466
5948.15813,0.58306
5946.22941,0.58070
5944.30070,0.57754
5942.37198,0.57378
5940.44327,0.57013
5938.51455,0.56502
5936.58584,0.55736
5934.65712,0.55219
5932.72841,0.55404
5930.79969,0.55761
5928.87097,0.55736
5926.94226,0.55624
5925.01354,0.55664
5923.08483,0.55775
5921.15611,0.56018
5919.22740,0.56411
5917.29868,0.56885
5915.36997,0.57472
5913.44125,0.58178
5911.51254,0.58857
5909.58382,0.59428
5907.65511,0.59968
5905.72639,0.60320
5903.79768,0.60257
5901.86896,0.60120
5899.94024,0.60244
5898.01153,0.60357
5896.08281,0.60214
5894.15410,0.59978
5892.22538,0.59901
5890.29667,0.60096
5888.36795,0.60500
5886.43924,0.61041
5884.51052,0.61782
5882.58181,0.62716
5880.65309,0.63659
5878.72438,0.64499
5876.79566,0.65303
5874.86695,0.66074
5872.93823,0.66858
5871.00951,0.67921
5869.08080,0.69119
5867.15208,0.69927
5865.22337,0.70400
5863.29465,0.70940
5861.36594,0.71505
5859.43722,0.71940
5857.50851,0.72378
5855.57979,0.72822
5853.65108,0.73152
5851.72236,0.73575
5849.79365,0.74230
5847.86493,0.74893
5845.93622,0.75343
5844.00750,0.75511
5842.07878,0.75527
5840.15007,0.75593
5838.22135,0.75711
5836.29264,0.75645
5834.36392,0.75244
5832.43521,0.74796
5830.50649,0.74734
5828.57778,0.75022
5826.64906,0.75178
5824.72035,0.75014
5822.79163,0.74793
5820.86292,0.74716
5818.93420,0.74729
5817.00548,0.74768
5815.07677,0.74933
5813.14805,0.75182
5811.21934,0.75289
5809.29062,0.75356
5807.36191,0.75648
5805.43319,0.76114
5803.50448,0.76496
5801.57576,0.76618
5799.64705,0.76505
5797.71833,0.76248
5795.78962,0.75822
5793.86090,0.75349
5791.93219,0.75049
5790.00347,0.74727
5788.07475,0.74262
5786.14604,0.73959
5784.21732,0.73870
5782.28861,0.73857
5780.35989,0.73846
5778.43118,0.73610
5776.50246,0.73137
5774.57375,0.72668
5772.64503,0.72253
5770.71632,0.71953
5768.78760,0.71877
5766.85889,0.71930
5764.93017,0.72058
5763.00146,0.72241
5761.07274,0.72336
5759.14402,0.72367
5757.21531,0.72522
5755.28659,0.72812
5753.35788,0.73131
5751.42916,0.73500
5749.50045,0.74021
5747.57173,0.74647
5745.64302,0.75219
5743.71430,0.75641
5741.78559,0.75983
5739.85687,0.76451
5737.92816,0.77036
5735.99944,0.77528
5734.07072,0.77907
5732.14201,0.78276
5730.21329,0.78589
5728.28458,0.78848
5726.35586,0.79219
5724.42715,0.79683
5722.49843,0.80106
5720.56972,0.80488
5718.64100,0.80795
5716.71229,0.80994
5714.78357,0.81214
5712.85486,0.81549
5710.92614,0.81864
5708.99743,0.82051
5707.06871,0.82217
5705.13999,0.82381
5703.21128,0.82477
5701.28256,0.82468
5699.35385,0.82284
5697.42513,0.82096
5695.49642,0.82093
5693.56770,0.82099
5691.63899,0.81992
5689.71027,0.81826
5687.78156,0.81584
5685.85284,0.81348
5683.92413,0.81184
5681.99541,0.81007
5680.06670,0.80860
5678.13798,0.80852
5676.20926,0.80866
5674.28055,0.80676
5672.35183,0.80233
5670.42312,0.79682
5668.49440,0.79228
5666.56569,0.79051
5664.63697,0.79189
5662.70826,0.79448
5660.77954,0.79677
5658.85083,0.79918
5656.92211,0.80083
5654.99340,0.80013
5653.06468,0.79888
5651.13597,0.79964
5649.20725,0.80143
5647.27853,0.80290
5645.34982,0.80445
5643.42110,0.80594
5641.49239,0.80767
5639.56367,0.81150
5637.63496,0.81709
5635.70624,0.82114
5633.77753,0.82325
5631.84881,0.82632
5629.92010,0.83082
5627.99138,0.83405
5626.06267,0.83395
5624.13395,0.83284
5622.20523,0.83433
5620.27652,0.83726
5618.34780,0.83854
5616.41909,0.83813
5614.49037,0.83823
5612.56166,0.83992
5610.63294,0.84210
5608.70423,0.84378
5606.77551,0.84448
5604.84680,0.84422
5602.91808,0.84470
5600.98937,0.84639
5599.06065,0.84749
5597.13194,0.84650
5595.20322,0.84316
5593.27450,0.84043
5591.34579,0.84072
5589.41707,0.84164
5587.48836,0.84199
5585.55964,0.84317
5583.63093,0.84429
5581.70221,0.84363
5579.77350,0.84212
5577.84478,0.84198
5575.91607,0.84293
5573.98735,0.84329
5572.05864,0.84330
5570.12992,0.84309
5568.20121,0.84177
5566.27249,0.84089
5564.34377,0.84162
5562.41506,0.84184
5560.48634,0.84045
5558.55763,0.83873
5556.62891,0.83809
5554.70020,0.83811
5552.77148,0.83749
5550.84277,0.83664
5548.91405,0.83638
5546.98534,0.83755
5545.05662,0.83890
5543.12791,0.83791
5541.19919,0.83669
5539.27047,0.83720
5537.34176,0.83770
5535.41304,0.83858
5533.48433,0.83997
5531.55561,0.84020
5529.62690,0.84080
5527.69818,0.84257
5525.76947,0.84238
5523.84075,0.83944
5521.91204,0.83694
5519.98332,0.83641
5518.05461,0.83648
5516.12589,0.83698
5514.19718,0.83834
5512.26846,0.83920
5510.33974,0.83869
5508.41103,0.83754
5506.48231,0.83575
5504.55360,0.83348
5502.62488,0.83392
5500.69617,0.83781
5498.76745,0.84042
5496.83874,0.83859
5494.91002,0.83437
5492.98131,0.83226
5491.05259,0.83315
5489.12388,0.83370
5487.19516,0.83376
5485.26645,0.83418
5483.33773,0.83345
5481.40901,0.83183
5479.48030,0.82998
5477.55158,0.82620
5475.62287,0.82258
5473.69415,0.82331
5471.76544,0.82495
5469.83672,0.82510
5467.90801,0.82701
5465.97929,0.83086
5464.05058,0.83224
5462.12186,0.83006
5460.19315,0.82790
5458.26443,0.82801
5456.33572,0.83039
5454.40700,0.83313
5452.47828,0.83367
5450.54957,0.83218
5448.62085,0.82989
5446.69214,0.82881
5444.76342,0.82986
5442.83471,0.83093
5440.90599,0.83248
5438.97728,0.83531
5437.04856,0.83566
5435.11985,0.83421
5433.19113,0.83627
5431.26242,0.83865
5429.33370,0.83773
5427.40498,0.83832
5425.47627,0.84129
5423.54755,0.84359
5421.61884,0.84512
5419.69012,0.84518
5417.76141,0.84234
5415.83269,0.83760
5413.90398,0.83456
5411.97526,0.83508
5410.04655,0.83669
5408.11783,0.83749
5406.18912,0.83771
5404.26040,0.83876
5402.33169,0.84172
5400.40297,0.84472
5398.47425,0.84462
5396.54554,0.84075
5394.61682,0.83628
5392.68811,0.83601
5390.75939,0.84003
5388.83068,0.84284
5386.90196,0.84173
5384.97325,0.84100
5383.04453,0.84328
5381.11582,0.84485
5379.18710,0.84265
5377.25839,0.83856
5375.32967,0.83818
5373.40096,0.84166
5371.47224,0.84500
5369.54352,0.84698
5367.61481,0.84714
5365.68609,0.84563
5363.75738,0.84477
5361.82866,0.84617
5359.89995,0.84749
5357.97123,0.84561
5356.04252,0.84054
5354.11380,0.83558
5352.18509,0.83385
5350.25637,0.83349
5348.32766,0.83235
5346.39894,0.83010
5344.47022,0.82852
5342.54151,0.83026
5340.61279,0.83205
5338.68408,0.83256
5336.75536,0.83525
5334.82665,0.83798
5332.89793,0.83842
5330.96922,0.83805
5329.04050,0.83602
5327.11179,0.83341
5325.18307,0.83492
5323.25436,0.83957
5321.32564,0.84337
5319.39693,0.84494
5317.46821,0.84457
5315.53949,0.84313
5313.61078,0.84150
5311.68206,0.84039
5309.75335,0.83949
5307.82463,0.83862
5305.89592,0.83874
5303.96720,0.83896
5302.03849,0.83712
5300.10977,0.83424
5298.18106,0.83322
5296.25234,0.83316
5294.32363,0.83105
5292.39491,0.82670
5290.46620,0.82283
5288.53748,0.82064
5286.60876,0.81750
5284.68005,0.81291
5282.75133,0.80915
5280.82262,0.80652
5278.89390,0.80397
5276.96519,0.80077
5275.03647,0.79688
5273.10776,0.79232
5271.17904,0.78719
5269.25033,0.78295
5267.32161,0.78029
5265.39290,0.77775
5263.46418,0.77629
5261.53547,0.77943
5259.60675,0.78481
5257.67803,0.78713
5255.74932,0.78726
5253.82060,0.79072
5251.89189,0.79614
5249.96317,0.79843
5248.03446,0.79946
5246.10574,0.80279
5244.17703,0.80892
5242.24831,0.81706
5240.31960,0.82367
5238.39088,0.82694
5236.46217,0.82830
5234.53345,0.82871
5232.60473,0.82924
5230.67602,0.83192
5228.74730,0.83492
5226.81859,0.83492
5224.88987,0.83514
5222.96116,0.83912
5221.03244,0.84353
5219.10373,0.84603
5217.17501,0.84780
5215.24630,0.84990
5213.31758,0.85133
5211.38887,0.84969
5209.46015,0.84481
5207.53144,0.84187
5205.60272,0.84484
5203.67400,0.84910
5201.74529,0.85034
5199.81657,0.84932
5197.88786,0.84791
5195.95914,0.84795
5194.03043,0.84938
5192.10171,0.84979
5190.17300,0.84822
5188.24428,0.84612
5186.31557,0.84538
5184.38685,0.84657
5182.45814,0.84781
5180.52942,0.84801
5178.60071,0.84862
5176.67199,0.84999
5174.74327,0.85021
5172.81456,0.84834
5170.88584,0.84670
5168.95713,0.84771
5167.02841,0.84958
5165.09970,0.84948
5163.17098,0.84789
5161.24227,0.84692
5159.31355,0.84744
5157.38484,0.84860
5155.45612,0.84933
5153.52741,0.85000
5151.59869,0.85104
5149.66997,0.85213
5147.74126,0.85339
5145.81254,0.85465
5143.88383,0.85542
5141.95511,0.85626
5140.02640,0.85734
5138.09768,0.85779
5136.16897,0.85728
5134.24025,0.85630
5132.31154,0.85603
5130.38282,0.85688
5128.45411,0.85782
5126.52539,0.85856
5124.59668,0.85957
5122.66796,0.86040
5120.73924,0.86034
5118.81053,0.85943
5116.88181,0.85810
5114.95310,0.85776
5113.02438,0.85979
5111.09567,0.86219
5109.16695,0.86245
5107.23824,0.86192
5105.30952,0.86217
5103.38081,0.86251
5101.45209,0.86220
5099.52338,0.86112
5097.59466,0.86012
5095.66595,0.85976
5093.73723,0.85925
5091.80851,0.85876
5089.87980,0.85837
5087.95108,0.85708
5086.02237,0.85566
5084.09365,0.85548
5082.16494,0.85618
5080.23622,0.85679
5078.30751,0.85712
5076.37879,0.85764
5074.45008,0.85826
5072.52136,0.85851
5070.59265,0.85836
5068.66393,0.85770
5066.73522,0.85694
5064.80650,0.85659
5062.87778,0.85661
5060.94907,0.85738
5059.02035,0.85838
5057.09164,0.85830
5055.16292,0.85782
5053.23421,0.85772
5051.30549,0.85721
5049.37678,0.85678
5047.44806,0.85768
5045.51935,0.85900
5043.59063,0.85899
5041.66192,0.85771
5039.73320,0.85671
5037.80448,0.85712
5035.87577,0.85815
5033.94705,0.85847
5032.01834,0.85812
5030.08962,0.85740
5028.16091,0.85636
5026.23219,0.85541
5024.30348,0.85487
5022.37476,0.85447
5020.44605,0.85391
5018.51733,0.85326
5016.58862,0.85270
5014.65990,0.85295
5012.73119,0.85403
5010.80247,0.85438
5008.87375,0.85330
5006.94504,0.85196
5005.01632,0.85115
5003.08761,0.85047
5001.15889,0.85002
4999.23018,0.84989
4997.30146,0.84916
4995.37275,0.84838
4993.44403,0.84847
4991.51532,0.84859
4989.58660,0.84840
4987.65789,0.84817
4985.72917,0.84744
4983.80046,0.84656
4981.87174,0.84664
4979.94302,0.84736
4978.01431,0.84732
4976.08559,0.84628
4974.15688,0.84516
4972.22816,0.84394
4970.29945,0.84251
4968.37073,0.84202
4966.44202,0.84263
4964.51330,0.84371
4962.58459,0.84433
4960.65587,0.84322
4958.72716,0.84157
4956.79844,0.84086
4954.86972,0.84041
4952.94101,0.84010
4951.01229,0.84046
4949.08358,0.84117
4947.15486,0.84206
4945.22615,0.84341
4943.29743,0.84450
4941.36872,0.84390
4939.44000,0.84210
4937.51129,0.84077
4935.58257,0.84010
4933.65386,0.83954
4931.72514,0.83895
4929.79643,0.83785
4927.86771,0.83593
4925.93899,0.83395
4924.01028,0.83283
4922.08156,0.83208
4920.15285,0.83051
4918.22413,0.82808
4916.29542,0.82580
4914.36670,0.82415
4912.43799,0.82245
4910.50927,0.82073
4908.58056,0.81997
4906.65184,0.81930
4904.72313,0.81704
4902.79441,0.81378
4900.86570,0.81111
4898.93698,0.80941
4897.00826,0.80833
4895.07955,0.80758
4893.15083,0.80730
4891.22212,0.80728
4889.29340,0.80637
4887.36469,0.80470
4885.43597,0.80388
4883.50726,0.80380
4881.57854,0.80330
4879.64983,0.80274
4877.72111,0.80278
4875.79240,0.80262
4873.86368,0.80173
4871.93497,0.80083
4870.00625,0.79982
4868.07753,0.79791
4866.14882,0.79535
4864.22010,0.79294
4862.29139,0.79096
4860.36267,0.78894
4858.43396,0.78636
4856.50524,0.78443
4854.57653,0.78376
4852.64781,0.78295
4850.71910,0.78160
4848.79038,0.77988
4846.86167,0.77811
4844.93295,0.77750
4843.00423,0.77773
4841.07552,0.77738
4839.14680,0.77720
4837.21809,0.77832
4835.28937,0.77957
4833.36066,0.78005
4831.43194,0.78087
4829.50323,0.78244
4827.57451,0.78392
4825.64580,0.78468
4823.71708,0.78519
4821.78837,0.78635
4819.85965,0.78781
4817.93094,0.78892
4816.00222,0.78995
4814.07350,0.79042
4812.14479,0.79002
4810.21607,0.78982
4808.28736,0.79009
4806.35864,0.79034
4804.42993,0.79091
4802.50121,0.79234
4800.57250,0.79375
4798.64378,0.79397
4796.71507,0.79303
4794.78635,0.79117
4792.85764,0.78879
4790.92892,0.78669
4789.00021,0.78496
4787.07149,0.78316
4785.14277,0.78137
4783.21406,0.77999
4781.28534,0.77831
4779.35663,0.77614
4777.42791,0.77405
4775.49920,0.77168
4773.57048,0.76952
4771.64177,0.76796
4769.71305,0.76540
4767.78434,0.76164
4765.85562,0.75863
4763.92691,0.75666
4761.99819,0.75386
4760.06948,0.74982
4758.14076,0.74598
4756.21204,0.74255
4754.28333,0.73903
4752.35461,0.73576
4750.42590,0.73268
4748.49718,0.72856
4746.56847,0.72262
4744.63975,0.71570
4742.71104,0.70916
4740.78232,0.70302
4738.85361,0.69614
4736.92489,0.68788
4734.99618,0.67870
4733.06746,0.66936
4731.13874,0.65993
4729.21003,0.64975
4727.28131,0.63884
4725.35260,0.62779
4723.42388,0.61650
4721.49517,0.60420
4719.56645,0.59032
4717.63774,0.57540
4715.70902,0.56017
4713.78031,0.54383
4711.85159,0.52537
4709.92288,0.50524
4707.99416,0.48455
4706.06545,0.46387
4704.13673,0.44340
4702.20801,0.42381
4700.27930,0.40581
4698.35058,0.38945
4696.42187,0.37478
4694.49315,0.36192
4692.56444,0.35027
4690.63572,0.33908
4688.70701,0.32866
4686.77829,0.32000
4684.84958,0.31388
4682.92086,0.31081
4680.99215,0.31068
4679.06343,0.31311
4677.13472,0.31808
4675.20600,0.32551
4673.27728,0.33509
4671.34857,0.34644
4669.41985,0.35901
4667.49114,0.37179
4665.56242,0.38337
4663.63371,0.39302
4661.70499,0.40114
4659.77628,0.40776
4657.84756,0.41172
4655.91885,0.41230
4653.99013,0.41020
4652.06142,0.40536
4650.13270,0.39649
4648.20398,0.38425
4646.27527,0.37088
4644.34655,0.35711
4642.41784,0.34265
4640.48912,0.32843
4638.56041,0.31614
4636.63169,0.30694
4634.70298,0.30179
4632.77426,0.30134
4630.84555,0.30559
4628.91683,0.31553
4626.98812,0.33212
4625.05940,0.35453
4623.13069,0.38136
4621.20197,0.41111
4619.27325,0.44159
4617.34454,0.47048
4615.41582,0.49647
4613.48711,0.51924
4611.55839,0.53870
4609.62968,0.55489
4607.70096,0.56793
4605.77225,0.57786
4603.84353,0.58465
4601.91482,0.58832
4599.98610,0.58949
4598.05739,0.58867
4596.12867,0.58564
4594.19996,0.58055
4592.27124,0.57437
4590.34252,0.56750
4588.41381,0.55960
4586.48509,0.55080
4584.55638,0.54187
4582.62766,0.53347
4580.69895,0.52588
4578.77023,0.51973
4576.84152,0.51597
4574.91280,0.51524
4572.98409,0.51778
4571.05537,0.52332
4569.12666,0.53132
4567.19794,0.54165
4565.26923,0.55449
4563.34051,0.56947
4561.41179,0.58546
4559.48308,0.60119
4557.55436,0.61585
4555.62565,0.62898
4553.69693,0.64023
4551.76822,0.64944
4549.83950,0.65609
4547.91079,0.65989
4545.98207,0.66189
4544.05336,0.66296
4542.12464,0.66304
4540.19593,0.66246
4538.26721,0.66160
4536.33849,0.66020
4534.40978,0.65882
4532.48106,0.65868
4530.55235,0.65937
4528.62363,0.65978
4526.69492,0.66037
4524.76620,0.66148
4522.83749,0.66241
4520.90877,0.66280
4518.98006,0.66305
4517.05134,0.66359
4515.12263,0.66406
4513.19391,0.66365
4511.26520,0.66188
4509.33648,0.65914
4507.40776,0.65631
4505.47905,0.65333
4503.55033,0.64924
4501.62162,0.64376
4499.69290,0.63780
4497.76419,0.63164
4495.83547,0.62466
4493.90676,0.61698
4491.97804,0.60906
4490.04933,0.60131
4488.12061,0.59413
4486.19190,0.58747
4484.26318,0.58140
4482.33447,0.57647
4480.40575,0.57313
4478.47703,0.57103
4476.54832,0.56967
4474.61960,0.56899
4472.69089,0.56909
4470.76217,0.56939
4468.83346,0.56917
4466.90474,0.56846
4464.97603,0.56726
4463.04731,0.56570
4461.11860,0.56384
4459.18988,0.56046
4457.26117,0.55481
4455.33245,0.54768
4453.40373,0.53980
4451.47502,0.53118
4449.54630,0.52133
4447.61759,0.50995
4445.68887,0.49772
4443.76016,0.48526
4441.83144,0.47236
4439.90273,0.45872
4437.97401,0.44433
4436.04530,0.42959
4434.11658,0.41476
4432.18787,0.39969
4430.25915,0.38475
4428.33044,0.37031
4426.40172,0.35641
4424.47300,0.34306
4422.54429,0.32965
4420.61557,0.31569
4418.68686,0.30187
4416.75814,0.28901
4414.82943,0.27718
4412.90071,0.26652
4410.97200,0.25743
4409.04328,0.25023
4407.11457,0.24555
4405.18585,0.24407
4403.25714,0.24619
4401.32842,0.25210
4399.39971,0.26114
4397.47099,0.27198
4395.54227,0.28351
4393.61356,0.29452
4391.68484,0.30350
4389.75613,0.30934
4387.82741,0.31153
4385.89870,0.31010
4383.96998,0.30585
4382.04127,0.29990
4380.11255,0.29240
4378.18384,0.28324
4376.25512,0.27349
4374.32641,0.26443
4372.39769,0.25634
4370.46898,0.24933
4368.54026,0.24328
4366.61154,0.23757
4364.68283,0.23217
4362.75411,0.22769
4360.82540,0.22424
4358.89668,0.22124
4356.96797,0.21810
4355.03925,0.21487
4353.11054,0.21171
4351.18182,0.20842
4349.25311,0.20505
4347.32439,0.20225
4345.39568,0.20026
4343.46696,0.19851
4341.53824,0.19642
4339.60953,0.19340
4337.68081,0.18894
4335.75210,0.18342
4333.82338,0.17766
4331.89467,0.17192
4329.96595,0.16658
4328.03724,0.16262
4326.10852,0.16036
4324.17981,0.15983
4322.25109,0.16166
4320.32238,0.16622
4318.39366,0.17304
4316.46495,0.18110
4314.53623,0.18923
4312.60751,0.19667
4310.67880,0.20235
4308.75008,0.20556
4306.82137,0.20695
4304.89265,0.20738
4302.96394,0.20711
4301.03522,0.20664
4299.10651,0.20655
4297.17779,0.20742
4295.24908,0.21024
4293.32036,0.21494
4291.39165,0.22009
4289.46293,0.22490
4287.53422,0.22973
4285.60550,0.23472
4283.67678,0.23956
4281.74807,0.24380
4279.81935,0.24722
4277.89064,0.25020
4275.96192,0.25343
4274.03321,0.25690
4272.10449,0.25992
4270.17578,0.26250
4268.24706,0.26549
4266.31835,0.26907
4264.38963,0.27295
4262.46092,0.27717
4260.53220,0.28195
4258.60348,0.28728
4256.67477,0.29249
4254.74605,0.29716
4252.81734,0.30198
4250.88862,0.30693
4248.95991,0.31029
4247.03119,0.31108
4245.10248,0.30979
4243.17376,0.30737
4241.24505,0.30465
4239.31633,0.30167
4237.38762,0.29859
4235.45890,0.29577
4233.53019,0.29300
4231.60147,0.29034
4229.67275,0.28796
4227.74404,0.28553
4225.81532,0.28279
4223.88661,0.27979
4221.95789,0.27674
4220.02918,0.27390
4218.10046,0.27136
4216.17175,0.26891
4214.24303,0.26647
4212.31432,0.26401
4210.38560,0.26136
4208.45689,0.25874
4206.52817,0.25643
4204.59946,0.25441
4202.67074,0.25288
4200.74202,0.25190
4198.81331,0.25122
4196.88459,0.25053
4194.95588,0.24954
4193.02716,0.24824
4191.09845,0.24688
4189.16973,0.24548
4187.24102,0.24371
4185.31230,0.24155
4183.38359,0.23943
4181.45487,0.23739
4179.52616,0.23494
4177.59744,0.23193
4175.66873,0.22894
4173.74001,0.22678
4171.81129,0.22594
4169.88258,0.22687
4167.95386,0.22950
4166.02515,0.23361
4164.09643,0.23933
4162.16772,0.24666
4160.23900,0.25537
4158.31029,0.26505
4156.38157,0.27517
4154.45286,0.28558
4152.52414,0.29581
4150.59543,0.30494
4148.66671,0.31272
4146.73799,0.31918
4144.80928,0.32384
4142.88056,0.32659
4140.95185,0.32772
4139.02313,0.32786
4137.09442,0.32816
4135.16570,0.32892
4133.23699,0.32962
4131.30827,0.33013
4129.37956,0.33011
4127.45084,0.32892
4125.52213,0.32636
4123.59341,0.32239
4121.66470,0.31694
4119.73598,0.30986
4117.80726,0.30128
4115.87855,0.29158
4113.94983,0.28074
4112.02112,0.26851
4110.09240,0.25480
4108.16369,0.23962
4106.23497,0.22298
4104.30626,0.20508
4102.37754,0.18621
4100.44883,0.16687
4098.52011,0.14820
4096.59140,0.13117
4094.66268,0.11585
4092.73397,0.10194
4090.80525,0.08935
4088.87653,0.07810
4086.94782,0.06829
4085.01910,0.05986
4083.09039,0.05246
4081.16167,0.04622
4079.23296,0.04149
4077.30424,0.03818
4075.37553,0.03632
4073.44681,0.03607
4071.51810,0.03759
4069.58938,0.04137
4067.66067,0.04792
4065.73195,0.05720
4063.80323,0.06913
4061.87452,0.08334
4059.94580,0.09876
4058.01709,0.11454
4056.08837,0.13082
4054.15966,0.14791
4052.23094,0.16547
4050.30223,0.18357
4048.37351,0.20260
4046.44480,0.22266
4044.51608,0.24376
4042.58737,0.26501
4040.65865,0.28472
4038.72994,0.30161
4036.80122,0.31512
4034.87250,0.32529
4032.94379,0.33202
4031.01507,0.33530
4029.08636,0.33591
4027.15764,0.33471
4025.22893,0.33226
4023.30021,0.32941
4021.37150,0.32698
4019.44278,0.32510
4017.51407,0.32383
4015.58535,0.32353
4013.65664,0.32428
4011.72792,0.32569
4009.79921,0.32729
4007.87049,0.32871
4005.94177,0.32957
4004.01306,0.32975
4002.08434,0.32926
4000.15563,0.32785
3998.22691,0.32533
3996.29820,0.32228
3994.36948,0.31955
3992.44077,0.31739
3990.51205,0.31606
3988.58334,0.31583
3986.65462,0.31613
3984.72591,0.31645
3982.79719,0.31730
3980.86848,0.31928
3978.93976,0.32236
3977.01104,0.32659
3975.08233,0.33236
3973.15361,0.33981
3971.22490,0.34815
3969.29618,0.35649
3967.36747,0.36414
3965.43875,0.37038
3963.51004,0.37467
3961.58132,0.37681
3959.65261,0.37670
3957.72389,0.37436
3955.79518,0.37030
3953.86646,0.36521
3951.93774,0.35963
3950.00903,0.35497
3948.08031,0.35275
3946.15160,0.35208
3944.22288,0.35116
3942.29417,0.35075
3940.36545,0.35164
3938.43674,0.35235
3936.50802,0.35215
3934.57931,0.35116
3932.65059,0.34993
3930.72188,0.34970
3928.79316,0.35035
3926.86445,0.34998
3924.93573,0.34788
3923.00701,0.34522
3921.07830,0.34170
3919.14958,0.33668
3917.22087,0.33164
3915.29215,0.32804
3913.36344,0.32518
3911.43472,0.32202
3909.50601,0.31844
3907.57729,0.31407
3905.64858,0.30837
3903.71986,0.30276
3901.79115,0.29939
3899.86243,0.29756
3897.93372,0.29650
3896.00500,0.29504
3894.07628,0.29144
3892.14757,0.28624
3890.21885,0.28206
3888.29014,0.27889
3886.36142,0.27518
3884.43271,0.27227
3882.50399,0.27162
3880.57528,0.27401
3878.64656,0.28033
3876.71785,0.28754
3874.78913,0.29600
3872.86042,0.30683
3870.93170,0.32077
3869.00298,0.33875
3867.07427,0.35383
3865.14555,0.36620
3863.21684,0.38091
3861.28812,0.39508
3859.35941,0.40437
3857.43069,0.40861
3855.50198,0.40970
3853.57326,0.41371
3851.64455,0.42663
3849.71583,0.43925
3847.78712,0.44777
3845.85840,0.45230
3843.92969,0.45392
3842.00097,0.45420
3840.07225,0.45385
3838.14354,0.45577
3836.21482,0.46135
3834.28611,0.46664
3832.35739,0.47008
3830.42868,0.47183
3828.49996,0.47140
3826.57125,0.46931
3824.64253,0.46669
3822.71382,0.46239
3820.78510,0.45796
3818.85639,0.45736
3816.92767,0.45816
3814.99896,0.46099
3813.07024,0.46488
3811.14152,0.46638
3809.21281,0.46510
3807.28409,0.46395
3805.35538,0.46524
3803.42666,0.46616
3801.49795,0.46903
3799.56923,0.47710
3797.64052,0.48601
3795.71180,0.49555
3793.78309,0.50510
3791.85437,0.51251
3789.92566,0.51779
3787.99694,0.52149
3786.06823,0.52432
3784.13951,0.52762
3782.21079,0.53015
3780.28208,0.53050
3778.35336,0.53102
3776.42465,0.53215
3774.49593,0.53072
3772.56722,0.52501
3770.63850,0.51578
3768.70979,0.50673
3766.78107,0.49937
3764.85236,0.49161
3762.92364,0.48294
3760.99493,0.47156
3759.06621,0.45773
3757.13749,0.44711
3755.20878,0.43914
3753.28006,0.42904
3751.35135,0.41666
3749.42263,0.41063
3747.49392,0.41091
3745.56520,0.41140
3743.63649,0.41293
3741.70777,0.41573
3739.77906,0.41778
3737.85034,0.41803
3735.92163,0.41889
3733.99291,0.42585
3732.06420,0.43680
3730.13548,0.44498
3728.20676,0.44775
3726.27805,0.44680
3724.34933,0.44492
3722.42062,0.44323
3720.49190,0.44123
3718.56319,0.43777
3716.63447,0.43183
3714.70576,0.42153
3712.77704,0.40449
3710.84833,0.38377
3708.91961,0.36844
3706.99090,0.35598
3705.06218,0.34172
3703.13347,0.32370
3701.20475,0.30273
3699.27603,0.28402
3697.34732,0.26677
3695.41860,0.24816
3693.48989,0.22839
3691.56117,0.20566
3689.63246,0.17731
3687.70374,0.15111
3685.77503,0.13324
3683.84631,0.11874
3681.91760,0.10466
3679.98888,0.09171
3678.06017,0.08176
3676.13145,0.07481
3674.20273,0.07213
3672.27402,0.07312
3670.34530,0.07754
3668.41659,0.08585
3666.48787,0.09510
3664.55916,0.10541
3662.63044,0.11741
3660.70173,0.13047
3658.77301,0.14379
3656.84430,0.15985
3654.91558,0.17757
3652.98687,0.19114
3651.05815,0.20367
3649.12944,0.22404
3647.20072,0.24983
3645.27200,0.26965
3643.34329,0.28518
3641.41457,0.29960
3639.48586,0.31292
3637.55714,0.32433
3635.62843,0.33390
3633.69971,0.34202
3631.77100,0.34770
3629.84228,0.35354
3627.91357,0.36639
3625.98485,0.38062
3624.05614,0.39044
3622.12742,0.39666
3620.19871,0.40200
3618.26999,0.40977
3616.34127,0.41741
3614.41256,0.42198
3612.48384,0.42416
3610.55513,0.42303
3608.62641,0.41673
3606.69770,0.40759
3604.76898,0.39669
3602.84027,0.38071
3600.91155,0.35867
3598.98284,0.33472
3597.05412,0.31087
3595.12541,0.28548
3593.19669,0.26129
3591.26798,0.24144
3589.33926,0.22228
3587.41054,0.20114
3585.48183,0.18480
3583.55311,0.17480
3581.62440,0.16666
3579.69568,0.15929
3577.76697,0.15335
3575.83825,0.14887
3573.90954,0.14515
3571.98082,0.14173
3570.05211,0.13800
3568.12339,0.13345
3566.19468,0.12952
3564.26596,0.12770
3562.33724,0.12594
3560.40853,0.12244
3558.47981,0.11761
3556.55110,0.11228
3554.62238,0.10649
3552.69367,0.10002
3550.76495,0.09334
3548.83624,0.08679
3546.90752,0.08001
3544.97881,0.07367
3543.05009,0.06847
3541.12138,0.06393
3539.19266,0.05961
3537.26395,0.05582
3535.33523,0.05302
3533.40651,0.05138
3531.47780,0.05102
3529.54908,0.05206
3527.62037,0.05461
3525.69165,0.05858
3523.76294,0.06439
3521.83422,0.07246
3519.90551,0.08252
3517.97679,0.09459
3516.04808,0.10840
3514.11936,0.12352
3512.19065,0.13992
3510.26193,0.15768
3508.33322,0.17580
3506.40450,0.19243
3504.47578,0.20803
3502.54707,0.22375
3500.61835,0.23853
3498.68964,0.25127
3496.76092,0.26256
3494.83221,0.27291
3492.90349,0.28208
3490.97478,0.28992
3489.04606,0.29664
3487.11735,0.30284
3485.18863,0.30871
3483.25992,0.31427
3481.33120,0.32011
3479.40248,0.32606
3477.47377,0.33123
3475.54505,0.33597
3473.61634,0.34137
3471.68762,0.34746
3469.75891,0.35371
3467.83019,0.35991
3465.90148,0.36598
3463.97276,0.37218
3462.04405,0.37910
3460.11533,0.38682
3458.18662,0.39418
3456.25790,0.40077
3454.32919,0.40734
3452.40047,0.41389
3450.47175,0.41960
3448.54304,0.42450
3446.61432,0.42994
3444.68561,0.43594
3442.75689,0.44145
3440.82818,0.44689
3438.89946,0.45264
3436.97075,0.45795
3435.04203,0.46225
3433.11332,0.46623
3431.18460,0.47069
3429.25589,0.47518
3427.32717,0.47914
3425.39846,0.48249
3423.46974,0.48519
3421.54102,0.48746
3419.61231,0.48988
3417.68359,0.49210
3415.75488,0.49342
3413.82616,0.49375
3411.89745,0.49339
3409.96873,0.49258
3408.04002,0.49119
3406.11130,0.48920
3404.18259,0.48695
3402.25387,0.48446
3400.32516,0.48121
3398.39644,0.47695
3396.46773,0.47240
3394.53901,0.46801
3392.61029,0.46333
3390.68158,0.45806
3388.75286,0.45235
3386.82415,0.44634
3384.89543,0.44045
3382.96672,0.43537
3381.03800,0.43134
3379.10929,0.42817
3377.18057,0.42544
3375.25186,0.42271
3373.32314,0.42052
3371.39443,0.41944
3369.46571,0.41877
3367.53699,0.41796
3365.60828,0.41752
3363.67956,0.41788
3361.75085,0.41893
3359.82213,0.42040
3357.89342,0.42178
3355.96470,0.42297
3354.03599,0.42425
3352.10727,0.42548
3350.17856,0.42634
3348.24984,0.42668
3346.32113,0.42651
3344.39241,0.42621
3342.46370,0.42584
3340.53498,0.42487
3338.60626,0.42304
3336.67755,0.42065
3334.74883,0.41790
3332.82012,0.41467
3330.89140,0.41068
3328.96269,0.40562
3327.03397,0.39967
3325.10526,0.39341
3323.17654,0.38710
3321.24783,0.38056
3319.31911,0.37342
3317.39040,0.36556
3315.46168,0.35748
3313.53297,0.34966
3311.60425,0.34216
3309.67553,0.33472
3307.74682,0.32726
3305.81810,0.32023
3303.88939,0.31383
3301.96067,0.30763
3300.03196,0.30156
3298.10324,0.29605
3296.17453,0.29122
3294.24581,0.28690
3292.31710,0.28312
3290.38838,0.27979
3288.45967,0.27670
3286.53095,0.27364
3284.60223,0.27064
3282.67352,0.26793
3280.74480,0.26547
3278.81609,0.26306
3276.88737,0.26064
3274.95866,0.25819
3273.02994,0.25574
3271.10123,0.25300
3269.17251,0.24964
3267.24380,0.24591
3265.31508,0.24221
3263.38637,0.23867
3261.45765,0.23536
3259.52894,0.23209
3257.60022,0.22867
3255.67150,0.22536
3253.74279,0.22225
3251.81407,0.21940
3249.88536,0.21691
3247.95664,0.21465
3246.02793,0.21257
3244.09921,0.21063
3242.17050,0.20845
3240.24178,0.20606
3238.31307,0.20399
3236.38435,0.20233
3234.45564,0.20052
3232.52692,0.19827
3230.59821,0.19576
3228.66949,0.19308
3226.74077,0.19005
3224.81206,0.18683
3222.88334,0.18332
3220.95463,0.17914
3219.02591,0.17422
3217.09720,0.16858
3215.16848,0.16221
3213.23977,0.15536
3211.31105,0.14815
3209.38234,0.14055
3207.45362,0.13274
3205.52491,0.12495
3203.59619,0.11748
3201.66748,0.11073
3199.73876,0.10478
3197.81004,0.09971
3195.88133,0.09587
3193.95261,0.09359
3192.02390,0.09264
3190.09518,0.09230
3188.16647,0.09205
3186.23775,0.09181
3184.30904,0.09140
3182.38032,0.09061
3180.45161,0.08975
3178.52289,0.08940
3176.59418,0.08991
3174.66546,0.09133
3172.73674,0.09318
3170.80803,0.09456
3168.87931,0.09507
3166.95060,0.09478
3165.02188,0.09373
3163.09317,0.09214
3161.16445,0.09028
3159.23574,0.08808
3157.30702,0.08542
3155.37831,0.08239
3153.44959,0.07904
3151.52088,0.07513
3149.59216,0.07067
3147.66345,0.06605
3145.73473,0.06134
3143.80601,0.05625
3141.87730,0.05066
3139.94858,0.04485
3138.01987,0.03899
3136.09115,0.03300
3134.16244,0.02705
3132.23372,0.02143
3130.30501,0.01639
3128.37629,0.01234
3126.44758,0.00934
3124.51886,0.00708
3122.59015,0.00536
3120.66143,0.00410
3118.73272,0.00338
3116.80400,0.00306
3114.87528,0.00268
3112.94657,0.00226
3111.01785,0.00208
3109.08914,0.00195
3107.16042,0.00173
3105.23171,0.00170
3103.30299,0.00194
3101.37428,0.00222
3099.44556,0.00228
3097.51685,0.00204
3095.58813,0.00156
3093.65942,0.00094
3091.73070,0.00052
3089.80198,0.00059
3087.87327,0.00074
3085.94455,0.00026
3084.01584,-0.00009
3082.08712,0.00046
3080.15841,0.00040
3078.22969,0.00033
3076.30098,0.00042
3074.37226,0.00055
3072.44355,0.00069
3070.51483,0.00078
3068.58612,0.00068
3066.65740,0.00048
3064.72869,0.00034
3062.79997,0.00027
3060.87125,0.00020
3058.94254,0.00049
3057.01382,0.00076
3055.08511,0.00084
3053.15639,0.00058
3051.22768,0.00042
3049.29896,0.00061
3047.37025,0.00088
3045.44153,0.00075
3043.51282,0.00030
3041.58410,0.00011
3039.65539,0.00041
3037.72667,0.00036
3035.79796,0.00032
3033.86924,0.00014
3031.94052,-0.00004
3030.01181,0.00026
3028.08309,0.00067
3026.15438,0.00075
3024.22566,0.00068
3022.29695,0.00062
3020.36823,0.00053
3018.43952,0.00042
3016.51080,0.00050
3014.58209,0.00059
3012.65337,0.00061
3010.72466,0.00068
3008.79594,0.00069
3006.86723,0.00036
3004.93851,0.00034
3003.00979,0.00064
3001.08108,0.00070
2999.15236,0.00044
2997.22365,0.00028
2995.29493,0.00012
2993.36622,0.00025
2991.43750,0.00055
2989.50879,0.00045
2987.58007,0.00030
2985.65136,0.00049
2983.72264,0.00060
2981.79393,0.00060
2979.86521,0.00041
2977.93649,0.00034
2976.00778,0.00044
2974.07906,0.00048
2972.15035,0.00028
2970.22163,0.00017
2968.29292,0.00026
2966.36420,0.00023
2964.43549,0.00041
2962.50677,0.00063
2960.57806,0.00056
2958.64934,0.00038
2956.72063,0.00028
2954.79191,0.00023
2952.86320,0.00014
2950.93448,0.00020
2949.00576,0.00027
2947.07705,0.00031
2945.14833,0.00040
2943.21962,0.00043
2941.29090,0.00032
2939.36219,0.00012
2937.43347,0.00046
2935.50476,0.00097
2933.57604,0.00094
2931.64733,0.00046
2929.71861,0.00051
2927.78990,0.00061
2925.86118,0.00036
2923.93247,0.00042
2922.00375,0.00059
2920.07503,0.00053
2918.14632,0.00021
2916.21760,0.00031
2914.28889,0.00048
2912.36017,0.00050
2910.43146,0.00059
2908.50274,0.00076
2906.57403,0.00067
2904.64531,0.00046
2902.71660,0.00039
2900.78788,0.00052
2898.85917,0.00057
2896.93045,0.00038
2895.00173,0.00025
2893.07302,0.00020
2891.14430,0.00018
2889.21559,0.00029
2887.28687,0.00044
2885.35816,0.00049
2883.42944,0.00014
2881.50073,-0.00012
2879.57201,0.00009
2877.64330,0.00029
2875.71458,0.00031
2873.78587,0.00023
2871.85715,0.00030
2869.92844,0.00042
2867.99972,0.00055
2866.07100,0.00067
2864.14229,0.00060
2862.21357,0.00048
2860.28486,0.00047
2858.35614,0.00095
2856.42743,0.00238
2854.49871,0.00467
2852.57000,0.00761
2850.64128,0.01159
2848.71257,0.01739
2846.78385,0.02526
2844.85514,0.03505
2842.92642,0.04655
2840.99771,0.05904
2839.06899,0.07095
2837.14027,0.08077
2835.21156,0.08812
2833.28284,0.09334
2831.35413,0.09691
2829.42541,0.09950
2827.49670,0.10170
2825.56798,0.10377
2823.63927,0.10561
2821.71055,0.10659
2819.78184,0.10565
2817.85312,0.10205
2815.92441,0.09628
2813.99569,0.09019
2812.06698,0.08575
2810.13826,0.08390
2808.20954,0.08482
2806.28083,0.08854
2804.35211,0.09493
2802.42340,0.10333
2800.49468,0.11219
2798.56597,0.11903
2796.63725,0.12176
2794.70854,0.11982
2792.77982,0.11394
2790.85111,0.10543
2788.92239,0.09559
2786.99368,0.08547
2785.06496,0.07622
2783.13624,0.06897
2781.20753,0.06447
2779.27881,0.06311
2777.35010,0.06505
2775.42138,0.07037
2773.49267,0.07907
2771.56395,0.09066
2769.63524,0.10352
2767.70652,0.11605
2765.77781,0.12788
2763.84909,0.13971
2761.92038,0.15290
2759.99166,0.16848
2758.06295,0.18563
2756.13423,0.20245
2754.20551,0.21745
2752.27680,0.22982
2750.34808,0.23905
2748.41937,0.24492
2746.49065,0.24754
2744.56194,0.24701
2742.63322,0.24330
2740.70451,0.23639
2738.77579,0.22669
2736.84708,0.21539
2734.91836,0.20468
2732.98965,0.19700
2731.06093,0.19394
2729.13222,0.19541
2727.20350,0.19909
2725.27478,0.20121
2723.34607,0.19869
2721.41735,0.19124
2719.48864,0.18178
2717.55992,0.17457
2715.63121,0.17305
2713.70249,0.17864
2711.77378,0.19039
2709.84506,0.20590
2707.91635,0.22258
2705.98763,0.23860
2704.05892,0.25326
2702.13020,0.26646
2700.20149,0.27825
2698.27277,0.28883
2696.34405,0.29837
2694.41534,0.30678
2692.48662,0.31392
2690.55791,0.31983
2688.62919,0.32450
2686.70048,0.32794
2684.77176,0.33034
2682.84305,0.33154
2680.91433,0.33090
2678.98562,0.32831
2677.05690,0.32435
2675.12819,0.31988
2673.19947,0.31586
2671.27075,0.31306
2669.34204,0.31210
2667.41332,0.31305
2665.48461,0.31546
2663.55589,0.31910
2661.62718,0.32405
2659.69846,0.33039
2657.76975,0.33814
2655.84103,0.34701
2653.91232,0.35654
2651.98360,0.36621
2650.05489,0.37556
2648.12617,0.38407
2646.19746,0.39095
2644.26874,0.39559
2642.34002,0.39784
2640.41131,0.39767
2638.48259,0.39493
2636.55388,0.38947
2634.62516,0.38128
2632.69645,0.37046
2630.76773,0.35717
2628.83902,0.34130
2626.91030,0.32269
2624.98159,0.30186
2623.05287,0.28008
2621.12416,0.25910
2619.19544,0.24068
2617.26673,0.22607
2615.33801,0.21565
2613.40929,0.20888
2611.48058,0.20465
2609.55186,0.20183
2607.62315,0.19976
2605.69443,0.19804
2603.76572,0.19652
2601.83700,0.19534
2599.90829,0.19453
2597.97957,0.19386
2596.05086,0.19314
2594.12214,0.19219
2592.19343,0.19117
2590.26471,0.19073
2588.33599,0.19166
2586.40728,0.19457
2584.47856,0.19942
2582.54985,0.20528
2580.62113,0.21100
2578.69242,0.21627
2576.76370,0.22185
2574.83499,0.22864
2572.90627,0.23722
2570.97756,0.24794
2569.04884,0.26046
2567.12013,0.27339
2565.19141,0.28499
2563.26270,0.29380
2561.33398,0.29907
2559.40526,0.30099
2557.47655,0.30006
2555.54783,0.29684
2553.61912,0.29194
2551.69040,0.28595
2549.76169,0.27935
2547.83297,0.27233
2545.90426,0.26495
2543.97554,0.25708
2542.04683,0.24843
2540.11811,0.23905
2538.18940,0.22931
2536.26068,0.21962
2534.33197,0.21074
2532.40325,0.20413
2530.47453,0.20105
2528.54582,0.20168
2526.61710,0.20541
2524.68839,0.21120
2522.75967,0.21722
2520.83096,0.22160
2518.90224,0.22307
2516.97353,0.22103
2515.04481,0.21581
2513.11610,0.20860
2511.18738,0.20051
2509.25867,0.19245
2507.32995,0.18523
2505.40124,0.17877
2503.47252,0.17209
2501.54380,0.16422
2499.61509,0.15470
2497.68637,0.14365
2495.75766,0.13171
2493.82894,0.11969
2491.90023,0.10841
2489.97151,0.09851
2488.04280,0.09023
2486.11408,0.08336
2484.18537,0.07761
2482.25665,0.07264
2480.32794,0.06811
2478.39922,0.06397
2476.47050,0.06036
2474.54179,0.05743
2472.61307,0.05527
2470.68436,0.05385
2468.75564,0.05303
2466.82693,0.05272
2464.89821,0.05286
2462.96950,0.05328
2461.04078,0.05390
2459.11207,0.05456
2457.18335,0.05504
2455.25464,0.05527
2453.32592,0.05528
2451.39721,0.05530
2449.46849,0.05570
2447.53977,0.05650
2445.61106,0.05753
2443.68234,0.05873
2441.75363,0.05988
2439.82491,0.06044
2437.89620,0.06016
2435.96748,0.05919
2434.03877,0.05749
2432.11005,0.05477
2430.18134,0.05115
2428.25262,0.04716
2426.32391,0.04308
2424.39519,0.03900
2422.46648,0.03529
2420.53776,0.03216
2418.60904,0.02956
2416.68033,0.02757
2414.75161,0.02621
2412.82290,0.02539
2410.89418,0.02501
2408.96547,0.02513
2407.03675,0.02583
2405.10804,0.02693
2403.17932,0.02813
2401.25061,0.02931
2399.32189,0.03038
2397.39318,0.03132
2395.46446,0.03245
2393.53574,0.03424
2391.60703,0.03703
2389.67831,0.04095
2387.74960,0.04599
2385.82088,0.05211
2383.89217,0.05904
2381.96345,0.06637
2380.03474,0.07369
2378.10602,0.08073
2376.17731,0.08733
2374.24859,0.09355
2372.31988,0.09976
2370.39116,0.10616
2368.46245,0.11245
2366.53373,0.11829
2364.60501,0.12356
2362.67630,0.12820
2360.74758,0.13227
2358.81887,0.13605
2356.89015,0.13971
2354.96144,0.14299
2353.03272,0.14534
2351.10401,0.14625
2349.17529,0.14484
2347.24658,0.14031
2345.31786,0.13361
2343.38915,0.12778
2341.46043,0.12413
2339.53172,0.12117
2337.60300,0.11783
2335.67428,0.11479
2333.74557,0.11237
2331.81685,0.10898
2329.88814,0.10393
2327.95942,0.09893
2326.03071,0.09584
2324.10199,0.09526
2322.17328,0.09710
2320.24456,0.10097
2318.31585,0.10581
2316.38713,0.11035
2314.45842,0.11405
2312.52970,0.11679
2310.60099,0.11842
2308.67227,0.11876
2306.74355,0.11772
2304.81484,0.11556
2302.88612,0.11262
2300.95741,0.10918
2299.02869,0.10574
2297.09998,0.10288
2295.17126,0.10098
2293.24255,0.09985
2291.31383,0.09836
2289.38512,0.09498
2287.45640,0.08918
2285.52769,0.08187
2283.59897,0.07449
2281.67025,0.06838
2279.74154,0.06421
2277.81282,0.06149
2275.88411,0.05885
2273.95539,0.05504
2272.02668,0.04974
2270.09796,0.04330
2268.16925,0.03633
2266.24053,0.02946
2264.31182,0.02328
2262.38310,0.01802
2260.45439,0.01360
2258.52567,0.00989
2256.59696,0.00698
2254.66824,0.00493
2252.73952,0.00356
2250.81081,0.00259
2248.88209,0.00187
2246.95338,0.00135
2245.02466,0.00105
2243.09595,0.00091
2241.16723,0.00079
2239.23852,0.00062
2237.30980,0.00050
2235.38109,0.00050
2233.45237,0.00059
2231.52366,0.00074
2229.59494,0.00082
2227.66623,0.00072
2225.73751,0.00075
2223.80879,0.00105
2221.88008,0.00154
2219.95136,0.00212
2218.02265,0.00286
2216.09393,0.00396
2214.16522,0.00534
2212.23650,0.00670
2210.30779,0.00779
2208.37907,0.00823
2206.45036,0.00784
2204.52164,0.00698
2202.59293,0.00618
2200.66421,0.00571
2198.73549,0.00562
2196.80678,0.00605
2194.87806,0.00727
2192.94935,0.00937
2191.02063,0.01251
2189.09192,0.01706
2187.16320,0.02314
2185.23449,0.03046
2183.30577,0.03865
2181.37706,0.04740
2179.44834,0.05587
2177.51963,0.06270
2175.59091,0.06713
2173.66220,0.06965
2171.73348,0.07155
2169.80476,0.07473
2167.87605,0.08088
2165.94733,0.09076
2164.01862,0.10428
2162.08990,0.12059
2160.16119,0.13836
2158.23247,0.15612
2156.30376,0.17243
2154.37504,0.18620
2152.44633,0.19685
2150.51761,0.20421
2148.58890,0.20829
2146.66018,0.20920
2144.73147,0.20708
2142.80275,0.20230
2140.87403,0.19550
2138.94532,0.18736
2137.01660,0.17837
2135.08789,0.16893
2133.15917,0.15919
2131.23046,0.14914
2129.30174,0.13910
2127.37303,0.12952
2125.44431,0.12058
2123.51560,0.11222
2121.58688,0.10456
2119.65817,0.09795
2117.72945,0.09247
2115.80074,0.08771
2113.87202,0.08325
2111.94330,0.07898
2110.01459,0.07482
2108.08587,0.07062
2106.15716,0.06634
2104.22844,0.06198
2102.29973,0.05737
2100.37101,0.05238
2098.44230,0.04701
2096.51358,0.04125
2094.58487,0.03512
2092.65615,0.02890
2090.72744,0.02303
2088.79872,0.01808
2086.87000,0.01444
2084.94129,0.01203
2083.01257,0.01061
2081.08386,0.01019
2079.15514,0.01078
2077.22643,0.01215
2075.29771,0.01411
2073.36900,0.01641
2071.44028,0.01849
2069.51157,0.01987
2067.58285,0.02032
2065.65414,0.01957
2063.72542,0.01754
2061.79671,0.01469
2059.86799,0.01171
2057.93927,0.00907
2056.01056,0.00697
2054.08184,0.00550
2052.15313,0.00485
2050.22441,0.00502
2048.29570,0.00573
2046.36698,0.00684
2044.43827,0.00842
2042.50955,0.01044
2040.58084,0.01283
2038.65212,0.01537
2036.72341,0.01761
2034.79469,0.01925
2032.86598,0.02039
2030.93726,0.02111
2029.00854,0.02142
2027.07983,0.02157
2025.15111,0.02165
2023.22240,0.02151
2021.29368,0.02107
2019.36497,0.02019
2017.43625,0.01871
2015.50754,0.01690
2013.57882,0.01519
2011.65011,0.01374
2009.72139,0.01265
2007.79268,0.01207
2005.86396,0.01197
2003.93524,0.01207
2002.00653,0.01236
2000.07781,0.01297
1998.14910,0.01364
1996.22038,0.01421
1994.29167,0.01499
1992.36295,0.01604
1990.43424,0.01722
1988.50552,0.01874
1986.57681,0.02080
1984.64809,0.02350
1982.71938,0.02717
1980.79066,0.03189
1978.86195,0.03719
1976.93323,0.04244
1975.00451,0.04714
1973.07580,0.05087
1971.14708,0.05328
1969.21837,0.05420
1967.28965,0.05366
1965.36094,0.05212
1963.43222,0.05012
1961.50351,0.04794
1959.57479,0.04568
1957.64608,0.04320
1955.71736,0.04048
1953.78865,0.03772
1951.85993,0.03508
1949.93122,0.03274
1948.00250,0.03081
1946.07378,0.02924
1944.14507,0.02790
1942.21635,0.02673
1940.28764,0.02576
1938.35892,0.02484
1936.43021,0.02367
1934.50149,0.02228
1932.57278,0.02080
1930.64406,0.01916
1928.71535,0.01735
1926.78663,0.01546
1924.85792,0.01355
1922.92920,0.01158
1921.00049,0.00959
1919.07177,0.00751
1917.14305,0.00530
1915.21434,0.00337
1913.28562,0.00199
1911.35691,0.00111
1909.42819,0.00060
1907.49948,0.00010
1905.57076,0.00042
1903.64205,0.00051
1901.71333,0.00053
1899.78462,0.00048
1897.85590,0.00042
1895.92719,0.00031
1893.99847,0.00013
1892.06975,0.00010
1890.14104,0.00024
1888.21232,0.00027
1886.28361,0.00020
1884.35489,0.00022
1882.42618,0.00039
1880.49746,0.00041
1878.56875,0.00030
1876.64003,0.00023
1874.71132,0.00028
1872.78260,0.00047
1870.85389,0.00063
1868.92517,0.00066
1866.99646,0.00081
1865.06774,0.00095
1863.13902,0.00084
1861.21031,0.00061
1859.28159,0.00044
1857.35288,0.00035
1855.42416,0.00036
1853.49545,0.00045
1851.56673,0.00054
1849.63802,0.00043
1847.70930,0.00015
1845.78059,-0.00007
1843.85187,0.00037
1841.92316,0.00046
1839.99444,0.00040
1838.06573,0.00027
1836.13701,0.00018
1834.20829,0.00026
1832.27958,0.00031
1830.35086,0.00012
1828.42215,0.00029
1826.49343,0.00049
1824.56472,0.00040
1822.63600,0.00014
1820.70729,0.00008
1818.77857,0.00013
1816.84986,0.00025
1814.92114,0.00025
1812.99243,0.00013
1811.06371,0.00011
1809.13499,0.00029
1807.20628,0.00042
1805.27756,0.00044
1803.34885,0.00041
1801.42013,0.00029
1799.49142,0.00002
1797.56270,0.00008
1795.63399,0.00032
1793.70527,0.00059
1791.77656,0.00068
1789.84784,0.00059
1787.91913,0.00045
1785.99041,0.00022
1784.06170,0.00001
1782.13298,0.00023
1780.20426,0.00027
1778.27555,0.00022
1776.34683,0.00020
1774.41812,0.00031
1772.48940,0.00052
1770.56069,0.00047
1768.63197,0.00027
1766.70326,0.00019
1764.77454,0.00028
1762.84583,0.00047
1760.91711,0.00048
1758.98840,0.00037
1757.05968,0.00029
1755.13097,0.00029
1753.20225,0.00031
1751.27353,0.00040
1749.34482,0.00051
1747.41610,0.00044
1745.48739,0.00028
1743.55867,0.00036
1741.62996,0.00041
1739.70124,0.00047
1737.77253,0.00053
1735.84381,0.00050
1733.91510,0.00019
1731.98638,-0.00014
1730.05767,-0.00002
1728.12895,0.00025
1726.20024,0.00030
1724.27152,0.00030
1722.34280,0.00027
1720.41409,0.00038
1718.48537,0.00036
1716.55666,0.00020
1714.62794,0.00023
1712.69923,0.00014
1710.77051,0.00026
1708.84180,0.00034
1706.91308,0.00017
1704.98437,0.00030
1703.05565,0.00013
1701.12694,0.00012
1699.19822,0.00068
1697.26950,0.00105
1695.34079,0.00093
1693.41207,0.00092
1691.48336,0.00110
1689.55464,0.00132
1687.62593,0.00141
1685.69721,0.00132
1683.76850,0.00131
1681.83978,0.00145
1679.91107,0.00150
1677.98235,0.00139
1676.05364,0.00107
1674.12492,0.00068
1672.19621,0.00044
1670.26749,0.00027
1668.33877,0.00016
1666.41006,0.00028
1664.48134,0.00038
1662.55263,0.00044
1660.62391,0.00029
1658.69520,0.00023
1656.76648,0.00050
1654.83777,0.00091
1652.90905,0.00068
1650.98034,0.00028
1649.05162,0.00002
1647.12291,-0.00001
1645.19419,0.00033
1643.26548,0.00045
1641.33676,0.00046
1639.40804,0.00063
1637.47933,0.00078
1635.55061,0.00071
1633.62190,0.00039
1631.69318,0.00033
1629.76447,0.00055
1627.83575,0.00071
1625.90704,0.00054
1623.97832,0.00027
1622.04961,0.00028
1620.12089,0.00035
1618.19218,0.00030
1616.26346,0.00039
1614.33474,0.00044
1612.40603,0.00036
1610.47731,0.00026
1608.54860,0.00025
1606.61988,0.00031
1604.69117,0.00036
1602.76245,0.00019
1600.83374,0.00029
1598.90502,0.00041
1596.97631,0.00042
1595.04759,0.00050
1593.11888,0.00060
1591.19016,0.00046
1589.26145,0.00018
1587.33273,0.00005
1585.40401,0.00014
1583.47530,0.00023
1581.54658,0.00026
1579.61787,0.00029
1577.68915,0.00037
1575.76044,0.00040
1573.83172,0.00044
1571.90301,0.00060
1569.97429,0.00085
1568.04558,0.00095
1566.11686,0.00100
1564.18815,0.00118
1562.25943,0.00119
1560.33072,0.00065
1558.40200,-0.00013
1556.47328,-0.00007
1554.54457,0.00044
1552.61585,0.00051
1550.68714,0.00052
1548.75842,0.00050
1546.82971,0.00043
1544.90099,0.00027
1542.97228,0.00021
1541.04356,0.00042
1539.11485,0.00064
1537.18613,0.00008
1535.25742,0.00020
1533.32870,0.00053
1531.39999,0.00058
1529.47127,0.00030
1527.54255,0.00017
1525.61384,0.00042
1523.68512,0.00057
1521.75641,0.00064
1519.82769,0.00055
1517.89898,0.00031
1515.97026,0.00043
1514.04155,0.00055
1512.11283,0.00050
1510.18412,0.00064
1508.25540,0.00134
1506.32669,0.00143
1504.39797,0.00060
1502.46925,0.00017
1500.54054,0.00023
1498.61182,0.00043
1496.68311,0.00057
1494.75439,0.00037
1492.82568,0.00020
1490.89696,0.00031
1488.96825,0.00044
1487.03953,0.00026
1485.11082,0.00022
1483.18210,0.00033
1481.25339,0.00039
1479.32467,0.00032
1477.39596,0.00027
1475.46724,0.00035
1473.53852,0.00044
1471.60981,0.00039
1469.68109,0.00041
1467.75238,0.00037
1465.82366,0.00027
1463.89495,0.00025
1461.96623,0.00039
1460.03752,0.00052
1458.10880,0.00055
1456.18009,0.00046
1454.25137,0.00030
1452.32266,0.00013
1450.39394,0.00024
1448.46523,0.00040
1446.53651,0.00042
1444.60779,0.00043
1442.67908,0.00054
1440.75036,0.00058
1438.82165,0.00060
1436.89293,0.00066
1434.96422,0.00051
1433.03550,0.00034
1431.10679,0.00033
1429.17807,0.00043
1427.24936,0.00041
1425.32064,0.00033
1423.39193,0.00027
1421.46321,0.00014
1419.53449,0.00022
1417.60578,0.00023
1415.67706,0.00023
1413.74835,0.00022
1411.81963,0.00013
1409.89092,0.00016
1407.96220,0.00043
1406.03349,0.00055
1404.10477,0.00035
1402.17606,0.00029
1400.24734,0.00044
1398.31863,0.00043
1396.38991,0.00040
1394.46120,0.00034
1392.53248,0.00019
1390.60376,0.00011
1388.67505,0.00026
1386.74633,0.00047
1384.81762,0.00054
1382.88890,0.00051
1380.96019,0.00041
1379.03147,0.00030
1377.10276,0.00029
1375.17404,0.00033
1373.24533,0.00041
1371.31661,0.00038
1369.38790,0.00028
1367.45918,0.00025
1365.53047,0.00043
1363.60175,0.00040
1361.67303,0.00017
1359.74432,0.00010
1357.81560,0.00005
1355.88689,0.00006
1353.95817,0.00021
1352.02946,0.00031
1350.10074,0.00029
1348.17203,0.00024
1346.24331,0.00029
1344.31460,0.00034
1342.38588,0.00035
1340.45717,0.00035
1338.52845,0.00044
1336.59974,0.00046
1334.67102,0.00045
1332.74230,0.00043
1330.81359,0.00038
1328.88487,0.00028
1326.95616,0.00012
1325.02744,-0.00011
1323.09873,0.00016
1321.17001,0.00027
1319.24130,0.00037
1317.31258,0.00043
1315.38387,0.00034
1313.45515,0.00027
1311.52644,0.00037
1309.59772,0.00051
1307.66900,0.00050
1305.74029,0.00035
1303.81157,0.00031
1301.88286,0.00037
1299.95414,0.00038
1298.02543,0.00034
1296.09671,0.00033
1294.16800,0.00028
1292.23928,0.00026
1290.31057,0.00032
1288.38185,0.00042
1286.45314,0.00036
1284.52442,0.00030
1282.59571,0.00029
1280.66699,0.00023
1278.73827,0.00012
1276.80956,0.00008
1274.88084,0.00007
1272.95213,0.00013
1271.02341,0.00027
1269.09470,0.00045
1267.16598,0.00058
1265.23727,0.00058
1263.30855,0.00040
1261.37984,0.00018
1259.45112,0.00024
1257.52241,0.00035
1255.59369,0.00026
1253.66498,0.00024
1251.73626,0.00023
1249.80754,0.00027
1247.87883,0.00032
1245.95011,0.00033
1244.02140,0.00022
1242.09268,0.00023
1240.16397,0.00031
1238.23525,0.00031
1236.30654,0.00034
1234.37782,0.00036
1232.44911,0.00036
1230.52039,0.00041
1228.59168,0.00039
1226.66296,0.00028
1224.73424,0.00027
1222.80553,0.00037
1220.87681,0.00032
1218.94810,0.00036
1217.01938,0.00033
1215.09067,0.00020
1213.16195,0.00001
1211.23324,-0.00000
1209.30452,0.00023
1207.37581,0.00041
1205.44709,0.00031
1203.51838,0.00032
1201.58966,0.00026
1199.66095,0.00026
1197.73223,0.00033
1195.80351,0.00041
1193.87480,0.00051
1191.94608,0.00057
1190.01737,0.00049
1188.08865,0.00047
1186.15994,0.00036
1184.23122,0.00038
1182.30251,0.00056
1180.37379,0.00062
1178.44508,0.00052
1176.51636,0.00049
1174.58765,0.00042
1172.65893,0.00037
1170.73022,0.00035
1168.80150,0.00041
1166.87278,0.00033
1164.94407,0.00039
1163.01535,0.00046
1161.08664,0.00039
1159.15792,0.00037
1157.22921,0.00040
1155.30049,0.00035
1153.37178,0.00039
1151.44306,0.00031
1149.51435,0.00008
1147.58563,0.00003
1145.65692,0.00038
1143.72820,0.00054
1141.79949,0.00061
1139.87077,0.00059
1137.94205,0.00048
1136.01334,0.00031
1134.08462,0.00016
1132.15591,0.00015
1130.22719,0.00020
1128.29848,0.00043
1126.36976,0.00076
1124.44105,0.00069
1122.51233,0.00037
1120.58362,0.00003
1118.65490,-0.00004
1116.72619,0.00017
1114.79747,0.00043
1112.86875,0.00076
1110.94004,0.00091
1109.01132,0.00081
1107.08261,0.00062
1105.15389,0.00040
1103.22518,0.00030
1101.29646,0.00047
1099.36775,0.00080
1097.43903,0.00079
1095.51032,0.00055
1093.58160,0.00048
1091.65289,0.00066
1089.72417,0.00077
1087.79546,0.00066
1085.86674,0.00028
1083.93802,0.00026
1082.00931,0.00048
1080.08059,0.00057
1078.15188,0.00051
1076.22316,0.00036
1074.29445,0.00016
1072.36573,0.00046
1070.43702,0.00070
1068.50830,0.00069
1066.57959,0.00032
1064.65087,0.00019
1062.72216,0.00070
1060.79344,0.00111
1058.86473,0.00104
1056.93601,0.00098
1055.00729,0.00097
1053.07858,0.00091
1051.14986,0.00078
1049.22115,0.00073
1047.29243,0.00083
1045.36372,0.00104
1043.43500,0.00119
1041.50629,0.00120
1039.57757,0.00109
1037.64886,0.00083
1035.72014,0.00060
1033.79143,0.00059
1031.86271,0.00079
1029.93399,0.00078
1028.00528,0.00044
1026.07656,0.00035
1024.14785,0.00026
1022.21913,0.00031
1020.29042,0.00043
1018.36170,0.00066
1016.43299,0.00080
1014.50427,0.00069
1012.57556,0.00039
1010.64684,0.00034
1008.71813,0.00054
1006.78941,0.00072
1004.86070,0.00067
1002.93198,0.00036
1001.00326,0.00014
999.07455,0.00037
997.14583,0.00069
995.21712,0.00082
993.28840,0.00067
991.35969,0.00054
989.43097,0.00059
987.50226,0.00065
985.57354,0.00059
983.64483,0.00036
981.71611,0.00032
979.78740,0.00120
977.85868,0.00222
975.92997,0.00286
974.00125,0.00300
972.07253,0.00281
970.14382,0.00238
968.21510,0.00176
966.28639,0.00116
964.35767,0.00077
962.42896,0.00054
960.50024,0.00052
958.57153,0.00075
956.64281,0.00116
954.71410,0.00181
952.78538,0.00238
950.85667,0.00224
948.92795,0.00162
946.99924,0.00099
945.07052,0.00053
943.14180,0.00031
941.21309,0.00014
939.28437,-0.00018
937.35566,-0.00008
935.42694,0.00012
933.49823,0.00066
931.56951,0.00180
929.64080,0.00333
927.71208,0.00414
925.78337,0.00360
923.85465,0.00238
921.92594,0.00121
919.99722,0.00025
918.06850,-0.00007
916.13979,0.00022
914.21107,0.00108
912.28236,0.00225
910.35364,0.00330
908.42493,0.00358
906.49621,0.00293
904.56750,0.00190
902.63878,0.00101
900.71007,0.00037
898.78135,0.00004
896.85264,0.00026
894.92392,0.00053
892.99521,0.00048
891.06649,0.00024
889.13777,0.00008
887.20906,0.00025
885.28034,0.00066
883.35163,0.00077
881.42291,0.00065
879.49420,0.00057
877.56548,0.00044
875.63677,0.00041
873.70805,0.00042
871.77934,0.00040
869.85062,0.00031
867.92191,0.00033
865.99319,0.00047
864.06448,0.00062
862.13576,0.00053
860.20704,0.00036
858.27833,0.00015
856.34961,0.00035
854.42090,0.00029
852.49218,0.00061
850.56347,0.00061
848.63475,0.00031
846.70604,0.00033
844.77732,0.00053
842.84861,0.00054
840.91989,0.00054
838.99118,0.00060
837.06246,0.00025
835.13375,0.00020
833.20503,0.00063
831.27631,0.00069
829.34760,0.00064
827.41888,0.00073
825.49017,0.00076
823.56145,0.00058
821.63274,0.00067
819.70402,0.00089
817.77531,0.00093
815.84659,0.00085
813.91788,0.00066
811.98916,0.00034
810.06045,0.00049
808.13173,0.00075
806.20301,0.00081
804.27430,0.00058
802.34558,0.00035
800.41687,0.00023
798.48815,0.00021
796.55944,0.00041
794.63072,0.00079
792.70201,0.00089
790.77329,0.00052
788.84458,0.00010
786.91586,0.00032
784.98715,0.00052
783.05843,0.00055
781.12972,0.00030
779.20100,0.00018
777.27228,0.00027
775.34357,0.00023
773.41485,0.00019
771.48614,0.00048
769.55742,0.00090
767.62871,0.00089
765.69999,0.00050
763.77128,0.00069
761.84256,0.00079
759.91385,0.00093
757.98513,0.00091
756.05642,0.00089
754.12770,0.00094
752.19899,0.00085
750.27027,0.00060
748.34155,0.00046
746.41284,0.00053
744.48412,0.00082
742.55541,0.00077
740.62669,0.00067
738.69798,0.00057
736.76926,0.00074
734.84055,0.00101
732.91183,0.00097
730.98312,0.00060
729.05440,0.00031
727.12569,0.00021
725.19697,0.00069
723.26825,0.00096
721.33954,0.00070
719.41082,0.00065
717.48211,0.00071
715.55339,0.00073
713.62468,0.00072
711.69596,0.00082
709.76725,0.00095
707.83853,0.00079
705.90982,0.00038
703.98110,-0.00019
702.05239,0.00005
700.12367,0.00036
698.19496,-0.00003
696.26624,-0.00010
694.33752,0.00103
692.40881,0.00281
690.48009,0.00494
688.55138,0.00762
686.62266,0.01106
684.69395,0.01510
682.76523,0.01941
680.83652,0.02401
678.90780,0.02889
676.97909,0.03395
675.05037,0.03925
673.12166,0.04417
671.19294,0.04750
669.26423,0.05021
667.33551,0.05512
665.40679,0.06027
663.47808,0.06345
661.54936,0.06556
659.62065,0.06736
657.69193,0.06860
655.76322,0.06878
653.83450,0.06832
651.90579,0.06758
649.97707,0.06608
648.04836,0.06315
646.11964,0.05864
644.19093,0.05212
642.26221,0.04225
640.33350,0.02878
638.40478,0.01549
636.47606,0.00752
634.54735,0.00503
632.61863,0.00501
630.68992,0.00717
628.76120,0.01202
626.83249,0.01750
624.90377,0.02230
622.97506,0.02695
621.04634,0.03048
619.11763,0.03092
617.18891,0.02842
615.26020,0.02501
613.33148,0.02188
611.40276,0.01880
609.47405,0.01554
607.54533,0.01249
605.61662,0.00977
603.68790,0.00700
601.75919,0.00466
599.83047,0.00357
