7496.91655,0.11175
7494.98784,0.09747
7493.05912,0.10037
7491.13041,0.11878
7489.20169,0.12249
7487.27297,0.11629
7485.34426,0.11971
7483.41554,0.12536
7481.48683,0.12474
7479.55811,0.12422
7477.62940,0.11910
7475.70068,0.10273
7473.77197,0.09195
7471.84325,0.08817
7469.91454,0.07314
7467.98582,0.06058
7466.05711,0.06420
7464.12839,0.08094
7462.19968,0.10072
7460.27096,0.10725
7458.34224,0.09565
7456.41353,0.08108
7454.48481,0.07025
7452.55610,0.06413
7450.62738,0.07299
7448.69867,0.09967
7446.76995,0.12374
7444.84124,0.12216
7442.91252,0.09773
7440.98381,0.07253
7439.05509,0.05789
7437.12638,0.06254
7435.19766,0.08469
7433.26895,0.10517
7431.34023,0.10434
7429.41151,0.09241
7427.48280,0.09208
7425.55408,0.09972
7423.62537,0.10001
7421.69665,0.09468
7419.76794,0.09270
7417.83922,0.09338
7415.91051,0.09108
7413.98179,0.08933
7412.05308,0.09697
7410.12436,0.11507
7408.19565,0.13008
7406.26693,0.12893
7404.33821,0.10906
7402.40950,0.08037
7400.48078,0.05816
7398.55207,0.05597
7396.62335,0.07306
7394.69464,0.10084
7392.76592,0.11923
7390.83721,0.11901
7388.90849,0.11583
7386.97978,0.11182
7385.05106,0.09180
7383.12235,0.06805
7381.19363,0.06514
7379.26492,0.07603
7377.33620,0.08140
7375.40748,0.08084
7373.47877,0.08296
7371.55005,0.08367
7369.62134,0.07510
7367.69262,0.06929
7365.76391,0.07063
7363.83519,0.06933
7361.90648,0.07023
7359.97776,0.07604
7358.04905,0.08008
7356.12033,0.08682
7354.19162,0.09176
7352.26290,0.08993
7350.33419,0.08910
7348.40547,0.10228
7346.47675,0.11196
7344.54804,0.10682
7342.61932,0.10764
7340.69061,0.11455
7338.76189,0.11353
7336.83318,0.11034
7334.90446,0.10460
7332.97575,0.09431
7331.04703,0.08620
7329.11832,0.08921
7327.18960,0.09612
7325.26089,0.09476
7323.33217,0.08426
7321.40346,0.07593
7319.47474,0.07230
7317.54602,0.07259
7315.61731,0.07968
7313.68859,0.09138
7311.75988,0.09092
7309.83116,0.07778
7307.90245,0.07292
7305.97373,0.08100
7304.04502,0.08372
7302.11630,0.07878
7300.18759,0.07546
7298.25887,0.07852
7296.33016,0.07926
7294.40144,0.08015
7292.47272,0.08539
7290.54401,0.08784
7288.61529,0.08243
7286.68658,0.08733
7284.75786,0.10208
7282.82915,0.10647
7280.90043,0.09974
7278.97172,0.09852
7277.04300,0.10137
7275.11429,0.09691
7273.18557,0.09173
7271.25686,0.09436
7269.32814,0.09878
7267.39943,0.09989
7265.47071,0.09886
7263.54199,0.09663
7261.61328,0.09067
7259.68456,0.08202
7257.75585,0.07620
7255.82713,0.07611
7253.89842,0.07790
7251.96970,0.08260
7250.04099,0.09178
7248.11227,0.09874
7246.18356,0.09743
7244.25484,0.08715
7242.32613,0.07841
7240.39741,0.08322
7238.46870,0.09055
7236.53998,0.08879
7234.61126,0.07844
7232.68255,0.07405
7230.75383,0.08242
7228.82512,0.09350
7226.89640,0.09697
7224.96769,0.08745
7223.03897,0.07600
7221.11026,0.07015
7219.18154,0.06706
7217.25283,0.08082
7215.32411,0.10155
7213.39540,0.11075
7211.46668,0.11294
7209.53796,0.11779
7207.60925,0.11976
7205.68053,0.11153
7203.75182,0.09858
7201.82310,0.09491
7199.89439,0.10155
7197.96567,0.10595
7196.03696,0.10192
7194.10824,0.09590
7192.17953,0.08928
7190.25081,0.08478
7188.32210,0.08326
7186.39338,0.08034
7184.46467,0.07748
7182.53595,0.08082
7180.60723,0.08624
7178.67852,0.08773
7176.74980,0.08655
7174.82109,0.08226
7172.89237,0.07450
7170.96366,0.06811
7169.03494,0.06653
7167.10623,0.07520
7165.17751,0.08863
7163.24880,0.08994
7161.32008,0.08146
7159.39137,0.09031
7157.46265,0.11519
7155.53394,0.12248
7153.60522,0.10540
7151.67650,0.09431
7149.74779,0.09877
7147.81907,0.09991
7145.89036,0.08778
7143.96164,0.07847
7142.03293,0.08339
7140.10421,0.08982
7138.17550,0.08882
7136.24678,0.08845
7134.31807,0.09218
7132.38935,0.09896
7130.46064,0.10538
7128.53192,0.10553
7126.60321,0.09986
7124.67449,0.09472
7122.74577,0.09216
7120.81706,0.09077
7118.88834,0.08244
7116.95963,0.07043
7115.03091,0.07577
7113.10220,0.09855
7111.17348,0.11883
7109.24477,0.12438
7107.31605,0.12278
7105.38734,0.12607
7103.45862,0.12311
7101.52991,0.10852
7099.60119,0.10081
7097.67247,0.10495
7095.74376,0.11071
7093.81504,0.11530
7091.88633,0.11622
7089.95761,0.11137
7088.02890,0.10476
7086.10018,0.10190
7084.17147,0.10358
7082.24275,0.10682
7080.31404,0.10466
7078.38532,0.08850
7076.45661,0.06842
7074.52789,0.06670
7072.59918,0.07907
7070.67046,0.08669
7068.74174,0.08620
7066.81303,0.09057
7064.88431,0.10941
7062.95560,0.12787
7061.02688,0.12775
7059.09817,0.11831
7057.16945,0.11157
7055.24074,0.10664
7053.31202,0.10214
7051.38331,0.09725
7049.45459,0.08999
7047.52588,0.08875
7045.59716,0.09851
7043.66845,0.10556
7041.73973,0.09939
7039.81101,0.08960
7037.88230,0.08500
7035.95358,0.08676
7034.02487,0.09366
7032.09615,0.10040
7030.16744,0.10334
7028.23872,0.10721
7026.31001,0.10874
7024.38129,0.10229
7022.45258,0.09305
7020.52386,0.08625
7018.59515,0.08470
7016.66643,0.09332
7014.73771,0.10552
7012.80900,0.10843
7010.88028,0.10485
7008.95157,0.10416
7007.02285,0.10699
7005.09414,0.11014
7003.16542,0.10963
7001.23671,0.10592
6999.30799,0.10200
6997.37928,0.09852
6995.45056,0.09657
6993.52185,0.09630
6991.59313,0.09673
6989.66442,0.09679
6987.73570,0.09661
6985.80698,0.09959
6983.87827,0.10300
6981.94955,0.10079
6980.02084,0.09619
6978.09212,0.09735
6976.16341,0.10402
6974.23469,0.10405
6972.30598,0.09342
6970.37726,0.08746
6968.44855,0.09113
6966.51983,0.09576
6964.59112,0.09748
6962.66240,0.09752
6960.73369,0.09742
6958.80497,0.10184
6956.87625,0.10720
6954.94754,0.10561
6953.01882,0.10102
6951.09011,0.09940
6949.16139,0.09966
6947.23268,0.10064
6945.30396,0.10463
6943.37525,0.11151
6941.44653,0.11675
6939.51782,0.11756
6937.58910,0.11184
6935.66039,0.10760
6933.73167,0.11393
6931.80296,0.12201
6929.87424,0.12214
6927.94552,0.11555
6926.01681,0.10409
6924.08809,0.09583
6922.15938,0.09399
6920.23066,0.09089
6918.30195,0.08650
6916.37323,0.08844
6914.44452,0.09405
6912.51580,0.09592
6910.58709,0.09217
6908.65837,0.08975
6906.72966,0.09275
6904.80094,0.10284
6902.87222,0.11720
6900.94351,0.12414
6899.01479,0.12286
6897.08608,0.12056
6895.15736,0.11276
6893.22865,0.09868
6891.29993,0.09031
6889.37122,0.09487
6887.44250,0.10456
6885.51379,0.10908
6883.58507,0.10666
6881.65636,0.10370
6879.72764,0.10607
6877.79893,0.11202
6875.87021,0.11419
6873.94149,0.10782
6872.01278,0.09639
6870.08406,0.08737
6868.15535,0.08218
6866.22663,0.08227
6864.29792,0.08945
6862.36920,0.10154
6860.44049,0.11020
6858.51177,0.10664
6856.58306,0.09932
6854.65434,0.10448
6852.72563,0.11429
6850.79691,0.11144
6848.86820,0.10009
6846.93948,0.09521
6845.01076,0.10011
6843.08205,0.10998
6841.15333,0.11631
6839.22462,0.11325
6837.29590,0.10570
6835.36719,0.10278
6833.43847,0.10378
6831.50976,0.10339
6829.58104,0.10396
6827.65233,0.10516
6825.72361,0.10069
6823.79490,0.09503
6821.86618,0.09722
6819.93746,0.10540
6818.00875,0.11087
6816.08003,0.11204
6814.15132,0.11109
6812.22260,0.10699
6810.29389,0.10443
6808.36517,0.10941
6806.43646,0.11337
6804.50774,0.10764
6802.57903,0.09737
6800.65031,0.09181
6798.72160,0.09746
6796.79288,0.11131
6794.86417,0.12116
6792.93545,0.12113
6791.00673,0.11456
6789.07802,0.10931
6787.14930,0.10882
6785.22059,0.10792
6783.29187,0.10349
6781.36316,0.10121
6779.43444,0.10431
6777.50573,0.10726
6775.57701,0.10528
6773.64830,0.10337
6771.71958,0.10541
6769.79087,0.10662
6767.86215,0.10487
6765.93344,0.10628
6764.00472,0.11033
6762.07600,0.10973
6760.14729,0.10519
6758.21857,0.10223
6756.28986,0.10370
6754.36114,0.10648
6752.43243,0.10500
6750.50371,0.10162
6748.57500,0.10073
6746.64628,0.10514
6744.71757,0.11244
6742.78885,0.11610
6740.86014,0.11681
6738.93142,0.11627
6737.00271,0.11230
6735.07399,0.10840
6733.14527,0.10805
6731.21656,0.10685
6729.28784,0.10306
6727.35913,0.10388
6725.43041,0.11221
6723.50170,0.11899
6721.57298,0.11790
6719.64427,0.11452
6717.71555,0.11121
6715.78684,0.10793
6713.85812,0.10822
6711.92941,0.11206
6710.00069,0.11531
6708.07197,0.11441
6706.14326,0.11142
6704.21454,0.11294
6702.28583,0.11779
6700.35711,0.11689
6698.42840,0.10943
6696.49968,0.10646
6694.57097,0.10801
6692.64225,0.10612
6690.71354,0.10597
6688.78482,0.11088
6686.85611,0.11635
6684.92739,0.12061
6682.99868,0.12027
6681.06996,0.11785
6679.14124,0.11832
6677.21253,0.11768
6675.28381,0.11329
6673.35510,0.10902
6671.42638,0.10580
6669.49767,0.10248
6667.56895,0.09939
6665.64024,0.09868
6663.71152,0.10377
6661.78281,0.11339
6659.85409,0.12123
6657.92538,0.12343
6655.99666,0.11879
6654.06795,0.11022
6652.13923,0.10349
6650.21051,0.10311
6648.28180,0.10673
6646.35308,0.10661
6644.42437,0.10432
6642.49565,0.10801
6640.56694,0.11323
6638.63822,0.11356
6636.70951,0.11149
6634.78079,0.11034
6632.85208,0.11162
6630.92336,0.11423
6628.99465,0.11313
6627.06593,0.11046
6625.13722,0.10896
6623.20850,0.10403
6621.27978,0.09828
6619.35107,0.09941
6617.42235,0.10415
6615.49364,0.10668
6613.56492,0.10653
6611.63621,0.10447
6609.70749,0.10411
6607.77878,0.10709
6605.85006,0.10701
6603.92135,0.10306
6601.99263,0.10368
6600.06392,0.11183
6598.13520,0.12111
6596.20648,0.12442
6594.27777,0.11940
6592.34905,0.10921
6590.42034,0.10365
6588.49162,0.10885
6586.56291,0.11866
6584.63419,0.12548
6582.70548,0.12433
6580.77676,0.11892
6578.84805,0.11810
6576.91933,0.11696
6574.99062,0.10782
6573.06190,0.10087
6571.13319,0.10451
6569.20447,0.11198
6567.27575,0.11638
6565.34704,0.11465
6563.41832,0.10865
6561.48961,0.10494
6559.56089,0.10342
6557.63218,0.10410
6555.70346,0.11047
6553.77475,0.11662
6551.84603,0.11562
6549.91732,0.11387
6547.98860,0.11545
6546.05989,0.11554
6544.13117,0.11141
6542.20246,0.10651
6540.27374,0.10769
6538.34502,0.11289
6536.41631,0.11332
6534.48759,0.11013
6532.55888,0.10849
6530.63016,0.10816
6528.70145,0.10823
6526.77273,0.10705
6524.84402,0.10386
6522.91530,0.10531
6520.98659,0.11103
6519.05787,0.11099
6517.12916,0.10771
6515.20044,0.10828
6513.27172,0.11081
6511.34301,0.11371
6509.41429,0.11532
6507.48558,0.11418
6505.55686,0.11354
6503.62815,0.11453
6501.69943,0.11318
6499.77072,0.11105
6497.84200,0.11267
6495.91329,0.11786
6493.98457,0.12368
6492.05586,0.12563
6490.12714,0.11903
6488.19843,0.10937
6486.26971,0.10767
6484.34099,0.11103
6482.41228,0.10965
6480.48356,0.10703
6478.55485,0.10968
6476.62613,0.11373
6474.69742,0.11590
6472.76870,0.11957
6470.83999,0.12315
6468.91127,0.12106
6466.98256,0.11578
6465.05384,0.11352
6463.12513,0.11313
6461.19641,0.11018
6459.26770,0.10742
6457.33898,0.11038
6455.41026,0.11503
6453.48155,0.11590
6451.55283,0.11472
6449.62412,0.11360
6447.69540,0.11013
6445.76669,0.10708
6443.83797,0.11048
6441.90926,0.11653
6439.98054,0.11725
6438.05183,0.11372
6436.12311,0.11156
6434.19440,0.11243
6432.26568,0.11368
6430.33697,0.11226
6428.40825,0.10857
6426.47953,0.10812
6424.55082,0.11371
6422.62210,0.12099
6420.69339,0.12414
6418.76467,0.12103
6416.83596,0.11660
6414.90724,0.11906
6412.97853,0.12691
6411.04981,0.12989
6409.12110,0.12383
6407.19238,0.11524
6405.26367,0.10979
6403.33495,0.10855
6401.40623,0.11182
6399.47752,0.11651
6397.54880,0.11830
6395.62009,0.11874
6393.69137,0.11960
6391.76266,0.11960
6389.83394,0.11929
6387.90523,0.11810
6385.97651,0.11414
6384.04780,0.11170
6382.11908,0.11398
6380.19037,0.11578
6378.26165,0.11383
6376.33294,0.11271
6374.40422,0.11604
6372.47550,0.11981
6370.54679,0.11853
6368.61807,0.11574
6366.68936,0.11687
6364.76064,0.11661
6362.83193,0.11162
6360.90321,0.10876
6358.97450,0.10968
6357.04578,0.11059
6355.11707,0.11095
6353.18835,0.11214
6351.25964,0.11357
6349.33092,0.11336
6347.40221,0.11283
6345.47349,0.11421
6343.54477,0.11643
6341.61606,0.11880
6339.68734,0.11996
6337.75863,0.11805
6335.82991,0.11642
6333.90120,0.11852
6331.97248,0.12113
6330.04377,0.12184
6328.11505,0.12174
6326.18634,0.12024
6324.25762,0.11737
6322.32891,0.11500
6320.40019,0.11365
6318.47147,0.11375
6316.54276,0.11473
6314.61404,0.11594
6312.68533,0.11899
6310.75661,0.12179
6308.82790,0.12026
6306.89918,0.11667
6304.97047,0.11404
6303.04175,0.11322
6301.11304,0.11300
6299.18432,0.10996
6297.25561,0.10742
6295.32689,0.10958
6293.39818,0.11267
6291.46946,0.11401
6289.54074,0.11455
6287.61203,0.11457
6285.68331,0.11314
6283.75460,0.11201
6281.82588,0.11409
6279.89717,0.11577
6277.96845,0.11359
6276.03974,0.11177
6274.11102,0.11164
6272.18231,0.11058
6270.25359,0.10917
6268.32488,0.11040
6266.39616,0.11377
6264.46745,0.11564
6262.53873,0.11697
6260.61001,0.11938
6258.68130,0.11905
6256.75258,0.11604
6254.82387,0.11434
6252.89515,0.11402
6250.96644,0.11493
6249.03772,0.11794
6247.10901,0.12107
6245.18029,0.12222
6243.25158,0.12088
6241.32286,0.11791
6239.39415,0.11567
6237.46543,0.11574
6235.53672,0.11552
6233.60800,0.11197
6231.67928,0.10809
6229.75057,0.10843
6227.82185,0.11194
6225.89314,0.11440
6223.96442,0.11415
6222.03571,0.11386
6220.10699,0.11450
6218.17828,0.11591
6216.24956,0.11815
6214.32085,0.11868
6212.39213,0.11676
6210.46342,0.11471
6208.53470,0.11334
6206.60598,0.11254
6204.67727,0.11161
6202.74855,0.11164
6200.81984,0.11475
6198.89112,0.11785
6196.96241,0.11623
6195.03369,0.11309
6193.10498,0.11227
6191.17626,0.11239
6189.24755,0.11373
6187.31883,0.11491
6185.39012,0.11116
6183.46140,0.10525
6181.53269,0.10387
6179.60397,0.10715
6177.67525,0.11081
6175.74654,0.11226
6173.81782,0.11122
6171.88911,0.10913
6169.96039,0.10800
6168.03168,0.10713
6166.10296,0.10553
6164.17425,0.10644
6162.24553,0.11031
6160.31682,0.11242
6158.38810,0.11097
6156.45939,0.10941
6154.53067,0.11101
6152.60196,0.11350
6150.67324,0.11402
6148.74452,0.11391
6146.81581,0.11221
6144.88709,0.10803
6142.95838,0.10498
6141.02966,0.10478
6139.10095,0.10561
6137.17223,0.10653
6135.24352,0.10898
6133.31480,0.11345
6131.38609,0.11453
6129.45737,0.10882
6127.52866,0.10261
6125.59994,0.10122
6123.67122,0.10207
6121.74251,0.10165
6119.81379,0.10072
6117.88508,0.10167
6115.95636,0.10420
6114.02765,0.10718
6112.09893,0.10791
6110.17022,0.10331
6108.24150,0.09715
6106.31279,0.09381
6104.38407,0.09119
6102.45536,0.08956
6100.52664,0.09039
6098.59793,0.09067
6096.66921,0.08997
6094.74049,0.09032
6092.81178,0.09121
6090.88306,0.09238
6088.95435,0.09243
6087.02563,0.09040
6085.09692,0.08850
6083.16820,0.08783
6081.23949,0.08836
6079.31077,0.08966
6077.38206,0.08900
6075.45334,0.08609
6073.52463,0.08506
6071.59591,0.08563
6069.66720,0.08392
6067.73848,0.08255
6065.80976,0.08428
6063.88105,0.08570
6061.95233,0.08544
6060.02362,0.08574
6058.09490,0.08596
6056.16619,0.08426
6054.23747,0.08313
6052.30876,0.08456
6050.38004,0.08579
6048.45133,0.08628
6046.52261,0.08657
6044.59390,0.08519
6042.66518,0.08334
6040.73647,0.08306
6038.80775,0.08260
6036.87903,0.08033
6034.95032,0.07788
6033.02160,0.07790
6031.09289,0.07889
6029.16417,0.07545
6027.23546,0.06793
6025.30674,0.06408
6023.37803,0.06535
6021.44931,0.06476
6019.52060,0.06094
6017.59188,0.05724
6015.66317,0.05455
6013.73445,0.05496
6011.80573,0.05714
6009.87702,0.05690
6007.94830,0.05678
6006.01959,0.05951
6004.09087,0.06097
6002.16216,0.05781
6000.23344,0.05209
5998.30473,0.04889
5996.37601,0.05084
5994.44730,0.05442
5992.51858,0.05539
5990.58987,0.05407
5988.66115,0.05312
5986.73244,0.05502
5984.80372,0.05717
5982.87500,0.05642
5980.94629,0.05567
5979.01757,0.05698
5977.08886,0.05870
5975.16014,0.06120
5973.23143,0.06606
5971.30271,0.07085
5969.37400,0.07218
5967.44528,0.07125
5965.51657,0.07055
5963.58785,0.07058
5961.65914,0.07147
5959.73042,0.07405
5957.80171,0.07696
5955.87299,0.07764
5953.94427,0.07691
5952.01556,0.07622
5950.08684,0.07584
5948.15813,0.07552
5946.22941,0.07432
5944.30070,0.07254
5942.37198,0.07129
5940.44327,0.07180
5938.51455,0.07317
5936.58584,0.07242
5934.65712,0.07159
5932.72841,0.07428
5930.79969,0.07596
5928.87097,0.07241
5926.94226,0.06886
5925.01354,0.06993
5923.08483,0.07275
5921.15611,0.07390
5919.22740,0.07311
5917.29868,0.07205
5915.36997,0.07325
5913.44125,0.07607
5911.51254,0.07676
5909.58382,0.07520
5907.65511,0.07401
5905.72639,0.07364
5903.79768,0.07375
5901.86896,0.07412
5899.94024,0.07427
5898.01153,0.07489
5896.08281,0.07535
5894.15410,0.07444
5892.22538,0.07396
5890.29667,0.07511
5888.36795,0.07550
5886.43924,0.07430
5884.51052,0.07447
5882.58181,0.07749
5880.65309,0.08103
5878.72438,0.08290
5876.79566,0.08328
5874.86695,0.08433
5872.93823,0.08645
5871.00951,0.08681
5869.08080,0.08640
5867.15208,0.08891
5865.22337,0.09244
5863.29465,0.09355
5861.36594,0.09368
5859.43722,0.09486
5857.50851,0.09553
5855.57979,0.09512
5853.65108,0.09563
5851.72236,0.09656
5849.79365,0.09678
5847.86493,0.09734
5845.93622,0.09791
5844.00750,0.09808
5842.07878,0.09822
5840.15007,0.09738
5838.22135,0.09634
5836.29264,0.09732
5834.36392,0.10024
5832.43521,0.10326
5830.50649,0.10366
5828.57778,0.10111
5826.64906,0.09908
5824.72035,0.10003
5822.79163,0.10225
5820.86292,0.10281
5818.93420,0.10241
5817.00548,0.10303
5815.07677,0.10383
5813.14805,0.10424
5811.21934,0.10422
5809.29062,0.10306
5807.36191,0.10138
5805.43319,0.10038
5803.50448,0.09966
5801.57576,0.09798
5799.64705,0.09587
5797.71833,0.09540
5795.78962,0.09710
5793.86090,0.09964
5791.93219,0.10141
5790.00347,0.10246
5788.07475,0.10305
5786.14604,0.10255
5784.21732,0.10140
5782.28861,0.10079
5780.35989,0.10125
5778.43118,0.10225
5776.50246,0.10112
5774.57375,0.09786
5772.64503,0.09627
5770.71632,0.09711
5768.78760,0.09823
5766.85889,0.09815
5764.93017,0.09668
5763.00146,0.09547
5761.07274,0.09543
5759.14402,0.09614
5757.21531,0.09754
5755.28659,0.09879
5753.35788,0.09909
5751.42916,0.09919
5749.50045,0.10016
5747.57173,0.10197
5745.64302,0.10293
5743.71430,0.10258
5741.78559,0.10232
5739.85687,0.10387
5737.92816,0.10733
5735.99944,0.10981
5734.07072,0.10921
5732.14201,0.10735
5730.21329,0.10632
5728.28458,0.10588
5726.35586,0.10632
5724.42715,0.10919
5722.49843,0.11317
5720.56972,0.11466
5718.64100,0.11323
5716.71229,0.11169
5714.78357,0.11177
5712.85486,0.11317
5710.92614,0.11459
5708.99743,0.11494
5707.06871,0.11485
5705.13999,0.11579
5703.21128,0.11703
5701.28256,0.11616
5699.35385,0.11333
5697.42513,0.11143
5695.49642,0.11187
5693.56770,0.11310
5691.63899,0.11365
5689.71027,0.11393
5687.78156,0.11378
5685.85284,0.11316
5683.92413,0.11342
5681.99541,0.11367
5680.06670,0.11328
5678.13798,0.11353
5676.20926,0.11294
5674.28055,0.11051
5672.35183,0.10884
5670.42312,0.10948
5668.49440,0.11097
5666.56569,0.11143
5664.63697,0.11140
5662.70826,0.11245
5660.77954,0.11277
5658.85083,0.11078
5656.92211,0.10941
5654.99340,0.11017
5653.06468,0.11099
5651.13597,0.11198
5649.20725,0.11391
5647.27853,0.11465
5645.34982,0.11371
5643.42110,0.11355
5641.49239,0.11452
5639.56367,0.11529
5637.63496,0.11610
5635.70624,0.11713
5633.77753,0.11716
5631.84881,0.11624
5629.92010,0.11587
5627.99138,0.11695
5626.06267,0.11875
5624.13395,0.11994
5622.20523,0.12077
5620.27652,0.12187
5618.34780,0.12242
5616.41909,0.12246
5614.49037,0.12279
5612.56166,0.12245
5610.63294,0.12074
5608.70423,0.12013
5606.77551,0.12271
5604.84680,0.12657
5602.91808,0.12925
5600.98937,0.12959
5599.06065,0.12699
5597.13194,0.12313
5595.20322,0.12045
5593.27450,0.11976
5591.34579,0.12080
5589.41707,0.12194
5587.48836,0.12188
5585.55964,0.12078
5583.63093,0.11936
5581.70221,0.11900
5579.77350,0.12004
5577.84478,0.12121
5575.91607,0.12096
5573.98735,0.11867
5572.05864,0.11723
5570.12992,0.11904
5568.20121,0.12081
5566.27249,0.11971
5564.34377,0.11786
5562.41506,0.11750
5560.48634,0.11747
5558.55763,0.11656
5556.62891,0.11615
5554.70020,0.11726
5552.77148,0.11883
5550.84277,0.12032
5548.91405,0.12157
5546.98534,0.12152
5545.05662,0.12069
5543.12791,0.12098
5541.19919,0.12256
5539.27047,0.12440
5537.34176,0.12517
5535.41304,0.12446
5533.48433,0.12335
5531.55561,0.12251
5529.62690,0.12223
5527.69818,0.12239
5525.76947,0.12233
5523.84075,0.12251
5521.91204,0.12326
5519.98332,0.12383
5518.05461,0.12407
5516.12589,0.12425
5514.19718,0.12336
5512.26846,0.12163
5510.33974,0.12082
5508.41103,0.12075
5506.48231,0.12077
5504.55360,0.12108
5502.62488,0.12128
5500.69617,0.12110
5498.76745,0.12034
5496.83874,0.11923
5494.91002,0.11944
5492.98131,0.12181
5491.05259,0.12415
5489.12388,0.12396
5487.19516,0.12173
5485.26645,0.12027
5483.33773,0.12063
5481.40901,0.12143
5479.48030,0.12205
5477.55158,0.12233
5475.62287,0.12218
5473.69415,0.12230
5471.76544,0.12253
5469.83672,0.12255
5467.90801,0.12321
5465.97929,0.12465
5464.05058,0.12517
5462.12186,0.12433
5460.19315,0.12406
5458.26443,0.12406
5456.33572,0.12229
5454.40700,0.11992
5452.47828,0.11888
5450.54957,0.11921
5448.62085,0.12054
5446.69214,0.12276
5444.76342,0.12545
5442.83471,0.12691
5440.90599,0.12685
5438.97728,0.12707
5437.04856,0.12723
5435.11985,0.12663
5433.19113,0.12579
5431.26242,0.12432
5429.33370,0.12321
5427.40498,0.12419
5425.47627,0.12517
5423.54755,0.12505
5421.61884,0.12539
5419.69012,0.12641
5417.76141,0.12707
5415.83269,0.12693
5413.90398,0.12678
5411.97526,0.12673
5410.04655,0.12580
5408.11783,0.12526
5406.18912,0.12569
5404.26040,0.12577
5402.33169,0.12571
5400.40297,0.12552
5398.47425,0.12435
5396.54554,0.12348
5394.61682,0.12426
5392.68811,0.12528
5390.75939,0.12553
5388.83068,0.12620
5386.90196,0.12793
5384.97325,0.12861
5383.04453,0.12735
5381.11582,0.12627
5379.18710,0.12535
5377.25839,0.12421
5375.32967,0.12402
5373.40096,0.12429
5371.47224,0.12457
5369.54352,0.12564
5367.61481,0.12679
5365.68609,0.12695
5363.75738,0.12632
5361.82866,0.12545
5359.89995,0.12530
5357.97123,0.12621
5356.04252,0.12679
5354.11380,0.12684
5352.18509,0.12782
5350.25637,0.12888
5348.32766,0.12799
5346.39894,0.12613
5344.47022,0.12594
5342.54151,0.12707
5340.61279,0.12784
5338.68408,0.12832
5336.75536,0.12921
5334.82665,0.13052
5332.89793,0.13092
5330.96922,0.12967
5329.04050,0.12807
5327.11179,0.12750
5325.18307,0.12752
5323.25436,0.12728
5321.32564,0.12688
5319.39693,0.12656
5317.46821,0.12685
5315.53949,0.12781
5313.61078,0.12826
5311.68206,0.12781
5309.75335,0.12741
5307.82463,0.12776
5305.89592,0.12784
5303.96720,0.12611
5302.03849,0.12360
5300.10977,0.12284
5298.18106,0.12447
5296.25234,0.12686
5294.32363,0.12737
5292.39491,0.12496
5290.46620,0.12250
5288.53748,0.12251
5286.60876,0.12309
5284.68005,0.12270
5282.75133,0.12167
5280.82262,0.12026
5278.89390,0.11922
5276.96519,0.11878
5275.03647,0.11805
5273.10776,0.11635
5271.17904,0.11449
5269.25033,0.11429
5267.32161,0.11510
5265.39290,0.11568
5263.46418,0.11678
5261.53547,0.11789
5259.60675,0.11822
5257.67803,0.11836
5255.74932,0.11967
5253.82060,0.12237
5251.89189,0.12329
5249.96317,0.12220
5248.03446,0.12195
5246.10574,0.12270
5244.17703,0.12393
5242.24831,0.12596
5240.31960,0.12777
5238.39088,0.12846
5236.46217,0.12802
5234.53345,0.12636
5232.60473,0.12421
5230.67602,0.12384
5228.74730,0.12548
5226.81859,0.12665
5224.88987,0.12694
5222.96116,0.12839
5221.03244,0.12998
5219.10373,0.12928
5217.17501,0.12813
5215.24630,0.12901
5213.31758,0.12992
5211.38887,0.12918
5209.46015,0.12932
5207.53144,0.13171
5205.60272,0.13275
5203.67400,0.13129
5201.74529,0.13001
5199.81657,0.13001
5197.88786,0.13052
5195.95914,0.13016
5194.03043,0.12930
5192.10171,0.13011
5190.17300,0.13268
5188.24428,0.13401
5186.31557,0.13275
5184.38685,0.13080
5182.45814,0.12966
5180.52942,0.12993
5178.60071,0.13104
5176.67199,0.13113
5174.74327,0.13015
5172.81456,0.12973
5170.88584,0.12993
5168.95713,0.12969
5167.02841,0.12921
5165.09970,0.12972
5163.17098,0.13134
5161.24227,0.13258
5159.31355,0.13221
5157.38484,0.13064
5155.45612,0.12982
5153.52741,0.13148
5151.59869,0.13491
5149.66997,0.13695
5147.74126,0.13598
5145.81254,0.13424
5143.88383,0.13340
5141.95511,0.13278
5140.02640,0.13252
5138.09768,0.13327
5136.16897,0.13409
5134.24025,0.13412
5132.31154,0.13415
5130.38282,0.13472
5128.45411,0.13518
5126.52539,0.13551
5124.59668,0.13566
5122.66796,0.13482
5120.73924,0.13365
5118.81053,0.13359
5116.88181,0.13442
5114.95310,0.13505
5113.02438,0.13498
5111.09567,0.13434
5109.16695,0.13411
5107.23824,0.13504
5105.30952,0.13605
5103.38081,0.13627
5101.45209,0.13608
5099.52338,0.13530
5097.59466,0.13426
5095.66595,0.13380
5093.73723,0.13370
5091.80851,0.13381
5089.87980,0.13403
5087.95108,0.13425
5086.02237,0.13451
5084.09365,0.13476
5082.16494,0.13498
5080.23622,0.13489
5078.30751,0.13453
5076.37879,0.13454
5074.45008,0.13533
5072.52136,0.13623
5070.59265,0.13601
5068.66393,0.13517
5066.73522,0.13510
5064.80650,0.13555
5062.87778,0.13524
5060.94907,0.13419
5059.02035,0.13385
5057.09164,0.13468
5055.16292,0.13537
5053.23421,0.13513
5051.30549,0.13461
5049.37678,0.13453
5047.44806,0.13499
5045.51935,0.13580
5043.59063,0.13652
5041.66192,0.13674
5039.73320,0.13673
5037.80448,0.13685
5035.87577,0.13683
5033.94705,0.13638
5032.01834,0.13570
5030.08962,0.13537
5028.16091,0.13581
5026.23219,0.13627
5024.30348,0.13582
5022.37476,0.13503
5020.44605,0.13490
5018.51733,0.13527
5016.58862,0.13526
5014.65990,0.13464
5012.73119,0.13367
5010.80247,0.13253
5008.87375,0.13203
5006.94504,0.13277
5005.01632,0.13399
5003.08761,0.13491
5001.15889,0.13483
4999.23018,0.13352
4997.30146,0.13326
4995.37275,0.13496
4993.44403,0.13581
4991.51532,0.13509
4989.58660,0.13461
4987.65789,0.13422
4985.72917,0.13365
4983.80046,0.13379
4981.87174,0.13441
4979.94302,0.13520
4978.01431,0.13620
4976.08559,0.13599
4974.15688,0.13403
4972.22816,0.13288
4970.29945,0.13367
4968.37073,0.13413
4966.44202,0.13378
4964.51330,0.13409
4962.58459,0.13471
4960.65587,0.13490
4958.72716,0.13481
4956.79844,0.13431
4954.86972,0.13349
4952.94101,0.13303
4951.01229,0.13304
4949.08358,0.13316
4947.15486,0.13325
4945.22615,0.13346
4943.29743,0.13380
4941.36872,0.13426
4939.44000,0.13483
4937.51129,0.13512
4935.58257,0.13502
4933.65386,0.13500
4931.72514,0.13498
4929.79643,0.13470
4927.86771,0.13465
4925.93899,0.13510
4924.01028,0.13515
4922.08156,0.13411
4920.15285,0.13265
4918.22413,0.13177
4916.29542,0.13170
4914.36670,0.13174
4912.43799,0.13118
4910.50927,0.13034
4908.58056,0.13009
4906.65184,0.13064
4904.72313,0.13116
4902.79441,0.13078
4900.86570,0.12949
4898.93698,0.12804
4897.00826,0.12733
4895.07955,0.12719
4893.15083,0.12676
4891.22212,0.12630
4889.29340,0.12679
4887.36469,0.12765
4885.43597,0.12766
4883.50726,0.12719
4881.57854,0.12701
4879.64983,0.12690
4877.72111,0.12673
4875.79240,0.12678
4873.86368,0.12672
4871.93497,0.12669
4870.00625,0.12721
4868.07753,0.12775
4866.14882,0.12774
4864.22010,0.12739
4862.29139,0.12686
4860.36267,0.12645
4858.43396,0.12641
4856.50524,0.12581
4854.57653,0.12414
4852.64781,0.12288
4850.71910,0.12292
4848.79038,0.12306
4846.86167,0.12248
4844.93295,0.12210
4843.00423,0.12247
4841.07552,0.12276
4839.14680,0.12277
4837.21809,0.12294
4835.28937,0.12329
4833.36066,0.12358
4831.43194,0.12374
4829.50323,0.12403
4827.57451,0.12434
4825.64580,0.12455
4823.71708,0.12496
4821.78837,0.12550
4819.85965,0.12580
4817.93094,0.12581
4816.00222,0.12570
4814.07350,0.12549
4812.14479,0.12552
4810.21607,0.12634
4808.28736,0.12731
4806.35864,0.12740
4804.42993,0.12701
4802.50121,0.12707
4800.57250,0.12742
4798.64378,0.12754
4796.71507,0.12743
4794.78635,0.12726
4792.85764,0.12704
4790.92892,0.12703
4789.00021,0.12706
4787.07149,0.12596
4785.14277,0.12397
4783.21406,0.12313
4781.28534,0.12416
4779.35663,0.12587
4777.42791,0.12640
4775.49920,0.12498
4773.57048,0.12281
4771.64177,0.12140
4769.71305,0.12094
4767.78434,0.12069
4765.85562,0.12030
4763.92691,0.12018
4761.99819,0.12043
4760.06948,0.12032
4758.14076,0.11949
4756.21204,0.11860
4754.28333,0.11828
4752.35461,0.11786
4750.42590,0.11659
4748.49718,0.11530
4746.56847,0.11458
4744.63975,0.11390
4742.71104,0.11304
4740.78232,0.11203
4738.85361,0.11085
4736.92489,0.10938
4734.99618,0.10763
4733.06746,0.10595
4731.13874,0.10440
4729.21003,0.10256
4727.28131,0.10042
4725.35260,0.09887
4723.42388,0.09807
4721.49517,0.09671
4719.56645,0.09433
4717.63774,0.09154
4715.70902,0.08885
4713.78031,0.08678
4711.85159,0.08517
4709.92288,0.08323
4707.99416,0.08074
4706.06545,0.07817
4704.13673,0.07610
4702.20801,0.07455
4700.27930,0.07300
4698.35058,0.07105
4696.42187,0.06871
4694.49315,0.06647
4692.56444,0.06517
4690.63572,0.06461
4688.70701,0.06412
4686.77829,0.06416
4684.84958,0.06460
4682.92086,0.06439
4680.99215,0.06406
4679.06343,0.06437
4677.13472,0.06512
4675.20600,0.06621
4673.27728,0.06736
4671.34857,0.06793
4669.41985,0.06797
4667.49114,0.06836
4665.56242,0.06935
4663.63371,0.07021
4661.70499,0.07121
4659.77628,0.07303
4657.84756,0.07450
4655.91885,0.07434
4653.99013,0.07331
4652.06142,0.07251
4650.13270,0.07165
4648.20398,0.07045
4646.27527,0.06945
4644.34655,0.06848
4642.41784,0.06712
4640.48912,0.06606
4638.56041,0.06527
4636.63169,0.06394
4634.70298,0.06299
4632.77426,0.06364
4630.84555,0.06486
4628.91683,0.06572
4626.98812,0.06688
4625.05940,0.06859
4623.13069,0.07058
4621.20197,0.07318
4619.27325,0.07625
4617.34454,0.07928
4615.41582,0.08257
4613.48711,0.08615
4611.55839,0.08924
4609.62968,0.09155
4607.70096,0.09324
4605.77225,0.09436
4603.84353,0.09509
4601.91482,0.09541
4599.98610,0.09525
4598.05739,0.09494
4596.12867,0.09474
4594.19996,0.09442
4592.27124,0.09360
4590.34252,0.09224
4588.41381,0.09065
4586.48509,0.08902
4584.55638,0.08751
4582.62766,0.08638
4580.69895,0.08560
4578.77023,0.08519
4576.84152,0.08541
4574.91280,0.08587
4572.98409,0.08612
4571.05537,0.08662
4569.12666,0.08792
4567.19794,0.08952
4565.26923,0.09115
4563.34051,0.09349
4561.41179,0.09633
4559.48308,0.09859
4557.55436,0.10027
4555.62565,0.10204
4553.69693,0.10375
4551.76822,0.10500
4549.83950,0.10594
4547.91079,0.10697
4545.98207,0.10788
4544.05336,0.10822
4542.12464,0.10829
4540.19593,0.10810
4538.26721,0.10746
4536.33849,0.10741
4534.40978,0.10816
4532.48106,0.10848
4530.55235,0.10804
4528.62363,0.10765
4526.69492,0.10779
4524.76620,0.10808
4522.83749,0.10823
4520.90877,0.10817
4518.98006,0.10806
4517.05134,0.10803
4515.12263,0.10780
4513.19391,0.10775
4511.26520,0.10821
4509.33648,0.10843
4507.40776,0.10809
4505.47905,0.10762
4503.55033,0.10675
4501.62162,0.10556
4499.69290,0.10487
4497.76419,0.10432
4495.83547,0.10294
4493.90676,0.10127
4491.97804,0.10050
4490.04933,0.10028
4488.12061,0.09947
4486.19190,0.09814
4484.26318,0.09691
4482.33447,0.09574
4480.40575,0.09461
4478.47703,0.09394
4476.54832,0.09400
4474.61960,0.09483
4472.69089,0.09605
4470.76217,0.09664
4468.83346,0.09615
4466.90474,0.09543
4464.97603,0.09510
4463.04731,0.09479
4461.11860,0.09422
4459.18988,0.09358
4457.26117,0.09279
4455.33245,0.09163
4453.40373,0.09033
4451.47502,0.08930
4449.54630,0.08847
4447.61759,0.08732
4445.68887,0.08577
4443.76016,0.08387
4441.83144,0.08167
4439.90273,0.07968
4437.97401,0.07819
4436.04530,0.07687
4434.11658,0.07544
4432.18787,0.07412
4430.25915,0.07301
4428.33044,0.07174
4426.40172,0.07052
4424.47300,0.06949
4422.54429,0.06786
4420.61557,0.06594
4418.68686,0.06513
4416.75814,0.06514
4414.82943,0.06472
4412.90071,0.06403
4410.97200,0.06361
4409.04328,0.06325
4407.11457,0.06292
4405.18585,0.06273
4403.25714,0.06253
4401.32842,0.06245
4399.39971,0.06291
4397.47099,0.06385
4395.54227,0.06471
4393.61356,0.06522
4391.68484,0.06561
4389.75613,0.06613
4387.82741,0.06658
4385.89870,0.06676
4383.96998,0.06676
4382.04127,0.06663
4380.11255,0.06619
4378.18384,0.06525
4376.25512,0.06397
4374.32641,0.06299
4372.39769,0.06263
4370.46898,0.06237
4368.54026,0.06168
4366.61154,0.06085
4364.68283,0.06051
4362.75411,0.06060
4360.82540,0.06078
4358.89668,0.06117
4356.96797,0.06170
4355.03925,0.06184
4353.11054,0.06146
4351.18182,0.06079
4349.25311,0.06005
4347.32439,0.05937
4345.39568,0.05910
4343.46696,0.05934
4341.53824,0.05977
4339.60953,0.06022
4337.68081,0.06038
4335.75210,0.05994
4333.82338,0.05928
4331.89467,0.05896
4329.96595,0.05884
4328.03724,0.05861
4326.10852,0.05853
4324.17981,0.05871
4322.25109,0.05868
4320.32238,0.05829
4318.39366,0.05787
4316.46495,0.05784
4314.53623,0.05838
4312.60751,0.05932
4310.67880,0.06020
4308.75008,0.06071
4306.82137,0.06102
4304.89265,0.06134
4302.96394,0.06144
4301.03522,0.06127
4299.10651,0.06139
4297.17779,0.06211
4295.24908,0.06282
4293.32036,0.06290
4291.39165,0.06266
4289.46293,0.06259
4287.53422,0.06284
4285.60550,0.06325
4283.67678,0.06334
4281.74807,0.06299
4279.81935,0.06279
4277.89064,0.06312
4275.96192,0.06367
4274.03321,0.06431
4272.10449,0.06512
4270.17578,0.06554
4268.24706,0.06519
4266.31835,0.06485
4264.38963,0.06517
4262.46092,0.06583
4260.53220,0.06637
4258.60348,0.06667
4256.67477,0.06678
4254.74605,0.06708
4252.81734,0.06773
4250.88862,0.06826
4248.95991,0.06868
4247.03119,0.06887
4245.10248,0.06817
4243.17376,0.06741
4241.24505,0.06756
4239.31633,0.06783
4237.38762,0.06761
4235.45890,0.06736
4233.53019,0.06707
4231.60147,0.06678
4229.67275,0.06697
4227.74404,0.06727
4225.81532,0.06712
4223.88661,0.06662
4221.95789,0.06590
4220.02918,0.06523
4218.10046,0.06488
4216.17175,0.06471
4214.24303,0.06474
4212.31432,0.06507
4210.38560,0.06540
4208.45689,0.06551
4206.52817,0.06552
4204.59946,0.06547
4202.67074,0.06521
4200.74202,0.06467
4198.81331,0.06414
4196.88459,0.06399
4194.95588,0.06411
4193.02716,0.06415
4191.09845,0.06371
4189.16973,0.06271
4187.24102,0.06193
4185.31230,0.06212
4183.38359,0.06260
4181.45487,0.06251
4179.52616,0.06245
4177.59744,0.06287
4175.66873,0.06307
4173.74001,0.06296
4171.81129,0.06330
4169.88258,0.06392
4167.95386,0.06391
4166.02515,0.06330
4164.09643,0.06312
4162.16772,0.06377
4160.23900,0.06487
4158.31029,0.06618
4156.38157,0.06721
4154.45286,0.06770
4152.52414,0.06837
4150.59543,0.06964
4148.66671,0.07075
4146.73799,0.07121
4144.80928,0.07132
4142.88056,0.07113
4140.95185,0.07056
4139.02313,0.07008
4137.09442,0.07010
4135.16570,0.07036
4133.23699,0.07046
4131.30827,0.07043
4129.37956,0.07039
4127.45084,0.07054
4125.52213,0.07094
4123.59341,0.07089
4121.66470,0.06984
4119.73598,0.06846
4117.80726,0.06760
4115.87855,0.06718
4113.94983,0.06674
4112.02112,0.06603
4110.09240,0.06520
4108.16369,0.06455
4106.23497,0.06386
4104.30626,0.06290
4102.37754,0.06203
4100.44883,0.06121
4098.52011,0.06013
4096.59140,0.05919
4094.66268,0.05873
4092.73397,0.05839
4090.80525,0.05806
4088.87653,0.05812
4086.94782,0.05819
4085.01910,0.05761
4083.09039,0.05709
4081.16167,0.05739
4079.23296,0.05793
4077.30424,0.05806
4075.37553,0.05788
4073.44681,0.05767
4071.51810,0.05755
4069.58938,0.05737
4067.66067,0.05723
4065.73195,0.05752
4063.80323,0.05811
4061.87452,0.05847
4059.94580,0.05864
4058.01709,0.05879
4056.08837,0.05916
4054.15966,0.06000
4052.23094,0.06081
4050.30223,0.06129
4048.37351,0.06224
4046.44480,0.06388
4044.51608,0.06541
4042.58737,0.06674
4040.65865,0.06814
4038.72994,0.06929
4036.80122,0.07017
4034.87250,0.07098
4032.94379,0.07158
4031.01507,0.07169
4029.08636,0.07145
4027.15764,0.07124
4025.22893,0.07103
4023.30021,0.07081
4021.37150,0.07087
4019.44278,0.07135
4017.51407,0.07162
4015.58535,0.07107
4013.65664,0.07047
4011.72792,0.07063
4009.79921,0.07101
4007.87049,0.07104
4005.94177,0.07096
4004.01306,0.07121
4002.08434,0.07171
4000.15563,0.07193
3998.22691,0.07175
3996.29820,0.07143
3994.36948,0.07124
3992.44077,0.07118
3990.51205,0.07090
3988.58334,0.07058
3986.65462,0.07066
3984.72591,0.07077
3982.79719,0.07071
3980.86848,0.07099
3978.93976,0.07164
3977.01104,0.07237
3975.08233,0.07322
3973.15361,0.07403
3971.22490,0.07468
3969.29618,0.07523
3967.36747,0.07571
3965.43875,0.07599
3963.51004,0.07599
3961.58132,0.07618
3959.65261,0.07667
3957.72389,0.07668
3955.79518,0.07593
3953.86646,0.07525
3951.93774,0.07512
3950.00903,0.07496
3948.08031,0.07444
3946.15160,0.07420
3944.22288,0.07445
3942.29417,0.07469
3940.36545,0.07457
3938.43674,0.07431
3936.50802,0.07414
3934.57931,0.07410
3932.65059,0.07432
3930.72188,0.07496
3928.79316,0.07546
3926.86445,0.07517
3924.93573,0.07451
3923.00701,0.07416
3921.07830,0.07395
3919.14958,0.07350
3917.22087,0.07284
3915.29215,0.07245
3913.36344,0.07246
3911.43472,0.07244
3909.50601,0.07217
3907.57729,0.07182
3905.64858,0.07140
3903.71986,0.07088
3901.79115,0.07054
3899.86243,0.07045
3897.93372,0.07036
3896.00500,0.07024
3894.07628,0.07021
3892.14757,0.07025
3890.21885,0.07013
3888.29014,0.06965
3886.36142,0.06897
3884.43271,0.06856
3882.50399,0.06832
3880.57528,0.06827
3878.64656,0.06895
3876.71785,0.06997
3874.78913,0.07096
3872.86042,0.07193
3870.93170,0.07313
3869.00298,0.07474
3867.07427,0.07595
3865.14555,0.07677
3863.21684,0.07800
3861.28812,0.07964
3859.35941,0.08115
3857.43069,0.08236
3855.50198,0.08347
3853.57326,0.08493
3851.64455,0.08633
3849.71583,0.08717
3847.78712,0.08775
3845.85840,0.08799
3843.92969,0.08803
3842.00097,0.08827
3840.07225,0.08857
3838.14354,0.08886
3836.21482,0.08949
3834.28611,0.09012
3832.35739,0.09048
3830.42868,0.09066
3828.49996,0.09075
3826.57125,0.09080
3824.64253,0.09078
3822.71382,0.09065
3820.78510,0.09047
3818.85639,0.09008
3816.92767,0.08941
3814.99896,0.08885
3813.07024,0.08869
3811.14152,0.08881
3809.21281,0.08922
3807.28409,0.09017
3805.35538,0.09123
3803.42666,0.09153
3801.49795,0.09174
3799.56923,0.09264
3797.64052,0.09351
3795.71180,0.09413
3793.78309,0.09473
3791.85437,0.09548
3789.92566,0.09651
3787.99694,0.09771
3786.06823,0.09877
3784.13951,0.09945
3782.21079,0.09967
3780.28208,0.09967
3778.35336,0.09975
3776.42465,0.09990
3774.49593,0.09988
3772.56722,0.09931
3770.63850,0.09806
3768.70979,0.09701
3766.78107,0.09619
3764.85236,0.09461
3762.92364,0.09281
3760.99493,0.09136
3759.06621,0.08986
3757.13749,0.08828
3755.20878,0.08679
3753.28006,0.08538
3751.35135,0.08436
3749.42263,0.08440
3747.49392,0.08457
3745.56520,0.08435
3743.63649,0.08435
3741.70777,0.08472
3739.77906,0.08521
3737.85034,0.08568
3735.92163,0.08606
3733.99291,0.08683
3732.06420,0.08810
3730.13548,0.08901
3728.20676,0.08920
3726.27805,0.08880
3724.34933,0.08823
3722.42062,0.08807
3720.49190,0.08794
3718.56319,0.08705
3716.63447,0.08565
3714.70576,0.08432
3712.77704,0.08262
3710.84833,0.07994
3708.91961,0.07772
3706.99090,0.07639
3705.06218,0.07517
3703.13347,0.07363
3701.20475,0.07165
3699.27603,0.06977
3697.34732,0.06832
3695.41860,0.06736
3693.48989,0.06670
3691.56117,0.06560
3689.63246,0.06380
3687.70374,0.06264
3685.77503,0.06222
3683.84631,0.06152
3681.91760,0.06053
3679.98888,0.05976
3678.06017,0.05933
3676.13145,0.05930
3674.20273,0.05991
3672.27402,0.05998
3670.34530,0.05953
3668.41659,0.05973
3666.48787,0.06020
3664.55916,0.06024
3662.63044,0.06021
3660.70173,0.06065
3658.77301,0.06144
3656.84430,0.06225
3654.91558,0.06294
3652.98687,0.06330
3651.05815,0.06359
3649.12944,0.06477
3647.20072,0.06670
3645.27200,0.06806
3643.34329,0.06919
3641.41457,0.07033
3639.48586,0.07119
3637.55714,0.07192
3635.62843,0.07281
3633.69971,0.07369
3631.77100,0.07444
3629.84228,0.07545
3627.91357,0.07688
3625.98485,0.07810
3624.05614,0.07906
3622.12742,0.07985
3620.19871,0.08049
3618.26999,0.08130
3616.34127,0.08218
3614.41256,0.08274
3612.48384,0.08309
3610.55513,0.08308
3608.62641,0.08239
3606.69770,0.08129
3604.76898,0.07992
3602.84027,0.07804
3600.91155,0.07570
3598.98284,0.07341
3597.05412,0.07136
3595.12541,0.06941
3593.19669,0.06788
3591.26798,0.06669
3589.33926,0.06532
3587.41054,0.06370
3585.48183,0.06264
3583.55311,0.06226
3581.62440,0.06217
3579.69568,0.06219
3577.76697,0.06203
3575.83825,0.06152
3573.90954,0.06084
3571.98082,0.06037
3570.05211,0.06017
3568.12339,0.06008
3566.19468,0.06022
3564.26596,0.06044
3562.33724,0.06049
3560.40853,0.06029
3558.47981,0.05976
3556.55110,0.05942
3554.62238,0.05948
3552.69367,0.05942
3550.76495,0.05909
3548.83624,0.05880
3546.90752,0.05862
3544.97881,0.05864
3543.05009,0.05869
3541.12138,0.05845
3539.19266,0.05832
3537.26395,0.05857
3535.33523,0.05869
3533.40651,0.05826
3531.47780,0.05756
3529.54908,0.05722
3527.62037,0.05763
3525.69165,0.05846
3523.76294,0.05890
3521.83422,0.05868
3519.90551,0.05846
3517.97679,0.05871
3516.04808,0.05930
3514.11936,0.06002
3512.19065,0.06070
3510.26193,0.06116
3508.33322,0.06165
3506.40450,0.06242
3504.47578,0.06350
3502.54707,0.06477
3500.61835,0.06594
3498.68964,0.06678
3496.76092,0.06739
3494.83221,0.06788
3492.90349,0.06832
3490.97478,0.06876
3489.04606,0.06933
3487.11735,0.06994
3485.18863,0.07044
3483.25992,0.07102
3481.33120,0.07181
3479.40248,0.07244
3477.47377,0.07271
3475.54505,0.07283
3473.61634,0.07328
3471.68762,0.07445
3469.75891,0.07554
3467.83019,0.07593
3465.90148,0.07635
3463.97276,0.07708
3462.04405,0.07770
3460.11533,0.07824
3458.18662,0.07889
3456.25790,0.07957
3454.32919,0.08009
3452.40047,0.08058
3450.47175,0.08124
3448.54304,0.08209
3446.61432,0.08302
3444.68561,0.08369
3442.75689,0.08439
3440.82818,0.08542
3438.89946,0.08627
3436.97075,0.08674
3435.04203,0.08720
3433.11332,0.08789
3431.18460,0.08883
3429.25589,0.08991
3427.32717,0.09073
3425.39846,0.09114
3423.46974,0.09125
3421.54102,0.09111
3419.61231,0.09106
3417.68359,0.09142
3415.75488,0.09193
3413.82616,0.09206
3411.89745,0.09175
3409.96873,0.09141
3408.04002,0.09112
3406.11130,0.09077
3404.18259,0.09052
3402.25387,0.09041
3400.32516,0.09023
3398.39644,0.08986
3396.46773,0.08928
3394.53901,0.08844
3392.61029,0.08751
3390.68158,0.08688
3388.75286,0.08647
3386.82415,0.08577
3384.89543,0.08481
3382.96672,0.08409
3381.03800,0.08357
3379.10929,0.08290
3377.18057,0.08215
3375.25186,0.08173
3373.32314,0.08176
3371.39443,0.08175
3369.46571,0.08161
3367.53699,0.08185
3365.60828,0.08245
3363.67956,0.08287
3361.75085,0.08301
3359.82213,0.08325
3357.89342,0.08380
3355.96470,0.08415
3354.03599,0.08377
3352.10727,0.08312
3350.17856,0.08295
3348.24984,0.08314
3346.32113,0.08326
3344.39241,0.08321
3342.46370,0.08312
3340.53498,0.08310
3338.60626,0.08309
3336.67755,0.08297
3334.74883,0.08255
3332.82012,0.08188
3330.89140,0.08143
3328.96269,0.08129
3327.03397,0.08100
3325.10526,0.08036
3323.17654,0.07941
3321.24783,0.07839
3319.31911,0.07760
3317.39040,0.07676
3315.46168,0.07564
3313.53297,0.07464
3311.60425,0.07397
3309.67553,0.07345
3307.74682,0.07280
3305.81810,0.07188
3303.88939,0.07098
3301.96067,0.07040
3300.03196,0.07002
3298.10324,0.06961
3296.17453,0.06922
3294.24581,0.06908
3292.31710,0.06933
3290.38838,0.06978
3288.45967,0.06972
3286.53095,0.06881
3284.60223,0.06771
3282.67352,0.06715
3280.74480,0.06711
3278.81609,0.06718
3276.88737,0.06729
3274.95866,0.06745
3273.02994,0.06737
3271.10123,0.06702
3269.17251,0.06650
3267.24380,0.06586
3265.31508,0.06530
3263.38637,0.06495
3261.45765,0.06479
3259.52894,0.06459
3257.60022,0.06433
3255.67150,0.06444
3253.74279,0.06491
3251.81407,0.06507
3249.88536,0.06477
3247.95664,0.06440
3246.02793,0.06414
3244.09921,0.06400
3242.17050,0.06395
3240.24178,0.06380
3238.31307,0.06358
3236.38435,0.06345
3234.45564,0.06323
3232.52692,0.06293
3230.59821,0.06309
3228.66949,0.06347
3226.74077,0.06322
3224.81206,0.06262
3222.88334,0.06245
3220.95463,0.06270
3219.02591,0.06290
3217.09720,0.06263
3215.16848,0.06179
3213.23977,0.06090
3211.31105,0.06058
3209.38234,0.06075
3207.45362,0.06088
3205.52491,0.06071
3203.59619,0.06041
3201.66748,0.06003
3199.73876,0.05965
3197.81004,0.05951
3195.88133,0.05939
3193.95261,0.05913
3192.02390,0.05897
3190.09518,0.05898
3188.16647,0.05905
3186.23775,0.05928
3184.30904,0.05960
3182.38032,0.05990
3180.45161,0.06021
3178.52289,0.06010
3176.59418,0.05938
3174.66546,0.05891
3172.73674,0.05911
3170.80803,0.05945
3168.87931,0.05953
3166.95060,0.05959
3165.02188,0.05990
3163.09317,0.06030
3161.16445,0.06049
3159.23574,0.06033
3157.30702,0.05989
3155.37831,0.05946
3153.44959,0.05936
3151.52088,0.05964
3149.59216,0.05993
3147.66345,0.05998
3145.73473,0.06004
3143.80601,0.05998
3141.87730,0.05963
3139.94858,0.05945
3138.01987,0.05950
3136.09115,0.05927
3134.16244,0.05875
3132.23372,0.05834
3130.30501,0.05834
3128.37629,0.05862
3126.44758,0.05874
3124.51886,0.05861
3122.59015,0.05846
3120.66143,0.05845
3118.73272,0.05849
3116.80400,0.05847
3114.87528,0.05842
3112.94657,0.05856
3111.01785,0.05893
3109.08914,0.05913
3107.16042,0.05912
3105.23171,0.05923
3103.30299,0.05922
3101.37428,0.05871
3099.44556,0.05821
3097.51685,0.05831
3095.58813,0.05870
3093.65942,0.05889
3091.73070,0.05891
3089.80198,0.05887
3087.87327,0.05884
3085.94455,0.05895
3084.01584,0.05900
3082.08712,0.05877
3080.15841,0.05861
3078.22969,0.05871
3076.30098,0.05859
3074.37226,0.05825
3072.44355,0.05816
3070.51483,0.05816
3068.58612,0.05814
3066.65740,0.05835
3064.72869,0.05873
3062.79997,0.05886
3060.87125,0.05875
3058.94254,0.05873
3057.01382,0.05888
3055.08511,0.05895
3053.15639,0.05884
3051.22768,0.05872
3049.29896,0.05874
3047.37025,0.05886
3045.44153,0.05897
3043.51282,0.05913
3041.58410,0.05947
3039.65539,0.05981
3037.72667,0.05994
3035.79796,0.05992
3033.86924,0.05974
3031.94052,0.05943
3030.01181,0.05919
3028.08309,0.05908
3026.15438,0.05889
3024.22566,0.05859
3022.29695,0.05826
3020.36823,0.05808
3018.43952,0.05826
3016.51080,0.05855
3014.58209,0.05851
3012.65337,0.05809
3010.72466,0.05770
3008.79594,0.05774
3006.86723,0.05809
3004.93851,0.05833
3003.00979,0.05830
3001.08108,0.05808
2999.15236,0.05784
2997.22365,0.05788
2995.29493,0.05805
2993.36622,0.05785
2991.43750,0.05741
2989.50879,0.05707
2987.58007,0.05699
2985.65136,0.05724
2983.72264,0.05738
2981.79393,0.05713
2979.86521,0.05703
2977.93649,0.05740
2976.00778,0.05785
2974.07906,0.05827
2972.15035,0.05865
2970.22163,0.05888
2968.29292,0.05919
2966.36420,0.05992
2964.43549,0.06069
2962.50677,0.06096
2960.57806,0.06092
2958.64934,0.06100
2956.72063,0.06121
2954.79191,0.06130
2952.86320,0.06111
2950.93448,0.06072
2949.00576,0.06027
2947.07705,0.06001
2945.14833,0.06011
2943.21962,0.06042
2941.29090,0.06056
2939.36219,0.06043
2937.43347,0.06031
2935.50476,0.06041
2933.57604,0.06061
2931.64733,0.06069
2929.71861,0.06082
2927.78990,0.06115
2925.86118,0.06111
2923.93247,0.06060
2922.00375,0.06031
2920.07503,0.06034
2918.14632,0.06042
2916.21760,0.06050
2914.28889,0.06048
2912.36017,0.06054
2910.43146,0.06081
2908.50274,0.06093
2906.57403,0.06067
2904.64531,0.06037
2902.71660,0.06027
2900.78788,0.06033
2898.85917,0.06034
2896.93045,0.06035
2895.00173,0.06049
2893.07302,0.06061
2891.14430,0.06061
2889.21559,0.06064
2887.28687,0.06066
2885.35816,0.06041
2883.42944,0.06001
2881.50073,0.05982
2879.57201,0.05982
2877.64330,0.06001
2875.71458,0.06043
2873.78587,0.06070
2871.85715,0.06065
2869.92844,0.06041
2867.99972,0.06029
2866.07100,0.06053
2864.14229,0.06093
2862.21357,0.06114
2860.28486,0.06112
2858.35614,0.06098
2856.42743,0.06093
2854.49871,0.06103
2852.57000,0.06113
2850.64128,0.06110
2848.71257,0.06088
2846.78385,0.06060
2844.85514,0.06062
2842.92642,0.06100
2840.99771,0.06156
2839.06899,0.06198
2837.14027,0.06202
2835.21156,0.06204
2833.28284,0.06233
2831.35413,0.06256
2829.42541,0.06253
2827.49670,0.06248
2825.56798,0.06249
2823.63927,0.06236
2821.71055,0.06214
2819.78184,0.06208
2817.85312,0.06225
2815.92441,0.06245
2813.99569,0.06242
2812.06698,0.06220
2810.13826,0.06203
2808.20954,0.06200
2806.28083,0.06215
2804.35211,0.06258
2802.42340,0.06318
2800.49468,0.06363
2798.56597,0.06370
2796.63725,0.06349
2794.70854,0.06342
2792.77982,0.06364
2790.85111,0.06369
2788.92239,0.06319
2786.99368,0.06240
2785.06496,0.06184
2783.13624,0.06160
2781.20753,0.06140
2779.27881,0.06128
2777.35010,0.06141
2775.42138,0.06162
2773.49267,0.06188
2771.56395,0.06229
2769.63524,0.06275
2767.70652,0.06317
2765.77781,0.06371
2763.84909,0.06436
2761.92038,0.06504
2759.99166,0.06588
2758.06295,0.06707
2756.13423,0.06853
2754.20551,0.07004
2752.27680,0.07125
2750.34808,0.07191
2748.41937,0.07211
2746.49065,0.07223
2744.56194,0.07233
2742.63322,0.07216
2740.70451,0.07151
2738.77579,0.07041
2736.84708,0.06927
2734.91836,0.06858
2732.98965,0.06834
2731.06093,0.06829
2729.13222,0.06822
2727.20350,0.06815
2725.27478,0.06826
2723.34607,0.06836
2721.41735,0.06806
2719.48864,0.06741
2717.55992,0.06692
2715.63121,0.06686
2713.70249,0.06727
2711.77378,0.06817
2709.84506,0.06947
2707.91635,0.07098
2705.98763,0.07255
2704.05892,0.07406
2702.13020,0.07545
2700.20149,0.07673
2698.27277,0.07803
2696.34405,0.07938
2694.41534,0.08053
2692.48662,0.08140
2690.55791,0.08212
2688.62919,0.08257
2686.70048,0.08287
2684.77176,0.08335
2682.84305,0.08383
2680.91433,0.08395
2678.98562,0.08363
2677.05690,0.08296
2675.12819,0.08221
2673.19947,0.08169
2671.27075,0.08158
2669.34204,0.08172
2667.41332,0.08171
2665.48461,0.08169
2663.55589,0.08217
2661.62718,0.08311
2659.69846,0.08416
2657.76975,0.08520
2655.84103,0.08640
2653.91232,0.08790
2651.98360,0.08965
2650.05489,0.09147
2648.12617,0.09308
2646.19746,0.09414
2644.26874,0.09477
2642.34002,0.09525
2640.41131,0.09537
2638.48259,0.09487
2636.55388,0.09389
2634.62516,0.09252
2632.69645,0.09075
2630.76773,0.08863
2628.83902,0.08619
2626.91030,0.08352
2624.98159,0.08071
2623.05287,0.07783
2621.12416,0.07510
2619.19544,0.07297
2617.26673,0.07162
2615.33801,0.07072
2613.40929,0.07006
2611.48058,0.06980
2609.55186,0.06976
2607.62315,0.06953
2605.69443,0.06915
2603.76572,0.06884
2601.83700,0.06867
2599.90829,0.06865
2597.97957,0.06872
2596.05086,0.06887
2594.12214,0.06902
2592.19343,0.06905
2590.26471,0.06896
2588.33599,0.06891
2586.40728,0.06910
2584.47856,0.06964
2582.54985,0.07045
2580.62113,0.07107
2578.69242,0.07129
2576.76370,0.07151
2574.83499,0.07212
2572.90627,0.07321
2570.97756,0.07459
2569.04884,0.07610
2567.12013,0.07762
2565.19141,0.07892
2563.26270,0.07995
2561.33398,0.08082
2559.40526,0.08132
2557.47655,0.08118
2555.54783,0.08075
2553.61912,0.08029
2551.69040,0.07963
2549.76169,0.07874
2547.83297,0.07780
2545.90426,0.07694
2543.97554,0.07611
2542.04683,0.07509
2540.11811,0.07379
2538.18940,0.07254
2536.26068,0.07156
2534.33197,0.07084
2532.40325,0.07041
2530.47453,0.07018
2528.54582,0.07007
2526.61710,0.07029
2524.68839,0.07078
2522.75967,0.07120
2520.83096,0.07154
2518.90224,0.07178
2516.97353,0.07170
2515.04481,0.07131
2513.11610,0.07078
2511.18738,0.06999
2509.25867,0.06903
2507.32995,0.06838
2505.40124,0.06820
2503.47252,0.06792
2501.54380,0.06714
2499.61509,0.06611
2497.68637,0.06522
2495.75766,0.06452
2493.82894,0.06391
2491.90023,0.06335
2489.97151,0.06294
2488.04280,0.06274
2486.11408,0.06273
2484.18537,0.06284
2482.25665,0.06290
2480.32794,0.06272
2478.39922,0.06239
2476.47050,0.06214
2474.54179,0.06201
2472.61307,0.06194
2470.68436,0.06189
2468.75564,0.06176
2466.82693,0.06158
2464.89821,0.06153
2462.96950,0.06169
2461.04078,0.06192
2459.11207,0.06204
2457.18335,0.06209
2455.25464,0.06214
2453.32592,0.06203
2451.39721,0.06190
2449.46849,0.06209
2447.53977,0.06233
2445.61106,0.06214
2443.68234,0.06179
2441.75363,0.06185
2439.82491,0.06221
2437.89620,0.06238
2435.96748,0.06220
2434.03877,0.06198
2432.11005,0.06192
2430.18134,0.06193
2428.25262,0.06191
2426.32391,0.06188
2424.39519,0.06179
2422.46648,0.06165
2420.53776,0.06162
2418.60904,0.06168
2416.68033,0.06165
2414.75161,0.06148
2412.82290,0.06121
2410.89418,0.06101
2408.96547,0.06116
2407.03675,0.06147
2405.10804,0.06152
2403.17932,0.06139
2401.25061,0.06130
2399.32189,0.06122
2397.39318,0.06130
2395.46446,0.06166
2393.53574,0.06193
2391.60703,0.06199
2389.67831,0.06205
2387.74960,0.06213
2385.82088,0.06216
2383.89217,0.06228
2381.96345,0.06250
2380.03474,0.06272
2378.10602,0.06298
2376.17731,0.06335
2374.24859,0.06381
2372.31988,0.06437
2370.39116,0.06493
2368.46245,0.06518
2366.53373,0.06529
2364.60501,0.06581
2362.67630,0.06676
2360.74758,0.06756
2358.81887,0.06780
2356.89015,0.06779
2354.96144,0.06791
2353.03272,0.06800
2351.10401,0.06776
2349.17529,0.06735
2347.24658,0.06701
2345.31786,0.06672
2343.38915,0.06634
2341.46043,0.06604
2339.53172,0.06601
2337.60300,0.06610
2335.67428,0.06608
2333.74557,0.06592
2331.81685,0.06544
2329.88814,0.06469
2327.95942,0.06414
2326.03071,0.06400
2324.10199,0.06405
2322.17328,0.06411
2320.24456,0.06411
2318.31585,0.06422
2316.38713,0.06460
2314.45842,0.06508
2312.52970,0.06531
2310.60099,0.06525
2308.67227,0.06510
2306.74355,0.06490
2304.81484,0.06464
2302.88612,0.06426
2300.95741,0.06379
2299.02869,0.06351
2297.09998,0.06350
2295.17126,0.06357
2293.24255,0.06357
2291.31383,0.06355
2289.38512,0.06351
2287.45640,0.06329
2285.52769,0.06289
2283.59897,0.06255
2281.67025,0.06231
2279.74154,0.06201
2277.81282,0.06172
2275.88411,0.06155
2273.95539,0.06142
2272.02668,0.06138
2270.09796,0.06144
2268.16925,0.06142
2266.24053,0.06127
2264.31182,0.06111
2262.38310,0.06095
2260.45439,0.06086
2258.52567,0.06092
2256.59696,0.06100
2254.66824,0.06108
2252.73952,0.06124
2250.81081,0.06134
2248.88209,0.06126
2246.95338,0.06121
2245.02466,0.06132
2243.09595,0.06138
2241.16723,0.06128
2239.23852,0.06118
2237.30980,0.06118
2235.38109,0.06116
2233.45237,0.06107
2231.52366,0.06100
2229.59494,0.06106
2227.66623,0.06123
2225.73751,0.06136
2223.80879,0.06133
2221.88008,0.06122
2219.95136,0.06119
2218.02265,0.06125
2216.09393,0.06126
2214.16522,0.06114
2212.23650,0.06104
2210.30779,0.06099
2208.37907,0.06104
2206.45036,0.06118
2204.52164,0.06127
2202.59293,0.06124
2200.66421,0.06115
2198.73549,0.06108
2196.80678,0.06109
2194.87806,0.06102
2192.94935,0.06093
2191.02063,0.06102
2189.09192,0.06114
2187.16320,0.06112
2185.23449,0.06122
2183.30577,0.06160
2181.37706,0.06199
2179.44834,0.06217
2177.51963,0.06230
2175.59091,0.06252
2173.66220,0.06254
2171.73348,0.06236
2169.80476,0.06243
2167.87605,0.06293
2165.94733,0.06360
2164.01862,0.06430
2162.08990,0.06523
2160.16119,0.06638
2158.23247,0.06762
2156.30376,0.06896
2154.37504,0.07034
2152.44633,0.07153
2150.51761,0.07239
2148.58890,0.07296
2146.66018,0.07311
2144.73147,0.07277
2142.80275,0.07210
2140.87403,0.07128
2138.94532,0.07038
2137.01660,0.06938
2135.08789,0.06835
2133.15917,0.06749
2131.23046,0.06676
2129.30174,0.06601
2127.37303,0.06528
2125.44431,0.06456
2123.51560,0.06392
2121.58688,0.06348
2119.65817,0.06311
2117.72945,0.06268
2115.80074,0.06233
2113.87202,0.06224
2111.94330,0.06228
2110.01459,0.06215
2108.08587,0.06179
2106.15716,0.06136
2104.22844,0.06103
2102.29973,0.06099
2100.37101,0.06117
2098.44230,0.06130
2096.51358,0.06126
2094.58487,0.06104
2092.65615,0.06068
2090.72744,0.06037
2088.79872,0.06029
2086.87000,0.06039
2084.94129,0.06047
2083.01257,0.06049
2081.08386,0.06052
2079.15514,0.06060
2077.22643,0.06056
2075.29771,0.06032
2073.36900,0.06017
2071.44028,0.06027
2069.51157,0.06041
2067.58285,0.06055
2065.65414,0.06065
2063.72542,0.06055
2061.79671,0.06039
2059.86799,0.06028
2057.93927,0.06017
2056.01056,0.06004
2054.08184,0.05993
2052.15313,0.05994
2050.22441,0.06009
2048.29570,0.06020
2046.36698,0.06026
2044.43827,0.06042
2042.50955,0.06065
2040.58084,0.06071
2038.65212,0.06054
2036.72341,0.06034
2034.79469,0.06034
2032.86598,0.06046
2030.93726,0.06056
2029.00854,0.06060
2027.07983,0.06054
2025.15111,0.06035
2023.22240,0.06022
2021.29368,0.06027
2019.36497,0.06035
2017.43625,0.06034
2015.50754,0.06026
2013.57882,0.06015
2011.65011,0.06006
2009.72139,0.06008
2007.79268,0.06017
2005.86396,0.06023
2003.93524,0.06027
2002.00653,0.06020
2000.07781,0.05999
1998.14910,0.05984
1996.22038,0.05985
1994.29167,0.05982
1992.36295,0.05979
1990.43424,0.05998
1988.50552,0.06021
1986.57681,0.06022
1984.64809,0.06015
1982.71938,0.06016
1980.79066,0.06027
1978.86195,0.06045
1976.93323,0.06061
1975.00451,0.06058
1973.07580,0.06040
1971.14708,0.06025
1969.21837,0.06020
1967.28965,0.06015
1965.36094,0.06012
1963.43222,0.06010
1961.50351,0.06010
1959.57479,0.06002
1957.64608,0.05979
1955.71736,0.05956
1953.78865,0.05950
1951.85993,0.05945
1949.93122,0.05934
1948.00250,0.05933
1946.07378,0.05946
1944.14507,0.05955
1942.21635,0.05953
1940.28764,0.05957
1938.35892,0.05964
1936.43021,0.05958
1934.50149,0.05935
1932.57278,0.05913
1930.64406,0.05913
1928.71535,0.05921
1926.78663,0.05913
1924.85792,0.05898
1922.92920,0.05892
1921.00049,0.05891
1919.07177,0.05876
1917.14305,0.05863
1915.21434,0.05870
1913.28562,0.05866
1911.35691,0.05838
1909.42819,0.05814
1907.49948,0.05807
1905.57076,0.05804
1903.64205,0.05802
1901.71333,0.05813
1899.78462,0.05829
1897.85590,0.05826
1895.92719,0.05808
1893.99847,0.05805
1892.06975,0.05822
1890.14104,0.05825
1888.21232,0.05806
1886.28361,0.05797
1884.35489,0.05795
1882.42618,0.05790
1880.49746,0.05784
1878.56875,0.05779
1876.64003,0.05785
1874.71132,0.05798
1872.78260,0.05807
1870.85389,0.05805
1868.92517,0.05789
1866.99646,0.05769
1865.06774,0.05756
1863.13902,0.05736
1861.21031,0.05705
1859.28159,0.05684
1857.35288,0.05677
1855.42416,0.05669
1853.49545,0.05653
1851.56673,0.05641
1849.63802,0.05631
1847.70930,0.05611
1845.78059,0.05587
1843.85187,0.05569
1841.92316,0.05565
1839.99444,0.05558
1838.06573,0.05530
1836.13701,0.05497
1834.20829,0.05480
1832.27958,0.05468
1830.35086,0.05441
1828.42215,0.05404
1826.49343,0.05369
1824.56472,0.05329
1822.63600,0.05285
1820.70729,0.05243
1818.77857,0.05198
1816.84986,0.05154
1814.92114,0.05115
1812.99243,0.05075
1811.06371,0.05022
1809.13499,0.04951
1807.20628,0.04868
1805.27756,0.04779
1803.34885,0.04689
1801.42013,0.04592
1799.49142,0.04482
1797.56270,0.04381
1795.63399,0.04304
1793.70527,0.04248
1791.77656,0.04247
1789.84784,0.04346
1787.91913,0.04509
1785.99041,0.04742
1784.06170,0.05078
1782.13298,0.05514
1780.20426,0.06037
1778.27555,0.06581
1776.34683,0.07085
1774.41812,0.07576
1772.48940,0.08105
1770.56069,0.08543
1768.63197,0.08754
1766.70326,0.08799
1764.77454,0.08738
1762.84583,0.08572
1760.91711,0.08319
1758.98840,0.08077
1757.05968,0.07852
1755.13097,0.07658
1753.20225,0.07520
1751.27353,0.07375
1749.34482,0.07201
1747.41610,0.07070
1745.48739,0.06995
1743.55867,0.06951
1741.62996,0.06899
1739.70124,0.06830
1737.77253,0.06797
1735.84381,0.06796
1733.91510,0.06760
1731.98638,0.06698
1730.05767,0.06668
1728.12895,0.06645
1726.20024,0.06612
1724.27152,0.06570
1722.34280,0.06535
1720.41409,0.06510
1718.48537,0.06480
1716.55666,0.06442
1714.62794,0.06407
1712.69923,0.06371
1710.77051,0.06349
1708.84180,0.06343
1706.91308,0.06336
1704.98437,0.06325
1703.05565,0.06315
1701.12694,0.06294
1699.19822,0.06254
1697.26950,0.06222
1695.34079,0.06197
1693.41207,0.06177
1691.48336,0.06158
1689.55464,0.06135
1687.62593,0.06128
1685.69721,0.06132
1683.76850,0.06116
1681.83978,0.06093
1679.91107,0.06077
1677.98235,0.06052
1676.05364,0.06014
1674.12492,0.05983
1672.19621,0.05983
1670.26749,0.05995
1668.33877,0.05988
1666.41006,0.05976
1664.48134,0.05973
1662.55263,0.05977
1660.62391,0.05982
1658.69520,0.05976
1656.76648,0.05972
1654.83777,0.05975
1652.90905,0.05947
1650.98034,0.05927
1649.05162,0.05945
1647.12291,0.05957
1645.19419,0.05943
1643.26548,0.05923
1641.33676,0.05913
1639.40804,0.05920
1637.47933,0.05923
1635.55061,0.05906
1633.62190,0.05891
1631.69318,0.05877
1629.76447,0.05860
1627.83575,0.05841
1625.90704,0.05824
1623.97832,0.05804
1622.04961,0.05777
1620.12089,0.05771
1618.19218,0.05788
1616.26346,0.05790
1614.33474,0.05778
1612.40603,0.05777
1610.47731,0.05768
1608.54860,0.05741
1606.61988,0.05734
1604.69117,0.05767
1602.76245,0.05811
1600.83374,0.05831
1598.90502,0.05835
1596.97631,0.05838
1595.04759,0.05840
1593.11888,0.05846
1591.19016,0.05867
1589.26145,0.05892
1587.33273,0.05896
1585.40401,0.05888
1583.47530,0.05872
1581.54658,0.05840
1579.61787,0.05810
1577.68915,0.05790
1575.76044,0.05764
1573.83172,0.05748
1571.90301,0.05740
1569.97429,0.05700
1568.04558,0.05633
1566.11686,0.05583
1564.18815,0.05568
1562.25943,0.05592
1560.33072,0.05604
1558.40200,0.05524
1556.47328,0.05484
1554.54457,0.05493
1552.61585,0.05476
1550.68714,0.05435
1548.75842,0.05404
1546.82971,0.05411
1544.90099,0.05439
1542.97228,0.05440
1541.04356,0.05371
1539.11485,0.05272
1537.18613,0.05248
1535.25742,0.05232
1533.32870,0.05178
1531.39999,0.05121
1529.47127,0.05069
1527.54255,0.05000
1525.61384,0.04934
1523.68512,0.04871
1521.75641,0.04765
1519.82769,0.04635
1517.89898,0.04501
1515.97026,0.04340
1514.04155,0.04259
1512.11283,0.04330
1510.18412,0.04549
1508.25540,0.05093
1506.32669,0.06245
1504.39797,0.06991
1502.46925,0.07230
1500.54054,0.07333
1498.61182,0.07352
1496.68311,0.07271
1494.75439,0.07133
1492.82568,0.07002
1490.89696,0.06861
1488.96825,0.06695
1487.03953,0.06567
1485.11082,0.06484
1483.18210,0.06405
1481.25339,0.06321
1479.32467,0.06251
1477.39596,0.06196
1475.46724,0.06125
1473.53852,0.06040
1471.60981,0.06003
1469.68109,0.06017
1467.75238,0.06033
1465.82366,0.06052
1463.89495,0.06078
1461.96623,0.06087
1460.03752,0.06082
1458.10880,0.06062
1456.18009,0.05999
1454.25137,0.05943
1452.32266,0.05924
1450.39394,0.05921
1448.46523,0.05905
1446.53651,0.05870
1444.60779,0.05842
1442.67908,0.05830
1440.75036,0.05824
1438.82165,0.05801
1436.89293,0.05740
1434.96422,0.05687
1433.03550,0.05687
1431.10679,0.05689
1429.17807,0.05654
1427.24936,0.05604
1425.32064,0.05551
1423.39193,0.05493
1421.46321,0.05447
1419.53449,0.05388
1417.60578,0.05303
1415.67706,0.05263
1413.74835,0.05289
1411.81963,0.05361
1409.89092,0.05459
1407.96220,0.05554
1406.03349,0.05609
1404.10477,0.05607
1402.17606,0.05576
1400.24734,0.05536
1398.31863,0.05479
1396.38991,0.05427
1394.46120,0.05394
1392.53248,0.05356
1390.60376,0.05321
1388.67505,0.05316
1386.74633,0.05354
1384.81762,0.05398
1382.88890,0.05408
1380.96019,0.05378
1379.03147,0.05319
1377.10276,0.05258
1375.17404,0.05199
1373.24533,0.05126
1371.31661,0.05053
1369.38790,0.05009
1367.45918,0.05023
1365.53047,0.05112
1363.60175,0.05244
1361.67303,0.05326
1359.74432,0.05306
1357.81560,0.05243
1355.88689,0.05173
1353.95817,0.05094
1352.02946,0.05023
1350.10074,0.04966
1348.17203,0.04916
1346.24331,0.04885
1344.31460,0.04863
1342.38588,0.04825
1340.45717,0.04771
1338.52845,0.04714
1336.59974,0.04663
1334.67102,0.04622
1332.74230,0.04584
1330.81359,0.04533
1328.88487,0.04465
1326.95616,0.04387
1325.02744,0.04309
1323.09873,0.04246
1321.17001,0.04196
1319.24130,0.04135
1317.31258,0.04054
1315.38387,0.03988
1313.45515,0.03952
1311.52644,0.03937
1309.59772,0.03933
1307.66900,0.03914
1305.74029,0.03850
1303.81157,0.03754
1301.88286,0.03655
1299.95414,0.03564
1298.02543,0.03500
1296.09671,0.03484
1294.16800,0.03510
1292.23928,0.03548
1290.31057,0.03557
1288.38185,0.03516
1286.45314,0.03449
1284.52442,0.03374
1282.59571,0.03285
1280.66699,0.03174
1278.73827,0.03031
1276.80956,0.02856
1274.88084,0.02669
1272.95213,0.02479
1271.02341,0.02299
1269.09470,0.02156
1267.16598,0.02077
1265.23727,0.02104
1263.30855,0.02298
1261.37984,0.02750
1259.45112,0.03518
1257.52241,0.04529
1255.59369,0.05649
1253.66498,0.06766
1251.73626,0.07779
1249.80754,0.08615
1247.87883,0.09258
1245.95011,0.09772
1244.02140,0.10216
1242.09268,0.10610
1240.16397,0.10989
1238.23525,0.11390
1236.30654,0.11803
1234.37782,0.12204
1232.44911,0.12587
1230.52039,0.12954
1228.59168,0.13283
1226.66296,0.13519
1224.73424,0.13615
1222.80553,0.13554
1220.87681,0.13314
1218.94810,0.12860
1217.01938,0.12190
1215.09067,0.11357
1213.16195,0.10414
1211.23324,0.09387
1209.30452,0.08370
1207.37581,0.07585
1205.44709,0.07318
1203.51838,0.07797
1201.58966,0.09044
1199.66095,0.10826
1197.73223,0.12763
1195.80351,0.14469
1193.87480,0.15694
1191.94608,0.16350
1190.01737,0.16418
1188.08865,0.15912
1186.15994,0.14953
1184.23122,0.13786
1182.30251,0.12663
1180.37379,0.11728
1178.44508,0.10949
1176.51636,0.10189
1174.58765,0.09388
1172.65893,0.08689
1170.73022,0.08472
1168.80150,0.09195
1166.87278,0.10935
1164.94407,0.13069
1163.01535,0.14684
1161.08664,0.15309
1159.15792,0.15073
1157.22921,0.14384
1155.30049,0.13600
1153.37178,0.12917
1151.44306,0.12376
1149.51435,0.11947
1147.58563,0.11585
1145.65692,0.11256
1143.72820,0.10952
1141.79949,0.10699
1139.87077,0.10509
1137.94205,0.10340
1136.01334,0.10153
1134.08462,0.09970
1132.15591,0.09803
1130.22719,0.09647
1128.29848,0.09515
1126.36976,0.09393
1124.44105,0.09247
1122.51233,0.09086
1120.58362,0.08948
1118.65490,0.08862
1116.72619,0.08821
1114.79747,0.08784
1112.86875,0.08737
1110.94004,0.08700
1109.01132,0.08686
1107.08261,0.08685
1105.15389,0.08695
1103.22518,0.08743
1101.29646,0.08795
1099.36775,0.08756
1097.43903,0.08612
1095.51032,0.08447
1093.58160,0.08311
1091.65289,0.08157
1089.72417,0.07942
1087.79546,0.07746
1085.86674,0.07719
1083.93802,0.07981
1082.00931,0.08527
1080.08059,0.09128
1078.15188,0.09437
1076.22316,0.09359
1074.29445,0.09121
1072.36573,0.08916
1070.43702,0.08770
1068.50830,0.08666
1066.57959,0.08593
1064.65087,0.08529
1062.72216,0.08448
1060.79344,0.08349
1058.86473,0.08263
1056.93601,0.08192
1055.00729,0.08127
1053.07858,0.08080
1051.14986,0.08045
1049.22115,0.07995
1047.29243,0.07928
1045.36372,0.07866
1043.43500,0.07805
1041.50629,0.07720
1039.57757,0.07616
1037.64886,0.07522
1035.72014,0.07443
1033.79143,0.07358
1031.86271,0.07261
1029.93399,0.07151
1028.00528,0.06984
1026.07656,0.06750
1024.14785,0.06501
1022.21913,0.06278
1020.29042,0.06212
1018.36170,0.06673
1016.43299,0.07834
1014.50427,0.09106
1012.57556,0.09697
1010.64684,0.09595
1008.71813,0.09331
1006.78941,0.09214
1004.86070,0.09212
1002.93198,0.09167
1001.00326,0.09024
999.07455,0.08864
997.14583,0.08725
995.21712,0.08606
993.28840,0.08535
991.35969,0.08500
989.43097,0.08456
987.50226,0.08403
985.57354,0.08348
983.64483,0.08288
981.71611,0.08240
979.78740,0.08214
977.85868,0.08179
975.92997,0.08113
974.00125,0.08042
972.07253,0.07988
970.14382,0.07942
968.21510,0.07889
966.28639,0.07861
964.35767,0.07887
962.42896,0.07909
960.50024,0.07887
958.57153,0.07853
956.64281,0.07819
954.71410,0.07778
952.78538,0.07747
950.85667,0.07718
948.92795,0.07695
946.99924,0.07688
945.07052,0.07678
943.14180,0.07659
941.21309,0.07644
939.28437,0.07628
937.35566,0.07614
935.42694,0.07609
933.49823,0.07597
931.56951,0.07566
929.64080,0.07528
927.71208,0.07499
925.78337,0.07476
923.85465,0.07448
921.92594,0.07421
919.99722,0.07408
918.06850,0.07412
916.13979,0.07435
914.21107,0.07449
912.28236,0.07414
910.35364,0.07349
908.42493,0.07290
906.49621,0.07225
904.56750,0.07159
902.63878,0.07114
900.71007,0.07054
898.78135,0.06962
896.85264,0.06864
894.92392,0.06801
892.99521,0.06822
891.06649,0.06950
889.13777,0.07153
887.20906,0.07353
885.28034,0.07484
883.35163,0.07549
881.42291,0.07578
879.49420,0.07559
877.56548,0.07495
875.63677,0.07427
873.70805,0.07353
871.77934,0.07257
869.85062,0.07178
867.92191,0.07127
865.99319,0.07057
864.06448,0.06948
862.13576,0.06836
860.20704,0.06774
858.27833,0.06752
856.34961,0.06691
854.42090,0.06582
852.49218,0.06498
850.56347,0.06480
848.63475,0.06519
846.70604,0.06588
844.77732,0.06658
842.84861,0.06711
840.91989,0.06739
838.99118,0.06778
837.06246,0.06892
835.13375,0.07111
833.20503,0.07433
831.27631,0.07815
829.34760,0.08153
827.41888,0.08361
825.49017,0.08434
823.56145,0.08418
821.63274,0.08342
819.70402,0.08248
817.77531,0.08231
815.84659,0.08319
813.91788,0.08420
811.98916,0.08465
810.06045,0.08465
808.13173,0.08451
806.20301,0.08405
804.27430,0.08313
802.34558,0.08196
800.41687,0.08088
798.48815,0.08008
796.55944,0.07928
794.63072,0.07817
792.70201,0.07702
790.77329,0.07622
788.84458,0.07576
786.91586,0.07537
784.98715,0.07506
783.05843,0.07490
781.12972,0.07459
779.20100,0.07413
777.27228,0.07367
775.34357,0.07338
773.41485,0.07381
771.48614,0.07511
769.55742,0.07655
767.62871,0.07760
765.69999,0.07833
763.77128,0.07886
761.84256,0.07922
759.91385,0.07952
757.98513,0.07983
756.05642,0.08023
754.12770,0.08070
752.19899,0.08069
750.27027,0.08002
748.34155,0.07940
746.41284,0.07901
744.48412,0.07850
742.55541,0.07799
740.62669,0.07764
738.69798,0.07743
736.76926,0.07713
734.84055,0.07664
732.91183,0.07640
730.98312,0.07651
729.05440,0.07661
727.12569,0.07647
725.19697,0.07610
723.26825,0.07576
721.33954,0.07558
719.41082,0.07539
717.48211,0.07515
715.55339,0.07496
713.62468,0.07482
711.69596,0.07482
709.76725,0.07492
707.83853,0.07511
705.90982,0.07558
703.98110,0.07623
702.05239,0.07659
700.12367,0.07687
698.19496,0.07718
696.26624,0.07697
694.33752,0.07635
692.40881,0.07584
690.48009,0.07553
688.55138,0.07532
686.62266,0.07519
684.69395,0.07516
682.76523,0.07514
680.83652,0.07520
678.90780,0.07570
676.97909,0.07645
675.05037,0.07671
673.12166,0.07629
671.19294,0.07567
669.26423,0.07489
667.33551,0.07415
665.40679,0.07409
663.47808,0.07420
661.54936,0.07423
659.62065,0.07412
657.69193,0.07339
655.76322,0.07255
653.83450,0.07263
651.90579,0.07329
649.97707,0.07327
648.04836,0.07258
646.11964,0.07239
644.19093,0.07278
642.26221,0.07332
640.33350,0.07401
638.40478,0.07409
636.47606,0.07302
634.54735,0.07161
632.61863,0.07059
630.68992,0.07006
628.76120,0.07028
626.83249,0.07093
624.90377,0.07095
622.97506,0.07039
621.04634,0.07045
619.11763,0.07112
617.18891,0.07153
615.26020,0.07180
613.33148,0.07187
611.40276,0.07126
609.47405,0.07055
607.54533,0.07049
605.61662,0.07073
603.68790,0.07011
601.75919,0.06840
599.83047,0.06692
