7496.91655,0.91146
7494.98784,0.89198
7493.05912,0.88199
7491.13041,0.90841
7489.20169,0.93834
7487.27297,0.93630
7485.34426,0.91507
7483.41554,0.90360
7481.48683,0.90612
7479.55811,0.90732
7477.62940,0.89957
7475.70068,0.89528
7473.77197,0.89983
7471.84325,0.89646
7469.91454,0.88425
7467.98582,0.88735
7466.05711,0.90256
7464.12839,0.90414
7462.19968,0.90354
7460.27096,0.91254
7458.34224,0.90507
7456.41353,0.87800
7454.48481,0.86860
7452.55610,0.88918
7450.62738,0.91599
7448.69867,0.92630
7446.76995,0.90962
7444.84124,0.88495
7442.91252,0.88196
7440.98381,0.88896
7439.05509,0.87907
7437.12638,0.86167
7435.19766,0.86307
7433.26895,0.87752
7431.34023,0.87551
7429.41151,0.86078
7427.48280,0.86053
7425.55408,0.87583
7423.62537,0.88961
7421.69665,0.90038
7419.76794,0.90662
7417.83922,0.89284
7415.91051,0.86548
7413.98179,0.84779
7412.05308,0.85384
7410.12436,0.87808
7408.19565,0.89543
7406.26693,0.90034
7404.33821,0.90543
7402.40950,0.90428
7400.48078,0.89605
7398.55207,0.89463
7396.62335,0.89635
7394.69464,0.88817
7392.76592,0.87333
7390.83721,0.86640
7388.90849,0.86851
7386.97978,0.87006
7385.05106,0.86965
7383.12235,0.86779
7381.19363,0.86564
7379.26492,0.85978
7377.33620,0.84684
7375.40748,0.84324
7373.47877,0.85065
7371.55005,0.84703
7369.62134,0.84283
7367.69262,0.85702
7365.76391,0.86271
7363.83519,0.84624
7361.90648,0.83665
7359.97776,0.84338
7358.04905,0.84757
7356.12033,0.84630
7354.19162,0.85364
7352.26290,0.86537
7350.33419,0.87006
7348.40547,0.86865
7346.47675,0.86017
7344.54804,0.84998
7342.61932,0.85516
7340.69061,0.87061
7338.76189,0.87074
7336.83318,0.85981
7334.90446,0.85371
7332.97575,0.85423
7331.04703,0.85605
7329.11832,0.84761
7327.18960,0.83355
7325.26089,0.83422
7323.33217,0.84541
7321.40346,0.85393
7319.47474,0.85547
7317.54602,0.84957
7315.61731,0.84525
7313.68859,0.84830
7311.75988,0.84992
7309.83116,0.84418
7307.90245,0.83963
7305.97373,0.84277
7304.04502,0.84776
7302.11630,0.84997
7300.18759,0.85436
7298.25887,0.86243
7296.33016,0.86362
7294.40144,0.85388
7292.47272,0.84856
7290.54401,0.85784
7288.61529,0.87168
7286.68658,0.88034
7284.75786,0.88659
7282.82915,0.88611
7280.90043,0.87411
7278.97172,0.86540
7277.04300,0.86683
7275.11429,0.86980
7273.18557,0.87250
7271.25686,0.87657
7269.32814,0.87902
7267.39943,0.87802
7265.47071,0.87986
7263.54199,0.88395
7261.61328,0.88136
7259.68456,0.88090
7257.75585,0.88295
7255.82713,0.87302
7253.89842,0.86456
7251.96970,0.87483
7250.04099,0.88564
7248.11227,0.87407
7246.18356,0.84508
7244.25484,0.82536
7242.32613,0.83973
7240.39741,0.87022
7238.46870,0.88179
7236.53998,0.87966
7234.61126,0.87640
7232.68255,0.86561
7230.75383,0.85153
7228.82512,0.84239
7226.89640,0.83495
7224.96769,0.83420
7223.03897,0.83801
7221.11026,0.83591
7219.18154,0.83604
7217.25283,0.85027
7215.32411,0.86758
7213.39540,0.87404
7211.46668,0.87170
7209.53796,0.87045
7207.60925,0.87502
7205.68053,0.87966
7203.75182,0.87804
7201.82310,0.87607
7199.89439,0.87722
7197.96567,0.87737
7196.03696,0.87707
7194.10824,0.87407
7192.17953,0.86545
7190.25081,0.86017
7188.32210,0.86349
7186.39338,0.87121
7184.46467,0.87593
7182.53595,0.86986
7180.60723,0.85757
7178.67852,0.84977
7176.74980,0.84820
7174.82109,0.85523
7172.89237,0.86697
7170.96366,0.86878
7169.03494,0.85849
7167.10623,0.85025
7165.17751,0.85412
7163.24880,0.86558
7161.32008,0.87067
7159.39137,0.86470
7157.46265,0.85983
7155.53394,0.86218
7153.60522,0.86220
7151.67650,0.85316
7149.74779,0.84617
7147.81907,0.84948
7145.89036,0.85577
7143.96164,0.85974
7142.03293,0.86210
7140.10421,0.86215
7138.17550,0.85826
7136.24678,0.84701
7134.31807,0.83638
7132.38935,0.84172
7130.46064,0.85683
7128.53192,0.86643
7126.60321,0.86853
7124.67449,0.86177
7122.74577,0.84948
7120.81706,0.84681
7118.88834,0.85574
7116.95963,0.86142
7115.03091,0.86190
7113.10220,0.86320
7111.17348,0.86520
7109.24477,0.87259
7107.31605,0.88250
7105.38734,0.87988
7103.45862,0.86333
7101.52991,0.84806
7099.60119,0.85005
7097.67247,0.86252
7095.74376,0.85942
7093.81504,0.84266
7091.88633,0.83870
7089.95761,0.85101
7088.02890,0.86398
7086.10018,0.87115
7084.17147,0.87457
7082.24275,0.87446
7080.31404,0.87329
7078.38532,0.86940
7076.45661,0.86050
7074.52789,0.85598
7072.59918,0.86334
7070.67046,0.87583
7068.74174,0.88215
7066.81303,0.87821
7064.88431,0.86715
7062.95560,0.85549
7061.02688,0.84868
7059.09817,0.84540
7057.16945,0.84272
7055.24074,0.84355
7053.31202,0.84976
7051.38331,0.85892
7049.45459,0.86717
7047.52588,0.87079
7045.59716,0.87483
7043.66845,0.88294
7041.73973,0.88722
7039.81101,0.88720
7037.88230,0.88519
7035.95358,0.87833
7034.02487,0.87130
7032.09615,0.86846
7030.16744,0.87117
7028.23872,0.88167
7026.31001,0.89363
7024.38129,0.89963
7022.45258,0.90200
7020.52386,0.90248
7018.59515,0.89599
7016.66643,0.88279
7014.73771,0.87373
7012.80900,0.87381
7010.88028,0.87804
7008.95157,0.88578
7007.02285,0.89546
7005.09414,0.89759
7003.16542,0.89437
7001.23671,0.89370
6999.30799,0.89234
6997.37928,0.89363
6995.45056,0.90142
6993.52185,0.90113
6991.59313,0.89088
6989.66442,0.88728
6987.73570,0.88760
6985.80698,0.88233
6983.87827,0.87750
6981.94955,0.87756
6980.02084,0.88109
6978.09212,0.88777
6976.16341,0.89312
6974.23469,0.88731
6972.30598,0.87162
6970.37726,0.86303
6968.44855,0.86961
6966.51983,0.88125
6964.59112,0.88689
6962.66240,0.88823
6960.73369,0.88911
6958.80497,0.88699
6956.87625,0.88296
6954.94754,0.88028
6953.01882,0.87817
6951.09011,0.87438
6949.16139,0.87125
6947.23268,0.87568
6945.30396,0.88598
6943.37525,0.89047
6941.44653,0.88748
6939.51782,0.88798
6937.58910,0.89242
6935.66039,0.89015
6933.73167,0.88499
6931.80296,0.88735
6929.87424,0.89161
6927.94552,0.89087
6926.01681,0.89156
6924.08809,0.89756
6922.15938,0.90669
6920.23066,0.91770
6918.30195,0.92155
6916.37323,0.90903
6914.44452,0.88923
6912.51580,0.87914
6910.58709,0.88513
6908.65837,0.89797
6906.72966,0.90432
6904.80094,0.90305
6902.87222,0.89980
6900.94351,0.89682
6899.01479,0.89565
6897.08608,0.89360
6895.15736,0.88672
6893.22865,0.88167
6891.29993,0.88657
6889.37122,0.89726
6887.44250,0.90408
6885.51379,0.90203
6883.58507,0.89358
6881.65636,0.88626
6879.72764,0.88421
6877.79893,0.88549
6875.87021,0.88643
6873.94149,0.88284
6872.01278,0.87675
6870.08406,0.87722
6868.15535,0.88578
6866.22663,0.89658
6864.29792,0.90578
6862.36920,0.91069
6860.44049,0.90954
6858.51177,0.90590
6856.58306,0.90626
6854.65434,0.90819
6852.72563,0.90207
6850.79691,0.89035
6848.86820,0.88548
6846.93948,0.88844
6845.01076,0.88933
6843.08205,0.88413
6841.15333,0.87752
6839.22462,0.87611
6837.29590,0.87924
6835.36719,0.87832
6833.43847,0.87408
6831.50976,0.87762
6829.58104,0.88969
6827.65233,0.89915
6825.72361,0.90117
6823.79490,0.89846
6821.86618,0.89165
6819.93746,0.88645
6818.00875,0.88945
6816.08003,0.89393
6814.15132,0.89162
6812.22260,0.88622
6810.29389,0.88450
6808.36517,0.88636
6806.43646,0.89051
6804.50774,0.89696
6802.57903,0.90058
6800.65031,0.89731
6798.72160,0.89070
6796.79288,0.88898
6794.86417,0.89351
6792.93545,0.89475
6791.00673,0.89348
6789.07802,0.89998
6787.14930,0.90889
6785.22059,0.90718
6783.29187,0.89837
6781.36316,0.89278
6779.43444,0.89136
6777.50573,0.89460
6775.57701,0.90269
6773.64830,0.90821
6771.71958,0.90476
6769.79087,0.89682
6767.86215,0.89417
6765.93344,0.89545
6764.00472,0.89055
6762.07600,0.88161
6760.14729,0.88216
6758.21857,0.89460
6756.28986,0.90639
6754.36114,0.90886
6752.43243,0.90342
6750.50371,0.89624
6748.57500,0.89526
6746.64628,0.90366
6744.71757,0.91297
6742.78885,0.91249
6740.86014,0.90610
6738.93142,0.90187
6737.00271,0.89917
6735.07399,0.89831
6733.14527,0.90164
6731.21656,0.90451
6729.28784,0.89980
6727.35913,0.89246
6725.43041,0.89412
6723.50170,0.90035
6721.57298,0.89827
6719.64427,0.89164
6717.71555,0.89122
6715.78684,0.89864
6713.85812,0.90904
6711.92941,0.91410
6710.00069,0.91173
6708.07197,0.90706
6706.14326,0.90083
6704.21454,0.89590
6702.28583,0.89650
6700.35711,0.89607
6698.42840,0.89183
6696.49968,0.89035
6694.57097,0.89061
6692.64225,0.89225
6690.71354,0.90068
6688.78482,0.90984
6686.85611,0.90994
6684.92739,0.90383
6682.99868,0.89909
6681.06996,0.89859
6679.14124,0.89978
6677.21253,0.89855
6675.28381,0.89475
6673.35510,0.89251
6671.42638,0.89201
6669.49767,0.88959
6667.56895,0.88925
6665.64024,0.89476
6663.71152,0.90120
6661.78281,0.90596
6659.85409,0.90741
6657.92538,0.90398
6655.99666,0.90108
6654.06795,0.90311
6652.13923,0.90951
6650.21051,0.91413
6648.28180,0.90886
6646.35308,0.89963
6644.42437,0.89805
6642.49565,0.90250
6640.56694,0.90673
6638.63822,0.90978
6636.70951,0.91087
6634.78079,0.90868
6632.85208,0.90515
6630.92336,0.90200
6628.99465,0.90098
6627.06593,0.90438
6625.13722,0.90557
6623.20850,0.89845
6621.27978,0.89228
6619.35107,0.89757
6617.42235,0.90980
6615.49364,0.91543
6613.56492,0.91369
6611.63621,0.91418
6609.70749,0.91539
6607.77878,0.91205
6605.85006,0.90694
6603.92135,0.90347
6601.99263,0.90008
6600.06392,0.89656
6598.13520,0.89983
6596.20648,0.90969
6594.27777,0.91661
6592.34905,0.91849
6590.42034,0.91680
6588.49162,0.91183
6586.56291,0.90713
6584.63419,0.90551
6582.70548,0.90859
6580.77676,0.91542
6578.84805,0.91871
6576.91933,0.91454
6574.99062,0.90962
6573.06190,0.90846
6571.13319,0.90638
6569.20447,0.90286
6567.27575,0.90231
6565.34704,0.90205
6563.41832,0.89900
6561.48961,0.89677
6559.56089,0.89676
6557.63218,0.89674
6555.70346,0.89731
6553.77475,0.89748
6551.84603,0.89514
6549.91732,0.89605
6547.98860,0.90328
6546.05989,0.90833
6544.13117,0.90874
6542.20246,0.91271
6540.27374,0.91998
6538.34502,0.92301
6536.41631,0.92080
6534.48759,0.91389
6532.55888,0.90608
6530.63016,0.90635
6528.70145,0.91072
6526.77273,0.90861
6524.84402,0.90415
6522.91530,0.90414
6520.98659,0.90629
6519.05787,0.90674
6517.12916,0.90295
6515.20044,0.89747
6513.27172,0.89573
6511.34301,0.89819
6509.41429,0.90318
6507.48558,0.90658
6505.55686,0.90563
6503.62815,0.90505
6501.69943,0.90681
6499.77072,0.90737
6497.84200,0.90530
6495.91329,0.90229
6493.98457,0.90271
6492.05586,0.90978
6490.12714,0.91755
6488.19843,0.91682
6486.26971,0.91023
6484.34099,0.90622
6482.41228,0.90651
6480.48356,0.90841
6478.55485,0.90773
6476.62613,0.90254
6474.69742,0.89717
6472.76870,0.89582
6470.83999,0.89750
6468.91127,0.89999
6466.98256,0.90008
6465.05384,0.89544
6463.12513,0.89189
6461.19641,0.89427
6459.26770,0.89715
6457.33898,0.89719
6455.41026,0.89882
6453.48155,0.90400
6451.55283,0.90889
6449.62412,0.90885
6447.69540,0.90430
6445.76669,0.90247
6443.83797,0.90595
6441.90926,0.90661
6439.98054,0.90337
6438.05183,0.90431
6436.12311,0.90613
6434.19440,0.90304
6432.26568,0.90045
6430.33697,0.90105
6428.40825,0.90097
6426.47953,0.89897
6424.55082,0.89888
6422.62210,0.90230
6420.69339,0.90431
6418.76467,0.90317
6416.83596,0.90149
6414.90724,0.90054
6412.97853,0.90188
6411.04981,0.90456
6409.12110,0.90500
6407.19238,0.90193
6405.26367,0.90000
6403.33495,0.90568
6401.40623,0.91455
6399.47752,0.91575
6397.54880,0.90895
6395.62009,0.90211
6393.69137,0.89932
6391.76266,0.89919
6389.83394,0.90082
6387.90523,0.90414
6385.97651,0.90739
6384.04780,0.90967
6382.11908,0.90959
6380.19037,0.90523
6378.26165,0.89887
6376.33294,0.89532
6374.40422,0.89701
6372.47550,0.90041
6370.54679,0.90144
6368.61807,0.90396
6366.68936,0.90970
6364.76064,0.91041
6362.83193,0.90287
6360.90321,0.89509
6358.97450,0.89326
6357.04578,0.89604
6355.11707,0.89852
6353.18835,0.89886
6351.25964,0.90057
6349.33092,0.90354
6347.40221,0.90295
6345.47349,0.89926
6343.54477,0.89809
6341.61606,0.90206
6339.68734,0.90745
6337.75863,0.90938
6335.82991,0.90656
6333.90120,0.90169
6331.97248,0.90101
6330.04377,0.90565
6328.11505,0.90978
6326.18634,0.91220
6324.25762,0.91350
6322.32891,0.91088
6320.40019,0.90662
6318.47147,0.90469
6316.54276,0.90381
6314.61404,0.90207
6312.68533,0.89771
6310.75661,0.89198
6308.82790,0.89046
6306.89918,0.89362
6304.97047,0.89729
6303.04175,0.89956
6301.11304,0.90030
6299.18432,0.90029
6297.25561,0.89852
6295.32689,0.89455
6293.39818,0.89335
6291.46946,0.89605
6289.54074,0.89518
6287.61203,0.88943
6285.68331,0.88747
6283.75460,0.89013
6281.82588,0.88960
6279.89717,0.88698
6277.96845,0.88898
6276.03974,0.89365
6274.11102,0.89562
6272.18231,0.89413
6270.25359,0.89080
6268.32488,0.88789
6266.39616,0.88687
6264.46745,0.88821
6262.53873,0.89035
6260.61001,0.88988
6258.68130,0.88713
6256.75258,0.88624
6254.82387,0.88855
6252.89515,0.89043
6250.96644,0.88972
6249.03772,0.88921
6247.10901,0.88996
6245.18029,0.88973
6243.25158,0.88823
6241.32286,0.88687
6239.39415,0.88564
6237.46543,0.88550
6235.53672,0.88674
6233.60800,0.88561
6231.67928,0.88261
6229.75057,0.88229
6227.82185,0.88360
6225.89314,0.88210
6223.96442,0.87721
6222.03571,0.87322
6220.10699,0.87345
6218.17828,0.87569
6216.24956,0.87598
6214.32085,0.87357
6212.39213,0.87120
6210.46342,0.87330
6208.53470,0.87829
6206.60598,0.87866
6204.67727,0.87588
6202.74855,0.87540
6200.81984,0.87368
6198.89112,0.86853
6196.96241,0.86350
6195.03369,0.86040
6193.10498,0.85925
6191.17626,0.85923
6189.24755,0.85914
6187.31883,0.85867
6185.39012,0.85711
6183.46140,0.85411
6181.53269,0.85179
6179.60397,0.85224
6177.67525,0.85311
6175.74654,0.85063
6173.81782,0.84636
6171.88911,0.84363
6169.96039,0.84186
6168.03168,0.84137
6166.10296,0.84379
6164.17425,0.84680
6162.24553,0.84748
6160.31682,0.84643
6158.38810,0.84461
6156.45939,0.84274
6154.53067,0.84274
6152.60196,0.84398
6150.67324,0.84346
6148.74452,0.84131
6146.81581,0.83792
6144.88709,0.83294
6142.95838,0.83025
6141.02966,0.83056
6139.10095,0.83027
6137.17223,0.83061
6135.24352,0.82919
6133.31480,0.82164
6131.38609,0.81501
6129.45737,0.81399
6127.52866,0.81391
6125.59994,0.81374
6123.67122,0.81382
6121.74251,0.81249
6119.81379,0.81089
6117.88508,0.80991
6115.95636,0.80820
6114.02765,0.80424
6112.09893,0.79945
6110.17022,0.79713
6108.24150,0.79618
6106.31279,0.79377
6104.38407,0.78940
6102.45536,0.78324
6100.52664,0.77624
6098.59793,0.77050
6096.66921,0.76755
6094.74049,0.76576
6092.81178,0.76238
6090.88306,0.75708
6088.95435,0.75122
6087.02563,0.74579
6085.09692,0.73967
6083.16820,0.73199
6081.23949,0.72356
6079.31077,0.71514
6077.38206,0.70820
6075.45334,0.70401
6073.52463,0.70018
6071.59591,0.69386
6069.66720,0.68650
6067.73848,0.68174
6065.80976,0.68091
6063.88105,0.68135
6061.95233,0.68066
6060.02362,0.67892
6058.09490,0.67537
6056.16619,0.67027
6054.23747,0.66575
6052.30876,0.66172
6050.38004,0.65625
6048.45133,0.64976
6046.52261,0.64430
6044.59390,0.63851
6042.66518,0.63092
6040.73647,0.62350
6038.80775,0.61541
6036.87903,0.60454
6034.95032,0.59370
6033.02160,0.58430
6031.09289,0.57321
6029.16417,0.56073
6027.23546,0.54945
6025.30674,0.53911
6023.37803,0.52840
6021.44931,0.51550
6019.52060,0.50146
6017.59188,0.49000
6015.66317,0.47920
6013.73445,0.46439
6011.80573,0.44742
6009.87702,0.43385
6007.94830,0.42468
6006.01959,0.41748
6004.09087,0.41037
6002.16216,0.40182
6000.23344,0.39411
5998.30473,0.39149
5996.37601,0.39206
5994.44730,0.39264
5992.51858,0.39555
5990.58987,0.40305
5988.66115,0.41346
5986.73244,0.42557
5984.80372,0.43876
5982.87500,0.45082
5980.94629,0.46257
5979.01757,0.47655
5977.08886,0.49270
5975.16014,0.51015
5973.23143,0.52748
5971.30271,0.54295
5969.37400,0.55653
5967.44528,0.56728
5965.51657,0.57318
5963.58785,0.57739
5961.65914,0.58370
5959.73042,0.58946
5957.80171,0.59175
5955.87299,0.59125
5953.94427,0.59053
5952.01556,0.59108
5950.08684,0.59089
5948.15813,0.58860
5946.22941,0.58452
5944.30070,0.57878
5942.37198,0.57287
5940.44327,0.56817
5938.51455,0.56373
5936.58584,0.55855
5934.65712,0.55522
5932.72841,0.55578
5930.79969,0.55596
5928.87097,0.55333
5926.94226,0.55252
5925.01354,0.55610
5923.08483,0.56083
5921.15611,0.56343
5919.22740,0.56544
5917.29868,0.56955
5915.36997,0.57538
5913.44125,0.58170
5911.51254,0.58720
5909.58382,0.59298
5907.65511,0.60032
5905.72639,0.60468
5903.79768,0.60388
5901.86896,0.60147
5899.94024,0.59959
5898.01153,0.59934
5896.08281,0.60047
5894.15410,0.60099
5892.22538,0.60127
5890.29667,0.60369
5888.36795,0.60833
5886.43924,0.61366
5884.51052,0.61942
5882.58181,0.62599
5880.65309,0.63418
5878.72438,0.64393
5876.79566,0.65295
5874.86695,0.66081
5872.93823,0.66969
5871.00951,0.67950
5869.08080,0.68901
5867.15208,0.69874
5865.22337,0.70749
5863.29465,0.71368
5861.36594,0.71873
5859.43722,0.72295
5857.50851,0.72602
5855.57979,0.72998
5853.65108,0.73479
5851.72236,0.73879
5849.79365,0.74309
5847.86493,0.74775
5845.93622,0.75100
5844.00750,0.75405
5842.07878,0.75704
5840.15007,0.75723
5838.22135,0.75479
5836.29264,0.75203
5834.36392,0.74960
5832.43521,0.74771
5830.50649,0.74715
5828.57778,0.74847
5826.64906,0.75154
5824.72035,0.75357
5822.79163,0.75217
5820.86292,0.75108
5818.93420,0.75310
5817.00548,0.75503
5815.07677,0.75507
5813.14805,0.75443
5811.21934,0.75371
5809.29062,0.75374
5807.36191,0.75577
5805.43319,0.75902
5803.50448,0.76204
5801.57576,0.76399
5799.64705,0.76372
5797.71833,0.76146
5795.78962,0.75844
5793.86090,0.75602
5791.93219,0.75485
5790.00347,0.75235
5788.07475,0.74595
5786.14604,0.73883
5784.21732,0.73684
5782.28861,0.73961
5780.35989,0.74038
5778.43118,0.73617
5776.50246,0.73066
5774.57375,0.72698
5772.64503,0.72489
5770.71632,0.72303
5768.78760,0.72101
5766.85889,0.72058
5764.93017,0.72234
5763.00146,0.72342
5761.07274,0.72292
5759.14402,0.72342
5757.21531,0.72615
5755.28659,0.72964
5753.35788,0.73234
5751.42916,0.73538
5749.50045,0.73971
5747.57173,0.74345
5745.64302,0.74682
5743.71430,0.75200
5741.78559,0.75818
5739.85687,0.76349
5737.92816,0.76813
5735.99944,0.77299
5734.07072,0.77765
5732.14201,0.78189
5730.21329,0.78565
5728.28458,0.78932
5726.35586,0.79508
5724.42715,0.80179
5722.49843,0.80527
5720.56972,0.80679
5718.64100,0.81000
5716.71229,0.81395
5714.78357,0.81665
5712.85486,0.81737
5710.92614,0.81710
5708.99743,0.81899
5707.06871,0.82233
5705.13999,0.82394
5703.21128,0.82419
5701.28256,0.82413
5699.35385,0.82409
5697.42513,0.82398
5695.49642,0.82272
5693.56770,0.82106
5691.63899,0.82069
5689.71027,0.82075
5687.78156,0.81934
5685.85284,0.81682
5683.92413,0.81488
5681.99541,0.81350
5680.06670,0.81164
5678.13798,0.80959
5676.20926,0.80775
5674.28055,0.80591
5672.35183,0.80384
5670.42312,0.80028
5668.49440,0.79661
5666.56569,0.79669
5664.63697,0.79931
5662.70826,0.80026
5660.77954,0.79934
5658.85083,0.79912
5656.92211,0.80038
5654.99340,0.80173
5653.06468,0.80291
5651.13597,0.80459
5649.20725,0.80635
5647.27853,0.80773
5645.34982,0.80843
5643.42110,0.80878
5641.49239,0.81035
5639.56367,0.81446
5637.63496,0.82017
5635.70624,0.82390
5633.77753,0.82429
5631.84881,0.82478
5629.92010,0.82769
5627.99138,0.83137
5626.06267,0.83426
5624.13395,0.83649
5622.20523,0.83798
5620.27652,0.83911
5618.34780,0.84072
5616.41909,0.84295
5614.49037,0.84506
5612.56166,0.84612
5610.63294,0.84635
5608.70423,0.84649
5606.77551,0.84617
5604.84680,0.84527
5602.91808,0.84538
5600.98937,0.84721
5599.06065,0.84888
5597.13194,0.84874
5595.20322,0.84640
5593.27450,0.84400
5591.34579,0.84423
5589.41707,0.84535
5587.48836,0.84478
5585.55964,0.84290
5583.63093,0.84168
5581.70221,0.84279
5579.77350,0.84481
5577.84478,0.84517
5575.91607,0.84388
5573.98735,0.84322
5572.05864,0.84454
5570.12992,0.84572
5568.20121,0.84515
5566.27249,0.84518
5564.34377,0.84600
5562.41506,0.84444
5560.48634,0.84150
5558.55763,0.84040
5556.62891,0.84077
5554.70020,0.84118
5552.77148,0.84144
5550.84277,0.84108
5548.91405,0.83958
5546.98534,0.83869
5545.05662,0.83964
5543.12791,0.84034
5541.19919,0.83963
5539.27047,0.83872
5537.34176,0.83846
5535.41304,0.83932
5533.48433,0.84144
5531.55561,0.84329
5529.62690,0.84302
5527.69818,0.84148
5525.76947,0.84085
5523.84075,0.84120
5521.91204,0.84142
5519.98332,0.84077
5518.05461,0.83957
5516.12589,0.83956
5514.19718,0.84094
5512.26846,0.84140
5510.33974,0.83984
5508.41103,0.83813
5506.48231,0.83792
5504.55360,0.83808
5502.62488,0.83782
5500.69617,0.83777
5498.76745,0.83821
5496.83874,0.83825
5494.91002,0.83630
5492.98131,0.83405
5491.05259,0.83460
5489.12388,0.83594
5487.19516,0.83662
5485.26645,0.83777
5483.33773,0.83798
5481.40901,0.83683
5479.48030,0.83533
5477.55158,0.83229
5475.62287,0.82940
5473.69415,0.82963
5471.76544,0.82919
5469.83672,0.82706
5467.90801,0.82805
5465.97929,0.83193
5464.05058,0.83383
5462.12186,0.83266
5460.19315,0.83124
5458.26443,0.83150
5456.33572,0.83312
5454.40700,0.83483
5452.47828,0.83507
5450.54957,0.83467
5448.62085,0.83520
5446.69214,0.83550
5444.76342,0.83484
5442.83471,0.83455
5440.90599,0.83605
5438.97728,0.83794
5437.04856,0.83692
5435.11985,0.83589
5433.19113,0.83915
5431.26242,0.84131
5429.33370,0.83987
5427.40498,0.84063
5425.47627,0.84298
5423.54755,0.84326
5421.61884,0.84311
5419.69012,0.84372
5417.76141,0.84322
5415.83269,0.84006
5413.90398,0.83617
5411.97526,0.83557
5410.04655,0.83796
5408.11783,0.83965
5406.18912,0.84025
5404.26040,0.84184
5402.33169,0.84400
5400.40297,0.84473
5398.47425,0.84325
5396.54554,0.83904
5394.61682,0.83445
5392.68811,0.83521
5390.75939,0.84105
5388.83068,0.84502
5386.90196,0.84387
5384.97325,0.84175
5383.04453,0.84289
5381.11582,0.84469
5379.18710,0.84256
5377.25839,0.83785
5375.32967,0.83750
5373.40096,0.84199
5371.47224,0.84601
5369.54352,0.84736
5367.61481,0.84663
5365.68609,0.84532
5363.75738,0.84538
5361.82866,0.84768
5359.89995,0.84964
5357.97123,0.84712
5356.04252,0.84002
5354.11380,0.83464
5352.18509,0.83573
5350.25637,0.83829
5348.32766,0.83758
5346.39894,0.83445
5344.47022,0.83295
5342.54151,0.83470
5340.61279,0.83519
5338.68408,0.83393
5336.75536,0.83579
5334.82665,0.83949
5332.89793,0.84090
5330.96922,0.83968
5329.04050,0.83702
5327.11179,0.83586
5325.18307,0.83827
5323.25436,0.84183
5321.32564,0.84427
5319.39693,0.84513
5317.46821,0.84455
5315.53949,0.84289
5313.61078,0.84064
5311.68206,0.83903
5309.75335,0.83815
5307.82463,0.83752
5305.89592,0.83744
5303.96720,0.83734
5302.03849,0.83682
5300.10977,0.83625
5298.18106,0.83537
5296.25234,0.83384
5294.32363,0.83152
5292.39491,0.82795
5290.46620,0.82390
5288.53748,0.82069
5286.60876,0.81737
5284.68005,0.81310
5282.75133,0.80874
5280.82262,0.80563
5278.89390,0.80428
5276.96519,0.80282
5275.03647,0.79942
5273.10776,0.79443
5271.17904,0.78893
5269.25033,0.78448
5267.32161,0.78205
5265.39290,0.78008
5263.46418,0.77858
5261.53547,0.78036
5259.60675,0.78414
5257.67803,0.78612
5255.74932,0.78714
5253.82060,0.79191
5251.89189,0.79786
5249.96317,0.79959
5248.03446,0.80070
5246.10574,0.80528
5244.17703,0.81221
5242.24831,0.82012
5240.31960,0.82581
5238.39088,0.82820
5236.46217,0.82934
5234.53345,0.82994
5232.60473,0.83085
5230.67602,0.83341
5228.74730,0.83540
5226.81859,0.83508
5224.88987,0.83637
5222.96116,0.84124
5221.03244,0.84547
5219.10373,0.84702
5217.17501,0.84792
5215.24630,0.84927
5213.31758,0.84953
5211.38887,0.84763
5209.46015,0.84434
5207.53144,0.84287
5205.60272,0.84606
5203.67400,0.85065
5201.74529,0.85222
5199.81657,0.85047
5197.88786,0.84879
5195.95914,0.85041
5194.03043,0.85249
5192.10171,0.85166
5190.17300,0.85036
5188.24428,0.84993
5186.31557,0.84864
5184.38685,0.84746
5182.45814,0.84727
5180.52942,0.84723
5178.60071,0.84804
5176.67199,0.84944
5174.74327,0.84959
5172.81456,0.84831
5170.88584,0.84773
5168.95713,0.84947
5167.02841,0.85143
5165.09970,0.85145
5163.17098,0.85083
5161.24227,0.85128
5159.31355,0.85211
5157.38484,0.85232
5155.45612,0.85257
5153.52741,0.85337
5151.59869,0.85463
5149.66997,0.85628
5147.74126,0.85753
5145.81254,0.85782
5143.88383,0.85740
5141.95511,0.85743
5140.02640,0.85863
5138.09768,0.85943
5136.16897,0.85856
5134.24025,0.85699
5132.31154,0.85695
5130.38282,0.85871
5128.45411,0.86013
5126.52539,0.86065
5124.59668,0.86111
5122.66796,0.86134
5120.73924,0.86098
5118.81053,0.86040
5116.88181,0.86010
5114.95310,0.86005
5113.02438,0.86016
5111.09567,0.86111
5109.16695,0.86306
5107.23824,0.86427
5105.30952,0.86343
5103.38081,0.86151
5101.45209,0.86001
5099.52338,0.85942
5097.59466,0.85949
5095.66595,0.85973
5093.73723,0.85948
5091.80851,0.85881
5089.87980,0.85842
5087.95108,0.85807
5086.02237,0.85742
5084.09365,0.85705
5082.16494,0.85746
5080.23622,0.85811
5078.30751,0.85826
5076.37879,0.85810
5074.45008,0.85791
5072.52136,0.85811
5070.59265,0.85895
5068.66393,0.85896
5066.73522,0.85769
5064.80650,0.85732
5062.87778,0.85832
5060.94907,0.85916
5059.02035,0.85940
5057.09164,0.85945
5055.16292,0.85968
5053.23421,0.85980
5051.30549,0.85942
5049.37678,0.85917
5047.44806,0.85954
5045.51935,0.85995
5043.59063,0.85982
5041.66192,0.85968
5039.73320,0.86026
5037.80448,0.86099
5035.87577,0.86083
5033.94705,0.86009
5032.01834,0.85973
5030.08962,0.85959
5028.16091,0.85919
5026.23219,0.85867
5024.30348,0.85786
5022.37476,0.85661
5020.44605,0.85561
5018.51733,0.85524
5016.58862,0.85502
5014.65990,0.85480
5012.73119,0.85500
5010.80247,0.85552
5008.87375,0.85537
5006.94504,0.85391
5005.01632,0.85222
5003.08761,0.85136
5001.15889,0.85133
4999.23018,0.85188
4997.30146,0.85161
4995.37275,0.85044
4993.44403,0.85052
4991.51532,0.85157
4989.58660,0.85157
4987.65789,0.85027
4985.72917,0.84870
4983.80046,0.84798
4981.87174,0.84795
4979.94302,0.84780
4978.01431,0.84769
4976.08559,0.84789
4974.15688,0.84813
4972.22816,0.84779
4970.29945,0.84677
4968.37073,0.84575
4966.44202,0.84479
4964.51330,0.84385
4962.58459,0.84335
4960.65587,0.84333
4958.72716,0.84377
4956.79844,0.84420
4954.86972,0.84401
4952.94101,0.84374
4951.01229,0.84358
4949.08358,0.84318
4947.15486,0.84334
4945.22615,0.84444
4943.29743,0.84484
4941.36872,0.84405
4939.44000,0.84346
4937.51129,0.84329
4935.58257,0.84283
4933.65386,0.84184
4931.72514,0.84025
4929.79643,0.83879
4927.86771,0.83802
4925.93899,0.83712
4924.01028,0.83599
4922.08156,0.83476
4920.15285,0.83275
4918.22413,0.83027
4916.29542,0.82811
4914.36670,0.82643
4912.43799,0.82513
4910.50927,0.82375
4908.58056,0.82225
4906.65184,0.82081
4904.72313,0.81864
4902.79441,0.81551
4900.86570,0.81313
4898.93698,0.81191
4897.00826,0.81066
4895.07955,0.80942
4893.15083,0.80874
4891.22212,0.80834
4889.29340,0.80745
4887.36469,0.80604
4885.43597,0.80535
4883.50726,0.80566
4881.57854,0.80614
4879.64983,0.80635
4877.72111,0.80560
4875.79240,0.80387
4873.86368,0.80284
4871.93497,0.80307
4870.00625,0.80268
4868.07753,0.80036
4866.14882,0.79714
4864.22010,0.79451
4862.29139,0.79251
4860.36267,0.79021
4858.43396,0.78758
4856.50524,0.78585
4854.57653,0.78509
4852.64781,0.78381
4850.71910,0.78153
4848.79038,0.77947
4846.86167,0.77856
4844.93295,0.77845
4843.00423,0.77885
4841.07552,0.77986
4839.14680,0.78075
4837.21809,0.78124
4835.28937,0.78207
4833.36066,0.78321
4831.43194,0.78405
4829.50323,0.78472
4827.57451,0.78572
4825.64580,0.78704
4823.71708,0.78817
4821.78837,0.78890
4819.85965,0.78931
4817.93094,0.78957
4816.00222,0.79011
4814.07350,0.79111
4812.14479,0.79202
4810.21607,0.79223
4808.28736,0.79222
4806.35864,0.79289
4804.42993,0.79362
4802.50121,0.79346
4800.57250,0.79257
4798.64378,0.79163
4796.71507,0.79085
4794.78635,0.78989
4792.85764,0.78840
4790.92892,0.78641
4789.00021,0.78465
4787.07149,0.78350
4785.14277,0.78256
4783.21406,0.78133
4781.28534,0.77915
4779.35663,0.77635
4777.42791,0.77375
4775.49920,0.77123
4773.57048,0.76895
4771.64177,0.76725
4769.71305,0.76536
4767.78434,0.76289
4765.85562,0.76042
4763.92691,0.75794
4761.99819,0.75483
4760.06948,0.75116
4758.14076,0.74772
4756.21204,0.74449
4754.28333,0.74068
4752.35461,0.73641
4750.42590,0.73218
4748.49718,0.72785
4746.56847,0.72313
4744.63975,0.71750
4742.71104,0.71062
4740.78232,0.70329
4738.85361,0.69605
4736.92489,0.68860
4734.99618,0.68056
4733.06746,0.67169
4731.13874,0.66222
4729.21003,0.65245
4727.28131,0.64196
4725.35260,0.63029
4723.42388,0.61789
4721.49517,0.60523
4719.56645,0.59156
4717.63774,0.57637
4715.70902,0.56030
4713.78031,0.54374
4711.85159,0.52628
4709.92288,0.50728
4707.99416,0.48646
4706.06545,0.46469
4704.13673,0.44383
4702.20801,0.42467
4700.27930,0.40649
4698.35058,0.38966
4696.42187,0.37534
4694.49315,0.36278
4692.56444,0.35087
4690.63572,0.34004
4688.70701,0.33062
4686.77829,0.32258
4684.84958,0.31650
4682.92086,0.31264
4680.99215,0.31108
4679.06343,0.31253
4677.13472,0.31747
4675.20600,0.32525
4673.27728,0.33494
4671.34857,0.34655
4669.41985,0.35967
4667.49114,0.37265
4665.56242,0.38429
4663.63371,0.39424
4661.70499,0.40256
4659.77628,0.40920
4657.84756,0.41319
4655.91885,0.41382
4653.99013,0.41151
4652.06142,0.40609
4650.13270,0.39706
4648.20398,0.38526
4646.27527,0.37214
4644.34655,0.35839
4642.41784,0.34425
4640.48912,0.33042
4638.56041,0.31823
4636.63169,0.30862
4634.70298,0.30225
4632.77426,0.30059
4630.84555,0.30518
4628.91683,0.31642
4626.98812,0.33363
4625.05940,0.35597
4623.13069,0.38267
4621.20197,0.41198
4619.27325,0.44158
4617.34454,0.47014
4615.41582,0.49667
4613.48711,0.51984
4611.55839,0.53932
4609.62968,0.55587
4607.70096,0.56925
4605.77225,0.57890
4603.84353,0.58552
4601.91482,0.58974
4599.98610,0.59131
4598.05739,0.59003
4596.12867,0.58645
4594.19996,0.58146
4592.27124,0.57507
4590.34252,0.56724
4588.41381,0.55875
4586.48509,0.55010
4584.55638,0.54139
4582.62766,0.53321
4580.69895,0.52640
4578.77023,0.52145
4576.84152,0.51834
4574.91280,0.51723
4572.98409,0.51916
4571.05537,0.52476
4569.12666,0.53305
4567.19794,0.54318
4565.26923,0.55569
4563.34051,0.57078
4561.41179,0.58724
4559.48308,0.60313
4557.55436,0.61742
4555.62565,0.63039
4553.69693,0.64189
4551.76822,0.65103
4549.83950,0.65736
4547.91079,0.66138
4545.98207,0.66367
4544.05336,0.66432
4542.12464,0.66387
4540.19593,0.66336
4538.26721,0.66278
4536.33849,0.66149
4534.40978,0.66029
4532.48106,0.66058
4530.55235,0.66189
4528.62363,0.66267
4526.69492,0.66272
4524.76620,0.66291
4522.83749,0.66333
4520.90877,0.66365
4518.98006,0.66392
4517.05134,0.66411
4515.12263,0.66419
4513.19391,0.66373
4511.26520,0.66221
4509.33648,0.66002
4507.40776,0.65756
4505.47905,0.65433
4503.55033,0.65006
4501.62162,0.64504
4499.69290,0.63932
4497.76419,0.63278
4495.83547,0.62543
4493.90676,0.61747
4491.97804,0.60944
4490.04933,0.60181
4488.12061,0.59478
4486.19190,0.58834
4484.26318,0.58230
4482.33447,0.57704
4480.40575,0.57366
4478.47703,0.57241
4476.54832,0.57187
4474.61960,0.57113
4472.69089,0.57062
4470.76217,0.57033
4468.83346,0.57004
4466.90474,0.56989
4464.97603,0.56919
4463.04731,0.56732
4461.11860,0.56450
4459.18988,0.56065
4457.26117,0.55553
4455.33245,0.54916
4453.40373,0.54161
4451.47502,0.53293
4449.54630,0.52294
4447.61759,0.51152
4445.68887,0.49912
4443.76016,0.48642
4441.83144,0.47345
4439.90273,0.45959
4437.97401,0.44482
4436.04530,0.42983
4434.11658,0.41491
4432.18787,0.40009
4430.25915,0.38565
4428.33044,0.37160
4426.40172,0.35796
4424.47300,0.34456
4422.54429,0.33067
4420.61557,0.31649
4418.68686,0.30295
4416.75814,0.29005
4414.82943,0.27791
4412.90071,0.26710
4410.97200,0.25779
4409.04328,0.25053
4407.11457,0.24618
4405.18585,0.24514
4403.25714,0.24747
4401.32842,0.25301
4399.39971,0.26158
4397.47099,0.27265
4395.54227,0.28479
4393.61356,0.29592
4391.68484,0.30450
4389.75613,0.31029
4387.82741,0.31309
4385.89870,0.31231
4383.96998,0.30826
4382.04127,0.30178
4380.11255,0.29363
4378.18384,0.28426
4376.25512,0.27418
4374.32641,0.26455
4372.39769,0.25619
4370.46898,0.24896
4368.54026,0.24252
4366.61154,0.23706
4364.68283,0.23287
4362.75411,0.22929
4360.82540,0.22561
4358.89668,0.22212
4356.96797,0.21925
4355.03925,0.21656
4353.11054,0.21333
4351.18182,0.20945
4349.25311,0.20554
4347.32439,0.20240
4345.39568,0.20024
4343.46696,0.19851
4341.53824,0.19624
4339.60953,0.19287
4337.68081,0.18843
4335.75210,0.18331
4333.82338,0.17797
4331.89467,0.17263
4329.96595,0.16761
4328.03724,0.16342
4326.10852,0.16067
4324.17981,0.16009
4322.25109,0.16221
4320.32238,0.16691
4318.39366,0.17362
4316.46495,0.18161
4314.53623,0.18988
4312.60751,0.19706
4310.67880,0.20236
4308.75008,0.20586
4306.82137,0.20764
4304.89265,0.20777
4302.96394,0.20702
4301.03522,0.20656
4299.10651,0.20699
4297.17779,0.20870
4295.24908,0.21169
4293.32036,0.21542
4291.39165,0.21976
4289.46293,0.22484
4287.53422,0.23032
4285.60550,0.23530
4283.67678,0.23930
4281.74807,0.24292
4279.81935,0.24670
4277.89064,0.25043
4275.96192,0.25374
4274.03321,0.25674
4272.10449,0.25983
4270.17578,0.26287
4268.24706,0.26563
4266.31835,0.26862
4264.38963,0.27244
4262.46092,0.27710
4260.53220,0.28210
4258.60348,0.28700
4256.67477,0.29201
4254.74605,0.29758
4252.81734,0.30314
4250.88862,0.30758
4248.95991,0.31038
4247.03119,0.31156
4245.10248,0.31115
4243.17376,0.30901
4241.24505,0.30568
4239.31633,0.30236
4237.38762,0.29943
4235.45890,0.29656
4233.53019,0.29354
4231.60147,0.29071
4229.67275,0.28857
4227.74404,0.28672
4225.81532,0.28421
4223.88661,0.28094
4221.95789,0.27767
4220.02918,0.27492
4218.10046,0.27234
4216.17175,0.26972
4214.24303,0.26725
4212.31432,0.26487
4210.38560,0.26233
4208.45689,0.25960
4206.52817,0.25706
4204.59946,0.25510
4202.67074,0.25377
4200.74202,0.25291
4198.81331,0.25233
4196.88459,0.25165
4194.95588,0.25056
4193.02716,0.24916
4191.09845,0.24778
4189.16973,0.24646
4187.24102,0.24471
4185.31230,0.24236
4183.38359,0.23981
4181.45487,0.23741
4179.52616,0.23520
4177.59744,0.23297
4175.66873,0.23063
4173.74001,0.22848
4171.81129,0.22700
4169.88258,0.22704
4167.95386,0.22921
4166.02515,0.23343
4164.09643,0.23943
4162.16772,0.24695
4160.23900,0.25578
4158.31029,0.26573
4156.38157,0.27622
4154.45286,0.28658
4152.52414,0.29648
4150.59543,0.30569
4148.66671,0.31406
4146.73799,0.32096
4144.80928,0.32539
4142.88056,0.32753
4140.95185,0.32842
4139.02313,0.32878
4137.09442,0.32934
4135.16570,0.33039
4133.23699,0.33143
4131.30827,0.33214
4129.37956,0.33194
4127.45084,0.33021
4125.52213,0.32701
4123.59341,0.32243
4121.66470,0.31659
4119.73598,0.30988
4117.80726,0.30240
4115.87855,0.29367
4113.94983,0.28315
4112.02112,0.27067
4110.09240,0.25633
4108.16369,0.24047
4106.23497,0.22346
4104.30626,0.20558
4102.37754,0.18697
4100.44883,0.16796
4098.52011,0.14948
4096.59140,0.13232
4094.66268,0.11657
4092.73397,0.10205
4090.80525,0.08887
4088.87653,0.07722
4086.94782,0.06709
4085.01910,0.05879
4083.09039,0.05232
4081.16167,0.04684
4079.23296,0.04203
4077.30424,0.03834
4075.37553,0.03617
4073.44681,0.03589
4071.51810,0.03780
4069.58938,0.04188
4067.66067,0.04829
4065.73195,0.05733
4063.80323,0.06919
4061.87452,0.08356
4059.94580,0.09953
4058.01709,0.11597
4056.08837,0.13211
4054.15966,0.14818
4052.23094,0.16527
4050.30223,0.18382
4048.37351,0.20324
4046.44480,0.22337
4044.51608,0.24472
4042.58737,0.26625
4040.65865,0.28587
4038.72994,0.30266
4036.80122,0.31622
4034.87250,0.32607
4032.94379,0.33251
4031.01507,0.33616
4029.08636,0.33721
4027.15764,0.33582
4025.22893,0.33288
4023.30021,0.32991
4021.37150,0.32759
4019.44278,0.32565
4017.51407,0.32428
4015.58535,0.32394
4013.65664,0.32456
4011.72792,0.32581
4009.79921,0.32744
4007.87049,0.32907
4005.94177,0.33025
4004.01306,0.33064
4002.08434,0.32997
4000.15563,0.32812
3998.22691,0.32543
3996.29820,0.32265
3994.36948,0.32025
3992.44077,0.31841
3990.51205,0.31709
3988.58334,0.31627
3986.65462,0.31611
3984.72591,0.31676
3982.79719,0.31830
3980.86848,0.32065
3978.93976,0.32372
3977.01104,0.32769
3975.08233,0.33323
3973.15361,0.34055
3971.22490,0.34867
3969.29618,0.35670
3967.36747,0.36434
3965.43875,0.37087
3963.51004,0.37527
3961.58132,0.37706
3959.65261,0.37648
3957.72389,0.37414
3955.79518,0.37050
3953.86646,0.36579
3951.93774,0.36051
3950.00903,0.35580
3948.08031,0.35298
3946.15160,0.35205
3944.22288,0.35139
3942.29417,0.35090
3940.36545,0.35145
3938.43674,0.35215
3936.50802,0.35202
3934.57931,0.35094
3932.65059,0.34969
3930.72188,0.34995
3928.79316,0.35141
3926.86445,0.35143
3924.93573,0.34918
3923.00701,0.34630
3921.07830,0.34286
3919.14958,0.33795
3917.22087,0.33283
3915.29215,0.32916
3913.36344,0.32623
3911.43472,0.32297
3909.50601,0.31920
3907.57729,0.31426
3905.64858,0.30798
3903.71986,0.30244
3901.79115,0.29943
3899.86243,0.29787
3897.93372,0.29694
3896.00500,0.29550
3894.07628,0.29199
3892.14757,0.28707
3890.21885,0.28337
3888.29014,0.28053
3886.36142,0.27676
3884.43271,0.27350
3882.50399,0.27239
3880.57528,0.27424
3878.64656,0.28017
3876.71785,0.28737
3874.78913,0.29607
3872.86042,0.30707
3870.93170,0.32108
3869.00298,0.33932
3867.07427,0.35444
3865.14555,0.36602
3863.21684,0.37983
3861.28812,0.39427
3859.35941,0.40454
3857.43069,0.40939
3855.50198,0.41047
3853.57326,0.41479
3851.64455,0.42825
3849.71583,0.44079
3847.78712,0.44910
3845.85840,0.45330
3843.92969,0.45428
3842.00097,0.45409
3840.07225,0.45424
3838.14354,0.45713
3836.21482,0.46287
3834.28611,0.46806
3832.35739,0.47176
3830.42868,0.47354
3828.49996,0.47270
3826.57125,0.47030
3824.64253,0.46775
3822.71382,0.46354
3820.78510,0.45881
3818.85639,0.45799
3816.92767,0.45882
3814.99896,0.46155
3813.07024,0.46558
3811.14152,0.46747
3809.21281,0.46641
3807.28409,0.46502
3805.35538,0.46581
3803.42666,0.46653
3801.49795,0.46977
3799.56923,0.47814
3797.64052,0.48703
3795.71180,0.49652
3793.78309,0.50601
3791.85437,0.51346
3789.92566,0.51889
3787.99694,0.52254
3786.06823,0.52522
3784.13951,0.52861
3782.21079,0.53121
3780.28208,0.53140
3778.35336,0.53192
3776.42465,0.53334
3774.49593,0.53204
3772.56722,0.52620
3770.63850,0.51688
3768.70979,0.50782
3766.78107,0.50051
3764.85236,0.49286
3762.92364,0.48415
3760.99493,0.47260
3759.06621,0.45855
3757.13749,0.44778
3755.20878,0.43979
3753.28006,0.42966
3751.35135,0.41727
3749.42263,0.41118
3747.49392,0.41087
3745.56520,0.41049
3743.63649,0.41234
3741.70777,0.41620
3739.77906,0.41855
3737.85034,0.41858
3735.92163,0.41902
3733.99291,0.42542
3732.06420,0.43606
3730.13548,0.44433
3728.20676,0.44750
3726.27805,0.44693
3724.34933,0.44515
3722.42062,0.44354
3720.49190,0.44172
3718.56319,0.43825
3716.63447,0.43176
3714.70576,0.42057
3712.77704,0.40286
3710.84833,0.38200
3708.91961,0.36694
3706.99090,0.35483
3705.06218,0.34052
3703.13347,0.32202
3701.20475,0.30074
3699.27603,0.28216
3697.34732,0.26507
3695.41860,0.24644
3693.48989,0.22657
3691.56117,0.20405
3689.63246,0.17613
3687.70374,0.14984
3685.77503,0.13153
3683.84631,0.11671
3681.91760,0.10251
3679.98888,0.08940
3678.06017,0.07885
3676.13145,0.07153
3674.20273,0.06962
3672.27402,0.07104
3670.34530,0.07523
3668.41659,0.08388
3666.48787,0.09363
3664.55916,0.10392
3662.63044,0.11555
3660.70173,0.12801
3658.77301,0.14110
3656.84430,0.15756
3654.91558,0.17560
3652.98687,0.18927
3651.05815,0.20210
3649.12944,0.22243
3647.20072,0.24748
3645.27200,0.26704
3643.34329,0.28269
3641.41457,0.29725
3639.48586,0.31073
3637.55714,0.32223
3635.62843,0.33171
3633.69971,0.33968
3631.77100,0.34537
3629.84228,0.35144
3627.91357,0.36480
3625.98485,0.37987
3624.05614,0.39051
3622.12742,0.39705
3620.19871,0.40200
3618.26999,0.40912
3616.34127,0.41644
3614.41256,0.42078
3612.48384,0.42271
3610.55513,0.42155
3608.62641,0.41547
3606.69770,0.40630
3604.76898,0.39514
3602.84027,0.37915
3600.91155,0.35717
3598.98284,0.33286
3597.05412,0.30858
3595.12541,0.28334
3593.19669,0.25958
3591.26798,0.23970
3589.33926,0.22039
3587.41054,0.19969
3585.48183,0.18396
3583.55311,0.17380
3581.62440,0.16495
3579.69568,0.15708
3577.76697,0.15087
3575.83825,0.14637
3573.90954,0.14328
3571.98082,0.14073
3570.05211,0.13751
3568.12339,0.13310
3566.19468,0.12887
3564.26596,0.12648
3562.33724,0.12421
3560.40853,0.12059
3558.47981,0.11601
3556.55110,0.11106
3554.62238,0.10575
3552.69367,0.09961
3550.76495,0.09293
3548.83624,0.08645
3546.90752,0.07983
3544.97881,0.07336
3543.05009,0.06801
3541.12138,0.06351
3539.19266,0.05924
3537.26395,0.05549
3535.33523,0.05291
3533.40651,0.05144
3531.47780,0.05083
3529.54908,0.05128
3527.62037,0.05337
3525.69165,0.05740
3523.76294,0.06385
3521.83422,0.07264
3519.90551,0.08292
3517.97679,0.09488
3516.04808,0.10875
3514.11936,0.12405
3512.19065,0.14021
3510.26193,0.15755
3508.33322,0.17560
3506.40450,0.19218
3504.47578,0.20755
3502.54707,0.22345
3500.61835,0.23874
3498.68964,0.25158
3496.76092,0.26251
3494.83221,0.27256
3492.90349,0.28169
3490.97478,0.28937
3489.04606,0.29570
3487.11735,0.30179
3485.18863,0.30803
3483.25992,0.31395
3481.33120,0.31991
3479.40248,0.32603
3477.47377,0.33168
3475.54505,0.33684
3473.61634,0.34214
3471.68762,0.34780
3469.75891,0.35372
3467.83019,0.35985
3465.90148,0.36603
3463.97276,0.37226
3462.04405,0.37903
3460.11533,0.38646
3458.18662,0.39379
3456.25790,0.40077
3454.32919,0.40767
3452.40047,0.41437
3450.47175,0.42009
3448.54304,0.42470
3446.61432,0.42957
3444.68561,0.43506
3442.75689,0.44045
3440.82818,0.44611
3438.89946,0.45220
3436.97075,0.45778
3435.04203,0.46231
3433.11332,0.46641
3431.18460,0.47078
3429.25589,0.47533
3427.32717,0.47953
3425.39846,0.48309
3423.46974,0.48579
3421.54102,0.48790
3419.61231,0.49028
3417.68359,0.49265
3415.75488,0.49408
3413.82616,0.49457
3411.89745,0.49434
3409.96873,0.49335
3408.04002,0.49168
3406.11130,0.48980
3404.18259,0.48802
3402.25387,0.48588
3400.32516,0.48268
3398.39644,0.47838
3396.46773,0.47358
3394.53901,0.46862
3392.61029,0.46345
3390.68158,0.45810
3388.75286,0.45243
3386.82415,0.44643
3384.89543,0.44079
3382.96672,0.43597
3381.03800,0.43178
3379.10929,0.42812
3377.18057,0.42517
3375.25186,0.42282
3373.32314,0.42091
3371.39443,0.41956
3369.46571,0.41866
3367.53699,0.41793
3365.60828,0.41757
3363.67956,0.41795
3361.75085,0.41915
3359.82213,0.42078
3357.89342,0.42239
3355.96470,0.42379
3354.03599,0.42505
3352.10727,0.42613
3350.17856,0.42672
3348.24984,0.42669
3346.32113,0.42633
3344.39241,0.42589
3342.46370,0.42529
3340.53498,0.42428
3338.60626,0.42268
3336.67755,0.42047
3334.74883,0.41794
3332.82012,0.41515
3330.89140,0.41162
3328.96269,0.40713
3327.03397,0.40166
3325.10526,0.39517
3323.17654,0.38820
3321.24783,0.38126
3319.31911,0.37420
3317.39040,0.36681
3315.46168,0.35893
3313.53297,0.35055
3311.60425,0.34225
3309.67553,0.33464
3307.74682,0.32780
3305.81810,0.32126
3303.88939,0.31445
3301.96067,0.30769
3300.03196,0.30174
3298.10324,0.29675
3296.17453,0.29230
3294.24581,0.28794
3292.31710,0.28358
3290.38838,0.27961
3288.45967,0.27633
3286.53095,0.27345
3284.60223,0.27070
3282.67352,0.26817
3280.74480,0.26567
3278.81609,0.26308
3276.88737,0.26045
3274.95866,0.25767
3273.02994,0.25477
3271.10123,0.25199
3269.17251,0.24920
3267.24380,0.24596
3265.31508,0.24236
3263.38637,0.23885
3261.45765,0.23573
3259.52894,0.23290
3257.60022,0.22982
3255.67150,0.22646
3253.74279,0.22346
3251.81407,0.22085
3249.88536,0.21825
3247.95664,0.21560
3246.02793,0.21294
3244.09921,0.21046
3242.17050,0.20829
3240.24178,0.20618
3238.31307,0.20416
3236.38435,0.20227
3234.45564,0.20007
3232.52692,0.19758
3230.59821,0.19509
3228.66949,0.19236
3226.74077,0.18942
3224.81206,0.18652
3222.88334,0.18325
3220.95463,0.17912
3219.02591,0.17425
3217.09720,0.16861
3215.16848,0.16210
3213.23977,0.15522
3211.31105,0.14836
3209.38234,0.14117
3207.45362,0.13324
3205.52491,0.12498
3203.59619,0.11738
3201.66748,0.11081
3199.73876,0.10487
3197.81004,0.09984
3195.88133,0.09640
3193.95261,0.09439
3192.02390,0.09312
3190.09518,0.09242
3188.16647,0.09199
3186.23775,0.09136
3184.30904,0.09068
3182.38032,0.09010
3180.45161,0.08950
3178.52289,0.08938
3176.59418,0.09013
3174.66546,0.09139
3172.73674,0.09273
3170.80803,0.09395
3168.87931,0.09493
3166.95060,0.09533
3165.02188,0.09477
3163.09317,0.09320
3161.16445,0.09093
3159.23574,0.08830
3157.30702,0.08552
3155.37831,0.08247
3153.44959,0.07897
3151.52088,0.07511
3149.59216,0.07109
3147.66345,0.06679
3145.73473,0.06192
3143.80601,0.05644
3141.87730,0.05060
3139.94858,0.04469
3138.01987,0.03884
3136.09115,0.03306
3134.16244,0.02734
3132.23372,0.02176
3130.30501,0.01663
3128.37629,0.01239
3126.44758,0.00923
3124.51886,0.00695
3122.59015,0.00519
3120.66143,0.00388
3118.73272,0.00314
3116.80400,0.00289
3114.87528,0.00255
3112.94657,0.00190
3111.01785,0.00152
3109.08914,0.00163
3107.16042,0.00171
3105.23171,0.00169
3103.30299,0.00186
3101.37428,0.00203
3099.44556,0.00186
3097.51685,0.00162
3095.58813,0.00144
3093.65942,0.00112
3091.73070,0.00093
3089.80198,0.00104
3087.87327,0.00098
3085.94455,0.00069
3084.01584,0.00056
3082.08712,0.00082
3080.15841,0.00097
3078.22969,0.00059
3076.30098,0.00014
3074.37226,0.00038
3072.44355,0.00023
3070.51483,0.00027
3068.58612,0.00054
3066.65740,0.00088
3064.72869,0.00094
3062.79997,0.00062
3060.87125,0.00025
3058.94254,0.00063
3057.01382,0.00093
3055.08511,0.00078
3053.15639,0.00079
3051.22768,0.00089
3049.29896,0.00078
3047.37025,0.00063
3045.44153,0.00065
3043.51282,0.00072
3041.58410,0.00058
3039.65539,0.00033
3037.72667,0.00022
3035.79796,0.00048
3033.86924,0.00051
3031.94052,0.00012
3030.01181,0.00006
3028.08309,0.00035
3026.15438,0.00030
3024.22566,0.00026
3022.29695,0.00068
3020.36823,0.00097
3018.43952,0.00098
3016.51080,0.00085
3014.58209,0.00052
3012.65337,0.00047
3010.72466,0.00072
3008.79594,0.00044
3006.86723,0.00035
3004.93851,0.00053
3003.00979,0.00057
3001.08108,0.00039
2999.15236,0.00029
2997.22365,0.00032
2995.29493,-0.00006
2993.36622,0.00023
2991.43750,0.00065
2989.50879,0.00067
2987.58007,0.00051
2985.65136,0.00037
2983.72264,0.00020
2981.79393,0.00051
2979.86521,0.00042
2977.93649,0.00037
2976.00778,0.00027
2974.07906,0.00028
2972.15035,0.00059
2970.22163,0.00053
2968.29292,0.00013
2966.36420,0.00050
2964.43549,0.00071
2962.50677,0.00045
2960.57806,0.00039
2958.64934,0.00066
2956.72063,0.00089
2954.79191,0.00091
2952.86320,0.00080
2950.93448,0.00059
2949.00576,0.00044
2947.07705,0.00061
2945.14833,0.00056
2943.21962,0.00019
2941.29090,0.00021
2939.36219,0.00051
2937.43347,0.00035
2935.50476,0.00018
2933.57604,0.00021
2931.64733,0.00069
2929.71861,0.00047
2927.78990,0.00026
2925.86118,0.00033
2923.93247,0.00057
2922.00375,0.00063
2920.07503,0.00059
2918.14632,0.00073
2916.21760,0.00073
2914.28889,0.00045
2912.36017,0.00024
2910.43146,0.00043
2908.50274,0.00036
2906.57403,0.00041
2904.64531,0.00054
2902.71660,0.00052
2900.78788,0.00038
2898.85917,0.00028
2896.93045,0.00021
2895.00173,0.00048
2893.07302,0.00066
2891.14430,0.00040
2889.21559,0.00017
2887.28687,0.00030
2885.35816,0.00046
2883.42944,0.00042
2881.50073,0.00033
2879.57201,0.00025
2877.64330,0.00029
2875.71458,0.00037
2873.78587,0.00050
2871.85715,0.00043
2869.92844,0.00012
2867.99972,0.00018
2866.07100,0.00044
2864.14229,-0.00007
2862.21357,-0.00013
2860.28486,0.00021
2858.35614,0.00114
2856.42743,0.00272
2854.49871,0.00486
2852.57000,0.00785
2850.64128,0.01204
2848.71257,0.01771
2846.78385,0.02533
2844.85514,0.03516
2842.92642,0.04685
2840.99771,0.05935
2839.06899,0.07117
2837.14027,0.08104
2835.21156,0.08849
2833.28284,0.09367
2831.35413,0.09701
2829.42541,0.09931
2827.49670,0.10139
2825.56798,0.10351
2823.63927,0.10557
2821.71055,0.10688
2819.78184,0.10616
2817.85312,0.10270
2815.92441,0.09716
2813.99569,0.09101
2812.06698,0.08612
2810.13826,0.08399
2808.20954,0.08500
2806.28083,0.08877
2804.35211,0.09502
2802.42340,0.10334
2800.49468,0.11223
2798.56597,0.11915
2796.63725,0.12191
2794.70854,0.12003
2792.77982,0.11428
2790.85111,0.10575
2788.92239,0.09576
2786.99368,0.08568
2785.06496,0.07656
2783.13624,0.06933
2781.20753,0.06486
2779.27881,0.06351
2777.35010,0.06544
2775.42138,0.07089
2773.49267,0.07975
2771.56395,0.09111
2769.63524,0.10370
2767.70652,0.11629
2765.77781,0.12833
2763.84909,0.14034
2761.92038,0.15348
2759.99166,0.16859
2758.06295,0.18541
2756.13423,0.20245
2754.20551,0.21772
2752.27680,0.23000
2750.34808,0.23914
2748.41937,0.24519
2746.49065,0.24803
2744.56194,0.24764
2742.63322,0.24400
2740.70451,0.23713
2738.77579,0.22746
2736.84708,0.21603
2734.91836,0.20492
2732.98965,0.19694
2731.06093,0.19390
2729.13222,0.19546
2727.20350,0.19932
2725.27478,0.20163
2723.34607,0.19906
2721.41735,0.19146
2719.48864,0.18202
2717.55992,0.17494
2715.63121,0.17353
2713.70249,0.17912
2711.77378,0.19083
2709.84506,0.20635
2707.91635,0.22309
2705.98763,0.23920
2704.05892,0.25385
2702.13020,0.26701
2700.20149,0.27892
2698.27277,0.28962
2696.34405,0.29901
2694.41534,0.30720
2692.48662,0.31431
2690.55791,0.32034
2688.62919,0.32519
2686.70048,0.32882
2684.77176,0.33124
2682.84305,0.33242
2680.91433,0.33198
2678.98562,0.32952
2677.05690,0.32537
2675.12819,0.32063
2673.19947,0.31654
2671.27075,0.31392
2669.34204,0.31306
2667.41332,0.31397
2665.48461,0.31628
2663.55589,0.31980
2661.62718,0.32477
2659.69846,0.33122
2657.76975,0.33886
2655.84103,0.34760
2653.91232,0.35717
2651.98360,0.36701
2650.05489,0.37653
2648.12617,0.38507
2646.19746,0.39193
2644.26874,0.39661
2642.34002,0.39891
2640.41131,0.39875
2638.48259,0.39592
2636.55388,0.39023
2634.62516,0.38183
2632.69645,0.37117
2630.76773,0.35819
2628.83902,0.34234
2626.91030,0.32364
2624.98159,0.30286
2623.05287,0.28101
2621.12416,0.25964
2619.19544,0.24095
2617.26673,0.22638
2615.33801,0.21609
2613.40929,0.20953
2611.48058,0.20546
2609.55186,0.20259
2607.62315,0.20029
2605.69443,0.19839
2603.76572,0.19678
2601.83700,0.19544
2599.90829,0.19459
2597.97957,0.19413
2596.05086,0.19361
2594.12214,0.19275
2592.19343,0.19176
2590.26471,0.19127
2588.33599,0.19216
2586.40728,0.19493
2584.47856,0.19948
2582.54985,0.20514
2580.62113,0.21090
2578.69242,0.21641
2576.76370,0.22218
2574.83499,0.22892
2572.90627,0.23743
2570.97756,0.24824
2569.04884,0.26091
2567.12013,0.27396
2565.19141,0.28570
2563.26270,0.29474
2561.33398,0.30027
2559.40526,0.30219
2557.47655,0.30085
2555.54783,0.29706
2553.61912,0.29184
2551.69040,0.28587
2549.76169,0.27930
2547.83297,0.27228
2545.90426,0.26509
2543.97554,0.25757
2542.04683,0.24926
2540.11811,0.23997
2538.18940,0.23002
2536.26068,0.22010
2534.33197,0.21109
2532.40325,0.20437
2530.47453,0.20132
2528.54582,0.20206
2526.61710,0.20574
2524.68839,0.21137
2522.75967,0.21736
2520.83096,0.22175
2518.90224,0.22322
2516.97353,0.22133
2515.04481,0.21644
2513.11610,0.20942
2511.18738,0.20124
2509.25867,0.19304
2507.32995,0.18563
2505.40124,0.17882
2503.47252,0.17189
2501.54380,0.16402
2499.61509,0.15460
2497.68637,0.14369
2495.75766,0.13190
2493.82894,0.11993
2491.90023,0.10867
2489.97151,0.09877
2488.04280,0.09036
2486.11408,0.08334
2484.18537,0.07756
2482.25665,0.07263
2480.32794,0.06817
2478.39922,0.06394
2476.47050,0.06009
2474.54179,0.05702
2472.61307,0.05490
2470.68436,0.05361
2468.75564,0.05294
2466.82693,0.05275
2464.89821,0.05299
2462.96950,0.05358
2461.04078,0.05429
2459.11207,0.05482
2457.18335,0.05498
2455.25464,0.05499
2453.32592,0.05513
2451.39721,0.05552
2449.46849,0.05600
2447.53977,0.05655
2445.61106,0.05750
2443.68234,0.05895
2441.75363,0.06045
2439.82491,0.06125
2437.89620,0.06092
2435.96748,0.05958
2434.03877,0.05748
2432.11005,0.05471
2430.18134,0.05139
2428.25262,0.04758
2426.32391,0.04337
2424.39519,0.03912
2422.46648,0.03531
2420.53776,0.03222
2418.60904,0.02971
2416.68033,0.02773
2414.75161,0.02644
2412.82290,0.02574
2410.89418,0.02536
2408.96547,0.02523
2407.03675,0.02556
2405.10804,0.02653
2403.17932,0.02791
2401.25061,0.02924
2399.32189,0.03033
2397.39318,0.03127
2395.46446,0.03238
2393.53574,0.03409
2391.60703,0.03685
2389.67831,0.04083
2387.74960,0.04601
2385.82088,0.05221
2383.89217,0.05902
2381.96345,0.06606
2380.03474,0.07318
2378.10602,0.08029
2376.17731,0.08715
2374.24859,0.09358
2372.31988,0.09963
2370.39116,0.10533
2368.46245,0.11096
2366.53373,0.11659
2364.60501,0.12168
2362.67630,0.12601
2360.74758,0.12995
2358.81887,0.13375
2356.89015,0.13736
2354.96144,0.14069
2353.03272,0.14357
2351.10401,0.14523
2349.17529,0.14413
2347.24658,0.13924
2345.31786,0.13184
2343.38915,0.12571
2341.46043,0.12241
2339.53172,0.12001
2337.60300,0.11723
2335.67428,0.11447
2333.74557,0.11163
2331.81685,0.10760
2329.88814,0.10260
2327.95942,0.09823
2326.03071,0.09556
2324.10199,0.09494
2322.17328,0.09661
2320.24456,0.10037
2318.31585,0.10510
2316.38713,0.10962
2314.45842,0.11346
2312.52970,0.11630
2310.60099,0.11780
2308.67227,0.11792
2306.74355,0.11705
2304.81484,0.11534
2302.88612,0.11266
2300.95741,0.10929
2299.02869,0.10584
2297.09998,0.10288
2295.17126,0.10087
2293.24255,0.09964
2291.31383,0.09805
2289.38512,0.09479
2287.45640,0.08924
2285.52769,0.08197
2283.59897,0.07450
2281.67025,0.06826
2279.74154,0.06397
2277.81282,0.06114
2275.88411,0.05846
2273.95539,0.05478
2272.02668,0.04971
2270.09796,0.04345
2268.16925,0.03655
2266.24053,0.02963
2264.31182,0.02317
2262.38310,0.01755
2260.45439,0.01292
2258.52567,0.00930
2256.59696,0.00667
2254.66824,0.00488
2252.73952,0.00355
2250.81081,0.00248
2248.88209,0.00177
2246.95338,0.00136
2245.02466,0.00107
2243.09595,0.00086
2241.16723,0.00071
2239.23852,0.00059
2237.30980,0.00048
2235.38109,0.00038
2233.45237,0.00046
2231.52366,0.00031
2229.59494,0.00047
2227.66623,0.00040
2225.73751,0.00034
2223.80879,0.00065
2221.88008,0.00127
2219.95136,0.00201
2218.02265,0.00292
2216.09393,0.00408
2214.16522,0.00536
2212.23650,0.00653
2210.30779,0.00744
2208.37907,0.00795
2206.45036,0.00784
2204.52164,0.00713
2202.59293,0.00640
2200.66421,0.00600
2198.73549,0.00572
2196.80678,0.00576
2194.87806,0.00681
2192.94935,0.00903
2191.02063,0.01220
2189.09192,0.01670
2187.16320,0.02288
2185.23449,0.03036
2183.30577,0.03873
2181.37706,0.04761
2179.44834,0.05608
2177.51963,0.06295
2175.59091,0.06745
2173.66220,0.06989
2171.73348,0.07180
2169.80476,0.07505
2167.87605,0.08114
2165.94733,0.09101
2164.01862,0.10467
2162.08990,0.12110
2160.16119,0.13886
2158.23247,0.15654
2156.30376,0.17289
2154.37504,0.18680
2152.44633,0.19758
2150.51761,0.20488
2148.58890,0.20871
2146.66018,0.20941
2144.73147,0.20733
2142.80275,0.20278
2140.87403,0.19617
2138.94532,0.18799
2137.01660,0.17886
2135.08789,0.16932
2133.15917,0.15956
2131.23046,0.14966
2129.30174,0.13975
2127.37303,0.13009
2125.44431,0.12091
2123.51560,0.11239
2121.58688,0.10478
2119.65817,0.09823
2117.72945,0.09271
2115.80074,0.08800
2113.87202,0.08364
2111.94330,0.07941
2110.01459,0.07521
2108.08587,0.07089
2106.15716,0.06646
2104.22844,0.06202
2102.29973,0.05747
2100.37101,0.05257
2098.44230,0.04714
2096.51358,0.04123
2094.58487,0.03500
2092.65615,0.02873
2090.72744,0.02294
2088.79872,0.01810
2086.87000,0.01440
2084.94129,0.01184
2083.01257,0.01040
2081.08386,0.00998
2079.15514,0.01054
2077.22643,0.01201
2075.29771,0.01418
2073.36900,0.01655
2071.44028,0.01858
2069.51157,0.01986
2067.58285,0.02016
2065.65414,0.01948
2063.72542,0.01770
2061.79671,0.01491
2059.86799,0.01178
2057.93927,0.00896
2056.01056,0.00675
2054.08184,0.00530
2052.15313,0.00465
2050.22441,0.00473
2048.29570,0.00550
2046.36698,0.00679
2044.43827,0.00849
2042.50955,0.01056
2040.58084,0.01288
2038.65212,0.01521
2036.72341,0.01745
2034.79469,0.01936
2032.86598,0.02067
2030.93726,0.02128
2029.00854,0.02141
2027.07983,0.02142
2025.15111,0.02148
2023.22240,0.02145
2021.29368,0.02109
2019.36497,0.02018
2017.43625,0.01870
2015.50754,0.01695
2013.57882,0.01526
2011.65011,0.01384
2009.72139,0.01289
2007.79268,0.01240
2005.86396,0.01226
2003.93524,0.01240
2002.00653,0.01274
2000.07781,0.01314
1998.14910,0.01354
1996.22038,0.01402
1994.29167,0.01474
1992.36295,0.01569
1990.43424,0.01677
1988.50552,0.01826
1986.57681,0.02054
1984.64809,0.02365
1982.71938,0.02754
1980.79066,0.03219
1978.86195,0.03734
1976.93323,0.04246
1975.00451,0.04710
1973.07580,0.05080
1971.14708,0.05316
1969.21837,0.05400
1967.28965,0.05351
1965.36094,0.05209
1963.43222,0.05016
1961.50351,0.04800
1959.57479,0.04563
1957.64608,0.04301
1955.71736,0.04021
1953.78865,0.03734
1951.85993,0.03462
1949.93122,0.03224
1948.00250,0.03035
1946.07378,0.02895
1944.14507,0.02774
1942.21635,0.02663
1940.28764,0.02580
1938.35892,0.02498
1936.43021,0.02381
1934.50149,0.02242
1932.57278,0.02089
1930.64406,0.01910
1928.71535,0.01719
1926.78663,0.01539
1924.85792,0.01359
1922.92920,0.01148
1921.00049,0.00924
1919.07177,0.00704
1917.14305,0.00491
1915.21434,0.00321
1913.28562,0.00195
1911.35691,0.00097
1909.42819,0.00041
1907.49948,0.00020
1905.57076,0.00017
1903.64205,0.00027
1901.71333,0.00031
1899.78462,0.00040
1897.85590,0.00051
1895.92719,0.00054
1893.99847,0.00047
1892.06975,0.00033
1890.14104,0.00022
1888.21232,0.00011
1886.28361,0.00015
1884.35489,0.00036
1882.42618,0.00060
1880.49746,0.00065
1878.56875,0.00056
1876.64003,0.00054
1874.71132,0.00072
1872.78260,0.00088
1870.85389,0.00093
1868.92517,0.00093
1866.99646,0.00093
1865.06774,0.00086
1863.13902,0.00068
1861.21031,0.00046
1859.28159,0.00036
1857.35288,0.00034
1855.42416,0.00029
1853.49545,0.00016
1851.56673,0.00020
1849.63802,0.00012
1847.70930,0.00022
1845.78059,0.00050
1843.85187,0.00054
1841.92316,0.00031
1839.99444,0.00021
1838.06573,0.00023
1836.13701,0.00026
1834.20829,0.00023
1832.27958,0.00019
1830.35086,0.00018
1828.42215,0.00021
1826.49343,0.00015
1824.56472,0.00027
1822.63600,0.00041
1820.70729,0.00041
1818.77857,0.00033
1816.84986,0.00025
1814.92114,0.00020
1812.99243,0.00022
1811.06371,0.00015
1809.13499,0.00009
1807.20628,0.00016
1805.27756,0.00028
1803.34885,0.00034
1801.42013,0.00040
1799.49142,0.00038
1797.56270,0.00036
1795.63399,0.00044
1793.70527,0.00054
1791.77656,0.00043
1789.84784,0.00026
1787.91913,0.00024
1785.99041,0.00029
1784.06170,0.00033
1782.13298,0.00040
1780.20426,0.00038
1778.27555,0.00028
1776.34683,0.00017
1774.41812,0.00017
1772.48940,0.00025
1770.56069,0.00025
1768.63197,0.00024
1766.70326,0.00025
1764.77454,0.00018
1762.84583,0.00012
1760.91711,0.00021
1758.98840,0.00026
1757.05968,0.00006
1755.13097,0.00004
1753.20225,0.00011
1751.27353,0.00025
1749.34482,0.00048
1747.41610,0.00057
1745.48739,0.00032
1743.55867,0.00014
1741.62996,0.00014
1739.70124,0.00030
1737.77253,0.00043
1735.84381,0.00050
1733.91510,0.00053
1731.98638,0.00043
1730.05767,0.00023
1728.12895,0.00017
1726.20024,0.00022
1724.27152,0.00028
1722.34280,0.00031
1720.41409,0.00036
1718.48537,0.00034
1716.55666,0.00012
1714.62794,0.00006
1712.69923,0.00020
1710.77051,0.00023
1708.84180,0.00020
1706.91308,0.00030
1704.98437,0.00045
1703.05565,0.00043
1701.12694,0.00039
1699.19822,0.00007
1697.26950,-0.00004
1695.34079,0.00049
1693.41207,0.00094
1691.48336,0.00125
1689.55464,0.00153
1687.62593,0.00175
1685.69721,0.00177
1683.76850,0.00148
1681.83978,0.00140
1679.91107,0.00141
1677.98235,0.00121
1676.05364,0.00098
1674.12492,0.00090
1672.19621,0.00076
1670.26749,0.00031
1668.33877,0.00002
1666.41006,0.00016
1664.48134,0.00024
1662.55263,0.00028
1660.62391,0.00038
1658.69520,0.00049
1656.76648,0.00059
1654.83777,0.00094
1652.90905,0.00125
1650.98034,0.00086
1649.05162,0.00046
1647.12291,0.00044
1645.19419,0.00035
1643.26548,0.00026
1641.33676,0.00015
1639.40804,0.00018
1637.47933,0.00041
1635.55061,0.00064
1633.62190,0.00068
1631.69318,0.00061
1629.76447,0.00047
1627.83575,0.00038
1625.90704,0.00038
1623.97832,0.00033
1622.04961,0.00025
1620.12089,0.00023
1618.19218,0.00014
1616.26346,0.00025
1614.33474,0.00027
1612.40603,0.00029
1610.47731,0.00035
1608.54860,0.00028
1606.61988,0.00012
1604.69117,0.00010
1602.76245,-0.00000
1600.83374,0.00022
1598.90502,0.00030
1596.97631,0.00029
1595.04759,0.00033
1593.11888,0.00040
1591.19016,0.00036
1589.26145,0.00024
1587.33273,0.00018
1585.40401,0.00038
1583.47530,0.00040
1581.54658,0.00042
1579.61787,0.00047
1577.68915,0.00062
1575.76044,0.00073
1573.83172,0.00061
1571.90301,0.00073
1569.97429,0.00079
1568.04558,0.00065
1566.11686,0.00072
1564.18815,0.00096
1562.25943,0.00115
1560.33072,0.00109
1558.40200,0.00065
1556.47328,0.00036
1554.54457,0.00028
1552.61585,0.00025
1550.68714,0.00019
1548.75842,0.00022
1546.82971,0.00029
1544.90099,0.00046
1542.97228,0.00081
1541.04356,0.00096
1539.11485,0.00100
1537.18613,0.00095
1535.25742,0.00079
1533.32870,0.00050
1531.39999,0.00044
1529.47127,0.00053
1527.54255,0.00059
1525.61384,0.00052
1523.68512,0.00047
1521.75641,0.00058
1519.82769,0.00067
1517.89898,0.00053
1515.97026,0.00039
1514.04155,0.00027
1512.11283,0.00018
1510.18412,0.00003
1508.25540,0.00005
1506.32669,0.00036
1504.39797,0.00036
1502.46925,0.00029
1500.54054,0.00024
1498.61182,0.00032
1496.68311,0.00047
1494.75439,0.00050
1492.82568,0.00042
1490.89696,0.00038
1488.96825,0.00049
1487.03953,0.00044
1485.11082,0.00036
1483.18210,0.00036
1481.25339,0.00029
1479.32467,0.00017
1477.39596,0.00013
1475.46724,0.00004
1473.53852,0.00017
1471.60981,0.00054
1469.68109,0.00052
1467.75238,0.00027
1465.82366,0.00012
1463.89495,0.00015
1461.96623,0.00022
1460.03752,0.00037
1458.10880,0.00064
1456.18009,0.00063
1454.25137,0.00032
1452.32266,0.00020
1450.39394,0.00024
1448.46523,0.00024
1446.53651,0.00018
1444.60779,0.00021
1442.67908,0.00027
1440.75036,0.00026
1438.82165,0.00021
1436.89293,0.00026
1434.96422,0.00044
1433.03550,0.00047
1431.10679,0.00047
1429.17807,0.00054
1427.24936,0.00040
1425.32064,0.00031
1423.39193,0.00032
1421.46321,0.00041
1419.53449,0.00043
1417.60578,0.00032
1415.67706,0.00024
1413.74835,0.00022
1411.81963,0.00031
1409.89092,0.00036
1407.96220,0.00029
1406.03349,0.00029
1404.10477,0.00038
1402.17606,0.00048
1400.24734,0.00064
1398.31863,0.00077
1396.38991,0.00074
1394.46120,0.00061
1392.53248,0.00047
1390.60376,0.00036
1388.67505,0.00030
1386.74633,0.00024
1384.81762,0.00011
1382.88890,0.00009
1380.96019,0.00013
1379.03147,0.00023
1377.10276,0.00032
1375.17404,0.00043
1373.24533,0.00050
1371.31661,0.00036
1369.38790,0.00016
1367.45918,0.00013
1365.53047,0.00022
1363.60175,0.00014
1361.67303,0.00017
1359.74432,0.00017
1357.81560,0.00016
1355.88689,0.00024
1353.95817,0.00039
1352.02946,0.00048
1350.10074,0.00047
1348.17203,0.00042
1346.24331,0.00035
1344.31460,0.00030
1342.38588,0.00039
1340.45717,0.00053
1338.52845,0.00060
1336.59974,0.00063
1334.67102,0.00066
1332.74230,0.00059
1330.81359,0.00043
1328.88487,0.00028
1326.95616,0.00026
1325.02744,0.00033
1323.09873,0.00036
1321.17001,0.00032
1319.24130,0.00035
1317.31258,0.00047
1315.38387,0.00056
1313.45515,0.00051
1311.52644,0.00037
1309.59772,0.00034
1307.66900,0.00049
1305.74029,0.00039
1303.81157,0.00029
1301.88286,0.00024
1299.95414,0.00026
1298.02543,0.00031
1296.09671,0.00038
1294.16800,0.00043
1292.23928,0.00038
1290.31057,0.00021
1288.38185,0.00014
1286.45314,0.00021
1284.52442,0.00012
1282.59571,0.00019
1280.66699,0.00030
1278.73827,0.00028
1276.80956,0.00026
1274.88084,0.00027
1272.95213,0.00022
1271.02341,0.00015
1269.09470,0.00017
1267.16598,0.00018
1265.23727,0.00019
1263.30855,0.00019
1261.37984,0.00020
1259.45112,0.00016
1257.52241,0.00038
1255.59369,0.00056
1253.66498,0.00052
1251.73626,0.00043
1249.80754,0.00035
1247.87883,0.00035
1245.95011,0.00054
1244.02140,0.00066
1242.09268,0.00052
1240.16397,0.00035
1238.23525,0.00034
1236.30654,0.00032
1234.37782,0.00045
1232.44911,0.00049
1230.52039,0.00038
1228.59168,0.00031
1226.66296,0.00034
1224.73424,0.00034
1222.80553,0.00038
1220.87681,0.00029
1218.94810,0.00023
1217.01938,0.00015
1215.09067,0.00011
1213.16195,0.00019
1211.23324,0.00031
1209.30452,0.00037
1207.37581,0.00039
1205.44709,0.00036
1203.51838,0.00033
1201.58966,0.00014
1199.66095,-0.00009
1197.73223,0.00021
1195.80351,0.00046
1193.87480,0.00046
1191.94608,0.00033
1190.01737,0.00024
1188.08865,0.00030
1186.15994,0.00032
1184.23122,0.00026
1182.30251,0.00023
1180.37379,0.00003
1178.44508,0.00011
1176.51636,0.00039
1174.58765,0.00055
1172.65893,0.00039
1170.73022,0.00018
1168.80150,0.00023
1166.87278,0.00024
1164.94407,0.00030
1163.01535,0.00046
1161.08664,0.00065
1159.15792,0.00069
1157.22921,0.00056
1155.30049,0.00047
1153.37178,0.00066
1151.44306,0.00071
1149.51435,0.00062
1147.58563,0.00044
1145.65692,0.00030
1143.72820,0.00030
1141.79949,0.00051
1139.87077,0.00057
1137.94205,0.00043
1136.01334,0.00035
1134.08462,0.00041
1132.15591,0.00053
1130.22719,0.00059
1128.29848,0.00029
1126.36976,0.00008
1124.44105,0.00048
1122.51233,0.00106
1120.58362,0.00119
1118.65490,0.00090
1116.72619,0.00059
1114.79747,0.00040
1112.86875,0.00033
1110.94004,0.00044
1109.01132,0.00058
1107.08261,0.00076
1105.15389,0.00072
1103.22518,0.00048
1101.29646,0.00036
1099.36775,0.00046
1097.43903,0.00051
1095.51032,0.00050
1093.58160,0.00044
1091.65289,0.00028
1089.72417,0.00009
1087.79546,0.00010
1085.86674,0.00011
1083.93802,0.00033
1082.00931,0.00050
1080.08059,0.00051
1078.15188,0.00058
1076.22316,0.00080
1074.29445,0.00091
1072.36573,0.00077
1070.43702,0.00057
1068.50830,0.00046
1066.57959,0.00042
1064.65087,0.00046
1062.72216,0.00054
1060.79344,0.00068
1058.86473,0.00068
1056.93601,0.00071
1055.00729,0.00083
1053.07858,0.00085
1051.14986,0.00069
1049.22115,0.00055
1047.29243,0.00068
1045.36372,0.00088
1043.43500,0.00081
1041.50629,0.00050
1039.57757,0.00024
1037.64886,0.00014
1035.72014,-0.00000
1033.79143,0.00024
1031.86271,0.00067
1029.93399,0.00092
1028.00528,0.00090
1026.07656,0.00066
1024.14785,0.00031
1022.21913,0.00007
1020.29042,0.00022
1018.36170,0.00049
1016.43299,0.00040
1014.50427,0.00053
1012.57556,0.00066
1010.64684,0.00062
1008.71813,0.00052
1006.78941,0.00052
1004.86070,0.00062
1002.93198,0.00076
1001.00326,0.00076
999.07455,0.00073
997.14583,0.00056
995.21712,0.00021
993.28840,0.00021
991.35969,0.00056
989.43097,0.00049
987.50226,0.00053
985.57354,0.00056
983.64483,0.00072
981.71611,0.00104
979.78740,0.00150
977.85868,0.00226
975.92997,0.00297
974.00125,0.00316
972.07253,0.00281
970.14382,0.00219
968.21510,0.00152
966.28639,0.00091
964.35767,0.00042
962.42896,0.00025
960.50024,0.00035
958.57153,0.00047
956.64281,0.00092
954.71410,0.00181
952.78538,0.00251
950.85667,0.00237
948.92795,0.00154
946.99924,0.00070
945.07052,0.00034
943.14180,0.00029
941.21309,0.00033
939.28437,0.00051
937.35566,0.00067
935.42694,0.00055
933.49823,0.00082
931.56951,0.00197
929.64080,0.00327
927.71208,0.00373
925.78337,0.00300
923.85465,0.00184
921.92594,0.00108
919.99722,0.00073
918.06850,0.00055
916.13979,0.00048
914.21107,0.00101
912.28236,0.00187
910.35364,0.00275
908.42493,0.00328
906.49621,0.00300
904.56750,0.00193
902.63878,0.00081
900.71007,0.00014
898.78135,0.00009
896.85264,0.00017
894.92392,0.00023
892.99521,0.00054
891.06649,0.00050
889.13777,0.00023
887.20906,0.00034
885.28034,0.00063
883.35163,0.00069
881.42291,0.00044
879.49420,0.00027
877.56548,0.00047
875.63677,0.00078
873.70805,0.00075
871.77934,0.00051
869.85062,0.00029
867.92191,0.00009
865.99319,0.00036
864.06448,0.00091
862.13576,0.00104
860.20704,0.00076
858.27833,0.00049
856.34961,0.00059
854.42090,0.00082
852.49218,0.00067
850.56347,0.00025
848.63475,0.00013
846.70604,0.00035
844.77732,0.00069
842.84861,0.00086
840.91989,0.00073
838.99118,0.00063
837.06246,0.00079
835.13375,0.00091
833.20503,0.00102
831.27631,0.00112
829.34760,0.00081
827.41888,0.00020
825.49017,0.00012
823.56145,0.00047
821.63274,0.00070
819.70402,0.00060
817.77531,0.00066
815.84659,0.00097
813.91788,0.00106
811.98916,0.00082
810.06045,0.00050
808.13173,0.00026
806.20301,0.00025
804.27430,0.00035
802.34558,0.00035
800.41687,0.00034
798.48815,0.00059
796.55944,0.00070
794.63072,0.00088
792.70201,0.00100
790.77329,0.00097
788.84458,0.00094
786.91586,0.00083
784.98715,0.00074
783.05843,0.00089
781.12972,0.00095
779.20100,0.00079
777.27228,0.00048
775.34357,0.00057
773.41485,0.00074
771.48614,0.00093
769.55742,0.00105
767.62871,0.00122
765.69999,0.00130
763.77128,0.00134
761.84256,0.00128
759.91385,0.00100
757.98513,0.00074
756.05642,0.00072
754.12770,0.00053
752.19899,0.00049
750.27027,0.00055
748.34155,0.00066
746.41284,0.00087
744.48412,0.00086
742.55541,0.00042
740.62669,0.00041
738.69798,0.00069
736.76926,0.00091
734.84055,0.00101
732.91183,0.00101
730.98312,0.00086
729.05440,0.00056
727.12569,0.00048
725.19697,0.00026
723.26825,-0.00003
721.33954,0.00028
719.41082,0.00036
717.48211,0.00031
715.55339,0.00042
713.62468,0.00075
711.69596,0.00075
709.76725,0.00048
707.83853,0.00063
705.90982,0.00088
703.98110,0.00065
702.05239,0.00041
700.12367,0.00078
698.19496,0.00119
696.26624,0.00045
694.33752,0.00054
692.40881,0.00223
690.48009,0.00468
688.55138,0.00758
686.62266,0.01101
684.69395,0.01518
682.76523,0.01970
680.83652,0.02417
678.90780,0.02876
676.97909,0.03383
675.05037,0.03936
673.12166,0.04445
671.19294,0.04784
669.26423,0.05049
667.33551,0.05482
665.40679,0.05913
663.47808,0.06212
661.54936,0.06469
659.62065,0.06682
657.69193,0.06824
655.76322,0.06851
653.83450,0.06740
651.90579,0.06565
649.97707,0.06401
648.04836,0.06197
646.11964,0.05842
644.19093,0.05214
642.26221,0.04166
640.33350,0.02742
638.40478,0.01404
636.47606,0.00628
634.54735,0.00378
632.61863,0.00436
630.68992,0.00776
628.76120,0.01347
626.83249,0.01935
624.90377,0.02411
622.97506,0.02805
621.04634,0.03064
619.11763,0.03052
617.18891,0.02811
615.26020,0.02521
613.33148,0.02196
611.40276,0.01757
609.47405,0.01288
607.54533,0.00963
605.61662,0.00798
603.68790,0.00621
601.75919,0.00385
599.83047,0.00249
