7496.91655,0.91682
7494.98784,0.90451
7493.05912,0.89856
7491.13041,0.91530
7489.20169,0.92687
7487.27297,0.91411
7485.34426,0.89983
7483.41554,0.89626
7481.48683,0.90991
7479.55811,0.93580
7477.62940,0.94264
7475.70068,0.92833
7473.77197,0.91501
7471.84325,0.90663
7469.91454,0.90692
7467.98582,0.91994
7466.05711,0.92710
7464.12839,0.91366
7462.19968,0.89990
7460.27096,0.89945
7458.34224,0.89541
7456.41353,0.88100
7454.48481,0.87424
7452.55610,0.87820
7450.62738,0.87765
7448.69867,0.87401
7446.76995,0.88032
7444.84124,0.89852
7442.91252,0.91337
7440.98381,0.90548
7439.05509,0.88143
7437.12638,0.86673
7435.19766,0.87554
7433.26895,0.89420
7431.34023,0.89330
7429.41151,0.87582
7427.48280,0.87248
7425.55408,0.88330
7423.62537,0.88850
7421.69665,0.89573
7419.76794,0.90879
7417.83922,0.90425
7415.91051,0.88240
7413.98179,0.86860
7412.05308,0.87513
7410.12436,0.89043
7408.19565,0.90132
7406.26693,0.91343
7404.33821,0.92046
7402.40950,0.91184
7400.48078,0.90995
7398.55207,0.92674
7396.62335,0.93052
7394.69464,0.90160
7392.76592,0.87531
7390.83721,0.87987
7388.90849,0.88613
7386.97978,0.87041
7385.05106,0.84993
7383.12235,0.83873
7381.19363,0.84414
7379.26492,0.85861
7377.33620,0.86238
7375.40748,0.86309
7373.47877,0.87159
7371.55005,0.87459
7369.62134,0.86432
7367.69262,0.84857
7365.76391,0.84238
7363.83519,0.84576
7361.90648,0.84712
7359.97776,0.85125
7358.04905,0.86598
7356.12033,0.88529
7354.19162,0.90162
7352.26290,0.90444
7350.33419,0.88863
7348.40547,0.86641
7346.47675,0.85252
7344.54804,0.85314
7342.61932,0.86757
7340.69061,0.88334
7338.76189,0.88554
7336.83318,0.87347
7334.90446,0.85631
7332.97575,0.84504
7331.04703,0.84122
7329.11832,0.84019
7327.18960,0.84253
7325.26089,0.84489
7323.33217,0.84146
7321.40346,0.83703
7319.47474,0.83413
7317.54602,0.82968
7315.61731,0.83343
7313.68859,0.85293
7311.75988,0.86870
7309.83116,0.86085
7307.90245,0.84496
7305.97373,0.84164
7304.04502,0.85023
7302.11630,0.86004
7300.18759,0.86070
7298.25887,0.85399
7296.33016,0.84916
7294.40144,0.85041
7292.47272,0.85877
7290.54401,0.86612
7288.61529,0.86904
7286.68658,0.87107
7284.75786,0.86960
7282.82915,0.86340
7280.90043,0.85637
7278.97172,0.85538
7277.04300,0.86037
7275.11429,0.86358
7273.18557,0.86691
7271.25686,0.87327
7269.32814,0.87793
7267.39943,0.88133
7265.47071,0.88695
7263.54199,0.89263
7261.61328,0.89391
7259.68456,0.89092
7257.75585,0.88018
7255.82713,0.86130
7253.89842,0.85345
7251.96970,0.86566
7250.04099,0.87502
7248.11227,0.86700
7246.18356,0.85591
7244.25484,0.86114
7242.32613,0.88585
7240.39741,0.90882
7238.46870,0.90780
7236.53998,0.88515
7234.61126,0.85895
7232.68255,0.84108
7230.75383,0.83998
7228.82512,0.85287
7226.89640,0.86097
7224.96769,0.85922
7223.03897,0.85836
7221.11026,0.85311
7219.18154,0.84315
7217.25283,0.84464
7215.32411,0.85520
7213.39540,0.86544
7211.46668,0.87213
7209.53796,0.86982
7207.60925,0.86167
7205.68053,0.85828
7203.75182,0.86634
7201.82310,0.88378
7199.89439,0.90051
7197.96567,0.91180
7196.03696,0.91534
7194.10824,0.90313
7192.17953,0.87930
7190.25081,0.86320
7188.32210,0.86090
7186.39338,0.86049
7184.46467,0.85667
7182.53595,0.85360
7180.60723,0.85546
7178.67852,0.86260
7176.74980,0.86874
7174.82109,0.87459
7172.89237,0.88237
7170.96366,0.87970
7169.03494,0.86811
7167.10623,0.86750
7165.17751,0.87324
7163.24880,0.86712
7161.32008,0.85512
7159.39137,0.85113
7157.46265,0.85105
7155.53394,0.84981
7153.60522,0.84779
7151.67650,0.84499
7149.74779,0.84539
7147.81907,0.84925
7145.89036,0.85540
7143.96164,0.86766
7142.03293,0.87793
7140.10421,0.87510
7138.17550,0.86350
7136.24678,0.85064
7134.31807,0.84377
7132.38935,0.84913
7130.46064,0.86159
7128.53192,0.87079
7126.60321,0.87222
7124.67449,0.86867
7122.74577,0.86721
7120.81706,0.87008
7118.88834,0.86660
7116.95963,0.85568
7115.03091,0.85565
7113.10220,0.86575
7111.17348,0.87427
7109.24477,0.88227
7107.31605,0.88760
7105.38734,0.88204
7103.45862,0.86741
7101.52991,0.85089
7099.60119,0.84495
7097.67247,0.85664
7095.74376,0.86889
7093.81504,0.86668
7091.88633,0.86042
7089.95761,0.86078
7088.02890,0.86551
7086.10018,0.86963
7084.17147,0.87533
7082.24275,0.88089
7080.31404,0.87795
7078.38532,0.86690
7076.45661,0.85406
7074.52789,0.84676
7072.59918,0.85042
7070.67046,0.86152
7068.74174,0.87022
7066.81303,0.87210
7064.88431,0.86992
7062.95560,0.86353
7061.02688,0.85441
7059.09817,0.84936
7057.16945,0.84799
7055.24074,0.84741
7053.31202,0.85138
7051.38331,0.86311
7049.45459,0.87763
7047.52588,0.88284
7045.59716,0.87499
7043.66845,0.86517
7041.73973,0.86305
7039.81101,0.87162
7037.88230,0.88327
7035.95358,0.88843
7034.02487,0.89407
7032.09615,0.90121
7030.16744,0.90314
7028.23872,0.90684
7026.31001,0.90971
7024.38129,0.90013
7022.45258,0.88496
7020.52386,0.87719
7018.59515,0.87577
7016.66643,0.87399
7014.73771,0.87475
7012.80900,0.87958
7010.88028,0.88535
7008.95157,0.89211
7007.02285,0.89510
7005.09414,0.88979
7003.16542,0.88087
7001.23671,0.87564
6999.30799,0.87594
6997.37928,0.87777
6995.45056,0.87740
6993.52185,0.87082
6991.59313,0.86280
6989.66442,0.86348
6987.73570,0.86909
6985.80698,0.87263
6983.87827,0.87232
6981.94955,0.86555
6980.02084,0.86147
6978.09212,0.87475
6976.16341,0.89854
6974.23469,0.90879
6972.30598,0.89897
6970.37726,0.88610
6968.44855,0.87932
6966.51983,0.87827
6964.59112,0.88499
6962.66240,0.89292
6960.73369,0.89166
6958.80497,0.88408
6956.87625,0.88107
6954.94754,0.88523
6953.01882,0.88870
6951.09011,0.88665
6949.16139,0.88308
6947.23268,0.88336
6945.30396,0.88689
6943.37525,0.88913
6941.44653,0.88872
6939.51782,0.88818
6937.58910,0.88957
6935.66039,0.89078
6933.73167,0.88912
6931.80296,0.88599
6929.87424,0.88372
6927.94552,0.88401
6926.01681,0.88847
6924.08809,0.89435
6922.15938,0.89866
6920.23066,0.90692
6918.30195,0.91671
6916.37323,0.91122
6914.44452,0.89268
6912.51580,0.87964
6910.58709,0.87854
6908.65837,0.88705
6906.72966,0.89833
6904.80094,0.90456
6902.87222,0.90483
6900.94351,0.90221
6899.01479,0.89934
6897.08608,0.89486
6895.15736,0.88905
6893.22865,0.88822
6891.29993,0.89349
6889.37122,0.89944
6887.44250,0.90347
6885.51379,0.90633
6883.58507,0.90615
6881.65636,0.90129
6879.72764,0.89514
6877.79893,0.89229
6875.87021,0.89470
6873.94149,0.89670
6872.01278,0.89176
6870.08406,0.88489
6868.15535,0.88381
6866.22663,0.88813
6864.29792,0.89479
6862.36920,0.90476
6860.44049,0.91591
6858.51177,0.91911
6856.58306,0.91249
6854.65434,0.90310
6852.72563,0.89464
6850.79691,0.88768
6848.86820,0.88615
6846.93948,0.89169
6845.01076,0.89692
6843.08205,0.89569
6841.15333,0.89001
6839.22462,0.88467
6837.29590,0.88049
6835.36719,0.87436
6833.43847,0.87002
6831.50976,0.87499
6829.58104,0.88685
6827.65233,0.89510
6825.72361,0.89288
6823.79490,0.88508
6821.86618,0.88135
6819.93746,0.88595
6818.00875,0.89587
6816.08003,0.90198
6814.15132,0.90090
6812.22260,0.89854
6810.29389,0.89617
6808.36517,0.89179
6806.43646,0.89000
6804.50774,0.89269
6802.57903,0.89188
6800.65031,0.88575
6798.72160,0.88401
6796.79288,0.89063
6794.86417,0.89655
6792.93545,0.89319
6791.00673,0.88813
6789.07802,0.88965
6787.14930,0.89134
6785.22059,0.88891
6783.29187,0.88517
6781.36316,0.88293
6779.43444,0.88626
6777.50573,0.89481
6775.57701,0.90214
6773.64830,0.90328
6771.71958,0.89973
6769.79087,0.89699
6767.86215,0.89456
6765.93344,0.88931
6764.00472,0.88670
6762.07600,0.89263
6760.14729,0.90149
6758.21857,0.90374
6756.28986,0.90248
6754.36114,0.90570
6752.43243,0.90849
6750.50371,0.90618
6748.57500,0.90446
6746.64628,0.90541
6744.71757,0.90359
6742.78885,0.89713
6740.86014,0.89379
6738.93142,0.89705
6737.00271,0.89879
6735.07399,0.89682
6733.14527,0.89750
6731.21656,0.89945
6729.28784,0.89878
6727.35913,0.89708
6725.43041,0.89453
6723.50170,0.89132
6721.57298,0.88868
6719.64427,0.88853
6717.71555,0.89332
6715.78684,0.90116
6713.85812,0.90942
6711.92941,0.91370
6710.00069,0.90933
6708.07197,0.90268
6706.14326,0.90085
6704.21454,0.90010
6702.28583,0.89533
6700.35711,0.88891
6698.42840,0.88444
6696.49968,0.88104
6694.57097,0.88085
6692.64225,0.88607
6690.71354,0.89232
6688.78482,0.89537
6686.85611,0.89278
6684.92739,0.88566
6682.99868,0.88057
6681.06996,0.88290
6679.14124,0.89283
6677.21253,0.90345
6675.28381,0.90625
6673.35510,0.90176
6671.42638,0.89535
6669.49767,0.89054
6667.56895,0.88992
6665.64024,0.89259
6663.71152,0.89639
6661.78281,0.90256
6659.85409,0.91070
6657.92538,0.91494
6655.99666,0.91007
6654.06795,0.90295
6652.13923,0.90531
6650.21051,0.91112
6648.28180,0.90812
6646.35308,0.90081
6644.42437,0.90008
6642.49565,0.90804
6640.56694,0.91663
6638.63822,0.91887
6636.70951,0.91567
6634.78079,0.91056
6632.85208,0.90945
6630.92336,0.91208
6628.99465,0.91200
6627.06593,0.91083
6625.13722,0.90759
6623.20850,0.89665
6621.27978,0.88770
6619.35107,0.89052
6617.42235,0.89645
6615.49364,0.89687
6613.56492,0.89522
6611.63621,0.89557
6609.70749,0.89762
6607.77878,0.90112
6605.85006,0.90541
6603.92135,0.90672
6601.99263,0.90271
6600.06392,0.89815
6598.13520,0.90085
6596.20648,0.90888
6594.27777,0.91201
6592.34905,0.91067
6590.42034,0.91193
6588.49162,0.91368
6586.56291,0.91191
6584.63419,0.90754
6582.70548,0.90285
6580.77676,0.90003
6578.84805,0.89792
6576.91933,0.89544
6574.99062,0.89846
6573.06190,0.90673
6571.13319,0.91041
6569.20447,0.90825
6567.27575,0.90392
6565.34704,0.89865
6563.41832,0.89557
6561.48961,0.89571
6559.56089,0.89727
6557.63218,0.89783
6555.70346,0.89803
6553.77475,0.90064
6551.84603,0.90525
6549.91732,0.91286
6547.98860,0.92058
6546.05989,0.91809
6544.13117,0.90668
6542.20246,0.89976
6540.27374,0.90194
6538.34502,0.90709
6536.41631,0.90873
6534.48759,0.90526
6532.55888,0.90121
6530.63016,0.89976
6528.70145,0.89741
6526.77273,0.89222
6524.84402,0.89035
6522.91530,0.89563
6520.98659,0.90174
6519.05787,0.90457
6517.12916,0.90624
6515.20044,0.90761
6513.27172,0.90785
6511.34301,0.90548
6509.41429,0.90250
6507.48558,0.90261
6505.55686,0.90475
6503.62815,0.90763
6501.69943,0.91026
6499.77072,0.90802
6497.84200,0.90133
6495.91329,0.89838
6493.98457,0.90301
6492.05586,0.91029
6490.12714,0.91340
6488.19843,0.91083
6486.26971,0.90746
6484.34099,0.90760
6482.41228,0.91038
6480.48356,0.91213
6478.55485,0.91009
6476.62613,0.90646
6474.69742,0.90661
6472.76870,0.90779
6470.83999,0.90368
6468.91127,0.89834
6466.98256,0.89613
6465.05384,0.89411
6463.12513,0.89105
6461.19641,0.88939
6459.26770,0.89067
6457.33898,0.89348
6455.41026,0.89604
6453.48155,0.89892
6451.55283,0.90292
6449.62412,0.90553
6447.69540,0.90450
6445.76669,0.90313
6443.83797,0.90317
6441.90926,0.90103
6439.98054,0.89635
6438.05183,0.89406
6436.12311,0.89590
6434.19440,0.89893
6432.26568,0.90000
6430.33697,0.89776
6428.40825,0.89460
6426.47953,0.89444
6424.55082,0.89781
6422.62210,0.90250
6420.69339,0.90663
6418.76467,0.90806
6416.83596,0.90665
6414.90724,0.90486
6412.97853,0.90165
6411.04981,0.89780
6409.12110,0.89685
6407.19238,0.89570
6405.26367,0.89386
6403.33495,0.89755
6401.40623,0.90681
6399.47752,0.91312
6397.54880,0.91122
6395.62009,0.90776
6393.69137,0.90688
6391.76266,0.90277
6389.83394,0.89732
6387.90523,0.89710
6385.97651,0.89893
6384.04780,0.90065
6382.11908,0.90344
6380.19037,0.90317
6378.26165,0.89938
6376.33294,0.89786
6374.40422,0.90074
6372.47550,0.90403
6370.54679,0.90291
6368.61807,0.89940
6366.68936,0.89839
6364.76064,0.89729
6362.83193,0.89311
6360.90321,0.89197
6358.97450,0.89703
6357.04578,0.90229
6355.11707,0.90358
6353.18835,0.90101
6351.25964,0.89793
6349.33092,0.89896
6347.40221,0.90278
6345.47349,0.90387
6343.54477,0.90098
6341.61606,0.89899
6339.68734,0.89975
6337.75863,0.90137
6335.82991,0.90356
6333.90120,0.90394
6331.97248,0.90222
6330.04377,0.90285
6328.11505,0.90555
6326.18634,0.90496
6324.25762,0.90103
6322.32891,0.89905
6320.40019,0.89959
6318.47147,0.89869
6316.54276,0.89603
6314.61404,0.89522
6312.68533,0.89669
6310.75661,0.89739
6308.82790,0.89701
6306.89918,0.89744
6304.97047,0.89904
6303.04175,0.89979
6301.11304,0.89947
6299.18432,0.90011
6297.25561,0.89823
6295.32689,0.89100
6293.39818,0.88517
6291.46946,0.88580
6289.54074,0.88841
6287.61203,0.88906
6285.68331,0.88981
6283.75460,0.89143
6281.82588,0.89110
6279.89717,0.88901
6277.96845,0.89067
6276.03974,0.89687
6274.11102,0.89995
6272.18231,0.89608
6270.25359,0.89076
6268.32488,0.88921
6266.39616,0.89000
6264.46745,0.89064
6262.53873,0.89144
6260.61001,0.89229
6258.68130,0.89173
6256.75258,0.89053
6254.82387,0.89038
6252.89515,0.88906
6250.96644,0.88591
6249.03772,0.88429
6247.10901,0.88396
6245.18029,0.88356
6243.25158,0.88518
6241.32286,0.88826
6239.39415,0.88817
6237.46543,0.88483
6235.53672,0.88232
6233.60800,0.88159
6231.67928,0.88147
6229.75057,0.88119
6227.82185,0.88074
6225.89314,0.87964
6223.96442,0.87803
6222.03571,0.87790
6220.10699,0.87855
6218.17828,0.87779
6216.24956,0.87627
6214.32085,0.87482
6212.39213,0.87289
6210.46342,0.87070
6208.53470,0.86955
6206.60598,0.86939
6204.67727,0.86994
6202.74855,0.87180
6200.81984,0.87256
6198.89112,0.86865
6196.96241,0.86157
6195.03369,0.85586
6193.10498,0.85505
6191.17626,0.85810
6189.24755,0.85947
6187.31883,0.85769
6185.39012,0.85563
6183.46140,0.85365
6181.53269,0.85103
6179.60397,0.84956
6177.67525,0.85073
6175.74654,0.85203
6173.81782,0.85036
6171.88911,0.84574
6169.96039,0.84022
6168.03168,0.83781
6166.10296,0.84062
6164.17425,0.84438
6162.24553,0.84528
6160.31682,0.84463
6158.38810,0.84327
6156.45939,0.84182
6154.53067,0.84213
6152.60196,0.84310
6150.67324,0.84282
6148.74452,0.84156
6146.81581,0.83898
6144.88709,0.83407
6142.95838,0.82931
6141.02966,0.82738
6139.10095,0.82670
6137.17223,0.82638
6135.24352,0.82468
6133.31480,0.81771
6131.38609,0.81010
6129.45737,0.80816
6127.52866,0.80728
6125.59994,0.80336
6123.67122,0.79981
6121.74251,0.79899
6119.81379,0.80099
6117.88508,0.80374
6115.95636,0.80381
6114.02765,0.80117
6112.09893,0.79747
6110.17022,0.79428
6108.24150,0.79279
6106.31279,0.79092
6104.38407,0.78632
6102.45536,0.78034
6100.52664,0.77428
6098.59793,0.76794
6096.66921,0.76309
6094.74049,0.76030
6092.81178,0.75635
6090.88306,0.74957
6088.95435,0.74117
6087.02563,0.73302
6085.09692,0.72638
6083.16820,0.72078
6081.23949,0.71571
6079.31077,0.71098
6077.38206,0.70598
6075.45334,0.70108
6073.52463,0.69727
6071.59591,0.69358
6069.66720,0.68881
6067.73848,0.68530
6065.80976,0.68432
6063.88105,0.68259
6061.95233,0.67863
6060.02362,0.67513
6058.09490,0.67401
6056.16619,0.67349
6054.23747,0.67029
6052.30876,0.66379
6050.38004,0.65641
6048.45133,0.65027
6046.52261,0.64524
6044.59390,0.63992
6042.66518,0.63274
6040.73647,0.62360
6038.80775,0.61292
6036.87903,0.59984
6034.95032,0.58704
6033.02160,0.57882
6031.09289,0.57230
6029.16417,0.56163
6027.23546,0.54771
6025.30674,0.53639
6023.37803,0.52833
6021.44931,0.51807
6019.52060,0.50384
6017.59188,0.48958
6015.66317,0.47693
6013.73445,0.46455
6011.80573,0.45226
6009.87702,0.43997
6007.94830,0.42840
6006.01959,0.41882
6004.09087,0.40996
6002.16216,0.40263
6000.23344,0.39971
5998.30473,0.39898
5996.37601,0.39649
5994.44730,0.39403
5992.51858,0.39625
5990.58987,0.40405
5988.66115,0.41488
5986.73244,0.42609
5984.80372,0.43724
5982.87500,0.44979
5980.94629,0.46388
5979.01757,0.47879
5977.08886,0.49479
5975.16014,0.51197
5973.23143,0.52892
5971.30271,0.54239
5969.37400,0.55210
5967.44528,0.56226
5965.51657,0.57344
5963.58785,0.58164
5961.65914,0.58515
5959.73042,0.58601
5957.80171,0.58742
5955.87299,0.59002
5953.94427,0.59144
5952.01556,0.59073
5950.08684,0.58902
5948.15813,0.58668
5946.22941,0.58253
5944.30070,0.57669
5942.37198,0.57284
5940.44327,0.57210
5938.51455,0.56976
5936.58584,0.56456
5934.65712,0.56102
5932.72841,0.56048
5930.79969,0.55962
5928.87097,0.55626
5926.94226,0.55287
5925.01354,0.55316
5923.08483,0.55574
5921.15611,0.55812
5919.22740,0.56271
5917.29868,0.57085
5915.36997,0.57910
5913.44125,0.58444
5911.51254,0.58708
5909.58382,0.59016
5907.65511,0.59594
5905.72639,0.60059
5903.79768,0.60050
5901.86896,0.59891
5899.94024,0.59900
5898.01153,0.59995
5896.08281,0.60093
5894.15410,0.60078
5892.22538,0.59901
5890.29667,0.59961
5888.36795,0.60469
5886.43924,0.61120
5884.51052,0.61786
5882.58181,0.62498
5880.65309,0.63194
5878.72438,0.63924
5876.79566,0.64761
5874.86695,0.65710
5872.93823,0.66769
5871.00951,0.67806
5869.08080,0.68666
5867.15208,0.69439
5865.22337,0.70170
5863.29465,0.70752
5861.36594,0.71301
5859.43722,0.71916
5857.50851,0.72552
5855.57979,0.73198
5853.65108,0.73633
5851.72236,0.73733
5849.79365,0.73846
5847.86493,0.74238
5845.93622,0.74667
5844.00750,0.74893
5842.07878,0.75125
5840.15007,0.75376
5838.22135,0.75267
5836.29264,0.74942
5834.36392,0.74820
5832.43521,0.74824
5830.50649,0.74823
5828.57778,0.74927
5826.64906,0.75109
5824.72035,0.75113
5822.79163,0.74920
5820.86292,0.74876
5818.93420,0.75024
5817.00548,0.75080
5815.07677,0.75098
5813.14805,0.75158
5811.21934,0.75005
5809.29062,0.74820
5807.36191,0.75058
5805.43319,0.75475
5803.50448,0.75635
5801.57576,0.75626
5799.64705,0.75648
5797.71833,0.75662
5795.78962,0.75577
5793.86090,0.75479
5791.93219,0.75452
5790.00347,0.75347
5788.07475,0.74961
5786.14604,0.74389
5784.21732,0.73970
5782.28861,0.73869
5780.35989,0.73896
5778.43118,0.73628
5776.50246,0.72959
5774.57375,0.72365
5772.64503,0.72109
5770.71632,0.71978
5768.78760,0.71908
5766.85889,0.71970
5764.93017,0.72139
5763.00146,0.72328
5761.07274,0.72402
5759.14402,0.72436
5757.21531,0.72711
5755.28659,0.73194
5753.35788,0.73583
5751.42916,0.73883
5749.50045,0.74232
5747.57173,0.74572
5745.64302,0.74960
5743.71430,0.75444
5741.78559,0.75956
5739.85687,0.76498
5737.92816,0.76915
5735.99944,0.77178
5734.07072,0.77629
5732.14201,0.78266
5730.21329,0.78721
5728.28458,0.79000
5726.35586,0.79371
5724.42715,0.79774
5722.49843,0.80025
5720.56972,0.80216
5718.64100,0.80500
5716.71229,0.80832
5714.78357,0.81107
5712.85486,0.81318
5710.92614,0.81515
5708.99743,0.81797
5707.06871,0.82115
5705.13999,0.82285
5703.21128,0.82301
5701.28256,0.82260
5699.35385,0.82219
5697.42513,0.82200
5695.49642,0.82109
5693.56770,0.81883
5691.63899,0.81637
5689.71027,0.81478
5687.78156,0.81392
5685.85284,0.81253
5683.92413,0.80945
5681.99541,0.80640
5680.06670,0.80571
5678.13798,0.80639
5676.20926,0.80571
5674.28055,0.80259
5672.35183,0.79868
5670.42312,0.79581
5668.49440,0.79362
5666.56569,0.79173
5664.63697,0.79164
5662.70826,0.79389
5660.77954,0.79645
5658.85083,0.79792
5656.92211,0.79870
5654.99340,0.79970
5653.06468,0.80161
5651.13597,0.80356
5649.20725,0.80380
5647.27853,0.80347
5645.34982,0.80431
5643.42110,0.80478
5641.49239,0.80574
5639.56367,0.81035
5637.63496,0.81716
5635.70624,0.82225
5633.77753,0.82427
5631.84881,0.82532
5629.92010,0.82811
5627.99138,0.83160
5626.06267,0.83279
5624.13395,0.83237
5622.20523,0.83303
5620.27652,0.83540
5618.34780,0.83821
5616.41909,0.83979
5614.49037,0.84053
5612.56166,0.84170
5610.63294,0.84300
5608.70423,0.84376
5606.77551,0.84313
5604.84680,0.84175
5602.91808,0.84252
5600.98937,0.84518
5599.06065,0.84623
5597.13194,0.84484
5595.20322,0.84229
5593.27450,0.84024
5591.34579,0.84036
5589.41707,0.84126
5587.48836,0.84106
5585.55964,0.84076
5583.63093,0.84098
5581.70221,0.84127
5579.77350,0.84194
5577.84478,0.84272
5575.91607,0.84192
5573.98735,0.83995
5572.05864,0.83942
5570.12992,0.84017
5568.20121,0.84051
5566.27249,0.84073
5564.34377,0.84062
5562.41506,0.83882
5560.48634,0.83609
5558.55763,0.83486
5556.62891,0.83630
5554.70020,0.83846
5552.77148,0.83896
5550.84277,0.83825
5548.91405,0.83742
5546.98534,0.83748
5545.05662,0.83835
5543.12791,0.83775
5541.19919,0.83555
5539.27047,0.83385
5537.34176,0.83489
5535.41304,0.83869
5533.48433,0.84061
5531.55561,0.83907
5529.62690,0.83842
5527.69818,0.83973
5525.76947,0.84028
5523.84075,0.83941
5521.91204,0.83846
5519.98332,0.83802
5518.05461,0.83714
5516.12589,0.83638
5514.19718,0.83730
5512.26846,0.83851
5510.33974,0.83806
5508.41103,0.83677
5506.48231,0.83578
5504.55360,0.83524
5502.62488,0.83570
5500.69617,0.83683
5498.76745,0.83674
5496.83874,0.83450
5494.91002,0.83114
5492.98131,0.82955
5491.05259,0.83112
5489.12388,0.83297
5487.19516,0.83308
5485.26645,0.83218
5483.33773,0.83131
5481.40901,0.83088
5479.48030,0.82974
5477.55158,0.82702
5475.62287,0.82563
5473.69415,0.82705
5471.76544,0.82701
5469.83672,0.82517
5467.90801,0.82540
5465.97929,0.82767
5464.05058,0.82814
5462.12186,0.82547
5460.19315,0.82353
5458.26443,0.82482
5456.33572,0.82733
5454.40700,0.82958
5452.47828,0.83136
5450.54957,0.83247
5448.62085,0.83261
5446.69214,0.83162
5444.76342,0.82957
5442.83471,0.82837
5440.90599,0.83100
5438.97728,0.83503
5437.04856,0.83619
5435.11985,0.83679
5433.19113,0.83872
5431.26242,0.83775
5429.33370,0.83429
5427.40498,0.83478
5425.47627,0.83848
5423.54755,0.84083
5421.61884,0.84151
5419.69012,0.84141
5417.76141,0.84008
5415.83269,0.83717
5413.90398,0.83480
5411.97526,0.83471
5410.04655,0.83514
5408.11783,0.83562
5406.18912,0.83698
5404.26040,0.83929
5402.33169,0.84209
5400.40297,0.84353
5398.47425,0.84186
5396.54554,0.83750
5394.61682,0.83356
5392.68811,0.83411
5390.75939,0.83832
5388.83068,0.84136
5386.90196,0.84152
5384.97325,0.84116
5383.04453,0.84195
5381.11582,0.84217
5379.18710,0.83932
5377.25839,0.83509
5375.32967,0.83547
5373.40096,0.84033
5371.47224,0.84413
5369.54352,0.84497
5367.61481,0.84434
5365.68609,0.84356
5363.75738,0.84313
5361.82866,0.84394
5359.89995,0.84499
5357.97123,0.84320
5356.04252,0.83819
5354.11380,0.83417
5352.18509,0.83478
5350.25637,0.83620
5348.32766,0.83377
5346.39894,0.82904
5344.47022,0.82857
5342.54151,0.83329
5340.61279,0.83518
5338.68408,0.83298
5336.75536,0.83331
5334.82665,0.83650
5332.89793,0.83860
5330.96922,0.83915
5329.04050,0.83811
5327.11179,0.83606
5325.18307,0.83525
5323.25436,0.83616
5321.32564,0.83860
5319.39693,0.84159
5317.46821,0.84253
5315.53949,0.84132
5313.61078,0.83980
5311.68206,0.83808
5309.75335,0.83559
5307.82463,0.83396
5305.89592,0.83448
5303.96720,0.83484
5302.03849,0.83378
5300.10977,0.83230
5298.18106,0.83101
5296.25234,0.83032
5294.32363,0.82910
5292.39491,0.82529
5290.46620,0.82089
5288.53748,0.81900
5286.60876,0.81717
5284.68005,0.81341
5282.75133,0.80924
5280.82262,0.80536
5278.89390,0.80172
5276.96519,0.79782
5275.03647,0.79298
5273.10776,0.78790
5271.17904,0.78339
5269.25033,0.77980
5267.32161,0.77736
5265.39290,0.77535
5263.46418,0.77445
5261.53547,0.77709
5259.60675,0.78152
5257.67803,0.78363
5255.74932,0.78391
5253.82060,0.78689
5251.89189,0.79217
5249.96317,0.79554
5248.03446,0.79738
5246.10574,0.80012
5244.17703,0.80509
5242.24831,0.81246
5240.31960,0.81944
5238.39088,0.82417
5236.46217,0.82689
5234.53345,0.82746
5232.60473,0.82741
5230.67602,0.82978
5228.74730,0.83275
5226.81859,0.83264
5224.88987,0.83277
5222.96116,0.83680
5221.03244,0.84092
5219.10373,0.84237
5217.17501,0.84307
5215.24630,0.84454
5213.31758,0.84549
5211.38887,0.84422
5209.46015,0.84115
5207.53144,0.83943
5205.60272,0.84203
5203.67400,0.84676
5201.74529,0.84924
5199.81657,0.84819
5197.88786,0.84617
5195.95914,0.84649
5194.03043,0.84826
5192.10171,0.84882
5190.17300,0.84853
5188.24428,0.84827
5186.31557,0.84748
5184.38685,0.84684
5182.45814,0.84664
5180.52942,0.84675
5178.60071,0.84784
5176.67199,0.84838
5174.74327,0.84677
5172.81456,0.84413
5170.88584,0.84327
5168.95713,0.84585
5167.02841,0.84870
5165.09970,0.84841
5163.17098,0.84683
5161.24227,0.84656
5159.31355,0.84746
5157.38484,0.84852
5155.45612,0.84938
5153.52741,0.84989
5151.59869,0.85009
5149.66997,0.85103
5147.74126,0.85327
5145.81254,0.85535
5143.88383,0.85573
5141.95511,0.85512
5140.02640,0.85518
5138.09768,0.85595
5136.16897,0.85668
5134.24025,0.85690
5132.31154,0.85691
5130.38282,0.85719
5128.45411,0.85754
5126.52539,0.85850
5124.59668,0.86068
5122.66796,0.86213
5120.73924,0.86071
5118.81053,0.85817
5116.88181,0.85756
5114.95310,0.85820
5113.02438,0.85843
5111.09567,0.85892
5109.16695,0.86011
5107.23824,0.86063
5105.30952,0.85954
5103.38081,0.85796
5101.45209,0.85722
5099.52338,0.85695
5097.59466,0.85688
5095.66595,0.85718
5093.73723,0.85696
5091.80851,0.85629
5089.87980,0.85633
5087.95108,0.85628
5086.02237,0.85538
5084.09365,0.85460
5082.16494,0.85431
5080.23622,0.85432
5078.30751,0.85449
5076.37879,0.85435
5074.45008,0.85402
5072.52136,0.85448
5070.59265,0.85577
5068.66393,0.85628
5066.73522,0.85540
5064.80650,0.85444
5062.87778,0.85472
5060.94907,0.85646
5059.02035,0.85796
5057.09164,0.85734
5055.16292,0.85590
5053.23421,0.85575
5051.30549,0.85641
5049.37678,0.85727
5047.44806,0.85866
5045.51935,0.85969
5043.59063,0.85873
5041.66192,0.85648
5039.73320,0.85550
5037.80448,0.85630
5035.87577,0.85725
5033.94705,0.85786
5032.01834,0.85816
5030.08962,0.85766
5028.16091,0.85691
5026.23219,0.85655
5024.30348,0.85543
5022.37476,0.85316
5020.44605,0.85159
5018.51733,0.85122
5016.58862,0.85090
5014.65990,0.85091
5012.73119,0.85144
5010.80247,0.85165
5008.87375,0.85176
5006.94504,0.85189
5005.01632,0.85116
5003.08761,0.84965
5001.15889,0.84857
4999.23018,0.84861
4997.30146,0.84888
4995.37275,0.84806
4993.44403,0.84660
4991.51532,0.84598
4989.58660,0.84632
4987.65789,0.84657
4985.72917,0.84611
4983.80046,0.84504
4981.87174,0.84400
4979.94302,0.84406
4978.01431,0.84503
4976.08559,0.84532
4974.15688,0.84461
4972.22816,0.84355
4970.29945,0.84256
4968.37073,0.84199
4966.44202,0.84166
4964.51330,0.84172
4962.58459,0.84203
4960.65587,0.84172
4958.72716,0.84107
4956.79844,0.84069
4954.86972,0.84050
4952.94101,0.84064
4951.01229,0.84074
4949.08358,0.84045
4947.15486,0.84043
4945.22615,0.84143
4943.29743,0.84282
4941.36872,0.84287
4939.44000,0.84115
4937.51129,0.83922
4935.58257,0.83847
4933.65386,0.83850
4931.72514,0.83798
4929.79643,0.83664
4927.86771,0.83503
4925.93899,0.83299
4924.01028,0.83071
4922.08156,0.82935
4920.15285,0.82849
4918.22413,0.82665
4916.29542,0.82401
4914.36670,0.82174
4912.43799,0.82007
4910.50927,0.81882
4908.58056,0.81819
4906.65184,0.81752
4904.72313,0.81548
4902.79441,0.81242
4900.86570,0.80977
4898.93698,0.80784
4897.00826,0.80625
4895.07955,0.80510
4893.15083,0.80515
4891.22212,0.80624
4889.29340,0.80625
4887.36469,0.80460
4885.43597,0.80328
4883.50726,0.80267
4881.57854,0.80197
4879.64983,0.80171
4877.72111,0.80167
4875.79240,0.80082
4873.86368,0.79980
4871.93497,0.79965
4870.00625,0.79931
4868.07753,0.79776
4866.14882,0.79573
4864.22010,0.79368
4862.29139,0.79124
4860.36267,0.78839
4858.43396,0.78571
4856.50524,0.78386
4854.57653,0.78248
4852.64781,0.78047
4850.71910,0.77783
4848.79038,0.77561
4846.86167,0.77483
4844.93295,0.77557
4843.00423,0.77662
4841.07552,0.77701
4839.14680,0.77718
4837.21809,0.77808
4835.28937,0.77964
4833.36066,0.78099
4831.43194,0.78213
4829.50323,0.78352
4827.57451,0.78490
4825.64580,0.78575
4823.71708,0.78602
4821.78837,0.78612
4819.85965,0.78635
4817.93094,0.78687
4816.00222,0.78749
4814.07350,0.78796
4812.14479,0.78876
4810.21607,0.78975
4808.28736,0.79018
4806.35864,0.79034
4804.42993,0.79036
4802.50121,0.78993
4800.57250,0.78973
4798.64378,0.79009
4796.71507,0.79003
4794.78635,0.78887
4792.85764,0.78706
4790.92892,0.78507
4789.00021,0.78309
4787.07149,0.78122
4785.14277,0.77966
4783.21406,0.77866
4781.28534,0.77727
4779.35663,0.77486
4777.42791,0.77243
4775.49920,0.77033
4773.57048,0.76842
4771.64177,0.76656
4769.71305,0.76411
4767.78434,0.76086
4765.85562,0.75710
4763.92691,0.75360
4761.99819,0.75104
4760.06948,0.74897
4758.14076,0.74642
4756.21204,0.74282
4754.28333,0.73838
4752.35461,0.73406
4750.42590,0.73040
4748.49718,0.72666
4746.56847,0.72186
4744.63975,0.71571
4742.71104,0.70873
4740.78232,0.70169
4738.85361,0.69464
4736.92489,0.68709
4734.99618,0.67853
4733.06746,0.66917
4731.13874,0.65933
4729.21003,0.64852
4727.28131,0.63686
4725.35260,0.62505
4723.42388,0.61320
4721.49517,0.60115
4719.56645,0.58841
4717.63774,0.57431
4715.70902,0.55884
4713.78031,0.54215
4711.85159,0.52410
4709.92288,0.50470
4707.99416,0.48416
4706.06545,0.46275
4704.13673,0.44135
4702.20801,0.42148
4700.27930,0.40387
4698.35058,0.38800
4696.42187,0.37341
4694.49315,0.36027
4692.56444,0.34884
4690.63572,0.33856
4688.70701,0.32890
4686.77829,0.32062
4684.84958,0.31439
4682.92086,0.31015
4680.99215,0.30863
4679.06343,0.31118
4677.13472,0.31753
4675.20600,0.32601
4673.27728,0.33578
4671.34857,0.34652
4669.41985,0.35818
4667.49114,0.37088
4665.56242,0.38343
4663.63371,0.39391
4661.70499,0.40162
4659.77628,0.40698
4657.84756,0.41025
4655.91885,0.41103
4653.99013,0.40869
4652.06142,0.40306
4650.13270,0.39458
4648.20398,0.38365
4646.27527,0.37053
4644.34655,0.35635
4642.41784,0.34230
4640.48912,0.32847
4638.56041,0.31553
4636.63169,0.30528
4634.70298,0.29933
4632.77426,0.29896
4630.84555,0.30460
4628.91683,0.31600
4626.98812,0.33300
4625.05940,0.35534
4623.13069,0.38197
4621.20197,0.41105
4619.27325,0.44060
4617.34454,0.46883
4615.41582,0.49474
4613.48711,0.51801
4611.55839,0.53807
4609.62968,0.55451
4607.70096,0.56743
4605.77225,0.57686
4603.84353,0.58303
4601.91482,0.58651
4599.98610,0.58792
4598.05739,0.58746
4596.12867,0.58460
4594.19996,0.57933
4592.27124,0.57225
4590.34252,0.56399
4588.41381,0.55558
4586.48509,0.54760
4584.55638,0.53981
4582.62766,0.53245
4580.69895,0.52608
4578.77023,0.52096
4576.84152,0.51736
4574.91280,0.51594
4572.98409,0.51757
4571.05537,0.52275
4569.12666,0.53105
4567.19794,0.54168
4565.26923,0.55456
4563.34051,0.56975
4561.41179,0.58628
4559.48308,0.60233
4557.55436,0.61674
4555.62565,0.62917
4553.69693,0.63959
4551.76822,0.64823
4549.83950,0.65485
4547.91079,0.65881
4545.98207,0.66053
4544.05336,0.66090
4542.12464,0.66055
4540.19593,0.66016
4538.26721,0.65977
4536.33849,0.65896
4534.40978,0.65817
4532.48106,0.65807
4530.55235,0.65850
4528.62363,0.65901
4526.69492,0.65955
4524.76620,0.66028
4522.83749,0.66139
4520.90877,0.66258
4518.98006,0.66328
4517.05134,0.66339
4515.12263,0.66273
4513.19391,0.66114
4511.26520,0.65933
4509.33648,0.65777
4507.40776,0.65602
4505.47905,0.65320
4503.55033,0.64853
4501.62162,0.64264
4499.69290,0.63679
4497.76419,0.63088
4495.83547,0.62417
4493.90676,0.61655
4491.97804,0.60831
4490.04933,0.60042
4488.12061,0.59355
4486.19190,0.58715
4484.26318,0.58108
4482.33447,0.57598
4480.40575,0.57255
4478.47703,0.57071
4476.54832,0.56954
4474.61960,0.56880
4472.69089,0.56867
4470.76217,0.56872
4468.83346,0.56858
4466.90474,0.56828
4464.97603,0.56753
4463.04731,0.56565
4461.11860,0.56249
4459.18988,0.55839
4457.26117,0.55318
4455.33245,0.54654
4453.40373,0.53875
4451.47502,0.53022
4449.54630,0.52066
4447.61759,0.50976
4445.68887,0.49784
4443.76016,0.48516
4441.83144,0.47171
4439.90273,0.45743
4437.97401,0.44262
4436.04530,0.42794
4434.11658,0.41352
4432.18787,0.39898
4430.25915,0.38424
4428.33044,0.36985
4426.40172,0.35618
4424.47300,0.34291
4422.54429,0.32959
4420.61557,0.31607
4418.68686,0.30247
4416.75814,0.28920
4414.82943,0.27701
4412.90071,0.26640
4410.97200,0.25719
4409.04328,0.24970
4407.11457,0.24516
4405.18585,0.24413
4403.25714,0.24646
4401.32842,0.25236
4399.39971,0.26147
4397.47099,0.27223
4395.54227,0.28332
4393.61356,0.29400
4391.68484,0.30292
4389.75613,0.30880
4387.82741,0.31129
4385.89870,0.31042
4383.96998,0.30641
4382.04127,0.29970
4380.11255,0.29113
4378.18384,0.28192
4376.25512,0.27276
4374.32641,0.26397
4372.39769,0.25601
4370.46898,0.24893
4368.54026,0.24241
4366.61154,0.23662
4364.68283,0.23189
4362.75411,0.22797
4360.82540,0.22449
4358.89668,0.22138
4356.96797,0.21842
4355.03925,0.21526
4353.11054,0.21182
4351.18182,0.20836
4349.25311,0.20519
4347.32439,0.20248
4345.39568,0.20011
4343.46696,0.19762
4341.53824,0.19474
4339.60953,0.19141
4337.68081,0.18732
4335.75210,0.18241
4333.82338,0.17684
4331.89467,0.17105
4329.96595,0.16596
4328.03724,0.16213
4326.10852,0.15969
4324.17981,0.15923
4322.25109,0.16142
4320.32238,0.16589
4318.39366,0.17210
4316.46495,0.18010
4314.53623,0.18890
4312.60751,0.19687
4310.67880,0.20297
4308.75008,0.20641
4306.82137,0.20724
4304.89265,0.20671
4302.96394,0.20623
4301.03522,0.20619
4299.10651,0.20643
4297.17779,0.20761
4295.24908,0.21049
4293.32036,0.21464
4291.39165,0.21922
4289.46293,0.22421
4287.53422,0.22959
4285.60550,0.23482
4283.67678,0.23938
4281.74807,0.24309
4279.81935,0.24622
4277.89064,0.24928
4275.96192,0.25260
4274.03321,0.25608
4272.10449,0.25920
4270.17578,0.26183
4268.24706,0.26468
4266.31835,0.26828
4264.38963,0.27248
4262.46092,0.27705
4260.53220,0.28200
4258.60348,0.28744
4256.67477,0.29312
4254.74605,0.29849
4252.81734,0.30324
4250.88862,0.30708
4248.95991,0.30927
4247.03119,0.30969
4245.10248,0.30886
4243.17376,0.30665
4241.24505,0.30325
4239.31633,0.29965
4237.38762,0.29648
4235.45890,0.29391
4233.53019,0.29177
4231.60147,0.28964
4229.67275,0.28745
4227.74404,0.28518
4225.81532,0.28255
4223.88661,0.27960
4221.95789,0.27678
4220.02918,0.27416
4218.10046,0.27150
4216.17175,0.26886
4214.24303,0.26632
4212.31432,0.26377
4210.38560,0.26128
4208.45689,0.25892
4206.52817,0.25678
4204.59946,0.25511
4202.67074,0.25387
4200.74202,0.25277
4198.81331,0.25172
4196.88459,0.25079
4194.95588,0.24970
4193.02716,0.24814
4191.09845,0.24639
4189.16973,0.24501
4187.24102,0.24372
4185.31230,0.24175
4183.38359,0.23897
4181.45487,0.23609
4179.52616,0.23360
4177.59744,0.23128
4175.66873,0.22895
4173.74001,0.22700
4171.81129,0.22606
4169.88258,0.22659
4167.95386,0.22883
4166.02515,0.23280
4164.09643,0.23864
4162.16772,0.24634
4160.23900,0.25513
4158.31029,0.26447
4156.38157,0.27462
4154.45286,0.28553
4152.52414,0.29628
4150.59543,0.30575
4148.66671,0.31338
4146.73799,0.31917
4144.80928,0.32313
4142.88056,0.32538
4140.95185,0.32658
4139.02313,0.32744
4137.09442,0.32833
4135.16570,0.32938
4133.23699,0.33036
4131.30827,0.33097
4129.37956,0.33080
4127.45084,0.32944
4125.52213,0.32672
4123.59341,0.32255
4121.66470,0.31702
4119.73598,0.31016
4117.80726,0.30179
4115.87855,0.29193
4113.94983,0.28088
4112.02112,0.26886
4110.09240,0.25527
4108.16369,0.23941
4106.23497,0.22201
4104.30626,0.20416
4102.37754,0.18583
4100.44883,0.16711
4098.52011,0.14878
4096.59140,0.13142
4094.66268,0.11538
4092.73397,0.10101
4090.80525,0.08838
4088.87653,0.07709
4086.94782,0.06687
4085.01910,0.05815
4083.09039,0.05126
4081.16167,0.04581
4079.23296,0.04137
4077.30424,0.03816
4075.37553,0.03653
4073.44681,0.03657
4071.51810,0.03846
4069.58938,0.04245
4067.66067,0.04869
4065.73195,0.05760
4063.80323,0.06938
4061.87452,0.08365
4059.94580,0.09943
4058.01709,0.11542
4056.08837,0.13140
4054.15966,0.14795
4052.23094,0.16507
4050.30223,0.18296
4048.37351,0.20216
4046.44480,0.22285
4044.51608,0.24443
4042.58737,0.26532
4040.65865,0.28421
4038.72994,0.30087
4036.80122,0.31484
4034.87250,0.32515
4032.94379,0.33189
4031.01507,0.33564
4029.08636,0.33646
4027.15764,0.33483
4025.22893,0.33206
4023.30021,0.32919
4021.37150,0.32656
4019.44278,0.32432
4017.51407,0.32297
4015.58535,0.32283
4013.65664,0.32351
4011.72792,0.32438
4009.79921,0.32556
4007.87049,0.32718
4005.94177,0.32866
4004.01306,0.32940
4002.08434,0.32896
4000.15563,0.32730
3998.22691,0.32501
3996.29820,0.32249
3994.36948,0.31998
3992.44077,0.31773
3990.51205,0.31595
3988.58334,0.31502
3986.65462,0.31513
3984.72591,0.31608
3982.79719,0.31769
3980.86848,0.31977
3978.93976,0.32258
3977.01104,0.32680
3975.08233,0.33270
3973.15361,0.33984
3971.22490,0.34753
3969.29618,0.35556
3967.36747,0.36361
3965.43875,0.37030
3963.51004,0.37447
3961.58132,0.37602
3959.65261,0.37536
3957.72389,0.37299
3955.79518,0.36927
3953.86646,0.36423
3951.93774,0.35844
3950.00903,0.35372
3948.08031,0.35156
3946.15160,0.35105
3944.22288,0.35036
3942.29417,0.34985
3940.36545,0.35040
3938.43674,0.35107
3936.50802,0.35103
3934.57931,0.35012
3932.65059,0.34918
3930.72188,0.34978
3928.79316,0.35106
3926.86445,0.35040
3924.93573,0.34761
3923.00701,0.34466
3921.07830,0.34137
3919.14958,0.33664
3917.22087,0.33152
3915.29215,0.32774
3913.36344,0.32508
3911.43472,0.32220
3909.50601,0.31836
3907.57729,0.31321
3905.64858,0.30699
3903.71986,0.30156
3901.79115,0.29859
3899.86243,0.29687
3897.93372,0.29553
3896.00500,0.29389
3894.07628,0.29054
3892.14757,0.28567
3890.21885,0.28183
3888.29014,0.27904
3886.36142,0.27513
3884.43271,0.27135
3882.50399,0.27025
3880.57528,0.27291
3878.64656,0.27957
3876.71785,0.28700
3874.78913,0.29586
3872.86042,0.30720
3870.93170,0.32146
3869.00298,0.33942
3867.07427,0.35425
3865.14555,0.36616
3863.21684,0.38023
3861.28812,0.39440
3859.35941,0.40453
3857.43069,0.40942
3855.50198,0.41042
3853.57326,0.41433
3851.64455,0.42681
3849.71583,0.43845
3847.78712,0.44654
3845.85840,0.45143
3843.92969,0.45366
3842.00097,0.45410
3840.07225,0.45383
3838.14354,0.45634
3836.21482,0.46203
3834.28611,0.46670
3832.35739,0.46967
3830.42868,0.47117
3828.49996,0.47045
3826.57125,0.46815
3824.64253,0.46557
3822.71382,0.46152
3820.78510,0.45719
3818.85639,0.45672
3816.92767,0.45773
3814.99896,0.46004
3813.07024,0.46334
3811.14152,0.46514
3809.21281,0.46457
3807.28409,0.46358
3805.35538,0.46459
3803.42666,0.46590
3801.49795,0.46932
3799.56923,0.47664
3797.64052,0.48467
3795.71180,0.49418
3793.78309,0.50380
3791.85437,0.51105
3789.92566,0.51637
3787.99694,0.52021
3786.06823,0.52298
3784.13951,0.52619
3782.21079,0.52903
3780.28208,0.52995
3778.35336,0.53046
3776.42465,0.53109
3774.49593,0.52956
3772.56722,0.52420
3770.63850,0.51522
3768.70979,0.50605
3766.78107,0.49861
3764.85236,0.49096
3762.92364,0.48234
3760.99493,0.47102
3759.06621,0.45723
3757.13749,0.44632
3755.20878,0.43777
3753.28006,0.42716
3751.35135,0.41499
3749.42263,0.40975
3747.49392,0.40982
3745.56520,0.40945
3743.63649,0.41128
3741.70777,0.41503
3739.77906,0.41719
3737.85034,0.41699
3735.92163,0.41743
3733.99291,0.42397
3732.06420,0.43411
3730.13548,0.44164
3728.20676,0.44453
3726.27805,0.44439
3724.34933,0.44306
3722.42062,0.44108
3720.49190,0.43858
3718.56319,0.43481
3716.63447,0.42854
3714.70576,0.41809
3712.77704,0.40136
3710.84833,0.38081
3708.91961,0.36536
3706.99090,0.35288
3705.06218,0.33838
3703.13347,0.32000
3701.20475,0.29890
3699.27603,0.27995
3697.34732,0.26226
3695.41860,0.24328
3693.48989,0.22348
3691.56117,0.20126
3689.63246,0.17358
3687.70374,0.14736
3685.77503,0.12901
3683.84631,0.11413
3681.91760,0.09993
3679.98888,0.08730
3678.06017,0.07790
3676.13145,0.07128
3674.20273,0.06841
3672.27402,0.06894
3670.34530,0.07276
3668.41659,0.08062
3666.48787,0.08943
3664.55916,0.09928
3662.63044,0.11103
3660.70173,0.12387
3658.77301,0.13693
3656.84430,0.15281
3654.91558,0.17017
3652.98687,0.18363
3651.05815,0.19659
3649.12944,0.21691
3647.20072,0.24208
3645.27200,0.26182
3643.34329,0.27739
3641.41457,0.29182
3639.48586,0.30534
3637.55714,0.31699
3635.62843,0.32670
3633.69971,0.33498
3631.77100,0.34099
3629.84228,0.34744
3627.91357,0.36043
3625.98485,0.37441
3624.05614,0.38465
3622.12742,0.39185
3620.19871,0.39796
3618.26999,0.40577
3616.34127,0.41310
3614.41256,0.41729
3612.48384,0.41911
3610.55513,0.41804
3608.62641,0.41198
3606.69770,0.40269
3604.76898,0.39156
3602.84027,0.37546
3600.91155,0.35307
3598.98284,0.32869
3597.05412,0.30483
3595.12541,0.27975
3593.19669,0.25574
3591.26798,0.23579
3589.33926,0.21658
3587.41054,0.19572
3585.48183,0.17958
3583.55311,0.16934
3581.62440,0.16074
3579.69568,0.15308
3577.76697,0.14714
3575.83825,0.14292
3573.90954,0.13959
3571.98082,0.13660
3570.05211,0.13353
3568.12339,0.12982
3566.19468,0.12646
3564.26596,0.12443
3562.33724,0.12213
3560.40853,0.11865
3558.47981,0.11455
3556.55110,0.10997
3554.62238,0.10428
3552.69367,0.09738
3550.76495,0.09084
3548.83624,0.08541
3546.90752,0.07983
3544.97881,0.07374
3543.05009,0.06805
3541.12138,0.06309
3539.19266,0.05861
3537.26395,0.05482
3535.33523,0.05212
3533.40651,0.05055
3531.47780,0.05017
3529.54908,0.05104
3527.62037,0.05324
3525.69165,0.05714
3523.76294,0.06350
3521.83422,0.07198
3519.90551,0.08173
3517.97679,0.09326
3516.04808,0.10699
3514.11936,0.12229
3512.19065,0.13856
3510.26193,0.15610
3508.33322,0.17409
3506.40450,0.19036
3504.47578,0.20553
3502.54707,0.22124
3500.61835,0.23614
3498.68964,0.24890
3496.76092,0.26011
3494.83221,0.27011
3492.90349,0.27888
3490.97478,0.28673
3489.04606,0.29371
3487.11735,0.29996
3485.18863,0.30564
3483.25992,0.31093
3481.33120,0.31656
3479.40248,0.32263
3477.47377,0.32813
3475.54505,0.33282
3473.61634,0.33785
3471.68762,0.34388
3469.75891,0.35033
3467.83019,0.35647
3465.90148,0.36245
3463.97276,0.36887
3462.04405,0.37591
3460.11533,0.38330
3458.18662,0.39034
3456.25790,0.39685
3454.32919,0.40364
3452.40047,0.41090
3450.47175,0.41743
3448.54304,0.42261
3446.61432,0.42754
3444.68561,0.43273
3442.75689,0.43811
3440.82818,0.44390
3438.89946,0.44974
3436.97075,0.45523
3435.04203,0.46024
3433.11332,0.46460
3431.18460,0.46842
3429.25589,0.47215
3427.32717,0.47603
3425.39846,0.47987
3423.46974,0.48303
3421.54102,0.48529
3419.61231,0.48727
3417.68359,0.48914
3415.75488,0.49033
3413.82616,0.49068
3411.89745,0.49050
3409.96873,0.48998
3408.04002,0.48883
3406.11130,0.48692
3404.18259,0.48472
3402.25387,0.48254
3400.32516,0.47978
3398.39644,0.47569
3396.46773,0.47083
3394.53901,0.46611
3392.61029,0.46130
3390.68158,0.45605
3388.75286,0.45039
3386.82415,0.44455
3384.89543,0.43912
3382.96672,0.43435
3381.03800,0.43005
3379.10929,0.42640
3377.18057,0.42345
3375.25186,0.42087
3373.32314,0.41860
3371.39443,0.41699
3369.46571,0.41629
3367.53699,0.41618
3365.60828,0.41639
3363.67956,0.41707
3361.75085,0.41821
3359.82213,0.41953
3357.89342,0.42087
3355.96470,0.42210
3354.03599,0.42314
3352.10727,0.42403
3350.17856,0.42456
3348.24984,0.42455
3346.32113,0.42452
3344.39241,0.42458
3342.46370,0.42414
3340.53498,0.42310
3338.60626,0.42152
3336.67755,0.41905
3334.74883,0.41602
3332.82012,0.41294
3330.89140,0.40942
3328.96269,0.40489
3327.03397,0.39928
3325.10526,0.39287
3323.17654,0.38606
3321.24783,0.37892
3319.31911,0.37155
3317.39040,0.36410
3315.46168,0.35647
3313.53297,0.34870
3311.60425,0.34103
3309.67553,0.33357
3307.74682,0.32653
3305.81810,0.31997
3303.88939,0.31354
3301.96067,0.30692
3300.03196,0.30049
3298.10324,0.29498
3296.17453,0.29045
3294.24581,0.28628
3292.31710,0.28225
3290.38838,0.27851
3288.45967,0.27513
3286.53095,0.27216
3284.60223,0.26960
3282.67352,0.26724
3280.74480,0.26475
3278.81609,0.26213
3276.88737,0.25954
3274.95866,0.25694
3273.02994,0.25448
3271.10123,0.25205
3269.17251,0.24906
3267.24380,0.24541
3265.31508,0.24153
3263.38637,0.23774
3261.45765,0.23428
3259.52894,0.23123
3257.60022,0.22841
3255.67150,0.22566
3253.74279,0.22287
3251.81407,0.22004
3249.88536,0.21727
3247.95664,0.21470
3246.02793,0.21230
3244.09921,0.21009
3242.17050,0.20804
3240.24178,0.20598
3238.31307,0.20390
3236.38435,0.20187
3234.45564,0.19989
3232.52692,0.19769
3230.59821,0.19495
3228.66949,0.19195
3226.74077,0.18903
3224.81206,0.18574
3222.88334,0.18172
3220.95463,0.17732
3219.02591,0.17270
3217.09720,0.16761
3215.16848,0.16185
3213.23977,0.15535
3211.31105,0.14811
3209.38234,0.14026
3207.45362,0.13218
3205.52491,0.12433
3203.59619,0.11690
3201.66748,0.10995
3199.73876,0.10377
3197.81004,0.09897
3195.88133,0.09573
3193.95261,0.09382
3192.02390,0.09294
3190.09518,0.09266
3188.16647,0.09252
3186.23775,0.09212
3184.30904,0.09124
3182.38032,0.09000
3180.45161,0.08898
3178.52289,0.08886
3176.59418,0.08977
3174.66546,0.09119
3172.73674,0.09273
3170.80803,0.09414
3168.87931,0.09502
3166.95060,0.09499
3165.02188,0.09402
3163.09317,0.09249
3161.16445,0.09061
3159.23574,0.08832
3157.30702,0.08570
3155.37831,0.08287
3153.44959,0.07962
3151.52088,0.07572
3149.59216,0.07130
3147.66345,0.06659
3145.73473,0.06169
3143.80601,0.05643
3141.87730,0.05073
3139.94858,0.04484
3138.01987,0.03898
3136.09115,0.03316
3134.16244,0.02741
3132.23372,0.02194
3130.30501,0.01700
3128.37629,0.01289
3126.44758,0.00976
3124.51886,0.00739
3122.59015,0.00561
3120.66143,0.00447
3118.73272,0.00385
3116.80400,0.00347
3114.87528,0.00308
3112.94657,0.00267
3111.01785,0.00230
3109.08914,0.00201
3107.16042,0.00177
3105.23171,0.00162
3103.30299,0.00162
3101.37428,0.00178
3099.44556,0.00196
3097.51685,0.00193
3095.58813,0.00167
3093.65942,0.00132
3091.73070,0.00094
3089.80198,0.00055
3087.87327,0.00028
3085.94455,0.00047
3084.01584,0.00026
3082.08712,0.00030
3080.15841,0.00051
3078.22969,0.00066
3076.30098,0.00042
3074.37226,0.00013
3072.44355,0.00003
3070.51483,0.00020
3068.58612,0.00027
3066.65740,0.00066
3064.72869,0.00073
3062.79997,0.00051
3060.87125,0.00042
3058.94254,0.00050
3057.01382,0.00047
3055.08511,0.00033
3053.15639,0.00013
3051.22768,0.00047
3049.29896,0.00052
3047.37025,0.00044
3045.44153,0.00054
3043.51282,0.00058
3041.58410,0.00061
3039.65539,0.00059
3037.72667,0.00047
3035.79796,0.00060
3033.86924,0.00079
3031.94052,0.00078
3030.01181,0.00061
3028.08309,0.00054
3026.15438,0.00046
3024.22566,0.00024
3022.29695,0.00032
3020.36823,0.00064
3018.43952,0.00050
3016.51080,0.00044
3014.58209,0.00046
3012.65337,0.00053
3010.72466,0.00055
3008.79594,0.00050
3006.86723,0.00036
3004.93851,0.00025
3003.00979,0.00059
3001.08108,0.00101
2999.15236,0.00094
2997.22365,0.00065
2995.29493,0.00044
2993.36622,0.00024
2991.43750,0.00023
2989.50879,0.00047
2987.58007,0.00031
2985.65136,0.00033
2983.72264,0.00035
2981.79393,0.00043
2979.86521,0.00048
2977.93649,0.00049
2976.00778,0.00037
2974.07906,0.00087
2972.15035,0.00080
2970.22163,0.00046
2968.29292,0.00021
2966.36420,0.00025
2964.43549,0.00043
2962.50677,0.00061
2960.57806,0.00063
2958.64934,0.00050
2956.72063,0.00049
2954.79191,0.00070
2952.86320,0.00080
2950.93448,0.00069
2949.00576,0.00065
2947.07705,0.00072
2945.14833,0.00033
2943.21962,0.00003
2941.29090,0.00011
2939.36219,0.00022
2937.43347,0.00049
2935.50476,0.00084
2933.57604,0.00096
2931.64733,0.00072
2929.71861,0.00041
2927.78990,0.00037
2925.86118,0.00049
2923.93247,0.00061
2922.00375,0.00054
2920.07503,0.00055
2918.14632,0.00051
2916.21760,0.00054
2914.28889,0.00051
2912.36017,0.00035
2910.43146,0.00036
2908.50274,0.00032
2906.57403,0.00029
2904.64531,0.00016
2902.71660,0.00002
2900.78788,0.00007
2898.85917,0.00015
2896.93045,0.00028
2895.00173,0.00026
2893.07302,0.00046
2891.14430,0.00021
2889.21559,-0.00008
2887.28687,0.00011
2885.35816,0.00046
2883.42944,0.00050
2881.50073,0.00047
2879.57201,0.00047
2877.64330,0.00038
2875.71458,0.00037
2873.78587,0.00047
2871.85715,0.00047
2869.92844,0.00033
2867.99972,0.00022
2866.07100,0.00030
2864.14229,0.00034
2862.21357,0.00035
2860.28486,0.00042
2858.35614,0.00112
2856.42743,0.00283
2854.49871,0.00528
2852.57000,0.00827
2850.64128,0.01220
2848.71257,0.01780
2846.78385,0.02541
2844.85514,0.03507
2842.92642,0.04658
2840.99771,0.05912
2839.06899,0.07109
2837.14027,0.08101
2835.21156,0.08827
2833.28284,0.09318
2831.35413,0.09644
2829.42541,0.09879
2827.49670,0.10086
2825.56798,0.10305
2823.63927,0.10528
2821.71055,0.10672
2819.78184,0.10608
2817.85312,0.10262
2815.92441,0.09692
2813.99569,0.09086
2812.06698,0.08643
2810.13826,0.08452
2808.20954,0.08523
2806.28083,0.08866
2804.35211,0.09484
2802.42340,0.10316
2800.49468,0.11198
2798.56597,0.11888
2796.63725,0.12178
2794.70854,0.12001
2792.77982,0.11435
2790.85111,0.10598
2788.92239,0.09599
2786.99368,0.08571
2785.06496,0.07648
2783.13624,0.06927
2781.20753,0.06478
2779.27881,0.06343
2777.35010,0.06534
2775.42138,0.07054
2773.49267,0.07916
2771.56395,0.09071
2769.63524,0.10353
2767.70652,0.11606
2765.77781,0.12800
2763.84909,0.13991
2761.92038,0.15292
2759.99166,0.16804
2758.06295,0.18494
2756.13423,0.20195
2754.20551,0.21723
2752.27680,0.22952
2750.34808,0.23851
2748.41937,0.24445
2746.49065,0.24730
2744.56194,0.24698
2742.63322,0.24350
2740.70451,0.23674
2738.77579,0.22693
2736.84708,0.21544
2734.91836,0.20459
2732.98965,0.19676
2731.06093,0.19360
2729.13222,0.19516
2727.20350,0.19914
2725.27478,0.20142
2723.34607,0.19878
2721.41735,0.19123
2719.48864,0.18183
2717.55992,0.17485
2715.63121,0.17351
2713.70249,0.17894
2711.77378,0.19037
2709.84506,0.20567
2707.91635,0.22234
2705.98763,0.23858
2704.05892,0.25336
2702.13020,0.26645
2700.20149,0.27827
2698.27277,0.28897
2696.34405,0.29839
2694.41534,0.30653
2692.48662,0.31355
2690.55791,0.31957
2688.62919,0.32451
2686.70048,0.32818
2684.77176,0.33059
2682.84305,0.33170
2680.91433,0.33112
2678.98562,0.32858
2677.05690,0.32441
2675.12819,0.31961
2673.19947,0.31554
2671.27075,0.31307
2669.34204,0.31231
2667.41332,0.31313
2665.48461,0.31551
2663.55589,0.31936
2661.62718,0.32445
2659.69846,0.33081
2657.76975,0.33847
2655.84103,0.34723
2653.91232,0.35678
2651.98360,0.36661
2650.05489,0.37602
2648.12617,0.38434
2646.19746,0.39100
2644.26874,0.39547
2642.34002,0.39751
2640.41131,0.39718
2638.48259,0.39447
2636.55388,0.38925
2634.62516,0.38132
2632.69645,0.37064
2630.76773,0.35735
2628.83902,0.34135
2626.91030,0.32260
2624.98159,0.30177
2623.05287,0.28008
2621.12416,0.25921
2619.19544,0.24091
2617.26673,0.22636
2615.33801,0.21576
2613.40929,0.20871
2611.48058,0.20428
2609.55186,0.20135
2607.62315,0.19918
2605.69443,0.19749
2603.76572,0.19619
2601.83700,0.19521
2599.90829,0.19442
2597.97957,0.19371
2596.05086,0.19294
2594.12214,0.19195
2592.19343,0.19099
2590.26471,0.19068
2588.33599,0.19167
2586.40728,0.19452
2584.47856,0.19917
2582.54985,0.20474
2580.62113,0.21041
2578.69242,0.21600
2576.76370,0.22176
2574.83499,0.22842
2572.90627,0.23701
2570.97756,0.24797
2569.04884,0.26056
2567.12013,0.27344
2565.19141,0.28503
2563.26270,0.29393
2561.33398,0.29948
2559.40526,0.30156
2557.47655,0.30043
2555.54783,0.29679
2553.61912,0.29152
2551.69040,0.28532
2549.76169,0.27871
2547.83297,0.27187
2545.90426,0.26465
2543.97554,0.25689
2542.04683,0.24847
2540.11811,0.23923
2538.18940,0.22936
2536.26068,0.21940
2534.33197,0.21039
2532.40325,0.20381
2530.47453,0.20073
2528.54582,0.20127
2526.61710,0.20496
2524.68839,0.21068
2522.75967,0.21667
2520.83096,0.22110
2518.90224,0.22263
2516.97353,0.22064
2515.04481,0.21553
2513.11610,0.20829
2511.18738,0.19999
2509.25867,0.19186
2507.32995,0.18470
2505.40124,0.17816
2503.47252,0.17133
2501.54380,0.16347
2499.61509,0.15415
2497.68637,0.14343
2495.75766,0.13175
2493.82894,0.11984
2491.90023,0.10855
2489.97151,0.09860
2488.04280,0.09041
2486.11408,0.08383
2484.18537,0.07826
2482.25665,0.07318
2480.32794,0.06838
2478.39922,0.06390
2476.47050,0.06002
2474.54179,0.05712
2472.61307,0.05518
2470.68436,0.05396
2468.75564,0.05334
2466.82693,0.05315
2464.89821,0.05331
2462.96950,0.05376
2461.04078,0.05422
2459.11207,0.05452
2457.18335,0.05470
2455.25464,0.05473
2453.32592,0.05474
2451.39721,0.05496
2449.46849,0.05556
2447.53977,0.05656
2445.61106,0.05776
2443.68234,0.05898
2441.75363,0.05996
2439.82491,0.06045
2437.89620,0.06028
2435.96748,0.05923
2434.03877,0.05728
2432.11005,0.05461
2430.18134,0.05132
2428.25262,0.04744
2426.32391,0.04327
2424.39519,0.03921
2422.46648,0.03553
2420.53776,0.03230
2418.60904,0.02958
2416.68033,0.02751
2414.75161,0.02613
2412.82290,0.02524
2410.89418,0.02475
2408.96547,0.02482
2407.03675,0.02551
2405.10804,0.02669
2403.17932,0.02804
2401.25061,0.02930
2399.32189,0.03043
2397.39318,0.03141
2395.46446,0.03242
2393.53574,0.03405
2391.60703,0.03682
2389.67831,0.04078
2387.74960,0.04586
2385.82088,0.05199
2383.89217,0.05890
2381.96345,0.06614
2380.03474,0.07323
2378.10602,0.07995
2376.17731,0.08640
2374.24859,0.09269
2372.31988,0.09856
2370.39116,0.10397
2368.46245,0.10923
2366.53373,0.11430
2364.60501,0.11906
2362.67630,0.12368
2360.74758,0.12801
2358.81887,0.13187
2356.89015,0.13545
2354.96144,0.13874
2353.03272,0.14147
2351.10401,0.14299
2349.17529,0.14195
2347.24658,0.13755
2345.31786,0.13080
2343.38915,0.12458
2341.46043,0.12026
2339.53172,0.11690
2337.60300,0.11382
2335.67428,0.11133
2333.74557,0.10916
2331.81685,0.10582
2329.88814,0.10098
2327.95942,0.09641
2326.03071,0.09374
2324.10199,0.09339
2322.17328,0.09532
2320.24456,0.09914
2318.31585,0.10402
2316.38713,0.10887
2314.45842,0.11272
2312.52970,0.11533
2310.60099,0.11685
2308.67227,0.11718
2306.74355,0.11632
2304.81484,0.11452
2302.88612,0.11181
2300.95741,0.10842
2299.02869,0.10514
2297.09998,0.10254
2295.17126,0.10079
2293.24255,0.09959
2291.31383,0.09786
2289.38512,0.09444
2287.45640,0.08881
2285.52769,0.08149
2283.59897,0.07403
2281.67025,0.06798
2279.74154,0.06394
2277.81282,0.06127
2275.88411,0.05874
2273.95539,0.05516
2272.02668,0.04989
2270.09796,0.04333
2268.16925,0.03639
2266.24053,0.02956
2264.31182,0.02310
2262.38310,0.01750
2260.45439,0.01308
2258.52567,0.00975
2256.59696,0.00714
2254.66824,0.00504
2252.73952,0.00355
2250.81081,0.00266
2248.88209,0.00203
2246.95338,0.00153
2245.02466,0.00113
2243.09595,0.00075
2241.16723,0.00048
2239.23852,0.00038
2237.30980,0.00039
2235.38109,0.00041
2233.45237,0.00031
2231.52366,0.00009
2229.59494,0.00015
2227.66623,0.00041
2225.73751,0.00061
2223.80879,0.00089
2221.88008,0.00149
2219.95136,0.00236
2218.02265,0.00331
2216.09393,0.00433
2214.16522,0.00544
2212.23650,0.00659
2210.30779,0.00748
2208.37907,0.00784
2206.45036,0.00773
2204.52164,0.00728
2202.59293,0.00659
2200.66421,0.00594
2198.73549,0.00568
2196.80678,0.00599
2194.87806,0.00700
2192.94935,0.00897
2191.02063,0.01224
2189.09192,0.01695
2187.16320,0.02298
2185.23449,0.03034
2183.30577,0.03881
2181.37706,0.04771
2179.44834,0.05617
2177.51963,0.06297
2175.59091,0.06725
2173.66220,0.06953
2171.73348,0.07149
2169.80476,0.07490
2167.87605,0.08108
2165.94733,0.09088
2164.01862,0.10445
2162.08990,0.12097
2160.16119,0.13885
2158.23247,0.15648
2156.30376,0.17267
2154.37504,0.18647
2152.44633,0.19719
2150.51761,0.20454
2148.58890,0.20848
2146.66018,0.20921
2144.73147,0.20707
2142.80275,0.20247
2140.87403,0.19585
2138.94532,0.18767
2137.01660,0.17845
2135.08789,0.16878
2133.15917,0.15901
2131.23046,0.14923
2129.30174,0.13944
2127.37303,0.12976
2125.44431,0.12056
2123.51560,0.11224
2121.58688,0.10482
2119.65817,0.09826
2117.72945,0.09262
2115.80074,0.08779
2113.87202,0.08352
2111.94330,0.07950
2110.01459,0.07541
2108.08587,0.07111
2106.15716,0.06668
2104.22844,0.06223
2102.29973,0.05772
2100.37101,0.05284
2098.44230,0.04737
2096.51358,0.04133
2094.58487,0.03499
2092.65615,0.02874
2090.72744,0.02298
2088.79872,0.01807
2086.87000,0.01432
2084.94129,0.01184
2083.01257,0.01058
2081.08386,0.01029
2079.15514,0.01077
2077.22643,0.01209
2075.29771,0.01420
2073.36900,0.01657
2071.44028,0.01865
2069.51157,0.02000
2067.58285,0.02034
2065.65414,0.01957
2063.72542,0.01764
2061.79671,0.01484
2059.86799,0.01176
2057.93927,0.00895
2056.01056,0.00684
2054.08184,0.00553
2052.15313,0.00493
2050.22441,0.00495
2048.29570,0.00558
2046.36698,0.00674
2044.43827,0.00840
2042.50955,0.01053
2040.58084,0.01296
2038.65212,0.01537
2036.72341,0.01752
2034.79469,0.01931
2032.86598,0.02061
2030.93726,0.02130
2029.00854,0.02158
2027.07983,0.02168
2025.15111,0.02160
2023.22240,0.02137
2021.29368,0.02104
2019.36497,0.02029
2017.43625,0.01881
2015.50754,0.01694
2013.57882,0.01525
2011.65011,0.01401
2009.72139,0.01313
2007.79268,0.01258
2005.86396,0.01231
2003.93524,0.01226
2002.00653,0.01247
2000.07781,0.01291
1998.14910,0.01341
1996.22038,0.01396
1994.29167,0.01461
1992.36295,0.01549
1990.43424,0.01672
1988.50552,0.01839
1986.57681,0.02066
1984.64809,0.02350
1982.71938,0.02707
1980.79066,0.03163
1978.86195,0.03699
1976.93323,0.04254
1975.00451,0.04745
1973.07580,0.05108
1971.14708,0.05324
1969.21837,0.05412
1967.28965,0.05387
1965.36094,0.05261
1963.43222,0.05059
1961.50351,0.04815
1959.57479,0.04552
1957.64608,0.04282
1955.71736,0.04011
1953.78865,0.03742
1951.85993,0.03480
1949.93122,0.03243
1948.00250,0.03051
1946.07378,0.02907
1944.14507,0.02794
1942.21635,0.02682
1940.28764,0.02577
1938.35892,0.02484
1936.43021,0.02377
1934.50149,0.02235
1932.57278,0.02067
1930.64406,0.01890
1928.71535,0.01709
1926.78663,0.01528
1924.85792,0.01336
1922.92920,0.01122
1921.00049,0.00913
1919.07177,0.00719
1917.14305,0.00526
1915.21434,0.00356
1913.28562,0.00223
1911.35691,0.00122
1909.42819,0.00062
1907.49948,0.00041
1905.57076,0.00031
1903.64205,0.00015
1901.71333,0.00015
1899.78462,0.00032
1897.85590,0.00036
1895.92719,0.00016
1893.99847,0.00030
1892.06975,0.00040
1890.14104,0.00052
1888.21232,0.00046
1886.28361,0.00029
1884.35489,0.00025
1882.42618,0.00053
1880.49746,0.00073
1878.56875,0.00067
1876.64003,0.00063
1874.71132,0.00075
1872.78260,0.00088
1870.85389,0.00094
1868.92517,0.00094
1866.99646,0.00088
1865.06774,0.00082
1863.13902,0.00086
1861.21031,0.00086
1859.28159,0.00067
1857.35288,0.00052
1855.42416,0.00058
1853.49545,0.00056
1851.56673,0.00035
1849.63802,0.00020
1847.70930,0.00018
1845.78059,0.00023
1843.85187,0.00034
1841.92316,0.00040
1839.99444,0.00034
1838.06573,0.00024
1836.13701,0.00021
1834.20829,0.00028
1832.27958,0.00014
1830.35086,0.00009
1828.42215,0.00026
1826.49343,0.00026
1824.56472,0.00037
1822.63600,0.00034
1820.70729,0.00024
1818.77857,0.00028
1816.84986,0.00033
1814.92114,0.00028
1812.99243,0.00027
1811.06371,0.00016
1809.13499,0.00007
1807.20628,0.00025
1805.27756,0.00044
1803.34885,0.00041
1801.42013,0.00037
1799.49142,0.00041
1797.56270,0.00037
1795.63399,0.00022
1793.70527,0.00014
1791.77656,0.00028
1789.84784,0.00051
1787.91913,0.00059
1785.99041,0.00041
1784.06170,0.00012
1782.13298,0.00001
1780.20426,0.00006
1778.27555,0.00004
1776.34683,0.00004
1774.41812,0.00010
1772.48940,0.00013
1770.56069,0.00008
1768.63197,0.00014
1766.70326,0.00034
1764.77454,0.00040
1762.84583,0.00020
1760.91711,0.00007
1758.98840,0.00034
1757.05968,0.00042
1755.13097,0.00038
1753.20225,0.00026
1751.27353,0.00027
1749.34482,0.00050
1747.41610,0.00054
1745.48739,0.00046
1743.55867,0.00047
1741.62996,0.00043
1739.70124,0.00025
1737.77253,0.00010
1735.84381,0.00016
1733.91510,0.00072
1731.98638,0.00106
1730.05767,0.00073
1728.12895,0.00029
1726.20024,0.00015
1724.27152,0.00027
1722.34280,0.00022
1720.41409,0.00033
1718.48537,0.00030
1716.55666,0.00044
1714.62794,0.00009
1712.69923,0.00021
1710.77051,0.00039
1708.84180,0.00051
1706.91308,0.00055
1704.98437,0.00048
1703.05565,0.00038
1701.12694,0.00035
1699.19822,0.00015
1697.26950,0.00036
1695.34079,0.00066
1693.41207,0.00091
1691.48336,0.00110
1689.55464,0.00136
1687.62593,0.00178
1685.69721,0.00216
1683.76850,0.00205
1681.83978,0.00174
1679.91107,0.00166
1677.98235,0.00152
1676.05364,0.00123
1674.12492,0.00095
1672.19621,0.00069
1670.26749,0.00032
1668.33877,0.00019
1666.41006,0.00040
1664.48134,0.00030
1662.55263,0.00038
1660.62391,0.00053
1658.69520,0.00049
1656.76648,0.00040
1654.83777,0.00077
1652.90905,0.00077
1650.98034,0.00043
1649.05162,0.00043
1647.12291,0.00050
1645.19419,0.00032
1643.26548,0.00023
1641.33676,0.00035
1639.40804,0.00049
1637.47933,0.00059
1635.55061,0.00074
1633.62190,0.00076
1631.69318,0.00078
1629.76447,0.00070
1627.83575,0.00049
1625.90704,0.00018
1623.97832,0.00015
1622.04961,0.00042
1620.12089,0.00049
1618.19218,0.00050
1616.26346,0.00059
1614.33474,0.00054
1612.40603,0.00042
1610.47731,0.00037
1608.54860,0.00030
1606.61988,0.00021
1604.69117,0.00030
1602.76245,0.00022
1600.83374,0.00000
1598.90502,0.00001
1596.97631,0.00028
1595.04759,0.00050
1593.11888,0.00047
1591.19016,0.00025
1589.26145,0.00011
1587.33273,0.00013
1585.40401,0.00020
1583.47530,0.00024
1581.54658,0.00027
1579.61787,0.00015
1577.68915,0.00016
1575.76044,0.00040
1573.83172,0.00068
1571.90301,0.00081
1569.97429,0.00078
1568.04558,0.00079
1566.11686,0.00083
1564.18815,0.00075
1562.25943,0.00058
1560.33072,0.00047
1558.40200,0.00053
1556.47328,0.00052
1554.54457,0.00035
1552.61585,0.00025
1550.68714,0.00028
1548.75842,0.00022
1546.82971,0.00017
1544.90099,0.00030
1542.97228,0.00056
1541.04356,0.00081
1539.11485,0.00102
1537.18613,0.00064
1535.25742,0.00055
1533.32870,0.00061
1531.39999,0.00041
1529.47127,0.00007
1527.54255,0.00007
1525.61384,0.00018
1523.68512,0.00047
1521.75641,0.00075
1519.82769,0.00077
1517.89898,0.00072
1515.97026,0.00078
1514.04155,0.00055
1512.11283,0.00022
1510.18412,0.00011
1508.25540,0.00030
1506.32669,0.00027
1504.39797,0.00020
1502.46925,0.00041
1500.54054,0.00046
1498.61182,0.00034
1496.68311,0.00034
1494.75439,0.00032
1492.82568,0.00031
1490.89696,0.00047
1488.96825,0.00053
1487.03953,0.00040
1485.11082,0.00027
1483.18210,0.00015
1481.25339,0.00016
1479.32467,0.00023
1477.39596,0.00034
1475.46724,0.00056
1473.53852,0.00051
1471.60981,0.00020
1469.68109,0.00030
1467.75238,0.00042
1465.82366,0.00042
1463.89495,0.00015
1461.96623,0.00009
1460.03752,0.00019
1458.10880,0.00032
1456.18009,0.00053
1454.25137,0.00052
1452.32266,0.00040
1450.39394,0.00037
1448.46523,0.00027
1446.53651,0.00023
1444.60779,0.00018
1442.67908,0.00028
1440.75036,0.00027
1438.82165,0.00023
1436.89293,-0.00001
1434.96422,0.00017
1433.03550,0.00023
1431.10679,0.00021
1429.17807,0.00024
1427.24936,0.00027
1425.32064,0.00019
1423.39193,0.00024
1421.46321,0.00020
1419.53449,0.00030
1417.60578,0.00049
1415.67706,0.00036
1413.74835,0.00016
1411.81963,0.00015
1409.89092,0.00024
1407.96220,0.00028
1406.03349,0.00019
1404.10477,0.00022
1402.17606,0.00033
1400.24734,0.00046
1398.31863,0.00055
1396.38991,0.00050
1394.46120,0.00042
1392.53248,0.00045
1390.60376,0.00037
1388.67505,0.00036
1386.74633,0.00055
1384.81762,0.00045
1382.88890,0.00026
1380.96019,0.00026
1379.03147,0.00026
1377.10276,0.00018
1375.17404,0.00025
1373.24533,0.00037
1371.31661,0.00031
1369.38790,0.00031
1367.45918,0.00033
1365.53047,0.00030
1363.60175,0.00009
1361.67303,0.00035
1359.74432,0.00048
1357.81560,0.00039
1355.88689,0.00024
1353.95817,0.00022
1352.02946,0.00024
1350.10074,0.00018
1348.17203,0.00001
1346.24331,0.00001
1344.31460,0.00020
1342.38588,0.00041
1340.45717,0.00035
1338.52845,0.00018
1336.59974,0.00026
1334.67102,0.00042
1332.74230,0.00040
1330.81359,0.00031
1328.88487,0.00033
1326.95616,0.00037
1325.02744,0.00035
1323.09873,0.00031
1321.17001,0.00020
1319.24130,0.00007
1317.31258,-0.00007
1315.38387,-0.00003
1313.45515,0.00020
1311.52644,0.00038
1309.59772,0.00029
1307.66900,0.00009
1305.74029,-0.00001
1303.81157,0.00015
1301.88286,0.00023
1299.95414,0.00031
1298.02543,0.00025
1296.09671,0.00025
1294.16800,0.00026
1292.23928,0.00012
1290.31057,-0.00006
1288.38185,-0.00000
1286.45314,0.00027
1284.52442,0.00052
1282.59571,0.00054
1280.66699,0.00045
1278.73827,0.00047
1276.80956,0.00052
1274.88084,0.00044
1272.95213,0.00037
1271.02341,0.00037
1269.09470,0.00032
1267.16598,0.00021
1265.23727,0.00011
1263.30855,0.00015
1261.37984,0.00035
1259.45112,0.00036
1257.52241,0.00024
1255.59369,0.00013
1253.66498,0.00021
1251.73626,0.00031
1249.80754,0.00029
1247.87883,0.00017
1245.95011,0.00002
1244.02140,-0.00008
1242.09268,0.00016
1240.16397,0.00022
1238.23525,0.00030
1236.30654,0.00040
1234.37782,0.00037
1232.44911,0.00020
1230.52039,0.00015
1228.59168,0.00017
1226.66296,0.00030
1224.73424,0.00052
1222.80553,0.00059
1220.87681,0.00051
1218.94810,0.00035
1217.01938,0.00024
1215.09067,0.00030
1213.16195,0.00037
1211.23324,0.00032
1209.30452,0.00015
1207.37581,0.00049
1205.44709,0.00054
1203.51838,0.00048
1201.58966,0.00046
1199.66095,0.00044
1197.73223,0.00041
1195.80351,0.00044
1193.87480,0.00041
1191.94608,0.00030
1190.01737,0.00014
1188.08865,0.00046
1186.15994,0.00051
1184.23122,0.00041
1182.30251,0.00040
1180.37379,0.00050
1178.44508,0.00065
1176.51636,0.00067
1174.58765,0.00051
1172.65893,0.00032
1170.73022,0.00015
1168.80150,0.00035
1166.87278,0.00029
1164.94407,0.00035
1163.01535,0.00050
1161.08664,0.00051
1159.15792,0.00039
1157.22921,0.00042
1155.30049,0.00054
1153.37178,0.00059
1151.44306,0.00052
1149.51435,0.00046
1147.58563,0.00042
1145.65692,0.00051
1143.72820,0.00053
1141.79949,0.00046
1139.87077,0.00042
1137.94205,0.00034
1136.01334,0.00027
1134.08462,0.00029
1132.15591,0.00037
1130.22719,0.00054
1128.29848,0.00067
1126.36976,0.00053
1124.44105,0.00031
1122.51233,0.00023
1120.58362,0.00020
1118.65490,0.00023
1116.72619,0.00057
1114.79747,0.00071
1112.86875,0.00036
1110.94004,0.00022
1109.01132,0.00040
1107.08261,0.00042
1105.15389,0.00055
1103.22518,0.00082
1101.29646,0.00072
1099.36775,0.00037
1097.43903,0.00028
1095.51032,0.00041
1093.58160,0.00059
1091.65289,0.00066
1089.72417,0.00055
1087.79546,0.00041
1085.86674,0.00007
1083.93802,0.00016
1082.00931,0.00050
1080.08059,0.00050
1078.15188,0.00019
1076.22316,0.00012
1074.29445,0.00035
1072.36573,0.00057
1070.43702,0.00053
1068.50830,0.00026
1066.57959,0.00002
1064.65087,0.00039
1062.72216,0.00048
1060.79344,0.00077
1058.86473,0.00096
1056.93601,0.00104
1055.00729,0.00108
1053.07858,0.00109
1051.14986,0.00116
1049.22115,0.00139
1047.29243,0.00152
1045.36372,0.00131
1043.43500,0.00078
1041.50629,0.00035
1039.57757,0.00023
1037.64886,0.00040
1035.72014,0.00066
1033.79143,0.00072
1031.86271,0.00043
1029.93399,0.00007
1028.00528,-0.00007
1026.07656,0.00010
1024.14785,0.00039
1022.21913,0.00043
1020.29042,0.00039
1018.36170,0.00043
1016.43299,0.00002
1014.50427,0.00004
1012.57556,0.00019
1010.64684,0.00043
1008.71813,0.00050
1006.78941,0.00035
1004.86070,0.00024
1002.93198,0.00039
1001.00326,0.00056
999.07455,0.00073
997.14583,0.00065
995.21712,0.00045
993.28840,0.00029
991.35969,0.00009
989.43097,-0.00009
987.50226,0.00016
985.57354,0.00050
983.64483,0.00084
981.71611,0.00127
979.78740,0.00180
977.85868,0.00214
975.92997,0.00236
974.00125,0.00273
972.07253,0.00296
970.14382,0.00255
968.21510,0.00169
966.28639,0.00099
964.35767,0.00076
962.42896,0.00074
960.50024,0.00070
958.57153,0.00077
956.64281,0.00115
954.71410,0.00181
952.78538,0.00224
950.85667,0.00195
948.92795,0.00113
946.99924,0.00040
945.07052,0.00017
943.14180,0.00028
941.21309,0.00034
939.28437,0.00021
937.35566,0.00013
935.42694,0.00040
933.49823,0.00119
931.56951,0.00248
929.64080,0.00385
927.71208,0.00433
925.78337,0.00324
923.85465,0.00151
921.92594,0.00062
919.99722,0.00046
918.06850,0.00038
916.13979,0.00047
914.21107,0.00135
912.28236,0.00257
910.35364,0.00356
908.42493,0.00379
906.49621,0.00314
904.56750,0.00204
902.63878,0.00105
900.71007,0.00047
898.78135,0.00034
896.85264,0.00047
894.92392,0.00058
892.99521,0.00043
891.06649,0.00023
889.13777,0.00021
887.20906,0.00040
885.28034,0.00054
883.35163,0.00049
881.42291,0.00039
879.49420,0.00041
877.56548,0.00048
875.63677,0.00070
873.70805,0.00079
871.77934,0.00070
869.85062,0.00069
867.92191,0.00074
865.99319,0.00060
864.06448,0.00036
862.13576,0.00028
860.20704,0.00051
858.27833,0.00066
856.34961,0.00060
854.42090,0.00048
852.49218,0.00073
850.56347,0.00070
848.63475,0.00062
846.70604,0.00054
844.77732,0.00056
842.84861,0.00067
840.91989,0.00079
838.99118,0.00079
837.06246,0.00062
835.13375,0.00043
833.20503,0.00068
831.27631,0.00107
829.34760,0.00124
827.41888,0.00106
825.49017,0.00068
823.56145,0.00042
821.63274,0.00048
819.70402,0.00069
817.77531,0.00089
815.84659,0.00072
813.91788,0.00033
811.98916,0.00002
810.06045,0.00021
808.13173,0.00038
806.20301,0.00027
804.27430,0.00022
802.34558,0.00033
800.41687,0.00034
798.48815,0.00043
796.55944,0.00066
794.63072,0.00088
792.70201,0.00095
790.77329,0.00090
788.84458,0.00084
786.91586,0.00080
784.98715,0.00069
783.05843,0.00034
781.12972,-0.00002
779.20100,0.00016
777.27228,0.00041
775.34357,0.00055
773.41485,0.00067
771.48614,0.00063
769.55742,0.00042
767.62871,0.00045
765.69999,0.00027
763.77128,0.00018
761.84256,0.00025
759.91385,0.00049
757.98513,0.00072
756.05642,0.00074
754.12770,0.00048
752.19899,0.00025
750.27027,0.00022
748.34155,0.00040
746.41284,0.00038
744.48412,0.00023
742.55541,0.00051
740.62669,0.00054
738.69798,0.00061
736.76926,0.00081
734.84055,0.00088
732.91183,0.00085
730.98312,0.00083
729.05440,0.00092
727.12569,0.00105
725.19697,0.00096
723.26825,0.00049
721.33954,0.00024
719.41082,0.00057
717.48211,0.00095
715.55339,0.00085
713.62468,0.00068
711.69596,0.00059
709.76725,0.00069
707.83853,0.00075
705.90982,0.00072
703.98110,0.00066
702.05239,0.00065
700.12367,0.00067
698.19496,0.00063
696.26624,-0.00008
694.33752,0.00052
692.40881,0.00226
690.48009,0.00481
688.55138,0.00794
686.62266,0.01161
684.69395,0.01574
682.76523,0.02021
680.83652,0.02490
678.90780,0.02964
676.97909,0.03446
675.05037,0.03946
673.12166,0.04411
671.19294,0.04750
669.26423,0.05051
667.33551,0.05535
665.40679,0.06004
663.47808,0.06318
661.54936,0.06585
659.62065,0.06808
657.69193,0.06904
655.76322,0.06858
653.83450,0.06771
651.90579,0.06703
649.97707,0.06562
648.04836,0.06252
646.11964,0.05794
644.19093,0.05141
642.26221,0.04125
640.33350,0.02746
638.40478,0.01437
636.47606,0.00670
634.54735,0.00430
632.61863,0.00499
630.68992,0.00834
628.76120,0.01350
626.83249,0.01809
624.90377,0.02156
622.97506,0.02520
621.04634,0.02842
619.11763,0.02920
617.18891,0.02715
615.26020,0.02375
613.33148,0.02031
611.40276,0.01652
609.47405,0.01217
607.54533,0.00880
605.61662,0.00718
603.68790,0.00596
601.75919,0.00463
599.83047,0.00352
