7496.91655,0.04312
7494.98784,0.04117
7493.05912,0.04063
7491.13041,0.05089
7489.20169,0.06811
7487.27297,0.06501
7485.34426,0.04028
7483.41554,0.02764
7481.48683,0.04160
7479.55811,0.07112
7477.62940,0.08267
7475.70068,0.06540
7473.77197,0.04878
7471.84325,0.06044
7469.91454,0.08247
7467.98582,0.07963
7466.05711,0.05543
7464.12839,0.04018
7462.19968,0.04075
7460.27096,0.04384
7458.34224,0.03723
7456.41353,0.02898
7454.48481,0.03285
7452.55610,0.04627
7450.62738,0.04954
7448.69867,0.04410
7446.76995,0.03955
7444.84124,0.04460
7442.91252,0.05265
7440.98381,0.06175
7439.05509,0.07787
7437.12638,0.08456
7435.19766,0.06653
7433.26895,0.05117
7431.34023,0.05224
7429.41151,0.05680
7427.48280,0.06436
7425.55408,0.06845
7423.62537,0.05967
7421.69665,0.06193
7419.76794,0.07463
7417.83922,0.08300
7415.91051,0.07340
7413.98179,0.06247
7412.05308,0.06722
7410.12436,0.08288
7408.19565,0.08672
7406.26693,0.07604
7404.33821,0.06302
7402.40950,0.05870
7400.48078,0.05894
7398.55207,0.05170
7396.62335,0.03597
7394.69464,0.03066
7392.76592,0.04141
7390.83721,0.05839
7388.90849,0.07253
7386.97978,0.07623
7385.05106,0.06520
7383.12235,0.05564
7381.19363,0.05688
7379.26492,0.05608
7377.33620,0.05387
7375.40748,0.04802
7373.47877,0.03173
7371.55005,0.03135
7369.62134,0.05424
7367.69262,0.07122
7365.76391,0.06030
7363.83519,0.04504
7361.90648,0.04449
7359.97776,0.05942
7358.04905,0.06909
7356.12033,0.06242
7354.19162,0.05617
7352.26290,0.06432
7350.33419,0.06912
7348.40547,0.05407
7346.47675,0.03785
7344.54804,0.03997
7342.61932,0.04176
7340.69061,0.04491
7338.76189,0.05327
7336.83318,0.05806
7334.90446,0.05235
7332.97575,0.03370
7331.04703,0.02017
7329.11832,0.03283
7327.18960,0.02644
7325.26089,0.03443
7323.33217,0.04219
7321.40346,0.04151
7319.47474,0.03737
7317.54602,0.03356
7315.61731,0.03951
7313.68859,0.04222
7311.75988,0.03403
7309.83116,0.03563
7307.90245,0.04257
7305.97373,0.04493
7304.04502,0.04912
7302.11630,0.06732
7300.18759,0.08871
7298.25887,0.08829
7296.33016,0.07278
7294.40144,0.06229
7292.47272,0.05961
7290.54401,0.05901
7288.61529,0.05813
7286.68658,0.06535
7284.75786,0.07947
7282.82915,0.08235
7280.90043,0.06601
7278.97172,0.04692
7277.04300,0.04489
7275.11429,0.05684
7273.18557,0.05849
7271.25686,0.04522
7269.32814,0.03388
7267.39943,0.04256
7265.47071,0.06151
7263.54199,0.06807
7261.61328,0.06188
7259.68456,0.06318
7257.75585,0.07168
7255.82713,0.07211
7253.89842,0.06649
7251.96970,0.05884
7250.04099,0.04780
7248.11227,0.04047
7246.18356,0.03621
7244.25484,0.03317
7242.32613,0.02701
7240.39741,0.02151
7238.46870,0.02501
7236.53998,0.04509
7234.61126,0.06606
7232.68255,0.06034
7230.75383,0.04204
7228.82512,0.04196
7226.89640,0.04975
7224.96769,0.05547
7223.03897,0.05652
7221.11026,0.04339
7219.18154,0.03039
7217.25283,0.03457
7215.32411,0.04254
7213.39540,0.04333
7211.46668,0.03643
7209.53796,0.03396
7207.60925,0.03126
7205.68053,0.02659
7203.75182,0.02910
7201.82310,0.03824
7199.89439,0.03708
7197.96567,0.02638
7196.03696,0.02448
7194.10824,0.04557
7192.17953,0.06929
7190.25081,0.07452
7188.32210,0.06319
7186.39338,0.04957
7184.46467,0.04865
7182.53595,0.05978
7180.60723,0.06677
7178.67852,0.06728
7176.74980,0.06675
7174.82109,0.06489
7172.89237,0.06151
7170.96366,0.06044
7169.03494,0.05563
7167.10623,0.05284
7165.17751,0.04559
7163.24880,0.04336
7161.32008,0.05317
7159.39137,0.06760
7157.46265,0.07191
7155.53394,0.07019
7153.60522,0.06765
7151.67650,0.06453
7149.74779,0.06322
7147.81907,0.06474
7145.89036,0.06250
7143.96164,0.05893
7142.03293,0.06017
7140.10421,0.05644
7138.17550,0.04209
7136.24678,0.03362
7134.31807,0.03884
7132.38935,0.05002
7130.46064,0.05583
7128.53192,0.05697
7126.60321,0.05906
7124.67449,0.05635
7122.74577,0.04655
7120.81706,0.04208
7118.88834,0.04239
7116.95963,0.04126
7115.03091,0.04234
7113.10220,0.04745
7111.17348,0.04799
7109.24477,0.04643
7107.31605,0.04772
7105.38734,0.04968
7103.45862,0.05011
7101.52991,0.05328
7099.60119,0.05943
7097.67247,0.05571
7095.74376,0.03587
7093.81504,0.02587
7091.88633,0.03685
7089.95761,0.04570
7088.02890,0.03871
7086.10018,0.03173
7084.17147,0.03782
7082.24275,0.04819
7080.31404,0.04886
7078.38532,0.04585
7076.45661,0.04495
7074.52789,0.04142
7072.59918,0.03622
7070.67046,0.03682
7068.74174,0.03629
7066.81303,0.02678
7064.88431,0.02127
7062.95560,0.03165
7061.02688,0.05052
7059.09817,0.06251
7057.16945,0.06145
7055.24074,0.05530
7053.31202,0.05250
7051.38331,0.05546
7049.45459,0.05940
7047.52588,0.06047
7045.59716,0.05865
7043.66845,0.05367
7041.73973,0.04721
7039.81101,0.04095
7037.88230,0.03662
7035.95358,0.03470
7034.02487,0.03191
7032.09615,0.03217
7030.16744,0.03881
7028.23872,0.04423
7026.31001,0.04236
7024.38129,0.04288
7022.45258,0.05289
7020.52386,0.05776
7018.59515,0.04867
7016.66643,0.04284
7014.73771,0.04494
7012.80900,0.04225
7010.88028,0.03903
7008.95157,0.04625
7007.02285,0.05576
7005.09414,0.05729
7003.16542,0.05311
7001.23671,0.05050
6999.30799,0.04645
6997.37928,0.04071
6995.45056,0.03756
6993.52185,0.03721
6991.59313,0.03724
6989.66442,0.03507
6987.73570,0.02562
6985.80698,0.02035
6983.87827,0.02609
6981.94955,0.03690
6980.02084,0.03677
6978.09212,0.03619
6976.16341,0.04494
6974.23469,0.05207
6972.30598,0.04515
6970.37726,0.03400
6968.44855,0.02918
6966.51983,0.03615
6964.59112,0.05228
6962.66240,0.06201
6960.73369,0.05346
6958.80497,0.03983
6956.87625,0.03474
6954.94754,0.03580
6953.01882,0.03737
6951.09011,0.03776
6949.16139,0.04254
6947.23268,0.05580
6945.30396,0.06214
6943.37525,0.05683
6941.44653,0.05117
6939.51782,0.04593
6937.58910,0.03973
6935.66039,0.03846
6933.73167,0.04011
6931.80296,0.04243
6929.87424,0.04900
6927.94552,0.05678
6926.01681,0.05610
6924.08809,0.04616
6922.15938,0.03601
6920.23066,0.03134
6918.30195,0.02763
6916.37323,0.02117
6914.44452,0.01920
6912.51580,0.02416
6910.58709,0.02866
6908.65837,0.03129
6906.72966,0.03230
6904.80094,0.02897
6902.87222,0.02282
6900.94351,0.02088
6899.01479,0.02632
6897.08608,0.03652
6895.15736,0.04461
6893.22865,0.04563
6891.29993,0.04100
6889.37122,0.03762
6887.44250,0.03839
6885.51379,0.04189
6883.58507,0.04533
6881.65636,0.04525
6879.72764,0.04053
6877.79893,0.04184
6875.87021,0.04847
6873.94149,0.05013
6872.01278,0.04579
6870.08406,0.04229
6868.15535,0.04217
6866.22663,0.04523
6864.29792,0.04732
6862.36920,0.04528
6860.44049,0.04161
6858.51177,0.03715
6856.58306,0.03084
6854.65434,0.03008
6852.72563,0.03943
6850.79691,0.04614
6848.86820,0.04224
6846.93948,0.03707
6845.01076,0.03959
6843.08205,0.04946
6841.15333,0.05200
6839.22462,0.04229
6837.29590,0.03721
6835.36719,0.04080
6833.43847,0.04423
6831.50976,0.04640
6829.58104,0.05034
6827.65233,0.05480
6825.72361,0.05476
6823.79490,0.05202
6821.86618,0.04865
6819.93746,0.04507
6818.00875,0.04471
6816.08003,0.04450
6814.15132,0.03907
6812.22260,0.03321
6810.29389,0.03196
6808.36517,0.03483
6806.43646,0.03486
6804.50774,0.03445
6802.57903,0.03511
6800.65031,0.03420
6798.72160,0.02711
6796.79288,0.02442
6794.86417,0.03017
6792.93545,0.03344
6791.00673,0.03549
6789.07802,0.04291
6787.14930,0.04521
6785.22059,0.03647
6783.29187,0.03089
6781.36316,0.03728
6779.43444,0.04425
6777.50573,0.04437
6775.57701,0.04411
6773.64830,0.04811
6771.71958,0.05113
6769.79087,0.04966
6767.86215,0.04740
6765.93344,0.04771
6764.00472,0.04856
6762.07600,0.04514
6760.14729,0.03769
6758.21857,0.03492
6756.28986,0.03757
6754.36114,0.04080
6752.43243,0.04343
6750.50371,0.04346
6748.57500,0.03751
6746.64628,0.03614
6744.71757,0.04571
6742.78885,0.05647
6740.86014,0.05871
6738.93142,0.05452
6737.00271,0.05137
6735.07399,0.04855
6733.14527,0.04014
6731.21656,0.03492
6729.28784,0.03898
6727.35913,0.03962
6725.43041,0.03232
6723.50170,0.02828
6721.57298,0.02916
6719.64427,0.03457
6717.71555,0.04314
6715.78684,0.04461
6713.85812,0.03800
6711.92941,0.03241
6710.00069,0.03052
6708.07197,0.03614
6706.14326,0.04307
6704.21454,0.04237
6702.28583,0.03418
6700.35711,0.03200
6698.42840,0.03379
6696.49968,0.03188
6694.57097,0.03187
6692.64225,0.03782
6690.71354,0.04345
6688.78482,0.04327
6686.85611,0.03678
6684.92739,0.03227
6682.99868,0.03318
6681.06996,0.03313
6679.14124,0.03035
6677.21253,0.03272
6675.28381,0.04029
6673.35510,0.04227
6671.42638,0.03626
6669.49767,0.03126
6667.56895,0.03254
6665.64024,0.03612
6663.71152,0.03965
6661.78281,0.04463
6659.85409,0.04724
6657.92538,0.04547
6655.99666,0.04236
6654.06795,0.04228
6652.13923,0.04755
6650.21051,0.05291
6648.28180,0.05185
6646.35308,0.04331
6644.42437,0.03131
6642.49565,0.02487
6640.56694,0.02883
6638.63822,0.03530
6636.70951,0.03735
6634.78079,0.04259
6632.85208,0.04841
6630.92336,0.04549
6628.99465,0.03892
6627.06593,0.03776
6625.13722,0.03646
6623.20850,0.02979
6621.27978,0.02745
6619.35107,0.03403
6617.42235,0.03773
6615.49364,0.03530
6613.56492,0.03376
6611.63621,0.03436
6609.70749,0.03353
6607.77878,0.03553
6605.85006,0.04192
6603.92135,0.04346
6601.99263,0.03538
6600.06392,0.02810
6598.13520,0.02818
6596.20648,0.03282
6594.27777,0.03815
6592.34905,0.03924
6590.42034,0.03465
6588.49162,0.03232
6586.56291,0.03360
6584.63419,0.03404
6582.70548,0.03012
6580.77676,0.02815
6578.84805,0.02945
6576.91933,0.02970
6574.99062,0.02820
6573.06190,0.02709
6571.13319,0.02813
6569.20447,0.03673
6567.27575,0.04292
6565.34704,0.03845
6563.41832,0.03320
6561.48961,0.03439
6559.56089,0.03846
6557.63218,0.04292
6555.70346,0.04425
6553.77475,0.04048
6551.84603,0.03631
6549.91732,0.03533
6547.98860,0.03548
6546.05989,0.03513
6544.13117,0.03659
6542.20246,0.03982
6540.27374,0.03756
6538.34502,0.03027
6536.41631,0.02584
6534.48759,0.02563
6532.55888,0.02630
6530.63016,0.02700
6528.70145,0.03087
6526.77273,0.04004
6524.84402,0.04676
6522.91530,0.04395
6520.98659,0.03534
6519.05787,0.02772
6517.12916,0.02460
6515.20044,0.03130
6513.27172,0.04119
6511.34301,0.04092
6509.41429,0.03475
6507.48558,0.03594
6505.55686,0.04152
6503.62815,0.04319
6501.69943,0.04183
6499.77072,0.03999
6497.84200,0.03532
6495.91329,0.02947
6493.98457,0.02762
6492.05586,0.03128
6490.12714,0.03541
6488.19843,0.03726
6486.26971,0.04062
6484.34099,0.04594
6482.41228,0.04397
6480.48356,0.03670
6478.55485,0.03716
6476.62613,0.04380
6474.69742,0.04689
6472.76870,0.04609
6470.83999,0.04173
6468.91127,0.03766
6466.98256,0.03615
6465.05384,0.03484
6463.12513,0.03334
6461.19641,0.03151
6459.26770,0.02775
6457.33898,0.02790
6455.41026,0.03219
6453.48155,0.03590
6451.55283,0.03646
6449.62412,0.03602
6447.69540,0.03568
6445.76669,0.03384
6443.83797,0.03173
6441.90926,0.03313
6439.98054,0.03661
6438.05183,0.03731
6436.12311,0.03174
6434.19440,0.02514
6432.26568,0.02530
6430.33697,0.02972
6428.40825,0.03073
6426.47953,0.03029
6424.55082,0.03313
6422.62210,0.03787
6420.69339,0.04103
6418.76467,0.04222
6416.83596,0.04121
6414.90724,0.03723
6412.97853,0.03052
6411.04981,0.02788
6409.12110,0.03388
6407.19238,0.03942
6405.26367,0.03586
6403.33495,0.03173
6401.40623,0.03455
6399.47752,0.03731
6397.54880,0.03635
6395.62009,0.03620
6393.69137,0.03431
6391.76266,0.02942
6389.83394,0.02964
6387.90523,0.03728
6385.97651,0.04220
6384.04780,0.04022
6382.11908,0.03752
6380.19037,0.03636
6378.26165,0.03297
6376.33294,0.02986
6374.40422,0.03041
6372.47550,0.03294
6370.54679,0.03457
6368.61807,0.03326
6366.68936,0.02885
6364.76064,0.02668
6362.83193,0.02964
6360.90321,0.03360
6358.97450,0.03479
6357.04578,0.03660
6355.11707,0.04015
6353.18835,0.04217
6351.25964,0.04237
6349.33092,0.04057
6347.40221,0.03552
6345.47349,0.03158
6343.54477,0.03236
6341.61606,0.03407
6339.68734,0.03082
6337.75863,0.02597
6335.82991,0.02798
6333.90120,0.03487
6331.97248,0.03732
6330.04377,0.03774
6328.11505,0.04108
6326.18634,0.04134
6324.25762,0.03660
6322.32891,0.03415
6320.40019,0.03652
6318.47147,0.04113
6316.54276,0.04367
6314.61404,0.04192
6312.68533,0.03931
6310.75661,0.03757
6308.82790,0.03473
6306.89918,0.03188
6304.97047,0.03005
6303.04175,0.02845
6301.11304,0.02880
6299.18432,0.03116
6297.25561,0.03230
6295.32689,0.03126
6293.39818,0.02914
6291.46946,0.02856
6289.54074,0.02920
6287.61203,0.03023
6285.68331,0.03531
6283.75460,0.04368
6281.82588,0.04703
6279.89717,0.04324
6277.96845,0.03904
6276.03974,0.03699
6274.11102,0.03633
6272.18231,0.03972
6270.25359,0.04331
6268.32488,0.04034
6266.39616,0.03333
6264.46745,0.02991
6262.53873,0.03156
6260.61001,0.03384
6258.68130,0.03369
6256.75258,0.03303
6254.82387,0.03427
6252.89515,0.03718
6250.96644,0.03919
6249.03772,0.03739
6247.10901,0.03248
6245.18029,0.03011
6243.25158,0.03111
6241.32286,0.03264
6239.39415,0.03288
6237.46543,0.03232
6235.53672,0.03304
6233.60800,0.03492
6231.67928,0.03455
6229.75057,0.03043
6227.82185,0.02476
6225.89314,0.02303
6223.96442,0.02632
6222.03571,0.02876
6220.10699,0.02623
6218.17828,0.02573
6216.24956,0.03064
6214.32085,0.03344
6212.39213,0.03092
6210.46342,0.02722
6208.53470,0.02553
6206.60598,0.02897
6204.67727,0.03632
6202.74855,0.03883
6200.81984,0.03205
6198.89112,0.02527
6196.96241,0.02508
6195.03369,0.02831
6193.10498,0.03062
6191.17626,0.03223
6189.24755,0.03288
6187.31883,0.03342
6185.39012,0.03373
6183.46140,0.03451
6181.53269,0.03536
6179.60397,0.03516
6177.67525,0.03584
6175.74654,0.03797
6173.81782,0.03883
6171.88911,0.03792
6169.96039,0.03554
6168.03168,0.03363
6166.10296,0.03416
6164.17425,0.03470
6162.24553,0.03364
6160.31682,0.03430
6158.38810,0.03682
6156.45939,0.03886
6154.53067,0.04023
6152.60196,0.03884
6150.67324,0.03533
6148.74452,0.03454
6146.81581,0.03527
6144.88709,0.03413
6142.95838,0.03175
6141.02966,0.03000
6139.10095,0.02915
6137.17223,0.02944
6135.24352,0.03066
6133.31480,0.03142
6131.38609,0.03112
6129.45737,0.02899
6127.52866,0.02509
6125.59994,0.02317
6123.67122,0.02468
6121.74251,0.02787
6119.81379,0.03097
6117.88508,0.03347
6115.95636,0.03621
6114.02765,0.03751
6112.09893,0.03543
6110.17022,0.03364
6108.24150,0.03297
6106.31279,0.03164
6104.38407,0.03311
6102.45536,0.03676
6100.52664,0.03598
6098.59793,0.03220
6096.66921,0.02982
6094.74049,0.02816
6092.81178,0.02620
6090.88306,0.02596
6088.95435,0.02910
6087.02563,0.03246
6085.09692,0.03155
6083.16820,0.02925
6081.23949,0.02981
6079.31077,0.03157
6077.38206,0.03172
6075.45334,0.03077
6073.52463,0.02964
6071.59591,0.02859
6069.66720,0.02942
6067.73848,0.03204
6065.80976,0.03406
6063.88105,0.03503
6061.95233,0.03312
6060.02362,0.02834
6058.09490,0.02564
6056.16619,0.02873
6054.23747,0.03541
6052.30876,0.04008
6050.38004,0.03950
6048.45133,0.03665
6046.52261,0.03300
6044.59390,0.02758
6042.66518,0.02361
6040.73647,0.02587
6038.80775,0.03109
6036.87903,0.03318
6034.95032,0.03257
6033.02160,0.03351
6031.09289,0.03582
6029.16417,0.03619
6027.23546,0.03490
6025.30674,0.03432
6023.37803,0.03300
6021.44931,0.03109
6019.52060,0.03114
6017.59188,0.03328
6015.66317,0.03407
6013.73445,0.03261
6011.80573,0.03138
6009.87702,0.03133
6007.94830,0.03183
6006.01959,0.03287
6004.09087,0.03233
6002.16216,0.02920
6000.23344,0.02618
5998.30473,0.02638
5996.37601,0.02964
5994.44730,0.03292
5992.51858,0.03318
5990.58987,0.03122
5988.66115,0.03048
5986.73244,0.03065
5984.80372,0.02943
5982.87500,0.02800
5980.94629,0.02725
5979.01757,0.02754
5977.08886,0.02928
5975.16014,0.03114
5973.23143,0.03251
5971.30271,0.03350
5969.37400,0.03197
5967.44528,0.02755
5965.51657,0.02356
5963.58785,0.02427
5961.65914,0.02956
5959.73042,0.03363
5957.80171,0.03335
5955.87299,0.03023
5953.94427,0.02624
5952.01556,0.02461
5950.08684,0.02725
5948.15813,0.03237
5946.22941,0.03530
5944.30070,0.03473
5942.37198,0.03264
5940.44327,0.02989
5938.51455,0.02653
5936.58584,0.02433
5934.65712,0.02464
5932.72841,0.02662
5930.79969,0.02886
5928.87097,0.03060
5926.94226,0.03067
5925.01354,0.02978
5923.08483,0.02842
5921.15611,0.02647
5919.22740,0.02619
5917.29868,0.02796
5915.36997,0.02899
5913.44125,0.02830
5911.51254,0.02625
5909.58382,0.02409
5907.65511,0.02413
5905.72639,0.02677
5903.79768,0.02931
5901.86896,0.02987
5899.94024,0.02984
5898.01153,0.03031
5896.08281,0.02993
5894.15410,0.02782
5892.22538,0.02596
5890.29667,0.02791
5888.36795,0.03352
5886.43924,0.03763
5884.51052,0.03653
5882.58181,0.03313
5880.65309,0.03106
5878.72438,0.02876
5876.79566,0.02485
5874.86695,0.02258
5872.93823,0.02424
5871.00951,0.02675
5869.08080,0.02612
5867.15208,0.02413
5865.22337,0.02560
5863.29465,0.02965
5861.36594,0.03041
5859.43722,0.02765
5857.50851,0.02598
5855.57979,0.02653
5853.65108,0.02768
5851.72236,0.02785
5849.79365,0.02621
5847.86493,0.02562
5845.93622,0.02750
5844.00750,0.02836
5842.07878,0.02758
5840.15007,0.02794
5838.22135,0.02916
5836.29264,0.03016
5834.36392,0.03010
5832.43521,0.02797
5830.50649,0.02533
5828.57778,0.02617
5826.64906,0.02989
5824.72035,0.03007
5822.79163,0.02581
5820.86292,0.02363
5818.93420,0.02463
5817.00548,0.02432
5815.07677,0.02393
5813.14805,0.02718
5811.21934,0.03099
5809.29062,0.03144
5807.36191,0.03098
5805.43319,0.03212
5803.50448,0.03321
5801.57576,0.03332
5799.64705,0.03284
5797.71833,0.03184
5795.78962,0.03038
5793.86090,0.02916
5791.93219,0.02802
5790.00347,0.02701
5788.07475,0.02630
5786.14604,0.02589
5784.21732,0.02620
5782.28861,0.02739
5780.35989,0.02900
5778.43118,0.03127
5776.50246,0.03218
5774.57375,0.03022
5772.64503,0.02825
5770.71632,0.02751
5768.78760,0.02639
5766.85889,0.02543
5764.93017,0.02521
5763.00146,0.02519
5761.07274,0.02555
5759.14402,0.02610
5757.21531,0.02580
5755.28659,0.02499
5753.35788,0.02480
5751.42916,0.02573
5749.50045,0.02773
5747.57173,0.02900
5745.64302,0.02768
5743.71430,0.02660
5741.78559,0.02829
5739.85687,0.02998
5737.92816,0.02946
5735.99944,0.02843
5734.07072,0.02814
5732.14201,0.02826
5730.21329,0.02854
5728.28458,0.02847
5726.35586,0.02793
5724.42715,0.02803
5722.49843,0.02757
5720.56972,0.02473
5718.64100,0.02120
5716.71229,0.02023
5714.78357,0.02205
5712.85486,0.02393
5710.92614,0.02405
5708.99743,0.02321
5707.06871,0.02263
5705.13999,0.02260
5703.21128,0.02354
5701.28256,0.02500
5699.35385,0.02524
5697.42513,0.02516
5695.49642,0.02710
5693.56770,0.03038
5691.63899,0.03200
5689.71027,0.03073
5687.78156,0.02810
5685.85284,0.02572
5683.92413,0.02429
5681.99541,0.02488
5680.06670,0.02771
5678.13798,0.03056
5676.20926,0.03063
5674.28055,0.02794
5672.35183,0.02531
5670.42312,0.02500
5668.49440,0.02617
5666.56569,0.02713
5664.63697,0.02701
5662.70826,0.02641
5660.77954,0.02635
5658.85083,0.02645
5656.92211,0.02633
5654.99340,0.02632
5653.06468,0.02572
5651.13597,0.02405
5649.20725,0.02270
5647.27853,0.02300
5645.34982,0.02406
5643.42110,0.02480
5641.49239,0.02469
5639.56367,0.02371
5637.63496,0.02336
5635.70624,0.02456
5633.77753,0.02604
5631.84881,0.02698
5629.92010,0.02668
5627.99138,0.02448
5626.06267,0.02325
5624.13395,0.02557
5622.20523,0.02809
5620.27652,0.02845
5618.34780,0.02780
5616.41909,0.02660
5614.49037,0.02505
5612.56166,0.02400
5610.63294,0.02429
5608.70423,0.02636
5606.77551,0.02843
5604.84680,0.02854
5602.91808,0.02721
5600.98937,0.02598
5599.06065,0.02563
5597.13194,0.02584
5595.20322,0.02510
5593.27450,0.02370
5591.34579,0.02417
5589.41707,0.02630
5587.48836,0.02749
5585.55964,0.02797
5583.63093,0.02859
5581.70221,0.02778
5579.77350,0.02632
5577.84478,0.02661
5575.91607,0.02762
5573.98735,0.02795
5572.05864,0.02736
5570.12992,0.02550
5568.20121,0.02318
5566.27249,0.02209
5564.34377,0.02339
5562.41506,0.02632
5560.48634,0.02762
5558.55763,0.02658
5556.62891,0.02603
5554.70020,0.02710
5552.77148,0.02811
5550.84277,0.02753
5548.91405,0.02651
5546.98534,0.02635
5545.05662,0.02600
5543.12791,0.02602
5541.19919,0.02718
5539.27047,0.02777
5537.34176,0.02733
5535.41304,0.02678
5533.48433,0.02602
5531.55561,0.02511
5529.62690,0.02475
5527.69818,0.02510
5525.76947,0.02479
5523.84075,0.02354
5521.91204,0.02367
5519.98332,0.02572
5518.05461,0.02712
5516.12589,0.02747
5514.19718,0.02832
5512.26846,0.02886
5510.33974,0.02790
5508.41103,0.02694
5506.48231,0.02806
5504.55360,0.03031
5502.62488,0.03090
5500.69617,0.02964
5498.76745,0.02809
5496.83874,0.02682
5494.91002,0.02580
5492.98131,0.02563
5491.05259,0.02597
5489.12388,0.02576
5487.19516,0.02514
5485.26645,0.02582
5483.33773,0.02814
5481.40901,0.03012
5479.48030,0.03049
5477.55158,0.03034
5475.62287,0.02996
5473.69415,0.02846
5471.76544,0.02661
5469.83672,0.02606
5467.90801,0.02722
5465.97929,0.02784
5464.05058,0.02672
5462.12186,0.02601
5460.19315,0.02644
5458.26443,0.02681
5456.33572,0.02693
5454.40700,0.02720
5452.47828,0.02760
5450.54957,0.02839
5448.62085,0.02887
5446.69214,0.02813
5444.76342,0.02722
5442.83471,0.02632
5440.90599,0.02479
5438.97728,0.02460
5437.04856,0.02652
5435.11985,0.02928
5433.19113,0.03040
5431.26242,0.02891
5429.33370,0.02685
5427.40498,0.02611
5425.47627,0.02600
5423.54755,0.02551
5421.61884,0.02537
5419.69012,0.02702
5417.76141,0.02970
5415.83269,0.03068
5413.90398,0.02903
5411.97526,0.02739
5410.04655,0.02698
5408.11783,0.02622
5406.18912,0.02551
5404.26040,0.02605
5402.33169,0.02629
5400.40297,0.02528
5398.47425,0.02491
5396.54554,0.02583
5394.61682,0.02602
5392.68811,0.02530
5390.75939,0.02559
5388.83068,0.02744
5386.90196,0.02995
5384.97325,0.03087
5383.04453,0.02975
5381.11582,0.02840
5379.18710,0.02618
5377.25839,0.02396
5375.32967,0.02469
5373.40096,0.02589
5371.47224,0.02564
5369.54352,0.02529
5367.61481,0.02445
5365.68609,0.02364
5363.75738,0.02412
5361.82866,0.02483
5359.89995,0.02447
5357.97123,0.02336
5356.04252,0.02309
5354.11380,0.02463
5352.18509,0.02658
5350.25637,0.02771
5348.32766,0.02739
5346.39894,0.02535
5344.47022,0.02399
5342.54151,0.02506
5340.61279,0.02585
5338.68408,0.02456
5336.75536,0.02323
5334.82665,0.02378
5332.89793,0.02465
5330.96922,0.02518
5329.04050,0.02603
5327.11179,0.02684
5325.18307,0.02755
5323.25436,0.02855
5321.32564,0.02875
5319.39693,0.02810
5317.46821,0.02765
5315.53949,0.02703
5313.61078,0.02590
5311.68206,0.02533
5309.75335,0.02637
5307.82463,0.02762
5305.89592,0.02655
5303.96720,0.02457
5302.03849,0.02420
5300.10977,0.02562
5298.18106,0.02709
5296.25234,0.02745
5294.32363,0.02734
5292.39491,0.02702
5290.46620,0.02597
5288.53748,0.02541
5286.60876,0.02572
5284.68005,0.02523
5282.75133,0.02424
5280.82262,0.02424
5278.89390,0.02494
5276.96519,0.02558
5275.03647,0.02589
5273.10776,0.02588
5271.17904,0.02558
5269.25033,0.02545
5267.32161,0.02581
5265.39290,0.02600
5263.46418,0.02532
5261.53547,0.02464
5259.60675,0.02510
5257.67803,0.02633
5255.74932,0.02689
5253.82060,0.02626
5251.89189,0.02508
5249.96317,0.02384
5248.03446,0.02337
5246.10574,0.02397
5244.17703,0.02411
5242.24831,0.02418
5240.31960,0.02545
5238.39088,0.02640
5236.46217,0.02602
5234.53345,0.02615
5232.60473,0.02743
5230.67602,0.02837
5228.74730,0.02843
5226.81859,0.02750
5224.88987,0.02539
5222.96116,0.02398
5221.03244,0.02469
5219.10373,0.02576
5217.17501,0.02484
5215.24630,0.02330
5213.31758,0.02324
5211.38887,0.02354
5209.46015,0.02313
5207.53144,0.02363
5205.60272,0.02585
5203.67400,0.02772
5201.74529,0.02797
5199.81657,0.02735
5197.88786,0.02624
5195.95914,0.02512
5194.03043,0.02493
5192.10171,0.02456
5190.17300,0.02348
5188.24428,0.02375
5186.31557,0.02476
5184.38685,0.02472
5182.45814,0.02419
5180.52942,0.02391
5178.60071,0.02424
5176.67199,0.02519
5174.74327,0.02611
5172.81456,0.02699
5170.88584,0.02745
5168.95713,0.02644
5167.02841,0.02428
5165.09970,0.02340
5163.17098,0.02458
5161.24227,0.02527
5159.31355,0.02453
5157.38484,0.02404
5155.45612,0.02436
5153.52741,0.02497
5151.59869,0.02553
5149.66997,0.02587
5147.74126,0.02588
5145.81254,0.02577
5143.88383,0.02568
5141.95511,0.02537
5140.02640,0.02526
5138.09768,0.02556
5136.16897,0.02551
5134.24025,0.02517
5132.31154,0.02526
5130.38282,0.02592
5128.45411,0.02651
5126.52539,0.02612
5124.59668,0.02451
5122.66796,0.02315
5120.73924,0.02392
5118.81053,0.02591
5116.88181,0.02687
5114.95310,0.02693
5113.02438,0.02689
5111.09567,0.02683
5109.16695,0.02702
5107.23824,0.02718
5105.30952,0.02670
5103.38081,0.02600
5101.45209,0.02574
5099.52338,0.02634
5097.59466,0.02710
5095.66595,0.02628
5093.73723,0.02475
5091.80851,0.02471
5089.87980,0.02533
5087.95108,0.02519
5086.02237,0.02451
5084.09365,0.02422
5082.16494,0.02456
5080.23622,0.02491
5078.30751,0.02503
5076.37879,0.02547
5074.45008,0.02610
5072.52136,0.02629
5070.59265,0.02596
5068.66393,0.02567
5066.73522,0.02589
5064.80650,0.02611
5062.87778,0.02582
5060.94907,0.02573
5059.02035,0.02558
5057.09164,0.02483
5055.16292,0.02461
5053.23421,0.02544
5051.30549,0.02550
5049.37678,0.02423
5047.44806,0.02333
5045.51935,0.02362
5043.59063,0.02396
5041.66192,0.02338
5039.73320,0.02258
5037.80448,0.02254
5035.87577,0.02294
5033.94705,0.02380
5032.01834,0.02493
5030.08962,0.02543
5028.16091,0.02538
5026.23219,0.02501
5024.30348,0.02474
5022.37476,0.02570
5020.44605,0.02752
5018.51733,0.02782
5016.58862,0.02570
5014.65990,0.02369
5012.73119,0.02346
5010.80247,0.02378
5008.87375,0.02386
5006.94504,0.02398
5005.01632,0.02381
5003.08761,0.02322
5001.15889,0.02302
4999.23018,0.02376
4997.30146,0.02490
4995.37275,0.02510
4993.44403,0.02425
4991.51532,0.02360
4989.58660,0.02362
4987.65789,0.02389
4985.72917,0.02393
4983.80046,0.02394
4981.87174,0.02423
4979.94302,0.02418
4978.01431,0.02370
4976.08559,0.02351
4974.15688,0.02377
4972.22816,0.02402
4970.29945,0.02368
4968.37073,0.02269
4966.44202,0.02227
4964.51330,0.02312
4962.58459,0.02397
4960.65587,0.02446
4958.72716,0.02535
4956.79844,0.02611
4954.86972,0.02566
4952.94101,0.02456
4951.01229,0.02406
4949.08358,0.02411
4947.15486,0.02440
4945.22615,0.02488
4943.29743,0.02503
4941.36872,0.02515
4939.44000,0.02574
4937.51129,0.02605
4935.58257,0.02567
4933.65386,0.02528
4931.72514,0.02500
4929.79643,0.02440
4927.86771,0.02371
4925.93899,0.02319
4924.01028,0.02255
4922.08156,0.02210
4920.15285,0.02252
4918.22413,0.02347
4916.29542,0.02427
4914.36670,0.02461
4912.43799,0.02466
4910.50927,0.02464
4908.58056,0.02439
4906.65184,0.02440
4904.72313,0.02460
4902.79441,0.02438
4900.86570,0.02437
4898.93698,0.02466
4897.00826,0.02450
4895.07955,0.02437
4893.15083,0.02483
4891.22212,0.02541
4889.29340,0.02582
4887.36469,0.02638
4885.43597,0.02654
4883.50726,0.02592
4881.57854,0.02534
4879.64983,0.02481
4877.72111,0.02385
4875.79240,0.02321
4873.86368,0.02369
4871.93497,0.02488
4870.00625,0.02553
4868.07753,0.02511
4866.14882,0.02412
4864.22010,0.02333
4862.29139,0.02362
4860.36267,0.02491
4858.43396,0.02572
4856.50524,0.02571
4854.57653,0.02551
4852.64781,0.02481
4850.71910,0.02361
4848.79038,0.02309
4846.86167,0.02378
4844.93295,0.02449
4843.00423,0.02434
4841.07552,0.02409
4839.14680,0.02457
4837.21809,0.02508
4835.28937,0.02490
4833.36066,0.02451
4831.43194,0.02431
4829.50323,0.02427
4827.57451,0.02424
4825.64580,0.02402
4823.71708,0.02368
4821.78837,0.02364
4819.85965,0.02394
4817.93094,0.02432
4816.00222,0.02480
4814.07350,0.02536
4812.14479,0.02547
4810.21607,0.02510
4808.28736,0.02468
4806.35864,0.02459
4804.42993,0.02499
4802.50121,0.02533
4800.57250,0.02489
4798.64378,0.02396
4796.71507,0.02328
4794.78635,0.02334
4792.85764,0.02397
4790.92892,0.02456
4789.00021,0.02479
4787.07149,0.02444
4785.14277,0.02416
4783.21406,0.02469
4781.28534,0.02515
4779.35663,0.02508
4777.42791,0.02541
4775.49920,0.02594
4773.57048,0.02562
4771.64177,0.02487
4769.71305,0.02471
4767.78434,0.02487
4765.85562,0.02456
4763.92691,0.02408
4761.99819,0.02409
4760.06948,0.02473
4758.14076,0.02537
4756.21204,0.02526
4754.28333,0.02466
4752.35461,0.02471
4750.42590,0.02554
4748.49718,0.02620
4746.56847,0.02618
4744.63975,0.02562
4742.71104,0.02494
4740.78232,0.02438
4738.85361,0.02395
4736.92489,0.02417
4734.99618,0.02475
4733.06746,0.02441
4731.13874,0.02297
4729.21003,0.02156
4727.28131,0.02150
4725.35260,0.02288
4723.42388,0.02446
4721.49517,0.02521
4719.56645,0.02490
4717.63774,0.02423
4715.70902,0.02447
4713.78031,0.02505
4711.85159,0.02450
4709.92288,0.02373
4707.99416,0.02390
4706.06545,0.02399
4704.13673,0.02352
4702.20801,0.02332
4700.27930,0.02381
4698.35058,0.02448
4696.42187,0.02457
4694.49315,0.02440
4692.56444,0.02437
4690.63572,0.02408
4688.70701,0.02395
4686.77829,0.02437
4684.84958,0.02440
4682.92086,0.02410
4680.99215,0.02456
4679.06343,0.02527
4677.13472,0.02511
4675.20600,0.02436
4673.27728,0.02382
4671.34857,0.02352
4669.41985,0.02315
4667.49114,0.02280
4665.56242,0.02278
4663.63371,0.02319
4661.70499,0.02373
4659.77628,0.02420
4657.84756,0.02491
4655.91885,0.02558
4653.99013,0.02538
4652.06142,0.02444
4650.13270,0.02362
4648.20398,0.02345
4646.27527,0.02354
4644.34655,0.02355
4642.41784,0.02374
4640.48912,0.02396
4638.56041,0.02397
4636.63169,0.02391
4634.70298,0.02377
4632.77426,0.02382
4630.84555,0.02433
4628.91683,0.02515
4626.98812,0.02585
4625.05940,0.02607
4623.13069,0.02598
4621.20197,0.02564
4619.27325,0.02491
4617.34454,0.02437
4615.41582,0.02431
4613.48711,0.02421
4611.55839,0.02405
4609.62968,0.02389
4607.70096,0.02341
4605.77225,0.02264
4603.84353,0.02224
4601.91482,0.02270
4599.98610,0.02341
4598.05739,0.02384
4596.12867,0.02442
4594.19996,0.02494
4592.27124,0.02472
4590.34252,0.02425
4588.41381,0.02395
4586.48509,0.02348
4584.55638,0.02309
4582.62766,0.02340
4580.69895,0.02393
4578.77023,0.02391
4576.84152,0.02372
4574.91280,0.02389
4572.98409,0.02414
4571.05537,0.02444
4569.12666,0.02481
4567.19794,0.02481
4565.26923,0.02416
4563.34051,0.02332
4561.41179,0.02268
4559.48308,0.02217
4557.55436,0.02219
4555.62565,0.02333
4553.69693,0.02478
4551.76822,0.02507
4549.83950,0.02433
4547.91079,0.02357
4545.98207,0.02275
4544.05336,0.02205
4542.12464,0.02227
4540.19593,0.02311
4538.26721,0.02366
4536.33849,0.02403
4534.40978,0.02461
4532.48106,0.02507
4530.55235,0.02501
4528.62363,0.02476
4526.69492,0.02476
4524.76620,0.02479
4522.83749,0.02460
4520.90877,0.02418
4518.98006,0.02360
4517.05134,0.02324
4515.12263,0.02322
4513.19391,0.02336
4511.26520,0.02371
4509.33648,0.02411
4507.40776,0.02436
4505.47905,0.02462
4503.55033,0.02460
4501.62162,0.02414
4499.69290,0.02362
4497.76419,0.02321
4495.83547,0.02281
4493.90676,0.02273
4491.97804,0.02329
4490.04933,0.02417
4488.12061,0.02461
4486.19190,0.02436
4484.26318,0.02401
4482.33447,0.02388
4480.40575,0.02386
4478.47703,0.02378
4476.54832,0.02363
4474.61960,0.02404
4472.69089,0.02501
4470.76217,0.02556
4468.83346,0.02520
4466.90474,0.02407
4464.97603,0.02274
4463.04731,0.02236
4461.11860,0.02288
4459.18988,0.02323
4457.26117,0.02358
4455.33245,0.02454
4453.40373,0.02535
4451.47502,0.02533
4449.54630,0.02497
4447.61759,0.02489
4445.68887,0.02490
4443.76016,0.02472
4441.83144,0.02462
4439.90273,0.02469
4437.97401,0.02452
4436.04530,0.02389
4434.11658,0.02304
4432.18787,0.02271
4430.25915,0.02292
4428.33044,0.02324
4426.40172,0.02352
4424.47300,0.02349
4422.54429,0.02300
4420.61557,0.02254
4418.68686,0.02255
4416.75814,0.02307
4414.82943,0.02349
4412.90071,0.02326
4410.97200,0.02263
4409.04328,0.02237
4407.11457,0.02276
4405.18585,0.02334
4403.25714,0.02383
4401.32842,0.02425
4399.39971,0.02418
4397.47099,0.02371
4395.54227,0.02358
4393.61356,0.02379
4391.68484,0.02369
4389.75613,0.02333
4387.82741,0.02346
4385.89870,0.02426
4383.96998,0.02491
4382.04127,0.02494
4380.11255,0.02480
4378.18384,0.02480
4376.25512,0.02470
4374.32641,0.02437
4372.39769,0.02386
4370.46898,0.02338
4368.54026,0.02313
4366.61154,0.02331
4364.68283,0.02379
4362.75411,0.02415
4360.82540,0.02420
4358.89668,0.02392
4356.96797,0.02327
4355.03925,0.02277
4353.11054,0.02303
4351.18182,0.02380
4349.25311,0.02413
4347.32439,0.02381
4345.39568,0.02351
4343.46696,0.02341
4341.53824,0.02317
4339.60953,0.02299
4337.68081,0.02311
4335.75210,0.02317
4333.82338,0.02308
4331.89467,0.02300
4329.96595,0.02284
4328.03724,0.02271
4326.10852,0.02268
4324.17981,0.02263
4322.25109,0.02283
4320.32238,0.02343
4318.39366,0.02381
4316.46495,0.02361
4314.53623,0.02312
4312.60751,0.02294
4310.67880,0.02357
4308.75008,0.02458
4306.82137,0.02505
4304.89265,0.02498
4302.96394,0.02494
4301.03522,0.02472
4299.10651,0.02394
4297.17779,0.02334
4295.24908,0.02371
4293.32036,0.02447
4291.39165,0.02445
4289.46293,0.02366
4287.53422,0.02309
4285.60550,0.02327
4283.67678,0.02387
4281.74807,0.02429
4279.81935,0.02445
4277.89064,0.02453
4275.96192,0.02409
4274.03321,0.02331
4272.10449,0.02338
4270.17578,0.02399
4268.24706,0.02376
4266.31835,0.02306
4264.38963,0.02305
4262.46092,0.02361
4260.53220,0.02390
4258.60348,0.02363
4256.67477,0.02317
4254.74605,0.02298
4252.81734,0.02337
4250.88862,0.02421
4248.95991,0.02468
4247.03119,0.02456
4245.10248,0.02426
4243.17376,0.02392
4241.24505,0.02361
4239.31633,0.02359
4237.38762,0.02384
4235.45890,0.02406
4233.53019,0.02377
4231.60147,0.02293
4229.67275,0.02205
4227.74404,0.02164
4225.81532,0.02188
4223.88661,0.02250
4221.95789,0.02289
4220.02918,0.02313
4218.10046,0.02356
4216.17175,0.02378
4214.24303,0.02333
4212.31432,0.02285
4210.38560,0.02312
4208.45689,0.02374
4206.52817,0.02420
4204.59946,0.02456
4202.67074,0.02447
4200.74202,0.02383
4198.81331,0.02334
4196.88459,0.02327
4194.95588,0.02331
4193.02716,0.02334
4191.09845,0.02356
4189.16973,0.02387
4187.24102,0.02394
4185.31230,0.02399
4183.38359,0.02406
4181.45487,0.02374
4179.52616,0.02336
4177.59744,0.02335
4175.66873,0.02369
4173.74001,0.02401
4171.81129,0.02379
4169.88258,0.02333
4167.95386,0.02314
4166.02515,0.02306
4164.09643,0.02301
4162.16772,0.02308
4160.23900,0.02328
4158.31029,0.02373
4156.38157,0.02424
4154.45286,0.02435
4152.52414,0.02392
4150.59543,0.02334
4148.66671,0.02303
4146.73799,0.02291
4144.80928,0.02305
4142.88056,0.02348
4140.95185,0.02381
4139.02313,0.02406
4137.09442,0.02428
4135.16570,0.02421
4133.23699,0.02390
4131.30827,0.02366
4129.37956,0.02374
4127.45084,0.02397
4125.52213,0.02391
4123.59341,0.02351
4121.66470,0.02312
4119.73598,0.02314
4117.80726,0.02332
4115.87855,0.02312
4113.94983,0.02275
4112.02112,0.02283
4110.09240,0.02324
4108.16369,0.02345
4106.23497,0.02341
4104.30626,0.02355
4102.37754,0.02387
4100.44883,0.02392
4098.52011,0.02398
4096.59140,0.02425
4094.66268,0.02423
4092.73397,0.02391
4090.80525,0.02353
4088.87653,0.02319
4086.94782,0.02311
4085.01910,0.02335
4083.09039,0.02361
4081.16167,0.02390
4079.23296,0.02432
4077.30424,0.02443
4075.37553,0.02396
4073.44681,0.02336
4071.51810,0.02291
4069.58938,0.02269
4067.66067,0.02290
4065.73195,0.02313
4063.80323,0.02305
4061.87452,0.02310
4059.94580,0.02352
4058.01709,0.02402
4056.08837,0.02418
4054.15966,0.02398
4052.23094,0.02362
4050.30223,0.02309
4048.37351,0.02274
4046.44480,0.02317
4044.51608,0.02380
4042.58737,0.02382
4040.65865,0.02378
4038.72994,0.02412
4036.80122,0.02410
4034.87250,0.02355
4032.94379,0.02331
4031.01507,0.02394
4029.08636,0.02475
4027.15764,0.02467
4025.22893,0.02389
4023.30021,0.02352
4021.37150,0.02358
4019.44278,0.02332
4017.51407,0.02300
4015.58535,0.02321
4013.65664,0.02356
4011.72792,0.02373
4009.79921,0.02400
4007.87049,0.02434
4005.94177,0.02449
4004.01306,0.02421
4002.08434,0.02365
4000.15563,0.02341
3998.22691,0.02360
3996.29820,0.02358
3994.36948,0.02306
3992.44077,0.02254
3990.51205,0.02238
3988.58334,0.02237
3986.65462,0.02239
3984.72591,0.02256
3982.79719,0.02281
3980.86848,0.02306
3978.93976,0.02332
3977.01104,0.02352
3975.08233,0.02363
3973.15361,0.02380
3971.22490,0.02403
3969.29618,0.02399
3967.36747,0.02367
3965.43875,0.02347
3963.51004,0.02361
3961.58132,0.02379
3959.65261,0.02379
3957.72389,0.02382
3955.79518,0.02369
3953.86646,0.02321
3951.93774,0.02277
3950.00903,0.02265
3948.08031,0.02269
3946.15160,0.02276
3944.22288,0.02283
3942.29417,0.02318
3940.36545,0.02364
3938.43674,0.02374
3936.50802,0.02373
3934.57931,0.02376
3932.65059,0.02354
3930.72188,0.02333
3928.79316,0.02353
3926.86445,0.02406
3924.93573,0.02448
3923.00701,0.02447
3921.07830,0.02435
3919.14958,0.02407
3917.22087,0.02338
3915.29215,0.02304
3913.36344,0.02344
3911.43472,0.02396
3909.50601,0.02413
3907.57729,0.02397
3905.64858,0.02367
3903.71986,0.02354
3901.79115,0.02390
3899.86243,0.02433
3897.93372,0.02435
3896.00500,0.02426
3894.07628,0.02403
3892.14757,0.02335
3890.21885,0.02289
3888.29014,0.02304
3886.36142,0.02314
3884.43271,0.02313
3882.50399,0.02339
3880.57528,0.02381
3878.64656,0.02391
3876.71785,0.02333
3874.78913,0.02263
3872.86042,0.02288
3870.93170,0.02374
3869.00298,0.02417
3867.07427,0.02437
3865.14555,0.02447
3863.21684,0.02422
3861.28812,0.02381
3859.35941,0.02369
3857.43069,0.02400
3855.50198,0.02457
3853.57326,0.02508
3851.64455,0.02459
3849.71583,0.02400
3847.78712,0.02405
3845.85840,0.02430
3843.92969,0.02454
3842.00097,0.02483
3840.07225,0.02470
3838.14354,0.02415
3836.21482,0.02384
3834.28611,0.02383
3832.35739,0.02412
3830.42868,0.02459
3828.49996,0.02498
3826.57125,0.02504
3824.64253,0.02459
3822.71382,0.02391
3820.78510,0.02367
3818.85639,0.02398
3816.92767,0.02398
3814.99896,0.02382
3813.07024,0.02385
3811.14152,0.02393
3809.21281,0.02374
3807.28409,0.02307
3805.35538,0.02265
3803.42666,0.02287
3801.49795,0.02349
3799.56923,0.02420
3797.64052,0.02437
3795.71180,0.02413
3793.78309,0.02389
3791.85437,0.02357
3789.92566,0.02317
3787.99694,0.02311
3786.06823,0.02345
3784.13951,0.02383
3782.21079,0.02421
3780.28208,0.02466
3778.35336,0.02472
3776.42465,0.02433
3774.49593,0.02390
3772.56722,0.02368
3770.63850,0.02362
3768.70979,0.02357
3766.78107,0.02364
3764.85236,0.02385
3762.92364,0.02389
3760.99493,0.02362
3759.06621,0.02335
3757.13749,0.02355
3755.20878,0.02401
3753.28006,0.02431
3751.35135,0.02433
3749.42263,0.02425
3747.49392,0.02431
3745.56520,0.02423
3743.63649,0.02382
3741.70777,0.02373
3739.77906,0.02404
3737.85034,0.02423
3735.92163,0.02391
3733.99291,0.02406
3732.06420,0.02465
3730.13548,0.02443
3728.20676,0.02404
3726.27805,0.02404
3724.34933,0.02393
3722.42062,0.02370
3720.49190,0.02374
3718.56319,0.02391
3716.63447,0.02403
3714.70576,0.02423
3712.77704,0.02445
3710.84833,0.02416
3708.91961,0.02375
3706.99090,0.02371
3705.06218,0.02374
3703.13347,0.02370
3701.20475,0.02372
3699.27603,0.02382
3697.34732,0.02397
3695.41860,0.02425
3693.48989,0.02441
3691.56117,0.02396
3689.63246,0.02292
3687.70374,0.02214
3685.77503,0.02228
3683.84631,0.02310
3681.91760,0.02380
3679.98888,0.02382
3678.06017,0.02366
3676.13145,0.02369
3674.20273,0.02370
3672.27402,0.02371
3670.34530,0.02360
3668.41659,0.02347
3666.48787,0.02345
3664.55916,0.02346
3662.63044,0.02343
3660.70173,0.02327
3658.77301,0.02299
3656.84430,0.02260
3654.91558,0.02245
3652.98687,0.02314
3651.05815,0.02472
3649.12944,0.02537
3647.20072,0.02340
3645.27200,0.02231
3643.34329,0.02259
3641.41457,0.02277
3639.48586,0.02252
3637.55714,0.02240
3635.62843,0.02248
3633.69971,0.02255
3631.77100,0.02257
3629.84228,0.02249
3627.91357,0.02262
3625.98485,0.02301
3624.05614,0.02316
3622.12742,0.02298
3620.19871,0.02251
3618.26999,0.02211
3616.34127,0.02214
3614.41256,0.02225
3612.48384,0.02252
3610.55513,0.02296
3608.62641,0.02285
3606.69770,0.02223
3604.76898,0.02195
3602.84027,0.02207
3600.91155,0.02235
3598.98284,0.02265
3597.05412,0.02270
3595.12541,0.02260
3593.19669,0.02254
3591.26798,0.02249
3589.33926,0.02251
3587.41054,0.02260
3585.48183,0.02258
3583.55311,0.02248
3581.62440,0.02240
3579.69568,0.02232
3577.76697,0.02219
3575.83825,0.02205
3573.90954,0.02184
3571.98082,0.02164
3570.05211,0.02174
3568.12339,0.02189
3566.19468,0.02165
3564.26596,0.02166
3562.33724,0.02195
3560.40853,0.02206
3558.47981,0.02221
3556.55110,0.02230
3554.62238,0.02184
3552.69367,0.02127
3550.76495,0.02157
3548.83624,0.02242
3546.90752,0.02286
3544.97881,0.02279
3543.05009,0.02236
3541.12138,0.02179
3539.19266,0.02160
3537.26395,0.02161
3535.33523,0.02161
3533.40651,0.02187
3531.47780,0.02212
3529.54908,0.02215
3527.62037,0.02216
3525.69165,0.02203
3523.76294,0.02180
3521.83422,0.02183
3519.90551,0.02216
3517.97679,0.02231
3516.04808,0.02192
3514.11936,0.02161
3512.19065,0.02188
3510.26193,0.02198
3508.33322,0.02145
3506.40450,0.02088
3504.47578,0.02077
3502.54707,0.02093
3500.61835,0.02115
3498.68964,0.02162
3496.76092,0.02208
3494.83221,0.02205
3492.90349,0.02184
3490.97478,0.02173
3489.04606,0.02165
3487.11735,0.02157
3485.18863,0.02146
3483.25992,0.02147
3481.33120,0.02152
3479.40248,0.02147
3477.47377,0.02151
3475.54505,0.02173
3473.61634,0.02188
3471.68762,0.02198
3469.75891,0.02212
3467.83019,0.02215
3465.90148,0.02200
3463.97276,0.02189
3462.04405,0.02178
3460.11533,0.02162
3458.18662,0.02157
3456.25790,0.02173
3454.32919,0.02182
3452.40047,0.02161
3450.47175,0.02148
3448.54304,0.02169
3446.61432,0.02168
3444.68561,0.02126
3442.75689,0.02110
3440.82818,0.02162
3438.89946,0.02229
3436.97075,0.02253
3435.04203,0.02241
3433.11332,0.02230
3431.18460,0.02220
3429.25589,0.02207
3427.32717,0.02204
3425.39846,0.02212
3423.46974,0.02205
3421.54102,0.02183
3419.61231,0.02175
3417.68359,0.02186
3415.75488,0.02188
3413.82616,0.02182
3411.89745,0.02170
3409.96873,0.02135
3408.04002,0.02105
3406.11130,0.02126
3404.18259,0.02180
3402.25387,0.02216
3400.32516,0.02214
3398.39644,0.02200
3396.46773,0.02205
3394.53901,0.02227
3392.61029,0.02229
3390.68158,0.02191
3388.75286,0.02155
3386.82415,0.02159
3384.89543,0.02178
3382.96672,0.02197
3381.03800,0.02211
3379.10929,0.02201
3377.18057,0.02190
3375.25186,0.02196
3373.32314,0.02188
3371.39443,0.02174
3369.46571,0.02169
3367.53699,0.02165
3365.60828,0.02182
3363.67956,0.02205
3361.75085,0.02175
3359.82213,0.02128
3357.89342,0.02117
3355.96470,0.02116
3354.03599,0.02113
3352.10727,0.02117
3350.17856,0.02109
3348.24984,0.02097
3346.32113,0.02103
3344.39241,0.02109
3342.46370,0.02101
3340.53498,0.02101
3338.60626,0.02119
3336.67755,0.02141
3334.74883,0.02149
3332.82012,0.02136
3330.89140,0.02104
3328.96269,0.02085
3327.03397,0.02109
3325.10526,0.02133
3323.17654,0.02100
3321.24783,0.02062
3319.31911,0.02094
3317.39040,0.02155
3315.46168,0.02178
3313.53297,0.02180
3311.60425,0.02184
3309.67553,0.02180
3307.74682,0.02156
3305.81810,0.02128
3303.88939,0.02118
3301.96067,0.02110
3300.03196,0.02093
3298.10324,0.02084
3296.17453,0.02100
3294.24581,0.02129
3292.31710,0.02150
3290.38838,0.02173
3288.45967,0.02179
3286.53095,0.02152
3284.60223,0.02141
3282.67352,0.02153
3280.74480,0.02151
3278.81609,0.02127
3276.88737,0.02104
3274.95866,0.02120
3273.02994,0.02173
3271.10123,0.02210
3269.17251,0.02212
3267.24380,0.02212
3265.31508,0.02198
3263.38637,0.02158
3261.45765,0.02152
3259.52894,0.02187
3257.60022,0.02206
3255.67150,0.02223
3253.74279,0.02265
3251.81407,0.02287
3249.88536,0.02240
3247.95664,0.02154
3246.02793,0.02106
3244.09921,0.02129
3242.17050,0.02174
3240.24178,0.02188
3238.31307,0.02176
3236.38435,0.02169
3234.45564,0.02186
3232.52692,0.02229
3230.59821,0.02266
3228.66949,0.02274
3226.74077,0.02258
3224.81206,0.02221
3222.88334,0.02193
3220.95463,0.02200
3219.02591,0.02217
3217.09720,0.02232
3215.16848,0.02236
3213.23977,0.02201
3211.31105,0.02170
3209.38234,0.02199
3207.45362,0.02235
3205.52491,0.02217
3203.59619,0.02195
3201.66748,0.02231
3199.73876,0.02272
3197.81004,0.02262
3195.88133,0.02252
3193.95261,0.02265
3192.02390,0.02262
3190.09518,0.02233
3188.16647,0.02194
3186.23775,0.02161
3184.30904,0.02167
3182.38032,0.02204
3180.45161,0.02229
3178.52289,0.02244
3176.59418,0.02247
3174.66546,0.02212
3172.73674,0.02166
3170.80803,0.02144
3168.87931,0.02130
3166.95060,0.02117
3165.02188,0.02128
3163.09317,0.02150
3161.16445,0.02160
3159.23574,0.02170
3157.30702,0.02187
3155.37831,0.02201
3153.44959,0.02208
3151.52088,0.02211
3149.59216,0.02210
3147.66345,0.02203
3145.73473,0.02202
3143.80601,0.02207
3141.87730,0.02197
3139.94858,0.02178
3138.01987,0.02191
3136.09115,0.02232
3134.16244,0.02241
3132.23372,0.02209
3130.30501,0.02176
3128.37629,0.02171
3126.44758,0.02192
3124.51886,0.02220
3122.59015,0.02227
3120.66143,0.02210
3118.73272,0.02203
3116.80400,0.02217
3114.87528,0.02227
3112.94657,0.02225
3111.01785,0.02206
3109.08914,0.02162
3107.16042,0.02115
3105.23171,0.02103
3103.30299,0.02136
3101.37428,0.02185
3099.44556,0.02217
3097.51685,0.02229
3095.58813,0.02243
3093.65942,0.02258
3091.73070,0.02259
3089.80198,0.02252
3087.87327,0.02226
3085.94455,0.02176
3084.01584,0.02144
3082.08712,0.02154
3080.15841,0.02156
3078.22969,0.02141
3076.30098,0.02149
3074.37226,0.02153
3072.44355,0.02151
3070.51483,0.02194
3068.58612,0.02252
3066.65740,0.02271
3064.72869,0.02239
3062.79997,0.02179
3060.87125,0.02147
3058.94254,0.02162
3057.01382,0.02190
3055.08511,0.02196
3053.15639,0.02183
3051.22768,0.02177
3049.29896,0.02186
3047.37025,0.02191
3045.44153,0.02185
3043.51282,0.02189
3041.58410,0.02202
3039.65539,0.02198
3037.72667,0.02192
3035.79796,0.02213
3033.86924,0.02232
3031.94052,0.02216
3030.01181,0.02194
3028.08309,0.02196
3026.15438,0.02207
3024.22566,0.02216
3022.29695,0.02225
3020.36823,0.02226
3018.43952,0.02227
3016.51080,0.02222
3014.58209,0.02205
3012.65337,0.02205
3010.72466,0.02208
3008.79594,0.02189
3006.86723,0.02178
3004.93851,0.02185
3003.00979,0.02189
3001.08108,0.02202
2999.15236,0.02228
2997.22365,0.02224
2995.29493,0.02184
2993.36622,0.02149
2991.43750,0.02144
2989.50879,0.02161
2987.58007,0.02165
2985.65136,0.02147
2983.72264,0.02126
2981.79393,0.02119
2979.86521,0.02152
2977.93649,0.02186
2976.00778,0.02172
2974.07906,0.02165
2972.15035,0.02180
2970.22163,0.02151
2968.29292,0.02094
2966.36420,0.02075
2964.43549,0.02079
2962.50677,0.02076
2960.57806,0.02081
2958.64934,0.02112
2956.72063,0.02146
2954.79191,0.02150
2952.86320,0.02129
2950.93448,0.02111
2949.00576,0.02103
2947.07705,0.02098
2945.14833,0.02108
2943.21962,0.02140
2941.29090,0.02165
2939.36219,0.02153
2937.43347,0.02122
2935.50476,0.02106
2933.57604,0.02099
2931.64733,0.02101
2929.71861,0.02117
2927.78990,0.02126
2925.86118,0.02124
2923.93247,0.02137
2922.00375,0.02168
2920.07503,0.02180
2918.14632,0.02146
2916.21760,0.02118
2914.28889,0.02140
2912.36017,0.02174
2910.43146,0.02180
2908.50274,0.02165
2906.57403,0.02155
2904.64531,0.02149
2902.71660,0.02148
2900.78788,0.02169
2898.85917,0.02191
2896.93045,0.02177
2895.00173,0.02156
2893.07302,0.02164
2891.14430,0.02185
2889.21559,0.02189
2887.28687,0.02169
2885.35816,0.02159
2883.42944,0.02182
2881.50073,0.02197
2879.57201,0.02184
2877.64330,0.02189
2875.71458,0.02223
2873.78587,0.02238
2871.85715,0.02227
2869.92844,0.02211
2867.99972,0.02195
2866.07100,0.02189
2864.14229,0.02200
2862.21357,0.02204
2860.28486,0.02182
2858.35614,0.02164
2856.42743,0.02173
2854.49871,0.02193
2852.57000,0.02204
2850.64128,0.02198
2848.71257,0.02168
2846.78385,0.02138
2844.85514,0.02144
2842.92642,0.02182
2840.99771,0.02216
2839.06899,0.02235
2837.14027,0.02244
2835.21156,0.02243
2833.28284,0.02232
2831.35413,0.02230
2829.42541,0.02234
2827.49670,0.02233
2825.56798,0.02249
2823.63927,0.02280
2821.71055,0.02281
2819.78184,0.02255
2817.85312,0.02248
2815.92441,0.02257
2813.99569,0.02257
2812.06698,0.02260
2810.13826,0.02273
2808.20954,0.02283
2806.28083,0.02278
2804.35211,0.02261
2802.42340,0.02250
2800.49468,0.02248
2798.56597,0.02246
2796.63725,0.02261
2794.70854,0.02286
2792.77982,0.02288
2790.85111,0.02270
2788.92239,0.02249
2786.99368,0.02225
2785.06496,0.02196
2783.13624,0.02173
2781.20753,0.02164
2779.27881,0.02167
2777.35010,0.02170
2775.42138,0.02185
2773.49267,0.02215
2771.56395,0.02243
2769.63524,0.02259
2767.70652,0.02254
2765.77781,0.02241
2763.84909,0.02249
2761.92038,0.02269
2759.99166,0.02265
2758.06295,0.02239
2756.13423,0.02237
2754.20551,0.02269
2752.27680,0.02290
2750.34808,0.02287
2748.41937,0.02283
2746.49065,0.02285
2744.56194,0.02279
2742.63322,0.02274
2740.70451,0.02277
2738.77579,0.02273
2736.84708,0.02255
2734.91836,0.02236
2732.98965,0.02234
2731.06093,0.02257
2729.13222,0.02283
2727.20350,0.02298
2725.27478,0.02305
2723.34607,0.02301
2721.41735,0.02291
2719.48864,0.02276
2717.55992,0.02242
2715.63121,0.02208
2713.70249,0.02198
2711.77378,0.02200
2709.84506,0.02225
2707.91635,0.02277
2705.98763,0.02324
2704.05892,0.02335
2702.13020,0.02311
2700.20149,0.02279
2698.27277,0.02255
2696.34405,0.02247
2694.41534,0.02257
2692.48662,0.02264
2690.55791,0.02256
2688.62919,0.02254
2686.70048,0.02263
2684.77176,0.02273
2682.84305,0.02277
2680.91433,0.02279
2678.98562,0.02280
2677.05690,0.02260
2675.12819,0.02234
2673.19947,0.02235
2671.27075,0.02254
2669.34204,0.02259
2667.41332,0.02252
2665.48461,0.02248
2663.55589,0.02257
2661.62718,0.02272
2659.69846,0.02286
2657.76975,0.02300
2655.84103,0.02309
2653.91232,0.02298
2651.98360,0.02271
2650.05489,0.02253
2648.12617,0.02256
2646.19746,0.02256
2644.26874,0.02242
2642.34002,0.02235
2640.41131,0.02231
2638.48259,0.02227
2636.55388,0.02243
2634.62516,0.02285
2632.69645,0.02317
2630.76773,0.02309
2628.83902,0.02275
2626.91030,0.02259
2624.98159,0.02268
2623.05287,0.02269
2621.12416,0.02259
2619.19544,0.02251
2617.26673,0.02235
2615.33801,0.02219
2613.40929,0.02224
2611.48058,0.02245
2609.55186,0.02275
2607.62315,0.02297
2605.69443,0.02296
2603.76572,0.02281
2601.83700,0.02272
2599.90829,0.02268
2597.97957,0.02270
2596.05086,0.02289
2594.12214,0.02308
2592.19343,0.02296
2590.26471,0.02262
2588.33599,0.02231
2586.40728,0.02219
2584.47856,0.02230
2582.54985,0.02242
2580.62113,0.02243
2578.69242,0.02239
2576.76370,0.02238
2574.83499,0.02255
2572.90627,0.02287
2570.97756,0.02305
2569.04884,0.02297
2567.12013,0.02277
2565.19141,0.02258
2563.26270,0.02233
2561.33398,0.02207
2559.40526,0.02203
2557.47655,0.02229
2555.54783,0.02253
2553.61912,0.02261
2551.69040,0.02267
2549.76169,0.02271
2547.83297,0.02265
2545.90426,0.02259
2543.97554,0.02279
2542.04683,0.02322
2540.11811,0.02339
2538.18940,0.02314
2536.26068,0.02279
2534.33197,0.02252
2532.40325,0.02231
2530.47453,0.02220
2528.54582,0.02214
2526.61710,0.02213
2524.68839,0.02235
2522.75967,0.02272
2520.83096,0.02293
2518.90224,0.02281
2516.97353,0.02262
2515.04481,0.02258
2513.11610,0.02261
2511.18738,0.02256
2509.25867,0.02256
2507.32995,0.02269
2505.40124,0.02291
2503.47252,0.02311
2501.54380,0.02326
2499.61509,0.02337
2497.68637,0.02336
2495.75766,0.02319
2493.82894,0.02290
2491.90023,0.02274
2489.97151,0.02294
2488.04280,0.02320
2486.11408,0.02316
2484.18537,0.02287
2482.25665,0.02268
2480.32794,0.02282
2478.39922,0.02294
2476.47050,0.02283
2474.54179,0.02286
2472.61307,0.02294
2470.68436,0.02275
2468.75564,0.02244
2466.82693,0.02231
2464.89821,0.02244
2462.96950,0.02265
2461.04078,0.02267
2459.11207,0.02258
2457.18335,0.02265
2455.25464,0.02284
2453.32592,0.02298
2451.39721,0.02300
2449.46849,0.02303
2447.53977,0.02308
2445.61106,0.02304
2443.68234,0.02298
2441.75363,0.02299
2439.82491,0.02286
2437.89620,0.02265
2435.96748,0.02259
2434.03877,0.02264
2432.11005,0.02267
2430.18134,0.02260
2428.25262,0.02258
2426.32391,0.02276
2424.39519,0.02294
2422.46648,0.02292
2420.53776,0.02281
2418.60904,0.02274
2416.68033,0.02270
2414.75161,0.02268
2412.82290,0.02280
2410.89418,0.02295
2408.96547,0.02286
2407.03675,0.02262
2405.10804,0.02252
2403.17932,0.02259
2401.25061,0.02265
2399.32189,0.02255
2397.39318,0.02249
2395.46446,0.02263
2393.53574,0.02278
2391.60703,0.02287
2389.67831,0.02308
2387.74960,0.02317
2385.82088,0.02299
2383.89217,0.02282
2381.96345,0.02287
2380.03474,0.02299
2378.10602,0.02306
2376.17731,0.02305
2374.24859,0.02292
2372.31988,0.02277
2370.39116,0.02292
2368.46245,0.02335
2366.53373,0.02368
2364.60501,0.02351
2362.67630,0.02320
2360.74758,0.02333
2358.81887,0.02368
2356.89015,0.02376
2354.96144,0.02357
2353.03272,0.02341
2351.10401,0.02341
2349.17529,0.02344
2347.24658,0.02330
2345.31786,0.02290
2343.38915,0.02264
2341.46043,0.02288
2339.53172,0.02339
2337.60300,0.02377
2335.67428,0.02372
2333.74557,0.02323
2331.81685,0.02271
2329.88814,0.02283
2327.95942,0.02348
2326.03071,0.02391
2324.10199,0.02388
2322.17328,0.02366
2320.24456,0.02345
2318.31585,0.02341
2316.38713,0.02357
2314.45842,0.02366
2312.52970,0.02344
2310.60099,0.02319
2308.67227,0.02313
2306.74355,0.02306
2304.81484,0.02283
2302.88612,0.02263
2300.95741,0.02258
2299.02869,0.02259
2297.09998,0.02273
2295.17126,0.02279
2293.24255,0.02268
2291.31383,0.02277
2289.38512,0.02304
2287.45640,0.02305
2285.52769,0.02284
2283.59897,0.02267
2281.67025,0.02266
2279.74154,0.02279
2277.81282,0.02284
2275.88411,0.02272
2273.95539,0.02263
2272.02668,0.02267
2270.09796,0.02281
2268.16925,0.02299
2266.24053,0.02306
2264.31182,0.02304
2262.38310,0.02306
2260.45439,0.02309
2258.52567,0.02305
2256.59696,0.02300
2254.66824,0.02294
2252.73952,0.02285
2250.81081,0.02285
2248.88209,0.02301
2246.95338,0.02315
2245.02466,0.02308
2243.09595,0.02301
2241.16723,0.02303
2239.23852,0.02299
2237.30980,0.02305
2235.38109,0.02325
2233.45237,0.02321
2231.52366,0.02281
2229.59494,0.02251
2227.66623,0.02260
2225.73751,0.02281
2223.80879,0.02288
2221.88008,0.02280
2219.95136,0.02254
2218.02265,0.02232
2216.09393,0.02234
2214.16522,0.02252
2212.23650,0.02271
2210.30779,0.02286
2208.37907,0.02291
2206.45036,0.02283
2204.52164,0.02264
2202.59293,0.02245
2200.66421,0.02231
2198.73549,0.02234
2196.80678,0.02250
2194.87806,0.02268
2192.94935,0.02284
2191.02063,0.02290
2189.09192,0.02291
2187.16320,0.02288
2185.23449,0.02276
2183.30577,0.02267
2181.37706,0.02272
2179.44834,0.02272
2177.51963,0.02261
2175.59091,0.02253
2173.66220,0.02258
2171.73348,0.02262
2169.80476,0.02260
2167.87605,0.02266
2165.94733,0.02281
2164.01862,0.02282
2162.08990,0.02268
2160.16119,0.02257
2158.23247,0.02251
2156.30376,0.02240
2154.37504,0.02228
2152.44633,0.02226
2150.51761,0.02244
2148.58890,0.02260
2146.66018,0.02256
2144.73147,0.02254
2142.80275,0.02263
2140.87403,0.02268
2138.94532,0.02272
2137.01660,0.02272
2135.08789,0.02256
2133.15917,0.02232
2131.23046,0.02219
2129.30174,0.02229
2127.37303,0.02257
2125.44431,0.02279
2123.51560,0.02280
2121.58688,0.02263
2119.65817,0.02246
2117.72945,0.02252
2115.80074,0.02273
2113.87202,0.02290
2111.94330,0.02308
2110.01459,0.02318
2108.08587,0.02315
2106.15716,0.02305
2104.22844,0.02292
2102.29973,0.02282
2100.37101,0.02270
2098.44230,0.02252
2096.51358,0.02228
2094.58487,0.02212
2092.65615,0.02206
2090.72744,0.02215
2088.79872,0.02246
2086.87000,0.02274
2084.94129,0.02271
2083.01257,0.02254
2081.08386,0.02242
2079.15514,0.02239
2077.22643,0.02248
2075.29771,0.02259
2073.36900,0.02261
2071.44028,0.02262
2069.51157,0.02277
2067.58285,0.02298
2065.65414,0.02300
2063.72542,0.02292
2061.79671,0.02282
2059.86799,0.02274
2057.93927,0.02274
2056.01056,0.02274
2054.08184,0.02273
2052.15313,0.02281
2050.22441,0.02284
2048.29570,0.02274
2046.36698,0.02265
2044.43827,0.02267
2042.50955,0.02267
2040.58084,0.02257
2038.65212,0.02253
2036.72341,0.02245
2034.79469,0.02213
2032.86598,0.02189
2030.93726,0.02199
2029.00854,0.02218
2027.07983,0.02232
2025.15111,0.02236
2023.22240,0.02234
2021.29368,0.02237
2019.36497,0.02237
2017.43625,0.02237
2015.50754,0.02256
2013.57882,0.02281
2011.65011,0.02290
2009.72139,0.02283
2007.79268,0.02267
2005.86396,0.02249
2003.93524,0.02241
2002.00653,0.02244
2000.07781,0.02249
1998.14910,0.02243
1996.22038,0.02230
1994.29167,0.02228
1992.36295,0.02244
1990.43424,0.02272
1988.50552,0.02297
1986.57681,0.02295
1984.64809,0.02262
1982.71938,0.02233
1980.79066,0.02236
1978.86195,0.02256
1976.93323,0.02263
1975.00451,0.02248
1973.07580,0.02232
1971.14708,0.02233
1969.21837,0.02239
1967.28965,0.02233
1965.36094,0.02221
1963.43222,0.02217
1961.50351,0.02229
1959.57479,0.02239
1957.64608,0.02234
1955.71736,0.02226
1953.78865,0.02227
1951.85993,0.02231
1949.93122,0.02233
1948.00250,0.02232
1946.07378,0.02237
1944.14507,0.02252
1942.21635,0.02259
1940.28764,0.02249
1938.35892,0.02235
1936.43021,0.02224
1934.50149,0.02228
1932.57278,0.02244
1930.64406,0.02251
1928.71535,0.02250
1926.78663,0.02251
1924.85792,0.02253
1922.92920,0.02259
1921.00049,0.02277
1919.07177,0.02298
1917.14305,0.02305
1915.21434,0.02301
1913.28562,0.02295
1911.35691,0.02283
1909.42819,0.02268
1907.49948,0.02262
1905.57076,0.02260
1903.64205,0.02252
1901.71333,0.02240
1899.78462,0.02233
1897.85590,0.02236
1895.92719,0.02249
1893.99847,0.02255
1892.06975,0.02249
1890.14104,0.02243
1888.21232,0.02241
1886.28361,0.02246
1884.35489,0.02256
1882.42618,0.02255
1880.49746,0.02236
1878.56875,0.02216
1876.64003,0.02210
1874.71132,0.02222
1872.78260,0.02240
1870.85389,0.02255
1868.92517,0.02273
1866.99646,0.02279
1865.06774,0.02259
1863.13902,0.02232
1861.21031,0.02218
1859.28159,0.02221
1857.35288,0.02228
1855.42416,0.02219
1853.49545,0.02206
1851.56673,0.02209
1849.63802,0.02222
1847.70930,0.02223
1845.78059,0.02199
1843.85187,0.02180
1841.92316,0.02203
1839.99444,0.02236
1838.06573,0.02237
1836.13701,0.02205
1834.20829,0.02184
1832.27958,0.02191
1830.35086,0.02196
1828.42215,0.02179
1826.49343,0.02164
1824.56472,0.02167
1822.63600,0.02183
1820.70729,0.02193
1818.77857,0.02191
1816.84986,0.02184
1814.92114,0.02180
1812.99243,0.02182
1811.06371,0.02190
1809.13499,0.02200
1807.20628,0.02204
1805.27756,0.02195
1803.34885,0.02178
1801.42013,0.02170
1799.49142,0.02178
1797.56270,0.02182
1795.63399,0.02181
1793.70527,0.02180
1791.77656,0.02154
1789.84784,0.02127
1787.91913,0.02133
1785.99041,0.02141
1784.06170,0.02126
1782.13298,0.02096
1780.20426,0.02064
1778.27555,0.02050
1776.34683,0.02065
1774.41812,0.02089
1772.48940,0.02104
1770.56069,0.02092
1768.63197,0.02054
1766.70326,0.02018
1764.77454,0.02012
1762.84583,0.02026
1760.91711,0.02034
1758.98840,0.02017
1757.05968,0.01972
1755.13097,0.01933
1753.20225,0.01934
1751.27353,0.01967
1749.34482,0.02002
1747.41610,0.02001
1745.48739,0.01980
1743.55867,0.01979
1741.62996,0.01995
1739.70124,0.02005
1737.77253,0.02013
1735.84381,0.02031
1733.91510,0.02067
1731.98638,0.02112
1730.05767,0.02134
1728.12895,0.02142
1726.20024,0.02151
1724.27152,0.02159
1722.34280,0.02169
1720.41409,0.02189
1718.48537,0.02211
1716.55666,0.02231
1714.62794,0.02243
1712.69923,0.02245
1710.77051,0.02239
1708.84180,0.02228
1706.91308,0.02210
1704.98437,0.02185
1703.05565,0.02165
1701.12694,0.02134
1699.19822,0.02102
1697.26950,0.02125
1695.34079,0.02136
1693.41207,0.02108
1691.48336,0.02086
1689.55464,0.02087
1687.62593,0.02111
1685.69721,0.02145
1683.76850,0.02144
1681.83978,0.02097
1679.91107,0.02060
1677.98235,0.02047
1676.05364,0.02044
1674.12492,0.02046
1672.19621,0.02072
1670.26749,0.02091
1668.33877,0.02059
1666.41006,0.02031
1664.48134,0.02035
1662.55263,0.02043
1660.62391,0.02031
1658.69520,0.02019
1656.76648,0.02019
1654.83777,0.01996
1652.90905,0.01950
1650.98034,0.02003
1649.05162,0.02079
1647.12291,0.02092
1645.19419,0.02048
1643.26548,0.02032
1641.33676,0.02033
1639.40804,0.02029
1637.47933,0.02007
1635.55061,0.01980
1633.62190,0.02004
1631.69318,0.02036
1629.76447,0.02050
1627.83575,0.02062
1625.90704,0.02077
1623.97832,0.02086
1622.04961,0.02093
1620.12089,0.02106
1618.19218,0.02113
1616.26346,0.02093
1614.33474,0.02070
1612.40603,0.02062
1610.47731,0.02059
1608.54860,0.02071
1606.61988,0.02102
1604.69117,0.02125
1602.76245,0.02120
1600.83374,0.02095
1598.90502,0.02078
1596.97631,0.02076
1595.04759,0.02071
1593.11888,0.02053
1591.19016,0.02034
1589.26145,0.02024
1587.33273,0.02022
1585.40401,0.02031
1583.47530,0.02039
1581.54658,0.02048
1579.61787,0.02080
1577.68915,0.02118
1575.76044,0.02083
1573.83172,0.02021
1571.90301,0.02025
1569.97429,0.02061
1568.04558,0.02067
1566.11686,0.02052
1564.18815,0.02047
1562.25943,0.02053
1560.33072,0.02051
1558.40200,0.01999
1556.47328,0.01967
1554.54457,0.01979
1552.61585,0.02005
1550.68714,0.02022
1548.75842,0.02013
1546.82971,0.02010
1544.90099,0.02020
1542.97228,0.01998
1541.04356,0.01936
1539.11485,0.01940
1537.18613,0.02022
1535.25742,0.02091
1533.32870,0.02082
1531.39999,0.02034
1529.47127,0.02037
1527.54255,0.02066
1525.61384,0.02078
1523.68512,0.02069
1521.75641,0.02040
1519.82769,0.02023
1517.89898,0.02028
1515.97026,0.02022
1514.04155,0.02013
1512.11283,0.02025
1510.18412,0.02064
1508.25540,0.02129
1506.32669,0.02142
1504.39797,0.02091
1502.46925,0.02079
1500.54054,0.02096
1498.61182,0.02110
1496.68311,0.02092
1494.75439,0.02065
1492.82568,0.02058
1490.89696,0.02058
1488.96825,0.02054
1487.03953,0.02065
1485.11082,0.02092
1483.18210,0.02103
1481.25339,0.02090
1479.32467,0.02069
1477.39596,0.02053
1475.46724,0.02046
1473.53852,0.02038
1471.60981,0.02016
1469.68109,0.02013
1467.75238,0.02029
1465.82366,0.02029
1463.89495,0.02000
1461.96623,0.01990
1460.03752,0.02012
1458.10880,0.02034
1456.18009,0.02029
1454.25137,0.02028
1452.32266,0.02035
1450.39394,0.02027
1448.46523,0.02010
1446.53651,0.02013
1444.60779,0.02029
1442.67908,0.02043
1440.75036,0.02067
1438.82165,0.02101
1436.89293,0.02117
1434.96422,0.02085
1433.03550,0.02031
1431.10679,0.01997
1429.17807,0.02006
1427.24936,0.02042
1425.32064,0.02066
1423.39193,0.02072
1421.46321,0.02073
1419.53449,0.02051
1417.60578,0.02016
1415.67706,0.02009
1413.74835,0.02002
1411.81963,0.01980
1409.89092,0.01961
1407.96220,0.01959
1406.03349,0.01980
1404.10477,0.02003
1402.17606,0.02005
1400.24734,0.01990
1398.31863,0.01973
1396.38991,0.01969
1394.46120,0.01969
1392.53248,0.01961
1390.60376,0.01951
1388.67505,0.01946
1386.74633,0.01948
1384.81762,0.01957
1382.88890,0.01968
1380.96019,0.01971
1379.03147,0.01961
1377.10276,0.01958
1375.17404,0.01964
1373.24533,0.01963
1371.31661,0.01953
1369.38790,0.01949
1367.45918,0.01958
1365.53047,0.01968
1363.60175,0.01963
1361.67303,0.01942
1359.74432,0.01936
1357.81560,0.01950
1355.88689,0.01962
1353.95817,0.01966
1352.02946,0.01973
1350.10074,0.01980
1348.17203,0.01981
1346.24331,0.01972
1344.31460,0.01961
1342.38588,0.01950
1340.45717,0.01933
1338.52845,0.01921
1336.59974,0.01922
1334.67102,0.01925
1332.74230,0.01926
1330.81359,0.01918
1328.88487,0.01893
1326.95616,0.01865
1325.02744,0.01855
1323.09873,0.01855
1321.17001,0.01854
1319.24130,0.01862
1317.31258,0.01876
1315.38387,0.01878
1313.45515,0.01862
1311.52644,0.01847
1309.59772,0.01857
1307.66900,0.01877
1305.74029,0.01887
1303.81157,0.01895
1301.88286,0.01912
1299.95414,0.01928
1298.02543,0.01944
1296.09671,0.01963
1294.16800,0.01967
1292.23928,0.01960
1290.31057,0.01958
1288.38185,0.01957
1286.45314,0.01964
1284.52442,0.01999
1282.59571,0.02039
1280.66699,0.02055
1278.73827,0.02051
1276.80956,0.02043
1274.88084,0.02037
1272.95213,0.02042
1271.02341,0.02060
1269.09470,0.02072
1267.16598,0.02072
1265.23727,0.02093
1263.30855,0.02128
1261.37984,0.02147
1259.45112,0.02153
1257.52241,0.02151
1255.59369,0.02145
1253.66498,0.02148
1251.73626,0.02149
1249.80754,0.02142
1247.87883,0.02136
1245.95011,0.02130
1244.02140,0.02132
1242.09268,0.02155
1240.16397,0.02176
1238.23525,0.02175
1236.30654,0.02162
1234.37782,0.02148
1232.44911,0.02131
1230.52039,0.02104
1228.59168,0.02080
1226.66296,0.02082
1224.73424,0.02095
1222.80553,0.02100
1220.87681,0.02105
1218.94810,0.02109
1217.01938,0.02099
1215.09067,0.02067
1213.16195,0.02034
1211.23324,0.02029
1209.30452,0.02047
1207.37581,0.02053
1205.44709,0.02033
1203.51838,0.02022
1201.58966,0.02027
1199.66095,0.02026
1197.73223,0.02004
1195.80351,0.01971
1193.87480,0.01946
1191.94608,0.01942
1190.01737,0.01950
1188.08865,0.01960
1186.15994,0.01966
1184.23122,0.01974
1182.30251,0.01977
1180.37379,0.01961
1178.44508,0.01938
1176.51636,0.01925
1174.58765,0.01917
1172.65893,0.01924
1170.73022,0.01960
1168.80150,0.01998
1166.87278,0.02000
1164.94407,0.01962
1163.01535,0.01917
1161.08664,0.01883
1159.15792,0.01856
1157.22921,0.01856
1155.30049,0.01892
1153.37178,0.01925
1151.44306,0.01914
1149.51435,0.01883
1147.58563,0.01879
1145.65692,0.01896
1143.72820,0.01916
1141.79949,0.01934
1139.87077,0.01952
1137.94205,0.01960
1136.01334,0.01936
1134.08462,0.01897
1132.15591,0.01900
1130.22719,0.01952
1128.29848,0.02003
1126.36976,0.02029
1124.44105,0.02042
1122.51233,0.02041
1120.58362,0.02026
1118.65490,0.02006
1116.72619,0.01986
1114.79747,0.01974
1112.86875,0.01979
1110.94004,0.01981
1109.01132,0.01973
1107.08261,0.01977
1105.15389,0.01991
1103.22518,0.01996
1101.29646,0.01999
1099.36775,0.02019
1097.43903,0.02042
1095.51032,0.02049
1093.58160,0.02039
1091.65289,0.02011
1089.72417,0.01978
1087.79546,0.01970
1085.86674,0.01985
1083.93802,0.01994
1082.00931,0.02002
1080.08059,0.02031
1078.15188,0.02074
1076.22316,0.02115
1074.29445,0.02155
1072.36573,0.02188
1070.43702,0.02183
1068.50830,0.02143
1066.57959,0.02113
1064.65087,0.02137
1062.72216,0.02189
1060.79344,0.02197
1058.86473,0.02164
1056.93601,0.02143
1055.00729,0.02155
1053.07858,0.02179
1051.14986,0.02179
1049.22115,0.02153
1047.29243,0.02116
1045.36372,0.02092
1043.43500,0.02097
1041.50629,0.02098
1039.57757,0.02078
1037.64886,0.02063
1035.72014,0.02060
1033.79143,0.02059
1031.86271,0.02069
1029.93399,0.02093
1028.00528,0.02107
1026.07656,0.02106
1024.14785,0.02109
1022.21913,0.02130
1020.29042,0.02152
1018.36170,0.02154
1016.43299,0.02154
1014.50427,0.02175
1012.57556,0.02211
1010.64684,0.02239
1008.71813,0.02253
1006.78941,0.02259
1004.86070,0.02255
1002.93198,0.02245
1001.00326,0.02238
999.07455,0.02243
997.14583,0.02247
995.21712,0.02235
993.28840,0.02227
991.35969,0.02237
989.43097,0.02251
987.50226,0.02251
985.57354,0.02229
983.64483,0.02210
981.71611,0.02220
979.78740,0.02244
977.85868,0.02258
975.92997,0.02262
974.00125,0.02267
972.07253,0.02268
970.14382,0.02253
968.21510,0.02225
966.28639,0.02196
964.35767,0.02195
962.42896,0.02214
960.50024,0.02204
958.57153,0.02178
956.64281,0.02182
954.71410,0.02204
952.78538,0.02227
950.85667,0.02243
948.92795,0.02230
946.99924,0.02195
945.07052,0.02171
943.14180,0.02162
941.21309,0.02152
939.28437,0.02149
937.35566,0.02150
935.42694,0.02142
933.49823,0.02119
931.56951,0.02102
929.64080,0.02105
927.71208,0.02118
925.78337,0.02124
923.85465,0.02114
921.92594,0.02098
919.99722,0.02098
918.06850,0.02114
916.13979,0.02139
914.21107,0.02153
912.28236,0.02135
910.35364,0.02108
908.42493,0.02092
906.49621,0.02079
904.56750,0.02073
902.63878,0.02087
900.71007,0.02120
898.78135,0.02142
896.85264,0.02120
894.92392,0.02101
892.99521,0.02132
891.06649,0.02173
889.13777,0.02157
887.20906,0.02108
885.28034,0.02082
883.35163,0.02084
881.42291,0.02100
879.49420,0.02117
877.56548,0.02140
875.63677,0.02150
873.70805,0.02126
871.77934,0.02095
869.85062,0.02075
867.92191,0.02052
865.99319,0.02043
864.06448,0.02067
862.13576,0.02096
860.20704,0.02084
858.27833,0.02047
856.34961,0.02049
854.42090,0.02099
852.49218,0.02132
850.56347,0.02111
848.63475,0.02064
846.70604,0.02031
844.77732,0.02018
842.84861,0.01996
840.91989,0.01971
838.99118,0.01993
837.06246,0.02054
835.13375,0.02087
833.20503,0.02081
831.27631,0.02078
829.34760,0.02097
827.41888,0.02104
825.49017,0.02093
823.56145,0.02103
821.63274,0.02121
819.70402,0.02136
817.77531,0.02173
815.84659,0.02165
813.91788,0.02064
811.98916,0.01966
810.06045,0.01952
808.13173,0.01993
806.20301,0.02040
804.27430,0.02077
802.34558,0.02095
800.41687,0.02080
798.48815,0.02026
796.55944,0.01981
794.63072,0.01985
792.70201,0.02023
790.77329,0.02068
788.84458,0.02079
786.91586,0.02048
784.98715,0.02028
783.05843,0.02019
781.12972,0.01991
779.20100,0.01967
777.27228,0.01961
775.34357,0.01973
773.41485,0.01994
771.48614,0.02002
769.55742,0.02002
767.62871,0.01999
765.69999,0.01991
763.77128,0.01990
761.84256,0.02001
759.91385,0.02027
757.98513,0.02054
756.05642,0.02032
754.12770,0.01952
752.19899,0.01888
750.27027,0.01879
748.34155,0.01888
746.41284,0.01902
744.48412,0.01935
742.55541,0.01943
740.62669,0.01898
738.69798,0.01862
736.76926,0.01883
734.84055,0.01916
732.91183,0.01922
730.98312,0.01898
729.05440,0.01883
727.12569,0.01901
725.19697,0.01937
723.26825,0.01961
721.33954,0.01939
719.41082,0.01917
717.48211,0.01963
715.55339,0.02019
713.62468,0.02026
711.69596,0.02024
709.76725,0.02030
707.83853,0.01993
705.90982,0.01946
703.98110,0.01972
702.05239,0.02038
700.12367,0.02050
698.19496,0.02019
696.26624,0.01991
694.33752,0.01973
692.40881,0.01940
690.48009,0.01892
688.55138,0.01879
686.62266,0.01889
684.69395,0.01871
682.76523,0.01869
680.83652,0.01901
678.90780,0.01949
676.97909,0.02007
675.05037,0.02036
673.12166,0.02013
671.19294,0.01965
669.26423,0.01940
667.33551,0.01969
665.40679,0.01967
663.47808,0.01904
661.54936,0.01837
659.62065,0.01790
657.69193,0.01751
655.76322,0.01743
653.83450,0.01755
651.90579,0.01764
649.97707,0.01789
648.04836,0.01839
646.11964,0.01868
644.19093,0.01839
642.26221,0.01773
640.33350,0.01739
638.40478,0.01776
636.47606,0.01843
634.54735,0.01864
632.61863,0.01875
630.68992,0.01932
628.76120,0.01969
626.83249,0.01923
624.90377,0.01861
622.97506,0.01828
621.04634,0.01765
619.11763,0.01693
617.18891,0.01728
615.26020,0.01828
613.33148,0.01888
611.40276,0.01908
609.47405,0.01896
607.54533,0.01860
605.61662,0.01855
603.68790,0.01869
601.75919,0.01819
599.83047,0.01710
