7496.91655,0.08260
7494.98784,0.07116
7493.05912,0.05023
7491.13041,0.04651
7489.20169,0.06167
7487.27297,0.06684
7485.34426,0.05790
7483.41554,0.05724
7481.48683,0.07404
7479.55811,0.09279
7477.62940,0.10485
7475.70068,0.11488
7473.77197,0.11054
7471.84325,0.09251
7469.91454,0.08454
7467.98582,0.09233
7466.05711,0.09742
7464.12839,0.09371
7462.19968,0.08801
7460.27096,0.08567
7458.34224,0.08362
7456.41353,0.08435
7454.48481,0.08729
7452.55610,0.08013
7450.62738,0.06732
7448.69867,0.07260
7446.76995,0.09384
7444.84124,0.10240
7442.91252,0.09632
7440.98381,0.09669
7439.05509,0.09920
7437.12638,0.09818
7435.19766,0.09930
7433.26895,0.10085
7431.34023,0.10223
7429.41151,0.11313
7427.48280,0.11682
7425.55408,0.09995
7423.62537,0.08331
7421.69665,0.08611
7419.76794,0.10118
7417.83922,0.11378
7415.91051,0.10842
7413.98179,0.10127
7412.05308,0.10863
7410.12436,0.11679
7408.19565,0.11311
7406.26693,0.10610
7404.33821,0.09801
7402.40950,0.08468
7400.48078,0.07160
7398.55207,0.06895
7396.62335,0.06092
7394.69464,0.05693
7392.76592,0.07418
7390.83721,0.09844
7388.90849,0.11089
7386.97978,0.12017
7385.05106,0.12146
7383.12235,0.10630
7381.19363,0.09626
7379.26492,0.10000
7377.33620,0.09282
7375.40748,0.08109
7373.47877,0.07932
7371.55005,0.08138
7369.62134,0.08974
7367.69262,0.09679
7365.76391,0.09195
7363.83519,0.09294
7361.90648,0.09633
7359.97776,0.09453
7358.04905,0.09477
7356.12033,0.09578
7354.19162,0.09435
7352.26290,0.08885
7350.33419,0.07971
7348.40547,0.07586
7346.47675,0.07907
7344.54804,0.08950
7342.61932,0.09226
7340.69061,0.08483
7338.76189,0.08211
7336.83318,0.08876
7334.90446,0.08969
7332.97575,0.07917
7331.04703,0.06743
7329.11832,0.06265
7327.18960,0.07136
7325.26089,0.09091
7323.33217,0.10374
7321.40346,0.10769
7319.47474,0.10198
7317.54602,0.08379
7315.61731,0.06874
7313.68859,0.07113
7311.75988,0.08038
7309.83116,0.08518
7307.90245,0.08347
7305.97373,0.07836
7304.04502,0.07057
7302.11630,0.07120
7300.18759,0.08471
7298.25887,0.09317
7296.33016,0.08769
7294.40144,0.07741
7292.47272,0.06490
7290.54401,0.06050
7288.61529,0.06965
7286.68658,0.08444
7284.75786,0.08811
7282.82915,0.08188
7280.90043,0.07331
7278.97172,0.06656
7277.04300,0.06069
7275.11429,0.06495
7273.18557,0.07860
7271.25686,0.08656
7269.32814,0.08231
7267.39943,0.08066
7265.47071,0.08599
7263.54199,0.08786
7261.61328,0.09427
7259.68456,0.10654
7257.75585,0.10712
7255.82713,0.09970
7253.89842,0.08983
7251.96970,0.07818
7250.04099,0.07475
7248.11227,0.08118
7246.18356,0.08525
7244.25484,0.08290
7242.32613,0.07602
7240.39741,0.07455
7238.46870,0.08187
7236.53998,0.08844
7234.61126,0.08714
7232.68255,0.08885
7230.75383,0.09056
7228.82512,0.08506
7226.89640,0.08681
7224.96769,0.09568
7223.03897,0.09252
7221.11026,0.07964
7219.18154,0.07405
7217.25283,0.07998
7215.32411,0.08827
7213.39540,0.09196
7211.46668,0.09090
7209.53796,0.08861
7207.60925,0.08343
7205.68053,0.07840
7203.75182,0.07310
7201.82310,0.06736
7199.89439,0.06876
7197.96567,0.08434
7196.03696,0.09791
7194.10824,0.10014
7192.17953,0.10020
7190.25081,0.09670
7188.32210,0.08844
7186.39338,0.09233
7184.46467,0.10206
7182.53595,0.09898
7180.60723,0.09009
7178.67852,0.08615
7176.74980,0.09029
7174.82109,0.10231
7172.89237,0.10804
7170.96366,0.10189
7169.03494,0.09268
7167.10623,0.08852
7165.17751,0.09045
7163.24880,0.10288
7161.32008,0.11326
7159.39137,0.09735
7157.46265,0.06758
7155.53394,0.05805
7153.60522,0.06528
7151.67650,0.07173
7149.74779,0.08065
7147.81907,0.09199
7145.89036,0.09022
7143.96164,0.07717
7142.03293,0.07330
7140.10421,0.09481
7138.17550,0.12358
7136.24678,0.12875
7134.31807,0.11352
7132.38935,0.09687
7130.46064,0.08846
7128.53192,0.09575
7126.60321,0.11037
7124.67449,0.11555
7122.74577,0.10860
7120.81706,0.09824
7118.88834,0.09132
7116.95963,0.08771
7115.03091,0.08609
7113.10220,0.08597
7111.17348,0.08061
7109.24477,0.06915
7107.31605,0.06376
7105.38734,0.07664
7103.45862,0.09061
7101.52991,0.09086
7099.60119,0.07907
7097.67247,0.06740
7095.74376,0.07022
7093.81504,0.09085
7091.88633,0.10799
7089.95761,0.10792
7088.02890,0.09606
7086.10018,0.08501
7084.17147,0.08475
7082.24275,0.09073
7080.31404,0.09270
7078.38532,0.09614
7076.45661,0.10110
7074.52789,0.10086
7072.59918,0.09156
7070.67046,0.07633
7068.74174,0.06778
7066.81303,0.06852
7064.88431,0.07034
7062.95560,0.07914
7061.02688,0.09198
7059.09817,0.09195
7057.16945,0.08686
7055.24074,0.09720
7053.31202,0.10997
7051.38331,0.10495
7049.45459,0.09049
7047.52588,0.08822
7045.59716,0.10137
7043.66845,0.11393
7041.73973,0.11460
7039.81101,0.10951
7037.88230,0.10397
7035.95358,0.09565
7034.02487,0.09084
7032.09615,0.09599
7030.16744,0.09777
7028.23872,0.08952
7026.31001,0.07966
7024.38129,0.07650
7022.45258,0.08256
7020.52386,0.09420
7018.59515,0.10275
7016.66643,0.11010
7014.73771,0.11532
7012.80900,0.11619
7010.88028,0.11517
7008.95157,0.10850
7007.02285,0.09294
7005.09414,0.08220
7003.16542,0.08569
7001.23671,0.09200
6999.30799,0.08969
6997.37928,0.08459
6995.45056,0.08459
6993.52185,0.08867
6991.59313,0.09056
6989.66442,0.08667
6987.73570,0.08210
6985.80698,0.08549
6983.87827,0.09641
6981.94955,0.10658
6980.02084,0.10884
6978.09212,0.10536
6976.16341,0.10533
6974.23469,0.10914
6972.30598,0.10661
6970.37726,0.09854
6968.44855,0.09500
6966.51983,0.10065
6964.59112,0.10646
6962.66240,0.10219
6960.73369,0.09415
6958.80497,0.09076
6956.87625,0.08718
6954.94754,0.08325
6953.01882,0.08300
6951.09011,0.08301
6949.16139,0.08557
6947.23268,0.09587
6945.30396,0.10484
6943.37525,0.10558
6941.44653,0.10344
6939.51782,0.10499
6937.58910,0.10424
6935.66039,0.09602
6933.73167,0.08740
6931.80296,0.08316
6929.87424,0.08672
6927.94552,0.09889
6926.01681,0.10402
6924.08809,0.09596
6922.15938,0.09008
6920.23066,0.09258
6918.30195,0.09863
6916.37323,0.10489
6914.44452,0.10378
6912.51580,0.09564
6910.58709,0.09055
6908.65837,0.09124
6906.72966,0.09129
6904.80094,0.09009
6902.87222,0.09224
6900.94351,0.09810
6899.01479,0.10565
6897.08608,0.11149
6895.15736,0.11084
6893.22865,0.10932
6891.29993,0.10862
6889.37122,0.10215
6887.44250,0.09763
6885.51379,0.10339
6883.58507,0.11102
6881.65636,0.11539
6879.72764,0.11547
6877.79893,0.10969
6875.87021,0.10432
6873.94149,0.10400
6872.01278,0.10298
6870.08406,0.09614
6868.15535,0.08739
6866.22663,0.08463
6864.29792,0.08770
6862.36920,0.09102
6860.44049,0.09111
6858.51177,0.09088
6856.58306,0.09136
6854.65434,0.09285
6852.72563,0.10048
6850.79691,0.11186
6848.86820,0.11721
6846.93948,0.11248
6845.01076,0.10357
6843.08205,0.09999
6841.15333,0.10209
6839.22462,0.10542
6837.29590,0.10536
6835.36719,0.09887
6833.43847,0.09072
6831.50976,0.08981
6829.58104,0.09575
6827.65233,0.10073
6825.72361,0.09844
6823.79490,0.09262
6821.86618,0.09295
6819.93746,0.09962
6818.00875,0.10213
6816.08003,0.09709
6814.15132,0.09342
6812.22260,0.09734
6810.29389,0.10258
6808.36517,0.10332
6806.43646,0.10287
6804.50774,0.10496
6802.57903,0.10473
6800.65031,0.10056
6798.72160,0.09696
6796.79288,0.09630
6794.86417,0.09859
6792.93545,0.10112
6791.00673,0.10020
6789.07802,0.09836
6787.14930,0.10033
6785.22059,0.10573
6783.29187,0.10736
6781.36316,0.10429
6779.43444,0.10435
6777.50573,0.10774
6775.57701,0.10550
6773.64830,0.10034
6771.71958,0.10091
6769.79087,0.10305
6767.86215,0.10178
6765.93344,0.09991
6764.00472,0.09725
6762.07600,0.09747
6760.14729,0.10473
6758.21857,0.11009
6756.28986,0.10809
6754.36114,0.10834
6752.43243,0.11226
6750.50371,0.10876
6748.57500,0.10056
6746.64628,0.10057
6744.71757,0.10575
6742.78885,0.10765
6740.86014,0.10725
6738.93142,0.10809
6737.00271,0.11083
6735.07399,0.11337
6733.14527,0.11461
6731.21656,0.11304
6729.28784,0.10632
6727.35913,0.10020
6725.43041,0.10086
6723.50170,0.10486
6721.57298,0.10439
6719.64427,0.10039
6717.71555,0.09794
6715.78684,0.09650
6713.85812,0.09999
6711.92941,0.11304
6710.00069,0.12574
6708.07197,0.12526
6706.14326,0.11533
6704.21454,0.11066
6702.28583,0.11322
6700.35711,0.11767
6698.42840,0.12179
6696.49968,0.12025
6694.57097,0.11366
6692.64225,0.11273
6690.71354,0.11911
6688.78482,0.12236
6686.85611,0.11786
6684.92739,0.11414
6682.99868,0.11349
6681.06996,0.10719
6679.14124,0.09616
6677.21253,0.09069
6675.28381,0.09373
6673.35510,0.10107
6671.42638,0.10443
6669.49767,0.10172
6667.56895,0.09775
6665.64024,0.09537
6663.71152,0.09490
6661.78281,0.09600
6659.85409,0.09814
6657.92538,0.10025
6655.99666,0.10095
6654.06795,0.10228
6652.13923,0.10421
6650.21051,0.10419
6648.28180,0.10455
6646.35308,0.10863
6644.42437,0.11375
6642.49565,0.11655
6640.56694,0.11593
6638.63822,0.11020
6636.70951,0.10177
6634.78079,0.10039
6632.85208,0.10772
6630.92336,0.11537
6628.99465,0.12116
6627.06593,0.12423
6625.13722,0.11904
6623.20850,0.10657
6621.27978,0.09762
6619.35107,0.09975
6617.42235,0.10485
6615.49364,0.10509
6613.56492,0.10508
6611.63621,0.10786
6609.70749,0.11010
6607.77878,0.11021
6605.85006,0.11108
6603.92135,0.11407
6601.99263,0.11380
6600.06392,0.10989
6598.13520,0.11039
6596.20648,0.11498
6594.27777,0.11577
6592.34905,0.11016
6590.42034,0.10237
6588.49162,0.10011
6586.56291,0.10204
6584.63419,0.10518
6582.70548,0.11181
6580.77676,0.11575
6578.84805,0.11349
6576.91933,0.11443
6574.99062,0.11963
6573.06190,0.12122
6571.13319,0.11670
6569.20447,0.11079
6567.27575,0.10797
6565.34704,0.10833
6563.41832,0.10875
6561.48961,0.10893
6559.56089,0.11080
6557.63218,0.11362
6555.70346,0.11673
6553.77475,0.11999
6551.84603,0.12210
6549.91732,0.12108
6547.98860,0.11482
6546.05989,0.10759
6544.13117,0.10566
6542.20246,0.10799
6540.27374,0.11215
6538.34502,0.11711
6536.41631,0.11705
6534.48759,0.11109
6532.55888,0.10518
6530.63016,0.10094
6528.70145,0.09988
6526.77273,0.10488
6524.84402,0.10772
6522.91530,0.10451
6520.98659,0.10430
6519.05787,0.10942
6517.12916,0.11406
6515.20044,0.11592
6513.27172,0.11511
6511.34301,0.11159
6509.41429,0.10613
6507.48558,0.10367
6505.55686,0.10542
6503.62815,0.10580
6501.69943,0.10505
6499.77072,0.10884
6497.84200,0.11526
6495.91329,0.11906
6493.98457,0.11877
6492.05586,0.11444
6490.12714,0.11067
6488.19843,0.11250
6486.26971,0.11581
6484.34099,0.11469
6482.41228,0.10911
6480.48356,0.10456
6478.55485,0.10563
6476.62613,0.10992
6474.69742,0.11268
6472.76870,0.11210
6470.83999,0.11100
6468.91127,0.11393
6466.98256,0.11633
6465.05384,0.11308
6463.12513,0.11019
6461.19641,0.11245
6459.26770,0.11790
6457.33898,0.12335
6455.41026,0.12291
6453.48155,0.11605
6451.55283,0.11033
6449.62412,0.10900
6447.69540,0.11153
6445.76669,0.11660
6443.83797,0.11736
6441.90926,0.11312
6439.98054,0.11373
6438.05183,0.11906
6436.12311,0.11945
6434.19440,0.11545
6432.26568,0.11348
6430.33697,0.11383
6428.40825,0.11429
6426.47953,0.11371
6424.55082,0.11134
6422.62210,0.10744
6420.69339,0.10351
6418.76467,0.10293
6416.83596,0.10681
6414.90724,0.11078
6412.97853,0.11149
6411.04981,0.11032
6409.12110,0.10935
6407.19238,0.10938
6405.26367,0.11028
6403.33495,0.11121
6401.40623,0.11098
6399.47752,0.11078
6397.54880,0.11089
6395.62009,0.10855
6393.69137,0.10701
6391.76266,0.11047
6389.83394,0.11393
6387.90523,0.11369
6385.97651,0.11176
6384.04780,0.11155
6382.11908,0.11537
6380.19037,0.11995
6378.26165,0.11830
6376.33294,0.11053
6374.40422,0.10491
6372.47550,0.10583
6370.54679,0.10908
6368.61807,0.11247
6366.68936,0.11753
6364.76064,0.12142
6362.83193,0.11958
6360.90321,0.11349
6358.97450,0.10755
6357.04578,0.10468
6355.11707,0.10704
6353.18835,0.11302
6351.25964,0.11720
6349.33092,0.11926
6347.40221,0.12140
6345.47349,0.12219
6343.54477,0.12221
6341.61606,0.12334
6339.68734,0.12348
6337.75863,0.12144
6335.82991,0.11836
6333.90120,0.11405
6331.97248,0.11103
6330.04377,0.11335
6328.11505,0.11691
6326.18634,0.11527
6324.25762,0.11005
6322.32891,0.10613
6320.40019,0.10560
6318.47147,0.10940
6316.54276,0.11443
6314.61404,0.11677
6312.68533,0.11713
6310.75661,0.11597
6308.82790,0.11154
6306.89918,0.10546
6304.97047,0.10253
6303.04175,0.10433
6301.11304,0.10741
6299.18432,0.10926
6297.25561,0.11072
6295.32689,0.11259
6293.39818,0.11195
6291.46946,0.10859
6289.54074,0.10824
6287.61203,0.11018
6285.68331,0.10902
6283.75460,0.10689
6281.82588,0.10716
6279.89717,0.10820
6277.96845,0.10987
6276.03974,0.11386
6274.11102,0.11737
6272.18231,0.11652
6270.25359,0.11189
6268.32488,0.10793
6266.39616,0.10731
6264.46745,0.10865
6262.53873,0.11062
6260.61001,0.11260
6258.68130,0.11324
6256.75258,0.11306
6254.82387,0.11309
6252.89515,0.11408
6250.96644,0.11690
6249.03772,0.11956
6247.10901,0.11802
6245.18029,0.11387
6243.25158,0.11284
6241.32286,0.11363
6239.39415,0.11192
6237.46543,0.10990
6235.53672,0.10967
6233.60800,0.11141
6231.67928,0.11516
6229.75057,0.11722
6227.82185,0.11567
6225.89314,0.11268
6223.96442,0.10832
6222.03571,0.10444
6220.10699,0.10464
6218.17828,0.10857
6216.24956,0.11135
6214.32085,0.10945
6212.39213,0.10538
6210.46342,0.10452
6208.53470,0.10799
6206.60598,0.11111
6204.67727,0.10904
6202.74855,0.10318
6200.81984,0.09915
6198.89112,0.09940
6196.96241,0.10010
6195.03369,0.09894
6193.10498,0.10001
6191.17626,0.10338
6189.24755,0.10314
6187.31883,0.09965
6185.39012,0.09854
6183.46140,0.10038
6181.53269,0.10113
6179.60397,0.10031
6177.67525,0.09978
6175.74654,0.09965
6173.81782,0.10001
6171.88911,0.10053
6169.96039,0.09865
6168.03168,0.09447
6166.10296,0.09277
6164.17425,0.09527
6162.24553,0.09778
6160.31682,0.09755
6158.38810,0.09642
6156.45939,0.09639
6154.53067,0.09708
6152.60196,0.09900
6150.67324,0.10103
6148.74452,0.09994
6146.81581,0.09727
6144.88709,0.09508
6142.95838,0.09276
6141.02966,0.09246
6139.10095,0.09452
6137.17223,0.09413
6135.24352,0.08997
6133.31480,0.08647
6131.38609,0.08656
6129.45737,0.08837
6127.52866,0.08953
6125.59994,0.09019
6123.67122,0.08871
6121.74251,0.08361
6119.81379,0.07930
6117.88508,0.07995
6115.95636,0.08267
6114.02765,0.08440
6112.09893,0.08741
6110.17022,0.09360
6108.24150,0.09840
6106.31279,0.09680
6104.38407,0.09185
6102.45536,0.08865
6100.52664,0.08543
6098.59793,0.08149
6096.66921,0.07926
6094.74049,0.07588
6092.81178,0.06911
6090.88306,0.06472
6088.95435,0.06622
6087.02563,0.06859
6085.09692,0.06879
6083.16820,0.06928
6081.23949,0.06974
6079.31077,0.06882
6077.38206,0.06843
6075.45334,0.06857
6073.52463,0.06717
6071.59591,0.06595
6069.66720,0.06528
6067.73848,0.06289
6065.80976,0.06101
6063.88105,0.06149
6061.95233,0.06254
6060.02362,0.06399
6058.09490,0.06568
6056.16619,0.06505
6054.23747,0.06191
6052.30876,0.05975
6050.38004,0.06006
6048.45133,0.06190
6046.52261,0.06208
6044.59390,0.05804
6042.66518,0.05247
6040.73647,0.04882
6038.80775,0.04781
6036.87903,0.04871
6034.95032,0.05022
6033.02160,0.05268
6031.09289,0.05528
6029.16417,0.05474
6027.23546,0.05161
6025.30674,0.04910
6023.37803,0.04655
6021.44931,0.04522
6019.52060,0.04600
6017.59188,0.04571
6015.66317,0.04264
6013.73445,0.03875
6011.80573,0.03792
6009.87702,0.04048
6007.94830,0.04329
6006.01959,0.04499
6004.09087,0.04471
6002.16216,0.04280
6000.23344,0.04161
5998.30473,0.04318
5996.37601,0.04566
5994.44730,0.04546
5992.51858,0.04240
5990.58987,0.03990
5988.66115,0.03920
5986.73244,0.03872
5984.80372,0.03790
5982.87500,0.03861
5980.94629,0.04219
5979.01757,0.04679
5977.08886,0.04949
5975.16014,0.05020
5973.23143,0.04963
5971.30271,0.04800
5969.37400,0.04734
5967.44528,0.04923
5965.51657,0.05100
5963.58785,0.05121
5961.65914,0.05224
5959.73042,0.05461
5957.80171,0.05643
5955.87299,0.05622
5953.94427,0.05473
5952.01556,0.05461
5950.08684,0.05573
5948.15813,0.05660
5946.22941,0.05703
5944.30070,0.05535
5942.37198,0.05155
5940.44327,0.04970
5938.51455,0.05052
5936.58584,0.05107
5934.65712,0.05005
5932.72841,0.04881
5930.79969,0.04903
5928.87097,0.04956
5926.94226,0.04938
5925.01354,0.04880
5923.08483,0.04771
5921.15611,0.04800
5919.22740,0.04975
5917.29868,0.04970
5915.36997,0.04867
5913.44125,0.05134
5911.51254,0.05651
5909.58382,0.05925
5907.65511,0.05890
5905.72639,0.05777
5903.79768,0.05628
5901.86896,0.05532
5899.94024,0.05526
5898.01153,0.05543
5896.08281,0.05692
5894.15410,0.05968
5892.22538,0.06087
5890.29667,0.05989
5888.36795,0.05853
5886.43924,0.05796
5884.51052,0.05904
5882.58181,0.06082
5880.65309,0.06138
5878.72438,0.06162
5876.79566,0.06246
5874.86695,0.06388
5872.93823,0.06613
5871.00951,0.06752
5869.08080,0.06693
5867.15208,0.06681
5865.22337,0.06881
5863.29465,0.07083
5861.36594,0.07054
5859.43722,0.06984
5857.50851,0.07255
5855.57979,0.07830
5853.65108,0.08227
5851.72236,0.08150
5849.79365,0.07898
5847.86493,0.07982
5845.93622,0.08301
5844.00750,0.08366
5842.07878,0.08174
5840.15007,0.07967
5838.22135,0.07721
5836.29264,0.07511
5834.36392,0.07519
5832.43521,0.07798
5830.50649,0.08268
5828.57778,0.08661
5826.64906,0.08676
5824.72035,0.08458
5822.79163,0.08335
5820.86292,0.08355
5818.93420,0.08389
5817.00548,0.08368
5815.07677,0.08344
5813.14805,0.08362
5811.21934,0.08351
5809.29062,0.08293
5807.36191,0.08218
5805.43319,0.08052
5803.50448,0.07881
5801.57576,0.07946
5799.64705,0.08086
5797.71833,0.08118
5795.78962,0.08182
5793.86090,0.08266
5791.93219,0.08309
5790.00347,0.08254
5788.07475,0.07963
5786.14604,0.07641
5784.21732,0.07669
5782.28861,0.07937
5780.35989,0.08072
5778.43118,0.08018
5776.50246,0.07816
5774.57375,0.07537
5772.64503,0.07458
5770.71632,0.07591
5768.78760,0.07633
5766.85889,0.07539
5764.93017,0.07461
5763.00146,0.07395
5761.07274,0.07382
5759.14402,0.07555
5757.21531,0.07673
5755.28659,0.07571
5753.35788,0.07517
5751.42916,0.07654
5749.50045,0.07929
5747.57173,0.08313
5745.64302,0.08679
5743.71430,0.08796
5741.78559,0.08651
5739.85687,0.08617
5737.92816,0.08858
5735.99944,0.09147
5734.07072,0.09289
5732.14201,0.09342
5730.21329,0.09466
5728.28458,0.09535
5726.35586,0.09411
5724.42715,0.09325
5722.49843,0.09414
5720.56972,0.09576
5718.64100,0.09781
5716.71229,0.09995
5714.78357,0.10065
5712.85486,0.10031
5710.92614,0.10028
5708.99743,0.10051
5707.06871,0.10075
5705.13999,0.10017
5703.21128,0.09900
5701.28256,0.09961
5699.35385,0.10126
5697.42513,0.10158
5695.49642,0.10161
5693.56770,0.10197
5691.63899,0.10107
5689.71027,0.09954
5687.78156,0.09944
5685.85284,0.10015
5683.92413,0.10001
5681.99541,0.09914
5680.06670,0.09762
5678.13798,0.09569
5676.20926,0.09495
5674.28055,0.09502
5672.35183,0.09361
5670.42312,0.09206
5668.49440,0.09331
5666.56569,0.09530
5664.63697,0.09429
5662.70826,0.09202
5660.77954,0.09170
5658.85083,0.09284
5656.92211,0.09487
5654.99340,0.09778
5653.06468,0.09918
5651.13597,0.09820
5649.20725,0.09773
5647.27853,0.09960
5645.34982,0.10152
5643.42110,0.10080
5641.49239,0.09939
5639.56367,0.09971
5637.63496,0.09985
5635.70624,0.09962
5633.77753,0.10143
5631.84881,0.10405
5629.92010,0.10441
5627.99138,0.10395
5626.06267,0.10575
5624.13395,0.10828
5622.20523,0.10922
5620.27652,0.10992
5618.34780,0.11075
5616.41909,0.11057
5614.49037,0.11036
5612.56166,0.11075
5610.63294,0.11067
5608.70423,0.10996
5606.77551,0.10876
5604.84680,0.10841
5602.91808,0.11041
5600.98937,0.11197
5599.06065,0.11064
5597.13194,0.10905
5595.20322,0.10924
5593.27450,0.10972
5591.34579,0.10972
5589.41707,0.11028
5587.48836,0.11108
5585.55964,0.11137
5583.63093,0.11196
5581.70221,0.11260
5579.77350,0.11173
5577.84478,0.11067
5575.91607,0.11108
5573.98735,0.11106
5572.05864,0.10997
5570.12992,0.10999
5568.20121,0.11151
5566.27249,0.11305
5564.34377,0.11375
5562.41506,0.11366
5560.48634,0.11300
5558.55763,0.11130
5556.62891,0.10910
5554.70020,0.10897
5552.77148,0.11072
5550.84277,0.11149
5548.91405,0.11110
5546.98534,0.11045
5545.05662,0.10932
5543.12791,0.10912
5541.19919,0.11097
5539.27047,0.11264
5537.34176,0.11234
5535.41304,0.11103
5533.48433,0.10965
5531.55561,0.10830
5529.62690,0.10724
5527.69818,0.10679
5525.76947,0.10651
5523.84075,0.10708
5521.91204,0.10957
5519.98332,0.11097
5518.05461,0.10933
5516.12589,0.10798
5514.19718,0.10862
5512.26846,0.10964
5510.33974,0.11110
5508.41103,0.11259
5506.48231,0.11167
5504.55360,0.10936
5502.62488,0.10824
5500.69617,0.10862
5498.76745,0.10970
5496.83874,0.10999
5494.91002,0.10941
5492.98131,0.10910
5491.05259,0.10899
5489.12388,0.10878
5487.19516,0.10880
5485.26645,0.10920
5483.33773,0.10940
5481.40901,0.10910
5479.48030,0.10882
5477.55158,0.10928
5475.62287,0.11042
5473.69415,0.11103
5471.76544,0.11104
5469.83672,0.11131
5467.90801,0.11166
5465.97929,0.11148
5464.05058,0.11018
5462.12186,0.10837
5460.19315,0.10768
5458.26443,0.10825
5456.33572,0.10986
5454.40700,0.11237
5452.47828,0.11371
5450.54957,0.11303
5448.62085,0.11214
5446.69214,0.11217
5444.76342,0.11194
5442.83471,0.11108
5440.90599,0.11176
5438.97728,0.11368
5437.04856,0.11404
5435.11985,0.11321
5433.19113,0.11247
5431.26242,0.11155
5429.33370,0.11101
5427.40498,0.11209
5425.47627,0.11412
5423.54755,0.11568
5421.61884,0.11630
5419.69012,0.11547
5417.76141,0.11317
5415.83269,0.11155
5413.90398,0.11164
5411.97526,0.11097
5410.04655,0.10979
5408.11783,0.11026
5406.18912,0.11115
5404.26040,0.11142
5402.33169,0.11186
5400.40297,0.11317
5398.47425,0.11482
5396.54554,0.11506
5394.61682,0.11319
5392.68811,0.11141
5390.75939,0.11207
5388.83068,0.11446
5386.90196,0.11685
5384.97325,0.11863
5383.04453,0.11873
5381.11582,0.11650
5379.18710,0.11335
5377.25839,0.11144
5375.32967,0.11141
5373.40096,0.11221
5371.47224,0.11358
5369.54352,0.11541
5367.61481,0.11734
5365.68609,0.11898
5363.75738,0.11900
5361.82866,0.11770
5359.89995,0.11683
5357.97123,0.11614
5356.04252,0.11518
5354.11380,0.11457
5352.18509,0.11446
5350.25637,0.11485
5348.32766,0.11578
5346.39894,0.11660
5344.47022,0.11668
5342.54151,0.11654
5340.61279,0.11625
5338.68408,0.11483
5336.75536,0.11265
5334.82665,0.11072
5332.89793,0.10986
5330.96922,0.11120
5329.04050,0.11413
5327.11179,0.11676
5325.18307,0.11726
5323.25436,0.11572
5321.32564,0.11412
5319.39693,0.11366
5317.46821,0.11378
5315.53949,0.11359
5313.61078,0.11321
5311.68206,0.11301
5309.75335,0.11314
5307.82463,0.11351
5305.89592,0.11292
5303.96720,0.11116
5302.03849,0.10970
5300.10977,0.10939
5298.18106,0.11049
5296.25234,0.11204
5294.32363,0.11186
5292.39491,0.11012
5290.46620,0.10909
5288.53748,0.10882
5286.60876,0.10774
5284.68005,0.10618
5282.75133,0.10526
5280.82262,0.10483
5278.89390,0.10407
5276.96519,0.10257
5275.03647,0.10137
5273.10776,0.10145
5271.17904,0.10152
5269.25033,0.10054
5267.32161,0.09969
5265.39290,0.09964
5263.46418,0.09957
5261.53547,0.09969
5259.60675,0.10050
5257.67803,0.10118
5255.74932,0.10184
5253.82060,0.10331
5251.89189,0.10459
5249.96317,0.10473
5248.03446,0.10515
5246.10574,0.10675
5244.17703,0.10777
5242.24831,0.10779
5240.31960,0.10831
5238.39088,0.11032
5236.46217,0.11313
5234.53345,0.11527
5232.60473,0.11630
5230.67602,0.11650
5228.74730,0.11640
5226.81859,0.11727
5224.88987,0.11905
5222.96116,0.11969
5221.03244,0.11937
5219.10373,0.12026
5217.17501,0.12152
5215.24630,0.12111
5213.31758,0.11991
5211.38887,0.11896
5209.46015,0.11813
5207.53144,0.11832
5205.60272,0.11985
5203.67400,0.12109
5201.74529,0.12124
5199.81657,0.12064
5197.88786,0.11998
5195.95914,0.12024
5194.03043,0.12076
5192.10171,0.12001
5190.17300,0.11848
5188.24428,0.11759
5186.31557,0.11714
5184.38685,0.11679
5182.45814,0.11716
5180.52942,0.11787
5178.60071,0.11801
5176.67199,0.11852
5174.74327,0.12008
5172.81456,0.12085
5170.88584,0.11989
5168.95713,0.11897
5167.02841,0.11958
5165.09970,0.12069
5163.17098,0.12042
5161.24227,0.11963
5159.31355,0.12012
5157.38484,0.12128
5155.45612,0.12112
5153.52741,0.11960
5151.59869,0.11874
5149.66997,0.11923
5147.74126,0.12041
5145.81254,0.12183
5143.88383,0.12258
5141.95511,0.12204
5140.02640,0.12096
5138.09768,0.12034
5136.16897,0.12046
5134.24025,0.12126
5132.31154,0.12250
5130.38282,0.12352
5128.45411,0.12391
5126.52539,0.12416
5124.59668,0.12475
5122.66796,0.12528
5120.73924,0.12514
5118.81053,0.12458
5116.88181,0.12417
5114.95310,0.12403
5113.02438,0.12382
5111.09567,0.12336
5109.16695,0.12335
5107.23824,0.12427
5105.30952,0.12470
5103.38081,0.12350
5101.45209,0.12210
5099.52338,0.12208
5097.59466,0.12357
5095.66595,0.12586
5093.73723,0.12734
5091.80851,0.12660
5089.87980,0.12459
5087.95108,0.12361
5086.02237,0.12380
5084.09365,0.12404
5082.16494,0.12393
5080.23622,0.12329
5078.30751,0.12249
5076.37879,0.12237
5074.45008,0.12266
5072.52136,0.12281
5070.59265,0.12370
5068.66393,0.12533
5066.73522,0.12580
5064.80650,0.12530
5062.87778,0.12546
5060.94907,0.12586
5059.02035,0.12584
5057.09164,0.12579
5055.16292,0.12604
5053.23421,0.12654
5051.30549,0.12646
5049.37678,0.12538
5047.44806,0.12450
5045.51935,0.12490
5043.59063,0.12585
5041.66192,0.12628
5039.73320,0.12662
5037.80448,0.12744
5035.87577,0.12783
5033.94705,0.12699
5032.01834,0.12582
5030.08962,0.12540
5028.16091,0.12519
5026.23219,0.12481
5024.30348,0.12464
5022.37476,0.12460
5020.44605,0.12451
5018.51733,0.12405
5016.58862,0.12346
5014.65990,0.12363
5012.73119,0.12451
5010.80247,0.12545
5008.87375,0.12566
5006.94504,0.12450
5005.01632,0.12294
5003.08761,0.12233
5001.15889,0.12228
4999.23018,0.12214
4997.30146,0.12199
4995.37275,0.12143
4993.44403,0.12126
4991.51532,0.12219
4989.58660,0.12255
4987.65789,0.12194
4985.72917,0.12211
4983.80046,0.12325
4981.87174,0.12389
4979.94302,0.12360
4978.01431,0.12259
4976.08559,0.12138
4974.15688,0.12118
4972.22816,0.12180
4970.29945,0.12190
4968.37073,0.12143
4966.44202,0.12098
4964.51330,0.12081
4962.58459,0.12104
4960.65587,0.12134
4958.72716,0.12135
4956.79844,0.12166
4954.86972,0.12221
4952.94101,0.12194
4951.01229,0.12121
4949.08358,0.12093
4947.15486,0.12108
4945.22615,0.12137
4943.29743,0.12189
4941.36872,0.12267
4939.44000,0.12324
4937.51129,0.12325
4935.58257,0.12247
4933.65386,0.12127
4931.72514,0.12076
4929.79643,0.12090
4927.86771,0.12084
4925.93899,0.12047
4924.01028,0.11992
4922.08156,0.11966
4920.15285,0.11961
4918.22413,0.11918
4916.29542,0.11871
4914.36670,0.11823
4912.43799,0.11727
4910.50927,0.11612
4908.58056,0.11514
4906.65184,0.11428
4904.72313,0.11363
4902.79441,0.11356
4900.86570,0.11390
4898.93698,0.11380
4897.00826,0.11295
4895.07955,0.11197
4893.15083,0.11150
4891.22212,0.11155
4889.29340,0.11192
4887.36469,0.11199
4885.43597,0.11109
4883.50726,0.10972
4881.57854,0.10896
4879.64983,0.10963
4877.72111,0.11115
4875.79240,0.11186
4873.86368,0.11140
4871.93497,0.11104
4870.00625,0.11134
4868.07753,0.11167
4866.14882,0.11153
4864.22010,0.11083
4862.29139,0.10946
4860.36267,0.10794
4858.43396,0.10735
4856.50524,0.10749
4854.57653,0.10696
4852.64781,0.10578
4850.71910,0.10465
4848.79038,0.10339
4846.86167,0.10238
4844.93295,0.10264
4843.00423,0.10344
4841.07552,0.10352
4839.14680,0.10373
4837.21809,0.10487
4835.28937,0.10628
4833.36066,0.10705
4831.43194,0.10697
4829.50323,0.10685
4827.57451,0.10706
4825.64580,0.10695
4823.71708,0.10657
4821.78837,0.10669
4819.85965,0.10735
4817.93094,0.10800
4816.00222,0.10848
4814.07350,0.10854
4812.14479,0.10816
4810.21607,0.10807
4808.28736,0.10837
4806.35864,0.10853
4804.42993,0.10864
4802.50121,0.10904
4800.57250,0.10935
4798.64378,0.10904
4796.71507,0.10820
4794.78635,0.10746
4792.85764,0.10738
4790.92892,0.10731
4789.00021,0.10639
4787.07149,0.10533
4785.14277,0.10500
4783.21406,0.10514
4781.28534,0.10556
4779.35663,0.10590
4777.42791,0.10498
4775.49920,0.10321
4773.57048,0.10223
4771.64177,0.10190
4769.71305,0.10124
4767.78434,0.10029
4765.85562,0.09973
4763.92691,0.09961
4761.99819,0.09917
4760.06948,0.09827
4758.14076,0.09790
4756.21204,0.09808
4754.28333,0.09746
4752.35461,0.09557
4750.42590,0.09338
4748.49718,0.09208
4746.56847,0.09223
4744.63975,0.09269
4742.71104,0.09163
4740.78232,0.08906
4738.85361,0.08669
4736.92489,0.08521
4734.99618,0.08380
4733.06746,0.08216
4731.13874,0.08052
4729.21003,0.07879
4727.28131,0.07731
4725.35260,0.07603
4723.42388,0.07420
4721.49517,0.07230
4719.56645,0.07108
4717.63774,0.07013
4715.70902,0.06878
4713.78031,0.06658
4711.85159,0.06403
4709.92288,0.06217
4707.99416,0.06086
4706.06545,0.05945
4704.13673,0.05815
4702.20801,0.05751
4700.27930,0.05750
4698.35058,0.05739
4696.42187,0.05647
4694.49315,0.05498
4692.56444,0.05401
4690.63572,0.05388
4688.70701,0.05373
4686.77829,0.05312
4684.84958,0.05254
4682.92086,0.05222
4680.99215,0.05229
4679.06343,0.05314
4677.13472,0.05452
4675.20600,0.05581
4673.27728,0.05673
4671.34857,0.05694
4669.41985,0.05637
4667.49114,0.05558
4665.56242,0.05533
4663.63371,0.05601
4661.70499,0.05695
4659.77628,0.05728
4657.84756,0.05706
4655.91885,0.05668
4653.99013,0.05634
4652.06142,0.05609
4650.13270,0.05534
4648.20398,0.05437
4646.27527,0.05443
4644.34655,0.05518
4642.41784,0.05542
4640.48912,0.05538
4638.56041,0.05557
4636.63169,0.05562
4634.70298,0.05510
4632.77426,0.05444
4630.84555,0.05424
4628.91683,0.05460
4626.98812,0.05507
4625.05940,0.05555
4623.13069,0.05666
4621.20197,0.05830
4619.27325,0.05959
4617.34454,0.06066
4615.41582,0.06218
4613.48711,0.06419
4611.55839,0.06644
4609.62968,0.06817
4607.70096,0.06882
4605.77225,0.06923
4603.84353,0.06998
4601.91482,0.07073
4599.98610,0.07144
4598.05739,0.07194
4596.12867,0.07177
4594.19996,0.07098
4592.27124,0.07002
4590.34252,0.06932
4588.41381,0.06895
4586.48509,0.06835
4584.55638,0.06722
4582.62766,0.06612
4580.69895,0.06547
4578.77023,0.06521
4576.84152,0.06501
4574.91280,0.06474
4572.98409,0.06522
4571.05537,0.06664
4569.12666,0.06816
4567.19794,0.06938
4565.26923,0.07036
4563.34051,0.07132
4561.41179,0.07245
4559.48308,0.07389
4557.55436,0.07608
4555.62565,0.07855
4553.69693,0.08011
4551.76822,0.08119
4549.83950,0.08232
4547.91079,0.08309
4545.98207,0.08377
4544.05336,0.08436
4542.12464,0.08439
4540.19593,0.08398
4538.26721,0.08322
4536.33849,0.08232
4534.40978,0.08202
4532.48106,0.08258
4530.55235,0.08318
4528.62363,0.08307
4526.69492,0.08251
4524.76620,0.08250
4522.83749,0.08326
4520.90877,0.08403
4518.98006,0.08462
4517.05134,0.08490
4515.12263,0.08449
4513.19391,0.08387
4511.26520,0.08349
4509.33648,0.08328
4507.40776,0.08320
4505.47905,0.08284
4503.55033,0.08184
4501.62162,0.08082
4499.69290,0.08013
4497.76419,0.07901
4495.83547,0.07720
4493.90676,0.07550
4491.97804,0.07430
4490.04933,0.07343
4488.12061,0.07284
4486.19190,0.07213
4484.26318,0.07101
4482.33447,0.07011
4480.40575,0.06980
4478.47703,0.07007
4476.54832,0.07046
4474.61960,0.07050
4472.69089,0.07042
4470.76217,0.07027
4468.83346,0.06985
4466.90474,0.06966
4464.97603,0.07022
4463.04731,0.07114
4461.11860,0.07137
4459.18988,0.07040
4457.26117,0.06904
4455.33245,0.06803
4453.40373,0.06718
4451.47502,0.06656
4449.54630,0.06623
4447.61759,0.06533
4445.68887,0.06372
4443.76016,0.06225
4441.83144,0.06134
4439.90273,0.06090
4437.97401,0.06047
4436.04530,0.05954
4434.11658,0.05839
4432.18787,0.05791
4430.25915,0.05806
4428.33044,0.05779
4426.40172,0.05708
4424.47300,0.05672
4422.54429,0.05669
4420.61557,0.05673
4418.68686,0.05659
4416.75814,0.05604
4414.82943,0.05544
4412.90071,0.05501
4410.97200,0.05453
4409.04328,0.05420
4407.11457,0.05461
4405.18585,0.05549
4403.25714,0.05584
4401.32842,0.05559
4399.39971,0.05559
4397.47099,0.05586
4395.54227,0.05611
4393.61356,0.05680
4391.68484,0.05753
4389.75613,0.05745
4387.82741,0.05685
4385.89870,0.05640
4383.96998,0.05643
4382.04127,0.05676
4380.11255,0.05709
4378.18384,0.05717
4376.25512,0.05652
4374.32641,0.05521
4372.39769,0.05419
4370.46898,0.05399
4368.54026,0.05422
4366.61154,0.05463
4364.68283,0.05565
4362.75411,0.05703
4360.82540,0.05737
4358.89668,0.05644
4356.96797,0.05577
4355.03925,0.05614
4353.11054,0.05676
4351.18182,0.05688
4349.25311,0.05631
4347.32439,0.05577
4345.39568,0.05588
4343.46696,0.05612
4341.53824,0.05611
4339.60953,0.05627
4337.68081,0.05657
4335.75210,0.05651
4333.82338,0.05600
4331.89467,0.05533
4329.96595,0.05499
4328.03724,0.05528
4326.10852,0.05557
4324.17981,0.05521
4322.25109,0.05482
4320.32238,0.05518
4318.39366,0.05576
4316.46495,0.05587
4314.53623,0.05591
4312.60751,0.05625
4310.67880,0.05651
4308.75008,0.05661
4306.82137,0.05668
4304.89265,0.05649
4302.96394,0.05624
4301.03522,0.05634
4299.10651,0.05683
4297.17779,0.05722
4295.24908,0.05687
4293.32036,0.05627
4291.39165,0.05624
4289.46293,0.05647
4287.53422,0.05662
4285.60550,0.05658
4283.67678,0.05593
4281.74807,0.05509
4279.81935,0.05497
4277.89064,0.05564
4275.96192,0.05655
4274.03321,0.05710
4272.10449,0.05708
4270.17578,0.05674
4268.24706,0.05639
4266.31835,0.05637
4264.38963,0.05676
4262.46092,0.05716
4260.53220,0.05751
4258.60348,0.05808
4256.67477,0.05831
4254.74605,0.05773
4252.81734,0.05712
4250.88862,0.05712
4248.95991,0.05742
4247.03119,0.05762
4245.10248,0.05750
4243.17376,0.05720
4241.24505,0.05697
4239.31633,0.05681
4237.38762,0.05669
4235.45890,0.05661
4233.53019,0.05665
4231.60147,0.05684
4229.67275,0.05689
4227.74404,0.05685
4225.81532,0.05709
4223.88661,0.05735
4221.95789,0.05706
4220.02918,0.05660
4218.10046,0.05651
4216.17175,0.05670
4214.24303,0.05708
4212.31432,0.05746
4210.38560,0.05756
4208.45689,0.05723
4206.52817,0.05672
4204.59946,0.05659
4202.67074,0.05674
4200.74202,0.05670
4198.81331,0.05646
4196.88459,0.05636
4194.95588,0.05633
4193.02716,0.05610
4191.09845,0.05606
4189.16973,0.05659
4187.24102,0.05729
4185.31230,0.05769
4183.38359,0.05762
4181.45487,0.05714
4179.52616,0.05643
4177.59744,0.05609
4175.66873,0.05654
4173.74001,0.05728
4171.81129,0.05777
4169.88258,0.05788
4167.95386,0.05775
4166.02515,0.05764
4164.09643,0.05756
4162.16772,0.05747
4160.23900,0.05767
4158.31029,0.05820
4156.38157,0.05846
4154.45286,0.05823
4152.52414,0.05831
4150.59543,0.05882
4148.66671,0.05893
4146.73799,0.05875
4144.80928,0.05867
4142.88056,0.05846
4140.95185,0.05855
4139.02313,0.05913
4137.09442,0.05935
4135.16570,0.05888
4133.23699,0.05827
4131.30827,0.05802
4129.37956,0.05834
4127.45084,0.05900
4125.52213,0.05935
4123.59341,0.05921
4121.66470,0.05900
4119.73598,0.05879
4117.80726,0.05826
4115.87855,0.05769
4113.94983,0.05748
4112.02112,0.05729
4110.09240,0.05691
4108.16369,0.05674
4106.23497,0.05688
4104.30626,0.05708
4102.37754,0.05705
4100.44883,0.05692
4098.52011,0.05698
4096.59140,0.05708
4094.66268,0.05697
4092.73397,0.05689
4090.80525,0.05703
4088.87653,0.05698
4086.94782,0.05660
4085.01910,0.05635
4083.09039,0.05632
4081.16167,0.05644
4079.23296,0.05669
4077.30424,0.05706
4075.37553,0.05757
4073.44681,0.05795
4071.51810,0.05787
4069.58938,0.05751
4067.66067,0.05724
4065.73195,0.05691
4063.80323,0.05657
4061.87452,0.05688
4059.94580,0.05750
4058.01709,0.05775
4056.08837,0.05792
4054.15966,0.05798
4052.23094,0.05765
4050.30223,0.05740
4048.37351,0.05755
4046.44480,0.05774
4044.51608,0.05764
4042.58737,0.05749
4040.65865,0.05771
4038.72994,0.05821
4036.80122,0.05864
4034.87250,0.05891
4032.94379,0.05903
4031.01507,0.05907
4029.08636,0.05910
4027.15764,0.05922
4025.22893,0.05940
4023.30021,0.05943
4021.37150,0.05924
4019.44278,0.05912
4017.51407,0.05919
4015.58535,0.05935
4013.65664,0.05948
4011.72792,0.05936
4009.79921,0.05896
4007.87049,0.05862
4005.94177,0.05866
4004.01306,0.05891
4002.08434,0.05919
4000.15563,0.05969
3998.22691,0.06015
3996.29820,0.06015
3994.36948,0.05997
3992.44077,0.05973
3990.51205,0.05940
3988.58334,0.05930
3986.65462,0.05961
3984.72591,0.06006
3982.79719,0.06020
3980.86848,0.05986
3978.93976,0.05936
3977.01104,0.05908
3975.08233,0.05907
3973.15361,0.05931
3971.22490,0.05981
3969.29618,0.06032
3967.36747,0.06059
3965.43875,0.06069
3963.51004,0.06109
3961.58132,0.06185
3959.65261,0.06234
3957.72389,0.06214
3955.79518,0.06150
3953.86646,0.06092
3951.93774,0.06075
3950.00903,0.06088
3948.08031,0.06107
3946.15160,0.06113
3944.22288,0.06093
3942.29417,0.06058
3940.36545,0.06036
3938.43674,0.06030
3936.50802,0.06014
3934.57931,0.05984
3932.65059,0.05973
3930.72188,0.06003
3928.79316,0.06048
3926.86445,0.06071
3924.93573,0.06067
3923.00701,0.06047
3921.07830,0.06002
3919.14958,0.05963
3917.22087,0.05973
3915.29215,0.05992
3913.36344,0.05987
3911.43472,0.05972
3909.50601,0.05959
3907.57729,0.05951
3905.64858,0.05939
3903.71986,0.05926
3901.79115,0.05966
3899.86243,0.06027
3897.93372,0.06005
3896.00500,0.05924
3894.07628,0.05861
3892.14757,0.05852
3890.21885,0.05880
3888.29014,0.05893
3886.36142,0.05887
3884.43271,0.05895
3882.50399,0.05915
3880.57528,0.05928
3878.64656,0.05930
3876.71785,0.05915
3874.78913,0.05904
3872.86042,0.05917
3870.93170,0.05938
3869.00298,0.06004
3867.07427,0.06084
3865.14555,0.06126
3863.21684,0.06186
3861.28812,0.06255
3859.35941,0.06269
3857.43069,0.06244
3855.50198,0.06223
3853.57326,0.06301
3851.64455,0.06470
3849.71583,0.06564
3847.78712,0.06597
3845.85840,0.06600
3843.92969,0.06602
3842.00097,0.06627
3840.07225,0.06661
3838.14354,0.06674
3836.21482,0.06683
3834.28611,0.06722
3832.35739,0.06754
3830.42868,0.06736
3828.49996,0.06702
3826.57125,0.06707
3824.64253,0.06741
3822.71382,0.06763
3820.78510,0.06807
3818.85639,0.06857
3816.92767,0.06842
3814.99896,0.06784
3813.07024,0.06737
3811.14152,0.06702
3809.21281,0.06676
3807.28409,0.06690
3805.35538,0.06750
3803.42666,0.06809
3801.49795,0.06882
3799.56923,0.06915
3797.64052,0.06885
3795.71180,0.06894
3793.78309,0.06974
3791.85437,0.07082
3789.92566,0.07195
3787.99694,0.07279
3786.06823,0.07324
3784.13951,0.07370
3782.21079,0.07412
3780.28208,0.07423
3778.35336,0.07419
3776.42465,0.07408
3774.49593,0.07357
3772.56722,0.07252
3770.63850,0.07148
3768.70979,0.07122
3766.78107,0.07102
3764.85236,0.07013
3762.92364,0.06925
3760.99493,0.06878
3759.06621,0.06825
3757.13749,0.06743
3755.20878,0.06664
3753.28006,0.06585
3751.35135,0.06480
3749.42263,0.06400
3747.49392,0.06370
3745.56520,0.06347
3743.63649,0.06360
3741.70777,0.06411
3739.77906,0.06454
3737.85034,0.06485
3735.92163,0.06521
3733.99291,0.06599
3732.06420,0.06693
3730.13548,0.06740
3728.20676,0.06749
3726.27805,0.06752
3724.34933,0.06739
3722.42062,0.06677
3720.49190,0.06574
3718.56319,0.06471
3716.63447,0.06399
3714.70576,0.06352
3712.77704,0.06302
3710.84833,0.06254
3708.91961,0.06231
3706.99090,0.06202
3705.06218,0.06132
3703.13347,0.06029
3701.20475,0.05977
3699.27603,0.05977
3697.34732,0.05949
3695.41860,0.05910
3693.48989,0.05879
3691.56117,0.05825
3689.63246,0.05769
3687.70374,0.05777
3685.77503,0.05815
3683.84631,0.05836
3681.91760,0.05832
3679.98888,0.05805
3678.06017,0.05774
3676.13145,0.05798
3674.20273,0.05912
3672.27402,0.05960
3670.34530,0.05877
3668.41659,0.05798
3666.48787,0.05822
3664.55916,0.05855
3662.63044,0.05842
3660.70173,0.05830
3658.77301,0.05851
3656.84430,0.05868
3654.91558,0.05875
3652.98687,0.05860
3651.05815,0.05789
3649.12944,0.05769
3647.20072,0.05917
3645.27200,0.05998
3643.34329,0.05953
3641.41457,0.05897
3639.48586,0.05934
3637.55714,0.06025
3635.62843,0.06063
3633.69971,0.06054
3631.77100,0.06046
3629.84228,0.06040
3627.91357,0.06116
3625.98485,0.06255
3624.05614,0.06327
3622.12742,0.06312
3620.19871,0.06281
3618.26999,0.06344
3616.34127,0.06448
3614.41256,0.06484
3612.48384,0.06468
3610.55513,0.06441
3608.62641,0.06392
3606.69770,0.06324
3604.76898,0.06278
3602.84027,0.06252
3600.91155,0.06202
3598.98284,0.06117
3597.05412,0.06041
3595.12541,0.05990
3593.19669,0.05926
3591.26798,0.05848
3589.33926,0.05809
3587.41054,0.05847
3585.48183,0.05888
3583.55311,0.05878
3581.62440,0.05837
3579.69568,0.05791
3577.76697,0.05784
3575.83825,0.05807
3573.90954,0.05803
3571.98082,0.05784
3570.05211,0.05787
3568.12339,0.05778
3566.19468,0.05746
3564.26596,0.05763
3562.33724,0.05823
3560.40853,0.05863
3558.47981,0.05844
3556.55110,0.05786
3554.62238,0.05764
3552.69367,0.05795
3550.76495,0.05807
3548.83624,0.05777
3546.90752,0.05755
3544.97881,0.05776
3543.05009,0.05807
3541.12138,0.05801
3539.19266,0.05792
3537.26395,0.05824
3535.33523,0.05860
3533.40651,0.05865
3531.47780,0.05844
3529.54908,0.05810
3527.62037,0.05804
3525.69165,0.05820
3523.76294,0.05833
3521.83422,0.05863
3519.90551,0.05875
3517.97679,0.05857
3516.04808,0.05861
3514.11936,0.05883
3512.19065,0.05878
3510.26193,0.05860
3508.33322,0.05872
3506.40450,0.05903
3504.47578,0.05902
3502.54707,0.05855
3500.61835,0.05816
3498.68964,0.05818
3496.76092,0.05849
3494.83221,0.05884
3492.90349,0.05910
3490.97478,0.05943
3489.04606,0.05981
3487.11735,0.06003
3485.18863,0.06015
3483.25992,0.06018
3481.33120,0.06021
3479.40248,0.06040
3477.47377,0.06059
3475.54505,0.06067
3473.61634,0.06079
3471.68762,0.06113
3469.75891,0.06137
3467.83019,0.06131
3465.90148,0.06138
3463.97276,0.06186
3462.04405,0.06266
3460.11533,0.06346
3458.18662,0.06387
3456.25790,0.06388
3454.32919,0.06385
3452.40047,0.06420
3450.47175,0.06489
3448.54304,0.06543
3446.61432,0.06563
3444.68561,0.06584
3442.75689,0.06622
3440.82818,0.06649
3438.89946,0.06659
3436.97075,0.06677
3435.04203,0.06704
3433.11332,0.06744
3431.18460,0.06797
3429.25589,0.06857
3427.32717,0.06934
3425.39846,0.06984
3423.46974,0.06964
3421.54102,0.06944
3419.61231,0.06996
3417.68359,0.07055
3415.75488,0.07049
3413.82616,0.06998
3411.89745,0.06947
3409.96873,0.06939
3408.04002,0.06995
3406.11130,0.07040
3404.18259,0.07005
3402.25387,0.06943
3400.32516,0.06922
3398.39644,0.06915
3396.46773,0.06871
3394.53901,0.06815
3392.61029,0.06774
3390.68158,0.06718
3388.75286,0.06659
3386.82415,0.06617
3384.89543,0.06560
3382.96672,0.06498
3381.03800,0.06477
3379.10929,0.06485
3377.18057,0.06491
3375.25186,0.06475
3373.32314,0.06451
3371.39443,0.06448
3369.46571,0.06454
3367.53699,0.06466
3365.60828,0.06487
3363.67956,0.06484
3361.75085,0.06480
3359.82213,0.06503
3357.89342,0.06550
3355.96470,0.06600
3354.03599,0.06606
3352.10727,0.06545
3350.17856,0.06491
3348.24984,0.06510
3346.32113,0.06553
3344.39241,0.06568
3342.46370,0.06571
3340.53498,0.06548
3338.60626,0.06472
3336.67755,0.06392
3334.74883,0.06363
3332.82012,0.06348
3330.89140,0.06312
3328.96269,0.06275
3327.03397,0.06257
3325.10526,0.06257
3323.17654,0.06251
3321.24783,0.06226
3319.31911,0.06201
3317.39040,0.06169
3315.46168,0.06113
3313.53297,0.06062
3311.60425,0.06041
3309.67553,0.06058
3307.74682,0.06088
3305.81810,0.06088
3303.88939,0.06052
3301.96067,0.06019
3300.03196,0.06003
3298.10324,0.05974
3296.17453,0.05922
3294.24581,0.05893
3292.31710,0.05892
3290.38838,0.05877
3288.45967,0.05848
3286.53095,0.05836
3284.60223,0.05846
3282.67352,0.05875
3280.74480,0.05910
3278.81609,0.05929
3276.88737,0.05930
3274.95866,0.05910
3273.02994,0.05882
3271.10123,0.05887
3269.17251,0.05918
3267.24380,0.05937
3265.31508,0.05934
3263.38637,0.05907
3261.45765,0.05865
3259.52894,0.05851
3257.60022,0.05866
3255.67150,0.05865
3253.74279,0.05845
3251.81407,0.05839
3249.88536,0.05847
3247.95664,0.05846
3246.02793,0.05851
3244.09921,0.05873
3242.17050,0.05871
3240.24178,0.05829
3238.31307,0.05793
3236.38435,0.05803
3234.45564,0.05842
3232.52692,0.05874
3230.59821,0.05880
3228.66949,0.05844
3226.74077,0.05790
3224.81206,0.05778
3222.88334,0.05798
3220.95463,0.05805
3219.02591,0.05822
3217.09720,0.05857
3215.16848,0.05872
3213.23977,0.05856
3211.31105,0.05833
3209.38234,0.05827
3207.45362,0.05829
3205.52491,0.05842
3203.59619,0.05880
3201.66748,0.05906
3199.73876,0.05898
3197.81004,0.05891
3195.88133,0.05899
3193.95261,0.05902
3192.02390,0.05893
3190.09518,0.05878
3188.16647,0.05857
3186.23775,0.05845
3184.30904,0.05869
3182.38032,0.05892
3180.45161,0.05872
3178.52289,0.05839
3176.59418,0.05838
3174.66546,0.05853
3172.73674,0.05837
3170.80803,0.05794
3168.87931,0.05774
3166.95060,0.05797
3165.02188,0.05841
3163.09317,0.05872
3161.16445,0.05868
3159.23574,0.05853
3157.30702,0.05865
3155.37831,0.05888
3153.44959,0.05878
3151.52088,0.05869
3149.59216,0.05885
3147.66345,0.05880
3145.73473,0.05856
3143.80601,0.05869
3141.87730,0.05906
3139.94858,0.05911
3138.01987,0.05886
3136.09115,0.05864
3134.16244,0.05864
3132.23372,0.05884
3130.30501,0.05895
3128.37629,0.05882
3126.44758,0.05850
3124.51886,0.05817
3122.59015,0.05798
3120.66143,0.05787
3118.73272,0.05783
3116.80400,0.05800
3114.87528,0.05834
3112.94657,0.05868
3111.01785,0.05882
3109.08914,0.05873
3107.16042,0.05854
3105.23171,0.05852
3103.30299,0.05875
3101.37428,0.05887
3099.44556,0.05861
3097.51685,0.05830
3095.58813,0.05811
3093.65942,0.05796
3091.73070,0.05793
3089.80198,0.05782
3087.87327,0.05757
3085.94455,0.05759
3084.01584,0.05783
3082.08712,0.05795
3080.15841,0.05809
3078.22969,0.05832
3076.30098,0.05840
3074.37226,0.05842
3072.44355,0.05857
3070.51483,0.05858
3068.58612,0.05834
3066.65740,0.05836
3064.72869,0.05876
3062.79997,0.05903
3060.87125,0.05899
3058.94254,0.05896
3057.01382,0.05903
3055.08511,0.05905
3053.15639,0.05894
3051.22768,0.05865
3049.29896,0.05842
3047.37025,0.05845
3045.44153,0.05864
3043.51282,0.05897
3041.58410,0.05935
3039.65539,0.05947
3037.72667,0.05927
3035.79796,0.05894
3033.86924,0.05855
3031.94052,0.05839
3030.01181,0.05859
3028.08309,0.05883
3026.15438,0.05885
3024.22566,0.05858
3022.29695,0.05829
3020.36823,0.05841
3018.43952,0.05865
3016.51080,0.05865
3014.58209,0.05860
3012.65337,0.05868
3010.72466,0.05872
3008.79594,0.05866
3006.86723,0.05857
3004.93851,0.05847
3003.00979,0.05839
3001.08108,0.05834
2999.15236,0.05813
2997.22365,0.05782
2995.29493,0.05769
2993.36622,0.05763
2991.43750,0.05753
2989.50879,0.05748
2987.58007,0.05749
2985.65136,0.05755
2983.72264,0.05757
2981.79393,0.05732
2979.86521,0.05692
2977.93649,0.05684
2976.00778,0.05715
2974.07906,0.05760
2972.15035,0.05825
2970.22163,0.05916
2968.29292,0.06002
2966.36420,0.06066
2964.43549,0.06113
2962.50677,0.06141
2960.57806,0.06142
2958.64934,0.06124
2956.72063,0.06091
2954.79191,0.06060
2952.86320,0.06033
2950.93448,0.06010
2949.00576,0.06003
2947.07705,0.06014
2945.14833,0.06022
2943.21962,0.06026
2941.29090,0.06030
2939.36219,0.06023
2937.43347,0.06021
2935.50476,0.06051
2933.57604,0.06098
2931.64733,0.06129
2929.71861,0.06140
2927.78990,0.06136
2925.86118,0.06116
2923.93247,0.06068
2922.00375,0.06025
2920.07503,0.06014
2918.14632,0.06008
2916.21760,0.06002
2914.28889,0.06011
2912.36017,0.06043
2910.43146,0.06092
2908.50274,0.06122
2906.57403,0.06109
2904.64531,0.06077
2902.71660,0.06046
2900.78788,0.06026
2898.85917,0.06018
2896.93045,0.06020
2895.00173,0.06028
2893.07302,0.06027
2891.14430,0.06020
2889.21559,0.06023
2887.28687,0.06029
2885.35816,0.06028
2883.42944,0.06017
2881.50073,0.06001
2879.57201,0.06001
2877.64330,0.06042
2875.71458,0.06101
2873.78587,0.06130
2871.85715,0.06110
2869.92844,0.06072
2867.99972,0.06049
2866.07100,0.06043
2864.14229,0.06065
2862.21357,0.06102
2860.28486,0.06109
2858.35614,0.06092
2856.42743,0.06103
2854.49871,0.06141
2852.57000,0.06153
2850.64128,0.06132
2848.71257,0.06112
2846.78385,0.06098
2844.85514,0.06079
2842.92642,0.06066
2840.99771,0.06063
2839.06899,0.06071
2837.14027,0.06092
2835.21156,0.06109
2833.28284,0.06097
2831.35413,0.06055
2829.42541,0.06016
2827.49670,0.06008
2825.56798,0.06021
2823.63927,0.06037
2821.71055,0.06044
2819.78184,0.06047
2817.85312,0.06066
2815.92441,0.06078
2813.99569,0.06055
2812.06698,0.06043
2810.13826,0.06064
2808.20954,0.06067
2806.28083,0.06050
2804.35211,0.06040
2802.42340,0.06039
2800.49468,0.06050
2798.56597,0.06057
2796.63725,0.06048
2794.70854,0.06045
2792.77982,0.06061
2790.85111,0.06079
2788.92239,0.06090
2786.99368,0.06083
2785.06496,0.06069
2783.13624,0.06077
2781.20753,0.06105
2779.27881,0.06116
2777.35010,0.06104
2775.42138,0.06078
2773.49267,0.06032
2771.56395,0.05992
2769.63524,0.05999
2767.70652,0.06035
2765.77781,0.06068
2763.84909,0.06083
2761.92038,0.06076
2759.99166,0.06071
2758.06295,0.06085
2756.13423,0.06098
2754.20551,0.06100
2752.27680,0.06113
2750.34808,0.06149
2748.41937,0.06184
2746.49065,0.06183
2744.56194,0.06153
2742.63322,0.06136
2740.70451,0.06132
2738.77579,0.06117
2736.84708,0.06105
2734.91836,0.06112
2732.98965,0.06118
2731.06093,0.06102
2729.13222,0.06086
2727.20350,0.06097
2725.27478,0.06122
2723.34607,0.06139
2721.41735,0.06150
2719.48864,0.06154
2717.55992,0.06140
2715.63121,0.06126
2713.70249,0.06132
2711.77378,0.06148
2709.84506,0.06170
2707.91635,0.06204
2705.98763,0.06233
2704.05892,0.06238
2702.13020,0.06237
2700.20149,0.06257
2698.27277,0.06284
2696.34405,0.06302
2694.41534,0.06317
2692.48662,0.06334
2690.55791,0.06366
2688.62919,0.06405
2686.70048,0.06416
2684.77176,0.06411
2682.84305,0.06415
2680.91433,0.06419
2678.98562,0.06412
2677.05690,0.06396
2675.12819,0.06384
2673.19947,0.06387
2671.27075,0.06392
2669.34204,0.06367
2667.41332,0.06340
2665.48461,0.06357
2663.55589,0.06391
2661.62718,0.06401
2659.69846,0.06404
2657.76975,0.06425
2655.84103,0.06468
2653.91232,0.06522
2651.98360,0.06579
2650.05489,0.06629
2648.12617,0.06667
2646.19746,0.06713
2644.26874,0.06774
2642.34002,0.06821
2640.41131,0.06824
2638.48259,0.06781
2636.55388,0.06729
2634.62516,0.06695
2632.69645,0.06652
2630.76773,0.06579
2628.83902,0.06483
2626.91030,0.06389
2624.98159,0.06310
2623.05287,0.06246
2621.12416,0.06196
2619.19544,0.06162
2617.26673,0.06140
2615.33801,0.06127
2613.40929,0.06121
2611.48058,0.06121
2609.55186,0.06115
2607.62315,0.06109
2605.69443,0.06129
2603.76572,0.06165
2601.83700,0.06176
2599.90829,0.06157
2597.97957,0.06134
2596.05086,0.06116
2594.12214,0.06105
2592.19343,0.06110
2590.26471,0.06130
2588.33599,0.06156
2586.40728,0.06170
2584.47856,0.06168
2582.54985,0.06167
2580.62113,0.06165
2578.69242,0.06144
2576.76370,0.06117
2574.83499,0.06102
2572.90627,0.06109
2570.97756,0.06141
2569.04884,0.06196
2567.12013,0.06253
2565.19141,0.06304
2563.26270,0.06343
2561.33398,0.06354
2559.40526,0.06345
2557.47655,0.06337
2555.54783,0.06332
2553.61912,0.06335
2551.69040,0.06335
2549.76169,0.06312
2547.83297,0.06277
2545.90426,0.06255
2543.97554,0.06239
2542.04683,0.06203
2540.11811,0.06167
2538.18940,0.06151
2536.26068,0.06146
2534.33197,0.06143
2532.40325,0.06143
2530.47453,0.06139
2528.54582,0.06144
2526.61710,0.06156
2524.68839,0.06157
2522.75967,0.06155
2520.83096,0.06159
2518.90224,0.06171
2516.97353,0.06183
2515.04481,0.06173
2513.11610,0.06133
2511.18738,0.06107
2509.25867,0.06111
2507.32995,0.06111
2505.40124,0.06103
2503.47252,0.06101
2501.54380,0.06095
2499.61509,0.06089
2497.68637,0.06103
2495.75766,0.06117
2493.82894,0.06099
2491.90023,0.06054
2489.97151,0.06024
2488.04280,0.06033
2486.11408,0.06061
2484.18537,0.06083
2482.25665,0.06087
2480.32794,0.06073
2478.39922,0.06062
2476.47050,0.06061
2474.54179,0.06061
2472.61307,0.06066
2470.68436,0.06077
2468.75564,0.06089
2466.82693,0.06102
2464.89821,0.06111
2462.96950,0.06105
2461.04078,0.06100
2459.11207,0.06108
2457.18335,0.06112
2455.25464,0.06102
2453.32592,0.06098
2451.39721,0.06105
2449.46849,0.06112
2447.53977,0.06108
2445.61106,0.06091
2443.68234,0.06079
2441.75363,0.06088
2439.82491,0.06106
2437.89620,0.06117
2435.96748,0.06107
2434.03877,0.06082
2432.11005,0.06065
2430.18134,0.06063
2428.25262,0.06063
2426.32391,0.06068
2424.39519,0.06088
2422.46648,0.06102
2420.53776,0.06090
2418.60904,0.06066
2416.68033,0.06050
2414.75161,0.06050
2412.82290,0.06066
2410.89418,0.06082
2408.96547,0.06091
2407.03675,0.06100
2405.10804,0.06104
2403.17932,0.06106
2401.25061,0.06111
2399.32189,0.06091
2397.39318,0.06060
2395.46446,0.06066
2393.53574,0.06103
2391.60703,0.06135
2389.67831,0.06135
2387.74960,0.06120
2385.82088,0.06121
2383.89217,0.06130
2381.96345,0.06135
2380.03474,0.06154
2378.10602,0.06182
2376.17731,0.06203
2374.24859,0.06204
2372.31988,0.06163
2370.39116,0.06104
2368.46245,0.06091
2366.53373,0.06140
2364.60501,0.06191
2362.67630,0.06187
2360.74758,0.06172
2358.81887,0.06194
2356.89015,0.06199
2354.96144,0.06152
2353.03272,0.06102
2351.10401,0.06093
2349.17529,0.06107
2347.24658,0.06105
2345.31786,0.06090
2343.38915,0.06084
2341.46043,0.06082
2339.53172,0.06093
2337.60300,0.06128
2335.67428,0.06150
2333.74557,0.06128
2331.81685,0.06103
2329.88814,0.06111
2327.95942,0.06122
2326.03071,0.06120
2324.10199,0.06116
2322.17328,0.06097
2320.24456,0.06076
2318.31585,0.06077
2316.38713,0.06093
2314.45842,0.06108
2312.52970,0.06115
2310.60099,0.06119
2308.67227,0.06126
2306.74355,0.06135
2304.81484,0.06137
2302.88612,0.06139
2300.95741,0.06148
2299.02869,0.06139
2297.09998,0.06109
2295.17126,0.06089
2293.24255,0.06087
2291.31383,0.06089
2289.38512,0.06087
2287.45640,0.06075
2285.52769,0.06055
2283.59897,0.06056
2281.67025,0.06069
2279.74154,0.06074
2277.81282,0.06086
2275.88411,0.06100
2273.95539,0.06081
2272.02668,0.06037
2270.09796,0.06015
2268.16925,0.06036
2266.24053,0.06070
2264.31182,0.06082
2262.38310,0.06076
2260.45439,0.06073
2258.52567,0.06076
2256.59696,0.06072
2254.66824,0.06052
2252.73952,0.06043
2250.81081,0.06062
2248.88209,0.06080
2246.95338,0.06086
2245.02466,0.06088
2243.09595,0.06080
2241.16723,0.06070
2239.23852,0.06073
2237.30980,0.06082
2235.38109,0.06088
2233.45237,0.06093
2231.52366,0.06087
2229.59494,0.06061
2227.66623,0.06051
2225.73751,0.06079
2223.80879,0.06103
2221.88008,0.06095
2219.95136,0.06088
2218.02265,0.06098
2216.09393,0.06104
2214.16522,0.06106
2212.23650,0.06110
2210.30779,0.06113
2208.37907,0.06113
2206.45036,0.06112
2204.52164,0.06115
2202.59293,0.06118
2200.66421,0.06121
2198.73549,0.06134
2196.80678,0.06145
2194.87806,0.06139
2192.94935,0.06133
2191.02063,0.06139
2189.09192,0.06145
2187.16320,0.06131
2185.23449,0.06099
2183.30577,0.06083
2181.37706,0.06096
2179.44834,0.06112
2177.51963,0.06116
2175.59091,0.06111
2173.66220,0.06104
2171.73348,0.06095
2169.80476,0.06070
2167.87605,0.06050
2165.94733,0.06062
2164.01862,0.06087
2162.08990,0.06095
2160.16119,0.06088
2158.23247,0.06088
2156.30376,0.06106
2154.37504,0.06117
2152.44633,0.06112
2150.51761,0.06117
2148.58890,0.06132
2146.66018,0.06140
2144.73147,0.06150
2142.80275,0.06159
2140.87403,0.06151
2138.94532,0.06122
2137.01660,0.06082
2135.08789,0.06063
2133.15917,0.06076
2131.23046,0.06089
2129.30174,0.06081
2127.37303,0.06063
2125.44431,0.06058
2123.51560,0.06062
2121.58688,0.06064
2119.65817,0.06069
2117.72945,0.06071
2115.80074,0.06058
2113.87202,0.06049
2111.94330,0.06058
2110.01459,0.06065
2108.08587,0.06060
2106.15716,0.06051
2104.22844,0.06042
2102.29973,0.06032
2100.37101,0.06019
2098.44230,0.06005
2096.51358,0.05991
2094.58487,0.05975
2092.65615,0.05972
2090.72744,0.05988
2088.79872,0.06009
2086.87000,0.06020
2084.94129,0.06022
2083.01257,0.06019
2081.08386,0.06014
2079.15514,0.06019
2077.22643,0.06033
2075.29771,0.06044
2073.36900,0.06044
2071.44028,0.06031
2069.51157,0.06017
2067.58285,0.06015
2065.65414,0.06027
2063.72542,0.06041
2061.79671,0.06039
2059.86799,0.06017
2057.93927,0.05992
2056.01056,0.05992
2054.08184,0.06012
2052.15313,0.06022
2050.22441,0.06010
2048.29570,0.05994
2046.36698,0.05989
2044.43827,0.05981
2042.50955,0.05965
2040.58084,0.05962
2038.65212,0.05981
2036.72341,0.05999
2034.79469,0.06003
2032.86598,0.06014
2030.93726,0.06032
2029.00854,0.06033
2027.07983,0.06008
2025.15111,0.05977
2023.22240,0.05970
2021.29368,0.05987
2019.36497,0.05989
2017.43625,0.05966
2015.50754,0.05959
2013.57882,0.05981
2011.65011,0.06004
2009.72139,0.06009
2007.79268,0.06003
2005.86396,0.05991
2003.93524,0.05968
2002.00653,0.05944
2000.07781,0.05939
1998.14910,0.05958
1996.22038,0.05975
1994.29167,0.05975
1992.36295,0.05967
1990.43424,0.05974
1988.50552,0.05994
1986.57681,0.06006
1984.64809,0.06008
1982.71938,0.06003
1980.79066,0.05990
1978.86195,0.05972
1976.93323,0.05951
1975.00451,0.05936
1973.07580,0.05933
1971.14708,0.05933
1969.21837,0.05932
1967.28965,0.05934
1965.36094,0.05930
1963.43222,0.05922
1961.50351,0.05923
1959.57479,0.05930
1957.64608,0.05930
1955.71736,0.05923
1953.78865,0.05920
1951.85993,0.05917
1949.93122,0.05913
1948.00250,0.05899
1946.07378,0.05873
1944.14507,0.05860
1942.21635,0.05877
1940.28764,0.05901
1938.35892,0.05904
1936.43021,0.05890
1934.50149,0.05882
1932.57278,0.05879
1930.64406,0.05870
1928.71535,0.05858
1926.78663,0.05850
1924.85792,0.05836
1922.92920,0.05819
1921.00049,0.05824
1919.07177,0.05852
1917.14305,0.05867
1915.21434,0.05852
1913.28562,0.05831
1911.35691,0.05812
1909.42819,0.05793
1907.49948,0.05782
1905.57076,0.05782
1903.64205,0.05792
1901.71333,0.05806
1899.78462,0.05814
1897.85590,0.05806
1895.92719,0.05793
1893.99847,0.05791
1892.06975,0.05795
1890.14104,0.05800
1888.21232,0.05797
1886.28361,0.05788
1884.35489,0.05776
1882.42618,0.05761
1880.49746,0.05746
1878.56875,0.05734
1876.64003,0.05722
1874.71132,0.05711
1872.78260,0.05710
1870.85389,0.05708
1868.92517,0.05683
1866.99646,0.05657
1865.06774,0.05658
1863.13902,0.05672
1861.21031,0.05676
1859.28159,0.05664
1857.35288,0.05651
1855.42416,0.05644
1853.49545,0.05629
1851.56673,0.05605
1849.63802,0.05588
1847.70930,0.05578
1845.78059,0.05566
1843.85187,0.05552
1841.92316,0.05539
1839.99444,0.05517
1838.06573,0.05484
1836.13701,0.05454
1834.20829,0.05429
1832.27958,0.05394
1830.35086,0.05356
1828.42215,0.05333
1826.49343,0.05322
1824.56472,0.05308
1822.63600,0.05281
1820.70729,0.05243
1818.77857,0.05204
1816.84986,0.05158
1814.92114,0.05104
1812.99243,0.05049
1811.06371,0.04975
1809.13499,0.04889
1807.20628,0.04826
1805.27756,0.04766
1803.34885,0.04674
1801.42013,0.04550
1799.49142,0.04432
1797.56270,0.04360
1795.63399,0.04315
1793.70527,0.04266
1791.77656,0.04243
1789.84784,0.04316
1787.91913,0.04477
1785.99041,0.04729
1784.06170,0.05077
1782.13298,0.05493
1780.20426,0.05978
1778.27555,0.06503
1776.34683,0.07015
1774.41812,0.07513
1772.48940,0.08033
1770.56069,0.08476
1768.63197,0.08724
1766.70326,0.08816
1764.77454,0.08780
1762.84583,0.08614
1760.91711,0.08370
1758.98840,0.08150
1757.05968,0.07923
1755.13097,0.07696
1753.20225,0.07531
1751.27353,0.07395
1749.34482,0.07262
1747.41610,0.07151
1745.48739,0.07055
1743.55867,0.06966
1741.62996,0.06891
1739.70124,0.06838
1737.77253,0.06808
1735.84381,0.06778
1733.91510,0.06710
1731.98638,0.06652
1730.05767,0.06639
1728.12895,0.06628
1726.20024,0.06606
1724.27152,0.06573
1722.34280,0.06540
1720.41409,0.06521
1718.48537,0.06503
1716.55666,0.06479
1714.62794,0.06454
1712.69923,0.06434
1710.77051,0.06424
1708.84180,0.06406
1706.91308,0.06352
1704.98437,0.06294
1703.05565,0.06291
1701.12694,0.06312
1699.19822,0.06285
1697.26950,0.06222
1695.34079,0.06172
1693.41207,0.06150
1691.48336,0.06139
1689.55464,0.06138
1687.62593,0.06167
1685.69721,0.06212
1683.76850,0.06198
1681.83978,0.06139
1679.91107,0.06124
1677.98235,0.06136
1676.05364,0.06133
1674.12492,0.06105
1672.19621,0.06073
1670.26749,0.06031
1668.33877,0.05978
1666.41006,0.05952
1664.48134,0.05947
1662.55263,0.05953
1660.62391,0.05964
1658.69520,0.05968
1656.76648,0.05975
1654.83777,0.05985
1652.90905,0.05964
1650.98034,0.05949
1649.05162,0.05959
1647.12291,0.05961
1645.19419,0.05956
1643.26548,0.05952
1641.33676,0.05945
1639.40804,0.05943
1637.47933,0.05936
1635.55061,0.05893
1633.62190,0.05878
1631.69318,0.05901
1629.76447,0.05908
1627.83575,0.05881
1625.90704,0.05856
1623.97832,0.05856
1622.04961,0.05868
1620.12089,0.05877
1618.19218,0.05865
1616.26346,0.05810
1614.33474,0.05763
1612.40603,0.05746
1610.47731,0.05733
1608.54860,0.05732
1606.61988,0.05746
1604.69117,0.05762
1602.76245,0.05791
1600.83374,0.05829
1598.90502,0.05851
1596.97631,0.05862
1595.04759,0.05877
1593.11888,0.05893
1591.19016,0.05900
1589.26145,0.05904
1587.33273,0.05903
1585.40401,0.05878
1583.47530,0.05838
1581.54658,0.05816
1579.61787,0.05820
1577.68915,0.05808
1575.76044,0.05739
1573.83172,0.05694
1571.90301,0.05701
1569.97429,0.05695
1568.04558,0.05661
1566.11686,0.05636
1564.18815,0.05618
1562.25943,0.05600
1560.33072,0.05556
1558.40200,0.05471
1556.47328,0.05464
1554.54457,0.05489
1552.61585,0.05485
1550.68714,0.05446
1548.75842,0.05394
1546.82971,0.05372
1544.90099,0.05376
1542.97228,0.05358
1541.04356,0.05280
1539.11485,0.05216
1537.18613,0.05218
1535.25742,0.05216
1533.32870,0.05171
1531.39999,0.05099
1529.47127,0.05044
1527.54255,0.04985
1525.61384,0.04898
1523.68512,0.04794
1521.75641,0.04672
1519.82769,0.04553
1517.89898,0.04436
1515.97026,0.04295
1514.04155,0.04228
1512.11283,0.04315
1510.18412,0.04569
1508.25540,0.05154
1506.32669,0.06285
1504.39797,0.07003
1502.46925,0.07252
1500.54054,0.07361
1498.61182,0.07350
1496.68311,0.07230
1494.75439,0.07111
1492.82568,0.07018
1490.89696,0.06878
1488.96825,0.06706
1487.03953,0.06597
1485.11082,0.06517
1483.18210,0.06435
1481.25339,0.06359
1479.32467,0.06286
1477.39596,0.06219
1475.46724,0.06190
1473.53852,0.06190
1471.60981,0.06134
1469.68109,0.06052
1467.75238,0.06013
1465.82366,0.06019
1463.89495,0.06047
1461.96623,0.06063
1460.03752,0.06057
1458.10880,0.06024
1456.18009,0.05973
1454.25137,0.05933
1452.32266,0.05895
1450.39394,0.05868
1448.46523,0.05861
1446.53651,0.05855
1444.60779,0.05841
1442.67908,0.05828
1440.75036,0.05813
1438.82165,0.05781
1436.89293,0.05720
1434.96422,0.05679
1433.03550,0.05665
1431.10679,0.05631
1429.17807,0.05582
1427.24936,0.05561
1425.32064,0.05555
1423.39193,0.05534
1421.46321,0.05488
1419.53449,0.05405
1417.60578,0.05313
1415.67706,0.05279
1413.74835,0.05295
1411.81963,0.05346
1409.89092,0.05422
1407.96220,0.05505
1406.03349,0.05566
1404.10477,0.05592
1402.17606,0.05592
1400.24734,0.05568
1398.31863,0.05518
1396.38991,0.05467
1394.46120,0.05417
1392.53248,0.05353
1390.60376,0.05304
1388.67505,0.05301
1386.74633,0.05344
1384.81762,0.05384
1382.88890,0.05377
1380.96019,0.05332
1379.03147,0.05271
1377.10276,0.05201
1375.17404,0.05121
1373.24533,0.05049
1371.31661,0.04996
1369.38790,0.04956
1367.45918,0.04960
1365.53047,0.05052
1363.60175,0.05204
1361.67303,0.05299
1359.74432,0.05272
1357.81560,0.05190
1355.88689,0.05113
1353.95817,0.05059
1352.02946,0.05016
1350.10074,0.04974
1348.17203,0.04934
1346.24331,0.04886
1344.31460,0.04836
1342.38588,0.04803
1340.45717,0.04769
1338.52845,0.04701
1336.59974,0.04632
1334.67102,0.04589
1332.74230,0.04545
1330.81359,0.04483
1328.88487,0.04425
1326.95616,0.04381
1325.02744,0.04330
1323.09873,0.04266
1321.17001,0.04206
1319.24130,0.04129
1317.31258,0.04031
1315.38387,0.03951
1313.45515,0.03900
1311.52644,0.03864
1309.59772,0.03839
1307.66900,0.03802
1305.74029,0.03727
1303.81157,0.03638
1301.88286,0.03564
1299.95414,0.03502
1298.02543,0.03453
1296.09671,0.03432
1294.16800,0.03437
1292.23928,0.03455
1290.31057,0.03470
1288.38185,0.03456
1286.45314,0.03395
1284.52442,0.03302
1282.59571,0.03190
1280.66699,0.03049
1278.73827,0.02892
1276.80956,0.02750
1274.88084,0.02613
1272.95213,0.02440
1271.02341,0.02240
1269.09470,0.02074
1267.16598,0.01993
1265.23727,0.02043
1263.30855,0.02296
1261.37984,0.02837
1259.45112,0.03678
1257.52241,0.04746
1255.59369,0.05936
1253.66498,0.07114
1251.73626,0.08146
1249.80754,0.08977
1247.87883,0.09632
1245.95011,0.10141
1244.02140,0.10552
1242.09268,0.10951
1240.16397,0.11380
1238.23525,0.11815
1236.30654,0.12239
1234.37782,0.12651
1232.44911,0.13044
1230.52039,0.13400
1228.59168,0.13699
1226.66296,0.13914
1224.73424,0.14002
1222.80553,0.13919
1220.87681,0.13657
1218.94810,0.13219
1217.01938,0.12576
1215.09067,0.11711
1213.16195,0.10677
1211.23324,0.09565
1209.30452,0.08504
1207.37581,0.07713
1205.44709,0.07467
1203.51838,0.07962
1201.58966,0.09211
1199.66095,0.10993
1197.73223,0.12922
1195.80351,0.14625
1193.87480,0.15886
1191.94608,0.16588
1190.01737,0.16687
1188.08865,0.16219
1186.15994,0.15283
1184.23122,0.14096
1182.30251,0.12929
1180.37379,0.11942
1178.44508,0.11124
1176.51636,0.10350
1174.58765,0.09539
1172.65893,0.08834
1170.73022,0.08627
1168.80150,0.09377
1166.87278,0.11142
1164.94407,0.13294
1163.01535,0.14932
1161.08664,0.15573
1159.15792,0.15340
1157.22921,0.14661
1155.30049,0.13889
1153.37178,0.13173
1151.44306,0.12569
1149.51435,0.12100
1147.58563,0.11743
1145.65692,0.11457
1143.72820,0.11202
1141.79949,0.10960
1139.87077,0.10736
1137.94205,0.10527
1136.01334,0.10319
1134.08462,0.10107
1132.15591,0.09909
1130.22719,0.09735
1128.29848,0.09592
1126.36976,0.09490
1124.44105,0.09399
1122.51233,0.09283
1120.58362,0.09153
1118.65490,0.09034
1116.72619,0.08938
1114.79747,0.08874
1112.86875,0.08830
1110.94004,0.08796
1109.01132,0.08776
1107.08261,0.08766
1105.15389,0.08755
1103.22518,0.08769
1101.29646,0.08807
1099.36775,0.08806
1097.43903,0.08731
1095.51032,0.08582
1093.58160,0.08383
1091.65289,0.08188
1089.72417,0.08000
1087.79546,0.07818
1085.86674,0.07755
1083.93802,0.07987
1082.00931,0.08562
1080.08059,0.09205
1078.15188,0.09562
1076.22316,0.09576
1074.29445,0.09389
1072.36573,0.09143
1070.43702,0.08940
1068.50830,0.08791
1066.57959,0.08658
1064.65087,0.08536
1062.72216,0.08445
1060.79344,0.08386
1058.86473,0.08345
1056.93601,0.08313
1055.00729,0.08272
1053.07858,0.08195
1051.14986,0.08085
1049.22115,0.07986
1047.29243,0.07918
1045.36372,0.07874
1043.43500,0.07819
1041.50629,0.07745
1039.57757,0.07685
1037.64886,0.07618
1035.72014,0.07515
1033.79143,0.07396
1031.86271,0.07255
1029.93399,0.07085
1028.00528,0.06901
1026.07656,0.06704
1024.14785,0.06504
1022.21913,0.06317
1020.29042,0.06274
1018.36170,0.06751
1016.43299,0.07929
1014.50427,0.09200
1012.57556,0.09749
1010.64684,0.09601
1008.71813,0.09350
1006.78941,0.09286
1004.86070,0.09315
1002.93198,0.09302
1001.00326,0.09183
999.07455,0.08999
997.14583,0.08837
995.21712,0.08733
993.28840,0.08677
991.35969,0.08640
989.43097,0.08584
987.50226,0.08516
985.57354,0.08467
983.64483,0.08425
981.71611,0.08358
979.78740,0.08278
977.85868,0.08216
975.92997,0.08169
974.00125,0.08124
972.07253,0.08081
970.14382,0.08034
968.21510,0.07990
966.28639,0.07952
964.35767,0.07928
962.42896,0.07922
960.50024,0.07905
958.57153,0.07879
956.64281,0.07872
954.71410,0.07867
952.78538,0.07834
950.85667,0.07776
948.92795,0.07723
946.99924,0.07687
945.07052,0.07669
943.14180,0.07680
941.21309,0.07695
939.28437,0.07684
937.35566,0.07658
935.42694,0.07634
933.49823,0.07602
931.56951,0.07557
929.64080,0.07513
927.71208,0.07475
925.78337,0.07451
923.85465,0.07456
921.92594,0.07468
919.99722,0.07476
918.06850,0.07497
916.13979,0.07507
914.21107,0.07464
912.28236,0.07392
910.35364,0.07344
908.42493,0.07324
906.49621,0.07288
904.56750,0.07210
902.63878,0.07133
900.71007,0.07089
898.78135,0.07048
896.85264,0.06998
894.92392,0.06955
892.99521,0.06942
891.06649,0.06995
889.13777,0.07129
887.20906,0.07321
885.28034,0.07497
883.35163,0.07573
881.42291,0.07548
879.49420,0.07498
877.56548,0.07461
875.63677,0.07415
873.70805,0.07363
871.77934,0.07308
869.85062,0.07235
867.92191,0.07163
865.99319,0.07105
864.06448,0.07023
862.13576,0.06920
860.20704,0.06844
858.27833,0.06781
856.34961,0.06690
854.42090,0.06586
852.49218,0.06521
850.56347,0.06515
848.63475,0.06557
846.70604,0.06619
844.77732,0.06664
842.84861,0.06699
840.91989,0.06766
838.99118,0.06850
837.06246,0.06956
835.13375,0.07161
833.20503,0.07476
831.27631,0.07836
829.34760,0.08180
827.41888,0.08418
825.49017,0.08509
823.56145,0.08507
821.63274,0.08462
819.70402,0.08404
817.77531,0.08378
815.84659,0.08420
813.91788,0.08505
811.98916,0.08552
810.06045,0.08526
808.13173,0.08482
806.20301,0.08446
804.27430,0.08376
802.34558,0.08266
800.41687,0.08160
798.48815,0.08064
796.55944,0.07939
794.63072,0.07814
792.70201,0.07756
790.77329,0.07723
788.84458,0.07653
786.91586,0.07565
784.98715,0.07473
783.05843,0.07387
781.12972,0.07329
779.20100,0.07293
777.27228,0.07299
775.34357,0.07379
773.41485,0.07485
771.48614,0.07575
769.55742,0.07683
767.62871,0.07803
765.69999,0.07886
763.77128,0.07926
761.84256,0.07953
759.91385,0.08004
757.98513,0.08075
756.05642,0.08104
754.12770,0.08071
752.19899,0.08040
750.27027,0.08019
748.34155,0.07961
746.41284,0.07895
744.48412,0.07870
742.55541,0.07868
740.62669,0.07849
738.69798,0.07792
736.76926,0.07719
734.84055,0.07675
732.91183,0.07701
730.98312,0.07755
729.05440,0.07764
727.12569,0.07745
725.19697,0.07722
723.26825,0.07673
721.33954,0.07632
719.41082,0.07631
717.48211,0.07641
715.55339,0.07624
713.62468,0.07588
711.69596,0.07598
709.76725,0.07681
707.83853,0.07752
705.90982,0.07763
703.98110,0.07776
702.05239,0.07807
700.12367,0.07790
698.19496,0.07727
696.26624,0.07699
694.33752,0.07717
692.40881,0.07716
690.48009,0.07689
688.55138,0.07672
686.62266,0.07678
684.69395,0.07692
682.76523,0.07685
680.83652,0.07665
678.90780,0.07639
676.97909,0.07579
675.05037,0.07534
673.12166,0.07524
671.19294,0.07487
669.26423,0.07464
667.33551,0.07487
665.40679,0.07471
663.47808,0.07452
661.54936,0.07471
659.62065,0.07502
657.69193,0.07520
655.76322,0.07480
653.83450,0.07388
651.90579,0.07337
649.97707,0.07342
648.04836,0.07322
646.11964,0.07257
644.19093,0.07195
642.26221,0.07173
640.33350,0.07159
638.40478,0.07122
636.47606,0.07139
634.54735,0.07242
632.61863,0.07340
630.68992,0.07373
628.76120,0.07363
626.83249,0.07364
624.90377,0.07359
622.97506,0.07290
621.04634,0.07214
619.11763,0.07179
617.18891,0.07142
615.26020,0.07123
613.33148,0.07166
611.40276,0.07220
609.47405,0.07214
607.54533,0.07088
605.61662,0.06863
603.68790,0.06736
601.75919,0.06806
599.83047,0.06893
