7496.91655,0.07538
7494.98784,0.08145
7493.05912,0.09054
7491.13041,0.08730
7489.20169,0.07238
7487.27297,0.06858
7485.34426,0.07608
7483.41554,0.06616
7481.48683,0.03957
7479.55811,0.03469
7477.62940,0.05674
7475.70068,0.07973
7473.77197,0.09103
7471.84325,0.09450
7469.91454,0.09543
7467.98582,0.09704
7466.05711,0.10118
7464.12839,0.10854
7462.19968,0.10899
7460.27096,0.09519
7458.34224,0.07503
7456.41353,0.06010
7454.48481,0.04453
7452.55610,0.03710
7450.62738,0.04474
7448.69867,0.06069
7446.76995,0.07064
7444.84124,0.07897
7442.91252,0.08266
7440.98381,0.08286
7439.05509,0.08619
7437.12638,0.08824
7435.19766,0.08500
7433.26895,0.08626
7431.34023,0.09870
7429.41151,0.11035
7427.48280,0.09983
7425.55408,0.07877
7423.62537,0.07461
7421.69665,0.08830
7419.76794,0.09700
7417.83922,0.09368
7415.91051,0.08381
7413.98179,0.07528
7412.05308,0.07736
7410.12436,0.08613
7408.19565,0.08741
7406.26693,0.08613
7404.33821,0.08454
7402.40950,0.07588
7400.48078,0.06989
7398.55207,0.07933
7396.62335,0.09217
7394.69464,0.09257
7392.76592,0.08929
7390.83721,0.09539
7388.90849,0.09216
7386.97978,0.07100
7385.05106,0.05249
7383.12235,0.04835
7381.19363,0.05607
7379.26492,0.06975
7377.33620,0.07041
7375.40748,0.06634
7373.47877,0.06787
7371.55005,0.06533
7369.62134,0.05811
7367.69262,0.05282
7365.76391,0.05353
7363.83519,0.06794
7361.90648,0.08581
7359.97776,0.09916
7358.04905,0.10711
7356.12033,0.11562
7354.19162,0.10899
7352.26290,0.08857
7350.33419,0.06737
7348.40547,0.06698
7346.47675,0.08289
7344.54804,0.09738
7342.61932,0.10386
7340.69061,0.10437
7338.76189,0.10011
7336.83318,0.09285
7334.90446,0.08390
7332.97575,0.08312
7331.04703,0.09360
7329.11832,0.10351
7327.18960,0.09771
7325.26089,0.08135
7323.33217,0.06870
7321.40346,0.06362
7319.47474,0.06130
7317.54602,0.06486
7315.61731,0.07659
7313.68859,0.09209
7311.75988,0.10452
7309.83116,0.10741
7307.90245,0.09851
7305.97373,0.09332
7304.04502,0.09171
7302.11630,0.08165
7300.18759,0.07388
7298.25887,0.08305
7296.33016,0.08931
7294.40144,0.08273
7292.47272,0.08036
7290.54401,0.08203
7288.61529,0.07992
7286.68658,0.08439
7284.75786,0.09112
7282.82915,0.08417
7280.90043,0.07604
7278.97172,0.08496
7277.04300,0.10166
7275.11429,0.10790
7273.18557,0.09946
7271.25686,0.08193
7269.32814,0.05825
7267.39943,0.03978
7265.47071,0.04133
7263.54199,0.06167
7261.61328,0.07939
7259.68456,0.08015
7257.75585,0.07082
7255.82713,0.07244
7253.89842,0.08474
7251.96970,0.09369
7250.04099,0.09499
7248.11227,0.08793
7246.18356,0.07689
7244.25484,0.07037
7242.32613,0.07334
7240.39741,0.08857
7238.46870,0.10454
7236.53998,0.10267
7234.61126,0.09126
7232.68255,0.09841
7230.75383,0.11921
7228.82512,0.13001
7226.89640,0.12997
7224.96769,0.12237
7223.03897,0.10518
7221.11026,0.08777
7219.18154,0.08372
7217.25283,0.09498
7215.32411,0.10820
7213.39540,0.11062
7211.46668,0.09984
7209.53796,0.09022
7207.60925,0.09391
7205.68053,0.10217
7203.75182,0.10213
7201.82310,0.09875
7199.89439,0.09592
7197.96567,0.09189
7196.03696,0.08817
7194.10824,0.08576
7192.17953,0.08302
7190.25081,0.07755
7188.32210,0.07017
7186.39338,0.07232
7184.46467,0.08131
7182.53595,0.08869
7180.60723,0.08962
7178.67852,0.08852
7176.74980,0.09687
7174.82109,0.11310
7172.89237,0.11134
7170.96366,0.08589
7169.03494,0.07066
7167.10623,0.08708
7165.17751,0.10436
7163.24880,0.09577
7161.32008,0.07768
7159.39137,0.07283
7157.46265,0.07604
7155.53394,0.08083
7153.60522,0.08487
7151.67650,0.08481
7149.74779,0.07799
7147.81907,0.06927
7145.89036,0.06599
7143.96164,0.06988
7142.03293,0.07455
7140.10421,0.07419
7138.17550,0.07229
7136.24678,0.07275
7134.31807,0.06982
7132.38935,0.06986
7130.46064,0.07469
7128.53192,0.07659
7126.60321,0.07568
7124.67449,0.07462
7122.74577,0.07441
7120.81706,0.07229
7118.88834,0.06534
7116.95963,0.06636
7115.03091,0.07984
7113.10220,0.09337
7111.17348,0.09691
7109.24477,0.08959
7107.31605,0.08317
7105.38734,0.09178
7103.45862,0.10278
7101.52991,0.10497
7099.60119,0.10357
7097.67247,0.10050
7095.74376,0.09337
7093.81504,0.08806
7091.88633,0.09183
7089.95761,0.09683
7088.02890,0.09322
7086.10018,0.08577
7084.17147,0.07805
7082.24275,0.07579
7080.31404,0.08619
7078.38532,0.09974
7076.45661,0.10634
7074.52789,0.11102
7072.59918,0.11738
7070.67046,0.11861
7068.74174,0.11036
7066.81303,0.09993
7064.88431,0.09130
7062.95560,0.08504
7061.02688,0.08224
7059.09817,0.07695
7057.16945,0.07091
7055.24074,0.07560
7053.31202,0.08635
7051.38331,0.09245
7049.45459,0.09578
7047.52588,0.10046
7045.59716,0.10340
7043.66845,0.10341
7041.73973,0.10169
7039.81101,0.09748
7037.88230,0.09031
7035.95358,0.08671
7034.02487,0.09073
7032.09615,0.09467
7030.16744,0.09342
7028.23872,0.09142
7026.31001,0.08677
7024.38129,0.07665
7022.45258,0.07132
7020.52386,0.08130
7018.59515,0.09522
7016.66643,0.09772
7014.73771,0.08957
7012.80900,0.08359
7010.88028,0.08615
7008.95157,0.09013
7007.02285,0.09151
7005.09414,0.09493
7003.16542,0.10057
7001.23671,0.10541
6999.30799,0.10620
6997.37928,0.10406
6995.45056,0.10068
6993.52185,0.09829
6991.59313,0.10003
6989.66442,0.10735
6987.73570,0.11177
6985.80698,0.10572
6983.87827,0.09406
6981.94955,0.08620
6980.02084,0.08127
6978.09212,0.07328
6976.16341,0.07014
6974.23469,0.08406
6972.30598,0.10210
6970.37726,0.10822
6968.44855,0.10574
6966.51983,0.10132
6964.59112,0.09347
6962.66240,0.08163
6960.73369,0.07550
6958.80497,0.07939
6956.87625,0.08217
6954.94754,0.07976
6953.01882,0.07904
6951.09011,0.08385
6949.16139,0.09385
6947.23268,0.10322
6945.30396,0.10272
6943.37525,0.09820
6941.44653,0.09990
6939.51782,0.10576
6937.58910,0.10826
6935.66039,0.10370
6933.73167,0.09304
6931.80296,0.08645
6929.87424,0.09219
6927.94552,0.10418
6926.01681,0.10812
6924.08809,0.10232
6922.15938,0.09911
6920.23066,0.10210
6918.30195,0.10262
6916.37323,0.10315
6914.44452,0.10627
6912.51580,0.10538
6910.58709,0.10458
6908.65837,0.10861
6906.72966,0.10965
6904.80094,0.10472
6902.87222,0.09918
6900.94351,0.09701
6899.01479,0.09319
6897.08608,0.08578
6895.15736,0.08290
6893.22865,0.08582
6891.29993,0.09293
6889.37122,0.10554
6887.44250,0.11303
6885.51379,0.10896
6883.58507,0.10482
6881.65636,0.10710
6879.72764,0.10969
6877.79893,0.10845
6875.87021,0.10193
6873.94149,0.09543
6872.01278,0.09538
6870.08406,0.09628
6868.15535,0.09429
6866.22663,0.09754
6864.29792,0.10457
6862.36920,0.10717
6860.44049,0.10850
6858.51177,0.11484
6856.58306,0.11797
6854.65434,0.11259
6852.72563,0.10602
6850.79691,0.10042
6848.86820,0.09442
6846.93948,0.09405
6845.01076,0.09916
6843.08205,0.10095
6841.15333,0.09766
6839.22462,0.09781
6837.29590,0.09864
6835.36719,0.09513
6833.43847,0.09371
6831.50976,0.09731
6829.58104,0.09911
6827.65233,0.09846
6825.72361,0.09948
6823.79490,0.10032
6821.86618,0.09737
6819.93746,0.09570
6818.00875,0.09807
6816.08003,0.10013
6814.15132,0.10130
6812.22260,0.10385
6810.29389,0.10523
6808.36517,0.10674
6806.43646,0.11225
6804.50774,0.11523
6802.57903,0.10895
6800.65031,0.10244
6798.72160,0.10353
6796.79288,0.10632
6794.86417,0.10595
6792.93545,0.10463
6791.00673,0.10293
6789.07802,0.10221
6787.14930,0.10324
6785.22059,0.10558
6783.29187,0.10694
6781.36316,0.10674
6779.43444,0.10759
6777.50573,0.10848
6775.57701,0.10574
6773.64830,0.10247
6771.71958,0.10212
6769.79087,0.10062
6767.86215,0.09549
6765.93344,0.09053
6764.00472,0.08679
6762.07600,0.08514
6760.14729,0.08667
6758.21857,0.09105
6756.28986,0.09642
6754.36114,0.10174
6752.43243,0.10597
6750.50371,0.10777
6748.57500,0.10876
6746.64628,0.11192
6744.71757,0.11393
6742.78885,0.11100
6740.86014,0.10293
6738.93142,0.09553
6737.00271,0.09710
6735.07399,0.10368
6733.14527,0.10370
6731.21656,0.10042
6729.28784,0.10387
6727.35913,0.10963
6725.43041,0.11077
6723.50170,0.11138
6721.57298,0.11253
6719.64427,0.10919
6717.71555,0.10355
6715.78684,0.10335
6713.85812,0.10467
6711.92941,0.10187
6710.00069,0.09975
6708.07197,0.10179
6706.14326,0.10486
6704.21454,0.10440
6702.28583,0.10405
6700.35711,0.10959
6698.42840,0.11448
6696.49968,0.11308
6694.57097,0.10749
6692.64225,0.10097
6690.71354,0.09483
6688.78482,0.09079
6686.85611,0.09027
6684.92739,0.08962
6682.99868,0.08969
6681.06996,0.09715
6679.14124,0.10539
6677.21253,0.10293
6675.28381,0.09557
6673.35510,0.09599
6671.42638,0.10068
6669.49767,0.10165
6667.56895,0.10242
6665.64024,0.10630
6663.71152,0.10840
6661.78281,0.10735
6659.85409,0.10723
6657.92538,0.10800
6655.99666,0.10883
6654.06795,0.11117
6652.13923,0.11395
6650.21051,0.11515
6648.28180,0.11190
6646.35308,0.10905
6644.42437,0.11288
6642.49565,0.11783
6640.56694,0.11696
6638.63822,0.11069
6636.70951,0.10323
6634.78079,0.09948
6632.85208,0.10115
6630.92336,0.10616
6628.99465,0.10945
6627.06593,0.10827
6625.13722,0.10505
6623.20850,0.10499
6621.27978,0.10745
6619.35107,0.10753
6617.42235,0.10721
6615.49364,0.11015
6613.56492,0.11430
6611.63621,0.11686
6609.70749,0.11675
6607.77878,0.11576
6605.85006,0.11618
6603.92135,0.11572
6601.99263,0.11090
6600.06392,0.10550
6598.13520,0.10310
6596.20648,0.10226
6594.27777,0.10389
6592.34905,0.10988
6590.42034,0.11494
6588.49162,0.11197
6586.56291,0.10518
6584.63419,0.10258
6582.70548,0.10258
6580.77676,0.10407
6578.84805,0.10948
6576.91933,0.11509
6574.99062,0.11550
6573.06190,0.11167
6571.13319,0.10817
6569.20447,0.10632
6567.27575,0.10440
6565.34704,0.10290
6563.41832,0.10381
6561.48961,0.10731
6559.56089,0.11022
6557.63218,0.11246
6555.70346,0.11403
6553.77475,0.11206
6551.84603,0.11111
6549.91732,0.11371
6547.98860,0.11258
6546.05989,0.10718
6544.13117,0.10523
6542.20246,0.10942
6540.27374,0.11382
6538.34502,0.11324
6536.41631,0.10851
6534.48759,0.10528
6532.55888,0.10455
6530.63016,0.10402
6528.70145,0.10682
6526.77273,0.11115
6524.84402,0.11170
6522.91530,0.11089
6520.98659,0.11030
6519.05787,0.10985
6517.12916,0.10903
6515.20044,0.10707
6513.27172,0.10629
6511.34301,0.10525
6509.41429,0.10258
6507.48558,0.10443
6505.55686,0.11126
6503.62815,0.11572
6501.69943,0.11655
6499.77072,0.11786
6497.84200,0.11899
6495.91329,0.11996
6493.98457,0.12147
6492.05586,0.11746
6490.12714,0.10687
6488.19843,0.10127
6486.26971,0.10577
6484.34099,0.11350
6482.41228,0.11685
6480.48356,0.11457
6478.55485,0.11021
6476.62613,0.10527
6474.69742,0.10114
6472.76870,0.10078
6470.83999,0.10394
6468.91127,0.10771
6466.98256,0.11073
6465.05384,0.11545
6463.12513,0.12028
6461.19641,0.11952
6459.26770,0.11401
6457.33898,0.11104
6455.41026,0.11283
6453.48155,0.11521
6451.55283,0.11487
6449.62412,0.11059
6447.69540,0.10614
6445.76669,0.10512
6443.83797,0.10411
6441.90926,0.10246
6439.98054,0.10236
6438.05183,0.10364
6436.12311,0.10442
6434.19440,0.10283
6432.26568,0.10031
6430.33697,0.10098
6428.40825,0.10612
6426.47953,0.11301
6424.55082,0.11579
6422.62210,0.11318
6420.69339,0.10834
6418.76467,0.10500
6416.83596,0.10677
6414.90724,0.11190
6412.97853,0.11412
6411.04981,0.11380
6409.12110,0.11322
6407.19238,0.11183
6405.26367,0.11165
6403.33495,0.11376
6401.40623,0.11386
6399.47752,0.11329
6397.54880,0.11608
6395.62009,0.11884
6393.69137,0.11863
6391.76266,0.11656
6389.83394,0.11377
6387.90523,0.11075
6385.97651,0.10903
6384.04780,0.10963
6382.11908,0.10818
6380.19037,0.10464
6378.26165,0.10565
6376.33294,0.10988
6374.40422,0.11145
6372.47550,0.11175
6370.54679,0.11406
6368.61807,0.11532
6366.68936,0.11252
6364.76064,0.11064
6362.83193,0.11317
6360.90321,0.11433
6358.97450,0.11043
6357.04578,0.10582
6355.11707,0.10474
6353.18835,0.10846
6351.25964,0.11475
6349.33092,0.11992
6347.40221,0.12279
6345.47349,0.12228
6343.54477,0.11808
6341.61606,0.11288
6339.68734,0.10955
6337.75863,0.11008
6335.82991,0.11389
6333.90120,0.11697
6331.97248,0.11498
6330.04377,0.10899
6328.11505,0.10496
6326.18634,0.10619
6324.25762,0.10972
6322.32891,0.11086
6320.40019,0.10967
6318.47147,0.10819
6316.54276,0.10597
6314.61404,0.10604
6312.68533,0.11103
6310.75661,0.11587
6308.82790,0.11566
6306.89918,0.11237
6304.97047,0.10967
6303.04175,0.10838
6301.11304,0.10948
6299.18432,0.11266
6297.25561,0.11360
6295.32689,0.11272
6293.39818,0.11348
6291.46946,0.11471
6289.54074,0.11602
6287.61203,0.11797
6285.68331,0.11935
6283.75460,0.11910
6281.82588,0.11713
6279.89717,0.11553
6277.96845,0.11368
6276.03974,0.11154
6274.11102,0.11234
6272.18231,0.11410
6270.25359,0.11357
6268.32488,0.11093
6266.39616,0.10805
6264.46745,0.10873
6262.53873,0.11157
6260.61001,0.11164
6258.68130,0.11058
6256.75258,0.11170
6254.82387,0.11215
6252.89515,0.11009
6250.96644,0.10973
6249.03772,0.11140
6247.10901,0.11030
6245.18029,0.10731
6243.25158,0.10829
6241.32286,0.11274
6239.39415,0.11407
6237.46543,0.11226
6235.53672,0.11199
6233.60800,0.11278
6231.67928,0.11271
6229.75057,0.11222
6227.82185,0.11025
6225.89314,0.10680
6223.96442,0.10410
6222.03571,0.10280
6220.10699,0.10226
6218.17828,0.10138
6216.24956,0.10122
6214.32085,0.10505
6212.39213,0.10887
6210.46342,0.10636
6208.53470,0.10241
6206.60598,0.10416
6204.67727,0.10765
6202.74855,0.10769
6200.81984,0.10561
6198.89112,0.10473
6196.96241,0.10578
6195.03369,0.10506
6193.10498,0.10055
6191.17626,0.09670
6189.24755,0.09651
6187.31883,0.09770
6185.39012,0.09752
6183.46140,0.09711
6181.53269,0.09927
6179.60397,0.10195
6177.67525,0.10090
6175.74654,0.09726
6173.81782,0.09583
6171.88911,0.09794
6169.96039,0.09911
6168.03168,0.09802
6166.10296,0.09795
6164.17425,0.09770
6162.24553,0.09540
6160.31682,0.09446
6158.38810,0.09651
6156.45939,0.09919
6154.53067,0.10033
6152.60196,0.09961
6150.67324,0.09887
6148.74452,0.09957
6146.81581,0.10067
6144.88709,0.09994
6142.95838,0.09601
6141.02966,0.09064
6139.10095,0.08738
6137.17223,0.08929
6135.24352,0.09469
6133.31480,0.09613
6131.38609,0.09224
6129.45737,0.08934
6127.52866,0.08962
6125.59994,0.09107
6123.67122,0.09171
6121.74251,0.09137
6119.81379,0.09161
6117.88508,0.09291
6115.95636,0.09415
6114.02765,0.09429
6112.09893,0.09257
6110.17022,0.08878
6108.24150,0.08543
6106.31279,0.08496
6104.38407,0.08510
6102.45536,0.08446
6100.52664,0.08369
6098.59793,0.08124
6096.66921,0.07702
6094.74049,0.07338
6092.81178,0.07131
6090.88306,0.07211
6088.95435,0.07395
6087.02563,0.07341
6085.09692,0.07189
6083.16820,0.07108
6081.23949,0.07094
6079.31077,0.07181
6077.38206,0.07190
6075.45334,0.07024
6073.52463,0.06889
6071.59591,0.06852
6069.66720,0.06844
6067.73848,0.06784
6065.80976,0.06574
6063.88105,0.06513
6061.95233,0.06662
6060.02362,0.06612
6058.09490,0.06485
6056.16619,0.06586
6054.23747,0.06748
6052.30876,0.06689
6050.38004,0.06304
6048.45133,0.05718
6046.52261,0.05271
6044.59390,0.05325
6042.66518,0.05813
6040.73647,0.06214
6038.80775,0.06038
6036.87903,0.05366
6034.95032,0.04760
6033.02160,0.04589
6031.09289,0.04727
6029.16417,0.04825
6027.23546,0.04845
6025.30674,0.04931
6023.37803,0.05046
6021.44931,0.05105
6019.52060,0.04980
6017.59188,0.04736
6015.66317,0.04517
6013.73445,0.04274
6011.80573,0.04014
6009.87702,0.03997
6007.94830,0.04324
6006.01959,0.04527
6004.09087,0.04337
6002.16216,0.04110
6000.23344,0.04039
5998.30473,0.04136
5996.37601,0.04297
5994.44730,0.04212
5992.51858,0.03955
5990.58987,0.04001
5988.66115,0.04346
5986.73244,0.04561
5984.80372,0.04375
5982.87500,0.04017
5980.94629,0.04003
5979.01757,0.04404
5977.08886,0.04694
5975.16014,0.04764
5973.23143,0.04911
5971.30271,0.05184
5969.37400,0.05392
5967.44528,0.05461
5965.51657,0.05389
5963.58785,0.05231
5961.65914,0.05124
5959.73042,0.05128
5957.80171,0.05278
5955.87299,0.05575
5953.94427,0.05877
5952.01556,0.06077
5950.08684,0.05978
5948.15813,0.05590
5946.22941,0.05276
5944.30070,0.05129
5942.37198,0.05032
5940.44327,0.05028
5938.51455,0.05148
5936.58584,0.05355
5934.65712,0.05439
5932.72841,0.05251
5930.79969,0.04997
5928.87097,0.04902
5926.94226,0.04880
5925.01354,0.04839
5923.08483,0.04930
5921.15611,0.05161
5919.22740,0.05225
5917.29868,0.05114
5915.36997,0.05050
5913.44125,0.05111
5911.51254,0.05304
5909.58382,0.05557
5907.65511,0.05731
5905.72639,0.05815
5903.79768,0.05852
5901.86896,0.05820
5899.94024,0.05651
5898.01153,0.05426
5896.08281,0.05364
5894.15410,0.05486
5892.22538,0.05786
5890.29667,0.06183
5888.36795,0.06240
5886.43924,0.05949
5884.51052,0.05725
5882.58181,0.05729
5880.65309,0.06017
5878.72438,0.06486
5876.79566,0.06813
5874.86695,0.06962
5872.93823,0.07111
5871.00951,0.07292
5869.08080,0.07349
5867.15208,0.07245
5865.22337,0.07129
5863.29465,0.07081
5861.36594,0.07118
5859.43722,0.07215
5857.50851,0.07322
5855.57979,0.07501
5853.65108,0.07784
5851.72236,0.08034
5849.79365,0.08148
5847.86493,0.08220
5845.93622,0.08315
5844.00750,0.08324
5842.07878,0.08258
5840.15007,0.08383
5838.22135,0.08749
5836.29264,0.08939
5834.36392,0.08725
5832.43521,0.08428
5830.50649,0.08399
5828.57778,0.08531
5826.64906,0.08476
5824.72035,0.08207
5822.79163,0.07986
5820.86292,0.08017
5818.93420,0.08247
5817.00548,0.08454
5815.07677,0.08519
5813.14805,0.08449
5811.21934,0.08361
5809.29062,0.08359
5807.36191,0.08353
5805.43319,0.08259
5803.50448,0.08133
5801.57576,0.08132
5799.64705,0.08294
5797.71833,0.08404
5795.78962,0.08324
5793.86090,0.08211
5791.93219,0.08133
5790.00347,0.08014
5788.07475,0.07875
5786.14604,0.07806
5784.21732,0.07983
5782.28861,0.08317
5780.35989,0.08305
5778.43118,0.07940
5776.50246,0.07688
5774.57375,0.07640
5772.64503,0.07634
5770.71632,0.07698
5768.78760,0.07738
5766.85889,0.07509
5764.93017,0.07251
5763.00146,0.07330
5761.07274,0.07538
5759.14402,0.07625
5757.21531,0.07673
5755.28659,0.07746
5753.35788,0.07798
5751.42916,0.07844
5749.50045,0.07954
5747.57173,0.08209
5745.64302,0.08485
5743.71430,0.08483
5741.78559,0.08356
5739.85687,0.08410
5737.92816,0.08474
5735.99944,0.08538
5734.07072,0.08808
5732.14201,0.09087
5730.21329,0.09154
5728.28458,0.09151
5726.35586,0.09257
5724.42715,0.09450
5722.49843,0.09570
5720.56972,0.09591
5718.64100,0.09713
5716.71229,0.10010
5714.78357,0.10297
5712.85486,0.10356
5710.92614,0.10084
5708.99743,0.09667
5707.06871,0.09519
5705.13999,0.09822
5703.21128,0.10244
5701.28256,0.10348
5699.35385,0.10187
5697.42513,0.10123
5695.49642,0.10236
5693.56770,0.10374
5691.63899,0.10399
5689.71027,0.10268
5687.78156,0.10120
5685.85284,0.10033
5683.92413,0.09931
5681.99541,0.09881
5680.06670,0.09901
5678.13798,0.09851
5676.20926,0.09805
5674.28055,0.09836
5672.35183,0.09842
5670.42312,0.09830
5668.49440,0.09878
5666.56569,0.09981
5664.63697,0.09982
5662.70826,0.09715
5660.77954,0.09361
5658.85083,0.09292
5656.92211,0.09542
5654.99340,0.09710
5653.06468,0.09570
5651.13597,0.09507
5649.20725,0.09830
5647.27853,0.10183
5645.34982,0.10228
5643.42110,0.10108
5641.49239,0.09990
5639.56367,0.09872
5637.63496,0.09771
5635.70624,0.09745
5633.77753,0.09878
5631.84881,0.10167
5629.92010,0.10444
5627.99138,0.10637
5626.06267,0.10796
5624.13395,0.10863
5622.20523,0.10855
5620.27652,0.10997
5618.34780,0.11223
5616.41909,0.11277
5614.49037,0.11248
5612.56166,0.11259
5610.63294,0.11153
5608.70423,0.10994
5606.77551,0.10990
5604.84680,0.11001
5602.91808,0.10998
5600.98937,0.11198
5599.06065,0.11398
5597.13194,0.11373
5595.20322,0.11307
5593.27450,0.11253
5591.34579,0.11103
5589.41707,0.10918
5587.48836,0.10857
5585.55964,0.10966
5583.63093,0.11099
5581.70221,0.11160
5579.77350,0.11223
5577.84478,0.11244
5575.91607,0.11131
5573.98735,0.10958
5572.05864,0.10845
5570.12992,0.10883
5568.20121,0.10999
5566.27249,0.11011
5564.34377,0.10916
5562.41506,0.10824
5560.48634,0.10863
5558.55763,0.11024
5556.62891,0.11043
5554.70020,0.10866
5552.77148,0.10784
5550.84277,0.10894
5548.91405,0.10978
5546.98534,0.10965
5545.05662,0.11005
5543.12791,0.11096
5541.19919,0.11098
5539.27047,0.11022
5537.34176,0.10980
5535.41304,0.10975
5533.48433,0.10924
5531.55561,0.10827
5529.62690,0.10790
5527.69818,0.10926
5525.76947,0.11142
5523.84075,0.11250
5521.91204,0.11270
5519.98332,0.11325
5518.05461,0.11379
5516.12589,0.11329
5514.19718,0.11162
5512.26846,0.10986
5510.33974,0.10937
5508.41103,0.11010
5506.48231,0.11074
5504.55360,0.11053
5502.62488,0.10989
5500.69617,0.11006
5498.76745,0.11056
5496.83874,0.10919
5494.91002,0.10713
5492.98131,0.10799
5491.05259,0.11147
5489.12388,0.11337
5487.19516,0.11152
5485.26645,0.10842
5483.33773,0.10780
5481.40901,0.10972
5479.48030,0.11079
5477.55158,0.11000
5475.62287,0.10972
5473.69415,0.11043
5471.76544,0.11024
5469.83672,0.10915
5467.90801,0.10882
5465.97929,0.10888
5464.05058,0.10796
5462.12186,0.10764
5460.19315,0.10925
5458.26443,0.11106
5456.33572,0.11250
5454.40700,0.11373
5452.47828,0.11340
5450.54957,0.11218
5448.62085,0.11209
5446.69214,0.11244
5444.76342,0.11211
5442.83471,0.11226
5440.90599,0.11405
5438.97728,0.11509
5437.04856,0.11366
5435.11985,0.11276
5433.19113,0.11392
5431.26242,0.11549
5429.33370,0.11686
5427.40498,0.11691
5425.47627,0.11528
5423.54755,0.11370
5421.61884,0.11323
5419.69012,0.11358
5417.76141,0.11438
5415.83269,0.11451
5413.90398,0.11302
5411.97526,0.11193
5410.04655,0.11268
5408.11783,0.11377
5406.18912,0.11422
5404.26040,0.11402
5402.33169,0.11300
5400.40297,0.11183
5398.47425,0.11190
5396.54554,0.11301
5394.61682,0.11334
5392.68811,0.11349
5390.75939,0.11511
5388.83068,0.11640
5386.90196,0.11624
5384.97325,0.11607
5383.04453,0.11613
5381.11582,0.11628
5379.18710,0.11576
5377.25839,0.11403
5375.32967,0.11371
5373.40096,0.11547
5371.47224,0.11720
5369.54352,0.11775
5367.61481,0.11679
5365.68609,0.11524
5363.75738,0.11384
5361.82866,0.11319
5359.89995,0.11394
5357.97123,0.11499
5356.04252,0.11483
5354.11380,0.11422
5352.18509,0.11466
5350.25637,0.11523
5348.32766,0.11489
5346.39894,0.11384
5344.47022,0.11276
5342.54151,0.11245
5340.61279,0.11245
5338.68408,0.11240
5336.75536,0.11312
5334.82665,0.11422
5332.89793,0.11435
5330.96922,0.11401
5329.04050,0.11496
5327.11179,0.11599
5325.18307,0.11527
5323.25436,0.11492
5321.32564,0.11554
5319.39693,0.11540
5317.46821,0.11482
5315.53949,0.11470
5313.61078,0.11483
5311.68206,0.11442
5309.75335,0.11362
5307.82463,0.11420
5305.89592,0.11580
5303.96720,0.11589
5302.03849,0.11376
5300.10977,0.11154
5298.18106,0.11221
5296.25234,0.11438
5294.32363,0.11425
5292.39491,0.11226
5290.46620,0.11110
5288.53748,0.11074
5286.60876,0.10953
5284.68005,0.10785
5282.75133,0.10720
5280.82262,0.10673
5278.89390,0.10496
5276.96519,0.10296
5275.03647,0.10191
5273.10776,0.10158
5271.17904,0.10152
5269.25033,0.10111
5267.32161,0.09977
5265.39290,0.09761
5263.46418,0.09596
5261.53547,0.09662
5259.60675,0.09911
5257.67803,0.10133
5255.74932,0.10255
5253.82060,0.10374
5251.89189,0.10520
5249.96317,0.10639
5248.03446,0.10702
5246.10574,0.10732
5244.17703,0.10851
5242.24831,0.11083
5240.31960,0.11244
5238.39088,0.11270
5236.46217,0.11303
5234.53345,0.11395
5232.60473,0.11519
5230.67602,0.11719
5228.74730,0.11873
5226.81859,0.11837
5224.88987,0.11741
5222.96116,0.11754
5221.03244,0.11832
5219.10373,0.11845
5217.17501,0.11776
5215.24630,0.11797
5213.31758,0.11926
5211.38887,0.11984
5209.46015,0.11911
5207.53144,0.11836
5205.60272,0.11893
5203.67400,0.11974
5201.74529,0.11983
5199.81657,0.11995
5197.88786,0.12045
5195.95914,0.12064
5194.03043,0.11969
5192.10171,0.11841
5190.17300,0.11853
5188.24428,0.11949
5186.31557,0.11958
5184.38685,0.11893
5182.45814,0.11849
5180.52942,0.11857
5178.60071,0.11948
5176.67199,0.12065
5174.74327,0.12049
5172.81456,0.11902
5170.88584,0.11803
5168.95713,0.11824
5167.02841,0.11894
5165.09970,0.12029
5163.17098,0.12222
5161.24227,0.12318
5159.31355,0.12269
5157.38484,0.12158
5155.45612,0.12104
5153.52741,0.12150
5151.59869,0.12206
5149.66997,0.12264
5147.74126,0.12337
5145.81254,0.12347
5143.88383,0.12339
5141.95511,0.12390
5140.02640,0.12443
5138.09768,0.12470
5136.16897,0.12502
5134.24025,0.12516
5132.31154,0.12514
5130.38282,0.12510
5128.45411,0.12466
5126.52539,0.12415
5124.59668,0.12404
5122.66796,0.12426
5120.73924,0.12502
5118.81053,0.12588
5116.88181,0.12562
5114.95310,0.12453
5113.02438,0.12425
5111.09567,0.12492
5109.16695,0.12487
5107.23824,0.12424
5105.30952,0.12474
5103.38081,0.12613
5101.45209,0.12658
5099.52338,0.12556
5097.59466,0.12422
5095.66595,0.12372
5093.73723,0.12445
5091.80851,0.12524
5089.87980,0.12466
5087.95108,0.12360
5086.02237,0.12334
5084.09365,0.12424
5082.16494,0.12655
5080.23622,0.12852
5078.30751,0.12794
5076.37879,0.12586
5074.45008,0.12448
5072.52136,0.12453
5070.59265,0.12539
5068.66393,0.12557
5066.73522,0.12450
5064.80650,0.12372
5062.87778,0.12434
5060.94907,0.12511
5059.02035,0.12475
5057.09164,0.12403
5055.16292,0.12393
5053.23421,0.12401
5051.30549,0.12421
5049.37678,0.12491
5047.44806,0.12552
5045.51935,0.12605
5043.59063,0.12683
5041.66192,0.12749
5039.73320,0.12800
5037.80448,0.12776
5035.87577,0.12651
5033.94705,0.12514
5032.01834,0.12380
5030.08962,0.12290
5028.16091,0.12297
5026.23219,0.12342
5024.30348,0.12408
5022.37476,0.12517
5020.44605,0.12637
5018.51733,0.12700
5016.58862,0.12667
5014.65990,0.12588
5012.73119,0.12521
5010.80247,0.12467
5008.87375,0.12405
5006.94504,0.12329
5005.01632,0.12284
5003.08761,0.12311
5001.15889,0.12391
4999.23018,0.12462
4997.30146,0.12441
4995.37275,0.12378
4993.44403,0.12374
4991.51532,0.12361
4989.58660,0.12304
4987.65789,0.12253
4985.72917,0.12206
4983.80046,0.12168
4981.87174,0.12156
4979.94302,0.12168
4978.01431,0.12158
4976.08559,0.12124
4974.15688,0.12128
4972.22816,0.12129
4970.29945,0.12132
4968.37073,0.12210
4966.44202,0.12296
4964.51330,0.12302
4962.58459,0.12243
4960.65587,0.12204
4958.72716,0.12200
4956.79844,0.12129
4954.86972,0.12055
4952.94101,0.12139
4951.01229,0.12296
4949.08358,0.12342
4947.15486,0.12250
4945.22615,0.12154
4943.29743,0.12190
4941.36872,0.12327
4939.44000,0.12398
4937.51129,0.12356
4935.58257,0.12280
4933.65386,0.12213
4931.72514,0.12188
4929.79643,0.12182
4927.86771,0.12106
4925.93899,0.12022
4924.01028,0.12003
4922.08156,0.11977
4920.15285,0.11918
4918.22413,0.11856
4916.29542,0.11763
4914.36670,0.11648
4912.43799,0.11573
4910.50927,0.11576
4908.58056,0.11601
4906.65184,0.11549
4904.72313,0.11496
4902.79441,0.11529
4900.86570,0.11503
4898.93698,0.11339
4897.00826,0.11201
4895.07955,0.11168
4893.15083,0.11151
4891.22212,0.11141
4889.29340,0.11155
4887.36469,0.11212
4885.43597,0.11300
4883.50726,0.11310
4881.57854,0.11245
4879.64983,0.11203
4877.72111,0.11159
4875.79240,0.11058
4873.86368,0.10925
4871.93497,0.10865
4870.00625,0.10869
4868.07753,0.10821
4866.14882,0.10780
4864.22010,0.10794
4862.29139,0.10766
4860.36267,0.10751
4858.43396,0.10768
4856.50524,0.10700
4854.57653,0.10546
4852.64781,0.10404
4850.71910,0.10334
4848.79038,0.10337
4846.86167,0.10413
4844.93295,0.10499
4843.00423,0.10459
4841.07552,0.10323
4839.14680,0.10263
4837.21809,0.10315
4835.28937,0.10410
4833.36066,0.10547
4831.43194,0.10692
4829.50323,0.10736
4827.57451,0.10693
4825.64580,0.10671
4823.71708,0.10673
4821.78837,0.10686
4819.85965,0.10788
4817.93094,0.10941
4816.00222,0.10996
4814.07350,0.10982
4812.14479,0.10966
4810.21607,0.10917
4808.28736,0.10896
4806.35864,0.10952
4804.42993,0.11006
4802.50121,0.11007
4800.57250,0.10964
4798.64378,0.10896
4796.71507,0.10852
4794.78635,0.10841
4792.85764,0.10795
4790.92892,0.10727
4789.00021,0.10727
4787.07149,0.10757
4785.14277,0.10722
4783.21406,0.10631
4781.28534,0.10530
4779.35663,0.10470
4777.42791,0.10462
4775.49920,0.10456
4773.57048,0.10438
4771.64177,0.10383
4769.71305,0.10236
4767.78434,0.10074
4765.85562,0.10049
4763.92691,0.10121
4761.99819,0.10103
4760.06948,0.09983
4758.14076,0.09823
4756.21204,0.09643
4754.28333,0.09556
4752.35461,0.09563
4750.42590,0.09528
4748.49718,0.09444
4746.56847,0.09346
4744.63975,0.09210
4742.71104,0.09038
4740.78232,0.08840
4738.85361,0.08609
4736.92489,0.08406
4734.99618,0.08286
4733.06746,0.08165
4731.13874,0.08047
4729.21003,0.07996
4727.28131,0.07910
4725.35260,0.07721
4723.42388,0.07499
4721.49517,0.07278
4719.56645,0.07068
4717.63774,0.06872
4715.70902,0.06682
4713.78031,0.06530
4711.85159,0.06412
4709.92288,0.06264
4707.99416,0.06088
4706.06545,0.05932
4704.13673,0.05763
4702.20801,0.05604
4700.27930,0.05577
4698.35058,0.05667
4696.42187,0.05713
4694.49315,0.05641
4692.56444,0.05518
4690.63572,0.05452
4688.70701,0.05485
4686.77829,0.05571
4684.84958,0.05614
4682.92086,0.05571
4680.99215,0.05489
4679.06343,0.05404
4677.13472,0.05308
4675.20600,0.05247
4673.27728,0.05282
4671.34857,0.05379
4669.41985,0.05487
4667.49114,0.05569
4665.56242,0.05565
4663.63371,0.05535
4661.70499,0.05584
4659.77628,0.05662
4657.84756,0.05720
4655.91885,0.05747
4653.99013,0.05746
4652.06142,0.05760
4650.13270,0.05725
4648.20398,0.05602
4646.27527,0.05528
4644.34655,0.05554
4642.41784,0.05564
4640.48912,0.05498
4638.56041,0.05420
4636.63169,0.05409
4634.70298,0.05471
4632.77426,0.05537
4630.84555,0.05588
4628.91683,0.05631
4626.98812,0.05630
4625.05940,0.05635
4623.13069,0.05721
4621.20197,0.05858
4619.27325,0.06028
4617.34454,0.06241
4615.41582,0.06417
4613.48711,0.06527
4611.55839,0.06651
4609.62968,0.06800
4607.70096,0.06910
4605.77225,0.06950
4603.84353,0.06962
4601.91482,0.07026
4599.98610,0.07133
4598.05739,0.07206
4596.12867,0.07181
4594.19996,0.07035
4592.27124,0.06879
4590.34252,0.06800
4588.41381,0.06758
4586.48509,0.06749
4584.55638,0.06740
4582.62766,0.06664
4580.69895,0.06548
4578.77023,0.06443
4576.84152,0.06361
4574.91280,0.06348
4572.98409,0.06388
4571.05537,0.06410
4569.12666,0.06472
4567.19794,0.06619
4565.26923,0.06799
4563.34051,0.06974
4561.41179,0.07132
4559.48308,0.07311
4557.55436,0.07554
4555.62565,0.07805
4553.69693,0.07994
4551.76822,0.08137
4549.83950,0.08244
4547.91079,0.08287
4545.98207,0.08274
4544.05336,0.08243
4542.12464,0.08244
4540.19593,0.08282
4538.26721,0.08293
4536.33849,0.08272
4534.40978,0.08271
4532.48106,0.08292
4530.55235,0.08308
4528.62363,0.08345
4526.69492,0.08438
4524.76620,0.08501
4522.83749,0.08454
4520.90877,0.08397
4518.98006,0.08379
4517.05134,0.08315
4515.12263,0.08225
4513.19391,0.08206
4511.26520,0.08274
4509.33648,0.08361
4507.40776,0.08353
4505.47905,0.08222
4503.55033,0.08092
4501.62162,0.08054
4499.69290,0.08053
4497.76419,0.07965
4495.83547,0.07793
4493.90676,0.07682
4491.97804,0.07645
4490.04933,0.07545
4488.12061,0.07380
4486.19190,0.07248
4484.26318,0.07189
4482.33447,0.07190
4480.40575,0.07194
4478.47703,0.07171
4476.54832,0.07141
4474.61960,0.07118
4472.69089,0.07139
4470.76217,0.07179
4468.83346,0.07166
4466.90474,0.07118
4464.97603,0.07103
4463.04731,0.07117
4461.11860,0.07134
4459.18988,0.07157
4457.26117,0.07153
4455.33245,0.07057
4453.40373,0.06899
4451.47502,0.06764
4449.54630,0.06670
4447.61759,0.06596
4445.68887,0.06519
4443.76016,0.06395
4441.83144,0.06236
4439.90273,0.06122
4437.97401,0.06083
4436.04530,0.06055
4434.11658,0.05979
4432.18787,0.05904
4430.25915,0.05879
4428.33044,0.05861
4426.40172,0.05799
4424.47300,0.05715
4422.54429,0.05650
4420.61557,0.05622
4418.68686,0.05603
4416.75814,0.05566
4414.82943,0.05527
4412.90071,0.05488
4410.97200,0.05454
4409.04328,0.05476
4407.11457,0.05530
4405.18585,0.05563
4403.25714,0.05598
4401.32842,0.05634
4399.39971,0.05630
4397.47099,0.05603
4395.54227,0.05577
4393.61356,0.05560
4391.68484,0.05567
4389.75613,0.05620
4387.82741,0.05681
4385.89870,0.05673
4383.96998,0.05612
4382.04127,0.05570
4380.11255,0.05559
4378.18384,0.05563
4376.25512,0.05554
4374.32641,0.05519
4372.39769,0.05487
4370.46898,0.05485
4368.54026,0.05503
4366.61154,0.05533
4364.68283,0.05559
4362.75411,0.05569
4360.82540,0.05585
4358.89668,0.05610
4356.96797,0.05597
4355.03925,0.05550
4353.11054,0.05526
4351.18182,0.05528
4349.25311,0.05551
4347.32439,0.05609
4345.39568,0.05626
4343.46696,0.05568
4341.53824,0.05550
4339.60953,0.05594
4337.68081,0.05582
4335.75210,0.05508
4333.82338,0.05482
4331.89467,0.05519
4329.96595,0.05568
4328.03724,0.05591
4326.10852,0.05567
4324.17981,0.05530
4322.25109,0.05531
4320.32238,0.05557
4318.39366,0.05557
4316.46495,0.05522
4314.53623,0.05487
4312.60751,0.05484
4310.67880,0.05526
4308.75008,0.05570
4306.82137,0.05576
4304.89265,0.05586
4302.96394,0.05601
4301.03522,0.05600
4299.10651,0.05636
4297.17779,0.05702
4295.24908,0.05722
4293.32036,0.05709
4291.39165,0.05707
4289.46293,0.05696
4287.53422,0.05659
4285.60550,0.05620
4283.67678,0.05582
4281.74807,0.05566
4279.81935,0.05579
4277.89064,0.05579
4275.96192,0.05592
4274.03321,0.05645
4272.10449,0.05681
4270.17578,0.05682
4268.24706,0.05681
4266.31835,0.05685
4264.38963,0.05692
4262.46092,0.05716
4260.53220,0.05748
4258.60348,0.05761
4256.67477,0.05755
4254.74605,0.05748
4252.81734,0.05735
4250.88862,0.05723
4248.95991,0.05726
4247.03119,0.05741
4245.10248,0.05771
4243.17376,0.05811
4241.24505,0.05815
4239.31633,0.05773
4237.38762,0.05734
4235.45890,0.05712
4233.53019,0.05712
4231.60147,0.05751
4229.67275,0.05788
4227.74404,0.05781
4225.81532,0.05768
4223.88661,0.05765
4221.95789,0.05738
4220.02918,0.05702
4218.10046,0.05689
4216.17175,0.05699
4214.24303,0.05693
4212.31432,0.05653
4210.38560,0.05648
4208.45689,0.05732
4206.52817,0.05819
4204.59946,0.05817
4202.67074,0.05752
4200.74202,0.05694
4198.81331,0.05683
4196.88459,0.05702
4194.95588,0.05711
4193.02716,0.05723
4191.09845,0.05753
4189.16973,0.05767
4187.24102,0.05752
4185.31230,0.05739
4183.38359,0.05718
4181.45487,0.05672
4179.52616,0.05631
4177.59744,0.05619
4175.66873,0.05638
4173.74001,0.05674
4171.81129,0.05683
4169.88258,0.05660
4167.95386,0.05664
4166.02515,0.05716
4164.09643,0.05755
4162.16772,0.05766
4160.23900,0.05795
4158.31029,0.05818
4156.38157,0.05779
4154.45286,0.05709
4152.52414,0.05680
4150.59543,0.05722
4148.66671,0.05794
4146.73799,0.05821
4144.80928,0.05807
4142.88056,0.05801
4140.95185,0.05817
4139.02313,0.05850
4137.09442,0.05884
4135.16570,0.05901
4133.23699,0.05890
4131.30827,0.05855
4129.37956,0.05827
4127.45084,0.05819
4125.52213,0.05820
4123.59341,0.05825
4121.66470,0.05844
4119.73598,0.05848
4117.80726,0.05807
4115.87855,0.05758
4113.94983,0.05741
4112.02112,0.05758
4110.09240,0.05785
4108.16369,0.05805
4106.23497,0.05805
4104.30626,0.05785
4102.37754,0.05769
4100.44883,0.05759
4098.52011,0.05726
4096.59140,0.05685
4094.66268,0.05662
4092.73397,0.05656
4090.80525,0.05662
4088.87653,0.05692
4086.94782,0.05732
4085.01910,0.05739
4083.09039,0.05697
4081.16167,0.05645
4079.23296,0.05635
4077.30424,0.05651
4075.37553,0.05649
4073.44681,0.05661
4071.51810,0.05698
4069.58938,0.05708
4067.66067,0.05689
4065.73195,0.05681
4063.80323,0.05680
4061.87452,0.05651
4059.94580,0.05604
4058.01709,0.05586
4056.08837,0.05597
4054.15966,0.05612
4052.23094,0.05620
4050.30223,0.05637
4048.37351,0.05708
4046.44480,0.05802
4044.51608,0.05841
4042.58737,0.05844
4040.65865,0.05852
4038.72994,0.05853
4036.80122,0.05841
4034.87250,0.05859
4032.94379,0.05928
4031.01507,0.05992
4029.08636,0.06008
4027.15764,0.05998
4025.22893,0.05988
4023.30021,0.05993
4021.37150,0.06002
4019.44278,0.05992
4017.51407,0.05976
4015.58535,0.05977
4013.65664,0.05978
4011.72792,0.05968
4009.79921,0.05953
4007.87049,0.05925
4005.94177,0.05915
4004.01306,0.05966
4002.08434,0.06009
4000.15563,0.05970
3998.22691,0.05915
3996.29820,0.05913
3994.36948,0.05924
3992.44077,0.05930
3990.51205,0.05956
3988.58334,0.05984
3986.65462,0.05985
3984.72591,0.05969
3982.79719,0.05948
3980.86848,0.05927
3978.93976,0.05936
3977.01104,0.05979
3975.08233,0.06016
3973.15361,0.06031
3971.22490,0.06019
3969.29618,0.05996
3967.36747,0.06034
3965.43875,0.06123
3963.51004,0.06162
3961.58132,0.06133
3959.65261,0.06098
3957.72389,0.06082
3955.79518,0.06071
3953.86646,0.06043
3951.93774,0.05978
3950.00903,0.05926
3948.08031,0.05949
3946.15160,0.06004
3944.22288,0.06028
3942.29417,0.06045
3940.36545,0.06062
3938.43674,0.06052
3936.50802,0.06015
3934.57931,0.05982
3932.65059,0.05995
3930.72188,0.06036
3928.79316,0.06042
3926.86445,0.06034
3924.93573,0.06051
3923.00701,0.06059
3921.07830,0.06010
3919.14958,0.05935
3917.22087,0.05895
3915.29215,0.05922
3913.36344,0.05981
3911.43472,0.06007
3909.50601,0.05997
3907.57729,0.05981
3905.64858,0.05948
3903.71986,0.05887
3901.79115,0.05849
3899.86243,0.05863
3897.93372,0.05888
3896.00500,0.05894
3894.07628,0.05872
3892.14757,0.05841
3890.21885,0.05850
3888.29014,0.05855
3886.36142,0.05813
3884.43271,0.05828
3882.50399,0.05941
3880.57528,0.06008
3878.64656,0.05979
3876.71785,0.05936
3874.78913,0.05917
3872.86042,0.05939
3870.93170,0.06002
3869.00298,0.06057
3867.07427,0.06075
3865.14555,0.06123
3863.21684,0.06246
3861.28812,0.06360
3859.35941,0.06415
3857.43069,0.06419
3855.50198,0.06357
3853.57326,0.06308
3851.64455,0.06447
3849.71583,0.06579
3847.78712,0.06621
3845.85840,0.06643
3843.92969,0.06677
3842.00097,0.06708
3840.07225,0.06719
3838.14354,0.06713
3836.21482,0.06731
3834.28611,0.06772
3832.35739,0.06816
3830.42868,0.06858
3828.49996,0.06881
3826.57125,0.06872
3824.64253,0.06835
3822.71382,0.06775
3820.78510,0.06753
3818.85639,0.06790
3816.92767,0.06791
3814.99896,0.06760
3813.07024,0.06742
3811.14152,0.06715
3809.21281,0.06685
3807.28409,0.06719
3805.35538,0.06807
3803.42666,0.06839
3801.49795,0.06831
3799.56923,0.06870
3797.64052,0.06947
3795.71180,0.07029
3793.78309,0.07094
3791.85437,0.07142
3789.92566,0.07175
3787.99694,0.07198
3786.06823,0.07244
3784.13951,0.07320
3782.21079,0.07384
3780.28208,0.07427
3778.35336,0.07453
3776.42465,0.07430
3774.49593,0.07385
3772.56722,0.07353
3770.63850,0.07309
3768.70979,0.07232
3766.78107,0.07124
3764.85236,0.06989
3762.92364,0.06886
3760.99493,0.06814
3759.06621,0.06720
3757.13749,0.06635
3755.20878,0.06615
3753.28006,0.06635
3751.35135,0.06641
3749.42263,0.06588
3747.49392,0.06493
3745.56520,0.06424
3743.63649,0.06470
3741.70777,0.06556
3739.77906,0.06577
3737.85034,0.06564
3735.92163,0.06608
3733.99291,0.06702
3732.06420,0.06734
3730.13548,0.06745
3728.20676,0.06776
3726.27805,0.06784
3724.34933,0.06732
3722.42062,0.06662
3720.49190,0.06615
3718.56319,0.06579
3716.63447,0.06525
3714.70576,0.06437
3712.77704,0.06341
3710.84833,0.06277
3708.91961,0.06237
3706.99090,0.06194
3705.06218,0.06153
3703.13347,0.06116
3701.20475,0.06054
3699.27603,0.05961
3697.34732,0.05883
3695.41860,0.05834
3693.48989,0.05830
3691.56117,0.05887
3689.63246,0.05936
3687.70374,0.05890
3685.77503,0.05836
3683.84631,0.05809
3681.91760,0.05774
3679.98888,0.05752
3678.06017,0.05755
3676.13145,0.05779
3674.20273,0.05848
3672.27402,0.05894
3670.34530,0.05899
3668.41659,0.05891
3666.48787,0.05854
3664.55916,0.05801
3662.63044,0.05781
3660.70173,0.05818
3658.77301,0.05882
3656.84430,0.05944
3654.91558,0.05968
3652.98687,0.05932
3651.05815,0.05857
3649.12944,0.05778
3647.20072,0.05784
3645.27200,0.05857
3643.34329,0.05929
3641.41457,0.05970
3639.48586,0.05992
3637.55714,0.06039
3635.62843,0.06103
3633.69971,0.06129
3631.77100,0.06108
3629.84228,0.06116
3627.91357,0.06209
3625.98485,0.06282
3624.05614,0.06301
3622.12742,0.06311
3620.19871,0.06340
3618.26999,0.06395
3616.34127,0.06462
3614.41256,0.06533
3612.48384,0.06561
3610.55513,0.06533
3608.62641,0.06508
3606.69770,0.06471
3604.76898,0.06376
3602.84027,0.06249
3600.91155,0.06145
3598.98284,0.06090
3597.05412,0.06043
3595.12541,0.05973
3593.19669,0.05915
3591.26798,0.05871
3589.33926,0.05815
3587.41054,0.05797
3585.48183,0.05843
3583.55311,0.05847
3581.62440,0.05784
3579.69568,0.05724
3577.76697,0.05700
3575.83825,0.05701
3573.90954,0.05721
3571.98082,0.05757
3570.05211,0.05770
3568.12339,0.05733
3566.19468,0.05712
3564.26596,0.05744
3562.33724,0.05773
3560.40853,0.05790
3558.47981,0.05801
3556.55110,0.05799
3554.62238,0.05807
3552.69367,0.05824
3550.76495,0.05809
3548.83624,0.05760
3546.90752,0.05709
3544.97881,0.05704
3543.05009,0.05742
3541.12138,0.05760
3539.19266,0.05771
3537.26395,0.05805
3535.33523,0.05822
3533.40651,0.05810
3531.47780,0.05792
3529.54908,0.05776
3527.62037,0.05779
3525.69165,0.05805
3523.76294,0.05832
3521.83422,0.05848
3519.90551,0.05818
3517.97679,0.05741
3516.04808,0.05690
3514.11936,0.05694
3512.19065,0.05716
3510.26193,0.05746
3508.33322,0.05797
3506.40450,0.05841
3504.47578,0.05836
3502.54707,0.05801
3500.61835,0.05793
3498.68964,0.05835
3496.76092,0.05919
3494.83221,0.06017
3492.90349,0.06079
3490.97478,0.06102
3489.04606,0.06124
3487.11735,0.06130
3485.18863,0.06083
3483.25992,0.06014
3481.33120,0.06003
3479.40248,0.06054
3477.47377,0.06094
3475.54505,0.06113
3473.61634,0.06129
3471.68762,0.06131
3469.75891,0.06120
3467.83019,0.06129
3465.90148,0.06169
3463.97276,0.06211
3462.04405,0.06232
3460.11533,0.06239
3458.18662,0.06259
3456.25790,0.06298
3454.32919,0.06334
3452.40047,0.06372
3450.47175,0.06416
3448.54304,0.06468
3446.61432,0.06533
3444.68561,0.06587
3442.75689,0.06639
3440.82818,0.06694
3438.89946,0.06719
3436.97075,0.06726
3435.04203,0.06756
3433.11332,0.06814
3431.18460,0.06883
3429.25589,0.06948
3427.32717,0.06979
3425.39846,0.06976
3423.46974,0.06962
3421.54102,0.06972
3419.61231,0.07024
3417.68359,0.07077
3415.75488,0.07082
3413.82616,0.07058
3411.89745,0.07052
3409.96873,0.07068
3408.04002,0.07054
3406.11130,0.07003
3404.18259,0.06979
3402.25387,0.06988
3400.32516,0.06961
3398.39644,0.06896
3396.46773,0.06851
3394.53901,0.06823
3392.61029,0.06763
3390.68158,0.06692
3388.75286,0.06650
3386.82415,0.06621
3384.89543,0.06596
3382.96672,0.06592
3381.03800,0.06572
3379.10929,0.06527
3377.18057,0.06504
3375.25186,0.06497
3373.32314,0.06495
3371.39443,0.06497
3369.46571,0.06489
3367.53699,0.06499
3365.60828,0.06511
3363.67956,0.06467
3361.75085,0.06431
3359.82213,0.06473
3357.89342,0.06527
3355.96470,0.06540
3354.03599,0.06546
3352.10727,0.06562
3350.17856,0.06564
3348.24984,0.06537
3346.32113,0.06487
3344.39241,0.06456
3342.46370,0.06476
3340.53498,0.06512
3338.60626,0.06533
3336.67755,0.06531
3334.74883,0.06506
3332.82012,0.06495
3330.89140,0.06472
3328.96269,0.06404
3327.03397,0.06326
3325.10526,0.06281
3323.17654,0.06265
3321.24783,0.06239
3319.31911,0.06194
3317.39040,0.06167
3315.46168,0.06170
3313.53297,0.06182
3311.60425,0.06172
3309.67553,0.06138
3307.74682,0.06099
3305.81810,0.06055
3303.88939,0.06021
3301.96067,0.06017
3300.03196,0.06024
3298.10324,0.06038
3296.17453,0.06069
3294.24581,0.06073
3292.31710,0.06026
3290.38838,0.05980
3288.45967,0.05967
3286.53095,0.05962
3284.60223,0.05946
3282.67352,0.05929
3280.74480,0.05914
3278.81609,0.05910
3276.88737,0.05921
3274.95866,0.05924
3273.02994,0.05911
3271.10123,0.05896
3269.17251,0.05874
3267.24380,0.05847
3265.31508,0.05841
3263.38637,0.05853
3261.45765,0.05853
3259.52894,0.05822
3257.60022,0.05767
3255.67150,0.05755
3253.74279,0.05802
3251.81407,0.05844
3249.88536,0.05859
3247.95664,0.05874
3246.02793,0.05882
3244.09921,0.05858
3242.17050,0.05831
3240.24178,0.05846
3238.31307,0.05899
3236.38435,0.05934
3234.45564,0.05904
3232.52692,0.05865
3230.59821,0.05899
3228.66949,0.05958
3226.74077,0.05942
3224.81206,0.05852
3222.88334,0.05778
3220.95463,0.05791
3219.02591,0.05847
3217.09720,0.05875
3215.16848,0.05872
3213.23977,0.05845
3211.31105,0.05824
3209.38234,0.05837
3207.45362,0.05863
3205.52491,0.05900
3203.59619,0.05950
3201.66748,0.05969
3199.73876,0.05940
3197.81004,0.05901
3195.88133,0.05886
3193.95261,0.05894
3192.02390,0.05904
3190.09518,0.05904
3188.16647,0.05891
3186.23775,0.05876
3184.30904,0.05863
3182.38032,0.05859
3180.45161,0.05875
3178.52289,0.05892
3176.59418,0.05878
3174.66546,0.05875
3172.73674,0.05918
3170.80803,0.05964
3168.87931,0.05970
3166.95060,0.05952
3165.02188,0.05936
3163.09317,0.05923
3161.16445,0.05908
3159.23574,0.05878
3157.30702,0.05834
3155.37831,0.05797
3153.44959,0.05798
3151.52088,0.05836
3149.59216,0.05857
3147.66345,0.05838
3145.73473,0.05826
3143.80601,0.05850
3141.87730,0.05880
3139.94858,0.05872
3138.01987,0.05836
3136.09115,0.05821
3134.16244,0.05828
3132.23372,0.05840
3130.30501,0.05850
3128.37629,0.05859
3126.44758,0.05870
3124.51886,0.05874
3122.59015,0.05867
3120.66143,0.05841
3118.73272,0.05809
3116.80400,0.05827
3114.87528,0.05890
3112.94657,0.05940
3111.01785,0.05938
3109.08914,0.05881
3107.16042,0.05806
3105.23171,0.05774
3103.30299,0.05804
3101.37428,0.05840
3099.44556,0.05825
3097.51685,0.05778
3095.58813,0.05755
3093.65942,0.05782
3091.73070,0.05818
3089.80198,0.05827
3087.87327,0.05823
3085.94455,0.05812
3084.01584,0.05779
3082.08712,0.05740
3080.15841,0.05737
3078.22969,0.05766
3076.30098,0.05796
3074.37226,0.05822
3072.44355,0.05830
3070.51483,0.05815
3068.58612,0.05791
3066.65740,0.05778
3064.72869,0.05794
3062.79997,0.05824
3060.87125,0.05846
3058.94254,0.05847
3057.01382,0.05829
3055.08511,0.05824
3053.15639,0.05849
3051.22768,0.05874
3049.29896,0.05858
3047.37025,0.05823
3045.44153,0.05834
3043.51282,0.05895
3041.58410,0.05936
3039.65539,0.05926
3037.72667,0.05916
3035.79796,0.05947
3033.86924,0.05983
3031.94052,0.05996
3030.01181,0.05988
3028.08309,0.05969
3026.15438,0.05942
3024.22566,0.05914
3022.29695,0.05899
3020.36823,0.05894
3018.43952,0.05894
3016.51080,0.05900
3014.58209,0.05908
3012.65337,0.05896
3010.72466,0.05855
3008.79594,0.05810
3006.86723,0.05784
3004.93851,0.05782
3003.00979,0.05801
3001.08108,0.05823
2999.15236,0.05826
2997.22365,0.05820
2995.29493,0.05819
2993.36622,0.05810
2991.43750,0.05791
2989.50879,0.05767
2987.58007,0.05735
2985.65136,0.05713
2983.72264,0.05716
2981.79393,0.05726
2979.86521,0.05748
2977.93649,0.05795
2976.00778,0.05842
2974.07906,0.05879
2972.15035,0.05922
2970.22163,0.05980
2968.29292,0.06060
2966.36420,0.06132
2964.43549,0.06149
2962.50677,0.06120
2960.57806,0.06100
2958.64934,0.06117
2956.72063,0.06140
2954.79191,0.06131
2952.86320,0.06092
2950.93448,0.06049
2949.00576,0.06033
2947.07705,0.06045
2945.14833,0.06039
2943.21962,0.05999
2941.29090,0.05967
2939.36219,0.05963
2937.43347,0.05981
2935.50476,0.06039
2933.57604,0.06111
2931.64733,0.06135
2929.71861,0.06100
2927.78990,0.06046
2925.86118,0.06024
2923.93247,0.06055
2922.00375,0.06110
2920.07503,0.06144
2918.14632,0.06137
2916.21760,0.06117
2914.28889,0.06114
2912.36017,0.06097
2910.43146,0.06064
2908.50274,0.06061
2906.57403,0.06081
2904.64531,0.06079
2902.71660,0.06056
2900.78788,0.06039
2898.85917,0.06040
2896.93045,0.06042
2895.00173,0.06027
2893.07302,0.06020
2891.14430,0.06027
2889.21559,0.06022
2887.28687,0.06023
2885.35816,0.06044
2883.42944,0.06057
2881.50073,0.06054
2879.57201,0.06048
2877.64330,0.06044
2875.71458,0.06050
2873.78587,0.06063
2871.85715,0.06075
2869.92844,0.06096
2867.99972,0.06119
2866.07100,0.06123
2864.14229,0.06126
2862.21357,0.06142
2860.28486,0.06151
2858.35614,0.06151
2856.42743,0.06143
2854.49871,0.06121
2852.57000,0.06106
2850.64128,0.06112
2848.71257,0.06120
2846.78385,0.06129
2844.85514,0.06133
2842.92642,0.06114
2840.99771,0.06096
2839.06899,0.06101
2837.14027,0.06101
2835.21156,0.06091
2833.28284,0.06087
2831.35413,0.06063
2829.42541,0.06024
2827.49670,0.06031
2825.56798,0.06066
2823.63927,0.06077
2821.71055,0.06075
2819.78184,0.06093
2817.85312,0.06115
2815.92441,0.06120
2813.99569,0.06118
2812.06698,0.06113
2810.13826,0.06097
2808.20954,0.06088
2806.28083,0.06093
2804.35211,0.06086
2802.42340,0.06076
2800.49468,0.06084
2798.56597,0.06090
2796.63725,0.06086
2794.70854,0.06080
2792.77982,0.06075
2790.85111,0.06063
2788.92239,0.06039
2786.99368,0.06008
2785.06496,0.05986
2783.13624,0.05991
2781.20753,0.06016
2779.27881,0.06030
2777.35010,0.06036
2775.42138,0.06058
2773.49267,0.06078
2771.56395,0.06077
2769.63524,0.06072
2767.70652,0.06083
2765.77781,0.06101
2763.84909,0.06106
2761.92038,0.06098
2759.99166,0.06095
2758.06295,0.06107
2756.13423,0.06125
2754.20551,0.06130
2752.27680,0.06121
2750.34808,0.06125
2748.41937,0.06152
2746.49065,0.06166
2744.56194,0.06163
2742.63322,0.06170
2740.70451,0.06181
2738.77579,0.06174
2736.84708,0.06135
2734.91836,0.06093
2732.98965,0.06082
2731.06093,0.06090
2729.13222,0.06091
2727.20350,0.06095
2725.27478,0.06114
2723.34607,0.06140
2721.41735,0.06160
2719.48864,0.06156
2717.55992,0.06125
2715.63121,0.06100
2713.70249,0.06094
2711.77378,0.06088
2709.84506,0.06077
2707.91635,0.06090
2705.98763,0.06134
2704.05892,0.06176
2702.13020,0.06199
2700.20149,0.06224
2698.27277,0.06269
2696.34405,0.06331
2694.41534,0.06376
2692.48662,0.06394
2690.55791,0.06399
2688.62919,0.06403
2686.70048,0.06403
2684.77176,0.06408
2682.84305,0.06423
2680.91433,0.06432
2678.98562,0.06418
2677.05690,0.06386
2675.12819,0.06344
2673.19947,0.06312
2671.27075,0.06315
2669.34204,0.06330
2667.41332,0.06319
2665.48461,0.06314
2663.55589,0.06351
2661.62718,0.06404
2659.69846,0.06444
2657.76975,0.06485
2655.84103,0.06527
2653.91232,0.06563
2651.98360,0.06609
2650.05489,0.06680
2648.12617,0.06751
2646.19746,0.06796
2644.26874,0.06800
2642.34002,0.06775
2640.41131,0.06745
2638.48259,0.06720
2636.55388,0.06701
2634.62516,0.06685
2632.69645,0.06649
2630.76773,0.06578
2628.83902,0.06489
2626.91030,0.06402
2624.98159,0.06314
2623.05287,0.06223
2621.12416,0.06151
2619.19544,0.06122
2617.26673,0.06134
2615.33801,0.06144
2613.40929,0.06123
2611.48058,0.06106
2609.55186,0.06125
2607.62315,0.06147
2605.69443,0.06143
2603.76572,0.06124
2601.83700,0.06104
2599.90829,0.06089
2597.97957,0.06091
2596.05086,0.06107
2594.12214,0.06123
2592.19343,0.06123
2590.26471,0.06106
2588.33599,0.06086
2586.40728,0.06085
2584.47856,0.06111
2582.54985,0.06149
2580.62113,0.06180
2578.69242,0.06193
2576.76370,0.06187
2574.83499,0.06177
2572.90627,0.06171
2570.97756,0.06173
2569.04884,0.06194
2567.12013,0.06227
2565.19141,0.06257
2563.26270,0.06286
2561.33398,0.06319
2559.40526,0.06350
2557.47655,0.06360
2555.54783,0.06348
2553.61912,0.06330
2551.69040,0.06305
2549.76169,0.06273
2547.83297,0.06253
2545.90426,0.06238
2543.97554,0.06209
2542.04683,0.06175
2540.11811,0.06160
2538.18940,0.06152
2536.26068,0.06143
2534.33197,0.06151
2532.40325,0.06166
2530.47453,0.06169
2528.54582,0.06168
2526.61710,0.06162
2524.68839,0.06143
2522.75967,0.06128
2520.83096,0.06134
2518.90224,0.06156
2516.97353,0.06188
2515.04481,0.06208
2513.11610,0.06189
2511.18738,0.06168
2509.25867,0.06170
2507.32995,0.06154
2505.40124,0.06114
2503.47252,0.06094
2501.54380,0.06095
2499.61509,0.06087
2497.68637,0.06061
2495.75766,0.06044
2493.82894,0.06047
2491.90023,0.06054
2489.97151,0.06059
2488.04280,0.06066
2486.11408,0.06070
2484.18537,0.06068
2482.25665,0.06062
2480.32794,0.06070
2478.39922,0.06081
2476.47050,0.06077
2474.54179,0.06071
2472.61307,0.06067
2470.68436,0.06060
2468.75564,0.06065
2466.82693,0.06079
2464.89821,0.06091
2462.96950,0.06095
2461.04078,0.06087
2459.11207,0.06077
2457.18335,0.06076
2455.25464,0.06083
2453.32592,0.06095
2451.39721,0.06116
2449.46849,0.06142
2447.53977,0.06155
2445.61106,0.06137
2443.68234,0.06098
2441.75363,0.06075
2439.82491,0.06077
2437.89620,0.06090
2435.96748,0.06102
2434.03877,0.06102
2432.11005,0.06091
2430.18134,0.06078
2428.25262,0.06078
2426.32391,0.06095
2424.39519,0.06106
2422.46648,0.06101
2420.53776,0.06089
2418.60904,0.06077
2416.68033,0.06073
2414.75161,0.06079
2412.82290,0.06090
2410.89418,0.06095
2408.96547,0.06095
2407.03675,0.06107
2405.10804,0.06122
2403.17932,0.06124
2401.25061,0.06119
2399.32189,0.06107
2397.39318,0.06099
2395.46446,0.06121
2393.53574,0.06152
2391.60703,0.06158
2389.67831,0.06139
2387.74960,0.06105
2385.82088,0.06088
2383.89217,0.06099
2381.96345,0.06110
2380.03474,0.06120
2378.10602,0.06152
2376.17731,0.06192
2374.24859,0.06198
2372.31988,0.06176
2370.39116,0.06170
2368.46245,0.06178
2366.53373,0.06169
2364.60501,0.06141
2362.67630,0.06095
2360.74758,0.06071
2358.81887,0.06109
2356.89015,0.06151
2354.96144,0.06155
2353.03272,0.06156
2351.10401,0.06174
2349.17529,0.06193
2347.24658,0.06190
2345.31786,0.06158
2343.38915,0.06121
2341.46043,0.06118
2339.53172,0.06148
2337.60300,0.06172
2335.67428,0.06170
2333.74557,0.06160
2331.81685,0.06151
2329.88814,0.06125
2327.95942,0.06097
2326.03071,0.06111
2324.10199,0.06143
2322.17328,0.06154
2320.24456,0.06146
2318.31585,0.06129
2316.38713,0.06114
2314.45842,0.06107
2312.52970,0.06107
2310.60099,0.06110
2308.67227,0.06105
2306.74355,0.06092
2304.81484,0.06092
2302.88612,0.06106
2300.95741,0.06113
2299.02869,0.06116
2297.09998,0.06125
2295.17126,0.06128
2293.24255,0.06126
2291.31383,0.06132
2289.38512,0.06136
2287.45640,0.06129
2285.52769,0.06122
2283.59897,0.06128
2281.67025,0.06133
2279.74154,0.06116
2277.81282,0.06091
2275.88411,0.06088
2273.95539,0.06091
2272.02668,0.06077
2270.09796,0.06065
2268.16925,0.06069
2266.24053,0.06077
2264.31182,0.06085
2262.38310,0.06090
2260.45439,0.06090
2258.52567,0.06089
2256.59696,0.06085
2254.66824,0.06079
2252.73952,0.06081
2250.81081,0.06090
2248.88209,0.06087
2246.95338,0.06062
2245.02466,0.06042
2243.09595,0.06042
2241.16723,0.06058
2239.23852,0.06082
2237.30980,0.06092
2235.38109,0.06076
2233.45237,0.06058
2231.52366,0.06058
2229.59494,0.06064
2227.66623,0.06072
2225.73751,0.06078
2223.80879,0.06080
2221.88008,0.06087
2219.95136,0.06106
2218.02265,0.06121
2216.09393,0.06104
2214.16522,0.06065
2212.23650,0.06050
2210.30779,0.06073
2208.37907,0.06103
2206.45036,0.06109
2204.52164,0.06094
2202.59293,0.06089
2200.66421,0.06096
2198.73549,0.06094
2196.80678,0.06092
2194.87806,0.06104
2192.94935,0.06115
2191.02063,0.06110
2189.09192,0.06098
2187.16320,0.06085
2185.23449,0.06076
2183.30577,0.06079
2181.37706,0.06086
2179.44834,0.06089
2177.51963,0.06086
2175.59091,0.06079
2173.66220,0.06078
2171.73348,0.06087
2169.80476,0.06089
2167.87605,0.06078
2165.94733,0.06077
2164.01862,0.06093
2162.08990,0.06103
2160.16119,0.06101
2158.23247,0.06102
2156.30376,0.06116
2154.37504,0.06127
2152.44633,0.06122
2150.51761,0.06128
2148.58890,0.06152
2146.66018,0.06161
2144.73147,0.06148
2142.80275,0.06131
2140.87403,0.06115
2138.94532,0.06095
2137.01660,0.06078
2135.08789,0.06066
2133.15917,0.06062
2131.23046,0.06076
2129.30174,0.06092
2127.37303,0.06088
2125.44431,0.06071
2123.51560,0.06052
2121.58688,0.06038
2119.65817,0.06036
2117.72945,0.06043
2115.80074,0.06050
2113.87202,0.06048
2111.94330,0.06046
2110.01459,0.06048
2108.08587,0.06047
2106.15716,0.06038
2104.22844,0.06034
2102.29973,0.06044
2100.37101,0.06052
2098.44230,0.06051
2096.51358,0.06058
2094.58487,0.06065
2092.65615,0.06058
2090.72744,0.06038
2088.79872,0.06017
2086.87000,0.06010
2084.94129,0.06018
2083.01257,0.06032
2081.08386,0.06048
2079.15514,0.06057
2077.22643,0.06051
2075.29771,0.06042
2073.36900,0.06037
2071.44028,0.06024
2069.51157,0.06015
2067.58285,0.06026
2065.65414,0.06025
2063.72542,0.06004
2061.79671,0.05994
2059.86799,0.05997
2057.93927,0.06005
2056.01056,0.06008
2054.08184,0.05999
2052.15313,0.05995
2050.22441,0.06002
2048.29570,0.06011
2046.36698,0.06017
2044.43827,0.06014
2042.50955,0.06011
2040.58084,0.06012
2038.65212,0.06011
2036.72341,0.06013
2034.79469,0.06020
2032.86598,0.06022
2030.93726,0.06015
2029.00854,0.06001
2027.07983,0.05991
2025.15111,0.06001
2023.22240,0.06007
2021.29368,0.06001
2019.36497,0.06000
2017.43625,0.06006
2015.50754,0.06009
2013.57882,0.06012
2011.65011,0.06017
2009.72139,0.06019
2007.79268,0.06009
2005.86396,0.05981
2003.93524,0.05957
2002.00653,0.05965
2000.07781,0.05998
1998.14910,0.06022
1996.22038,0.06021
1994.29167,0.05996
1992.36295,0.05962
1990.43424,0.05944
1988.50552,0.05946
1986.57681,0.05953
1984.64809,0.05970
1982.71938,0.05999
1980.79066,0.06013
1978.86195,0.05999
1976.93323,0.05976
1975.00451,0.05964
1973.07580,0.05959
1971.14708,0.05951
1969.21837,0.05942
1967.28965,0.05941
1965.36094,0.05940
1963.43222,0.05937
1961.50351,0.05945
1959.57479,0.05952
1957.64608,0.05937
1955.71736,0.05910
1953.78865,0.05900
1951.85993,0.05913
1949.93122,0.05924
1948.00250,0.05915
1946.07378,0.05894
1944.14507,0.05886
1942.21635,0.05906
1940.28764,0.05915
1938.35892,0.05892
1936.43021,0.05874
1934.50149,0.05877
1932.57278,0.05887
1930.64406,0.05895
1928.71535,0.05885
1926.78663,0.05853
1924.85792,0.05837
1922.92920,0.05856
1921.00049,0.05880
1919.07177,0.05871
1917.14305,0.05828
1915.21434,0.05790
1913.28562,0.05787
1911.35691,0.05806
1909.42819,0.05816
1907.49948,0.05805
1905.57076,0.05796
1903.64205,0.05801
1901.71333,0.05811
1899.78462,0.05825
1897.85590,0.05834
1895.92719,0.05820
1893.99847,0.05796
1892.06975,0.05787
1890.14104,0.05792
1888.21232,0.05794
1886.28361,0.05788
1884.35489,0.05787
1882.42618,0.05786
1880.49746,0.05769
1878.56875,0.05745
1876.64003,0.05737
1874.71132,0.05748
1872.78260,0.05761
1870.85389,0.05766
1868.92517,0.05753
1866.99646,0.05726
1865.06774,0.05702
1863.13902,0.05687
1861.21031,0.05679
1859.28159,0.05677
1857.35288,0.05670
1855.42416,0.05659
1853.49545,0.05651
1851.56673,0.05640
1849.63802,0.05619
1847.70930,0.05593
1845.78059,0.05559
1843.85187,0.05515
1841.92316,0.05486
1839.99444,0.05477
1838.06573,0.05472
1836.13701,0.05466
1834.20829,0.05467
1832.27958,0.05457
1830.35086,0.05412
1828.42215,0.05360
1826.49343,0.05325
1824.56472,0.05291
1822.63600,0.05265
1820.70729,0.05239
1818.77857,0.05202
1816.84986,0.05165
1814.92114,0.05121
1812.99243,0.05055
1811.06371,0.04979
1809.13499,0.04905
1807.20628,0.04821
1805.27756,0.04732
1803.34885,0.04652
1801.42013,0.04557
1799.49142,0.04444
1797.56270,0.04359
1795.63399,0.04316
1793.70527,0.04276
1791.77656,0.04245
1789.84784,0.04314
1787.91913,0.04488
1785.99041,0.04741
1784.06170,0.05072
1782.13298,0.05489
1780.20426,0.06015
1778.27555,0.06571
1776.34683,0.07064
1774.41812,0.07525
1772.48940,0.08049
1770.56069,0.08519
1768.63197,0.08747
1766.70326,0.08799
1764.77454,0.08745
1762.84583,0.08577
1760.91711,0.08328
1758.98840,0.08116
1757.05968,0.07934
1755.13097,0.07764
1753.20225,0.07623
1751.27353,0.07471
1749.34482,0.07302
1747.41610,0.07181
1745.48739,0.07111
1743.55867,0.07049
1741.62996,0.06977
1739.70124,0.06904
1737.77253,0.06848
1735.84381,0.06799
1733.91510,0.06744
1731.98638,0.06714
1730.05767,0.06692
1728.12895,0.06654
1726.20024,0.06618
1724.27152,0.06592
1722.34280,0.06579
1720.41409,0.06576
1718.48537,0.06570
1716.55666,0.06551
1714.62794,0.06518
1712.69923,0.06477
1710.77051,0.06433
1708.84180,0.06386
1706.91308,0.06340
1704.98437,0.06326
1703.05565,0.06345
1701.12694,0.06347
1699.19822,0.06297
1697.26950,0.06231
1695.34079,0.06180
1693.41207,0.06176
1691.48336,0.06200
1689.55464,0.06212
1687.62593,0.06214
1685.69721,0.06211
1683.76850,0.06159
1681.83978,0.06109
1679.91107,0.06098
1677.98235,0.06080
1676.05364,0.06057
1674.12492,0.06057
1672.19621,0.06057
1670.26749,0.06023
1668.33877,0.05984
1666.41006,0.05984
1664.48134,0.05995
1662.55263,0.05992
1660.62391,0.05991
1658.69520,0.06004
1656.76648,0.06024
1654.83777,0.06035
1652.90905,0.05986
1650.98034,0.05938
1649.05162,0.05914
1647.12291,0.05889
1645.19419,0.05923
1643.26548,0.05979
1641.33676,0.06013
1639.40804,0.06032
1637.47933,0.06017
1635.55061,0.05936
1633.62190,0.05881
1631.69318,0.05888
1629.76447,0.05907
1627.83575,0.05914
1625.90704,0.05912
1623.97832,0.05908
1622.04961,0.05892
1620.12089,0.05864
1618.19218,0.05823
1616.26346,0.05774
1614.33474,0.05757
1612.40603,0.05759
1610.47731,0.05752
1608.54860,0.05738
1606.61988,0.05741
1604.69117,0.05770
1602.76245,0.05806
1600.83374,0.05836
1598.90502,0.05845
1596.97631,0.05827
1595.04759,0.05817
1593.11888,0.05845
1591.19016,0.05890
1589.26145,0.05910
1587.33273,0.05892
1585.40401,0.05860
1583.47530,0.05824
1581.54658,0.05786
1579.61787,0.05772
1577.68915,0.05771
1575.76044,0.05746
1573.83172,0.05726
1571.90301,0.05723
1569.97429,0.05710
1568.04558,0.05686
1566.11686,0.05665
1564.18815,0.05632
1562.25943,0.05598
1560.33072,0.05569
1558.40200,0.05548
1556.47328,0.05555
1554.54457,0.05542
1552.61585,0.05500
1550.68714,0.05456
1548.75842,0.05425
1546.82971,0.05406
1544.90099,0.05393
1542.97228,0.05387
1541.04356,0.05360
1539.11485,0.05264
1537.18613,0.05198
1535.25742,0.05163
1533.32870,0.05118
1531.39999,0.05069
1529.47127,0.05025
1527.54255,0.04968
1525.61384,0.04893
1523.68512,0.04790
1521.75641,0.04615
1519.82769,0.04444
1517.89898,0.04350
1515.97026,0.04275
1514.04155,0.04241
1512.11283,0.04324
1510.18412,0.04568
1508.25540,0.05137
1506.32669,0.06253
1504.39797,0.06992
1502.46925,0.07270
1500.54054,0.07405
1498.61182,0.07406
1496.68311,0.07266
1494.75439,0.07118
1492.82568,0.07029
1490.89696,0.06925
1488.96825,0.06764
1487.03953,0.06623
1485.11082,0.06527
1483.18210,0.06436
1481.25339,0.06339
1479.32467,0.06256
1477.39596,0.06192
1475.46724,0.06141
1473.53852,0.06101
1471.60981,0.06071
1469.68109,0.06056
1467.75238,0.06050
1465.82366,0.06040
1463.89495,0.06032
1461.96623,0.06048
1460.03752,0.06073
1458.10880,0.06067
1456.18009,0.06014
1454.25137,0.05971
1452.32266,0.05940
1450.39394,0.05922
1448.46523,0.05922
1446.53651,0.05906
1444.60779,0.05868
1442.67908,0.05832
1440.75036,0.05808
1438.82165,0.05787
1436.89293,0.05756
1434.96422,0.05737
1433.03550,0.05731
1431.10679,0.05709
1429.17807,0.05657
1427.24936,0.05603
1425.32064,0.05557
1423.39193,0.05505
1421.46321,0.05444
1419.53449,0.05369
1417.60578,0.05305
1415.67706,0.05293
1413.74835,0.05316
1411.81963,0.05370
1409.89092,0.05453
1407.96220,0.05537
1406.03349,0.05588
1404.10477,0.05607
1402.17606,0.05600
1400.24734,0.05552
1398.31863,0.05475
1396.38991,0.05416
1394.46120,0.05375
1392.53248,0.05335
1390.60376,0.05308
1388.67505,0.05310
1386.74633,0.05340
1384.81762,0.05352
1382.88890,0.05339
1380.96019,0.05313
1379.03147,0.05268
1377.10276,0.05226
1375.17404,0.05181
1373.24533,0.05094
1371.31661,0.04998
1369.38790,0.04950
1367.45918,0.04975
1365.53047,0.05073
1363.60175,0.05214
1361.67303,0.05315
1359.74432,0.05318
1357.81560,0.05258
1355.88689,0.05167
1353.95817,0.05071
1352.02946,0.05001
1350.10074,0.04957
1348.17203,0.04918
1346.24331,0.04873
1344.31460,0.04824
1342.38588,0.04779
1340.45717,0.04737
1338.52845,0.04689
1336.59974,0.04634
1334.67102,0.04583
1332.74230,0.04545
1330.81359,0.04511
1328.88487,0.04465
1326.95616,0.04398
1325.02744,0.04322
1323.09873,0.04256
1321.17001,0.04192
1319.24130,0.04114
1317.31258,0.04033
1315.38387,0.03956
1313.45515,0.03894
1311.52644,0.03864
1309.59772,0.03851
1307.66900,0.03817
1305.74029,0.03753
1303.81157,0.03676
1301.88286,0.03605
1299.95414,0.03552
1298.02543,0.03516
1296.09671,0.03486
1294.16800,0.03470
1292.23928,0.03467
1290.31057,0.03462
1288.38185,0.03440
1286.45314,0.03393
1284.52442,0.03325
1282.59571,0.03226
1280.66699,0.03084
1278.73827,0.02920
1276.80956,0.02753
1274.88084,0.02578
1272.95213,0.02399
1271.02341,0.02231
1269.09470,0.02090
1267.16598,0.02009
1265.23727,0.02048
1263.30855,0.02288
1261.37984,0.02821
1259.45112,0.03675
1257.52241,0.04748
1255.59369,0.05896
1253.66498,0.07026
1251.73626,0.08064
1249.80754,0.08940
1247.87883,0.09623
1245.95011,0.10150
1244.02140,0.10577
1242.09268,0.10953
1240.16397,0.11334
1238.23525,0.11753
1236.30654,0.12186
1234.37782,0.12607
1232.44911,0.13023
1230.52039,0.13414
1228.59168,0.13739
1226.66296,0.13965
1224.73424,0.14050
1222.80553,0.13956
1220.87681,0.13683
1218.94810,0.13225
1217.01938,0.12558
1215.09067,0.11691
1213.16195,0.10669
1211.23324,0.09577
1209.30452,0.08533
1207.37581,0.07731
1205.44709,0.07459
1203.51838,0.07948
1201.58966,0.09206
1199.66095,0.10984
1197.73223,0.12887
1195.80351,0.14580
1193.87480,0.15857
1191.94608,0.16572
1190.01737,0.16662
1188.08865,0.16167
1186.15994,0.15213
1184.23122,0.14046
1182.30251,0.12931
1180.37379,0.11983
1178.44508,0.11171
1176.51636,0.10392
1174.58765,0.09584
1172.65893,0.08872
1170.73022,0.08647
1168.80150,0.09385
1166.87278,0.11143
1164.94407,0.13300
1163.01535,0.14966
1161.08664,0.15643
1159.15792,0.15420
1157.22921,0.14704
1155.30049,0.13881
1153.37178,0.13175
1151.44306,0.12627
1149.51435,0.12179
1147.58563,0.11811
1145.65692,0.11517
1143.72820,0.11247
1141.79949,0.10977
1139.87077,0.10734
1137.94205,0.10527
1136.01334,0.10328
1134.08462,0.10134
1132.15591,0.09963
1130.22719,0.09813
1128.29848,0.09681
1126.36976,0.09555
1124.44105,0.09414
1122.51233,0.09270
1120.58362,0.09153
1118.65490,0.09052
1116.72619,0.08934
1114.79747,0.08820
1112.86875,0.08758
1110.94004,0.08763
1109.01132,0.08799
1107.08261,0.08811
1105.15389,0.08795
1103.22518,0.08800
1101.29646,0.08839
1099.36775,0.08847
1097.43903,0.08762
1095.51032,0.08593
1093.58160,0.08394
1091.65289,0.08198
1089.72417,0.08001
1087.79546,0.07839
1085.86674,0.07821
1083.93802,0.08076
1082.00931,0.08636
1080.08059,0.09276
1078.15188,0.09630
1076.22316,0.09583
1074.29445,0.09333
1072.36573,0.09107
1070.43702,0.08962
1068.50830,0.08836
1066.57959,0.08685
1064.65087,0.08533
1062.72216,0.08413
1060.79344,0.08321
1058.86473,0.08244
1056.93601,0.08201
1055.00729,0.08191
1053.07858,0.08170
1051.14986,0.08112
1049.22115,0.08016
1047.29243,0.07917
1045.36372,0.07856
1043.43500,0.07811
1041.50629,0.07757
1039.57757,0.07700
1037.64886,0.07618
1035.72014,0.07495
1033.79143,0.07372
1031.86271,0.07287
1029.93399,0.07193
1028.00528,0.07035
1026.07656,0.06820
1024.14785,0.06564
1022.21913,0.06304
1020.29042,0.06235
1018.36170,0.06746
1016.43299,0.07962
1014.50427,0.09251
1012.57556,0.09815
1010.64684,0.09664
1008.71813,0.09374
1006.78941,0.09265
1004.86070,0.09268
1002.93198,0.09243
1001.00326,0.09152
999.07455,0.09011
997.14583,0.08853
995.21712,0.08746
993.28840,0.08694
991.35969,0.08638
989.43097,0.08563
987.50226,0.08494
985.57354,0.08442
983.64483,0.08393
981.71611,0.08351
979.78740,0.08308
977.85868,0.08221
975.92997,0.08125
974.00125,0.08080
972.07253,0.08060
970.14382,0.08026
968.21510,0.07999
966.28639,0.07995
964.35767,0.07973
962.42896,0.07915
960.50024,0.07874
958.57153,0.07875
956.64281,0.07893
954.71410,0.07900
952.78538,0.07866
950.85667,0.07809
948.92795,0.07782
946.99924,0.07783
945.07052,0.07770
943.14180,0.07741
941.21309,0.07725
939.28437,0.07721
937.35566,0.07712
935.42694,0.07699
933.49823,0.07689
931.56951,0.07667
929.64080,0.07619
927.71208,0.07572
925.78337,0.07559
923.85465,0.07553
921.92594,0.07530
919.99722,0.07520
918.06850,0.07529
916.13979,0.07520
914.21107,0.07488
912.28236,0.07452
910.35364,0.07417
908.42493,0.07372
906.49621,0.07312
904.56750,0.07237
902.63878,0.07155
900.71007,0.07090
898.78135,0.07039
896.85264,0.06977
894.92392,0.06934
892.99521,0.06966
891.06649,0.07073
889.13777,0.07194
887.20906,0.07287
885.28034,0.07373
883.35163,0.07456
881.42291,0.07515
879.49420,0.07544
877.56548,0.07537
875.63677,0.07494
873.70805,0.07418
871.77934,0.07312
869.85062,0.07209
867.92191,0.07143
865.99319,0.07096
864.06448,0.07035
862.13576,0.06951
860.20704,0.06845
858.27833,0.06732
856.34961,0.06659
854.42090,0.06614
852.49218,0.06568
850.56347,0.06554
848.63475,0.06594
846.70604,0.06659
844.77732,0.06718
842.84861,0.06762
840.91989,0.06781
838.99118,0.06808
837.06246,0.06920
835.13375,0.07136
833.20503,0.07426
831.27631,0.07761
829.34760,0.08074
827.41888,0.08298
825.49017,0.08407
823.56145,0.08414
821.63274,0.08356
819.70402,0.08296
817.77531,0.08295
815.84659,0.08355
813.91788,0.08420
811.98916,0.08458
810.06045,0.08478
808.13173,0.08480
806.20301,0.08437
804.27430,0.08349
802.34558,0.08251
800.41687,0.08147
798.48815,0.08025
796.55944,0.07921
794.63072,0.07849
792.70201,0.07783
790.77329,0.07726
788.84458,0.07670
786.91586,0.07607
784.98715,0.07556
783.05843,0.07511
781.12972,0.07467
779.20100,0.07429
777.27228,0.07382
775.34357,0.07365
773.41485,0.07440
771.48614,0.07566
769.55742,0.07666
767.62871,0.07755
765.69999,0.07868
763.77128,0.07986
761.84256,0.08057
759.91385,0.08063
757.98513,0.08051
756.05642,0.08057
754.12770,0.08060
752.19899,0.08045
750.27027,0.08022
748.34155,0.07986
746.41284,0.07933
744.48412,0.07888
742.55541,0.07840
740.62669,0.07772
738.69798,0.07713
736.76926,0.07699
734.84055,0.07728
732.91183,0.07739
730.98312,0.07702
729.05440,0.07677
727.12569,0.07696
725.19697,0.07717
723.26825,0.07698
721.33954,0.07662
719.41082,0.07653
717.48211,0.07649
715.55339,0.07627
713.62468,0.07616
711.69596,0.07608
709.76725,0.07601
707.83853,0.07619
705.90982,0.07657
703.98110,0.07700
702.05239,0.07753
700.12367,0.07804
698.19496,0.07825
696.26624,0.07795
694.33752,0.07718
692.40881,0.07660
690.48009,0.07667
688.55138,0.07684
686.62266,0.07676
684.69395,0.07657
682.76523,0.07610
680.83652,0.07563
678.90780,0.07562
676.97909,0.07553
675.05037,0.07488
673.12166,0.07434
671.19294,0.07431
669.26423,0.07470
667.33551,0.07538
665.40679,0.07536
663.47808,0.07440
661.54936,0.07352
659.62065,0.07356
657.69193,0.07387
655.76322,0.07375
653.83450,0.07358
651.90579,0.07368
649.97707,0.07360
648.04836,0.07317
646.11964,0.07312
644.19093,0.07340
642.26221,0.07284
640.33350,0.07169
638.40478,0.07096
636.47606,0.07025
634.54735,0.06948
632.61863,0.06983
630.68992,0.07122
628.76120,0.07216
626.83249,0.07142
624.90377,0.06958
622.97506,0.06896
621.04634,0.06981
619.11763,0.06965
617.18891,0.06823
615.26020,0.06821
613.33148,0.06969
611.40276,0.07014
609.47405,0.06933
607.54533,0.06888
605.61662,0.06950
603.68790,0.07062
601.75919,0.07065
599.83047,0.06893
