7496.91655,0.88323
7494.98784,0.88125
7493.05912,0.87313
7491.13041,0.87784
7489.20169,0.88366
7487.27297,0.87374
7485.34426,0.86291
7483.41554,0.87148
7481.48683,0.88049
7479.55811,0.87026
7477.62940,0.85866
7475.70068,0.85721
7473.77197,0.85342
7471.84325,0.85061
7469.91454,0.86067
7467.98582,0.87051
7466.05711,0.87517
7464.12839,0.88550
7462.19968,0.89228
7460.27096,0.88424
7458.34224,0.87222
7456.41353,0.87059
7454.48481,0.87451
7452.55610,0.87761
7450.62738,0.88038
7448.69867,0.88011
7446.76995,0.88299
7444.84124,0.88240
7442.91252,0.86689
7440.98381,0.85844
7439.05509,0.86307
7437.12638,0.86235
7435.19766,0.86335
7433.26895,0.86883
7431.34023,0.86402
7429.41151,0.85328
7427.48280,0.85493
7425.55408,0.88037
7423.62537,0.90533
7421.69665,0.89207
7419.76794,0.85985
7417.83922,0.84496
7415.91051,0.84286
7413.98179,0.83482
7412.05308,0.82262
7410.12436,0.81949
7408.19565,0.82365
7406.26693,0.82594
7404.33821,0.81987
7402.40950,0.80378
7400.48078,0.79536
7398.55207,0.80810
7396.62335,0.81942
7394.69464,0.81238
7392.76592,0.80727
7390.83721,0.81337
7388.90849,0.82124
7386.97978,0.82878
7385.05106,0.83380
7383.12235,0.83764
7381.19363,0.83965
7379.26492,0.82722
7377.33620,0.80470
7375.40748,0.78627
7373.47877,0.77481
7371.55005,0.77583
7369.62134,0.79098
7367.69262,0.80223
7365.76391,0.79589
7363.83519,0.78645
7361.90648,0.79488
7359.97776,0.81407
7358.04905,0.81601
7356.12033,0.79975
7354.19162,0.79447
7352.26290,0.80879
7350.33419,0.81793
7348.40547,0.80849
7346.47675,0.79772
7344.54804,0.80106
7342.61932,0.81229
7340.69061,0.81464
7338.76189,0.80579
7336.83318,0.79123
7334.90446,0.77020
7332.97575,0.75215
7331.04703,0.74681
7329.11832,0.75106
7327.18960,0.75947
7325.26089,0.76770
7323.33217,0.77670
7321.40346,0.78633
7319.47474,0.78230
7317.54602,0.76634
7315.61731,0.76597
7313.68859,0.77848
7311.75988,0.77803
7309.83116,0.77284
7307.90245,0.77548
7305.97373,0.77837
7304.04502,0.78168
7302.11630,0.78765
7300.18759,0.78857
7298.25887,0.78042
7296.33016,0.76795
7294.40144,0.75914
7292.47272,0.76375
7290.54401,0.77847
7288.61529,0.78643
7286.68658,0.78622
7284.75786,0.79030
7282.82915,0.79238
7280.90043,0.78265
7278.97172,0.76934
7277.04300,0.76354
7275.11429,0.76494
7273.18557,0.75988
7271.25686,0.74435
7269.32814,0.73760
7267.39943,0.75041
7265.47071,0.76798
7263.54199,0.77505
7261.61328,0.76930
7259.68456,0.75654
7257.75585,0.74786
7255.82713,0.74595
7253.89842,0.75056
7251.96970,0.75944
7250.04099,0.75870
7248.11227,0.74750
7246.18356,0.74261
7244.25484,0.75124
7242.32613,0.76271
7240.39741,0.76384
7238.46870,0.75750
7236.53998,0.75503
7234.61126,0.75458
7232.68255,0.74690
7230.75383,0.74684
7228.82512,0.76269
7226.89640,0.77794
7224.96769,0.77936
7223.03897,0.76620
7221.11026,0.74505
7219.18154,0.72813
7217.25283,0.72978
7215.32411,0.75164
7213.39540,0.77525
7211.46668,0.78171
7209.53796,0.77755
7207.60925,0.77605
7205.68053,0.77954
7203.75182,0.78467
7201.82310,0.77714
7199.89439,0.75655
7197.96567,0.75023
7196.03696,0.76179
7194.10824,0.76305
7192.17953,0.74888
7190.25081,0.74057
7188.32210,0.74879
7186.39338,0.76447
7184.46467,0.77600
7182.53595,0.77885
7180.60723,0.77620
7178.67852,0.77644
7176.74980,0.77513
7174.82109,0.76286
7172.89237,0.74838
7170.96366,0.74527
7169.03494,0.74857
7167.10623,0.75231
7165.17751,0.76508
7163.24880,0.78230
7161.32008,0.78709
7159.39137,0.78270
7157.46265,0.78306
7155.53394,0.78801
7153.60522,0.78663
7151.67650,0.77292
7149.74779,0.75774
7147.81907,0.75382
7145.89036,0.76121
7143.96164,0.77295
7142.03293,0.77968
7140.10421,0.77919
7138.17550,0.77667
7136.24678,0.77133
7134.31807,0.76468
7132.38935,0.76527
7130.46064,0.76995
7128.53192,0.76737
7126.60321,0.76263
7124.67449,0.76912
7122.74577,0.78035
7120.81706,0.78154
7118.88834,0.77634
7116.95963,0.77388
7115.03091,0.77178
7113.10220,0.77348
7111.17348,0.78375
7109.24477,0.78842
7107.31605,0.77790
7105.38734,0.76831
7103.45862,0.77207
7101.52991,0.78165
7099.60119,0.78400
7097.67247,0.77495
7095.74376,0.76813
7093.81504,0.77586
7091.88633,0.78665
7089.95761,0.78849
7088.02890,0.78401
7086.10018,0.77565
7084.17147,0.77293
7082.24275,0.78684
7080.31404,0.80636
7078.38532,0.81468
7076.45661,0.81117
7074.52789,0.80685
7072.59918,0.80865
7070.67046,0.80924
7068.74174,0.80292
7066.81303,0.79559
7064.88431,0.79704
7062.95560,0.80888
7061.02688,0.81434
7059.09817,0.80458
7057.16945,0.79903
7055.24074,0.80557
7053.31202,0.80757
7051.38331,0.80342
7049.45459,0.80575
7047.52588,0.81418
7045.59716,0.82417
7043.66845,0.83438
7041.73973,0.83444
7039.81101,0.81926
7037.88230,0.80979
7035.95358,0.81757
7034.02487,0.82304
7032.09615,0.81629
7030.16744,0.80707
7028.23872,0.79884
7026.31001,0.79413
7024.38129,0.79818
7022.45258,0.80600
7020.52386,0.80965
7018.59515,0.80767
7016.66643,0.80309
7014.73771,0.80318
7012.80900,0.80958
7010.88028,0.81393
7008.95157,0.81138
7007.02285,0.80608
7005.09414,0.80036
7003.16542,0.79393
7001.23671,0.79285
6999.30799,0.80046
6997.37928,0.81165
6995.45056,0.81709
6993.52185,0.81215
6991.59313,0.80523
6989.66442,0.80085
6987.73570,0.79667
6985.80698,0.79493
6983.87827,0.79681
6981.94955,0.80371
6980.02084,0.81527
6978.09212,0.81979
6976.16341,0.81037
6974.23469,0.79964
6972.30598,0.79972
6970.37726,0.80578
6968.44855,0.81079
6966.51983,0.81557
6964.59112,0.81841
6962.66240,0.81708
6960.73369,0.81369
6958.80497,0.80849
6956.87625,0.80457
6954.94754,0.80596
6953.01882,0.80821
6951.09011,0.81141
6949.16139,0.82045
6947.23268,0.82794
6945.30396,0.82451
6943.37525,0.81707
6941.44653,0.81676
6939.51782,0.82335
6937.58910,0.82752
6935.66039,0.82418
6933.73167,0.81829
6931.80296,0.81410
6929.87424,0.81361
6927.94552,0.81666
6926.01681,0.81996
6924.08809,0.82846
6922.15938,0.84048
6920.23066,0.83724
6918.30195,0.81820
6916.37323,0.80737
6914.44452,0.81469
6912.51580,0.82512
6910.58709,0.82554
6908.65837,0.81959
6906.72966,0.81763
6904.80094,0.82163
6902.87222,0.82617
6900.94351,0.82759
6899.01479,0.82815
6897.08608,0.83051
6895.15736,0.82826
6893.22865,0.82329
6891.29993,0.83068
6889.37122,0.84588
6887.44250,0.85139
6885.51379,0.84685
6883.58507,0.84135
6881.65636,0.83917
6879.72764,0.83801
6877.79893,0.83527
6875.87021,0.83216
6873.94149,0.82838
6872.01278,0.82548
6870.08406,0.82602
6868.15535,0.82772
6866.22663,0.82805
6864.29792,0.82550
6862.36920,0.82037
6860.44049,0.81806
6858.51177,0.82125
6856.58306,0.82319
6854.65434,0.82020
6852.72563,0.81916
6850.79691,0.82281
6848.86820,0.82645
6846.93948,0.82892
6845.01076,0.82997
6843.08205,0.82536
6841.15333,0.81918
6839.22462,0.82221
6837.29590,0.83033
6835.36719,0.83363
6833.43847,0.83422
6831.50976,0.83757
6829.58104,0.84275
6827.65233,0.84409
6825.72361,0.84012
6823.79490,0.83499
6821.86618,0.83302
6819.93746,0.83441
6818.00875,0.83573
6816.08003,0.83882
6814.15132,0.84469
6812.22260,0.84639
6810.29389,0.84427
6808.36517,0.84422
6806.43646,0.84247
6804.50774,0.83735
6802.57903,0.83468
6800.65031,0.83587
6798.72160,0.84127
6796.79288,0.84721
6794.86417,0.84563
6792.93545,0.84003
6791.00673,0.83904
6789.07802,0.84043
6787.14930,0.83850
6785.22059,0.83595
6783.29187,0.83734
6781.36316,0.84264
6779.43444,0.84846
6777.50573,0.84678
6775.57701,0.83946
6773.64830,0.83841
6771.71958,0.84122
6769.79087,0.83968
6767.86215,0.83642
6765.93344,0.83612
6764.00472,0.83884
6762.07600,0.84248
6760.14729,0.84698
6758.21857,0.85354
6756.28986,0.85725
6754.36114,0.85502
6752.43243,0.85601
6750.50371,0.86221
6748.57500,0.86396
6746.64628,0.86141
6744.71757,0.85957
6742.78885,0.85883
6740.86014,0.85923
6738.93142,0.85833
6737.00271,0.85468
6735.07399,0.85371
6733.14527,0.85791
6731.21656,0.85923
6729.28784,0.85265
6727.35913,0.84589
6725.43041,0.84771
6723.50170,0.85683
6721.57298,0.86492
6719.64427,0.86705
6717.71555,0.86378
6715.78684,0.86043
6713.85812,0.86099
6711.92941,0.85888
6710.00069,0.85176
6708.07197,0.84923
6706.14326,0.85507
6704.21454,0.86270
6702.28583,0.86339
6700.35711,0.85672
6698.42840,0.85204
6696.49968,0.85191
6694.57097,0.85079
6692.64225,0.85064
6690.71354,0.85532
6688.78482,0.85895
6686.85611,0.85704
6684.92739,0.85495
6682.99868,0.85795
6681.06996,0.86372
6679.14124,0.86457
6677.21253,0.85742
6675.28381,0.84975
6673.35510,0.84886
6671.42638,0.85158
6669.49767,0.85161
6667.56895,0.85037
6665.64024,0.85263
6663.71152,0.85713
6661.78281,0.86157
6659.85409,0.86702
6657.92538,0.86999
6655.99666,0.86640
6654.06795,0.86203
6652.13923,0.86014
6650.21051,0.85690
6648.28180,0.85646
6646.35308,0.86293
6644.42437,0.86884
6642.49565,0.86775
6640.56694,0.86101
6638.63822,0.85421
6636.70951,0.85270
6634.78079,0.85613
6632.85208,0.86071
6630.92336,0.86535
6628.99465,0.87044
6627.06593,0.87379
6625.13722,0.87236
6623.20850,0.86838
6621.27978,0.86695
6619.35107,0.86586
6617.42235,0.86163
6615.49364,0.85966
6613.56492,0.86308
6611.63621,0.86743
6609.70749,0.86930
6607.77878,0.86868
6605.85006,0.86695
6603.92135,0.86546
6601.99263,0.86411
6600.06392,0.86323
6598.13520,0.86488
6596.20648,0.86554
6594.27777,0.86136
6592.34905,0.86022
6590.42034,0.86768
6588.49162,0.87795
6586.56291,0.88297
6584.63419,0.87899
6582.70548,0.87118
6580.77676,0.86748
6578.84805,0.86859
6576.91933,0.86958
6574.99062,0.87042
6573.06190,0.87567
6571.13319,0.88053
6569.20447,0.87732
6567.27575,0.87047
6565.34704,0.86693
6563.41832,0.86531
6561.48961,0.86397
6559.56089,0.86776
6557.63218,0.87921
6555.70346,0.89088
6553.77475,0.89408
6551.84603,0.88970
6549.91732,0.88337
6547.98860,0.87558
6546.05989,0.86615
6544.13117,0.86186
6542.20246,0.86578
6540.27374,0.87130
6538.34502,0.87505
6536.41631,0.87785
6534.48759,0.87947
6532.55888,0.88045
6530.63016,0.88098
6528.70145,0.88126
6526.77273,0.87981
6524.84402,0.87686
6522.91530,0.87748
6520.98659,0.87944
6519.05787,0.87637
6517.12916,0.87178
6515.20044,0.87252
6513.27172,0.87918
6511.34301,0.88647
6509.41429,0.88833
6507.48558,0.88499
6505.55686,0.88068
6503.62815,0.87779
6501.69943,0.87858
6499.77072,0.88209
6497.84200,0.88315
6495.91329,0.87933
6493.98457,0.87483
6492.05586,0.87658
6490.12714,0.88167
6488.19843,0.88269
6486.26971,0.88195
6484.34099,0.88378
6482.41228,0.88707
6480.48356,0.88675
6478.55485,0.87964
6476.62613,0.87178
6474.69742,0.87122
6472.76870,0.87649
6470.83999,0.88013
6468.91127,0.88047
6466.98256,0.88173
6465.05384,0.88544
6463.12513,0.88531
6461.19641,0.87669
6459.26770,0.86706
6457.33898,0.86434
6455.41026,0.86886
6453.48155,0.87711
6451.55283,0.88431
6449.62412,0.88752
6447.69540,0.88605
6445.76669,0.88089
6443.83797,0.87463
6441.90926,0.87176
6439.98054,0.87405
6438.05183,0.87519
6436.12311,0.87186
6434.19440,0.86974
6432.26568,0.87146
6430.33697,0.87356
6428.40825,0.87517
6426.47953,0.87774
6424.55082,0.87939
6422.62210,0.87890
6420.69339,0.87851
6418.76467,0.87741
6416.83596,0.87387
6414.90724,0.87226
6412.97853,0.87298
6411.04981,0.87069
6409.12110,0.86683
6407.19238,0.86412
6405.26367,0.86387
6403.33495,0.86858
6401.40623,0.87390
6399.47752,0.87422
6397.54880,0.87253
6395.62009,0.87442
6393.69137,0.88003
6391.76266,0.88548
6389.83394,0.88698
6387.90523,0.88226
6385.97651,0.87546
6384.04780,0.87498
6382.11908,0.88012
6380.19037,0.87968
6378.26165,0.87179
6376.33294,0.86827
6374.40422,0.87176
6372.47550,0.87187
6370.54679,0.86611
6368.61807,0.86395
6366.68936,0.86552
6364.76064,0.86210
6362.83193,0.85704
6360.90321,0.85817
6358.97450,0.86378
6357.04578,0.86795
6355.11707,0.86735
6353.18835,0.86415
6351.25964,0.86180
6349.33092,0.86123
6347.40221,0.86313
6345.47349,0.86723
6343.54477,0.87022
6341.61606,0.87030
6339.68734,0.86933
6337.75863,0.86512
6335.82991,0.85795
6333.90120,0.85597
6331.97248,0.85932
6330.04377,0.86090
6328.11505,0.85924
6326.18634,0.85605
6324.25762,0.85361
6322.32891,0.85435
6320.40019,0.85771
6318.47147,0.86131
6316.54276,0.86302
6314.61404,0.86162
6312.68533,0.85832
6310.75661,0.85668
6308.82790,0.85829
6306.89918,0.85978
6304.97047,0.85738
6303.04175,0.85307
6301.11304,0.85103
6299.18432,0.84919
6297.25561,0.84585
6295.32689,0.84652
6293.39818,0.85154
6291.46946,0.85490
6289.54074,0.85511
6287.61203,0.85339
6285.68331,0.85066
6283.75460,0.84690
6281.82588,0.84272
6279.89717,0.84219
6277.96845,0.84567
6276.03974,0.84760
6274.11102,0.84616
6272.18231,0.84411
6270.25359,0.84165
6268.32488,0.83866
6266.39616,0.83791
6264.46745,0.83925
6262.53873,0.83951
6260.61001,0.83774
6258.68130,0.83446
6256.75258,0.83093
6254.82387,0.82962
6252.89515,0.83022
6250.96644,0.82954
6249.03772,0.82799
6247.10901,0.82809
6245.18029,0.82923
6243.25158,0.83111
6241.32286,0.83244
6239.39415,0.82853
6237.46543,0.82028
6235.53672,0.81417
6233.60800,0.81243
6231.67928,0.81182
6229.75057,0.80952
6227.82185,0.80546
6225.89314,0.80030
6223.96442,0.79583
6222.03571,0.79417
6220.10699,0.79468
6218.17828,0.79374
6216.24956,0.79032
6214.32085,0.78916
6212.39213,0.79072
6210.46342,0.78931
6208.53470,0.78386
6206.60598,0.77791
6204.67727,0.77329
6202.74855,0.76817
6200.81984,0.76120
6198.89112,0.75633
6196.96241,0.75713
6195.03369,0.75886
6193.10498,0.75461
6191.17626,0.74474
6189.24755,0.73344
6187.31883,0.72507
6185.39012,0.72076
6183.46140,0.71531
6181.53269,0.70837
6179.60397,0.70564
6177.67525,0.70482
6175.74654,0.70060
6173.81782,0.69554
6171.88911,0.69194
6169.96039,0.68881
6168.03168,0.68784
6166.10296,0.68902
6164.17425,0.68855
6162.24553,0.68569
6160.31682,0.68306
6158.38810,0.68045
6156.45939,0.67655
6154.53067,0.67447
6152.60196,0.67576
6150.67324,0.67590
6148.74452,0.67105
6146.81581,0.66227
6144.88709,0.65422
6142.95838,0.64972
6141.02966,0.64633
6139.10095,0.64162
6137.17223,0.63546
6135.24352,0.62639
6133.31480,0.61529
6131.38609,0.60713
6129.45737,0.60280
6127.52866,0.59808
6125.59994,0.59122
6123.67122,0.58441
6121.74251,0.57879
6119.81379,0.57331
6117.88508,0.56900
6115.95636,0.56734
6114.02765,0.56633
6112.09893,0.56336
6110.17022,0.55839
6108.24150,0.55212
6106.31279,0.54288
6104.38407,0.53077
6102.45536,0.52009
6100.52664,0.51200
6098.59793,0.50322
6096.66921,0.49194
6094.74049,0.47887
6092.81178,0.46511
6090.88306,0.45214
6088.95435,0.44022
6087.02563,0.42695
6085.09692,0.41103
6083.16820,0.39510
6081.23949,0.38343
6079.31077,0.37613
6077.38206,0.36847
6075.45334,0.35823
6073.52463,0.34731
6071.59591,0.33783
6069.66720,0.33084
6067.73848,0.32512
6065.80976,0.31942
6063.88105,0.31525
6061.95233,0.31318
6060.02362,0.31109
6058.09490,0.30812
6056.16619,0.30451
6054.23747,0.29895
6052.30876,0.28993
6050.38004,0.27834
6048.45133,0.26803
6046.52261,0.26049
6044.59390,0.25081
6042.66518,0.23643
6040.73647,0.22226
6038.80775,0.21110
6036.87903,0.19968
6034.95032,0.18641
6033.02160,0.17364
6031.09289,0.16277
6029.16417,0.15262
6027.23546,0.14128
6025.30674,0.12860
6023.37803,0.11668
6021.44931,0.10713
6019.52060,0.09954
6017.59188,0.09309
6015.66317,0.08599
6013.73445,0.07749
6011.80573,0.06900
6009.87702,0.06141
6007.94830,0.05542
6006.01959,0.05151
6004.09087,0.04880
6002.16216,0.04629
6000.23344,0.04350
5998.30473,0.04147
5996.37601,0.04127
5994.44730,0.04259
5992.51858,0.04519
5990.58987,0.04844
5988.66115,0.05218
5986.73244,0.05828
5984.80372,0.06561
5982.87500,0.07237
5980.94629,0.08028
5979.01757,0.09101
5977.08886,0.10342
5975.16014,0.11568
5973.23143,0.12775
5971.30271,0.14104
5969.37400,0.15361
5967.44528,0.16290
5965.51657,0.17047
5963.58785,0.17801
5961.65914,0.18478
5959.73042,0.18930
5957.80171,0.19124
5955.87299,0.19195
5953.94427,0.19249
5952.01556,0.19166
5950.08684,0.18799
5948.15813,0.18303
5946.22941,0.17878
5944.30070,0.17426
5942.37198,0.16832
5940.44327,0.16283
5938.51455,0.15979
5936.58584,0.15760
5934.65712,0.15475
5932.72841,0.15224
5930.79969,0.15030
5928.87097,0.14909
5926.94226,0.15015
5925.01354,0.15374
5923.08483,0.15738
5921.15611,0.16081
5919.22740,0.16654
5917.29868,0.17206
5915.36997,0.17445
5913.44125,0.17855
5911.51254,0.18750
5909.58382,0.19672
5907.65511,0.20182
5905.72639,0.20315
5903.79768,0.20332
5901.86896,0.20366
5899.94024,0.20334
5898.01153,0.20212
5896.08281,0.20195
5894.15410,0.20391
5892.22538,0.20702
5890.29667,0.21104
5888.36795,0.21620
5886.43924,0.22222
5884.51052,0.22948
5882.58181,0.23835
5880.65309,0.24868
5878.72438,0.26086
5876.79566,0.27452
5874.86695,0.28771
5872.93823,0.30094
5871.00951,0.31692
5869.08080,0.33327
5867.15208,0.34525
5865.22337,0.35533
5863.29465,0.36774
5861.36594,0.37986
5859.43722,0.38905
5857.50851,0.39804
5855.57979,0.40825
5853.65108,0.41724
5851.72236,0.42491
5849.79365,0.43277
5847.86493,0.43976
5845.93622,0.44626
5844.00750,0.45372
5842.07878,0.45985
5840.15007,0.46184
5838.22135,0.46061
5836.29264,0.45796
5834.36392,0.45452
5832.43521,0.45205
5830.50649,0.45089
5828.57778,0.44922
5826.64906,0.44830
5824.72035,0.44961
5822.79163,0.45089
5820.86292,0.45044
5818.93420,0.44984
5817.00548,0.45093
5815.07677,0.45320
5813.14805,0.45499
5811.21934,0.45615
5809.29062,0.45875
5807.36191,0.46310
5805.43319,0.46625
5803.50448,0.46750
5801.57576,0.46921
5799.64705,0.47133
5797.71833,0.47122
5795.78962,0.46873
5793.86090,0.46584
5791.93219,0.46174
5790.00347,0.45502
5788.07475,0.44725
5786.14604,0.43960
5784.21732,0.43139
5782.28861,0.42330
5780.35989,0.41651
5778.43118,0.41165
5776.50246,0.40836
5774.57375,0.40390
5772.64503,0.39766
5770.71632,0.39308
5768.78760,0.39117
5766.85889,0.39046
5764.93017,0.39127
5763.00146,0.39277
5761.07274,0.39385
5759.14402,0.39729
5757.21531,0.40436
5755.28659,0.41188
5753.35788,0.41778
5751.42916,0.42346
5749.50045,0.43038
5747.57173,0.43834
5745.64302,0.44850
5743.71430,0.46155
5741.78559,0.47498
5739.85687,0.48766
5737.92816,0.49970
5735.99944,0.51060
5734.07072,0.52097
5732.14201,0.53064
5730.21329,0.53869
5728.28458,0.54577
5726.35586,0.55269
5724.42715,0.56056
5722.49843,0.57019
5720.56972,0.57975
5718.64100,0.58749
5716.71229,0.59358
5714.78357,0.59872
5712.85486,0.60432
5710.92614,0.61066
5708.99743,0.61616
5707.06871,0.62032
5705.13999,0.62371
5703.21128,0.62581
5701.28256,0.62605
5699.35385,0.62481
5697.42513,0.62326
5695.49642,0.62256
5693.56770,0.62196
5691.63899,0.62050
5689.71027,0.61778
5687.78156,0.61325
5685.85284,0.60709
5683.92413,0.59930
5681.99541,0.59129
5680.06670,0.58569
5678.13798,0.58150
5676.20926,0.57627
5674.28055,0.57031
5672.35183,0.56447
5670.42312,0.55810
5668.49440,0.55159
5666.56569,0.54808
5664.63697,0.54853
5662.70826,0.55029
5660.77954,0.55276
5658.85083,0.55578
5656.92211,0.55795
5654.99340,0.56009
5653.06468,0.56332
5651.13597,0.56779
5649.20725,0.57331
5647.27853,0.57879
5645.34982,0.58408
5643.42110,0.59054
5641.49239,0.59810
5639.56367,0.60446
5637.63496,0.60957
5635.70624,0.61700
5633.77753,0.62826
5631.84881,0.63933
5629.92010,0.64551
5627.99138,0.64845
5626.06267,0.65296
5624.13395,0.65920
5622.20523,0.66509
5620.27652,0.67102
5618.34780,0.67732
5616.41909,0.68264
5614.49037,0.68683
5612.56166,0.69030
5610.63294,0.69201
5608.70423,0.69196
5606.77551,0.69152
5604.84680,0.69123
5602.91808,0.69067
5600.98937,0.68926
5599.06065,0.68812
5597.13194,0.68866
5595.20322,0.68977
5593.27450,0.68922
5591.34579,0.68591
5589.41707,0.68242
5587.48836,0.68211
5585.55964,0.68393
5583.63093,0.68479
5581.70221,0.68319
5579.77350,0.68069
5577.84478,0.67999
5575.91607,0.68029
5573.98735,0.67943
5572.05864,0.67785
5570.12992,0.67607
5568.20121,0.67367
5566.27249,0.67200
5564.34377,0.67208
5562.41506,0.67279
5560.48634,0.67330
5558.55763,0.67326
5556.62891,0.67274
5554.70020,0.67259
5552.77148,0.67260
5550.84277,0.67161
5548.91405,0.67007
5546.98534,0.66933
5545.05662,0.66875
5543.12791,0.66769
5541.19919,0.66680
5539.27047,0.66643
5537.34176,0.66719
5535.41304,0.66853
5533.48433,0.66959
5531.55561,0.67097
5529.62690,0.67173
5527.69818,0.67072
5525.76947,0.66950
5523.84075,0.66966
5521.91204,0.67049
5519.98332,0.67042
5518.05461,0.66997
5516.12589,0.67095
5514.19718,0.67309
5512.26846,0.67465
5510.33974,0.67451
5508.41103,0.67270
5506.48231,0.67003
5504.55360,0.66836
5502.62488,0.66911
5500.69617,0.67076
5498.76745,0.67050
5496.83874,0.66698
5494.91002,0.66186
5492.98131,0.65952
5491.05259,0.66024
5489.12388,0.66030
5487.19516,0.65997
5485.26645,0.65989
5483.33773,0.65802
5481.40901,0.65474
5479.48030,0.65176
5477.55158,0.64790
5475.62287,0.64375
5473.69415,0.64342
5471.76544,0.64493
5469.83672,0.64481
5467.90801,0.64531
5465.97929,0.64730
5464.05058,0.64791
5462.12186,0.64832
5460.19315,0.65179
5458.26443,0.65624
5456.33572,0.65870
5454.40700,0.66025
5452.47828,0.66207
5450.54957,0.66353
5448.62085,0.66411
5446.69214,0.66446
5444.76342,0.66592
5442.83471,0.66841
5440.90599,0.67112
5438.97728,0.67349
5437.04856,0.67477
5435.11985,0.67600
5433.19113,0.67680
5431.26242,0.67480
5429.33370,0.67324
5427.40498,0.67639
5425.47627,0.68038
5423.54755,0.68176
5421.61884,0.68151
5419.69012,0.68031
5417.76141,0.67678
5415.83269,0.67094
5413.90398,0.66682
5411.97526,0.66735
5410.04655,0.67055
5408.11783,0.67404
5406.18912,0.67582
5404.26040,0.67515
5402.33169,0.67426
5400.40297,0.67441
5398.47425,0.67350
5396.54554,0.67111
5394.61682,0.67089
5392.68811,0.67453
5390.75939,0.67800
5388.83068,0.67856
5386.90196,0.67800
5384.97325,0.67899
5383.04453,0.68174
5381.11582,0.68397
5379.18710,0.68359
5377.25839,0.68185
5375.32967,0.68189
5373.40096,0.68416
5371.47224,0.68738
5369.54352,0.68974
5367.61481,0.68922
5365.68609,0.68595
5363.75738,0.68360
5361.82866,0.68416
5359.89995,0.68409
5357.97123,0.68140
5356.04252,0.67696
5354.11380,0.67235
5352.18509,0.67059
5350.25637,0.67131
5348.32766,0.67134
5346.39894,0.66893
5344.47022,0.66665
5342.54151,0.66741
5340.61279,0.66722
5338.68408,0.66548
5336.75536,0.66690
5334.82665,0.66931
5332.89793,0.66944
5330.96922,0.66885
5329.04050,0.66823
5327.11179,0.66809
5325.18307,0.66967
5323.25436,0.67196
5321.32564,0.67348
5319.39693,0.67284
5317.46821,0.67062
5315.53949,0.66998
5313.61078,0.67163
5311.68206,0.67245
5309.75335,0.66959
5307.82463,0.66426
5305.89592,0.66026
5303.96720,0.65814
5302.03849,0.65582
5300.10977,0.65273
5298.18106,0.64966
5296.25234,0.64623
5294.32363,0.64126
5292.39491,0.63413
5290.46620,0.62523
5288.53748,0.61632
5286.60876,0.60744
5284.68005,0.59796
5282.75133,0.58837
5280.82262,0.57821
5278.89390,0.56768
5276.96519,0.55694
5275.03647,0.54548
5273.10776,0.53458
5271.17904,0.52538
5269.25033,0.51754
5267.32161,0.51102
5265.39290,0.50634
5263.46418,0.50493
5261.53547,0.50862
5259.60675,0.51581
5257.67803,0.52299
5255.74932,0.52972
5253.82060,0.53839
5251.89189,0.54793
5249.96317,0.55671
5248.03446,0.56737
5246.10574,0.58015
5244.17703,0.59289
5242.24831,0.60558
5240.31960,0.61735
5238.39088,0.62727
5236.46217,0.63567
5234.53345,0.64293
5232.60473,0.64963
5230.67602,0.65686
5228.74730,0.66362
5226.81859,0.66805
5224.88987,0.67203
5222.96116,0.67751
5221.03244,0.68279
5219.10373,0.68721
5217.17501,0.69150
5215.24630,0.69568
5213.31758,0.69879
5211.38887,0.69901
5209.46015,0.69588
5207.53144,0.69313
5205.60272,0.69500
5203.67400,0.69898
5201.74529,0.70112
5199.81657,0.70080
5197.88786,0.69927
5195.95914,0.69921
5194.03043,0.70003
5192.10171,0.69829
5190.17300,0.69517
5188.24428,0.69453
5186.31557,0.69604
5184.38685,0.69685
5182.45814,0.69624
5180.52942,0.69528
5178.60071,0.69531
5176.67199,0.69699
5174.74327,0.69834
5172.81456,0.69725
5170.88584,0.69563
5168.95713,0.69600
5167.02841,0.69682
5165.09970,0.69641
5163.17098,0.69652
5161.24227,0.69802
5159.31355,0.69915
5157.38484,0.69985
5155.45612,0.70162
5153.52741,0.70415
5151.59869,0.70602
5149.66997,0.70742
5147.74126,0.70931
5145.81254,0.71163
5143.88383,0.71370
5141.95511,0.71485
5140.02640,0.71549
5138.09768,0.71682
5136.16897,0.71911
5134.24025,0.72113
5132.31154,0.72182
5130.38282,0.72172
5128.45411,0.72160
5126.52539,0.72150
5124.59668,0.72194
5122.66796,0.72327
5120.73924,0.72394
5118.81053,0.72343
5116.88181,0.72394
5114.95310,0.72518
5113.02438,0.72554
5111.09567,0.72593
5109.16695,0.72663
5107.23824,0.72690
5105.30952,0.72677
5103.38081,0.72606
5101.45209,0.72500
5099.52338,0.72451
5097.59466,0.72383
5095.66595,0.72194
5093.73723,0.72020
5091.80851,0.71954
5089.87980,0.71935
5087.95108,0.71876
5086.02237,0.71689
5084.09365,0.71461
5082.16494,0.71379
5080.23622,0.71420
5078.30751,0.71417
5076.37879,0.71287
5074.45008,0.71208
5072.52136,0.71380
5070.59265,0.71598
5068.66393,0.71589
5066.73522,0.71473
5064.80650,0.71450
5062.87778,0.71490
5060.94907,0.71560
5059.02035,0.71699
5057.09164,0.71776
5055.16292,0.71730
5053.23421,0.71745
5051.30549,0.71844
5049.37678,0.71933
5047.44806,0.72040
5045.51935,0.72157
5043.59063,0.72231
5041.66192,0.72220
5039.73320,0.72057
5037.80448,0.71827
5035.87577,0.71761
5033.94705,0.71856
5032.01834,0.71867
5030.08962,0.71691
5028.16091,0.71452
5026.23219,0.71272
5024.30348,0.71143
5022.37476,0.71029
5020.44605,0.70930
5018.51733,0.70855
5016.58862,0.70759
5014.65990,0.70641
5012.73119,0.70574
5010.80247,0.70526
5008.87375,0.70445
5006.94504,0.70337
5005.01632,0.70237
5003.08761,0.70196
5001.15889,0.70125
4999.23018,0.69926
4997.30146,0.69689
4995.37275,0.69497
4993.44403,0.69345
4991.51532,0.69210
4989.58660,0.69029
4987.65789,0.68793
4985.72917,0.68637
4983.80046,0.68626
4981.87174,0.68644
4979.94302,0.68561
4978.01431,0.68362
4976.08559,0.68172
4974.15688,0.68042
4972.22816,0.67894
4970.29945,0.67767
4968.37073,0.67744
4966.44202,0.67748
4964.51330,0.67705
4962.58459,0.67667
4960.65587,0.67661
4958.72716,0.67651
4956.79844,0.67618
4954.86972,0.67599
4952.94101,0.67615
4951.01229,0.67607
4949.08358,0.67558
4947.15486,0.67522
4945.22615,0.67506
4943.29743,0.67494
4941.36872,0.67479
4939.44000,0.67403
4937.51129,0.67217
4935.58257,0.66961
4933.65386,0.66700
4931.72514,0.66464
4929.79643,0.66276
4927.86771,0.66074
4925.93899,0.65731
4924.01028,0.65264
4922.08156,0.64794
4920.15285,0.64318
4918.22413,0.63742
4916.29542,0.63112
4914.36670,0.62549
4912.43799,0.62058
4910.50927,0.61573
4908.58056,0.61047
4906.65184,0.60434
4904.72313,0.59830
4902.79441,0.59382
4900.86570,0.59029
4898.93698,0.58637
4897.00826,0.58223
4895.07955,0.57896
4893.15083,0.57659
4891.22212,0.57441
4889.29340,0.57232
4887.36469,0.57059
4885.43597,0.56978
4883.50726,0.56961
4881.57854,0.56895
4879.64983,0.56814
4877.72111,0.56731
4875.79240,0.56576
4873.86368,0.56387
4871.93497,0.56178
4870.00625,0.55841
4868.07753,0.55351
4866.14882,0.54834
4864.22010,0.54345
4862.29139,0.53829
4860.36267,0.53274
4858.43396,0.52665
4856.50524,0.52054
4854.57653,0.51552
4852.64781,0.51126
4850.71910,0.50716
4848.79038,0.50405
4846.86167,0.50249
4844.93295,0.50183
4843.00423,0.50162
4841.07552,0.50210
4839.14680,0.50364
4837.21809,0.50604
4835.28937,0.50844
4833.36066,0.51049
4831.43194,0.51261
4829.50323,0.51517
4827.57451,0.51827
4825.64580,0.52142
4823.71708,0.52414
4821.78837,0.52687
4819.85965,0.52993
4817.93094,0.53234
4816.00222,0.53358
4814.07350,0.53467
4812.14479,0.53628
4810.21607,0.53791
4808.28736,0.53909
4806.35864,0.53958
4804.42993,0.53911
4802.50121,0.53813
4800.57250,0.53709
4798.64378,0.53541
4796.71507,0.53280
4794.78635,0.53001
4792.85764,0.52738
4790.92892,0.52438
4789.00021,0.52092
4787.07149,0.51751
4785.14277,0.51392
4783.21406,0.50948
4781.28534,0.50428
4779.35663,0.49877
4777.42791,0.49330
4775.49920,0.48838
4773.57048,0.48374
4771.64177,0.47809
4769.71305,0.47102
4767.78434,0.46429
4765.85562,0.45924
4763.92691,0.45446
4761.99819,0.44820
4760.06948,0.44090
4758.14076,0.43404
4756.21204,0.42748
4754.28333,0.41992
4752.35461,0.41153
4750.42590,0.40295
4748.49718,0.39348
4746.56847,0.38271
4744.63975,0.37187
4742.71104,0.36140
4740.78232,0.34962
4738.85361,0.33558
4736.92489,0.32053
4734.99618,0.30581
4733.06746,0.29137
4731.13874,0.27623
4729.21003,0.25992
4727.28131,0.24349
4725.35260,0.22811
4723.42388,0.21331
4721.49517,0.19816
4719.56645,0.18255
4717.63774,0.16664
4715.70902,0.15077
4713.78031,0.13501
4711.85159,0.11888
4709.92288,0.10301
4707.99416,0.08887
4706.06545,0.07632
4704.13673,0.06439
4702.20801,0.05356
4700.27930,0.04493
4698.35058,0.03861
4696.42187,0.03385
4694.49315,0.02995
4692.56444,0.02670
4690.63572,0.02416
4688.70701,0.02216
4686.77829,0.02017
4684.84958,0.01803
4682.92086,0.01638
4680.99215,0.01578
4679.06343,0.01622
4677.13472,0.01756
4675.20600,0.01995
4673.27728,0.02310
4671.34857,0.02627
4669.41985,0.02970
4667.49114,0.03406
4665.56242,0.03905
4663.63371,0.04366
4661.70499,0.04702
4659.77628,0.04893
4657.84756,0.04969
4655.91885,0.04929
4653.99013,0.04754
4652.06142,0.04484
4650.13270,0.04179
4648.20398,0.03838
4646.27527,0.03451
4644.34655,0.03009
4642.41784,0.02540
4640.48912,0.02175
4638.56041,0.01967
4636.63169,0.01802
4634.70298,0.01668
4632.77426,0.01674
4630.84555,0.01792
4628.91683,0.01978
4626.98812,0.02345
4625.05940,0.02981
4623.13069,0.03925
4621.20197,0.05201
4619.27325,0.06744
4617.34454,0.08462
4615.41582,0.10260
4613.48711,0.12029
4611.55839,0.13688
4609.62968,0.15182
4607.70096,0.16466
4605.77225,0.17477
4603.84353,0.18137
4601.91482,0.18459
4599.98610,0.18521
4598.05739,0.18326
4596.12867,0.17898
4594.19996,0.17343
4592.27124,0.16680
4590.34252,0.15866
4588.41381,0.14957
4586.48509,0.14093
4584.55638,0.13369
4582.62766,0.12760
4580.69895,0.12217
4578.77023,0.11779
4576.84152,0.11551
4574.91280,0.11580
4572.98409,0.11848
4571.05537,0.12345
4569.12666,0.13084
4567.19794,0.14081
4565.26923,0.15341
4563.34051,0.16855
4561.41179,0.18577
4559.48308,0.20352
4557.55436,0.22041
4555.62565,0.23623
4553.69693,0.25030
4551.76822,0.26165
4549.83950,0.27049
4547.91079,0.27717
4545.98207,0.28114
4544.05336,0.28236
4542.12464,0.28192
4540.19593,0.28095
4538.26721,0.27990
4536.33849,0.27894
4534.40978,0.27836
4532.48106,0.27822
4530.55235,0.27858
4528.62363,0.27956
4526.69492,0.28094
4524.76620,0.28203
4522.83749,0.28246
4520.90877,0.28285
4518.98006,0.28358
4517.05134,0.28435
4515.12263,0.28463
4513.19391,0.28362
4511.26520,0.28131
4509.33648,0.27828
4507.40776,0.27418
4505.47905,0.26866
4503.55033,0.26217
4501.62162,0.25500
4499.69290,0.24693
4497.76419,0.23779
4495.83547,0.22809
4493.90676,0.21831
4491.97804,0.20871
4490.04933,0.19968
4488.12061,0.19121
4486.19190,0.18342
4484.26318,0.17681
4482.33447,0.17150
4480.40575,0.16778
4478.47703,0.16553
4476.54832,0.16415
4474.61960,0.16368
4472.69089,0.16392
4470.76217,0.16384
4468.83346,0.16315
4466.90474,0.16275
4464.97603,0.16274
4463.04731,0.16171
4461.11860,0.15899
4459.18988,0.15523
4457.26117,0.15068
4455.33245,0.14473
4453.40373,0.13740
4451.47502,0.12915
4449.54630,0.12040
4447.61759,0.11170
4445.68887,0.10302
4443.76016,0.09391
4441.83144,0.08467
4439.90273,0.07604
4437.97401,0.06840
4436.04530,0.06142
4434.11658,0.05449
4432.18787,0.04753
4430.25915,0.04112
4428.33044,0.03566
4426.40172,0.03096
4424.47300,0.02675
4422.54429,0.02298
4420.61557,0.01959
4418.68686,0.01679
4416.75814,0.01491
4414.82943,0.01353
4412.90071,0.01173
4410.97200,0.00952
4409.04328,0.00789
4407.11457,0.00739
4405.18585,0.00762
4403.25714,0.00822
4401.32842,0.00908
4399.39971,0.01006
4397.47099,0.01144
4395.54227,0.01354
4393.61356,0.01596
4391.68484,0.01807
4389.75613,0.01958
4387.82741,0.02015
4385.89870,0.01967
4383.96998,0.01855
4382.04127,0.01696
4380.11255,0.01499
4378.18384,0.01322
4376.25512,0.01187
4374.32641,0.01068
4372.39769,0.00960
4370.46898,0.00862
4368.54026,0.00768
4366.61154,0.00688
4364.68283,0.00645
4362.75411,0.00628
4360.82540,0.00595
4358.89668,0.00552
4356.96797,0.00526
4355.03925,0.00516
4353.11054,0.00501
4351.18182,0.00444
4349.25311,0.00363
4347.32439,0.00347
4345.39568,0.00406
4343.46696,0.00439
4341.53824,0.00404
4339.60953,0.00358
4337.68081,0.00318
4335.75210,0.00253
4333.82338,0.00174
4331.89467,0.00131
4329.96595,0.00146
4328.03724,0.00181
4326.10852,0.00179
4324.17981,0.00182
4322.25109,0.00241
4320.32238,0.00309
4318.39366,0.00290
4316.46495,0.00224
4314.53623,0.00228
4312.60751,0.00299
4310.67880,0.00343
4308.75008,0.00356
4306.82137,0.00354
4304.89265,0.00339
4302.96394,0.00336
4301.03522,0.00365
4299.10651,0.00397
4297.17779,0.00407
4295.24908,0.00418
4293.32036,0.00460
4291.39165,0.00517
4289.46293,0.00560
4287.53422,0.00580
4285.60550,0.00615
4283.67678,0.00664
4281.74807,0.00685
4279.81935,0.00710
4277.89064,0.00779
4275.96192,0.00851
4274.03321,0.00883
4272.10449,0.00896
4270.17578,0.00960
4268.24706,0.01078
4266.31835,0.01158
4264.38963,0.01182
4262.46092,0.01238
4260.53220,0.01327
4258.60348,0.01400
4256.67477,0.01475
4254.74605,0.01559
4252.81734,0.01629
4250.88862,0.01690
4248.95991,0.01728
4247.03119,0.01724
4245.10248,0.01702
4243.17376,0.01680
4241.24505,0.01657
4239.31633,0.01619
4237.38762,0.01539
4235.45890,0.01439
4233.53019,0.01366
4231.60147,0.01329
4229.67275,0.01319
4227.74404,0.01319
4225.81532,0.01310
4223.88661,0.01269
4221.95789,0.01198
4220.02918,0.01150
4218.10046,0.01129
4216.17175,0.01088
4214.24303,0.01042
4212.31432,0.01008
4210.38560,0.00963
4208.45689,0.00932
4206.52817,0.00917
4204.59946,0.00885
4202.67074,0.00862
4200.74202,0.00858
4198.81331,0.00844
4196.88459,0.00825
4194.95588,0.00813
4193.02716,0.00807
4191.09845,0.00798
4189.16973,0.00771
4187.24102,0.00722
4185.31230,0.00665
4183.38359,0.00654
4181.45487,0.00706
4179.52616,0.00735
4177.59744,0.00714
4175.66873,0.00683
4173.74001,0.00622
4171.81129,0.00550
4169.88258,0.00544
4167.95386,0.00603
4166.02515,0.00674
4164.09643,0.00756
4162.16772,0.00871
4160.23900,0.00994
4158.31029,0.01108
4156.38157,0.01244
4154.45286,0.01399
4152.52414,0.01552
4150.59543,0.01733
4148.66671,0.01952
4146.73799,0.02133
4144.80928,0.02219
4142.88056,0.02260
4140.95185,0.02316
4139.02313,0.02342
4137.09442,0.02304
4135.16570,0.02273
4133.23699,0.02296
4131.30827,0.02327
4129.37956,0.02323
4127.45084,0.02282
4125.52213,0.02203
4123.59341,0.02086
4121.66470,0.01962
4119.73598,0.01846
4117.80726,0.01711
4115.87855,0.01550
4113.94983,0.01369
4112.02112,0.01166
4110.09240,0.00950
4108.16369,0.00722
4106.23497,0.00501
4104.30626,0.00354
4102.37754,0.00289
4100.44883,0.00240
4098.52011,0.00160
4096.59140,0.00066
4094.66268,0.00015
4092.73397,0.00031
4090.80525,0.00058
4088.87653,0.00054
4086.94782,0.00022
4085.01910,0.00047
4083.09039,0.00074
4081.16167,0.00082
4079.23296,0.00058
4077.30424,0.00035
4075.37553,0.00046
4073.44681,0.00073
4071.51810,0.00080
4069.58938,0.00049
4067.66067,0.00034
4065.73195,0.00048
4063.80323,0.00061
4061.87452,0.00115
4059.94580,0.00151
4058.01709,0.00146
4056.08837,0.00136
4054.15966,0.00166
4052.23094,0.00230
4050.30223,0.00324
4048.37351,0.00472
4046.44480,0.00670
4044.51608,0.00883
4042.58737,0.01117
4040.65865,0.01408
4038.72994,0.01738
4036.80122,0.02037
4034.87250,0.02251
4032.94379,0.02369
4031.01507,0.02404
4029.08636,0.02388
4027.15764,0.02346
4025.22893,0.02288
4023.30021,0.02227
4021.37150,0.02164
4019.44278,0.02105
4017.51407,0.02081
4015.58535,0.02101
4013.65664,0.02123
4011.72792,0.02134
4009.79921,0.02172
4007.87049,0.02246
4005.94177,0.02301
4004.01306,0.02291
4002.08434,0.02261
4000.15563,0.02244
3998.22691,0.02203
3996.29820,0.02130
3994.36948,0.02067
3992.44077,0.02028
3990.51205,0.01999
3988.58334,0.01985
3986.65462,0.01990
3984.72591,0.02000
3982.79719,0.02023
3980.86848,0.02084
3978.93976,0.02168
3977.01104,0.02278
3975.08233,0.02428
3973.15361,0.02594
3971.22490,0.02788
3969.29618,0.03041
3967.36747,0.03310
3965.43875,0.03518
3963.51004,0.03642
3961.58132,0.03691
3959.65261,0.03660
3957.72389,0.03558
3955.79518,0.03424
3953.86646,0.03285
3951.93774,0.03152
3950.00903,0.03041
3948.08031,0.02965
3946.15160,0.02920
3944.22288,0.02890
3942.29417,0.02879
3940.36545,0.02885
3938.43674,0.02877
3936.50802,0.02832
3934.57931,0.02775
3932.65059,0.02780
3930.72188,0.02864
3928.79316,0.02931
3926.86445,0.02918
3924.93573,0.02841
3923.00701,0.02757
3921.07830,0.02657
3919.14958,0.02516
3917.22087,0.02354
3915.29215,0.02215
3913.36344,0.02128
3911.43472,0.02083
3909.50601,0.02038
3907.57729,0.01960
3905.64858,0.01843
3903.71986,0.01732
3901.79115,0.01685
3899.86243,0.01651
3897.93372,0.01589
3896.00500,0.01530
3894.07628,0.01488
3892.14757,0.01452
3890.21885,0.01400
3888.29014,0.01347
3886.36142,0.01283
3884.43271,0.01175
3882.50399,0.01084
3880.57528,0.01090
3878.64656,0.01214
3876.71785,0.01376
3874.78913,0.01564
3872.86042,0.01839
3870.93170,0.02286
3869.00298,0.02814
3867.07427,0.03193
3865.14555,0.03576
3863.21684,0.04111
3861.28812,0.04616
3859.35941,0.04966
3857.43069,0.05183
3855.50198,0.05372
3853.57326,0.05798
3851.64455,0.06379
3849.71583,0.06771
3847.78712,0.07072
3845.85840,0.07330
3843.92969,0.07552
3842.00097,0.07749
3840.07225,0.07918
3838.14354,0.08124
3836.21482,0.08363
3834.28611,0.08532
3832.35739,0.08626
3830.42868,0.08670
3828.49996,0.08655
3826.57125,0.08566
3824.64253,0.08428
3822.71382,0.08256
3820.78510,0.08107
3818.85639,0.08079
3816.92767,0.08091
3814.99896,0.08117
3813.07024,0.08147
3811.14152,0.08135
3809.21281,0.08098
3807.28409,0.08153
3805.35538,0.08332
3803.42666,0.08536
3801.49795,0.08883
3799.56923,0.09341
3797.64052,0.09762
3795.71180,0.10232
3793.78309,0.10722
3791.85437,0.11170
3789.92566,0.11588
3787.99694,0.11976
3786.06823,0.12344
3784.13951,0.12696
3782.21079,0.12957
3780.28208,0.13095
3778.35336,0.13117
3776.42465,0.13009
3774.49593,0.12772
3772.56722,0.12396
3770.63850,0.11846
3768.70979,0.11200
3766.78107,0.10570
3764.85236,0.09921
3762.92364,0.09283
3760.99493,0.08611
3759.06621,0.07838
3757.13749,0.07161
3755.20878,0.06674
3753.28006,0.06254
3751.35135,0.05849
3749.42263,0.05655
3747.49392,0.05650
3745.56520,0.05631
3743.63649,0.05601
3741.70777,0.05663
3739.77906,0.05780
3737.85034,0.05899
3735.92163,0.06129
3733.99291,0.06540
3732.06420,0.06924
3730.13548,0.07187
3728.20676,0.07330
3726.27805,0.07365
3724.34933,0.07311
3722.42062,0.07154
3720.49190,0.06854
3718.56319,0.06433
3716.63447,0.05970
3714.70576,0.05492
3712.77704,0.04906
3710.84833,0.04166
3708.91961,0.03538
3706.99090,0.03074
3705.06218,0.02652
3703.13347,0.02217
3701.20475,0.01761
3699.27603,0.01362
3697.34732,0.01057
3695.41860,0.00803
3693.48989,0.00576
3691.56117,0.00382
3689.63246,0.00223
3687.70374,0.00110
3685.77503,0.00058
3683.84631,0.00079
3681.91760,0.00092
3679.98888,0.00064
3678.06017,0.00037
3676.13145,0.00088
3674.20273,0.00134
3672.27402,0.00124
3670.34530,0.00106
3668.41659,0.00139
3666.48787,0.00106
3664.55916,0.00071
3662.63044,0.00050
3660.70173,0.00056
3658.77301,0.00080
3656.84430,0.00175
3654.91558,0.00291
3652.98687,0.00364
3651.05815,0.00451
3649.12944,0.00633
3647.20072,0.00885
3645.27200,0.01094
3643.34329,0.01288
3641.41457,0.01520
3639.48586,0.01791
3637.55714,0.02059
3635.62843,0.02291
3633.69971,0.02514
3631.77100,0.02746
3629.84228,0.03068
3627.91357,0.03561
3625.98485,0.04004
3624.05614,0.04361
3622.12742,0.04717
3620.19871,0.05129
3618.26999,0.05564
3616.34127,0.05851
3614.41256,0.05975
3612.48384,0.06024
3610.55513,0.05992
3608.62641,0.05741
3606.69770,0.05261
3604.76898,0.04703
3602.84027,0.04069
3600.91155,0.03327
3598.98284,0.02611
3597.05412,0.02022
3595.12541,0.01503
3593.19669,0.01070
3591.26798,0.00782
3589.33926,0.00593
3587.41054,0.00455
3585.48183,0.00365
3583.55311,0.00303
3581.62440,0.00258
3579.69568,0.00213
3577.76697,0.00161
3575.83825,0.00135
3573.90954,0.00134
3571.98082,0.00129
3570.05211,0.00134
3568.12339,0.00175
3566.19468,0.00199
3564.26596,0.00185
3562.33724,0.00162
3560.40853,0.00156
3558.47981,0.00154
3556.55110,0.00163
3554.62238,0.00182
3552.69367,0.00166
3550.76495,0.00098
3548.83624,0.00055
3546.90752,0.00058
3544.97881,0.00061
3543.05009,0.00032
3541.12138,0.00025
3539.19266,0.00038
3537.26395,0.00047
3535.33523,0.00045
3533.40651,0.00030
3531.47780,0.00024
3529.54908,0.00056
3527.62037,0.00077
3525.69165,0.00059
3523.76294,0.00048
3521.83422,0.00072
3519.90551,0.00068
3517.97679,0.00058
3516.04808,0.00016
3514.11936,0.00041
3512.19065,0.00092
3510.26193,0.00179
3508.33322,0.00263
3506.40450,0.00335
3504.47578,0.00446
3502.54707,0.00618
3500.61835,0.00786
3498.68964,0.00918
3496.76092,0.01045
3494.83221,0.01189
3492.90349,0.01336
3490.97478,0.01452
3489.04606,0.01550
3487.11735,0.01684
3485.18863,0.01831
3483.25992,0.01953
3481.33120,0.02078
3479.40248,0.02208
3477.47377,0.02318
3475.54505,0.02428
3473.61634,0.02580
3471.68762,0.02769
3469.75891,0.02981
3467.83019,0.03205
3465.90148,0.03419
3463.97276,0.03643
3462.04405,0.03901
3460.11533,0.04184
3458.18662,0.04491
3456.25790,0.04830
3454.32919,0.05166
3452.40047,0.05448
3450.47175,0.05705
3448.54304,0.06005
3446.61432,0.06349
3444.68561,0.06682
3442.75689,0.06978
3440.82818,0.07259
3438.89946,0.07558
3436.97075,0.07886
3435.04203,0.08212
3433.11332,0.08539
3431.18460,0.08866
3429.25589,0.09144
3427.32717,0.09372
3425.39846,0.09601
3423.46974,0.09842
3421.54102,0.10087
3419.61231,0.10313
3417.68359,0.10469
3415.75488,0.10537
3413.82616,0.10550
3411.89745,0.10517
3409.96873,0.10430
3408.04002,0.10316
3406.11130,0.10205
3404.18259,0.10067
3402.25387,0.09865
3400.32516,0.09616
3398.39644,0.09342
3396.46773,0.09040
3394.53901,0.08709
3392.61029,0.08358
3390.68158,0.07984
3388.75286,0.07603
3386.82415,0.07268
3384.89543,0.07002
3382.96672,0.06759
3381.03800,0.06493
3379.10929,0.06245
3377.18057,0.06075
3375.25186,0.05941
3373.32314,0.05804
3371.39443,0.05720
3369.46571,0.05708
3367.53699,0.05719
3365.60828,0.05707
3363.67956,0.05707
3361.75085,0.05765
3359.82213,0.05850
3357.89342,0.05927
3355.96470,0.05986
3354.03599,0.06029
3352.10727,0.06078
3350.17856,0.06125
3348.24984,0.06141
3346.32113,0.06123
3344.39241,0.06077
3342.46370,0.06011
3340.53498,0.05955
3338.60626,0.05911
3336.67755,0.05831
3334.74883,0.05686
3332.82012,0.05514
3330.89140,0.05348
3328.96269,0.05141
3327.03397,0.04871
3325.10526,0.04591
3323.17654,0.04323
3321.24783,0.04060
3319.31911,0.03805
3317.39040,0.03539
3315.46168,0.03251
3313.53297,0.02976
3311.60425,0.02739
3309.67553,0.02521
3307.74682,0.02314
3305.81810,0.02146
3303.88939,0.02020
3301.96067,0.01889
3300.03196,0.01742
3298.10324,0.01626
3296.17453,0.01539
3294.24581,0.01432
3292.31710,0.01330
3290.38838,0.01288
3288.45967,0.01266
3286.53095,0.01201
3284.60223,0.01127
3282.67352,0.01100
3280.74480,0.01083
3278.81609,0.01041
3276.88737,0.01015
3274.95866,0.00984
3273.02994,0.00910
3271.10123,0.00860
3269.17251,0.00864
3267.24380,0.00853
3265.31508,0.00781
3263.38637,0.00689
3261.45765,0.00649
3259.52894,0.00664
3257.60022,0.00667
3255.67150,0.00628
3253.74279,0.00583
3251.81407,0.00556
3249.88536,0.00540
3247.95664,0.00534
3246.02793,0.00511
3244.09921,0.00451
3242.17050,0.00401
3240.24178,0.00402
3238.31307,0.00408
3236.38435,0.00382
3234.45564,0.00351
3232.52692,0.00338
3230.59821,0.00338
3228.66949,0.00346
3226.74077,0.00351
3224.81206,0.00341
3222.88334,0.00320
3220.95463,0.00301
3219.02591,0.00282
3217.09720,0.00266
3215.16848,0.00249
3213.23977,0.00223
3211.31105,0.00192
3209.38234,0.00157
3207.45362,0.00104
3205.52491,0.00060
3203.59619,0.00056
3201.66748,0.00065
3199.73876,0.00051
3197.81004,0.00026
3195.88133,0.00006
3193.95261,0.00002
3192.02390,0.00021
3190.09518,0.00042
3188.16647,0.00045
3186.23775,0.00049
3184.30904,0.00058
3182.38032,0.00055
3180.45161,0.00063
3178.52289,0.00090
3176.59418,0.00091
3174.66546,0.00089
3172.73674,0.00109
3170.80803,0.00108
3168.87931,0.00067
3166.95060,0.00052
3165.02188,0.00064
3163.09317,0.00062
3161.16445,0.00063
3159.23574,0.00055
3157.30702,0.00046
3155.37831,0.00057
3153.44959,0.00061
3151.52088,0.00067
3149.59216,0.00076
3147.66345,0.00040
3145.73473,-0.00018
3143.80601,0.00061
3141.87730,0.00079
3139.94858,0.00066
3138.01987,0.00061
3136.09115,0.00061
3134.16244,0.00039
3132.23372,0.00028
3130.30501,0.00041
3128.37629,0.00073
3126.44758,0.00078
3124.51886,0.00065
3122.59015,0.00059
3120.66143,0.00041
3118.73272,0.00016
3116.80400,0.00023
3114.87528,0.00035
3112.94657,0.00038
3111.01785,0.00016
3109.08914,0.00010
3107.16042,0.00016
3105.23171,0.00039
3103.30299,0.00059
3101.37428,0.00056
3099.44556,0.00052
3097.51685,0.00053
3095.58813,0.00047
3093.65942,0.00040
3091.73070,0.00037
3089.80198,0.00056
3087.87327,0.00047
3085.94455,0.00043
3084.01584,0.00076
3082.08712,0.00085
3080.15841,0.00053
3078.22969,0.00028
3076.30098,0.00034
3074.37226,0.00065
3072.44355,0.00071
3070.51483,0.00064
3068.58612,0.00053
3066.65740,0.00061
3064.72869,0.00077
3062.79997,0.00078
3060.87125,0.00060
3058.94254,0.00047
3057.01382,0.00043
3055.08511,0.00042
3053.15639,0.00043
3051.22768,0.00040
3049.29896,0.00034
3047.37025,0.00054
3045.44153,0.00085
3043.51282,0.00090
3041.58410,0.00065
3039.65539,0.00059
3037.72667,0.00079
3035.79796,0.00094
3033.86924,0.00073
3031.94052,0.00040
3030.01181,0.00024
3028.08309,0.00026
3026.15438,0.00042
3024.22566,0.00068
3022.29695,0.00086
3020.36823,0.00101
3018.43952,0.00104
3016.51080,0.00090
3014.58209,0.00074
3012.65337,0.00060
3010.72466,0.00047
3008.79594,0.00039
3006.86723,0.00025
3004.93851,0.00030
3003.00979,0.00049
3001.08108,0.00051
2999.15236,0.00057
2997.22365,0.00077
2995.29493,0.00078
2993.36622,0.00044
2991.43750,0.00026
2989.50879,0.00023
2987.58007,-0.00009
2985.65136,0.00006
2983.72264,0.00045
2981.79393,0.00058
2979.86521,0.00054
2977.93649,0.00061
2976.00778,0.00051
2974.07906,0.00033
2972.15035,0.00024
2970.22163,0.00026
2968.29292,0.00047
2966.36420,0.00069
2964.43549,0.00077
2962.50677,0.00079
2960.57806,0.00082
2958.64934,0.00082
2956.72063,0.00066
2954.79191,0.00046
2952.86320,0.00036
2950.93448,0.00015
2949.00576,0.00008
2947.07705,0.00041
2945.14833,0.00044
2943.21962,0.00054
2941.29090,0.00076
2939.36219,0.00080
2937.43347,0.00064
2935.50476,0.00072
2933.57604,0.00068
2931.64733,0.00043
2929.71861,0.00020
2927.78990,0.00019
2925.86118,0.00043
2923.93247,0.00064
2922.00375,0.00042
2920.07503,0.00033
2918.14632,0.00047
2916.21760,0.00037
2914.28889,0.00042
2912.36017,0.00059
2910.43146,0.00060
2908.50274,0.00042
2906.57403,0.00014
2904.64531,0.00005
2902.71660,0.00022
2900.78788,0.00021
2898.85917,0.00017
2896.93045,0.00031
2895.00173,0.00032
2893.07302,0.00021
2891.14430,0.00032
2889.21559,0.00053
2887.28687,0.00053
2885.35816,0.00035
2883.42944,0.00018
2881.50073,0.00038
2879.57201,0.00049
2877.64330,0.00028
2875.71458,0.00017
2873.78587,0.00005
2871.85715,0.00017
2869.92844,0.00059
2867.99972,0.00079
2866.07100,0.00055
2864.14229,0.00012
2862.21357,0.00044
2860.28486,0.00066
2858.35614,0.00052
2856.42743,0.00035
2854.49871,0.00034
2852.57000,0.00007
2850.64128,-0.00021
2848.71257,0.00014
2846.78385,0.00042
2844.85514,0.00072
2842.92642,0.00077
2840.99771,0.00059
2839.06899,0.00033
2837.14027,0.00004
2835.21156,0.00037
2833.28284,0.00038
2831.35413,0.00049
2829.42541,0.00075
2827.49670,0.00100
2825.56798,0.00106
2823.63927,0.00092
2821.71055,0.00075
2819.78184,0.00054
2817.85312,0.00044
2815.92441,0.00057
2813.99569,0.00057
2812.06698,0.00040
2810.13826,0.00038
2808.20954,0.00040
2806.28083,0.00024
2804.35211,0.00024
2802.42340,0.00037
2800.49468,0.00054
2798.56597,0.00077
2796.63725,0.00085
2794.70854,0.00069
2792.77982,0.00051
2790.85111,0.00044
2788.92239,0.00043
2786.99368,0.00032
2785.06496,0.00034
2783.13624,0.00036
2781.20753,0.00038
2779.27881,0.00041
2777.35010,0.00047
2775.42138,0.00047
2773.49267,0.00029
2771.56395,0.00036
2769.63524,0.00068
2767.70652,0.00096
2765.77781,0.00127
2763.84909,0.00159
2761.92038,0.00193
2759.99166,0.00237
2758.06295,0.00305
2756.13423,0.00413
2754.20551,0.00541
2752.27680,0.00638
2750.34808,0.00692
2748.41937,0.00730
2746.49065,0.00766
2744.56194,0.00772
2742.63322,0.00729
2740.70451,0.00665
2738.77579,0.00605
2736.84708,0.00536
2734.91836,0.00451
2732.98965,0.00370
2731.06093,0.00323
2729.13222,0.00326
2727.20350,0.00359
2725.27478,0.00385
2723.34607,0.00378
2721.41735,0.00323
2719.48864,0.00253
2717.55992,0.00223
2715.63121,0.00227
2713.70249,0.00246
2711.77378,0.00302
2709.84506,0.00402
2707.91635,0.00540
2705.98763,0.00713
2704.05892,0.00901
2702.13020,0.01075
2700.20149,0.01234
2698.27277,0.01400
2696.34405,0.01577
2694.41534,0.01740
2692.48662,0.01882
2690.55791,0.02019
2688.62919,0.02154
2686.70048,0.02250
2684.77176,0.02289
2682.84305,0.02288
2680.91433,0.02253
2678.98562,0.02174
2677.05690,0.02070
2675.12819,0.01969
2673.19947,0.01886
2671.27075,0.01838
2669.34204,0.01824
2667.41332,0.01835
2665.48461,0.01873
2663.55589,0.01949
2661.62718,0.02057
2659.69846,0.02195
2657.76975,0.02380
2655.84103,0.02620
2653.91232,0.02896
2651.98360,0.03194
2650.05489,0.03508
2648.12617,0.03811
2646.19746,0.04069
2644.26874,0.04264
2642.34002,0.04370
2640.41131,0.04361
2638.48259,0.04247
2636.55388,0.04042
2634.62516,0.03749
2632.69645,0.03381
2630.76773,0.02959
2628.83902,0.02501
2626.91030,0.02035
2624.98159,0.01604
2623.05287,0.01225
2621.12416,0.00908
2619.19544,0.00676
2617.26673,0.00525
2615.33801,0.00427
2613.40929,0.00372
2611.48058,0.00360
2609.55186,0.00364
2607.62315,0.00359
2605.69443,0.00359
2603.76572,0.00364
2601.83700,0.00353
2599.90829,0.00335
2597.97957,0.00327
2596.05086,0.00327
2594.12214,0.00323
2592.19343,0.00318
2590.26471,0.00312
2588.33599,0.00305
2586.40728,0.00314
2584.47856,0.00346
2582.54985,0.00384
2580.62113,0.00420
2578.69242,0.00465
2576.76370,0.00521
2574.83499,0.00587
2572.90627,0.00673
2570.97756,0.00795
2569.04884,0.00956
2567.12013,0.01138
2565.19141,0.01317
2563.26270,0.01459
2561.33398,0.01534
2559.40526,0.01543
2557.47655,0.01512
2555.54783,0.01457
2553.61912,0.01381
2551.69040,0.01287
2549.76169,0.01175
2547.83297,0.01060
2545.90426,0.00968
2543.97554,0.00890
2542.04683,0.00798
2540.11811,0.00682
2538.18940,0.00567
2536.26068,0.00486
2534.33197,0.00435
2532.40325,0.00395
2530.47453,0.00372
2528.54582,0.00370
2526.61710,0.00388
2524.68839,0.00422
2522.75967,0.00469
2520.83096,0.00515
2518.90224,0.00539
2516.97353,0.00532
2515.04481,0.00501
2513.11610,0.00442
2511.18738,0.00360
2509.25867,0.00288
2507.32995,0.00252
2505.40124,0.00238
2503.47252,0.00212
2501.54380,0.00171
2499.61509,0.00134
2497.68637,0.00104
2495.75766,0.00083
2493.82894,0.00060
2491.90023,0.00029
2489.97151,0.00014
2488.04280,0.00020
2486.11408,0.00023
2484.18537,0.00030
2482.25665,0.00031
2480.32794,0.00022
2478.39922,0.00012
2476.47050,0.00009
2474.54179,0.00012
2472.61307,0.00029
2470.68436,0.00051
2468.75564,0.00064
2466.82693,0.00055
2464.89821,0.00035
2462.96950,0.00025
2461.04078,0.00040
2459.11207,0.00024
2457.18335,0.00008
2455.25464,0.00020
2453.32592,0.00042
2451.39721,0.00039
2449.46849,0.00019
2447.53977,0.00004
2445.61106,0.00015
2443.68234,0.00030
2441.75363,0.00021
2439.82491,-0.00002
2437.89620,0.00021
2435.96748,0.00036
2434.03877,0.00038
2432.11005,0.00037
2430.18134,0.00036
2428.25262,0.00023
2426.32391,0.00016
2424.39519,0.00030
2422.46648,0.00034
2420.53776,0.00019
2418.60904,0.00019
2416.68033,0.00023
2414.75161,0.00033
2412.82290,0.00040
2410.89418,0.00032
2408.96547,0.00020
2407.03675,0.00008
2405.10804,0.00012
2403.17932,0.00019
2401.25061,0.00022
2399.32189,0.00026
2397.39318,0.00027
2395.46446,0.00038
2393.53574,0.00057
2391.60703,0.00062
2389.67831,0.00052
2387.74960,0.00036
2385.82088,0.00028
2383.89217,0.00035
2381.96345,0.00026
2380.03474,0.00008
2378.10602,0.00000
2376.17731,0.00027
2374.24859,0.00058
2372.31988,0.00060
2370.39116,0.00036
2368.46245,0.00036
2366.53373,0.00070
2364.60501,0.00122
2362.67630,0.00153
2360.74758,0.00145
2358.81887,0.00145
2356.89015,0.00176
2354.96144,0.00180
2353.03272,0.00158
2351.10401,0.00150
2349.17529,0.00156
2347.24658,0.00143
2345.31786,0.00089
2343.38915,0.00044
2341.46043,0.00037
2339.53172,0.00032
2337.60300,0.00035
2335.67428,0.00061
2333.74557,0.00108
2331.81685,0.00114
2329.88814,0.00074
2327.95942,0.00044
2326.03071,0.00045
2324.10199,0.00040
2322.17328,0.00038
2320.24456,0.00045
2318.31585,0.00053
2316.38713,0.00046
2314.45842,0.00028
2312.52970,0.00017
2310.60099,0.00028
2308.67227,0.00054
2306.74355,0.00064
2304.81484,0.00049
2302.88612,0.00038
2300.95741,0.00037
2299.02869,0.00029
2297.09998,0.00027
2295.17126,0.00036
2293.24255,0.00044
2291.31383,0.00058
2289.38512,0.00074
2287.45640,0.00069
2285.52769,0.00056
2283.59897,0.00049
2281.67025,0.00039
2279.74154,0.00026
2277.81282,0.00015
2275.88411,0.00003
2273.95539,0.00011
2272.02668,0.00030
2270.09796,0.00046
2268.16925,0.00043
2266.24053,0.00026
2264.31182,0.00017
2262.38310,0.00024
2260.45439,0.00049
2258.52567,0.00058
2256.59696,0.00045
2254.66824,0.00031
2252.73952,0.00027
2250.81081,0.00029
2248.88209,0.00016
2246.95338,0.00014
2245.02466,0.00031
2243.09595,0.00034
2241.16723,0.00022
2239.23852,0.00011
2237.30980,0.00013
2235.38109,0.00023
2233.45237,0.00024
2231.52366,0.00020
2229.59494,0.00022
2227.66623,0.00023
2225.73751,0.00032
2223.80879,0.00026
2221.88008,0.00022
2219.95136,0.00026
2218.02265,0.00030
2216.09393,0.00034
2214.16522,0.00029
2212.23650,0.00008
2210.30779,0.00005
2208.37907,0.00027
2206.45036,0.00042
2204.52164,0.00038
2202.59293,0.00025
2200.66421,0.00015
2198.73549,0.00025
2196.80678,0.00049
2194.87806,0.00055
2192.94935,0.00041
2191.02063,0.00024
2189.09192,0.00007
2187.16320,0.00005
2185.23449,0.00022
2183.30577,0.00046
2181.37706,0.00040
2179.44834,0.00015
2177.51963,0.00009
2175.59091,0.00018
2173.66220,0.00022
2171.73348,0.00032
2169.80476,0.00030
2167.87605,0.00020
2165.94733,0.00023
2164.01862,0.00038
2162.08990,0.00074
2160.16119,0.00125
2158.23247,0.00165
2156.30376,0.00204
2154.37504,0.00275
2152.44633,0.00360
2150.51761,0.00408
2148.58890,0.00404
2146.66018,0.00382
2144.73147,0.00366
2142.80275,0.00339
2140.87403,0.00288
2138.94532,0.00238
2137.01660,0.00204
2135.08789,0.00175
2133.15917,0.00145
2131.23046,0.00117
2129.30174,0.00095
2127.37303,0.00086
2125.44431,0.00080
2123.51560,0.00059
2121.58688,0.00036
2119.65817,0.00029
2117.72945,0.00028
2115.80074,0.00022
2113.87202,0.00025
2111.94330,0.00034
2110.01459,0.00040
2108.08587,0.00039
2106.15716,0.00042
2104.22844,0.00038
2102.29973,0.00020
2100.37101,-0.00000
2098.44230,0.00004
2096.51358,0.00025
2094.58487,0.00031
2092.65615,0.00043
2090.72744,0.00050
2088.79872,0.00037
2086.87000,0.00021
2084.94129,0.00020
2083.01257,0.00020
2081.08386,0.00018
2079.15514,0.00015
2077.22643,-0.00012
2075.29771,0.00009
2073.36900,0.00025
2071.44028,0.00041
2069.51157,0.00050
2067.58285,0.00047
2065.65414,0.00046
2063.72542,0.00049
2061.79671,0.00037
2059.86799,0.00016
2057.93927,0.00013
2056.01056,0.00024
2054.08184,0.00005
2052.15313,0.00017
2050.22441,0.00031
2048.29570,0.00037
2046.36698,0.00033
2044.43827,0.00021
2042.50955,0.00018
2040.58084,0.00028
2038.65212,0.00026
2036.72341,0.00028
2034.79469,0.00036
2032.86598,0.00036
2030.93726,0.00027
2029.00854,0.00020
2027.07983,0.00020
2025.15111,0.00011
2023.22240,0.00007
2021.29368,0.00024
2019.36497,0.00045
2017.43625,0.00043
2015.50754,0.00024
2013.57882,0.00015
2011.65011,0.00022
2009.72139,0.00030
2007.79268,0.00027
2005.86396,0.00011
2003.93524,0.00007
2002.00653,0.00034
2000.07781,0.00045
1998.14910,0.00031
1996.22038,0.00021
1994.29167,0.00023
1992.36295,0.00030
1990.43424,0.00036
1988.50552,0.00034
1986.57681,0.00033
1984.64809,0.00022
1982.71938,0.00017
1980.79066,0.00029
1978.86195,0.00026
1976.93323,0.00021
1975.00451,0.00022
1973.07580,0.00030
1971.14708,0.00026
1969.21837,0.00016
1967.28965,0.00012
1965.36094,0.00007
1963.43222,0.00001
1961.50351,0.00006
1959.57479,0.00019
1957.64608,0.00026
1955.71736,0.00027
1953.78865,0.00022
1951.85993,0.00019
1949.93122,0.00015
1948.00250,0.00013
1946.07378,0.00021
1944.14507,0.00033
1942.21635,0.00035
1940.28764,0.00022
1938.35892,0.00012
1936.43021,0.00027
1934.50149,0.00046
1932.57278,0.00051
1930.64406,0.00045
1928.71535,0.00034
1926.78663,0.00026
1924.85792,0.00022
1922.92920,0.00029
1921.00049,0.00050
1919.07177,0.00048
1917.14305,0.00022
1915.21434,0.00018
1913.28562,0.00054
1911.35691,0.00050
1909.42819,0.00027
1907.49948,0.00007
1905.57076,0.00007
1903.64205,0.00016
1901.71333,0.00021
1899.78462,0.00031
1897.85590,0.00043
1895.92719,0.00043
1893.99847,0.00030
1892.06975,0.00016
1890.14104,0.00026
1888.21232,0.00030
1886.28361,0.00024
1884.35489,0.00021
1882.42618,0.00022
1880.49746,0.00019
1878.56875,0.00007
1876.64003,0.00009
1874.71132,0.00031
1872.78260,0.00031
1870.85389,0.00020
1868.92517,0.00010
1866.99646,0.00012
1865.06774,0.00025
1863.13902,0.00042
1861.21031,0.00043
1859.28159,0.00038
1857.35288,0.00041
1855.42416,0.00047
1853.49545,0.00034
1851.56673,0.00021
1849.63802,0.00019
1847.70930,0.00037
1845.78059,0.00052
1843.85187,0.00040
1841.92316,0.00009
1839.99444,0.00013
1838.06573,0.00005
1836.13701,0.00007
1834.20829,0.00025
1832.27958,0.00035
1830.35086,0.00030
1828.42215,0.00024
1826.49343,0.00030
1824.56472,0.00046
1822.63600,0.00049
1820.70729,0.00034
1818.77857,0.00021
1816.84986,0.00025
1814.92114,0.00036
1812.99243,0.00040
1811.06371,0.00042
1809.13499,0.00040
1807.20628,0.00036
1805.27756,0.00030
1803.34885,0.00024
1801.42013,0.00023
1799.49142,0.00008
1797.56270,0.00006
1795.63399,0.00010
1793.70527,0.00015
1791.77656,0.00026
1789.84784,0.00031
1787.91913,0.00029
1785.99041,0.00030
1784.06170,0.00036
1782.13298,0.00046
1780.20426,0.00045
1778.27555,0.00035
1776.34683,0.00032
1774.41812,0.00026
1772.48940,0.00014
1770.56069,0.00014
1768.63197,0.00012
1766.70326,0.00011
1764.77454,0.00013
1762.84583,0.00019
1760.91711,0.00027
1758.98840,0.00033
1757.05968,0.00042
1755.13097,0.00043
1753.20225,0.00037
1751.27353,0.00063
1749.34482,0.00071
1747.41610,0.00042
1745.48739,0.00014
1743.55867,0.00011
1741.62996,0.00026
1739.70124,0.00033
1737.77253,0.00010
1735.84381,0.00005
1733.91510,0.00022
1731.98638,0.00031
1730.05767,0.00015
1728.12895,0.00027
1726.20024,0.00042
1724.27152,0.00041
1722.34280,0.00019
1720.41409,0.00020
1718.48537,0.00049
1716.55666,0.00045
1714.62794,0.00028
1712.69923,0.00043
1710.77051,0.00040
1708.84180,0.00025
1706.91308,0.00002
1704.98437,0.00008
1703.05565,0.00028
1701.12694,0.00048
1699.19822,0.00059
1697.26950,0.00045
1695.34079,0.00017
1693.41207,0.00018
1691.48336,0.00019
1689.55464,0.00019
1687.62593,0.00027
1685.69721,0.00041
1683.76850,0.00068
1681.83978,0.00068
1679.91107,0.00027
1677.98235,0.00023
1676.05364,0.00014
1674.12492,0.00001
1672.19621,0.00021
1670.26749,0.00047
1668.33877,0.00019
1666.41006,-0.00004
1664.48134,0.00013
1662.55263,0.00037
1660.62391,0.00043
1658.69520,0.00042
1656.76648,0.00050
1654.83777,0.00066
1652.90905,0.00036
1650.98034,0.00018
1649.05162,0.00047
1647.12291,0.00068
1645.19419,0.00043
1643.26548,0.00031
1641.33676,0.00030
1639.40804,0.00066
1637.47933,0.00089
1635.55061,0.00048
1633.62190,0.00000
1631.69318,0.00010
1629.76447,0.00025
1627.83575,0.00040
1625.90704,0.00032
1623.97832,0.00018
1622.04961,0.00031
1620.12089,0.00049
1618.19218,0.00048
1616.26346,0.00040
1614.33474,0.00030
1612.40603,0.00007
1610.47731,0.00014
1608.54860,0.00031
1606.61988,0.00022
1604.69117,0.00016
1602.76245,0.00014
1600.83374,0.00016
1598.90502,0.00023
1596.97631,0.00029
1595.04759,0.00025
1593.11888,0.00034
1591.19016,0.00031
1589.26145,0.00021
1587.33273,0.00010
1585.40401,0.00012
1583.47530,0.00002
1581.54658,-0.00006
1579.61787,0.00009
1577.68915,0.00038
1575.76044,0.00033
1573.83172,0.00033
1571.90301,0.00040
1569.97429,0.00036
1568.04558,0.00005
1566.11686,0.00003
1564.18815,0.00023
1562.25943,0.00028
1560.33072,0.00011
1558.40200,0.00061
1556.47328,0.00060
1554.54457,0.00040
1552.61585,0.00039
1550.68714,0.00033
1548.75842,0.00010
1546.82971,0.00022
1544.90099,0.00037
1542.97228,0.00069
1541.04356,0.00133
1539.11485,0.00117
1537.18613,0.00077
1535.25742,0.00076
1533.32870,0.00064
1531.39999,0.00055
1529.47127,0.00041
1527.54255,0.00025
1525.61384,-0.00001
1523.68512,-0.00004
1521.75641,0.00027
1519.82769,0.00062
1517.89898,0.00075
1515.97026,0.00060
1514.04155,0.00039
1512.11283,0.00035
1510.18412,0.00042
1508.25540,0.00076
1506.32669,0.00096
1504.39797,0.00069
1502.46925,0.00047
1500.54054,0.00034
1498.61182,0.00033
1496.68311,0.00031
1494.75439,0.00014
1492.82568,0.00010
1490.89696,0.00017
1488.96825,0.00038
1487.03953,0.00028
1485.11082,0.00016
1483.18210,0.00007
1481.25339,0.00003
1479.32467,0.00014
1477.39596,0.00025
1475.46724,0.00036
1473.53852,0.00030
1471.60981,0.00007
1469.68109,0.00009
1467.75238,0.00008
1465.82366,0.00029
1463.89495,0.00042
1461.96623,0.00031
1460.03752,0.00035
1458.10880,0.00065
1456.18009,0.00075
1454.25137,0.00068
1452.32266,0.00058
1450.39394,0.00039
1448.46523,0.00014
1446.53651,0.00017
1444.60779,0.00024
1442.67908,0.00030
1440.75036,0.00037
1438.82165,0.00039
1436.89293,0.00030
1434.96422,0.00033
1433.03550,0.00040
1431.10679,0.00042
1429.17807,0.00027
1427.24936,0.00012
1425.32064,0.00008
1423.39193,0.00017
1421.46321,0.00038
1419.53449,0.00055
1417.60578,0.00044
1415.67706,0.00037
1413.74835,0.00033
1411.81963,0.00034
1409.89092,0.00043
1407.96220,0.00039
1406.03349,0.00015
1404.10477,0.00019
1402.17606,0.00039
1400.24734,0.00046
1398.31863,0.00025
1396.38991,0.00007
1394.46120,0.00012
1392.53248,0.00017
1390.60376,0.00021
1388.67505,0.00028
1386.74633,0.00029
1384.81762,0.00051
1382.88890,0.00045
1380.96019,0.00018
1379.03147,0.00007
1377.10276,0.00019
1375.17404,0.00018
1373.24533,0.00017
1371.31661,0.00017
1369.38790,0.00019
1367.45918,0.00024
1365.53047,0.00033
1363.60175,0.00026
1361.67303,0.00033
1359.74432,0.00037
1357.81560,0.00033
1355.88689,0.00031
1353.95817,0.00030
1352.02946,0.00018
1350.10074,0.00009
1348.17203,0.00017
1346.24331,0.00035
1344.31460,0.00040
1342.38588,0.00036
1340.45717,0.00026
1338.52845,0.00019
1336.59974,0.00034
1334.67102,0.00065
1332.74230,0.00071
1330.81359,0.00046
1328.88487,0.00022
1326.95616,0.00014
1325.02744,0.00013
1323.09873,0.00017
1321.17001,0.00017
1319.24130,0.00037
1317.31258,0.00045
1315.38387,0.00033
1313.45515,0.00046
1311.52644,0.00051
1309.59772,0.00038
1307.66900,0.00027
1305.74029,0.00030
1303.81157,0.00036
1301.88286,0.00035
1299.95414,0.00027
1298.02543,0.00025
1296.09671,0.00036
1294.16800,0.00035
1292.23928,0.00041
1290.31057,0.00048
1288.38185,0.00048
1286.45314,0.00030
1284.52442,0.00009
1282.59571,0.00024
1280.66699,0.00049
1278.73827,0.00054
1276.80956,0.00046
1274.88084,0.00038
1272.95213,0.00037
1271.02341,0.00033
1269.09470,0.00014
1267.16598,0.00011
1265.23727,0.00035
1263.30855,0.00041
1261.37984,0.00036
1259.45112,0.00014
1257.52241,0.00009
1255.59369,0.00014
1253.66498,0.00036
1251.73626,0.00043
1249.80754,0.00030
1247.87883,0.00009
1245.95011,0.00005
1244.02140,0.00006
1242.09268,0.00025
1240.16397,0.00030
1238.23525,0.00028
1236.30654,0.00031
1234.37782,0.00039
1232.44911,0.00042
1230.52039,0.00046
1228.59168,0.00041
1226.66296,0.00027
1224.73424,0.00018
1222.80553,0.00019
1220.87681,0.00028
1218.94810,0.00032
1217.01938,0.00028
1215.09067,0.00025
1213.16195,0.00029
1211.23324,0.00041
1209.30452,0.00048
1207.37581,0.00045
1205.44709,0.00031
1203.51838,0.00033
1201.58966,0.00076
1199.66095,0.00091
1197.73223,0.00066
1195.80351,0.00025
1193.87480,-0.00007
1191.94608,0.00014
1190.01737,0.00016
1188.08865,0.00021
1186.15994,0.00027
1184.23122,0.00032
1182.30251,0.00055
1180.37379,0.00069
1178.44508,0.00055
1176.51636,0.00039
1174.58765,0.00042
1172.65893,0.00062
1170.73022,0.00063
1168.80150,0.00062
1166.87278,0.00071
1164.94407,0.00059
1163.01535,0.00036
1161.08664,0.00022
1159.15792,0.00031
1157.22921,0.00037
1155.30049,0.00015
1153.37178,0.00009
1151.44306,0.00036
1149.51435,0.00047
1147.58563,0.00035
1145.65692,0.00018
1143.72820,0.00011
1141.79949,0.00026
1139.87077,0.00046
1137.94205,0.00053
1136.01334,0.00036
1134.08462,0.00020
1132.15591,0.00018
1130.22719,0.00041
1128.29848,0.00064
1126.36976,0.00054
1124.44105,0.00031
1122.51233,0.00028
1120.58362,0.00031
1118.65490,0.00042
1116.72619,0.00045
1114.79747,0.00050
1112.86875,0.00057
1110.94004,0.00059
1109.01132,0.00032
1107.08261,0.00026
1105.15389,0.00035
1103.22518,0.00032
1101.29646,0.00037
1099.36775,0.00055
1097.43903,0.00041
1095.51032,0.00020
1093.58160,0.00038
1091.65289,0.00069
1089.72417,0.00075
1087.79546,0.00076
1085.86674,0.00078
1083.93802,0.00058
1082.00931,0.00027
1080.08059,0.00014
1078.15188,0.00006
1076.22316,0.00022
1074.29445,0.00033
1072.36573,0.00045
1070.43702,0.00060
1068.50830,0.00060
1066.57959,0.00060
1064.65087,0.00070
1062.72216,0.00076
1060.79344,0.00081
1058.86473,0.00076
1056.93601,0.00063
1055.00729,0.00047
1053.07858,0.00036
1051.14986,0.00034
1049.22115,0.00030
1047.29243,0.00012
1045.36372,0.00010
1043.43500,0.00011
1041.50629,0.00030
1039.57757,0.00044
1037.64886,0.00035
1035.72014,0.00009
1033.79143,0.00025
1031.86271,0.00051
1029.93399,0.00055
1028.00528,0.00031
1026.07656,0.00027
1024.14785,0.00028
1022.21913,0.00015
1020.29042,0.00008
1018.36170,0.00028
1016.43299,0.00044
1014.50427,0.00069
1012.57556,0.00061
1010.64684,0.00032
1008.71813,0.00024
1006.78941,0.00015
1004.86070,0.00029
1002.93198,0.00054
1001.00326,0.00045
999.07455,0.00020
997.14583,0.00011
995.21712,0.00024
993.28840,0.00044
991.35969,0.00044
989.43097,0.00029
987.50226,0.00024
985.57354,0.00020
983.64483,0.00055
981.71611,0.00033
979.78740,0.00021
977.85868,0.00027
975.92997,0.00023
974.00125,0.00039
972.07253,0.00064
970.14382,0.00040
968.21510,-0.00001
966.28639,0.00040
964.35767,0.00082
962.42896,0.00074
960.50024,0.00050
958.57153,0.00033
956.64281,0.00030
954.71410,0.00032
952.78538,0.00030
950.85667,0.00033
948.92795,0.00043
946.99924,0.00054
945.07052,0.00034
943.14180,0.00028
941.21309,0.00026
939.28437,0.00040
937.35566,0.00039
935.42694,0.00030
933.49823,0.00026
931.56951,0.00035
929.64080,0.00055
927.71208,0.00050
925.78337,0.00036
923.85465,0.00037
921.92594,0.00023
919.99722,0.00005
918.06850,0.00038
916.13979,0.00075
914.21107,0.00088
912.28236,0.00081
910.35364,0.00047
908.42493,0.00020
906.49621,0.00023
904.56750,0.00019
902.63878,0.00020
900.71007,0.00032
898.78135,0.00045
896.85264,0.00047
894.92392,0.00046
892.99521,0.00051
891.06649,0.00038
889.13777,0.00025
887.20906,0.00027
885.28034,0.00040
883.35163,0.00072
881.42291,0.00074
879.49420,0.00062
877.56548,0.00049
875.63677,0.00042
873.70805,0.00050
871.77934,0.00037
869.85062,0.00026
867.92191,0.00041
865.99319,0.00053
864.06448,0.00038
862.13576,0.00011
860.20704,0.00081
858.27833,0.00092
856.34961,0.00059
854.42090,0.00032
852.49218,0.00023
850.56347,0.00030
848.63475,0.00052
846.70604,0.00064
844.77732,0.00038
842.84861,0.00011
840.91989,0.00043
838.99118,0.00064
837.06246,0.00066
835.13375,0.00076
833.20503,0.00086
831.27631,0.00078
829.34760,0.00066
827.41888,0.00048
825.49017,0.00026
823.56145,0.00020
821.63274,0.00035
819.70402,0.00038
817.77531,0.00012
815.84659,-0.00009
813.91788,0.00018
811.98916,0.00065
810.06045,0.00087
808.13173,0.00065
806.20301,0.00031
804.27430,0.00036
802.34558,0.00064
800.41687,0.00088
798.48815,0.00093
796.55944,0.00095
794.63072,0.00102
792.70201,0.00091
790.77329,0.00055
788.84458,0.00069
786.91586,0.00052
784.98715,0.00031
783.05843,0.00044
781.12972,0.00057
779.20100,0.00056
777.27228,0.00075
775.34357,0.00095
773.41485,0.00086
771.48614,0.00086
769.55742,0.00108
767.62871,0.00115
765.69999,0.00078
763.77128,0.00070
761.84256,0.00097
759.91385,0.00099
757.98513,0.00069
756.05642,0.00050
754.12770,0.00033
752.19899,0.00028
750.27027,0.00033
748.34155,0.00051
746.41284,0.00055
744.48412,0.00080
742.55541,0.00092
740.62669,0.00070
738.69798,0.00052
736.76926,0.00071
734.84055,0.00100
732.91183,0.00124
730.98312,0.00124
729.05440,0.00088
727.12569,0.00061
725.19697,0.00072
723.26825,0.00073
721.33954,0.00090
719.41082,0.00103
717.48211,0.00078
715.55339,0.00065
713.62468,0.00086
711.69596,0.00099
709.76725,0.00091
707.83853,0.00081
705.90982,0.00091
703.98110,0.00064
702.05239,0.00010
700.12367,0.00021
698.19496,0.00076
696.26624,0.00048
694.33752,0.00055
692.40881,0.00047
690.48009,0.00057
688.55138,0.00038
686.62266,0.00038
684.69395,0.00069
682.76523,0.00102
680.83652,0.00105
678.90780,0.00093
676.97909,0.00107
675.05037,0.00121
673.12166,0.00072
671.19294,0.00041
669.26423,0.00085
667.33551,0.00135
665.40679,0.00136
663.47808,0.00164
661.54936,0.00197
659.62065,0.00179
657.69193,0.00105
655.76322,0.00073
653.83450,0.00129
651.90579,0.00192
649.97707,0.00172
648.04836,0.00088
646.11964,0.00066
644.19093,0.00160
642.26221,0.00178
640.33350,0.00093
638.40478,0.00054
636.47606,0.00115
634.54735,0.00185
632.61863,0.00182
630.68992,0.00119
628.76120,0.00108
626.83249,0.00138
624.90377,0.00096
622.97506,0.00017
621.04634,0.00088
619.11763,0.00196
617.18891,0.00289
615.26020,0.00299
613.33148,0.00249
611.40276,0.00204
609.47405,0.00161
607.54533,0.00098
605.61662,0.00037
603.68790,0.00052
601.75919,0.00172
599.83047,0.00286
